DTS Sentinel unit serial number:	SN413079Multiplexer serial number:	ORYXHardware model number:	OX4-SRSoftware version number:	ORYX F/W v4.00 Oryx Data Collector v3.7.2.0data status	okinstallation	princeton_trtdifferential loss correction	single-endedforward channel	channel 3reverse channel	N/Adate	2019/09/10time	16:14:11forward acquisition time	60.00reverse acquisition time	0.00gamma	496.2192k internal	0.2298k external	0.2298temperature offset calibration	0.9906default loss term (dB/km)	0.3790temperature slope calibration	1.0000multiplexer offset coefficient	1.0000multiplexer slope coefficient	1.0000fibre end	0.00T internal ref (°C)	38.27T ext. ref 1 (°C)	-0.29T ext. ref 2 (°C)	31.07length (m)	temperature (°C)	Stokes	anti-Stokes-747.200	-200.000	-0.028	0.175
-746.185	800.000	0.014	-0.042
-745.171	-150.988	0.039	0.003
-744.156	-14.881	0.152	0.100
-743.142	123.665	-0.238	0.305
-742.127	-200.000	-0.107	0.593
-741.112	-111.874	-0.127	-0.026
-740.098	5.137	-0.032	0.024
-739.083	-200.000	0.050	-0.330
-738.069	61.256	-0.339	0.343
-737.054	800.000	0.037	0.112
-736.039	-11.583	-0.235	0.157
-735.025	-200.000	-0.000	-0.003
-734.010	80.739	-0.250	-0.275
-732.996	428.700	-0.147	0.323
-731.981	-144.284	-0.195	0.019
-730.966	800.000	-0.046	0.163
-729.952	-52.105	0.046	-0.022
-728.937	172.271	-0.282	0.414
-727.923	-129.167	-0.428	-0.061
-726.908	800.000	-0.056	-0.233
-725.894	-25.714	0.170	0.102
-724.879	45.912	-0.147	0.139
-723.864	405.610	0.078	0.167
-722.850	30.104	0.312	-0.272
-721.835	26.697	-0.239	-0.204
-720.821	-193.111	-0.096	-0.001
-719.806	-132.705	-0.360	0.047
-718.791	32.879	0.230	-0.203
-717.777	67.631	-0.102	-0.106
-716.762	-96.068	-0.266	-0.072
-715.748	67.811	-0.088	0.091
-714.733	-200.000	0.059	-0.471
-713.718	-173.034	0.235	-0.007
-712.704	15.953	-0.292	0.235
-711.689	140.436	-0.033	0.044
-710.675	-128.461	-0.375	-0.054
-709.660	5.294	0.094	-0.071
-708.645	-167.772	-0.468	0.019
-707.631	58.736	0.086	-0.086
-706.616	201.151	0.029	0.045
-705.602	275.531	0.178	-0.323
-704.587	-111.525	-0.280	0.058
-703.572	48.958	-0.122	-0.116
-702.558	-143.210	-0.265	-0.026
-701.543	-31.479	0.146	-0.084
-700.529	-124.042	-0.202	0.032
-699.514	145.001	0.037	0.050
-698.499	42.483	-0.269	0.250
-697.485	188.846	-0.147	-0.225
-696.470	-105.889	-0.461	-0.106
-695.456	-65.158	-0.213	0.088
-694.441	-90.833	-0.149	0.044
-693.426	-89.810	-0.196	-0.058
-692.412	-111.283	-0.184	-0.038
-691.397	5.822	0.113	-0.085
-690.383	56.937	0.230	-0.228
-689.368	20.629	0.119	0.098
-688.354	-77.452	-0.406	-0.143
-687.339	-200.000	0.022	0.140
-686.324	368.204	-0.062	0.127
-685.310	-200.000	-0.042	0.219
-684.295	192.016	-0.168	0.258
-683.281	800.000	0.097	-0.382
-682.266	44.192	-0.097	-0.090
-681.251	-71.154	-0.183	0.070
-680.237	-200.000	0.048	-0.270
-679.222	-79.701	-0.451	0.155
-678.208	-166.881	-0.468	0.020
-677.193	-68.783	-0.376	0.148
-676.178	105.151	-0.207	0.249
-675.164	658.671	0.086	0.225
-674.149	529.717	0.090	0.216
-673.135	129.782	-0.027	-0.035
-672.120	-25.849	-0.313	0.188
-671.105	251.099	-0.060	-0.103
-670.091	-120.323	0.371	-0.064
-669.076	221.127	-0.035	-0.058
-668.062	82.686	0.190	-0.210
-667.047	-74.399	-0.096	-0.035
-666.032	-133.879	0.355	0.045
-665.018	-121.674	0.051	-0.009
-664.003	800.000	0.057	-0.197
-662.989	225.790	0.197	-0.325
-661.974	109.230	-0.188	-0.229
-660.959	239.661	-0.090	0.153
-659.945	-90.668	-0.380	0.112
-658.930	70.579	0.051	-0.053
-657.916	800.000	0.084	-0.327
-656.901	-200.000	0.009	0.098
-655.886	-119.734	-0.128	0.022
-654.872	154.499	0.058	0.082
-653.857	-108.393	0.546	-0.120
-652.843	-128.656	0.202	-0.029
-651.828	-66.148	0.185	0.075
-650.814	-200.000	0.033	-0.195
-649.799	127.331	-0.078	-0.100
-648.784	34.118	-0.177	0.157
-647.770	109.747	-0.028	-0.035
-646.755	-200.000	-0.051	0.375
-645.741	-79.684	-0.432	0.148
-644.726	70.569	0.088	-0.093
-643.711	109.903	0.147	-0.179
-642.697	119.756	-0.157	-0.197
-641.682	796.242	0.017	-0.047
-640.668	-200.000	-0.004	-0.020
-639.653	-143.766	-0.261	0.025
-638.638	-94.242	-0.128	0.035
-637.624	-57.719	0.333	-0.148
-636.609	-200.000	-0.042	-0.215
-635.595	312.811	-0.065	0.124
-634.580	-7.244	-0.196	-0.135
-633.565	-190.731	0.399	0.004
-632.551	141.295	-0.114	-0.153
-631.536	-170.094	0.136	0.005
-630.522	-35.901	-0.458	-0.252
-629.507	-19.486	-0.128	-0.081
-628.492	13.667	-0.202	-0.160
-627.478	800.000	0.085	0.268
-626.463	-45.721	-0.324	-0.163
-625.449	-200.000	-0.008	-0.219
-624.434	800.000	0.064	-0.232
-623.419	361.576	0.074	-0.150
-622.405	62.217	0.074	-0.075
-621.390	-126.109	0.247	-0.038
-620.376	-139.063	0.159	-0.017
-619.361	-7.490	-0.171	-0.117
-618.346	321.968	0.234	-0.453
-617.332	-62.869	-0.207	-0.087
-616.317	-135.345	-0.139	0.017
-615.303	-200.000	-0.023	-0.120
-614.288	65.993	-0.108	0.112
-613.273	-200.000	-0.015	0.117
-612.259	159.488	-0.091	-0.129
-611.244	-110.417	-0.362	0.076
-610.230	68.519	0.147	-0.153
-609.215	-68.706	0.091	-0.036
-608.201	-121.224	-0.285	-0.048
-607.186	-109.087	0.388	-0.084
-606.171	283.467	0.070	0.127
-605.157	-59.977	0.009	0.004
-604.142	323.100	-0.106	0.205
-603.128	-200.000	-0.006	0.159
-602.113	-181.629	-0.334	0.007
-601.098	-43.360	0.372	-0.191
-600.084	266.399	-0.095	0.168
-599.069	-70.044	-0.239	0.092
-598.055	512.354	0.054	0.128
-597.040	-200.000	-0.009	0.159
-596.025	771.776	0.128	-0.354
-595.011	-200.000	0.003	0.089
-593.996	-100.416	0.282	0.071
-592.982	1.922	-0.409	-0.299
-591.967	347.139	0.076	-0.151
-590.952	-200.000	0.026	-0.154
-589.938	91.638	-0.055	0.063
-588.923	-200.000	-0.056	0.379
-587.909	-200.000	0.025	-0.267
-586.894	800.000	-0.033	-0.123
-585.879	29.694	-0.229	0.198
-584.865	-3.082	-0.402	0.284
-583.850	-200.000	0.073	0.328
-582.836	-78.953	-0.098	0.034
-581.821	-19.819	-0.213	0.134
-580.806	-200.000	-0.028	0.175
-579.792	274.773	-0.029	-0.052
-578.777	19.761	0.182	-0.149
-577.763	8.989	-0.231	0.177
-576.748	-1.212	0.257	-0.184
-575.733	151.304	-0.200	-0.276
-574.719	800.000	-0.022	0.076
-573.704	-34.142	0.347	0.193
-572.690	800.000	0.045	0.193
-571.675	-4.597	0.119	-0.083
-570.661	800.000	-0.021	-0.089
-569.646	-200.000	0.020	0.146
-568.631	-190.167	-0.104	-0.001
-567.617	36.154	-0.053	0.047
-566.602	-101.875	0.165	0.040
-565.588	-200.000	0.008	-0.090
-564.573	254.782	0.135	0.234
-563.558	800.000	-0.060	-0.239
-562.544	-105.852	-0.198	-0.045
-561.529	-111.930	-0.103	-0.021
-560.515	-122.550	-0.188	-0.031
-559.500	87.163	-0.083	-0.093
-558.485	95.548	0.222	-0.257
-557.471	800.000	0.057	0.182
-556.456	24.317	0.390	0.326
-555.442	364.149	-0.016	0.032
-554.427	-63.732	-0.311	-0.129
-553.412	47.220	-0.107	0.101
-552.398	-108.828	-0.088	0.019
-551.383	-35.688	0.159	0.087
-550.369	-200.000	0.018	0.155
-549.354	-200.000	0.029	0.222
-548.339	68.881	0.171	-0.178
-547.325	-7.973	-0.120	-0.082
-546.310	-16.740	0.216	-0.138
-545.296	33.537	0.126	-0.111
-544.281	-200.000	-0.013	-0.087
-543.266	-148.501	-0.163	0.014
-542.252	36.816	0.113	0.101
-541.237	-48.640	-0.372	0.181
-540.223	-69.853	0.308	-0.119
-539.208	-80.107	-0.236	-0.080
-538.193	347.781	0.180	-0.358
-537.179	-200.000	-0.042	-0.278
-536.164	-200.000	0.004	-0.054
-535.150	521.985	0.128	0.305
-534.135	52.319	0.036	-0.035
-533.121	-86.158	0.118	0.037
-532.106	-130.412	-0.307	-0.042
-531.091	372.449	-0.082	-0.170
-530.077	328.036	-0.121	0.236
-529.062	42.986	0.226	-0.209
-528.048	-35.116	0.345	0.190
-527.033	-49.932	0.069	0.033
-526.018	-109.443	0.138	-0.029
-525.004	114.544	0.155	0.192
-523.989	-200.000	0.045	0.502
-522.975	800.000	-0.026	-0.083
-521.960	-200.000	0.007	-0.333
-520.945	136.864	0.170	-0.225
-519.931	800.000	-0.021	0.087
-518.916	-48.302	-0.236	-0.115
-517.902	-164.533	-0.222	-0.010
-516.887	-78.795	0.288	-0.099
-515.872	37.431	0.273	-0.245
-514.858	-44.400	0.155	-0.078
-513.843	26.156	0.180	-0.152
-512.829	-91.843	0.118	0.034
-511.814	-117.886	-0.363	-0.066
-510.799	47.920	0.054	-0.051
-509.785	-63.704	-0.188	-0.078
-508.770	-171.182	-0.112	-0.004
-507.756	109.434	-0.139	-0.168
-506.741	-200.000	0.006	0.165
-505.726	50.578	-0.065	-0.062
-504.712	-80.522	-0.099	0.033
-503.697	-67.658	-0.448	0.177
-502.683	-80.285	-0.053	-0.018
-501.668	0.861	0.242	-0.176
-500.653	-200.000	-0.044	-0.267
-499.639	-81.842	0.056	-0.019
-498.624	-177.697	0.189	0.005
-497.610	-126.674	0.328	0.049
-496.595	-200.000	-0.005	0.084
-495.581	256.823	-0.082	0.142
-494.566	158.494	-0.089	0.124
-493.551	-143.451	-0.064	-0.006
-492.537	-13.804	0.317	0.207
-491.522	-94.716	0.224	0.062
-490.508	-62.521	-0.146	0.061
-489.493	740.359	-0.047	-0.128
-488.478	-177.032	-0.203	-0.005
-487.464	-37.354	-0.207	0.112
-486.449	-108.536	0.130	-0.028
-485.435	-124.814	-0.350	-0.055
-484.420	-149.067	0.075	0.006
-483.405	-101.037	-0.339	0.084
-482.391	-200.000	0.024	0.127
-481.376	121.517	0.074	0.094
-480.362	-200.000	-0.013	0.180
-479.347	800.000	-0.044	-0.164
-478.332	-200.000	0.029	-0.186
-477.318	800.000	0.069	0.256
-476.303	-131.342	-0.258	-0.035
-475.289	-83.498	0.039	0.013
-474.274	38.917	0.087	-0.078
-473.259	187.981	0.138	0.209
-472.245	-160.622	0.416	-0.022
-471.230	680.183	-0.078	0.205
-470.216	28.737	-0.090	0.077
-469.201	6.949	0.072	-0.054
-468.186	163.608	-0.112	-0.159
-467.172	-52.592	0.240	-0.112
-466.157	74.162	0.043	0.045
-465.143	-181.047	0.219	-0.004
-464.128	-136.059	0.235	0.028
-463.113	224.292	-0.146	-0.238
-462.099	-91.776	0.106	-0.030
-461.084	158.661	0.155	-0.217
-460.070	88.778	-0.108	0.121
-459.055	124.220	-0.158	-0.200
-458.040	-36.909	0.096	-0.052
-457.026	-9.849	0.204	-0.137
-456.011	-70.712	-0.216	0.082
-454.997	-139.206	0.110	-0.012
-453.982	-6.377	0.259	0.178
-452.968	-200.000	-0.016	0.297
-451.953	-8.422	0.158	0.107
-450.938	-16.450	-0.316	0.202
-449.924	75.057	0.201	-0.214
-448.909	33.315	0.131	0.115
-447.895	334.260	-0.184	0.360
-446.880	-200.000	0.006	-0.078
-445.865	23.459	0.076	-0.063
-444.851	-75.416	-0.089	-0.032
-443.836	-200.000	-0.013	0.075
-442.822	790.924	0.052	0.144
-441.807	-200.000	0.047	0.334
-440.792	-200.000	0.004	-0.211
-439.778	-18.379	0.095	0.060
-438.763	-55.573	0.045	-0.020
-437.749	-200.000	0.053	0.260
-436.734	-188.046	0.502	-0.007
-435.719	-27.465	-0.164	0.096
-434.705	177.532	-0.107	0.158
-433.690	125.276	-0.235	0.298
-432.676	-7.169	0.313	0.214
-431.661	449.657	-0.053	0.118
-430.646	-71.822	-0.219	0.082
-429.632	800.000	0.085	0.274
-428.617	443.497	0.106	-0.234
-427.603	-200.000	-0.015	-0.298
-426.588	-86.824	-0.140	0.043
-425.573	-35.377	-0.230	0.126
-424.559	-69.621	-0.182	-0.070
-423.544	-17.156	-0.054	-0.035
-422.530	800.000	0.058	-0.180
-421.515	-200.000	0.069	0.345
-420.500	-65.938	-0.295	-0.119
-419.486	800.000	0.119	-0.343
-418.471	-153.666	0.182	0.013
-417.457	800.000	-0.084	-0.366
-416.442	-200.000	0.018	0.129
-415.428	-119.456	0.421	-0.074
-414.413	-10.859	0.227	-0.151
-413.398	90.206	-0.144	0.162
-412.384	-37.067	-0.148	0.080
-411.369	-66.950	0.255	0.102
-410.355	-114.086	0.207	-0.040
-409.340	247.466	-0.164	-0.280
-408.325	124.574	0.143	-0.181
-407.311	-142.026	-0.150	0.015
-406.296	-13.417	-0.008	0.006
-405.282	145.116	0.105	-0.142
-404.267	221.667	0.069	0.112
-403.252	-40.001	0.224	-0.118
-402.238	-68.552	-0.223	-0.087
-401.223	-41.205	-0.168	0.087
-400.209	800.000	-0.052	-0.197
-399.194	387.220	-0.094	0.197
-398.179	-148.531	-0.290	-0.024
-397.165	-157.529	-0.281	0.017
-396.150	-14.316	0.080	0.052
-395.136	399.417	0.172	0.363
-394.121	-200.000	0.008	0.068
-393.106	-59.712	-0.328	-0.142
-392.092	120.092	0.271	-0.338
-391.077	528.057	-0.092	-0.219
-390.063	-200.000	0.020	0.223
-389.048	-200.000	-0.002	-0.147
-388.033	30.565	-0.129	-0.111
-387.019	15.971	-0.162	0.128
-386.004	-94.595	-0.142	-0.039
-384.990	219.171	-0.215	-0.346
-383.975	249.303	-0.074	-0.125
-382.960	207.716	-0.090	-0.142
-381.946	658.226	-0.034	0.087
-380.931	94.505	0.240	0.274
-379.917	-69.801	-0.217	0.083
-378.902	-200.000	0.013	-0.090
-377.888	-76.220	-0.128	-0.046
-376.873	-124.995	-0.345	-0.053
-375.858	-35.304	-0.235	0.129
-374.844	-95.146	0.106	0.029
-373.829	188.326	0.108	-0.162
-372.815	-80.704	0.072	0.024
-371.800	-151.168	-0.171	0.013
-370.785	68.705	-0.067	-0.069
-369.771	-65.806	0.104	0.042
-368.756	-33.831	0.331	-0.184
-367.742	-23.394	-0.315	-0.190
-366.727	-200.000	0.022	0.278
-365.712	-200.000	-0.001	0.174
-364.698	-140.580	-0.162	-0.017
-363.683	-200.000	-0.025	0.208
-362.669	301.749	-0.049	0.092
-361.654	-200.000	-0.024	0.265
-360.639	403.037	0.027	-0.057
-359.625	-29.694	-0.164	0.094
-358.610	-200.000	-0.001	-0.190
-357.596	-114.366	-0.264	-0.051
-356.581	-51.288	0.238	-0.112
-355.566	-115.351	-0.112	-0.021
-354.552	-200.000	0.036	-0.162
-353.537	-69.223	0.300	-0.116
-352.523	-57.509	-0.262	0.115
-351.508	-190.239	-0.216	0.002
-350.493	286.981	-0.025	-0.046
-349.479	-17.963	0.139	-0.087
-348.464	179.896	0.089	0.130
-347.450	-28.408	-0.190	0.110
-346.435	430.196	-0.086	0.188
-345.420	-200.000	0.026	-0.161
-344.406	-177.417	0.347	-0.009
-343.391	-22.650	-0.148	-0.090
-342.377	277.358	-0.034	0.060
-341.362	-129.927	-0.098	-0.013
-340.348	-102.255	0.133	-0.032
-339.333	403.794	0.087	0.184
-338.318	261.049	-0.147	-0.255
-337.304	-200.000	0.039	-0.311
-336.289	641.035	0.076	0.195
-335.275	800.000	0.036	-0.148
-334.260	-7.747	0.144	0.098
-333.245	-200.000	0.028	-0.291
-332.231	-147.038	-0.096	-0.008
-331.216	559.816	0.107	0.259
-330.202	53.496	-0.245	-0.236
-329.187	-123.572	0.220	0.035
-328.172	-200.000	0.012	0.128
-327.158	154.181	0.139	0.192
-326.143	-129.162	-0.279	-0.039
-325.129	-200.000	0.006	0.041
-324.114	-70.128	0.185	0.071
-323.099	-197.465	0.234	-0.001
-322.085	435.730	-0.079	-0.173
-321.070	-200.000	0.043	-0.248
-320.056	282.965	0.150	-0.271
-319.041	-117.757	-0.197	-0.036
-318.026	122.531	-0.139	-0.174
-317.012	220.616	-0.150	-0.242
-315.997	-156.642	0.208	0.013
-314.983	20.737	-0.208	0.169
-313.968	-49.659	-0.346	-0.165
-312.953	79.235	-0.255	0.274
-311.939	170.991	-0.121	-0.174
-310.924	-10.867	-0.087	0.058
-309.910	-4.171	0.012	0.008
-308.895	-2.156	-0.238	0.168
-307.880	-200.000	-0.005	-0.064
-306.866	-3.976	-0.276	-0.192
-305.851	800.000	0.081	0.343
-304.837	-137.546	-0.040	-0.005
-303.822	800.000	0.096	-0.409
-302.807	-121.138	0.278	0.047
-301.793	-27.316	0.142	0.083
-300.778	-60.268	-0.230	0.098
-299.764	104.409	-0.122	-0.144
-298.749	30.674	-0.149	-0.128
-297.735	97.967	0.133	-0.154
-296.720	-200.000	-0.049	-0.392
-295.705	366.982	-0.012	0.025
-294.691	11.011	0.207	0.159
-293.676	-71.152	-0.256	0.096
-292.662	-184.417	-0.128	0.002
-291.647	-79.744	0.120	0.040
-290.632	10.594	0.130	0.099
-289.618	231.586	0.137	0.226
-288.603	800.000	-0.082	0.249
-287.589	5.761	0.025	-0.018
-286.574	-200.000	-0.000	0.054
-285.559	-58.137	-0.130	-0.057
-284.545	-48.022	0.114	-0.055
-283.530	210.197	-0.096	-0.151
-282.516	-17.381	-0.063	-0.040
-281.501	753.489	0.011	-0.029
-280.486	128.687	-0.152	0.194
-279.472	-39.772	0.117	-0.061
-278.457	58.753	-0.223	0.219
-277.443	-76.417	0.421	0.148
-276.428	28.213	0.182	0.154
-275.413	21.226	0.087	0.070
-274.399	-193.542	0.140	0.001
-273.384	-77.077	-0.264	0.092
-272.370	29.092	0.111	-0.095
-271.355	-122.499	0.102	-0.017
-270.340	81.271	0.173	-0.188
-269.326	324.202	0.044	-0.085
-268.311	800.000	0.090	-0.293
-267.297	-200.000	0.017	-0.215
-266.282	-98.805	0.455	-0.116
-265.267	-75.096	0.167	0.060
-264.253	-29.701	0.060	0.034
-263.238	-20.503	0.267	-0.164
-262.224	-116.991	-0.283	-0.052
-261.209	-148.611	0.237	0.019
-260.195	12.552	0.208	-0.161
-259.180	-182.565	-0.269	0.005
-258.165	22.265	0.109	-0.089
-257.151	23.874	0.122	0.101
-256.136	800.000	-0.030	0.105
-255.122	300.812	-0.093	0.172
-254.107	-115.142	0.373	0.071
-253.092	247.336	0.074	-0.125
-252.078	-96.712	-0.167	-0.044
-251.063	-89.429	-0.115	0.034
-250.049	-13.183	0.277	-0.180
-249.034	-66.142	0.164	0.066
-248.019	341.679	0.206	0.403
-247.005	-76.219	-0.174	0.062
-245.990	-198.165	0.351	-0.002
-244.976	20.624	0.339	0.274
-243.961	299.082	-0.136	0.251
-242.946	-127.619	0.286	-0.041
-241.932	-29.301	0.299	0.171
-240.917	140.907	0.110	0.146
-239.903	75.971	-0.087	0.092
-238.888	327.507	-0.159	0.305
-237.873	-200.000	0.012	0.125
-236.859	-200.000	-0.070	0.373
-235.844	-125.190	-0.201	0.031
-234.830	-200.000	0.022	-0.364
-233.815	-32.154	0.121	-0.067
-232.800	-24.999	0.122	0.073
-231.786	362.345	-0.101	0.202
-230.771	310.793	-0.146	0.274
-229.757	94.328	-0.071	0.081
-228.742	-9.801	0.373	-0.249
-227.727	-200.000	0.032	0.151
-226.713	-72.663	0.100	0.037
-225.698	94.277	-0.122	-0.139
-224.684	-49.483	0.260	0.124
-223.669	-137.058	0.273	-0.031
-222.655	550.242	0.044	0.106
-221.640	-96.065	0.222	-0.059
-220.625	800.000	0.055	-0.194
-219.611	453.621	-0.044	0.097
-218.596	125.592	0.163	-0.205
-217.582	-141.362	0.156	-0.016
-216.567	-107.382	-0.183	-0.040
-215.552	-18.483	0.132	-0.082
-214.538	15.853	-0.098	0.077
-213.523	-106.638	0.149	0.033
-212.509	-200.000	-0.023	0.103
-211.494	-98.036	-0.106	-0.027
-210.479	-147.736	0.254	-0.021
-209.465	294.024	0.174	-0.317
-208.450	-115.185	-0.097	0.018
-207.436	-63.300	0.272	-0.112
-206.421	-25.156	0.189	0.112
-205.406	-200.000	0.006	-0.289
-204.392	90.437	-0.148	0.165
-203.377	-174.951	-0.227	-0.006
-202.363	-200.000	0.003	-0.078
-201.348	-112.773	0.507	0.101
-200.333	-74.000	0.374	-0.136
-199.319	676.815	0.113	0.294
-198.304	-71.614	-0.176	0.066
-197.290	-26.062	-0.339	-0.199
-196.275	65.923	-0.253	-0.257
-195.260	-10.007	-0.066	0.044
-194.246	1.706	0.100	-0.072
-193.231	-76.613	0.110	0.038
-192.217	-192.680	-0.197	0.002
-191.202	-83.262	-0.151	-0.048
-190.187	-3.981	0.136	-0.094
-189.173	480.022	-0.173	-0.391
-188.158	279.184	-0.139	0.248
-187.144	800.000	-0.037	-0.117
-186.129	128.731	0.062	0.078
-185.114	371.431	0.054	0.110
-184.100	-77.636	-0.147	-0.051
-183.085	-200.000	0.002	0.147
-182.071	-86.410	-0.123	-0.038
-181.056	616.139	-0.054	0.135
-180.042	-200.000	0.063	0.574
-179.027	90.172	-0.055	0.062
-178.012	-17.367	0.098	-0.062
-176.998	-200.000	-0.010	-0.102
-175.983	-200.000	0.037	-0.168
-174.969	55.822	-0.276	0.267
-173.954	194.646	-0.063	-0.095
-172.939	-200.000	0.017	0.107
-171.925	66.268	0.154	0.156
-170.910	423.612	-0.109	0.235
-169.896	140.593	0.029	0.038
-168.881	-200.000	-0.008	0.173
-167.866	-200.000	-0.039	-0.177
-166.852	-5.598	0.084	-0.058
-165.837	-200.000	-0.015	-0.098
-164.823	-119.698	-0.224	-0.039
-163.808	55.752	-0.135	0.131
-162.793	-156.315	0.201	-0.013
-161.779	-200.000	0.030	0.358
-160.764	-200.000	-0.063	0.446
-159.750	800.000	-0.058	0.162
-158.735	-121.511	-0.150	-0.025
-157.720	-73.530	0.078	-0.028
-156.706	-5.666	-0.115	-0.079
-155.691	228.286	-0.044	-0.072
-154.677	-111.289	0.034	0.007
-153.662	800.000	0.036	-0.147
-152.647	-123.952	-0.324	-0.051
-151.633	415.804	0.040	-0.084
-150.618	-3.994	0.147	-0.102
-149.604	54.370	-0.135	0.129
-148.589	-151.409	-0.126	0.009
-147.574	-28.914	-0.087	0.050
-146.560	-200.000	-0.009	0.059
-145.545	-188.560	-0.266	0.003
-144.531	-200.000	-0.001	0.069
-143.516	800.000	0.045	-0.195
-142.502	10.441	-0.178	-0.135
-141.487	800.000	0.065	0.244
-140.472	-94.531	0.192	-0.052
-139.458	50.285	-0.092	0.086
-138.443	-84.617	-0.150	-0.047
-137.429	-31.922	0.120	0.067
-136.414	-175.927	-0.072	-0.002
-135.399	-90.731	0.115	-0.033
-134.385	378.855	0.046	-0.094
-133.370	-50.996	0.059	-0.027
-132.356	-95.377	-0.182	0.049
-131.341	0.705	0.170	-0.121
-130.326	800.000	0.039	-0.167
-129.312	233.303	-0.116	-0.190
-128.297	357.544	-0.006	0.012
-127.283	-36.242	-0.316	-0.170
-126.268	-102.758	0.289	-0.068
-125.253	-71.510	-0.128	-0.048
-124.239	-31.482	0.100	0.056
-123.224	63.619	0.158	0.158
-122.210	225.509	-0.056	0.090
-121.195	-200.000	-0.015	-0.409
-120.180	35.368	0.146	-0.128
-119.166	-77.429	-0.056	-0.019
-118.151	-8.444	-0.095	0.064
-117.137	-66.168	-0.040	0.016
-116.122	-200.000	0.022	0.328
-115.107	308.594	-0.135	-0.251
-114.093	203.843	-0.087	-0.134
-113.078	800.000	0.050	0.203
-112.064	112.792	0.183	-0.221
-111.049	-49.469	-0.139	-0.066
-110.034	-31.804	0.089	0.050
-109.020	-23.267	0.326	0.195
-108.005	88.257	-0.080	-0.089
-106.991	164.550	0.068	-0.096
-105.976	-143.961	0.198	-0.019
-104.962	105.978	0.239	0.281
-103.947	-78.437	0.085	-0.029
-102.932	29.095	-0.079	-0.066
-101.918	-54.282	0.499	-0.225
-100.903	415.664	0.125	-0.265
-99.889	418.965	-0.087	-0.186
-98.874	766.458	-0.037	0.101
-97.859	525.246	-0.089	0.208
-96.845	-42.780	0.305	0.154
-95.830	-50.473	-0.148	0.070
-94.816	176.707	-0.101	0.146
-93.801	-200.000	-0.002	0.064
-92.786	-200.000	-0.053	0.248
-91.772	800.000	0.068	0.240
-90.757	-12.616	-0.238	0.155
-89.743	-164.584	-0.131	-0.006
-88.728	93.892	-0.184	-0.207
-87.713	-143.473	-0.164	0.016
-86.699	-74.418	0.207	-0.074
-85.684	195.656	0.072	-0.108
-84.670	800.000	-0.096	-0.287
-83.655	-120.818	-0.193	-0.032
-82.640	95.778	0.171	0.194
-81.626	520.784	-0.039	0.092
-80.611	-108.730	0.086	0.018
-79.597	21.222	0.208	0.168
-78.582	59.404	0.195	-0.191
-77.567	-136.982	0.069	0.008
-76.553	-2.448	-0.162	-0.113
-75.538	73.264	-0.274	0.285
-74.524	-130.513	0.258	0.035
-73.509	-8.869	-0.222	-0.148
-72.494	169.084	-0.089	-0.126
-71.480	800.000	0.020	0.069
-70.465	283.788	0.192	0.343
-69.451	-45.899	-0.156	0.077
-68.436	-85.215	-0.549	-0.171
-67.422	-88.799	0.113	0.033
-66.407	-200.000	0.019	-0.107
-65.392	243.051	0.065	-0.109
-64.378	252.810	-0.079	0.134
-63.363	800.000	0.053	0.170
-62.349	162.812	-0.094	0.131
-61.334	39.968	-0.708	-0.632
-60.319	81.864	0.329	0.354
-59.305	-200.000	-0.028	-0.893
-58.290	157.652	0.719	0.990
-57.276	592.424	0.681	1.670
-56.261	-200.000	82.823	502.824
-55.246	557.325	1381.612	3309.706
-54.232	177.509	2639.891	3821.804
-53.217	119.842	2296.511	2828.546
-52.203	48.350	1822.400	1695.039
-51.188	41.195	1627.597	1461.533
-50.173	38.906	1598.903	1419.178
-49.159	54.933	1639.647	1572.842
-48.144	59.070	1659.315	1621.906
-47.130	41.799	1621.166	1459.938
-46.115	38.515	1606.841	1423.157
-45.100	38.265	1604.177	1418.930
-44.086	38.235	1601.791	1416.540
-43.071	38.261	1599.643	1414.774
-42.057	38.240	1597.929	1413.051
-41.042	38.205	1596.286	1411.292
-40.027	38.272	1595.076	1410.651
-39.013	38.272	1592.937	1408.699
-37.998	38.276	1591.776	1407.647
-36.984	38.331	1589.987	1406.402
-35.969	38.331	1589.039	1405.506
-34.954	38.272	1587.690	1403.839
-33.940	38.223	1586.323	1402.220
-32.925	38.273	1584.509	1400.917
-31.911	38.204	1583.387	1399.379
-30.896	38.388	1581.461	1398.934
-29.881	38.340	1580.458	1397.649
-28.867	38.370	1579.313	1396.799
-27.852	38.315	1578.182	1395.346
-26.838	38.318	1576.420	1393.755
-25.823	38.320	1574.807	1392.293
-24.809	38.382	1572.873	1390.965
-23.794	38.286	1571.687	1389.178
-22.779	38.218	1570.382	1387.486
-21.765	38.340	1569.166	1387.222
-20.750	38.357	1568.508	1386.706
-19.736	38.241	1567.349	1384.806
-18.721	38.343	1565.339	1383.699
-17.706	38.267	1564.137	1382.042
-16.692	38.216	1563.453	1381.021
-15.677	38.254	1562.151	1380.086
-14.663	38.274	1560.980	1379.137
-13.648	38.274	1559.869	1378.098
-12.633	38.157	1559.156	1376.592
-11.619	38.194	1558.241	1375.994
-10.604	38.187	1557.278	1375.033
-9.590	38.194	1556.389	1374.249
-8.575	38.309	1555.001	1373.777
-7.560	38.306	1554.515	1373.267
-6.546	38.112	1553.827	1371.245
-5.531	38.136	1553.057	1370.680
-4.517	38.225	1551.563	1369.932
-3.502	38.173	1551.027	1369.037
-2.487	38.195	1549.713	1367.977
-1.473	38.129	1548.324	1366.237
-0.458	38.262	1546.846	1365.806
0.556	35.773	1537.017	1354.569
1.571	32.904	1508.051	1309.061
2.586	28.934	1440.459	1223.921
3.600	26.896	1352.318	1136.177
4.615	25.500	1304.661	1087.603
5.629	22.692	1247.829	1023.860
6.644	12.146	1153.817	889.727
7.659	1.892	1103.482	797.413
8.673	-0.025	1096.365	782.236
9.688	-0.269	1093.538	778.880
10.702	-0.498	1092.232	776.694
11.717	-0.387	1090.446	775.929
12.731	3.994	1096.449	802.895
13.746	14.288	1111.655	867.861
14.761	18.042	1115.150	890.101
15.775	15.121	1109.843	870.622
16.790	13.610	1107.337	860.740
17.804	13.352	1105.692	858.045
18.819	13.086	1105.024	856.070
19.834	12.974	1104.390	854.925
20.848	12.998	1103.005	853.903
21.863	12.757	1102.925	852.516
22.877	12.755	1101.620	851.422
23.892	12.732	1101.040	850.777
24.907	12.665	1100.307	849.790
25.921	12.670	1099.780	849.336
26.936	12.622	1099.078	848.472
27.950	12.713	1097.930	847.978
28.965	12.659	1096.444	846.477
29.980	12.783	1094.858	845.814
30.994	12.712	1093.508	844.335
32.009	12.649	1092.218	842.940
33.023	12.864	1091.067	843.077
34.038	12.690	1090.323	841.536
35.053	12.687	1089.289	840.649
36.067	12.655	1088.952	840.149
37.082	12.682	1087.605	839.174
38.096	12.764	1086.811	838.908
39.111	12.838	1085.948	838.545
40.126	12.767	1084.802	837.222
41.140	12.794	1083.423	836.224
42.155	12.764	1082.097	834.974
43.169	12.730	1081.181	834.020
44.184	12.664	1080.052	832.744
45.199	12.632	1079.107	831.777
46.213	12.562	1077.995	830.495
47.228	12.581	1076.851	829.636
48.242	12.559	1075.734	828.589
49.257	12.575	1074.475	827.625
50.271	12.564	1073.832	827.003
51.286	12.657	1072.648	826.487
52.301	12.731	1071.736	826.080
53.315	12.660	1070.828	824.952
54.330	12.751	1069.738	824.495
55.344	12.684	1068.678	823.267
56.359	12.689	1067.840	822.578
57.374	12.732	1066.883	821.982
58.388	12.591	1066.328	820.775
59.403	12.720	1064.964	820.297
60.417	12.768	1064.177	819.858
61.432	12.525	1063.875	818.342
62.447	12.640	1062.995	818.164
63.461	12.838	1061.862	818.204
64.476	12.740	1060.772	816.806
65.490	12.705	1060.095	816.037
66.505	12.765	1059.034	815.449
67.520	12.687	1058.579	814.637
68.534	12.730	1057.339	813.824
69.549	12.740	1056.446	813.115
70.563	12.663	1055.576	811.994
71.578	12.796	1054.932	812.082
72.593	12.773	1053.684	810.935
73.607	12.794	1053.078	810.501
74.622	12.715	1051.901	809.135
75.636	12.567	1051.432	807.976
76.651	12.760	1049.958	807.718
77.666	12.778	1049.523	807.402
78.680	12.777	1048.724	806.709
79.695	12.744	1048.145	806.030
80.709	12.747	1047.002	805.094
81.724	12.654	1046.657	804.304
82.739	12.755	1045.386	803.750
83.753	12.793	1044.884	803.477
84.768	12.722	1043.727	802.171
85.782	12.769	1042.825	801.637
86.797	12.742	1042.036	800.830
87.812	12.857	1040.869	800.417
88.826	12.722	1040.222	799.193
89.841	12.797	1039.254	798.742
90.855	12.884	1038.327	798.382
91.870	12.764	1037.658	797.216
92.884	12.868	1036.535	796.785
93.899	12.627	1036.342	795.402
94.914	12.889	1034.846	795.448
95.928	12.876	1033.913	794.596
96.943	12.768	1033.377	793.593
97.957	12.836	1032.530	793.201
98.972	12.639	1031.723	791.562
99.987	12.720	1030.338	790.822
101.001	12.663	1029.956	790.185
102.016	12.779	1029.324	790.186
103.030	12.784	1028.118	789.212
104.045	12.879	1026.696	788.508
105.060	12.748	1025.855	787.166
106.074	12.868	1024.250	786.437
107.089	12.737	1023.788	785.385
108.103	12.962	1022.972	785.766
109.118	12.961	1022.152	785.058
110.133	12.907	1021.098	783.922
111.147	12.801	1020.598	782.966
112.162	12.736	1019.719	781.916
113.176	12.863	1018.506	781.517
114.191	12.747	1017.634	780.230
115.206	12.845	1016.429	779.699
116.220	12.795	1015.106	778.380
117.235	12.759	1014.660	777.800
118.249	12.717	1013.879	776.932
119.264	12.802	1013.000	776.591
120.279	12.787	1012.186	775.829
121.293	12.826	1011.009	775.043
122.308	12.835	1010.331	774.494
123.322	12.831	1009.085	773.452
124.337	12.717	1008.872	772.687
125.352	12.869	1006.742	771.699
126.366	12.798	1005.383	770.259
127.381	12.819	1004.060	769.272
128.395	12.764	1003.539	768.549
129.410	12.963	1002.055	768.271
130.424	12.921	1001.165	767.324
131.439	13.005	1000.041	766.785
132.454	12.909	999.309	765.713
133.468	12.989	998.279	765.225
134.483	12.909	997.311	764.048
135.497	12.815	996.606	763.001
136.512	12.912	996.105	763.001
137.527	12.949	995.008	762.266
138.541	12.953	993.619	761.150
139.556	13.054	993.327	761.323
140.570	12.949	992.542	760.175
141.585	12.988	991.624	759.580
142.600	12.983	990.803	758.861
143.614	12.870	989.955	757.626
144.629	12.869	988.817	756.684
145.643	13.028	988.040	756.754
146.658	12.959	987.152	755.689
147.673	12.998	985.868	754.819
148.687	13.027	984.601	753.912
149.702	12.815	984.273	752.625
150.716	12.842	983.168	751.840
151.731	12.861	982.520	751.364
152.746	12.950	981.020	750.554
153.760	12.937	980.600	750.108
154.775	12.897	979.891	749.319
155.789	12.797	979.103	748.195
156.804	12.905	978.243	747.960
157.819	13.036	977.063	747.587
158.833	12.994	976.357	746.791
159.848	12.994	975.332	745.939
160.862	13.011	974.501	745.317
161.877	12.907	973.620	744.108
162.892	12.998	973.305	744.207
163.906	13.026	972.419	743.591
164.921	12.924	971.428	742.310
165.935	13.031	970.356	741.906
166.950	12.992	969.185	740.769
167.964	13.038	968.234	740.184
168.979	12.898	966.904	738.477
169.994	13.070	965.880	738.396
171.008	12.907	965.206	737.090
172.023	13.128	963.872	736.990
173.037	13.008	963.049	735.762
174.052	13.035	962.185	735.155
175.067	12.993	961.247	734.189
176.081	12.972	960.649	733.574
177.096	13.081	959.766	733.319
178.110	13.058	958.676	732.317
179.125	12.974	957.969	731.342
180.140	13.048	956.857	730.753
181.154	13.094	956.180	730.376
182.169	12.976	955.529	729.290
183.183	12.980	954.604	728.537
184.198	13.150	953.871	728.664
185.213	12.977	953.616	727.643
186.227	13.125	952.636	727.481
187.242	13.053	952.102	726.696
188.256	12.999	951.462	725.906
189.271	12.966	950.481	724.947
190.286	13.063	949.104	724.258
191.300	13.244	948.421	724.464
192.315	13.065	947.924	723.239
193.329	12.919	947.475	722.191
194.344	12.785	946.573	720.856
195.359	12.982	945.988	721.207
196.373	13.147	944.896	721.029
197.388	13.203	944.455	720.876
198.402	13.151	944.064	720.287
199.417	13.014	943.343	719.074
200.432	12.992	942.851	718.542
201.446	13.128	942.479	718.784
202.461	13.129	941.881	718.272
203.475	13.095	941.241	717.570
204.490	13.163	940.068	716.908
205.504	12.846	939.336	714.912
206.519	13.023	938.435	714.927
207.534	13.082	938.246	714.975
208.548	13.101	937.682	714.566
209.563	13.138	936.775	713.971
210.577	13.194	935.822	713.422
211.592	13.187	935.369	712.984
212.607	13.203	934.680	712.467
213.621	13.188	934.079	711.881
214.636	13.120	933.476	711.065
215.650	13.127	932.652	710.406
216.665	13.286	931.865	710.424
217.680	13.300	931.045	709.799
218.694	13.326	930.480	709.416
219.709	13.320	929.493	708.577
220.723	13.152	929.288	707.637
221.738	13.246	928.478	707.359
222.753	13.349	927.375	706.897
223.767	13.316	926.626	706.123
224.782	13.371	925.588	705.504
225.796	13.226	925.263	704.577
226.811	13.373	924.204	704.332
227.826	13.308	923.896	703.757
228.840	13.318	922.803	702.907
229.855	13.274	921.927	701.990
230.869	13.362	921.501	701.978
231.884	13.314	920.593	701.018
232.899	13.297	920.354	700.703
233.913	13.329	919.549	700.165
234.928	13.413	918.655	699.778
235.942	13.419	918.022	699.256
236.957	13.300	917.148	698.029
237.972	13.364	916.458	697.709
238.986	13.467	915.610	697.437
240.001	13.349	915.129	696.511
241.015	13.282	914.518	695.705
242.030	13.365	913.685	695.357
243.045	13.388	912.811	694.728
244.059	13.484	912.389	694.747
245.074	13.450	911.472	693.846
246.088	13.461	910.587	693.155
247.103	13.358	910.310	692.453
248.117	13.464	909.371	692.121
249.132	13.451	908.810	691.579
250.147	13.458	908.186	691.070
251.161	13.425	907.284	690.186
252.176	13.465	906.749	689.887
253.190	13.547	905.538	689.243
254.205	13.512	904.991	688.622
255.220	13.599	904.307	688.400
256.234	13.464	903.734	687.343
257.249	13.417	903.159	686.649
258.263	13.407	902.835	686.300
259.278	13.532	901.917	686.063
260.293	13.601	901.198	685.740
261.307	13.661	900.481	685.381
262.322	13.488	900.006	684.244
263.336	13.777	898.868	684.510
264.351	13.668	898.304	683.572
265.366	13.620	897.849	682.965
266.380	13.648	896.723	682.165
267.395	13.530	896.126	681.163
268.409	13.695	895.423	681.247
269.424	13.650	894.471	680.279
270.439	13.639	893.868	679.715
271.453	13.674	893.194	679.285
272.468	13.554	892.401	678.130
273.482	13.539	891.897	677.628
274.497	13.645	891.211	677.478
275.512	13.639	890.394	676.775
276.526	13.650	889.611	676.164
277.541	13.734	888.720	675.768
278.555	13.707	888.084	675.117
279.570	13.682	887.514	674.522
280.585	13.697	886.979	674.115
281.599	13.793	886.160	673.823
282.614	13.747	885.359	672.967
283.628	13.705	884.939	672.418
284.643	13.774	884.446	672.264
285.657	13.806	884.036	672.022
286.672	13.793	883.302	671.352
287.687	13.789	882.906	670.978
288.701	13.801	882.429	670.604
289.716	13.865	881.706	670.255
290.730	13.845	881.209	669.734
291.745	13.707	880.613	668.667
292.760	13.889	879.388	668.412
293.774	13.851	878.629	667.623
294.789	13.924	877.952	667.340
295.803	13.814	877.461	666.468
296.818	13.751	877.032	665.831
297.833	13.826	876.072	665.344
298.847	13.768	875.427	664.562
299.862	13.958	874.516	664.572
300.876	13.765	874.042	663.378
301.891	13.737	873.189	662.562
302.906	13.924	872.483	662.712
303.920	14.044	871.539	662.417
304.935	13.959	870.848	661.496
305.949	13.945	870.539	661.147
306.964	13.818	870.025	660.193
307.979	13.754	869.360	659.375
308.993	13.929	868.711	659.518
310.008	13.904	868.191	658.968
311.022	13.823	867.552	658.101
312.037	14.017	866.910	658.325
313.052	13.937	866.567	657.689
314.066	13.994	865.824	657.292
315.081	14.063	865.340	657.141
316.095	14.120	864.690	656.814
317.110	14.075	864.114	656.139
318.125	13.917	863.703	655.148
319.139	13.833	863.359	654.499
320.154	14.156	862.334	654.934
321.168	14.234	862.168	655.056
322.183	13.987	861.558	653.565
323.197	14.043	860.819	653.167
324.212	13.934	860.415	652.374
325.227	13.911	859.558	651.575
326.241	13.985	859.352	651.651
327.256	13.855	858.415	650.376
328.270	13.976	857.834	650.350
329.285	13.995	856.902	649.661
330.300	13.980	856.621	649.329
331.314	14.131	855.974	649.373
332.329	13.979	855.786	648.578
333.343	13.999	854.526	647.644
334.358	14.087	854.063	647.580
335.373	14.076	853.162	646.796
336.387	14.088	852.793	646.505
337.402	13.988	852.342	645.719
338.416	14.004	851.808	645.317
339.431	14.016	851.135	644.797
340.446	13.993	850.397	644.094
341.460	14.027	849.802	643.717
342.475	14.182	849.001	643.652
343.489	14.147	848.667	643.208
344.504	14.111	848.106	642.587
345.519	13.988	847.611	641.680
346.533	13.929	847.225	641.101
347.548	14.004	846.343	640.667
348.562	14.149	846.071	640.963
349.577	14.126	845.417	640.322
350.592	14.138	844.775	639.826
351.606	14.098	844.520	639.421
352.621	14.004	843.446	638.191
353.635	14.093	843.178	638.273
354.650	14.166	842.825	638.230
355.665	14.050	842.692	637.627
356.679	14.338	842.585	638.597
357.694	14.419	842.303	638.637
358.708	14.297	840.989	637.115
359.723	14.240	840.387	636.385
360.738	14.241	839.432	635.611
361.752	14.156	838.841	634.783
362.767	14.112	838.590	634.368
363.781	14.074	838.200	633.874
364.796	14.109	837.455	633.387
365.810	14.019	837.155	632.759
366.825	13.996	836.506	632.126
367.840	14.168	836.128	632.438
368.854	14.023	835.971	631.713
369.869	14.256	835.280	632.020
370.883	14.186	834.751	631.298
371.898	14.129	834.089	630.526
372.913	14.239	833.553	630.481
373.927	14.247	833.057	630.079
374.942	14.288	831.911	629.314
375.956	14.003	831.686	628.008
376.971	14.271	830.654	628.186
377.986	14.210	830.357	627.676
379.000	14.197	829.448	626.884
380.015	14.058	829.135	626.070
381.029	14.258	828.485	626.277
382.044	14.152	827.828	625.325
383.059	14.219	827.281	625.106
384.073	14.254	826.707	624.750
385.088	14.216	825.949	623.979
386.102	14.212	825.691	623.716
387.117	14.158	825.045	622.969
388.132	14.255	824.723	623.034
389.146	14.205	824.429	622.568
390.161	14.309	824.830	623.208
391.175	14.533	823.841	623.241
392.190	14.335	823.084	621.876
393.205	14.361	823.057	621.896
394.219	14.652	822.932	622.832
395.234	15.220	822.547	624.604
396.248	15.244	822.021	624.237
397.263	14.946	821.507	622.685
398.278	14.343	820.484	619.612
399.292	14.271	819.771	618.750
400.307	14.325	819.188	618.454
401.321	14.288	818.925	618.065
402.336	14.309	818.730	617.939
403.350	14.322	817.826	617.253
404.365	14.254	817.253	616.513
405.380	14.042	816.647	615.216
406.394	14.016	816.171	614.707
407.409	14.048	815.681	614.402
408.423	14.112	814.915	614.007
409.438	14.130	814.299	613.556
410.453	14.234	814.024	613.678
411.467	14.196	813.526	613.107
412.482	14.019	813.107	612.086
413.496	14.042	812.237	611.461
414.511	14.022	812.051	611.194
415.526	14.105	811.600	611.104
416.540	13.999	811.018	610.222
417.555	14.155	810.646	610.461
418.569	14.267	810.670	610.837
419.584	14.445	809.759	610.748
420.599	14.345	809.397	610.054
421.613	149.828	1354.279	1774.103
422.628	130.283	1433.691	1774.211
