DTS Sentinel unit serial number:	SN413079Multiplexer serial number:	ORYXHardware model number:	OX4-SRSoftware version number:	ORYX F/W v4.00 Oryx Data Collector v3.7.2.0data status	okinstallation	princeton_trtdifferential loss correction	single-endedforward channel	channel 3reverse channel	N/Adate	2019/09/11time	05:46:11forward acquisition time	60.00reverse acquisition time	0.00gamma	496.2192k internal	0.2331k external	0.2331temperature offset calibration	0.9909default loss term (dB/km)	0.3790temperature slope calibration	1.0000multiplexer offset coefficient	1.0000multiplexer slope coefficient	1.0000fibre end	0.00T internal ref (°C)	29.42T ext. ref 1 (°C)	-0.21T ext. ref 2 (°C)	23.43length (m)	temperature (°C)	Stokes	anti-Stokes-747.200	53.984	-0.198	-0.192
-746.185	-148.255	-0.137	-0.011
-745.171	-127.806	0.320	-0.046
-744.156	800.000	0.076	0.235
-743.142	-69.942	-0.295	0.113
-742.127	-91.328	-0.064	0.018
-741.112	-21.710	-0.160	0.098
-740.098	-11.337	0.196	0.130
-739.083	-56.470	-0.305	0.136
-738.069	116.988	-0.163	0.201
-737.054	228.012	0.075	-0.122
-736.039	-189.176	0.143	-0.002
-735.025	39.664	-0.116	-0.104
-734.010	-38.431	-0.188	-0.100
-732.996	300.472	-0.199	-0.369
-731.981	292.911	0.076	-0.139
-730.966	746.557	0.034	0.092
-729.952	375.804	0.135	-0.277
-728.937	-22.810	0.043	-0.026
-727.923	800.000	0.018	-0.057
-726.908	86.629	-0.218	-0.241
-725.894	-200.000	-0.011	0.106
-724.879	533.076	-0.043	0.103
-723.864	-164.939	0.242	0.011
-722.850	800.000	-0.033	-0.091
-721.835	414.166	-0.196	-0.419
-720.821	629.888	-0.112	-0.284
-719.806	53.554	-0.202	0.194
-718.791	-42.377	-0.265	-0.136
-717.777	242.534	0.085	-0.143
-716.762	-88.179	-0.306	0.092
-715.748	-200.000	0.015	-0.086
-714.733	420.410	0.055	-0.118
-713.718	800.000	-0.075	-0.231
-712.704	800.000	0.035	0.121
-711.689	186.168	0.302	0.452
-710.675	-2.257	0.121	-0.086
-709.660	563.498	-0.087	-0.212
-708.645	29.499	0.069	0.059
-707.631	-200.000	-0.001	-0.212
-706.616	800.000	-0.081	-0.273
-705.602	123.462	-0.076	0.096
-704.587	-113.706	0.269	-0.053
-703.572	-46.976	-0.214	0.105
-702.558	-8.526	-0.150	-0.101
-701.543	800.000	-0.033	0.129
-700.529	800.000	-0.096	0.293
-699.514	-49.995	0.118	-0.056
-698.499	666.914	-0.114	0.296
-697.485	800.000	-0.080	-0.304
-696.470	31.964	-0.060	-0.052
-695.456	-200.000	0.000	0.040
-694.441	-200.000	-0.038	0.302
-693.426	21.514	0.238	0.194
-692.412	163.201	0.094	-0.133
-691.397	-119.133	0.247	-0.043
-690.383	-200.000	-0.026	-0.113
-689.368	800.000	0.053	-0.227
-688.354	72.643	-0.235	-0.246
-687.339	32.225	0.160	0.139
-686.324	-110.756	0.285	-0.059
-685.310	-200.000	-0.014	-0.267
-684.295	-200.000	-0.027	-0.323
-683.281	656.540	0.132	-0.341
-682.266	16.412	-0.052	-0.042
-681.251	-200.000	-0.015	-0.072
-680.237	190.119	0.145	0.219
-679.222	-38.709	0.185	0.098
-678.208	74.743	0.254	-0.269
-677.193	-88.911	0.169	0.050
-676.178	800.000	0.046	-0.155
-675.164	-14.412	-0.218	-0.141
-674.149	-51.224	-0.209	-0.098
-673.135	-24.075	0.048	-0.029
-672.120	38.323	-0.098	0.088
-671.105	-99.780	0.129	-0.032
-670.091	800.000	0.023	0.085
-669.076	-121.602	-0.154	0.026
-668.062	-138.298	-0.381	-0.042
-667.047	80.405	0.083	-0.089
-666.032	-122.613	-0.245	-0.040
-665.018	-200.000	-0.032	-0.352
-664.003	800.000	-0.124	-0.347
-662.989	9.839	-0.153	0.117
-661.974	-121.661	-0.174	-0.029
-660.959	40.125	0.115	-0.104
-659.945	-101.687	-0.126	0.031
-658.930	79.373	-0.102	-0.110
-657.916	8.879	0.144	-0.109
-656.901	68.661	-0.082	0.084
-655.886	-200.000	-0.015	-0.150
-654.872	-101.249	0.327	-0.080
-653.857	-18.959	0.120	0.075
-652.843	75.074	0.127	-0.135
-651.828	800.000	-0.112	-0.373
-650.814	-7.471	0.176	0.119
-649.799	-10.605	-0.179	-0.119
-648.784	21.571	0.223	0.182
-647.770	-117.474	-0.114	0.021
-646.755	800.000	0.046	-0.150
-645.741	800.000	0.039	0.125
-644.726	115.258	0.109	-0.133
-643.711	-88.340	-0.340	0.102
-642.697	171.054	0.103	-0.148
-641.682	527.655	0.060	-0.142
-640.668	-200.000	-0.029	0.181
-639.653	-116.888	0.114	-0.021
-638.638	248.154	-0.030	0.051
-637.624	-123.622	0.175	0.028
-636.609	-148.413	-0.131	-0.011
-635.595	-92.111	-0.060	-0.017
-634.580	-132.561	-0.021	0.003
-633.565	800.000	-0.042	-0.119
-632.551	-123.224	0.196	0.032
-631.536	-146.493	-0.277	0.024
-630.522	308.514	0.086	0.161
-629.507	-113.200	-0.117	-0.023
-628.492	-165.089	-0.385	-0.017
-627.478	-200.000	0.002	-0.101
-626.463	17.036	-0.075	0.059
-625.449	-37.724	-0.136	0.072
-624.434	-138.060	0.194	-0.022
-623.419	16.595	-0.159	-0.126
-622.405	800.000	0.036	-0.116
-621.390	-200.000	-0.030	0.135
-620.376	96.761	-0.186	0.213
-619.361	-200.000	-0.010	-0.253
-618.346	628.057	-0.052	-0.131
-617.332	90.714	0.057	0.064
-616.317	278.111	0.139	0.248
-615.303	32.891	0.078	0.068
-614.288	-200.000	-0.003	0.233
-613.273	52.115	0.312	-0.298
-612.259	800.000	0.195	0.574
-611.244	800.000	-0.095	0.359
-610.230	-185.123	-0.166	-0.003
-609.215	4.423	0.120	0.088
-608.201	-200.000	-0.019	-0.286
-607.186	-200.000	-0.020	0.258
-606.171	93.378	-0.053	-0.060
-605.157	115.937	-0.106	-0.130
-604.142	800.000	0.171	0.506
-603.128	-34.221	-0.079	0.044
-602.113	103.437	-0.135	-0.158
-601.098	239.599	-0.189	-0.316
-600.084	91.286	0.096	0.107
-599.069	-50.721	0.124	-0.058
-598.055	20.744	0.026	-0.021
-597.040	-200.000	0.004	-0.096
-596.025	-16.255	0.081	0.051
-595.011	31.304	0.098	-0.084
-593.996	133.527	-0.120	0.155
-592.982	-108.908	-0.187	-0.040
-591.967	-21.325	0.283	-0.173
-590.952	-23.994	-0.063	0.038
-589.938	48.987	0.209	0.196
-588.923	800.000	-0.064	-0.226
-587.909	-95.236	-0.191	0.052
-586.894	65.697	0.046	0.046
-585.879	800.000	-0.065	0.194
-584.865	149.898	-0.227	-0.308
-583.850	91.869	-0.294	-0.331
-582.836	348.866	-0.074	-0.146
-581.821	95.048	0.154	0.175
-580.806	108.833	-0.206	-0.246
-579.792	431.863	-0.065	-0.142
-578.777	-200.000	-0.028	0.375
-577.763	-135.802	-0.152	-0.018
-576.748	-200.000	0.018	0.265
-575.733	85.728	0.118	0.129
-574.719	476.515	0.059	-0.133
-573.704	-121.890	-0.053	-0.009
-572.690	24.458	0.070	-0.058
-571.675	-200.000	-0.048	-0.236
-570.661	800.000	-0.063	-0.235
-569.646	-200.000	0.032	-0.146
-568.631	-32.503	0.417	0.232
-567.617	-7.764	-0.213	0.144
-566.602	58.790	0.116	0.114
-565.588	304.969	-0.074	-0.138
-564.573	311.330	-0.157	0.295
-563.558	-200.000	0.048	0.274
-562.544	-94.854	-0.158	-0.043
-561.529	-31.683	-0.155	0.087
-560.515	-28.755	0.154	0.088
-559.500	39.330	0.130	-0.116
-558.485	102.589	0.336	0.392
-557.471	-133.717	-0.270	-0.034
-556.456	-6.057	-0.295	-0.202
-555.442	-200.000	0.040	0.319
-554.427	-66.568	0.213	-0.085
-553.412	476.070	0.137	0.309
-552.398	-82.494	-0.323	-0.105
-551.383	-111.696	-0.130	0.026
-550.369	-56.587	0.284	0.126
-549.354	-200.000	-0.018	0.112
-548.339	355.726	0.088	-0.175
-547.325	18.560	-0.125	-0.100
-546.310	-200.000	-0.049	0.341
-545.296	-90.780	-0.153	0.044
-544.281	-37.645	-0.087	-0.046
-543.266	330.967	0.043	0.083
-542.252	148.935	0.289	-0.390
-541.237	630.225	-0.080	-0.203
-540.223	-61.695	-0.281	0.117
-539.208	-145.392	-0.398	-0.036
-538.193	199.063	0.161	0.246
-537.179	-74.749	0.136	0.049
-536.164	-111.938	0.401	-0.081
-535.150	112.673	0.116	0.140
-534.135	39.528	-0.367	0.329
-533.121	-135.542	0.174	-0.021
-532.106	191.543	0.154	0.232
-531.091	-4.597	-0.079	-0.054
-530.077	1.765	0.233	-0.167
-529.062	-181.839	0.300	-0.006
-528.048	-6.982	-0.087	-0.059
-527.033	-200.000	-0.010	-0.069
-526.018	-142.170	-0.228	-0.023
-525.004	11.978	0.066	0.051
-523.989	94.814	-0.134	0.152
-522.975	554.464	-0.079	-0.189
-521.960	552.279	-0.063	-0.150
-520.945	222.431	-0.191	0.307
-519.931	153.558	-0.062	-0.085
-518.916	-65.790	0.073	-0.029
-517.902	-40.274	0.069	-0.036
-516.887	-103.021	0.134	0.032
-515.872	-15.993	-0.277	-0.176
-514.858	800.000	-0.042	-0.130
-513.843	195.066	-0.082	0.124
-512.829	55.506	-0.263	-0.254
-511.814	95.872	-0.332	-0.378
-510.799	92.163	-0.107	0.120
-509.785	-200.000	0.003	0.075
-508.770	129.949	-0.153	-0.196
-507.756	577.658	-0.014	-0.034
-506.741	51.271	0.214	-0.203
-505.726	179.882	0.178	-0.260
-504.712	800.000	-0.065	-0.256
-503.697	-72.257	0.220	0.081
-502.683	9.839	-0.312	-0.236
-501.668	-44.834	-0.433	0.215
-500.653	12.820	0.269	-0.207
-499.639	82.973	-0.250	0.271
-498.624	240.918	0.162	-0.270
-497.610	-112.715	-0.348	-0.069
-496.595	-14.387	0.121	0.078
-495.581	-98.671	0.013	0.003
-494.566	-125.848	0.228	-0.034
-493.551	-111.865	-0.287	0.058
-492.537	275.128	0.070	0.123
-491.522	130.037	0.086	-0.109
-490.508	24.915	0.086	0.071
-489.493	-20.407	-0.003	-0.002
-488.478	-24.440	0.123	0.073
-487.464	34.610	-0.382	0.332
-486.449	-9.689	0.089	0.059
-485.435	-23.524	-0.195	0.117
-484.420	81.419	0.113	-0.122
-483.405	704.381	-0.097	-0.256
-482.391	-200.000	-0.029	-0.221
-481.376	-108.532	0.462	0.099
-480.362	-23.014	0.282	-0.170
-479.347	-200.000	-0.008	-0.325
-478.332	-80.149	0.269	-0.090
-477.318	-200.000	0.068	-0.340
-476.303	144.623	0.224	-0.298
-475.289	800.000	0.103	0.355
-474.274	-131.345	0.254	0.033
-473.259	-139.385	-0.128	-0.014
-472.245	-140.951	-0.304	0.031
-471.230	128.662	0.094	0.120
-470.216	4.680	-0.342	-0.250
-469.201	545.535	0.047	0.113
-468.186	-200.000	0.024	0.128
-467.172	89.909	0.174	-0.194
-466.157	123.361	-0.107	-0.134
-465.143	531.056	-0.074	-0.173
-464.128	334.328	-0.060	0.115
-463.113	2.140	0.212	-0.153
-462.099	-200.000	-0.007	0.110
-461.084	75.444	-0.252	0.265
-460.070	-200.000	0.006	0.167
-459.055	-11.724	0.032	0.021
-458.040	-145.998	0.107	0.009
-457.026	340.725	0.186	-0.361
-456.011	-138.231	-0.116	0.013
-454.997	-129.084	-0.167	-0.023
-453.982	800.000	0.116	0.336
-452.968	-77.852	0.223	0.077
-451.953	800.000	-0.009	-0.030
-450.938	19.902	0.153	0.123
-449.924	-200.000	0.012	-0.170
-448.909	247.894	-0.104	-0.175
-447.895	-26.157	0.265	0.155
-446.880	-125.417	-0.321	-0.049
-445.865	-135.478	0.356	0.042
-444.851	-5.200	-0.290	0.198
-443.836	-73.276	0.143	0.052
-442.822	228.994	0.020	0.032
-441.807	453.141	0.033	0.073
-440.792	-181.643	0.086	0.002
-439.778	-165.380	0.229	0.010
-438.763	127.912	-0.105	-0.133
-437.749	-200.000	0.080	0.399
-436.734	-130.229	0.147	0.020
-435.719	-98.684	0.037	-0.009
-434.705	324.251	-0.179	-0.340
-433.690	-200.000	0.009	-0.150
-432.676	-120.177	-0.116	0.020
-431.661	-101.848	0.127	-0.030
-430.646	338.558	0.073	0.142
-429.632	79.121	-0.178	-0.190
-428.617	800.000	-0.037	-0.104
-427.603	166.730	0.104	0.147
-426.588	396.914	0.029	0.061
-425.573	-200.000	-0.018	-0.092
-424.559	-110.747	0.061	0.012
-423.544	45.169	0.137	-0.125
-422.530	187.199	-0.066	0.098
-421.515	-160.984	0.078	-0.004
-420.500	376.504	-0.139	0.282
-419.486	-200.000	0.037	-0.295
-418.471	-95.338	0.222	-0.059
-417.457	14.589	-0.229	0.178
-416.442	-42.952	0.100	-0.050
-415.428	-188.282	-0.241	0.003
-414.413	-200.000	0.015	0.281
-413.398	432.810	0.053	0.115
-412.384	-148.835	-0.139	0.011
-411.369	343.847	0.144	-0.281
-410.355	716.373	0.123	0.324
-409.340	185.409	0.089	-0.131
-408.325	76.025	-0.119	-0.125
-407.311	5.234	-0.177	-0.129
-406.296	297.019	-0.158	0.288
-405.282	-126.120	0.166	0.025
-404.267	-9.649	0.280	0.186
-403.252	298.485	-0.107	-0.196
-402.238	63.830	-0.220	0.220
-401.223	-200.000	-0.029	0.263
-400.209	23.413	-0.217	0.177
-399.194	70.252	-0.134	-0.137
-398.179	-45.495	0.270	-0.133
-397.165	146.225	0.085	0.113
-396.150	-156.506	-0.125	0.008
-395.136	-72.853	-0.030	-0.011
-394.121	-193.555	0.068	-0.001
-393.106	98.628	0.122	0.140
-392.092	586.992	0.086	-0.210
-391.077	-26.500	-0.297	0.173
-390.063	556.621	-0.117	0.279
-389.048	199.892	-0.132	0.201
-388.033	-200.000	-0.052	-0.237
-387.019	133.063	0.185	0.237
-386.004	18.342	-0.200	-0.158
-384.990	324.389	0.166	0.314
-383.975	-123.125	0.457	0.073
-382.960	-200.000	-0.014	0.095
-381.946	800.000	-0.118	0.351
-380.931	-200.000	0.003	-0.034
-379.917	222.836	0.147	-0.235
-378.902	-200.000	0.043	-0.200
-377.888	61.322	0.244	0.241
-376.873	11.427	-0.156	-0.119
-375.858	315.153	-0.126	-0.235
-374.844	281.980	0.243	0.433
-373.829	-200.000	-0.014	-0.150
-372.815	-21.810	0.243	0.147
-371.800	218.829	0.182	-0.288
-370.785	125.201	0.169	-0.211
-369.771	199.582	0.069	-0.105
-368.756	-3.167	0.252	0.174
-367.742	282.142	0.068	-0.121
-366.727	800.000	0.017	0.064
-365.712	-55.231	0.238	-0.106
-364.698	-62.907	-0.329	-0.135
-363.683	188.522	-0.066	0.098
-362.669	-62.847	-0.169	0.069
-361.654	-200.000	-0.058	-0.289
-360.639	-200.000	-0.154	0.000
-359.625	-200.000	0.037	-0.176
-358.610	-200.000	-0.015	-0.239
-357.596	47.370	0.227	0.210
-356.581	-200.000	0.003	-0.173
-355.566	71.941	0.142	-0.146
-354.552	-200.000	0.006	-0.155
-353.537	6.021	-0.101	0.074
-352.523	169.662	0.077	-0.109
-351.508	296.727	0.196	0.356
-350.493	-76.850	-0.229	0.080
-349.479	-27.570	0.410	-0.236
-348.464	-25.588	0.411	-0.240
-347.450	-28.595	0.200	-0.114
-346.435	-141.112	-0.175	0.018
-345.420	15.611	0.145	-0.113
-344.406	-40.697	-0.140	0.072
-343.391	40.458	-0.255	-0.227
-342.377	345.853	-0.099	-0.194
-341.362	361.476	0.106	0.211
-340.348	-119.587	0.139	0.024
-339.333	-200.000	-0.023	-0.274
-338.318	-44.305	0.120	0.059
-337.304	573.284	-0.033	0.080
-336.289	222.566	-0.055	-0.088
-335.275	284.481	-0.029	-0.051
-334.260	5.183	0.318	-0.232
-333.245	28.308	0.113	0.095
-332.231	59.124	-0.216	-0.211
-331.216	-48.444	0.055	-0.026
-330.202	19.554	-0.402	-0.320
-329.187	-200.000	0.071	-0.401
-328.172	67.927	-0.083	-0.084
-327.158	738.122	0.081	-0.215
-326.143	228.932	-0.031	0.050
-325.129	116.547	-0.344	-0.417
-324.114	-70.147	-0.179	-0.067
-323.099	800.000	0.056	0.173
-322.085	449.212	0.117	0.256
-321.070	-121.697	0.368	0.060
-320.056	311.068	-0.046	0.086
-319.041	-200.000	0.093	0.467
-318.026	-93.348	-0.365	-0.100
-317.012	117.330	-0.426	0.519
-315.997	-200.000	-0.004	-0.122
-314.983	-36.147	-0.346	-0.185
-313.968	-117.310	-0.168	-0.030
-312.953	-0.399	0.120	-0.085
-311.939	-73.973	-0.189	-0.068
-310.924	-200.000	0.003	-0.154
-309.910	447.188	0.148	-0.323
-308.895	800.000	0.027	0.097
-307.880	65.525	0.157	0.158
-306.866	1.592	0.159	0.113
-305.851	79.638	-0.270	-0.287
-304.837	-200.000	0.042	0.184
-303.822	-168.840	-0.313	-0.012
-302.807	-200.000	-0.018	-0.284
-301.793	-200.000	-0.002	-0.159
-300.778	800.000	0.034	0.143
-299.764	-88.062	-0.141	-0.042
-298.749	-160.907	-0.091	0.005
-297.735	683.365	0.034	0.088
-296.720	299.303	0.166	-0.303
-295.705	-132.063	0.095	-0.012
-294.691	-76.848	0.117	-0.040
-293.676	-36.871	0.079	-0.042
-292.662	-75.627	0.273	-0.096
-291.647	25.054	-0.022	-0.018
-290.632	800.000	-0.016	0.045
-289.618	50.711	0.274	0.257
-288.603	800.000	-0.050	0.146
-287.589	-37.151	-0.129	0.068
-286.574	-200.000	-0.010	0.131
-285.559	-117.892	-0.041	0.007
-284.545	-23.028	0.128	0.076
-283.530	422.661	-0.092	-0.194
-282.516	-118.182	0.175	-0.031
-281.501	-90.550	-0.282	-0.081
-280.486	80.506	0.110	-0.117
-279.472	800.000	-0.086	-0.258
-278.457	-104.103	0.157	0.036
-277.443	800.000	-0.026	0.082
-276.428	-55.873	-0.062	-0.027
-275.413	45.335	0.210	0.192
-274.399	-39.451	0.330	0.171
-273.384	-148.059	-0.171	-0.014
-272.370	35.170	0.094	0.081
-271.355	139.376	0.111	-0.144
-270.340	-53.931	0.211	-0.095
-269.326	242.886	0.139	0.230
-268.311	23.149	-0.046	-0.038
-267.297	-200.000	0.015	0.148
-266.282	-4.639	-0.282	0.192
-265.267	-45.362	-0.196	-0.096
-264.253	143.270	0.124	-0.164
-263.238	43.185	0.311	0.280
-262.224	-200.000	0.029	-0.378
-261.209	-114.348	-0.198	-0.038
-260.195	-191.376	-0.386	0.004
-259.180	-156.012	-0.103	0.006
-258.165	235.521	-0.182	0.297
-257.151	583.353	0.076	-0.183
-256.136	-146.187	0.206	-0.018
-255.122	31.380	-0.315	-0.267
-254.107	-81.716	0.349	0.113
-253.092	-108.056	-0.239	-0.051
-252.078	-145.853	0.152	0.013
-251.063	608.726	0.071	-0.176
-250.049	26.253	-0.434	-0.358
-249.034	-200.000	0.014	0.282
-248.019	800.000	0.063	0.258
-247.005	-1.136	0.270	0.188
-245.990	146.236	-0.072	-0.095
-244.976	-115.635	0.291	0.054
-243.961	126.032	-0.074	-0.092
-242.946	-200.000	-0.017	0.128
-241.932	24.147	-0.289	-0.236
-240.917	161.762	0.084	-0.116
-239.903	-200.000	0.017	0.179
-238.888	800.000	-0.048	0.186
-237.873	-14.052	-0.104	-0.066
-236.859	800.000	-0.054	0.151
-235.844	800.000	-0.023	0.065
-234.830	-101.946	0.142	0.034
-233.815	-131.106	-0.070	-0.009
-232.800	38.099	0.211	-0.185
-231.786	-39.808	-0.028	-0.014
-230.771	152.956	-0.168	0.227
-229.757	-59.085	0.190	-0.081
-228.742	-50.769	-0.278	0.129
-227.727	87.039	0.084	0.092
-226.713	-87.668	0.094	-0.028
-225.698	-90.446	0.132	0.038
-224.684	800.000	-0.046	-0.199
-223.669	-130.817	0.090	-0.012
-222.655	-82.937	-0.101	0.032
-221.640	-121.258	-0.405	-0.067
-220.625	128.584	0.075	-0.094
-219.611	-127.340	-0.281	0.040
-218.596	800.000	0.142	0.392
-217.582	37.543	-0.088	-0.077
-216.567	800.000	0.124	-0.388
-215.552	131.249	0.074	0.093
-214.538	800.000	-0.120	0.331
-213.523	-88.348	-0.197	-0.058
-212.509	-93.222	-0.151	-0.041
-211.494	-117.527	0.181	-0.032
-210.479	251.907	0.183	-0.307
-209.465	126.314	-0.214	0.267
-208.450	-169.317	-0.186	0.007
-207.436	9.428	0.186	-0.138
-206.421	432.340	-0.013	-0.027
-205.406	-200.000	0.028	0.127
-204.392	150.273	0.216	0.288
-203.377	94.513	-0.147	0.165
-202.363	104.844	0.182	0.212
-201.348	-200.000	-0.003	0.078
-200.333	-105.433	-0.178	0.040
-199.319	223.412	0.106	-0.169
-198.304	200.556	0.201	-0.304
-197.290	800.000	0.053	0.176
-196.275	524.532	0.094	0.217
-195.260	-200.000	0.000	0.408
-194.246	554.542	0.141	0.334
-193.231	126.922	-0.187	0.233
-192.217	-200.000	0.004	0.109
-191.202	179.746	0.121	-0.174
-190.187	-157.442	-0.094	0.006
-189.173	-200.000	-0.032	-0.269
-188.158	-6.208	0.070	-0.047
-187.144	-200.000	0.010	0.213
-186.129	-128.796	0.110	0.015
-185.114	-99.348	0.385	-0.095
-184.100	233.548	-0.179	0.290
-183.085	751.616	-0.064	-0.171
-182.071	-12.252	0.185	0.119
-181.056	315.592	-0.083	0.154
-180.042	161.869	-0.047	-0.065
-179.027	-99.267	-0.175	0.044
-178.012	-200.000	-0.253	-0.000
-176.998	-200.000	0.003	-0.193
-175.983	-119.801	-0.120	0.020
-174.969	-14.639	0.386	0.244
-173.954	135.153	-0.191	0.245
-172.939	-43.737	0.266	0.132
-171.925	-132.469	-0.097	-0.012
-170.910	265.924	-0.124	0.213
-169.896	800.000	-0.081	-0.246
-168.881	95.861	0.104	0.117
-167.866	-84.670	0.169	-0.052
-166.852	96.026	0.084	0.094
-165.837	-200.000	-0.061	-0.275
-164.823	-200.000	-0.005	0.057
-163.808	-184.273	-0.243	-0.004
-162.793	-85.880	-0.105	0.032
-161.779	-200.000	0.035	-0.208
-160.764	-200.000	-0.045	0.213
-159.750	93.340	-0.125	0.139
-158.735	243.880	0.082	-0.135
-157.720	66.913	0.238	-0.239
-156.706	13.663	-0.125	0.096
-155.691	42.716	-0.094	-0.084
-154.677	-200.000	-0.039	-0.379
-153.662	-45.788	-0.150	0.073
-152.647	-37.700	0.202	-0.106
-151.633	14.606	0.218	-0.168
-150.618	153.970	0.160	-0.216
-149.604	-74.455	0.423	-0.150
-148.589	131.158	0.124	0.156
-147.574	800.000	0.093	0.360
-146.560	265.218	-0.102	-0.174
-145.545	-200.000	-0.017	0.126
-144.531	800.000	0.014	-0.055
-143.516	140.859	0.163	-0.212
-142.502	800.000	-0.106	-0.294
-141.487	55.826	-0.129	-0.123
-140.472	-70.734	0.207	0.077
-139.458	189.076	0.112	0.165
-138.443	8.675	-0.088	-0.065
-137.429	-36.731	0.221	0.116
-136.414	85.232	-0.057	0.061
-135.399	-200.000	-0.026	0.135
-134.385	-54.933	0.263	0.117
-133.370	273.501	0.053	-0.093
-132.356	-89.220	0.172	0.050
-131.341	-42.255	-0.243	0.122
-130.326	152.433	-0.113	0.151
-129.312	-200.000	-0.024	0.306
-128.297	-70.839	-0.145	0.054
-127.283	-79.296	0.143	0.048
-126.268	11.190	0.206	0.155
-125.253	-142.588	-0.118	-0.011
-124.239	178.946	-0.060	-0.086
-123.224	-134.249	-0.361	-0.044
-122.210	-200.000	-0.030	-0.147
-121.195	349.784	0.149	-0.289
-120.180	-200.000	0.007	-0.361
-119.166	104.643	0.116	-0.134
-118.151	-32.768	0.045	0.025
-117.137	36.537	0.082	0.071
-116.122	-113.865	0.165	0.031
-115.107	38.433	-0.144	-0.126
-114.093	-77.858	0.197	-0.067
-113.078	-125.624	-0.138	-0.021
-112.064	364.490	-0.161	-0.318
-111.049	75.542	-0.081	0.084
-110.034	-200.000	0.058	-0.324
-109.020	-191.997	-0.241	0.002
-108.005	-93.824	0.271	-0.073
-106.991	-1.359	-0.146	0.101
-105.976	96.294	0.141	0.159
-104.962	-109.342	-0.303	-0.063
-103.947	-200.000	-0.007	-0.275
-102.932	800.000	0.115	-0.341
-101.918	17.438	0.267	-0.208
-100.903	648.050	0.130	-0.327
-99.889	-162.934	0.318	0.015
-98.874	-200.000	0.311	0.001
-97.859	514.756	0.097	-0.223
-96.845	-200.000	-0.067	0.337
-95.830	503.245	0.104	0.235
-94.816	-156.085	-0.166	-0.010
-93.801	-53.542	-0.156	0.070
-92.786	93.953	-0.179	0.199
-91.772	-178.659	-0.244	0.006
-90.757	70.211	-0.270	-0.274
-89.743	-71.853	0.438	0.160
-88.728	-91.212	-0.153	0.043
-87.713	-46.084	-0.217	0.105
-86.699	800.000	0.069	0.263
-85.684	-60.628	0.354	-0.147
-84.670	166.671	0.020	0.028
-83.655	-200.000	0.052	0.271
-82.640	-200.000	-0.015	0.252
-81.626	800.000	0.053	0.183
-80.611	36.307	-0.091	-0.078
-79.597	-36.990	0.037	-0.020
-78.582	-10.060	-0.314	0.205
-77.567	79.099	0.118	0.124
-76.553	229.125	-0.071	0.114
-75.538	51.017	0.160	0.149
-74.524	-120.861	-0.228	0.038
-73.509	-107.853	0.263	0.056
-72.494	50.029	0.012	-0.011
-71.480	37.313	0.157	0.136
-70.465	800.000	0.047	-0.152
-69.451	800.000	-0.077	-0.261
-68.436	-93.270	0.134	0.036
-67.422	800.000	-0.025	-0.103
-66.407	-200.000	-0.007	0.039
-65.392	-95.648	-0.049	0.013
-64.378	-147.133	0.222	0.019
-63.363	41.197	0.249	0.221
-62.349	-48.272	0.297	-0.141
-61.334	96.370	-1.202	-1.348
-60.319	38.264	0.545	0.476
-59.305	-200.000	-0.088	-0.776
-58.290	437.478	0.488	1.043
-57.276	302.661	0.892	1.618
-56.261	-200.000	105.986	612.720
-55.246	505.880	1509.148	3426.573
-54.232	176.193	2702.234	3844.726
-53.217	110.302	2186.599	2573.250
-52.203	40.119	1705.393	1501.793
-51.188	32.602	1515.631	1283.653
-50.173	30.233	1489.118	1245.270
-49.159	51.513	1544.876	1438.035
-48.144	51.730	1561.399	1454.846
-47.130	32.835	1517.186	1286.355
-46.115	29.723	1502.667	1252.943
-45.100	29.545	1498.991	1248.627
-44.086	29.475	1496.850	1246.321
-43.071	29.453	1494.681	1244.315
-42.057	29.459	1492.817	1242.753
-41.042	29.422	1491.560	1241.411
-40.027	29.421	1490.032	1240.084
-39.013	29.365	1488.909	1238.723
-37.998	29.384	1487.341	1237.497
-36.984	29.361	1486.618	1236.692
-35.969	29.510	1484.213	1235.641
-34.954	29.400	1483.309	1234.106
-33.940	29.390	1481.482	1232.465
-32.925	29.429	1480.390	1231.768
-31.911	29.530	1478.612	1230.912
-30.896	29.469	1478.078	1230.012
-29.881	29.464	1477.024	1229.057
-28.867	29.549	1475.412	1228.231
-27.852	29.499	1474.238	1226.875
-26.838	29.434	1472.980	1225.345
-25.823	29.549	1470.897	1224.326
-24.809	29.521	1469.624	1223.031
-23.794	29.469	1468.534	1221.735
-22.779	29.554	1466.931	1220.911
-21.765	29.435	1466.893	1220.048
-20.750	29.443	1465.386	1218.800
-19.736	29.437	1464.304	1217.812
-18.721	29.433	1463.061	1216.698
-17.706	29.363	1461.810	1215.152
-16.692	29.437	1460.503	1214.502
-15.677	29.423	1459.814	1213.790
-14.663	29.420	1458.497	1212.627
-13.648	29.393	1457.733	1211.765
-12.633	29.415	1456.558	1210.883
-11.619	29.369	1456.346	1210.363
-10.604	29.273	1455.323	1208.829
-9.590	29.382	1454.127	1208.505
-8.575	29.350	1453.542	1207.759
-7.560	29.341	1452.487	1206.777
-6.546	29.393	1451.490	1206.240
-5.531	29.386	1450.488	1205.312
-4.517	29.352	1449.763	1204.442
-3.502	29.284	1448.707	1203.075
-2.487	29.498	1447.481	1203.405
-1.473	29.366	1446.620	1201.778
-0.458	29.320	1445.956	1200.880
0.556	27.076	1435.675	1190.399
1.571	24.145	1410.857	1150.807
2.586	20.985	1352.367	1083.399
3.600	19.493	1272.394	1010.512
4.615	18.296	1227.411	967.938
5.629	16.251	1172.802	913.733
6.644	8.301	1089.195	808.398
7.659	1.193	1048.989	743.732
8.673	-0.008	1043.122	733.648
9.688	-0.131	1040.021	730.805
10.702	-0.370	1038.286	728.356
11.717	-0.321	1036.516	727.290
12.731	3.184	1039.947	746.658
13.746	11.910	1052.264	798.122
14.761	18.630	1061.327	837.854
15.775	20.587	1063.465	849.031
16.790	20.825	1063.036	849.776
17.804	20.826	1061.845	848.754
18.819	20.664	1061.321	847.473
19.834	20.834	1060.311	847.419
20.848	20.796	1060.160	847.038
21.863	20.947	1059.761	847.379
22.877	20.865	1059.160	846.421
23.892	20.741	1058.941	845.573
24.907	20.680	1057.940	844.401
25.921	20.820	1056.949	844.215
26.936	20.750	1056.468	843.416
27.950	20.786	1055.475	842.721
28.965	20.789	1053.767	841.301
29.980	20.645	1052.361	839.407
30.994	20.640	1050.605	837.909
32.009	20.840	1050.243	838.510
33.023	20.924	1049.175	837.988
34.038	20.669	1048.120	835.843
35.053	20.757	1047.225	835.476
36.067	20.862	1046.488	835.320
37.082	20.955	1045.454	834.868
38.096	20.896	1044.930	834.092
39.111	21.080	1044.237	834.342
40.126	21.046	1043.677	833.661
41.140	20.990	1042.057	832.023
42.155	20.806	1040.138	829.546
43.169	20.525	1039.113	827.315
44.184	20.521	1037.999	826.337
45.199	20.673	1036.545	825.827
46.213	20.478	1035.887	824.305
47.228	20.440	1035.087	823.413
48.242	20.598	1034.004	823.226
49.257	20.742	1033.349	823.317
50.271	20.698	1032.769	822.571
51.286	20.832	1032.373	822.818
52.301	20.978	1031.016	822.352
53.315	20.840	1030.471	821.194
54.330	20.929	1029.669	820.903
55.344	20.886	1028.955	820.056
56.359	20.831	1027.923	818.903
57.374	20.823	1027.330	818.321
58.388	20.736	1025.842	816.653
59.403	20.540	1025.519	815.407
60.417	20.602	1024.612	814.903
61.432	20.374	1024.235	813.464
62.447	20.413	1023.309	812.838
63.461	20.567	1022.998	813.239
64.476	20.744	1021.427	812.744
65.490	20.700	1020.924	812.066
66.505	20.661	1019.603	810.762
67.520	20.524	1018.936	809.523
68.534	20.712	1018.200	809.742
69.549	20.436	1017.636	807.936
70.563	20.054	1016.658	805.317
71.578	20.140	1015.755	804.931
72.593	20.154	1014.474	803.905
73.607	20.050	1013.258	802.393
74.622	20.001	1012.694	801.646
75.636	20.407	1011.918	802.840
76.651	20.566	1010.855	802.656
77.666	20.344	1010.320	801.136
78.680	20.285	1009.732	800.327
79.695	20.315	1009.161	799.943
80.709	20.341	1008.683	799.613
81.724	20.560	1007.649	799.732
82.739	20.566	1006.077	798.441
83.753	20.463	1005.450	797.397
84.768	20.593	1005.275	797.787
85.782	21.014	1004.200	798.790
86.797	21.222	1003.292	798.952
87.812	21.052	1002.914	797.800
88.826	20.929	1002.042	796.473
89.841	20.915	1001.456	795.873
90.855	21.129	1000.439	795.971
91.870	21.038	999.707	794.904
92.884	20.994	998.426	793.614
93.899	20.949	997.980	792.984
94.914	20.912	996.872	791.866
95.928	20.995	996.532	791.905
96.943	21.165	994.858	791.273
97.957	20.584	993.785	787.720
98.972	20.529	992.986	786.765
99.987	20.376	991.719	785.004
101.001	20.275	991.325	784.165
102.016	20.810	990.593	785.929
103.030	20.841	989.722	785.311
104.045	20.702	988.137	783.357
105.060	20.628	986.724	781.837
106.074	20.475	985.948	780.464
107.089	20.355	985.498	779.502
108.103	20.802	985.385	781.348
109.118	20.929	984.216	780.922
110.133	20.664	983.281	778.922
111.147	20.642	982.062	777.789
112.162	20.544	980.663	776.179
113.176	20.344	979.737	774.485
114.191	20.459	978.694	774.104
115.206	20.508	977.934	773.650
116.220	20.207	976.842	771.379
117.235	20.099	976.150	770.285
118.249	20.250	975.417	770.308
119.264	20.323	974.406	769.768
120.279	20.167	973.572	768.349
121.293	20.308	972.930	768.396
122.308	20.420	972.002	768.092
123.322	20.407	971.265	767.383
124.337	20.341	970.039	766.056
125.352	20.266	968.506	764.449
126.366	19.887	966.931	761.469
127.381	19.492	965.763	758.747
128.395	19.992	966.143	761.175
129.410	20.714	965.413	763.703
130.424	20.839	964.082	763.129
131.439	20.875	962.846	762.242
132.454	20.739	961.907	760.839
133.468	20.645	961.437	759.987
134.483	20.674	960.567	759.357
135.497	20.714	959.687	758.771
136.512	20.857	959.182	758.928
137.527	21.001	957.946	758.509
138.541	20.967	957.786	758.166
139.556	20.955	956.768	757.241
140.570	21.073	955.861	756.967
141.585	21.050	954.651	755.845
142.600	21.069	954.222	755.518
143.614	21.012	952.727	754.023
144.629	21.018	952.335	753.670
145.643	21.253	951.814	754.208
146.658	21.049	950.903	752.537
147.673	21.021	949.521	751.259
148.687	21.009	948.468	750.307
149.702	20.926	947.292	748.951
150.716	20.834	946.252	747.670
151.731	20.852	945.074	746.749
152.746	20.857	944.511	746.261
153.760	21.123	943.647	746.651
154.775	21.075	943.929	746.603
155.789	21.126	942.561	745.673
156.804	21.126	941.141	744.482
157.819	21.163	940.793	744.299
158.833	21.205	939.812	743.639
159.848	21.195	939.867	743.571
160.862	21.235	938.181	742.342
161.877	21.202	937.312	741.448
162.892	21.054	936.895	740.423
163.906	21.312	935.775	740.570
164.921	21.174	935.026	739.326
165.935	21.159	933.713	738.157
166.950	21.179	932.590	737.289
167.964	21.207	932.093	736.948
168.979	21.171	931.252	736.066
169.994	21.063	929.926	734.498
171.008	20.938	928.950	733.137
172.023	21.057	928.646	733.332
173.037	21.216	927.561	733.079
174.052	20.945	926.595	731.113
175.067	20.697	925.697	729.301
176.081	20.808	924.277	728.582
177.096	20.909	923.940	728.675
178.110	20.855	923.441	727.993
179.125	20.741	922.001	726.317
180.140	20.475	920.955	724.321
181.154	20.517	920.396	723.993
182.169	20.545	920.029	723.754
183.183	20.840	919.471	724.479
184.198	21.100	919.026	725.146
185.213	20.988	918.414	724.132
186.227	20.981	917.575	723.377
187.242	21.200	917.163	723.899
188.256	21.147	916.254	722.898
189.271	21.192	915.485	722.412
190.286	21.201	914.689	721.758
191.300	21.109	913.855	720.654
192.315	20.543	912.736	717.375
193.329	19.914	910.998	713.351
194.344	19.566	910.224	711.252
195.359	20.130	910.418	713.662
196.373	20.921	910.402	716.843
197.388	21.224	909.794	717.543
198.402	21.015	909.417	716.325
199.417	20.793	908.992	715.015
200.432	21.105	908.473	715.826
201.446	20.776	907.700	713.805
202.461	20.598	906.975	712.442
203.475	20.643	906.450	712.149
204.490	20.221	904.980	709.204
205.504	18.959	902.995	702.435
206.519	19.362	903.132	704.129
207.534	20.646	903.173	709.338
208.548	20.576	902.599	708.537
209.563	21.022	902.303	710.058
210.577	20.980	901.727	709.370
211.592	20.772	900.511	707.508
212.607	21.097	900.747	708.950
213.621	21.280	900.019	709.058
214.636	21.108	899.271	707.707
215.650	21.335	898.666	708.089
216.665	21.187	898.204	707.061
217.680	21.127	897.835	706.468
218.694	21.104	897.265	705.865
219.709	20.881	896.234	704.089
220.723	20.537	895.046	701.704
221.738	20.799	894.717	702.442
222.753	20.909	894.252	702.457
223.767	20.968	893.204	701.808
224.782	21.098	892.687	701.864
225.796	21.177	892.100	701.659
226.811	21.352	891.662	701.955
227.826	20.922	890.236	699.047
228.840	20.031	889.089	694.511
229.855	20.169	888.223	694.326
230.869	20.436	887.771	694.982
231.884	20.010	886.723	692.397
232.899	20.012	886.809	692.409
233.913	20.792	887.113	695.703
234.928	20.869	886.380	695.374
235.942	20.909	885.678	694.924
236.957	20.897	884.967	694.254
237.972	20.666	883.772	692.336
238.986	20.455	883.571	691.277
240.001	20.818	882.657	691.945
241.015	20.698	881.967	690.867
242.030	20.677	881.381	690.264
243.045	21.059	880.689	691.174
244.059	21.053	880.609	691.027
245.074	21.202	879.858	690.964
246.088	20.932	879.159	689.286
247.103	20.846	878.318	688.228
248.117	20.677	878.038	687.281
249.132	21.198	877.760	689.059
250.147	21.507	877.855	690.289
251.161	21.651	876.912	690.058
252.176	21.869	876.471	690.505
253.190	21.775	875.582	689.374
254.205	21.888	875.112	689.386
255.220	21.960	874.904	689.448
256.234	22.052	873.849	688.915
257.249	21.972	873.569	688.320
258.263	21.708	872.820	686.632
259.278	21.880	871.936	686.551
260.293	21.845	871.658	686.136
261.307	21.860	871.378	685.911
262.322	21.941	870.036	685.111
263.336	21.633	869.500	683.428
264.351	21.160	868.486	680.724
265.366	20.070	866.462	674.837
266.380	19.697	865.560	672.622
267.395	20.613	865.615	676.166
268.409	21.453	865.917	679.611
269.424	21.459	865.131	678.957
270.439	21.458	864.891	678.703
271.453	21.690	864.050	678.881
272.468	21.667	863.615	678.390
273.482	21.772	863.421	678.588
274.497	22.063	862.651	679.045
275.512	21.647	861.475	676.452
276.526	21.092	860.650	673.604
277.541	21.182	860.234	673.566
278.555	21.713	859.512	674.988
279.570	21.583	858.876	673.929
280.585	21.227	858.182	671.953
281.599	21.496	857.373	672.295
282.614	21.641	856.689	672.256
283.628	21.162	855.866	669.711
284.643	20.843	855.027	667.774
285.657	21.275	855.391	669.656
286.672	21.125	854.405	668.252
287.687	20.676	853.453	665.728
288.701	20.988	853.123	666.605
289.716	21.409	853.061	668.106
290.730	21.179	851.663	666.075
291.745	20.870	851.195	664.473
292.760	20.731	850.179	663.090
293.774	20.691	849.871	662.642
294.789	21.666	850.281	666.615
295.803	22.160	850.476	668.586
296.818	22.196	849.823	668.153
297.833	22.247	849.441	667.988
298.847	21.989	848.715	666.377
299.862	21.670	847.691	664.303
300.876	21.882	847.005	664.510
301.891	22.140	846.716	665.204
302.906	22.243	846.191	665.120
303.920	21.947	844.561	662.662
304.935	21.654	844.262	661.265
305.949	22.108	843.758	662.525
306.964	22.153	843.485	662.420
307.979	21.900	843.028	661.049
308.993	21.877	842.159	660.221
310.008	22.263	842.036	661.519
311.022	22.347	841.773	661.569
312.037	22.256	840.865	660.457
313.052	22.052	840.182	659.097
314.066	21.923	839.454	657.985
315.081	21.157	838.289	654.142
316.095	20.529	836.653	650.458
317.110	21.100	837.120	652.902
318.125	21.881	837.587	656.131
319.139	21.447	836.244	653.398
320.154	20.416	834.519	648.150
321.168	19.939	833.804	645.755
322.183	20.504	834.351	648.231
323.197	21.446	834.247	651.606
324.212	21.826	833.901	652.689
325.227	21.949	833.700	652.935
326.241	21.940	833.364	652.579
327.256	21.974	832.153	651.698
328.270	21.902	831.723	651.039
329.285	21.709	831.141	649.810
330.300	21.566	830.210	648.495
331.314	21.452	829.344	647.338
332.329	21.418	829.211	647.050
333.343	21.835	828.540	648.011
334.358	22.113	828.293	648.788
335.373	22.053	827.767	648.099
336.387	22.040	827.167	647.523
337.402	22.325	826.688	648.140
338.416	22.528	826.253	648.488
339.431	22.487	825.868	647.979
340.446	22.418	825.062	647.036
341.460	22.737	824.874	648.002
342.475	22.724	823.987	647.199
343.489	22.425	823.550	645.701
344.504	22.366	822.582	644.672
345.519	22.722	822.593	645.926
346.533	22.819	822.253	645.959
347.548	22.992	821.937	646.286
348.562	22.995	821.480	645.879
349.577	22.813	820.889	644.693
350.592	22.747	820.566	644.139
351.606	22.677	819.961	643.354
352.621	22.907	819.051	643.422
353.635	22.695	818.708	642.322
354.650	22.760	817.949	641.908
355.665	22.470	816.908	639.979
356.679	21.380	815.501	634.863
357.694	21.260	815.125	634.080
358.708	21.867	815.075	636.189
359.723	21.819	814.468	635.484
360.738	22.071	814.320	636.223
361.752	22.348	814.574	637.369
362.767	22.521	813.868	637.388
363.781	22.870	813.660	638.428
364.796	23.049	813.582	638.960
365.810	23.132	812.925	638.687
366.825	23.198	812.663	638.661
367.840	23.250	812.188	638.421
368.854	23.138	811.314	637.272
369.869	22.635	810.867	635.054
370.883	22.474	810.018	633.752
371.898	22.644	809.536	633.931
372.913	22.388	808.775	632.360
373.927	22.530	808.361	632.492
374.942	22.619	807.430	632.023
375.956	22.691	807.287	632.114
376.971	22.847	806.448	631.962
377.986	23.106	805.940	632.433
379.000	23.118	805.593	632.146
380.015	23.106	805.127	631.684
381.029	22.959	804.605	630.694
382.044	23.024	804.191	630.546
383.059	23.063	803.629	630.186
384.073	23.102	802.969	629.752
385.088	23.051	802.862	629.432
386.102	23.162	801.892	629.011
387.117	23.104	801.409	628.368
388.132	23.033	800.624	627.445
389.146	22.782	800.289	626.239
390.161	22.116	799.223	622.987
391.175	22.391	798.884	623.643
392.190	22.795	799.139	625.219
393.205	22.768	798.514	624.577
394.219	21.839	796.962	620.025
395.234	20.299	794.429	612.567
396.248	19.508	793.740	609.192
397.263	20.686	794.404	613.807
398.278	22.533	795.587	621.183
399.292	22.794	795.584	622.048
400.307	22.526	794.923	620.531
401.321	22.548	794.325	620.088
402.336	22.589	793.774	619.746
403.350	22.668	794.161	620.273
404.365	23.181	793.937	621.843
405.380	23.565	793.857	623.075
406.394	23.741	793.400	623.281
407.409	23.806	792.997	623.137
408.423	23.711	792.523	622.374
409.438	23.654	791.963	621.680
410.453	23.775	791.678	621.827
411.467	23.912	791.206	621.880
412.482	23.827	790.612	621.060
413.496	23.645	789.870	619.787
414.511	23.995	789.493	620.659
415.526	23.875	789.296	620.029
416.540	23.811	788.971	619.495
417.555	23.799	788.304	618.875
418.569	23.395	787.803	617.020
419.584	23.465	787.116	616.673
420.599	23.568	786.381	616.399
421.613	157.123	1365.486	1798.530
422.628	135.905	1449.852	1798.607
