DTS Sentinel unit serial number:	SN413079Multiplexer serial number:	ORYXHardware model number:	OX4-SRSoftware version number:	ORYX F/W v4.00 Oryx Data Collector v3.7.2.0data status	okinstallation	princeton_trtdifferential loss correction	single-endedforward channel	channel 3reverse channel	N/Adate	2019/09/11time	20:58:10forward acquisition time	60.00reverse acquisition time	0.00gamma	496.2192k internal	0.2307k external	0.2307temperature offset calibration	1.0034default loss term (dB/km)	0.3790temperature slope calibration	1.0000multiplexer offset coefficient	1.0000multiplexer slope coefficient	1.0000fibre end	0.00T internal ref (°C)	36.75T ext. ref 1 (°C)	1.62T ext. ref 2 (°C)	30.72length (m)	temperature (°C)	Stokes	anti-Stokes-747.200	-109.069	0.110	0.024
-746.185	-76.362	-0.182	0.065
-745.171	-191.530	0.170	-0.002
-744.156	-104.528	0.160	-0.038
-743.142	204.400	-0.196	0.310
-742.127	-200.000	-0.001	0.042
-741.112	344.500	0.113	0.225
-740.098	427.769	-0.148	0.326
-739.083	81.280	0.225	0.247
-738.069	800.000	0.121	0.519
-737.054	800.000	0.059	0.229
-736.039	69.313	0.155	-0.162
-735.025	-200.000	0.024	0.176
-734.010	-178.006	-0.076	0.002
-732.996	-92.950	0.162	0.046
-731.981	106.836	-0.221	0.267
-730.966	-40.662	-0.274	-0.144
-729.952	92.377	-0.225	-0.258
-728.937	-200.000	0.003	-0.264
-727.923	-24.162	-0.250	-0.152
-726.908	-23.546	0.365	-0.222
-725.894	77.988	-0.370	-0.400
-724.879	-200.000	0.023	0.267
-723.864	-193.592	0.266	-0.002
-722.850	51.289	-0.195	0.188
-721.835	97.133	0.153	-0.178
-720.821	-55.877	-0.122	0.055
-719.806	800.000	0.117	0.449
-718.791	-15.498	-0.099	0.064
-717.777	-20.424	-0.154	-0.096
-716.762	-200.000	0.010	-0.106
-715.748	-90.606	0.225	0.066
-714.733	-172.156	0.265	0.009
-713.718	-144.575	-0.116	0.011
-712.704	-200.000	0.009	-0.329
-711.689	-41.413	0.216	-0.113
-710.675	-143.247	-0.468	-0.046
-709.660	493.565	0.049	-0.114
-708.645	-52.377	-0.194	0.091
-707.631	144.802	-0.133	-0.181
-706.616	169.365	0.092	0.134
-705.602	99.811	-0.282	0.332
-704.587	128.694	-0.041	0.053
-703.572	-36.242	-0.271	0.149
-702.558	-132.019	0.080	-0.011
-701.543	76.434	-0.219	0.236
-700.529	-114.736	-0.055	0.011
-699.514	-36.800	-0.118	0.064
-698.499	-171.869	-0.297	0.010
-697.485	-3.130	0.174	-0.123
-696.470	352.543	0.112	0.225
-695.456	800.000	0.039	0.147
-694.441	-91.064	-0.244	-0.071
-693.426	-200.000	0.009	-0.147
-692.412	7.286	0.124	0.094
-691.397	-33.364	0.195	-0.110
-690.383	363.373	0.124	-0.252
-689.368	-23.840	-0.091	0.055
-688.354	-14.062	0.320	0.209
-687.339	-117.807	0.063	0.011
-686.324	155.284	0.150	0.210
-685.310	-200.000	0.022	0.288
-684.295	-84.067	0.134	0.043
-683.281	-200.000	-0.056	-0.289
-682.266	358.741	0.152	-0.309
-681.251	-143.496	-0.473	0.046
-680.237	569.650	0.014	-0.033
-679.222	54.026	0.240	-0.234
-678.208	190.408	-0.215	-0.327
-677.193	39.452	-0.407	0.370
-676.178	-200.000	0.040	0.369
-675.164	-36.449	0.261	-0.143
-674.149	-109.181	0.271	0.058
-673.135	30.607	0.133	0.116
-672.120	470.890	-0.022	0.050
-671.105	-119.511	0.132	0.023
-670.091	-200.000	-0.012	-0.258
-669.076	70.847	0.103	0.108
-668.062	-86.298	0.172	-0.054
-667.047	180.264	-0.285	0.424
-666.032	-12.181	0.231	-0.153
-665.018	373.775	-0.077	0.160
-664.003	-188.475	-0.090	-0.001
-662.989	-40.674	-0.237	0.125
-661.974	-44.112	-0.090	0.046
-660.959	28.737	-0.080	-0.069
-659.945	123.800	0.187	-0.238
-658.930	-124.230	0.277	0.044
-657.916	5.006	-0.046	-0.035
-656.901	-64.116	-0.122	-0.050
-655.886	800.000	0.035	0.114
-654.872	364.443	-0.111	-0.225
-653.857	-200.000	0.027	-0.361
-652.843	-101.054	-0.226	-0.056
-651.828	86.174	-0.074	0.082
-650.814	109.815	-0.142	-0.173
-649.799	-200.000	0.065	-0.404
-648.784	-103.766	0.283	-0.067
-647.770	-200.000	-0.017	0.116
-646.755	800.000	0.092	-0.317
-645.741	-200.000	-0.020	-0.435
-644.726	-2.763	0.218	-0.154
-643.711	-20.720	-0.147	-0.091
-642.697	553.041	0.117	0.284
-641.682	-35.215	-0.187	-0.103
-640.668	-180.424	-0.357	-0.008
-639.653	-29.118	-0.221	0.128
-638.638	-178.758	0.273	-0.006
-637.624	-94.702	-0.142	-0.039
-636.609	-200.000	-0.042	0.243
-635.595	-200.000	-0.006	-0.116
-634.580	20.886	-0.517	-0.424
-633.565	800.000	0.096	0.269
-632.551	-51.173	-0.251	0.119
-631.536	34.066	-0.149	-0.131
-630.522	492.055	0.114	0.264
-629.507	-200.000	0.001	-0.166
-628.492	-200.000	0.019	0.169
-627.478	-119.533	-0.283	-0.050
-626.463	713.308	-0.020	-0.054
-625.449	168.133	-0.160	0.230
-624.434	207.670	0.205	0.325
-623.419	120.697	-0.075	-0.094
-622.405	-107.132	0.249	0.056
-621.390	-63.879	0.132	0.055
-620.376	-200.000	0.002	-0.366
-619.361	181.978	0.045	-0.067
-618.346	44.160	-0.039	0.036
-617.332	-200.000	-0.045	-0.239
-616.317	121.033	-0.181	-0.228
-615.303	378.334	0.060	0.124
-614.288	-200.000	0.038	0.465
-613.273	-99.739	-0.082	-0.021
-612.259	-200.000	-0.018	-0.476
-611.244	-7.529	0.295	-0.202
-610.230	66.355	0.036	0.037
-609.215	-100.306	-0.094	-0.024
-608.201	-200.000	-0.011	-0.143
-607.186	-35.173	-0.144	0.079
-606.171	83.646	0.103	0.114
-605.157	28.796	0.175	-0.150
-604.142	-1.600	-0.273	-0.195
-603.128	-156.634	0.148	0.009
-602.113	-110.844	-0.052	0.011
-601.098	800.000	0.063	-0.217
-600.084	-200.000	0.028	-0.203
-599.069	-72.868	0.081	0.030
-598.055	52.625	0.170	0.165
-597.040	-200.000	-0.061	-0.338
-596.025	47.218	-0.259	-0.244
-595.011	-59.299	0.114	-0.050
-593.996	-129.514	0.237	-0.033
-592.982	-104.882	-0.201	-0.047
-591.967	-45.481	0.128	-0.064
-590.952	-123.617	0.263	0.042
-589.938	795.016	-0.057	0.159
-588.923	269.195	-0.135	0.240
-587.909	442.987	-0.011	0.024
-586.894	209.784	-0.062	0.098
-585.879	567.316	-0.071	-0.174
-584.865	-111.637	-0.172	-0.035
-583.850	800.000	-0.087	-0.299
-582.836	135.187	-0.250	-0.328
-581.821	-22.114	-0.096	0.059
-580.806	493.328	-0.106	-0.245
-579.792	219.640	-0.169	0.273
-578.777	19.937	-0.150	-0.122
-577.763	-200.000	-0.022	-0.347
-576.748	-41.133	0.018	-0.009
-575.733	-72.809	0.064	0.024
-574.719	-200.000	-0.035	-0.246
-573.704	800.000	-0.067	0.194
-572.690	-200.000	-0.037	0.243
-571.675	800.000	-0.074	-0.216
-570.661	62.735	0.200	-0.202
-569.646	-200.000	0.016	0.157
-568.631	-200.000	0.055	-0.543
-567.617	-105.362	-0.427	-0.098
-566.602	117.357	-0.086	0.107
-565.588	-197.586	-0.277	-0.002
-564.573	-177.417	0.331	0.008
-563.558	-182.571	-0.404	0.007
-562.544	574.486	0.061	0.149
-561.529	-200.000	0.023	-0.180
-560.515	64.864	-0.089	0.090
-559.500	-89.198	0.187	0.056
-558.485	-13.039	-0.276	-0.181
-557.471	-64.311	-0.361	-0.148
-556.456	671.232	0.090	-0.235
-555.442	-4.213	-0.079	-0.055
-554.427	-176.406	0.366	-0.010
-553.412	-15.802	-0.136	-0.087
-552.398	-200.000	0.038	-0.226
-551.383	686.114	-0.064	0.168
-550.369	-200.000	0.035	0.377
-549.354	-200.000	-0.019	0.089
-548.339	143.125	-0.100	0.135
-547.325	800.000	-0.065	0.186
-546.310	258.377	0.094	-0.163
-545.296	121.340	0.033	-0.042
-544.281	-108.227	-0.276	-0.060
-543.266	800.000	-0.052	-0.178
-542.252	-35.112	0.201	0.110
-541.237	-69.877	-0.322	-0.124
-540.223	-41.375	-0.100	-0.052
-539.208	-164.039	0.078	-0.004
-538.193	-200.000	-0.002	0.018
-537.179	-200.000	0.025	0.255
-536.164	-75.145	-0.518	0.187
-535.150	800.000	-0.063	0.175
-534.135	315.501	0.021	0.040
-533.121	-119.123	0.160	-0.028
-532.106	-200.000	-0.021	-0.238
-531.091	10.262	0.087	-0.067
-530.077	-123.066	-0.256	0.041
-529.062	106.192	0.111	0.133
-528.048	30.921	-0.062	0.053
-527.033	-55.365	0.148	-0.067
-526.018	-134.801	0.123	-0.015
-525.004	56.287	0.169	0.165
-523.989	60.747	0.178	0.178
-522.975	7.236	0.035	-0.026
-521.960	349.569	0.144	0.286
-520.945	232.789	-0.098	0.162
-519.931	-91.694	0.133	0.038
-518.916	324.476	-0.185	0.356
-517.902	-200.000	0.079	-0.520
-516.887	-138.790	0.198	-0.022
-515.872	10.139	0.166	0.127
-514.858	800.000	0.065	0.220
-513.843	59.529	-0.036	0.036
-512.829	-200.000	-0.008	0.244
-511.814	12.558	-0.262	0.203
-510.799	-91.751	0.406	0.116
-509.785	-109.609	-0.472	-0.100
-508.770	-200.000	0.035	0.406
-507.756	4.467	0.113	-0.083
-506.741	193.197	-0.204	0.311
-505.726	355.461	0.104	0.208
-504.712	520.853	0.048	0.113
-503.697	-77.682	-0.380	0.132
-502.683	800.000	-0.096	-0.364
-501.668	-200.000	-0.040	0.192
-500.653	98.271	-0.045	-0.052
-499.639	-97.239	0.067	0.018
-498.624	-78.235	-0.304	0.105
-497.610	517.188	0.069	-0.162
-496.595	-30.482	0.285	0.163
-495.581	29.273	0.098	-0.084
-494.566	-118.158	0.270	0.048
-493.551	-29.709	0.240	-0.138
-492.537	52.847	-0.103	-0.099
-491.522	800.000	0.083	0.282
-490.508	800.000	0.114	-0.425
-489.493	-121.855	0.116	0.019
-488.478	73.454	-0.050	0.052
-487.464	-83.568	-0.143	0.046
-486.449	-161.488	-0.231	-0.012
-485.435	800.000	-0.126	-0.372
-484.420	-9.642	0.239	-0.161
-483.405	41.135	-0.142	0.129
-482.391	800.000	-0.062	0.243
-481.376	-200.000	0.010	0.075
-480.362	-58.923	-0.102	0.044
-479.347	76.954	-0.163	0.174
-478.332	-200.000	-0.023	0.111
-477.318	-200.000	-0.027	-0.165
-476.303	569.264	0.048	0.117
-475.289	49.190	-0.196	0.185
-474.274	800.000	0.100	-0.408
-473.259	188.523	0.189	0.284
-472.245	-200.000	0.004	-0.200
-471.230	112.895	-0.246	-0.299
-470.216	239.879	0.131	0.220
-469.201	272.088	-0.057	0.101
-468.186	-131.504	0.213	-0.028
-467.172	-154.389	0.054	-0.004
-466.157	-200.000	0.005	0.112
-465.143	-139.721	-0.169	-0.018
-464.128	-86.186	-0.270	0.084
-463.113	800.000	-0.037	0.102
-462.099	-66.307	-0.072	-0.029
-461.084	-102.146	-0.179	0.043
-460.070	23.615	-0.168	-0.139
-459.055	121.550	0.059	-0.074
-458.040	-91.761	-0.181	0.052
-457.026	-200.000	0.039	0.245
-456.011	50.404	0.184	0.174
-454.997	515.220	0.067	-0.158
-453.982	-86.832	-0.264	0.081
-452.968	-142.262	-0.213	-0.021
-451.953	-200.000	-0.002	0.414
-450.938	384.662	0.092	0.190
-449.924	-200.000	-0.001	-0.270
-448.909	-40.526	0.268	0.140
-447.895	48.344	-0.090	-0.084
-446.880	136.729	0.218	-0.286
-445.865	-50.404	0.063	-0.030
-444.851	-200.000	0.058	0.268
-443.836	800.000	-0.014	-0.059
-442.822	-200.000	-0.006	0.054
-441.807	800.000	-0.074	0.294
-440.792	51.133	0.166	-0.158
-439.778	118.971	0.140	-0.173
-438.763	-114.249	-0.414	-0.080
-437.749	49.846	-0.143	-0.135
-436.734	176.489	-0.017	0.025
-435.719	232.855	0.062	-0.102
-434.705	129.427	-0.095	0.123
-433.690	-23.103	0.255	-0.154
-432.676	-122.106	-0.076	0.013
-431.661	-106.757	-0.074	-0.017
-430.646	-98.294	-0.113	0.029
-429.632	-74.948	-0.158	0.057
-428.617	-170.718	0.375	-0.013
-427.603	-200.000	0.028	-0.174
-426.588	12.717	0.162	0.126
-425.573	232.410	0.054	0.088
-424.559	2.781	0.235	0.171
-423.544	251.907	-0.083	-0.143
-422.530	-80.428	-0.111	-0.037
-421.515	124.415	0.095	-0.120
-420.500	339.796	-0.117	-0.229
-419.486	-200.000	0.026	0.161
-418.471	75.197	0.051	0.054
-417.457	-200.000	0.058	0.387
-416.442	276.761	-0.227	-0.405
-415.428	-200.000	0.015	-0.104
-414.413	-125.557	0.113	0.017
-413.398	562.574	0.110	-0.266
-412.384	148.367	-0.213	-0.289
-411.369	195.003	-0.131	0.199
-410.355	239.331	0.128	-0.213
-409.340	-155.033	-0.080	0.005
-408.325	19.347	0.320	0.258
-407.311	-200.000	0.038	-0.166
-406.296	-75.062	-0.179	0.064
-405.282	-200.000	0.052	-0.255
-404.267	-80.959	-0.298	0.099
-403.252	-176.824	-0.120	-0.003
-402.238	-55.348	0.189	0.085
-401.223	-57.833	0.246	0.108
-400.209	224.834	-0.123	-0.199
-399.194	186.649	0.145	-0.217
-398.179	-200.000	-0.027	0.223
-397.165	144.118	-0.049	0.066
-396.150	-57.047	0.213	0.094
-395.136	-200.000	0.010	-0.286
-394.121	-133.768	0.203	0.025
-393.106	152.753	0.134	0.184
-392.092	-200.000	-0.021	-0.227
-391.077	-7.411	-0.148	-0.100
-390.063	800.000	0.101	-0.381
-389.048	-200.000	-0.005	-0.171
-388.033	271.299	0.097	-0.171
-387.019	398.377	-0.039	0.081
-386.004	-200.000	-0.004	0.217
-384.990	461.723	-0.077	0.172
-383.975	-52.589	0.144	0.066
-382.960	-151.409	0.269	0.020
-381.946	-133.578	0.239	0.030
-380.931	76.964	-0.108	0.115
-379.917	-47.332	0.109	-0.053
-378.902	-200.000	-0.161	-0.000
-377.888	248.766	0.038	0.065
-376.873	26.772	0.159	0.134
-375.858	656.456	-0.010	0.026
-374.844	72.823	-0.134	0.140
-373.829	-92.214	0.146	0.041
-372.815	-50.046	0.046	-0.022
-371.800	54.116	0.168	0.162
-370.785	30.701	0.220	-0.189
-369.771	52.776	-0.110	-0.106
-368.756	21.546	-0.068	-0.055
-367.742	800.000	0.041	-0.139
-366.727	4.258	0.026	0.019
-365.712	-81.841	-0.075	-0.025
-364.698	700.411	-0.074	0.194
-363.683	68.428	0.102	-0.105
-362.669	800.000	-0.095	-0.285
-361.654	-122.184	0.337	-0.055
-360.639	139.575	-0.139	-0.184
-359.625	25.926	0.048	0.040
-358.610	-96.095	-0.111	0.029
-357.596	38.682	0.213	-0.190
-356.581	-91.372	0.265	-0.076
-355.566	-200.000	0.010	0.195
-354.552	-32.154	-0.158	0.088
-353.537	-101.950	0.138	-0.033
-352.523	147.432	0.157	-0.212
-351.508	-200.000	-0.013	0.089
-350.493	-200.000	-0.002	-0.224
-349.479	-42.414	-0.237	-0.121
-348.464	348.335	-0.053	0.105
-347.450	165.849	-0.186	0.263
-346.435	-144.931	-0.147	-0.013
-345.420	-200.000	0.062	-0.302
-344.406	-40.408	0.164	-0.085
-343.391	-171.327	0.343	-0.012
-342.377	-200.000	0.006	0.218
-341.362	-200.000	-0.061	0.441
-340.348	-200.000	0.004	-0.294
-339.333	-73.373	-0.230	-0.084
-338.318	-175.958	0.048	-0.001
-337.304	-200.000	-0.001	-0.218
-336.289	-47.404	-0.253	-0.123
-335.275	173.588	0.031	0.045
-334.260	-62.547	-0.056	0.023
-333.245	345.349	-0.087	-0.171
-332.231	751.958	-0.071	0.192
-331.216	-35.694	0.052	0.028
-330.202	49.100	-0.212	0.200
-329.187	800.000	-0.009	0.039
-328.172	-200.000	0.013	0.095
-327.158	800.000	-0.140	0.386
-326.143	246.308	-0.110	0.185
-325.129	-200.000	0.017	0.297
-324.114	71.689	-0.098	0.102
-323.099	-200.000	-0.013	0.130
-322.085	-144.828	0.069	-0.006
-321.070	753.997	0.050	0.136
-320.056	-123.234	-0.130	0.021
-319.041	800.000	0.041	-0.177
-318.026	138.824	0.136	0.179
-317.012	800.000	0.098	-0.384
-315.997	71.392	0.156	-0.162
-314.983	9.363	0.203	-0.154
-313.968	-107.038	0.151	-0.033
-312.953	-49.807	0.090	0.043
-311.939	-200.000	0.186	0.000
-310.924	-200.000	0.002	0.114
-309.910	-99.352	-0.180	-0.045
-308.895	-75.811	-0.106	0.038
-307.880	800.000	0.050	0.149
-306.866	-200.000	0.045	0.217
-305.851	48.415	0.077	-0.072
-304.837	133.169	-0.159	-0.205
-303.822	-46.298	0.116	-0.057
-302.807	-118.656	0.233	-0.041
-301.793	-64.225	0.044	-0.018
-300.778	67.404	0.345	0.352
-299.764	-101.993	-0.133	-0.032
-298.749	800.000	-0.044	0.128
-297.735	-39.698	0.233	0.122
-296.720	-200.000	-0.037	0.310
-295.705	-161.667	0.036	0.002
-294.691	42.896	0.145	-0.132
-293.676	-129.372	0.093	0.013
-292.662	-74.971	-0.183	-0.065
-291.647	-96.374	-0.060	-0.016
-290.632	-95.313	0.191	-0.051
-289.618	-45.415	0.283	0.140
-288.603	-41.796	-0.159	0.082
-287.589	-151.855	0.481	0.035
-286.574	154.828	0.021	-0.029
-285.559	290.084	0.120	-0.217
-284.545	406.059	-0.093	-0.197
-283.530	-200.000	-0.002	0.033
-282.516	800.000	0.087	0.252
-281.501	106.889	0.114	-0.135
-280.486	-84.812	0.369	0.116
-279.472	50.992	0.114	-0.108
-278.457	-89.423	-0.139	-0.041
-277.443	408.054	0.096	0.202
-276.428	-142.808	0.229	0.022
-275.413	-166.931	-0.393	-0.016
-274.399	-200.000	-0.012	-0.219
-273.384	-200.000	-0.045	0.217
-272.370	-200.000	0.003	-0.177
-271.355	-200.000	0.008	-0.042
-270.340	117.523	-0.056	0.069
-269.326	-3.713	0.008	-0.006
-268.311	21.547	0.094	-0.076
-267.297	-74.223	-0.136	0.049
-266.282	91.036	-0.202	0.226
-265.267	165.186	-0.113	0.159
-264.253	-60.895	-0.207	-0.087
-263.238	-200.000	0.018	-0.446
-262.224	-23.429	0.127	0.076
-261.209	-148.875	0.292	-0.024
-260.195	421.876	-0.183	0.391
-259.180	-48.279	0.152	-0.073
-258.165	-89.924	0.206	0.060
-257.151	-47.536	0.289	0.140
-256.136	-61.862	0.176	0.073
-255.122	-200.000	-0.003	-0.101
-254.107	-155.355	-0.040	0.003
-253.092	-200.000	-0.017	-0.524
-252.078	-79.188	0.057	-0.019
-251.063	800.000	-0.081	-0.242
-250.049	-75.559	-0.292	0.104
-249.034	-160.950	0.267	0.014
-248.019	-127.811	-0.518	0.074
-247.005	-200.000	-0.007	0.259
-245.990	-127.202	0.088	0.013
-244.976	-139.664	0.114	-0.012
-243.961	-26.852	0.104	-0.061
-242.946	71.295	-0.169	-0.175
-241.932	-32.690	-0.170	-0.094
-240.917	75.633	-0.134	0.141
-239.903	466.815	-0.062	-0.138
-238.888	16.946	0.280	-0.221
-237.873	100.362	0.231	-0.267
-236.859	161.099	-0.088	-0.123
-235.844	800.000	0.040	-0.149
-234.830	23.703	-0.167	0.137
-233.815	800.000	-0.043	0.150
-232.800	-157.434	0.120	-0.007
-231.786	-157.538	-0.235	-0.014
-230.771	370.355	-0.028	0.057
-229.757	-42.254	0.217	0.110
-228.742	-200.000	-0.035	-0.217
-227.727	42.439	-0.095	-0.086
-226.713	13.355	-0.272	0.210
-225.698	-70.511	-0.272	-0.102
-224.684	331.302	-0.175	0.337
-223.669	-77.555	0.119	0.041
-222.655	245.896	0.010	-0.018
-221.640	-200.000	-0.030	0.201
-220.625	427.653	-0.086	0.184
-219.611	227.449	-0.114	0.184
-218.596	642.935	0.047	-0.119
-217.582	53.284	-0.207	0.198
-216.567	-137.985	0.038	0.004
-215.552	199.779	0.163	0.249
-214.538	243.593	0.113	0.189
-213.523	-159.467	0.277	-0.015
-212.509	-106.756	0.092	-0.020
-211.494	800.000	-0.174	-0.606
-210.479	800.000	-0.043	0.156
-209.465	108.286	-0.104	0.123
-208.450	50.055	0.219	-0.206
-207.436	-200.000	0.024	0.131
-206.421	-200.000	0.021	0.105
-205.406	-86.721	0.257	0.078
-204.392	-200.000	0.027	0.171
-203.377	159.756	-0.088	-0.122
-202.363	-200.000	-0.038	0.373
-201.348	222.521	0.228	0.366
-200.333	-200.000	-0.034	0.273
-199.319	162.346	0.077	-0.108
-198.304	628.403	-0.040	0.100
-197.290	199.254	-0.051	-0.078
-196.275	800.000	-0.187	-0.537
-195.260	266.410	0.131	-0.228
-194.246	-129.042	-0.299	0.042
-193.231	-127.291	-0.310	-0.045
-192.217	-200.000	0.110	-0.492
-191.202	-200.000	-0.062	0.296
-190.187	175.518	0.214	-0.309
-189.173	-49.077	0.135	0.064
-188.158	-74.554	0.212	0.076
-187.144	190.427	0.148	0.221
-186.129	-200.000	0.053	-0.254
-185.114	-40.005	-0.029	-0.015
-184.100	-28.337	0.219	0.126
-183.085	107.575	-0.251	-0.298
-182.071	800.000	-0.100	0.376
-181.056	-200.000	-0.021	0.146
-180.042	192.052	-0.129	0.193
-179.027	-139.392	-0.145	-0.016
-178.012	88.655	-0.030	-0.033
-176.998	87.723	0.098	0.108
-175.983	-176.926	-0.340	-0.009
-174.969	-118.883	-0.228	-0.040
-173.954	-171.036	0.060	-0.002
-172.939	279.087	0.062	0.109
-171.925	150.197	0.238	-0.321
-170.910	-85.027	0.091	-0.028
-169.896	800.000	0.027	0.074
-168.881	-200.000	0.003	0.337
-167.866	-89.582	0.187	-0.055
-166.852	-46.991	0.212	0.103
-165.837	-43.982	-0.122	0.061
-164.823	-200.000	-0.019	0.187
-163.808	-96.165	-0.153	-0.040
-162.793	87.868	-0.164	0.181
-161.779	800.000	-0.031	0.131
-160.764	-200.000	-0.035	0.268
-159.750	-200.000	0.006	-0.244
-158.735	49.347	0.231	-0.216
-157.720	800.000	-0.064	0.213
-156.706	67.211	-0.175	-0.177
-155.691	689.707	0.056	0.146
-154.677	-68.477	0.100	-0.038
-153.662	363.041	-0.108	-0.215
-152.647	-60.315	0.131	-0.055
-151.633	168.992	0.160	0.226
-150.618	-136.359	0.311	-0.036
-149.604	-43.730	-0.391	-0.196
-148.589	218.831	0.196	0.311
-147.574	-52.258	-0.092	-0.042
-146.560	642.074	-0.009	-0.022
-145.545	-60.295	0.386	-0.163
-144.531	800.000	-0.058	0.188
-143.516	730.866	-0.048	0.127
-142.502	145.399	-0.164	-0.218
-141.487	112.499	0.129	-0.155
-140.472	-63.505	0.386	0.158
-139.458	40.185	0.133	-0.119
-138.443	46.281	0.169	0.155
-137.429	-200.000	0.013	0.245
-136.414	-84.620	0.265	-0.083
-135.399	-200.000	-0.001	0.185
-134.385	474.933	0.159	0.357
-133.370	-159.187	0.264	0.015
-132.356	-45.199	-0.283	-0.139
-131.341	29.189	-0.078	0.066
-130.326	433.334	0.111	0.240
-129.312	546.547	0.054	-0.129
-128.297	-135.830	0.156	0.018
-127.283	-78.999	0.302	-0.102
-126.268	-154.353	-0.030	0.002
-125.253	-195.644	0.321	-0.002
-124.239	-200.000	-0.028	0.149
-123.224	-53.695	0.189	0.085
-122.210	-200.000	-0.021	-0.176
-121.195	-144.626	-0.226	-0.021
-120.180	77.098	-0.200	0.211
-119.166	51.024	-0.103	0.096
-118.151	100.564	0.053	0.061
-117.137	109.627	-0.098	-0.117
-116.122	-200.000	-0.006	-0.235
-115.107	491.038	0.054	-0.122
-114.093	527.442	-0.085	-0.198
-113.078	552.349	0.082	-0.195
-112.064	-25.178	0.083	0.049
-111.049	-77.988	-0.063	0.021
-110.034	-29.861	-0.182	0.103
-109.020	800.000	-0.055	0.198
-108.005	757.494	0.041	-0.110
-106.991	41.794	0.147	-0.132
-105.976	57.421	-0.148	-0.143
-104.962	-182.476	0.062	-0.001
-103.947	-32.061	-0.080	-0.045
-102.932	-178.579	0.023	-0.001
-101.918	195.304	0.036	-0.054
-100.903	576.968	0.117	-0.283
-99.889	40.854	0.240	0.215
-98.874	-200.000	-0.023	0.154
-97.859	-79.421	-0.099	-0.033
-96.845	-163.760	-0.275	0.013
-95.830	106.659	-0.111	0.130
-94.816	144.507	0.063	-0.083
-93.801	93.326	0.108	-0.121
-92.786	800.000	-0.062	0.187
-91.772	1.124	-0.072	-0.051
-90.757	-71.468	0.415	0.154
-89.743	369.760	0.087	0.175
-88.728	151.023	0.163	0.220
-87.713	-154.049	0.186	-0.013
-86.699	-53.732	-0.268	-0.121
-85.684	-128.315	0.069	-0.010
-84.670	137.467	0.117	-0.152
-83.655	800.000	-0.085	-0.294
-82.640	-181.619	-0.227	0.004
-81.626	-55.092	-0.392	-0.175
-80.611	77.771	-0.115	0.121
-79.597	191.673	-0.127	-0.189
-78.582	-200.000	0.022	0.290
-77.567	125.058	-0.103	0.129
-76.553	-111.653	-0.142	0.029
-75.538	-7.587	-0.108	-0.072
-74.524	800.000	-0.043	-0.131
-73.509	-200.000	0.001	-0.021
-72.494	0.482	-0.058	0.041
-71.480	-29.993	-0.197	-0.111
-70.465	21.778	-0.205	0.165
-69.451	-38.701	0.243	-0.127
-68.436	-200.000	0.028	0.131
-67.422	465.112	0.093	0.206
-66.407	697.215	-0.027	0.070
-65.392	243.844	-0.142	-0.236
-64.378	-32.682	-0.091	0.050
-63.363	157.600	-0.103	0.141
-62.349	572.133	0.127	0.306
-61.334	-13.514	-1.063	-0.682
-60.319	-153.142	0.323	0.022
-59.305	226.308	-0.440	-0.706
-58.290	318.917	0.460	0.862
-57.276	481.824	0.641	1.442
-56.261	-200.000	90.346	529.873
-55.246	517.101	1364.399	3158.104
-54.232	152.228	2575.307	3478.411
-53.217	114.765	2194.247	2647.850
-52.203	46.943	1730.884	1592.753
-51.188	39.869	1539.377	1367.706
-50.173	37.339	1511.917	1326.012
-49.159	54.845	1559.837	1489.801
-48.144	58.818	1580.030	1536.596
-47.130	40.256	1535.835	1367.012
-46.115	37.004	1520.550	1331.073
-45.100	36.807	1517.410	1326.922
-44.086	36.789	1515.432	1325.016
-43.071	36.743	1513.553	1323.010
-42.057	36.615	1512.696	1321.330
-41.042	36.764	1510.680	1320.533
-40.027	36.729	1509.767	1319.443
-39.013	36.708	1507.976	1317.682
-37.998	36.744	1506.640	1316.711
-36.984	36.723	1505.808	1315.787
-35.969	36.689	1504.329	1314.209
-34.954	36.658	1502.602	1312.440
-33.940	36.657	1501.044	1311.018
-32.925	36.889	1499.744	1311.402
-31.911	36.798	1498.631	1309.764
-30.896	36.830	1497.265	1308.737
-29.881	36.890	1495.644	1307.668
-28.867	36.914	1494.183	1306.504
-27.852	36.789	1492.907	1304.494
-26.838	36.774	1491.292	1302.930
-25.823	36.725	1490.110	1301.513
-24.809	36.838	1487.675	1300.093
-23.794	36.772	1486.790	1298.828
-22.779	36.820	1485.741	1298.184
-21.765	36.763	1484.630	1296.780
-20.750	36.902	1483.119	1296.339
-19.736	36.773	1482.324	1294.729
-18.721	36.827	1480.862	1293.758
-17.706	36.731	1479.993	1292.307
-16.692	36.690	1479.272	1291.354
-15.677	36.818	1477.809	1290.877
-14.663	36.722	1477.110	1289.576
-13.648	36.755	1475.923	1288.711
-12.633	36.750	1475.085	1287.896
-11.619	36.737	1474.214	1286.997
-10.604	36.692	1473.193	1285.755
-9.590	36.690	1472.250	1284.869
-8.575	36.604	1472.110	1284.122
-7.560	36.680	1470.832	1283.463
-6.546	36.672	1469.988	1282.622
-5.531	36.727	1469.057	1282.118
-4.517	36.619	1468.413	1280.793
-3.502	36.773	1466.714	1280.282
-2.487	36.652	1466.139	1278.926
-1.473	36.668	1464.688	1277.716
-0.458	36.778	1463.449	1277.309
0.556	36.591	1453.898	1265.356
1.571	33.447	1427.414	1221.952
2.586	29.537	1365.823	1144.935
3.600	27.720	1283.138	1064.934
4.615	26.143	1235.606	1016.523
5.629	22.140	1177.522	947.121
6.644	11.447	1088.967	822.228
7.659	3.098	1044.470	748.081
8.673	1.885	1038.295	737.728
9.688	1.668	1035.902	734.914
10.702	1.416	1034.137	732.379
11.717	1.512	1032.039	731.293
12.731	5.185	1036.817	752.338
13.746	15.530	1050.885	812.782
14.761	22.972	1060.576	856.411
15.775	24.297	1061.836	863.777
16.790	24.477	1061.621	864.396
17.804	24.505	1060.160	863.267
18.819	24.103	1059.949	861.074
19.834	24.310	1059.156	861.356
20.848	24.467	1058.511	861.512
21.863	24.509	1058.183	861.370
22.877	24.543	1057.440	860.854
23.892	24.446	1057.451	860.318
24.907	24.336	1056.337	858.807
25.921	24.465	1055.670	858.809
26.936	24.399	1054.942	857.826
27.950	24.393	1053.481	856.532
28.965	24.366	1052.485	855.519
29.980	24.308	1051.306	854.206
30.994	24.299	1049.967	852.997
32.009	24.426	1048.931	852.689
33.023	24.626	1048.175	852.951
34.038	24.315	1047.402	850.763
35.053	24.258	1046.832	849.954
36.067	24.468	1045.682	849.946
37.082	24.522	1045.077	849.637
38.096	24.438	1044.435	848.637
39.111	24.708	1043.676	849.231
40.126	24.696	1042.756	848.348
41.140	24.540	1042.060	846.968
42.155	24.401	1040.099	844.642
43.169	24.039	1039.288	842.197
44.184	24.070	1037.766	841.035
45.199	24.159	1036.931	840.702
46.213	23.981	1036.062	839.083
47.228	23.975	1035.342	838.399
48.242	24.125	1034.317	838.200
49.257	24.169	1033.860	837.966
50.271	24.324	1032.960	837.890
51.286	24.421	1032.349	837.774
52.301	24.619	1031.249	837.738
53.315	24.450	1031.040	836.699
54.330	24.427	1029.878	835.574
55.344	24.341	1029.141	834.503
56.359	24.441	1028.240	834.166
57.374	24.412	1027.598	833.434
58.388	24.217	1026.536	831.592
59.403	24.270	1025.513	830.936
60.417	24.235	1025.147	830.400
61.432	23.977	1024.745	828.801
62.447	24.061	1023.740	828.307
63.461	24.061	1023.344	827.909
64.476	24.321	1022.295	828.196
65.490	24.230	1021.349	826.937
66.505	24.083	1020.520	825.510
67.520	24.095	1020.110	825.162
68.534	24.204	1019.018	824.709
69.549	24.061	1018.372	823.451
70.563	23.748	1017.269	821.038
71.578	23.631	1016.317	819.658
72.593	23.616	1015.825	819.121
73.607	23.531	1014.595	817.665
74.622	23.436	1013.646	816.390
75.636	23.880	1012.792	817.671
76.651	24.021	1012.010	817.618
77.666	24.061	1010.714	816.681
78.680	23.965	1009.594	815.263
79.695	23.862	1009.435	814.591
80.709	23.900	1009.258	814.550
81.724	23.913	1008.470	813.902
82.739	23.988	1007.474	813.367
83.753	23.904	1006.713	812.299
84.768	24.229	1006.255	813.338
85.782	24.668	1005.229	814.439
86.797	24.774	1004.697	814.420
87.812	24.709	1003.758	813.290
88.826	24.460	1003.011	811.481
89.841	24.521	1002.062	810.920
90.855	24.725	1001.151	811.035
91.870	24.843	1000.166	810.701
92.884	24.734	999.693	809.752
93.899	24.567	999.023	808.383
94.914	24.425	997.830	806.701
95.928	24.532	997.362	806.739
96.943	24.638	996.482	806.431
97.957	24.349	995.458	804.227
98.972	23.984	994.463	801.711
99.987	23.936	993.478	800.630
101.001	23.955	992.586	799.925
102.016	24.277	992.263	801.040
103.030	24.345	991.706	800.826
104.045	24.230	990.210	799.031
105.060	24.129	988.844	797.406
106.074	24.122	987.488	796.211
107.089	23.944	987.297	795.189
108.103	24.305	987.182	796.638
109.118	24.481	985.930	796.346
110.133	24.144	984.799	793.857
111.147	24.181	983.572	792.965
112.162	24.021	982.666	791.454
113.176	23.812	981.993	789.909
114.191	23.952	981.185	789.815
115.206	24.069	979.906	789.231
116.220	23.973	978.473	787.582
117.235	23.631	977.806	785.464
118.249	23.789	977.723	786.025
119.264	23.828	976.793	785.382
120.279	23.724	975.633	783.922
121.293	23.694	975.212	783.382
122.308	23.835	974.119	783.055
123.322	23.865	973.649	782.740
124.337	23.759	972.656	781.408
125.352	23.691	970.983	779.692
126.366	23.378	969.406	776.985
127.381	23.004	968.013	774.163
128.395	23.465	967.862	775.992
129.410	24.165	967.556	778.740
130.424	24.290	966.974	778.750
131.439	24.278	965.889	777.754
132.454	24.373	964.667	777.113
133.468	24.359	963.743	776.241
134.483	24.404	962.961	775.738
135.497	24.255	962.974	775.033
136.512	24.472	962.202	775.283
137.527	24.482	961.621	774.792
138.541	24.611	960.419	774.315
139.556	24.584	959.867	773.681
140.570	24.617	958.977	773.040
141.585	24.675	957.902	772.356
142.600	24.795	957.247	772.275
143.614	24.600	956.614	770.857
144.629	24.701	956.054	770.774
145.643	25.025	955.066	771.304
146.658	24.790	953.911	769.289
147.673	24.623	952.771	767.586
148.687	24.469	951.868	766.129
149.702	24.384	950.447	764.555
150.716	24.298	949.381	763.260
151.731	24.339	948.401	762.580
152.746	24.322	947.987	762.109
153.760	24.582	947.543	762.796
154.775	24.742	946.667	762.702
155.789	24.679	946.078	761.892
156.804	24.702	945.028	761.078
157.819	24.558	943.957	759.535
158.833	24.704	943.042	759.355
159.848	24.679	942.459	758.711
160.862	24.774	941.630	758.377
161.877	24.653	940.658	757.016
162.892	24.574	939.771	755.900
163.906	24.728	938.793	755.698
164.921	24.755	937.898	755.024
165.935	24.622	936.732	753.459
166.950	24.710	935.830	753.038
167.964	24.731	935.048	752.429
168.979	24.552	934.305	751.011
169.994	24.541	933.089	749.924
171.008	24.526	931.535	748.544
172.023	24.665	931.170	748.769
173.037	24.722	930.569	748.457
174.052	24.574	929.161	746.641
175.067	24.403	928.018	744.939
176.081	24.464	927.749	744.912
177.096	24.511	926.960	744.410
178.110	24.430	926.433	743.582
179.125	24.231	924.840	741.410
180.140	24.174	924.017	740.451
181.154	24.144	923.298	739.685
182.169	24.023	923.104	738.959
183.183	24.416	922.416	739.975
184.198	24.650	922.338	740.814
185.213	24.568	921.726	739.918
186.227	24.406	920.947	738.557
187.242	24.597	920.736	739.115
188.256	24.727	919.760	738.804
189.271	24.618	918.731	737.462
190.286	24.720	917.775	737.048
191.300	24.636	917.030	736.039
192.315	23.934	916.143	732.370
193.329	23.375	914.358	728.581
194.344	22.964	912.934	725.695
195.359	23.421	913.610	728.046
196.373	24.313	913.816	731.810
197.388	24.622	913.647	732.876
198.402	24.497	912.829	731.644
199.417	24.471	912.168	730.941
200.432	24.580	911.456	730.753
201.446	24.428	911.201	729.860
202.461	24.265	909.963	728.138
203.475	24.210	910.091	727.953
204.490	23.818	908.328	724.879
205.504	22.725	906.514	718.917
206.519	22.946	906.401	719.667
207.534	24.087	906.160	724.054
208.548	24.151	906.231	724.304
209.563	24.409	906.238	725.297
210.577	24.533	905.275	724.964
211.592	24.257	904.470	723.135
212.607	24.594	903.738	723.851
213.621	24.827	903.268	724.356
214.636	24.703	902.804	723.417
215.650	24.724	902.519	723.210
216.665	24.734	901.681	722.513
217.680	24.739	901.252	722.126
218.694	24.804	900.992	722.118
219.709	24.505	899.963	720.021
220.723	24.077	899.156	717.589
221.738	24.252	898.935	718.054
222.753	24.563	897.926	718.437
223.767	24.447	897.297	717.403
224.782	24.645	896.626	717.598
225.796	24.761	895.993	717.495
226.811	24.970	895.637	717.981
227.826	24.512	894.378	715.077
228.840	23.641	893.041	710.460
229.855	23.508	892.406	709.359
230.869	23.814	891.726	709.978
231.884	23.550	890.823	708.143
232.899	23.534	890.661	707.887
233.913	24.292	890.885	711.028
234.928	24.386	890.683	711.179
235.942	24.433	889.699	710.515
236.957	24.453	888.913	709.905
237.972	24.065	887.845	707.450
238.986	23.946	887.272	706.456
240.001	24.068	886.448	706.221
241.015	24.114	885.995	705.983
242.030	24.248	885.152	705.776
243.045	24.347	884.908	705.913
244.059	24.373	884.811	705.874
245.074	24.655	884.155	706.402
246.088	24.584	883.511	705.546
247.103	24.247	882.738	703.537
248.117	24.250	881.842	702.774
249.132	24.693	882.082	704.647
250.147	25.237	881.581	706.328
251.161	25.265	880.674	705.649
252.176	25.527	880.596	706.555
253.190	25.413	880.368	705.859
254.205	25.328	879.934	705.118
255.220	25.572	878.829	705.125
256.234	25.639	878.184	704.807
257.249	25.475	877.908	703.882
258.263	25.142	877.307	702.035
259.278	25.402	876.521	702.362
260.293	25.372	876.394	702.079
261.307	25.376	875.908	701.645
262.322	25.543	875.013	701.514
263.336	25.291	874.043	699.695
264.351	24.788	872.882	696.745
265.366	23.681	871.176	691.015
266.380	23.274	870.113	688.527
267.395	24.146	870.548	692.204
268.409	24.856	870.955	695.225
269.424	24.885	870.151	694.634
270.439	25.036	869.823	694.894
271.453	25.148	869.086	694.680
272.468	25.275	867.914	694.174
273.482	25.301	867.740	694.072
274.497	25.421	867.307	694.129
275.512	25.278	866.661	692.998
276.526	24.679	864.960	689.269
277.541	24.849	864.730	689.678
278.555	25.294	864.804	691.391
279.570	25.159	863.872	690.066
280.585	24.953	863.093	688.591
281.599	24.923	862.901	688.259
282.614	25.226	862.290	688.875
283.628	24.845	860.821	686.180
284.643	24.306	859.991	683.391
285.657	24.834	859.783	685.190
286.672	24.656	859.595	684.297
287.687	24.146	858.688	681.565
288.701	24.605	858.545	683.147
289.716	25.008	857.966	684.163
290.730	24.569	856.944	681.613
291.745	24.444	856.713	680.894
292.760	24.234	855.711	679.234
293.774	24.163	855.202	678.502
294.789	25.163	855.718	682.661
295.803	25.785	855.601	684.874
296.818	25.825	855.195	684.637
297.833	25.860	854.824	684.414
298.847	25.593	853.635	682.390
299.862	25.335	852.728	680.624
300.876	25.384	852.046	680.204
301.891	25.733	851.831	681.297
302.906	25.792	850.897	680.712
303.920	25.297	850.414	678.395
304.935	25.199	849.791	677.468
305.949	25.629	849.562	678.849
306.964	25.724	848.845	678.573
307.979	25.590	847.989	677.325
308.993	25.383	847.540	676.124
310.008	25.857	847.291	677.650
311.022	25.912	846.975	677.544
312.037	25.796	846.463	676.639
313.052	25.454	845.728	674.707
314.066	25.417	844.839	673.802
315.081	24.695	843.553	670.009
316.095	23.911	842.215	665.955
317.110	24.575	842.373	668.504
318.125	25.229	842.837	671.262
319.139	25.032	841.583	669.468
320.154	23.814	839.698	663.368
321.168	23.428	838.649	661.038
322.183	24.020	838.963	663.436
323.197	24.982	839.406	667.312
324.212	25.175	839.275	667.871
325.227	25.443	838.642	668.302
326.241	25.564	838.211	668.351
327.256	25.455	837.682	667.466
328.270	25.307	837.114	666.405
329.285	25.221	836.536	665.566
330.300	25.229	835.598	664.792
331.314	24.883	834.866	662.868
332.329	25.026	834.330	662.911
333.343	25.232	834.044	663.387
334.358	25.675	833.980	664.915
335.373	25.557	833.181	663.784
336.387	25.711	832.757	663.957
337.402	25.811	832.628	664.163
338.416	25.998	832.151	664.414
339.431	25.996	831.604	663.908
340.446	26.037	830.946	663.478
341.460	26.266	830.351	663.786
342.475	26.228	829.831	663.170
343.489	26.149	828.805	662.003
344.504	26.004	828.368	661.063
345.519	26.208	827.999	661.457
346.533	26.419	827.666	661.904
347.548	26.392	827.468	661.588
348.562	26.539	826.840	661.569
349.577	26.463	826.701	661.120
350.592	26.282	826.266	660.052
351.606	26.377	825.306	659.574
352.621	26.364	824.653	658.945
353.635	26.272	824.506	658.433
354.650	26.248	823.929	657.827
355.665	25.859	822.797	655.451
356.679	24.901	821.307	650.726
357.694	24.592	821.025	649.321
358.708	25.517	820.510	652.215
359.723	25.262	820.164	650.957
360.738	25.497	820.159	651.747
361.752	26.103	819.782	653.585
362.767	26.257	819.291	653.694
363.781	26.165	819.439	653.422
364.796	26.638	819.404	655.046
365.810	26.637	818.903	654.585
366.825	26.862	818.490	655.008
367.840	26.831	817.942	654.401
368.854	26.633	817.538	653.304
369.869	26.261	816.574	651.139
370.883	26.155	815.607	649.928
371.898	26.158	815.154	649.520
372.913	26.294	814.303	649.273
373.927	26.051	814.162	648.231
374.942	26.209	813.570	648.268
375.956	26.248	813.020	647.912
376.971	26.282	812.946	647.919
377.986	26.584	811.877	648.090
379.000	26.517	811.727	647.672
380.015	26.775	811.182	648.103
381.029	26.487	810.687	646.623
382.044	26.506	809.899	646.003
383.059	26.715	809.157	646.101
384.073	26.794	808.770	646.015
385.088	26.656	808.540	645.283
386.102	26.894	807.777	645.465
387.117	26.545	807.102	643.625
388.132	26.337	806.739	642.543
389.146	26.402	805.902	642.046
390.161	25.625	805.119	638.610
391.175	25.865	804.373	638.814
392.190	26.227	804.590	640.213
393.205	26.358	804.158	640.276
394.219	25.400	802.514	635.522
395.234	23.818	800.305	628.131
396.248	23.093	799.045	624.527
397.263	24.136	799.777	628.727
398.278	25.856	800.917	635.643
399.292	26.431	801.240	637.870
400.307	26.084	800.297	635.840
401.321	26.100	799.675	635.347
402.336	25.995	799.890	635.092
403.350	26.371	799.676	636.189
404.365	26.814	799.556	637.596
405.380	27.136	799.332	638.493
406.394	27.311	799.449	639.145
407.409	27.524	798.962	639.445
408.423	27.359	798.122	638.138
409.438	27.118	797.582	636.805
410.453	27.391	796.870	637.136
411.467	27.580	796.561	637.494
412.482	27.569	795.975	636.930
413.496	27.314	795.804	635.845
414.511	27.434	795.527	635.986
415.526	27.403	795.167	635.536
416.540	27.494	794.539	635.294
417.555	27.371	794.278	634.600
418.569	27.091	793.161	632.676
419.584	27.116	792.992	632.574
420.599	27.199	792.294	632.250
421.613	105.243	1274.991	1430.407
422.628	90.406	1345.305	1430.512
