DTS Sentinel unit serial number:	SN413079Multiplexer serial number:	ORYXHardware model number:	OX4-SRSoftware version number:	ORYX F/W v4.00 Oryx Data Collector v3.7.2.0data status	okinstallation	princeton_trtdifferential loss correction	single-endedforward channel	channel 3reverse channel	N/Adate	2019/09/12time	02:18:11forward acquisition time	60.00reverse acquisition time	0.00gamma	496.2192k internal	0.2321k external	0.2321temperature offset calibration	1.0060default loss term (dB/km)	0.3790temperature slope calibration	1.0000multiplexer offset coefficient	1.0000multiplexer slope coefficient	1.0000fibre end	0.00T internal ref (°C)	32.62T ext. ref 1 (°C)	2.05T ext. ref 2 (°C)	26.04length (m)	temperature (°C)	Stokes	anti-Stokes-747.200	64.486	-0.221	-0.225
-746.185	88.527	0.084	0.095
-745.171	-127.149	-0.111	-0.016
-744.156	-77.792	-0.371	-0.129
-743.142	-4.233	0.107	0.075
-742.127	-14.472	-0.353	0.229
-741.112	-17.176	0.331	0.211
-740.098	-200.000	0.023	0.176
-739.083	222.279	0.196	0.318
-738.069	800.000	-0.068	0.216
-737.054	248.024	0.114	0.194
-736.039	40.797	-0.057	0.052
-735.025	-132.146	0.127	0.017
-734.010	-87.085	-0.035	0.011
-732.996	260.673	-0.038	-0.066
-731.981	-8.561	-0.210	-0.142
-730.966	-99.003	-0.359	-0.092
-729.952	-99.667	-0.202	0.051
-728.937	800.000	0.050	-0.151
-727.923	-40.767	0.204	0.107
-726.908	-119.489	0.252	0.044
-725.894	-76.804	0.154	0.054
-724.879	800.000	0.085	0.282
-723.864	10.700	-0.181	-0.139
-722.850	248.071	0.052	-0.089
-721.835	-73.839	-0.116	0.042
-720.821	-72.605	0.423	0.158
-719.806	-200.000	-0.007	-0.092
-718.791	105.704	0.106	-0.127
-717.777	-200.000	-0.030	-0.150
-716.762	-65.950	-0.156	-0.063
-715.748	-163.530	-0.108	0.005
-714.733	582.312	-0.017	-0.043
-713.718	178.117	-0.090	-0.133
-712.704	287.720	-0.130	0.237
-711.689	-23.371	0.176	-0.107
-710.675	800.000	-0.049	-0.189
-709.660	-4.121	0.101	-0.070
-708.645	-110.622	-0.310	0.065
-707.631	125.221	0.227	-0.289
-706.616	204.216	-0.172	0.268
-705.602	23.844	-0.100	-0.083
-704.587	509.145	0.080	-0.187
-703.572	-25.149	-0.259	-0.155
-702.558	99.807	-0.221	0.258
-701.543	4.886	0.214	-0.159
-700.529	-85.809	0.192	0.060
-699.514	499.066	0.105	0.245
-698.499	46.263	-0.076	-0.071
-697.485	-9.732	-0.161	-0.108
-696.470	145.678	-0.226	-0.306
-695.456	-152.348	-0.296	0.022
-694.441	-82.955	0.297	-0.097
-693.426	126.571	-0.224	-0.286
-692.412	-200.000	-0.030	-0.137
-691.397	346.909	-0.069	-0.138
-690.383	-200.000	0.018	-0.097
-689.368	66.032	-0.205	-0.210
-688.354	-200.000	0.044	-0.197
-687.339	220.312	-0.187	-0.303
-686.324	80.102	-0.133	-0.145
-685.310	-181.668	-0.136	0.003
-684.295	306.862	0.104	0.196
-683.281	-200.000	-0.095	0.481
-682.266	-124.683	-0.303	0.047
-681.251	-6.565	-0.210	-0.144
-680.237	-161.140	0.285	0.015
-679.222	-7.922	0.257	-0.175
-678.208	332.438	-0.070	0.137
-677.193	30.380	0.195	0.168
-676.178	800.000	-0.018	0.055
-675.164	88.547	0.201	-0.226
-674.149	-54.082	-0.218	0.100
-673.135	197.598	-0.158	-0.243
-672.120	-200.000	-0.008	-0.106
-671.105	-199.527	0.089	-0.000
-670.091	118.582	-0.138	0.172
-669.076	-59.018	0.244	0.106
-668.062	-96.735	-0.128	-0.034
-667.047	-109.847	0.303	0.064
-666.032	-39.828	-0.244	0.129
-665.018	34.558	-0.122	0.107
-664.003	800.000	0.103	0.334
-662.989	38.094	-0.261	0.234
-661.974	358.643	0.060	0.122
-660.959	-114.320	0.254	-0.049
-659.945	-200.000	-0.073	-0.424
-658.930	-157.895	0.269	-0.016
-657.916	527.604	0.116	-0.275
-656.901	-105.467	0.208	-0.048
-655.886	210.821	-0.126	-0.199
-654.872	400.719	-0.106	-0.225
-653.857	-200.000	0.050	0.286
-652.843	128.797	-0.086	0.110
-651.828	-5.457	0.330	-0.228
-650.814	-130.149	-0.184	-0.025
-649.799	-188.957	-0.171	0.002
-648.784	379.604	-0.054	0.111
-647.770	-200.000	-0.015	-0.206
-646.755	-154.174	-0.046	-0.003
-645.741	800.000	-0.142	-0.513
-644.726	548.527	-0.070	-0.170
-643.711	-16.700	0.182	0.116
-642.697	378.819	0.073	0.150
-641.682	518.206	-0.063	0.149
-640.668	-68.962	-0.112	-0.044
-639.653	74.935	-0.157	0.167
-638.638	-159.603	-0.075	-0.004
-637.624	262.592	-0.076	0.132
-636.609	-16.300	0.129	-0.083
-635.595	471.206	0.047	-0.106
-634.580	141.401	0.017	0.023
-633.565	-38.651	0.187	-0.099
-632.551	-18.059	-0.171	0.108
-631.536	-32.954	-0.255	0.143
-630.522	-58.275	0.287	-0.126
-629.507	59.785	-0.112	0.111
-628.492	-200.000	-0.044	-0.244
-627.478	70.891	0.039	-0.041
-626.463	800.000	0.046	0.171
-625.449	-79.306	-0.184	0.063
-624.434	800.000	0.074	0.302
-623.419	-61.650	-0.171	-0.072
-622.405	-24.197	0.234	-0.141
-621.390	-147.915	-0.301	-0.025
-620.376	246.031	-0.098	0.167
-619.361	272.493	-0.257	0.456
-618.346	57.542	-0.232	-0.228
-617.332	274.689	-0.103	-0.184
-616.317	800.000	-0.090	-0.334
-615.303	-200.000	0.042	0.327
-614.288	-29.574	0.314	0.181
-613.273	73.417	0.167	0.176
-612.259	800.000	-0.078	0.232
-611.244	-149.319	-0.161	-0.013
-610.230	-200.000	-0.015	-0.099
-609.215	254.432	0.053	-0.092
-608.201	64.996	-0.095	0.096
-607.186	-65.655	0.090	-0.036
-606.171	64.275	-0.060	0.060
-605.157	86.081	-0.063	-0.069
-604.142	800.000	-0.057	0.170
-603.128	-200.000	0.031	-0.186
-602.113	-58.807	-0.325	-0.141
-601.098	84.309	-0.166	-0.183
-600.084	192.267	0.137	-0.208
-599.069	800.000	0.089	-0.363
-598.055	312.118	-0.048	0.091
-597.040	-103.599	0.150	-0.035
-596.025	151.888	-0.225	-0.309
-595.011	47.762	0.318	-0.298
-593.996	800.000	0.012	0.042
-592.982	53.392	-0.106	0.102
-591.967	-44.826	-0.057	0.029
-590.952	800.000	-0.106	-0.372
-589.938	-200.000	-0.008	-0.158
-588.923	-200.000	0.013	-0.169
-587.909	-200.000	0.015	-0.243
-586.894	20.554	-0.117	-0.095
-585.879	-93.587	0.139	-0.039
-584.865	-200.000	0.054	0.249
-583.850	800.000	0.086	-0.252
-582.836	-200.000	-0.017	-0.342
-581.821	161.657	0.127	0.178
-580.806	47.950	-0.118	-0.111
-579.792	30.471	0.177	-0.152
-578.777	-114.146	-0.346	0.067
-577.763	60.347	-0.121	0.120
-576.748	-32.083	0.110	-0.062
-575.733	-200.000	0.014	0.170
-574.719	800.000	-0.072	0.235
-573.704	-66.280	-0.186	-0.074
-572.690	-126.515	-0.369	-0.055
-571.675	800.000	-0.070	-0.299
-570.661	-200.000	-0.102	-0.592
-569.646	230.080	0.053	0.086
-568.631	58.095	0.124	0.122
-567.617	-128.405	-0.158	-0.023
-566.602	-171.701	0.422	0.014
-565.588	-42.514	-0.469	0.240
-564.573	-81.507	0.217	0.072
-563.558	-200.000	0.010	0.073
-562.544	-194.290	-0.073	0.001
-561.529	-96.746	0.047	0.012
-560.515	-200.000	-0.065	-0.298
-559.500	-200.000	0.059	-0.402
-558.485	503.260	0.074	-0.171
-557.471	-48.468	-0.259	0.125
-556.456	-124.813	0.161	0.025
-555.442	-41.426	-0.127	-0.066
-554.427	235.310	0.071	-0.118
-553.412	-143.995	0.161	-0.015
-552.398	-200.000	0.035	-0.216
-551.383	667.757	-0.085	-0.222
-550.369	-90.602	-0.087	0.025
-549.354	358.206	-0.007	-0.014
-548.339	-200.000	0.012	-0.078
-547.325	245.005	0.068	0.115
-546.310	-11.567	-0.135	-0.089
-545.296	-200.000	0.036	0.283
-544.281	344.106	-0.090	0.178
-543.266	-200.000	-0.050	0.286
-542.252	-200.000	0.036	-0.192
-541.237	33.434	-0.163	-0.142
-540.223	-200.000	-0.015	-0.157
-539.208	366.789	-0.031	0.063
-538.193	210.477	0.014	-0.022
-537.179	-200.000	-0.013	-0.259
-536.164	163.176	-0.079	-0.111
-535.150	178.838	-0.224	-0.329
-534.135	-101.513	-0.315	0.077
-533.121	-119.894	-0.092	0.016
-532.106	-200.000	-0.010	0.171
-531.091	-79.558	0.064	0.022
-530.077	-200.000	-0.043	-0.204
-529.062	-200.000	0.001	-0.023
-528.048	800.000	0.018	-0.050
-527.033	101.923	-0.083	-0.097
-526.018	-200.000	-0.058	0.375
-525.004	429.209	-0.094	-0.203
-523.989	-120.134	-0.273	0.047
-522.975	-124.131	-0.105	-0.016
-521.960	-78.664	-0.187	-0.064
-520.945	55.323	0.169	0.164
-519.931	800.000	0.032	0.088
-518.916	-171.923	-0.219	-0.007
-517.902	-200.000	-0.039	-0.551
-516.887	292.913	0.088	0.160
-515.872	-10.898	-0.310	-0.205
-514.858	-81.949	-0.251	0.082
-513.843	198.377	0.277	0.424
-512.829	74.850	-0.221	-0.233
-511.814	800.000	0.018	0.079
-510.799	-34.144	0.115	0.063
-509.785	-200.000	-0.036	0.181
-508.770	194.705	0.095	0.144
-507.756	-26.727	-0.028	-0.016
-506.741	-63.483	0.264	0.108
-505.726	-105.537	0.204	0.046
-504.712	103.594	-0.032	0.038
-503.697	-59.298	0.072	0.031
-502.683	93.709	0.250	-0.283
-501.668	-45.815	-0.246	-0.121
-500.653	-124.089	0.286	0.045
-499.639	108.836	-0.110	-0.132
-498.624	123.710	-0.115	-0.145
-497.610	-49.625	0.292	0.139
-496.595	-119.174	0.478	-0.084
-495.581	565.398	0.137	0.332
-494.566	734.715	-0.053	0.141
-493.551	-41.772	-0.212	0.109
-492.537	25.909	-0.217	-0.181
-491.522	-156.678	0.141	0.009
-490.508	-108.588	0.162	-0.035
-489.493	-200.000	-0.044	-0.216
-488.478	-200.000	0.034	-0.167
-487.464	-25.537	0.316	-0.187
-486.449	-39.030	-0.051	-0.027
-485.435	132.148	-0.119	0.154
-484.420	-200.000	0.022	0.242
-483.405	-200.000	0.041	0.200
-482.391	124.989	-0.238	0.300
-481.376	-16.838	-0.113	0.072
-480.362	-200.000	0.159	-0.001
-479.347	-200.000	0.077	0.387
-478.332	-157.770	0.203	-0.012
-477.318	-67.618	0.036	0.014
-476.303	619.345	0.059	0.149
-475.289	215.398	0.115	-0.183
-474.274	20.987	-0.117	0.095
-473.259	800.000	-0.021	-0.060
-472.245	18.477	0.467	0.373
-471.230	85.375	0.176	0.193
-470.216	-1.387	0.297	0.210
-469.201	-13.575	-0.142	0.092
-468.186	279.210	-0.029	-0.051
-467.172	800.000	-0.029	0.107
-466.157	176.730	0.029	0.043
-465.143	-71.689	0.133	-0.050
-464.128	800.000	-0.017	0.073
-463.113	36.669	-0.148	-0.131
-462.099	-185.373	0.231	0.004
-461.084	66.728	0.156	-0.159
-460.070	-52.248	0.124	0.057
-459.055	-132.991	0.176	-0.022
-458.040	-26.890	0.154	0.090
-457.026	-171.269	-0.438	-0.015
-456.011	800.000	-0.008	-0.031
-454.997	434.607	0.024	-0.053
-453.982	-200.000	-0.028	-0.138
-452.968	237.040	0.109	0.180
-451.953	-200.000	-0.028	-0.288
-450.938	484.067	0.039	0.089
-449.924	-56.729	0.337	-0.149
-448.909	-33.238	0.161	0.089
-447.895	-116.512	-0.352	0.065
-446.880	800.000	0.053	-0.149
-445.865	-200.000	-0.026	-0.314
-444.851	-162.658	0.212	-0.010
-443.836	-200.000	0.013	0.147
-442.822	-200.000	-0.002	-0.353
-441.807	637.956	-0.081	-0.206
-440.792	-200.000	0.028	0.127
-439.778	-47.377	-0.115	-0.056
-438.763	137.901	0.193	-0.253
-437.749	-200.000	-0.025	0.231
-436.734	-200.000	0.014	-0.233
-435.719	-200.000	-0.014	-0.082
-434.705	-141.144	0.316	0.032
-433.690	-200.000	-0.031	0.215
-432.676	558.468	-0.212	0.510
-431.661	79.977	-0.249	0.267
-430.646	-200.000	-0.023	0.160
-429.632	18.725	0.020	0.016
-428.617	-71.570	-0.405	-0.151
-427.603	-113.144	-0.080	0.016
-426.588	-200.000	-0.032	0.158
-425.573	269.156	0.134	0.235
-424.559	-200.000	-0.030	0.176
-423.544	-200.000	-0.010	0.064
-422.530	800.000	0.055	-0.230
-421.515	-66.908	0.261	0.103
-420.500	89.972	-0.170	0.190
-419.486	53.507	-0.244	0.233
-418.471	-200.000	-0.010	0.075
-417.457	-72.137	-0.276	0.102
-416.442	-147.384	0.140	0.012
-415.428	7.120	-0.154	-0.115
-414.413	-135.025	-0.125	0.015
-413.398	538.588	-0.055	-0.131
-412.384	-38.043	0.130	-0.069
-411.369	-44.129	0.168	0.084
-410.355	-109.203	-0.247	0.052
-409.340	-200.000	-0.006	0.362
-408.325	-105.375	0.509	-0.115
-407.311	768.004	-0.068	0.184
-406.296	330.342	-0.081	-0.155
-405.282	164.143	0.089	0.126
-404.267	-55.481	-0.193	0.086
-403.252	110.201	-0.194	-0.232
-402.238	189.834	0.013	-0.020
-401.223	552.244	-0.008	-0.020
-400.209	172.867	-0.084	0.121
-399.194	41.021	-0.164	-0.148
-398.179	-6.533	-0.019	0.013
-397.165	800.000	0.077	-0.221
-396.150	62.129	-0.165	0.164
-395.136	-60.167	0.097	0.041
-394.121	-88.073	-0.133	0.040
-393.106	-129.743	-0.243	-0.033
-392.092	-200.000	-0.016	0.112
-391.077	-124.292	0.126	-0.020
-390.063	116.403	0.063	0.077
-389.048	656.093	0.092	0.234
-388.033	124.324	-0.279	-0.350
-387.019	243.923	0.127	0.212
-386.004	800.000	0.142	0.426
-384.990	-122.680	0.296	0.048
-383.975	37.751	-0.138	-0.122
-382.960	800.000	0.027	-0.113
-381.946	-132.296	0.086	0.011
-380.931	-158.125	-0.129	0.008
-379.917	-200.000	0.037	-0.293
-378.902	800.000	0.087	0.241
-377.888	-50.235	-0.086	0.040
-376.873	-155.739	-0.118	0.008
-375.858	-107.869	0.333	-0.072
-374.844	-200.000	-0.013	0.276
-373.829	-63.317	-0.332	0.136
-372.815	-123.651	-0.306	-0.048
-371.800	-108.984	-0.243	0.052
-370.785	-200.000	-0.003	-0.081
-369.771	-200.000	-0.033	-0.269
-368.756	197.096	-0.082	-0.125
-367.742	-200.000	0.047	0.225
-366.727	-80.069	-0.125	0.042
-365.712	-31.165	0.241	0.135
-364.698	83.554	0.154	0.167
-363.683	84.370	-0.065	-0.071
-362.669	155.579	-0.176	-0.242
-361.654	6.655	-0.104	-0.077
-360.639	-131.418	-0.292	-0.038
-359.625	-108.944	0.086	-0.018
-358.610	69.428	-0.190	0.195
-357.596	-0.712	-0.116	-0.082
-356.581	-118.985	-0.106	-0.019
-355.566	-200.000	-0.070	0.464
-354.552	5.086	0.126	0.092
-353.537	-24.811	0.250	0.148
-352.523	97.712	-0.058	-0.066
-351.508	-151.109	-0.278	0.021
-350.493	-200.000	0.049	0.230
-349.479	742.342	0.103	-0.276
-348.464	-188.107	0.138	0.002
-347.450	536.811	0.099	-0.235
-346.435	209.430	0.158	0.247
-345.420	138.691	-0.193	0.253
-344.406	-200.000	-0.022	0.290
-343.391	20.891	0.030	-0.024
-342.377	-200.000	0.002	-0.193
-341.362	-100.363	0.134	-0.033
-340.348	-200.000	0.018	0.131
-339.333	-160.109	-0.060	-0.003
-338.318	-44.642	-0.054	0.027
-337.304	-156.176	0.185	-0.012
-336.289	-91.082	-0.248	0.071
-335.275	-29.558	0.310	0.176
-334.260	-78.921	0.050	-0.017
-333.245	361.851	0.169	0.338
-332.231	-98.950	-0.433	0.109
-331.216	-200.000	-0.010	-0.114
-330.202	394.345	0.020	0.042
-329.187	40.479	0.108	0.097
-328.172	-200.000	-0.019	0.090
-327.158	267.749	-0.264	0.460
-326.143	-125.650	-0.067	-0.010
-325.129	-32.730	-0.151	0.083
-324.114	296.408	0.019	0.034
-323.099	-200.000	0.030	0.273
-322.085	-116.377	0.349	0.064
-321.070	-200.000	0.005	0.057
-320.056	-12.760	0.080	0.052
-319.041	272.819	0.125	-0.220
-318.026	-200.000	-0.005	0.130
-317.012	166.889	-0.137	0.194
-315.997	78.043	0.222	-0.236
-314.983	800.000	0.029	-0.120
-313.968	800.000	-0.027	-0.079
-312.953	62.337	-0.135	0.134
-311.939	659.637	-0.034	0.088
-310.924	-200.000	-0.035	0.257
-309.910	-60.309	0.026	0.011
-308.895	-123.337	-0.312	0.049
-307.880	236.355	-0.073	-0.121
-306.866	-200.000	-0.023	-0.283
-305.851	382.268	0.043	-0.088
-304.837	-114.598	-0.115	0.022
-303.822	-200.000	0.012	-0.079
-302.807	-122.785	0.411	0.066
-301.793	348.665	0.191	-0.375
-300.778	-34.560	0.225	-0.122
-299.764	-21.739	-0.016	-0.010
-298.749	-186.642	0.275	-0.004
-297.735	800.000	-0.047	-0.177
-296.720	-200.000	0.017	0.240
-295.705	800.000	0.053	0.217
-294.691	-200.000	0.056	-0.404
-293.676	-5.261	-0.212	-0.145
-292.662	-200.000	0.026	-0.136
-291.647	361.438	-0.109	-0.217
-290.632	-200.000	0.033	0.189
-289.618	90.710	-0.111	0.123
-288.603	-200.000	-0.050	-0.321
-287.589	-141.067	-0.201	0.020
-286.574	287.341	-0.102	0.183
-285.559	-81.639	0.085	-0.028
-284.545	693.025	-0.096	0.249
-283.530	-200.000	0.011	-0.097
-282.516	20.214	0.503	0.403
-281.501	-200.000	0.071	-0.342
-280.486	209.853	0.169	-0.263
-279.472	293.700	0.072	-0.130
-278.457	64.115	-0.432	-0.432
-277.443	128.797	0.098	-0.124
-276.428	90.924	0.120	-0.133
-275.413	-132.165	0.311	-0.040
-274.399	-169.656	-0.214	0.008
-273.384	162.579	-0.063	0.087
-272.370	-162.691	0.076	-0.004
-271.355	800.000	-0.050	0.148
-270.340	800.000	-0.043	0.124
-269.326	-99.425	0.139	0.035
-268.311	3.741	0.237	-0.172
-267.297	50.934	0.045	0.042
-266.282	-102.718	-0.334	0.079
-265.267	39.853	0.019	0.017
-264.253	-200.000	0.004	-0.074
-263.238	-49.068	-0.238	0.113
-262.224	44.311	-0.071	-0.065
-261.209	231.847	-0.219	-0.356
-260.195	490.375	-0.047	0.107
-259.180	-83.049	-0.184	-0.059
-258.165	-200.000	0.007	0.091
-257.151	62.330	-0.265	-0.262
-256.136	-200.000	-0.050	-0.238
-255.122	-200.000	-0.025	-0.200
-254.107	126.455	-0.084	0.106
-253.092	505.025	0.050	-0.115
-252.078	-28.876	-0.169	-0.096
-251.063	-155.166	0.282	-0.018
-250.049	-200.000	0.014	0.311
-249.034	106.912	0.097	0.114
-248.019	-184.852	0.321	-0.005
-247.005	-84.633	-0.367	-0.115
-245.990	-52.443	0.109	0.050
-244.976	800.000	0.037	0.129
-243.961	282.883	0.033	-0.058
-242.946	785.735	0.121	0.329
-241.932	-158.358	-0.049	-0.003
-240.917	-119.411	0.226	0.039
-239.903	-50.180	0.191	0.090
-238.888	265.277	0.125	-0.216
-237.873	265.996	-0.052	-0.090
-236.859	-99.884	0.248	-0.061
-235.844	-24.860	0.133	0.078
-234.830	34.425	0.039	0.033
-233.815	-65.399	-0.424	0.169
-232.800	5.435	-0.086	0.063
-231.786	-200.000	0.028	0.288
-230.771	264.647	0.088	0.151
-229.757	-69.167	0.328	0.125
-228.742	-19.393	0.261	0.160
-227.727	-200.000	0.004	0.038
-226.713	-29.084	0.113	-0.064
-225.698	-144.422	0.270	0.025
-224.684	-200.000	0.001	0.090
-223.669	-135.352	0.470	0.056
-222.655	-121.870	0.126	-0.021
-221.640	-82.866	-0.263	-0.084
-220.625	800.000	-0.075	-0.235
-219.611	73.918	-0.103	0.107
-218.596	-50.651	-0.132	-0.062
-217.582	-200.000	-0.053	0.301
-216.567	-131.696	0.209	-0.027
-215.552	-58.584	0.152	-0.065
-214.538	-43.388	-0.138	0.069
-213.523	-103.594	0.135	-0.031
-212.509	-79.713	0.078	-0.026
-211.494	-3.909	0.104	0.071
-210.479	205.659	0.103	0.159
-209.465	99.149	0.156	-0.178
-208.450	61.615	0.206	-0.203
-207.436	531.404	-0.113	-0.265
-206.421	800.000	0.030	-0.101
-205.406	-40.461	-0.174	0.089
-204.392	-150.848	0.198	-0.015
-203.377	-0.919	0.390	0.273
-202.363	-42.004	0.086	0.044
-201.348	-200.000	0.001	-0.393
-200.333	82.610	-0.109	0.117
-199.319	73.324	-0.075	0.078
-198.304	32.213	-0.273	-0.233
-197.290	-200.000	-0.010	0.178
-196.275	353.262	0.076	-0.149
-195.260	101.686	0.356	-0.411
-194.246	-169.712	-0.261	0.009
-193.231	-51.729	0.137	-0.063
-192.217	11.535	-0.179	0.136
-191.202	-84.633	-0.393	-0.123
-190.187	-200.000	-0.013	-0.167
-189.173	-137.912	-0.165	0.018
-188.158	27.932	-0.070	0.058
-187.144	451.170	0.047	0.102
-186.129	-200.000	-0.001	-0.208
-185.114	143.186	-0.156	0.205
-184.100	6.532	0.257	-0.189
-183.085	-200.000	0.007	-0.194
-182.071	-200.000	-0.009	0.110
-181.056	392.795	0.227	-0.467
-180.042	-144.313	0.127	0.012
-179.027	-27.298	0.206	-0.119
-178.012	3.713	0.193	0.139
-176.998	-175.097	0.178	-0.005
-175.983	-117.807	0.265	-0.047
-174.969	-141.857	0.173	-0.017
-173.954	137.752	-0.082	0.106
-172.939	284.296	0.096	0.170
-171.925	-45.391	0.316	-0.155
-170.910	150.390	0.262	0.351
-169.896	387.832	0.202	0.413
-168.881	-59.844	0.085	0.036
-167.866	-68.438	-0.046	0.018
-166.852	-122.416	-0.444	0.072
-165.837	-200.000	0.010	0.141
-164.823	39.451	-0.352	-0.311
-163.808	19.556	-0.069	0.055
-162.793	509.950	-0.065	-0.150
-161.779	-123.396	0.263	-0.041
-160.764	-200.000	0.065	-0.344
-159.750	-200.000	-0.069	-0.384
-158.735	-63.605	0.045	0.018
-157.720	-47.059	-0.212	0.102
-156.706	-82.615	0.212	0.068
-155.691	115.439	-0.057	0.069
-154.677	800.000	0.047	0.165
-153.662	-46.707	-0.156	0.075
-152.647	-200.000	0.021	0.281
-151.633	800.000	0.037	-0.139
-150.618	800.000	-0.040	-0.109
-149.604	45.601	-0.064	0.059
-148.589	48.039	0.137	0.126
-147.574	-20.961	-0.326	-0.197
-146.560	-200.000	0.011	-0.137
-145.545	-0.183	0.334	-0.234
-144.531	-88.072	0.326	0.096
-143.516	-108.585	0.379	-0.080
-142.502	800.000	-0.096	0.264
-141.487	-94.105	-0.154	-0.042
-140.472	-200.000	0.003	0.164
-139.458	284.340	0.019	-0.034
-138.443	84.975	-0.085	-0.092
-137.429	-9.076	-0.333	0.220
-136.414	766.293	0.042	0.111
-135.399	153.948	0.210	-0.284
-134.385	-200.000	-0.031	-0.161
-133.370	-200.000	0.051	0.390
-132.356	241.645	0.115	0.189
-131.341	-200.000	0.014	-0.079
-130.326	-168.267	0.424	-0.016
-129.312	136.877	-0.253	-0.326
-128.297	-153.527	0.278	-0.019
-127.283	-24.554	0.292	-0.172
-126.268	-122.200	-0.130	0.021
-125.253	-108.902	-0.431	-0.091
-124.239	-165.274	0.164	-0.007
-123.224	182.698	0.059	0.085
-122.210	-109.746	-0.172	-0.036
-121.195	102.282	-0.130	-0.150
-120.180	460.526	-0.063	0.138
-119.166	-122.587	-0.076	-0.012
-118.151	41.443	0.204	-0.182
-117.137	-22.107	0.259	0.155
-116.122	800.000	0.100	0.399
-115.107	-64.845	-0.199	-0.079
-114.093	-32.549	0.178	-0.098
-113.078	800.000	0.090	0.292
-112.064	-179.173	0.196	-0.004
-111.049	611.314	0.065	0.160
-110.034	-99.504	-0.205	-0.051
-109.020	499.102	-0.066	0.151
-108.005	91.194	0.138	-0.153
-106.991	-37.861	-0.106	0.056
-105.976	102.784	-0.085	-0.098
-104.962	-135.963	-0.134	0.016
-103.947	448.886	0.054	-0.116
-102.932	118.541	0.144	0.176
-101.918	123.608	-0.183	0.226
-100.903	52.524	0.300	-0.282
-99.889	-174.284	0.057	0.002
-98.874	203.806	0.191	-0.291
-97.859	217.216	-0.346	-0.543
-96.845	-87.093	0.229	0.069
-95.830	800.000	-0.026	0.102
-94.816	341.589	-0.093	0.178
-93.801	82.976	0.209	0.224
-92.786	-100.052	-0.426	-0.105
-91.772	31.512	-0.254	0.215
-90.757	800.000	0.080	-0.226
-89.743	609.045	-0.087	0.215
-88.728	800.000	0.097	0.325
-87.713	800.000	0.030	0.112
-86.699	-70.766	0.224	-0.083
-85.684	220.499	-0.049	0.078
-84.670	433.310	0.137	0.294
-83.655	-200.000	-0.046	0.000
-82.640	122.975	-0.076	0.093
-81.626	86.515	0.168	-0.182
-80.611	-79.533	-0.045	-0.015
-79.597	-110.828	-0.181	0.037
-78.582	-38.574	-0.151	-0.078
-77.567	514.580	0.085	-0.195
-76.553	-95.093	0.428	0.114
-75.538	-200.000	-0.012	-0.325
-74.524	800.000	0.019	0.064
-73.509	-101.465	-0.382	0.092
-72.494	-200.000	-0.046	0.228
-71.480	-155.228	0.044	0.003
-70.465	-200.000	-0.069	-0.319
-69.451	545.188	0.068	-0.159
-68.436	180.188	-0.053	0.076
-67.422	800.000	-0.052	0.212
-66.407	73.527	-0.059	-0.060
-65.392	-86.640	0.401	-0.121
-64.378	227.821	0.099	0.159
-63.363	61.352	-0.158	0.154
-62.349	428.512	0.055	0.117
-61.334	86.187	-0.802	-0.869
-60.319	105.579	0.372	0.433
-59.305	274.759	-0.648	-1.129
-58.290	315.459	0.458	0.849
-57.276	800.000	0.548	1.726
-56.261	-200.000	95.405	582.694
-55.246	566.552	1368.316	3266.747
-54.232	162.584	2540.898	3507.224
-53.217	111.994	2157.757	2564.471
-52.203	43.019	1705.362	1530.119
-51.188	35.805	1519.100	1313.900
-50.173	33.432	1492.706	1275.065
-49.159	52.238	1541.226	1445.551
-48.144	54.241	1558.575	1475.471
-47.130	36.037	1518.863	1315.070
-46.115	32.858	1504.146	1280.744
-45.100	32.698	1501.097	1277.008
-44.086	32.729	1498.858	1275.267
-43.071	32.642	1497.276	1273.280
-42.057	32.539	1495.818	1271.298
-41.042	32.734	1493.936	1270.957
-40.027	32.638	1492.581	1269.109
-39.013	32.536	1491.120	1267.128
-37.998	32.639	1489.688	1266.558
-36.984	32.679	1488.868	1266.075
-35.969	32.691	1487.337	1264.809
-34.954	32.687	1486.205	1263.766
-33.940	32.631	1484.742	1262.097
-32.925	32.671	1483.376	1261.156
-31.911	32.689	1482.060	1260.107
-30.896	32.692	1480.554	1258.795
-29.881	32.746	1479.397	1258.122
-28.867	32.725	1478.049	1256.784
-27.852	32.628	1476.501	1254.772
-26.838	32.682	1475.111	1253.903
-25.823	32.707	1473.086	1252.298
-24.809	32.736	1471.226	1250.860
-23.794	32.638	1470.062	1249.166
-22.779	32.666	1469.192	1248.565
-21.765	32.713	1467.788	1247.636
-20.750	32.731	1466.513	1246.622
-19.736	32.580	1466.295	1245.388
-18.721	32.597	1464.831	1244.205
-17.706	32.583	1463.633	1243.048
-16.692	32.632	1462.524	1242.379
-15.677	32.594	1461.544	1241.246
-14.663	32.552	1460.630	1240.144
-13.648	32.519	1460.154	1239.474
-12.633	32.600	1458.683	1238.706
-11.619	32.569	1457.885	1237.780
-10.604	32.603	1456.780	1237.012
-9.590	32.525	1456.207	1235.964
-8.575	32.461	1455.544	1234.932
-7.560	32.638	1454.532	1235.187
-6.546	32.584	1453.723	1234.098
-5.531	32.567	1452.607	1232.991
-4.517	32.634	1451.488	1232.429
-3.502	32.639	1450.539	1231.610
-2.487	32.651	1449.472	1230.733
-1.473	32.508	1448.862	1229.232
-0.458	32.621	1446.944	1228.293
0.556	32.874	1437.673	1216.598
1.571	29.813	1413.133	1176.297
2.586	26.700	1360.336	1113.153
3.600	25.360	1283.167	1042.148
4.615	23.978	1234.743	995.005
5.629	20.441	1176.673	929.240
6.644	10.780	1090.009	812.621
7.659	3.115	1048.047	744.288
8.673	2.277	1042.562	736.294
9.688	2.006	1039.003	732.414
10.702	2.010	1037.040	730.983
11.717	1.907	1035.443	729.304
12.731	5.618	1039.695	750.031
13.746	15.508	1053.667	807.837
14.761	22.911	1063.514	851.125
15.775	25.011	1065.227	862.543
16.790	25.150	1065.130	863.058
17.804	25.108	1064.304	862.110
18.819	24.932	1063.537	860.567
19.834	25.009	1062.704	860.184
20.848	25.189	1061.878	860.302
21.863	25.240	1061.783	860.395
22.877	25.255	1061.425	860.100
23.892	25.195	1061.030	859.415
24.907	25.071	1060.172	858.052
25.921	25.177	1059.452	857.900
26.936	25.271	1058.882	857.813
27.950	25.248	1057.348	856.387
28.965	25.037	1056.470	854.590
29.980	24.900	1054.936	852.624
30.994	25.095	1053.366	852.207
32.009	25.201	1052.849	852.216
33.023	25.235	1052.445	851.974
34.038	24.977	1051.386	849.817
35.053	24.888	1050.757	848.812
36.067	25.214	1050.042	849.703
37.082	25.178	1049.167	848.750
38.096	25.267	1048.204	848.316
39.111	25.338	1047.922	848.350
40.126	25.590	1046.683	848.458
41.140	25.414	1045.453	846.560
42.155	25.141	1043.973	844.001
43.169	24.803	1042.968	841.526
44.184	24.725	1042.003	840.306
45.199	24.946	1040.544	840.091
46.213	24.776	1040.054	838.824
47.228	24.858	1038.911	838.213
48.242	25.087	1038.530	838.901
49.257	25.036	1038.131	838.266
50.271	25.223	1036.828	838.013
51.286	25.346	1036.431	838.194
52.301	25.317	1035.963	837.604
53.315	25.327	1035.033	836.824
54.330	25.186	1034.229	835.445
55.344	25.208	1033.178	834.625
56.359	25.186	1032.298	833.738
57.374	25.173	1031.702	833.122
58.388	25.073	1030.661	831.742
59.403	25.022	1029.838	830.772
60.417	24.981	1029.403	830.154
61.432	24.897	1028.174	828.703
62.447	24.771	1027.769	827.720
63.461	24.810	1027.876	827.914
64.476	24.954	1026.986	827.788
65.490	25.094	1025.605	827.247
66.505	24.861	1024.818	825.465
67.520	24.886	1023.817	824.699
68.534	24.947	1023.422	824.589
69.549	24.955	1022.246	823.605
70.563	24.444	1021.537	820.612
71.578	24.351	1020.621	819.381
72.593	24.457	1019.977	819.277
73.607	24.338	1018.289	817.301
74.622	24.415	1017.400	816.868
75.636	24.638	1017.176	817.635
76.651	24.808	1016.026	817.416
77.666	24.608	1015.644	816.123
78.680	24.680	1014.383	815.368
79.695	24.544	1013.837	814.236
80.709	24.719	1013.337	814.558
81.724	24.911	1012.458	814.656
82.739	24.787	1011.411	813.176
83.753	24.813	1010.710	812.659
84.768	25.063	1010.228	813.336
85.782	25.418	1009.643	814.402
86.797	25.530	1009.284	814.546
87.812	25.500	1008.448	813.665
88.826	25.422	1007.074	812.130
89.841	25.223	1006.785	810.927
90.855	25.471	1005.945	811.296
91.870	25.627	1004.705	810.932
92.884	25.385	1004.198	809.357
93.899	25.373	1003.240	808.460
94.914	25.231	1002.239	806.946
95.928	25.284	1001.729	806.701
96.943	25.433	1000.836	806.580
97.957	25.169	999.412	804.174
98.972	24.908	998.450	802.164
99.987	24.677	997.090	799.964
101.001	24.812	996.744	800.221
102.016	25.021	996.356	800.772
103.030	25.168	995.708	800.837
104.045	25.063	994.443	799.278
105.060	25.023	992.706	797.635
106.074	24.790	991.976	795.942
107.089	24.761	992.050	795.803
108.103	25.137	991.294	796.796
109.118	25.233	990.046	796.148
110.133	24.890	988.953	793.680
111.147	24.906	988.016	792.928
112.162	24.719	986.875	791.113
113.176	24.424	985.941	788.991
114.191	24.655	985.317	789.442
115.206	24.913	983.998	789.452
116.220	24.616	982.955	787.241
117.235	24.359	982.402	785.595
118.249	24.489	981.940	785.728
119.264	24.500	981.176	785.096
120.279	24.317	980.157	783.408
121.293	24.455	979.131	783.122
122.308	24.529	978.523	782.892
123.322	24.574	977.928	782.545
124.337	24.669	976.761	781.955
125.352	24.396	975.644	779.800
126.366	24.107	973.652	776.879
127.381	23.770	972.523	774.441
128.395	24.312	972.442	776.667
129.410	24.747	972.569	778.593
130.424	25.143	970.931	778.936
131.439	25.178	969.857	778.159
132.454	24.976	969.391	776.840
133.468	25.083	968.939	776.872
134.483	25.034	967.642	775.550
135.497	25.144	967.056	775.488
136.512	25.211	966.682	775.409
137.527	25.374	965.549	775.136
138.541	25.397	964.813	774.574
139.556	25.331	964.299	773.808
140.570	25.336	963.428	773.064
141.585	25.432	962.330	772.525
142.600	25.560	961.644	772.457
143.614	25.343	961.069	770.996
144.629	25.400	960.289	770.545
145.643	25.440	960.051	770.456
146.658	25.635	958.265	769.791
147.673	25.426	956.924	767.754
148.687	25.321	956.261	766.704
149.702	25.214	955.244	765.364
150.716	25.114	954.244	764.068
151.731	25.151	953.043	763.199
152.746	25.174	952.418	762.726
153.760	25.395	952.153	763.388
154.775	25.427	951.595	763.011
155.789	25.661	949.986	762.643
156.804	25.493	949.284	761.302
157.819	25.348	948.645	760.108
158.833	25.498	947.994	760.154
159.848	25.642	946.957	759.862
160.862	25.539	946.601	759.073
161.877	25.376	945.785	757.665
162.892	25.362	945.018	756.924
163.906	25.591	943.380	756.507
164.921	25.420	942.714	755.190
165.935	25.277	941.752	753.753
166.950	25.499	940.522	753.633
167.964	25.464	939.870	752.897
168.979	25.527	938.834	752.261
169.994	25.342	937.977	750.738
171.008	25.278	936.817	749.475
172.023	25.414	936.194	749.476
173.037	25.546	935.771	749.621
174.052	25.442	934.392	748.017
175.067	25.317	933.204	746.482
176.081	25.150	932.438	745.108
177.096	25.311	931.547	744.997
178.110	25.362	931.277	744.931
179.125	25.029	930.353	742.743
180.140	24.785	929.108	740.674
181.154	24.832	928.473	740.296
182.169	24.824	928.101	739.900
183.183	25.169	928.126	741.281
184.198	25.558	927.435	742.272
185.213	25.393	926.791	741.010
186.227	25.398	925.912	740.259
187.242	25.325	925.875	739.867
188.256	25.547	924.931	739.961
189.271	25.419	924.044	738.657
190.286	25.483	923.382	738.325
191.300	25.496	922.089	737.282
192.315	24.835	921.322	733.893
193.329	24.162	919.259	729.429
194.344	23.758	918.396	727.027
195.359	24.295	918.632	729.348
196.373	25.188	919.169	733.360
197.388	25.407	919.391	734.371
198.402	25.297	918.210	732.911
199.417	25.270	917.752	732.371
200.432	25.437	916.955	732.353
201.446	25.271	916.576	731.309
202.461	25.076	915.329	729.453
203.475	24.886	915.352	728.633
204.490	24.552	913.624	725.836
205.504	23.437	911.273	719.384
206.519	23.883	911.735	721.495
207.534	24.817	911.339	724.904
208.548	24.919	911.135	725.089
209.563	25.359	910.974	726.680
210.577	25.157	910.517	725.433
211.592	24.995	909.868	724.195
212.607	25.454	909.426	725.635
213.621	25.459	909.445	725.606
214.636	25.445	908.131	724.438
215.650	25.600	907.404	724.416
216.665	25.340	907.373	723.279
217.680	25.278	907.283	722.897
218.694	25.524	906.352	723.081
219.709	25.301	905.163	721.171
220.723	25.013	903.887	718.937
221.738	25.081	903.994	719.229
222.753	25.284	903.654	719.709
223.767	25.336	902.467	718.909
224.782	25.502	901.750	718.940
225.796	25.595	901.539	719.079
226.811	25.737	900.492	718.748
227.826	25.285	899.573	716.146
228.840	24.666	897.974	712.344
229.855	24.375	897.501	710.746
230.869	24.656	897.250	711.604
231.884	24.359	896.020	709.383
232.899	24.509	895.416	709.439
233.913	25.145	895.974	712.344
234.928	25.430	895.450	713.000
235.942	25.112	894.781	711.139
236.957	25.279	894.047	711.157
237.972	24.867	893.328	708.891
238.986	24.838	892.440	708.010
240.001	24.965	892.182	708.244
241.015	24.976	891.717	707.853
242.030	25.037	890.665	707.199
243.045	25.231	890.360	707.658
244.059	25.264	890.026	707.459
245.074	25.517	889.843	708.248
246.088	25.574	888.701	707.503
247.103	25.012	888.027	704.693
248.117	25.049	887.317	704.212
249.132	25.675	887.132	706.461
250.147	25.879	887.618	707.589
251.161	26.143	886.524	707.689
252.176	26.281	886.003	707.751
253.190	26.192	885.837	707.206
254.205	26.297	885.175	707.026
255.220	26.491	884.799	707.422
256.234	26.358	884.008	706.206
257.249	26.257	883.672	705.482
258.263	26.189	882.614	704.311
259.278	26.300	881.913	704.121
260.293	26.219	881.680	703.555
261.307	26.243	881.352	703.326
262.322	26.291	880.447	702.727
263.336	26.103	879.974	701.559
264.351	25.541	878.829	698.401
265.366	24.571	876.352	692.613
266.380	24.212	875.350	690.367
267.395	24.932	876.539	694.037
268.409	25.951	875.907	697.419
269.424	25.848	875.392	696.550
270.439	25.925	874.907	696.397
271.453	26.124	874.203	696.544
272.468	26.162	873.688	696.218
273.482	26.183	873.423	696.027
274.497	26.301	872.956	696.049
275.512	26.166	871.866	694.599
276.526	25.620	870.724	691.528
277.541	25.726	870.340	691.570
278.555	26.119	870.232	692.931
279.570	25.949	869.303	691.478
280.585	25.870	868.559	690.524
281.599	25.781	868.278	689.898
282.614	25.908	868.228	690.282
283.628	25.568	866.427	687.491
284.643	25.127	865.928	685.348
285.657	25.445	866.140	686.673
286.672	25.432	865.240	685.847
287.687	24.998	863.830	683.015
288.701	25.184	864.364	684.085
289.716	25.770	863.614	685.663
290.730	25.387	862.634	683.367
291.745	25.273	862.337	682.639
292.760	25.101	861.174	681.003
293.774	24.939	860.902	680.113
294.789	25.922	861.091	683.936
295.803	26.591	861.134	686.446
296.818	26.505	860.863	685.844
297.833	26.679	860.206	685.916
298.847	26.419	858.832	683.777
299.862	25.977	858.059	681.434
300.876	26.222	857.722	682.029
301.891	26.574	857.346	682.999
302.906	26.585	856.874	682.603
303.920	26.206	855.952	680.381
304.935	26.205	854.934	679.509
305.949	26.468	855.267	680.703
306.964	26.606	854.773	680.768
307.979	26.355	853.936	679.100
308.993	26.237	853.357	678.133
310.008	26.681	852.933	679.403
311.022	26.740	852.634	679.327
312.037	26.676	852.306	678.767
313.052	26.471	851.454	677.259
314.066	26.400	850.316	676.029
315.081	25.522	849.031	671.667
316.095	24.778	847.620	667.717
317.110	25.402	848.256	670.489
318.125	26.378	848.032	673.891
319.139	25.913	847.047	671.318
320.154	24.687	845.327	665.336
321.168	24.099	844.761	662.643
322.183	24.887	844.806	665.552
323.197	25.806	845.416	669.392
324.212	26.217	844.789	670.360
325.227	26.308	844.651	670.530
326.241	26.364	844.448	670.518
327.256	26.417	843.386	669.810
328.270	26.178	842.887	668.472
329.285	26.047	841.954	667.185
330.300	25.897	841.611	666.302
331.314	25.759	840.210	664.623
332.329	25.905	839.958	664.904
333.343	26.215	839.884	665.929
334.358	26.493	839.431	666.538
335.373	26.449	838.919	665.911
336.387	26.681	838.006	665.977
337.402	26.613	838.299	665.900
338.416	26.973	837.448	666.489
339.431	26.764	837.183	665.452
340.446	26.853	836.877	665.477
341.460	27.198	836.074	666.043
342.475	27.111	835.357	665.096
343.489	26.831	834.939	663.678
344.504	26.679	834.704	662.877
345.519	27.079	834.193	663.874
346.533	27.347	833.356	664.127
347.548	27.310	833.272	663.869
348.562	27.353	832.899	663.667
349.577	27.414	831.857	663.004
350.592	27.226	831.637	662.084
351.606	27.159	830.892	661.188
352.621	27.194	830.820	661.199
353.635	27.060	830.253	660.202
354.650	26.958	829.984	659.559
355.665	26.626	828.665	657.248
356.679	25.674	826.710	652.193
357.694	25.536	826.659	651.594
358.708	26.094	826.847	653.706
359.723	26.164	825.980	653.216
360.738	26.373	825.668	653.665
361.752	26.794	825.836	655.265
362.767	26.952	825.435	655.458
363.781	27.242	825.132	656.206
364.796	27.428	825.104	656.798
365.810	27.694	824.146	656.935
366.825	27.646	824.207	656.754
367.840	27.704	823.878	656.640
368.854	27.454	823.181	655.129
369.869	27.108	822.435	653.233
370.883	26.943	821.659	651.967
371.898	27.079	821.032	651.900
372.913	27.127	820.024	651.213
373.927	27.077	819.517	650.574
374.942	26.999	819.493	650.219
375.956	27.251	818.394	650.190
376.971	27.317	818.274	650.272
377.986	27.333	817.733	649.842
379.000	27.563	817.391	650.332
380.015	27.612	816.618	649.834
381.029	27.442	816.086	648.748
382.044	27.430	815.491	648.176
383.059	27.548	815.120	648.242
384.073	27.614	814.634	648.034
385.088	27.504	814.128	647.183
386.102	27.517	813.502	646.676
387.117	27.488	812.866	646.009
388.132	27.187	812.414	644.524
389.146	27.167	811.618	643.766
390.161	26.466	810.754	640.544
391.175	26.637	810.369	640.786
392.190	27.213	810.593	642.946
393.205	27.333	809.826	642.705
394.219	26.138	808.345	637.255
395.234	24.600	805.704	629.701
396.248	23.692	804.791	625.734
397.263	24.987	805.577	630.856
398.278	26.658	807.345	638.076
399.292	27.249	807.051	639.866
400.307	26.910	806.562	638.231
401.321	26.815	806.064	637.443
402.336	26.798	805.915	637.211
403.350	27.206	805.245	638.058
404.365	27.623	805.450	639.627
405.380	28.107	804.839	640.779
406.394	28.228	804.931	641.221
407.409	28.304	804.621	641.184
408.423	28.214	804.122	640.414
409.438	28.173	803.449	639.679
410.453	28.219	803.260	639.632
411.467	28.288	802.904	639.534
412.482	28.207	802.141	638.588
413.496	28.216	801.630	638.152
414.511	28.161	801.747	637.999
415.526	28.363	800.997	638.050
416.540	28.298	800.487	637.359
417.555	28.388	800.116	637.322
418.569	27.969	799.338	635.189
419.584	27.857	798.689	634.228
420.599	28.086	798.117	634.514
421.613	111.465	1284.449	1459.288
422.628	96.141	1355.303	1459.393
