DTS Sentinel unit serial number:	SN413079Multiplexer serial number:	ORYXHardware model number:	OX4-SRSoftware version number:	ORYX F/W v4.00 Oryx Data Collector v3.7.2.0data status	okinstallation	princeton_trtdifferential loss correction	single-endedforward channel	channel 3reverse channel	N/Adate	2019/09/11time	11:02:11forward acquisition time	60.00reverse acquisition time	0.00gamma	496.2192k internal	0.2296k external	0.2296temperature offset calibration	0.9944default loss term (dB/km)	0.3790temperature slope calibration	1.0000multiplexer offset coefficient	1.0000multiplexer slope coefficient	1.0000fibre end	0.00T internal ref (°C)	37.25T ext. ref 1 (°C)	0.17T ext. ref 2 (°C)	34.70length (m)	temperature (°C)	Stokes	anti-Stokes-747.200	-47.086	-0.165	0.082
-746.185	99.468	-0.103	0.121
-745.171	-200.000	-0.021	0.097
-744.156	-54.599	-0.401	0.185
-743.142	-200.000	0.002	-0.073
-742.127	-200.000	-0.097	0.561
-741.112	800.000	-0.075	-0.236
-740.098	-102.092	0.375	0.092
-739.083	-155.293	0.197	-0.013
-738.069	-66.651	-0.111	-0.045
-737.054	230.952	0.156	0.260
-736.039	9.400	-0.198	-0.153
-735.025	261.338	0.060	0.106
-734.010	-86.631	-0.315	0.099
-732.996	-99.172	-0.275	-0.071
-731.981	800.000	0.132	-0.464
-730.966	-11.810	-0.321	0.215
-729.952	-173.307	-0.251	-0.008
-728.937	375.296	0.103	0.215
-727.923	-156.693	-0.144	0.009
-726.908	-139.420	-0.225	-0.025
-725.894	-97.458	0.063	-0.017
-724.879	-36.343	-0.094	0.052
-723.864	-33.194	0.035	-0.020
-722.850	58.067	0.358	0.358
-721.835	160.019	-0.091	-0.129
-720.821	426.127	-0.137	-0.301
-719.806	-97.526	0.222	0.059
-718.791	-66.684	-0.242	-0.098
-717.777	-94.751	0.174	-0.048
-716.762	-44.676	-0.270	-0.138
-715.748	-13.019	-0.161	-0.107
-714.733	199.560	-0.138	-0.217
-713.718	148.246	-0.079	0.108
-712.704	800.000	-0.106	-0.381
-711.689	-107.577	-0.245	0.055
-710.675	800.000	-0.071	0.264
-709.660	800.000	-0.042	0.171
-708.645	-118.617	0.055	-0.010
-707.631	800.000	0.051	-0.185
-706.616	16.409	-0.185	0.149
-705.602	266.985	0.135	-0.241
-704.587	35.963	-0.094	-0.084
-703.572	-158.291	0.134	-0.008
-702.558	800.000	0.052	-0.183
-701.543	800.000	-0.074	0.261
-700.529	-72.385	-0.090	0.034
-699.514	363.272	-0.054	0.110
-698.499	-127.481	0.220	0.033
-697.485	-200.000	-0.061	0.351
-696.470	-200.000	-0.039	-0.198
-695.456	589.664	0.176	-0.443
-694.441	-19.028	0.255	-0.162
-693.426	-127.407	-0.060	-0.009
-692.412	-200.000	-0.000	-0.101
-691.397	89.637	-0.116	0.132
-690.383	-200.000	-0.036	-0.253
-689.368	229.680	0.068	-0.114
-688.354	-159.619	-0.016	-0.001
-687.339	192.864	-0.282	0.435
-686.324	-47.421	-0.205	-0.102
-685.310	73.465	-0.161	0.172
-684.295	26.786	-0.113	0.096
-683.281	-140.552	0.201	0.021
-682.266	800.000	0.079	-0.255
-681.251	82.281	-0.075	-0.083
-680.237	-108.372	0.091	0.020
-679.222	-6.333	-0.134	-0.093
-678.208	-55.779	0.362	-0.165
-677.193	126.608	-0.181	0.233
-676.178	-104.510	0.330	-0.078
-675.164	-90.705	-0.116	0.034
-674.149	-175.025	-0.168	-0.005
-673.135	800.000	-0.084	0.260
-672.120	-200.000	0.004	-0.424
-671.105	247.897	-0.148	-0.254
-670.091	-200.000	-0.022	0.121
-669.076	66.745	-0.161	0.167
-668.062	-200.000	0.058	-0.265
-667.047	139.618	0.207	-0.278
-666.032	-200.000	0.002	-0.322
-665.018	-18.082	0.033	0.021
-664.003	13.951	0.142	-0.112
-662.989	-27.872	0.126	0.075
-661.974	-27.028	-0.118	-0.070
-660.959	-200.000	0.018	-0.228
-659.945	800.000	-0.101	0.317
-658.930	70.954	0.133	-0.141
-657.916	6.046	0.090	-0.068
-656.901	33.297	0.214	0.189
-655.886	86.271	-0.158	0.178
-654.872	413.991	0.179	-0.388
-653.857	199.330	-0.094	-0.147
-652.843	243.216	-0.140	-0.239
-651.828	166.891	-0.121	0.175
-650.814	282.542	0.134	0.244
-649.799	16.071	-0.075	0.060
-648.784	-24.324	-0.227	0.138
-647.770	-36.493	0.290	-0.159
-646.755	46.785	0.017	0.017
-645.741	-94.929	0.039	-0.011
-644.726	-127.667	-0.562	0.083
-643.711	445.123	0.097	-0.216
-642.697	141.628	0.255	-0.344
-641.682	506.473	-0.167	0.394
-640.668	-26.562	0.192	-0.115
-639.653	68.814	-0.190	-0.198
-638.638	-91.444	-0.132	-0.038
-637.624	-78.659	-0.171	-0.059
-636.609	800.000	0.053	0.173
-635.595	51.095	0.079	0.076
-634.580	800.000	-0.022	0.062
-633.565	800.000	0.065	-0.264
-632.551	-53.968	0.153	-0.071
-631.536	-99.428	-0.065	-0.017
-630.522	46.736	0.093	0.088
-629.507	-30.366	0.128	-0.074
-628.492	-113.363	-0.150	-0.030
-627.478	-100.772	0.468	-0.117
-626.463	93.028	-0.277	0.318
-625.449	-200.000	0.005	0.123
-624.434	23.542	0.166	-0.139
-623.419	69.143	-0.222	-0.232
-622.405	-38.189	0.193	0.104
-621.390	-55.587	0.153	0.070
-620.376	-87.349	0.041	0.013
-619.361	-200.000	0.001	0.006
-618.346	674.509	-0.077	0.203
-617.332	800.000	-0.081	0.234
-616.317	-190.241	-0.284	0.003
-615.303	800.000	0.072	0.234
-614.288	800.000	-0.057	-0.217
-613.273	-45.031	0.146	-0.074
-612.259	182.525	0.189	0.284
-611.244	63.191	-0.144	0.147
-610.230	28.205	0.350	-0.301
-609.215	120.057	0.280	0.354
-608.201	24.196	0.095	0.079
-607.186	-200.000	-0.004	0.151
-606.171	-56.382	0.134	0.061
-605.157	151.674	-0.045	0.063
-604.142	-200.000	0.019	-0.215
-603.128	345.327	-0.096	0.192
-602.113	-200.000	-0.034	0.246
-601.098	-200.000	0.013	0.196
-600.084	-200.000	0.002	0.233
-599.069	-92.587	0.151	-0.043
-598.055	800.000	-0.075	-0.231
-597.040	352.954	-0.143	-0.287
-596.025	800.000	0.063	0.279
-595.011	-167.678	-0.257	0.010
-593.996	44.091	-0.184	-0.171
-592.982	-200.000	-0.010	-0.066
-591.967	-36.470	0.150	0.082
-590.952	100.303	-0.292	0.345
-589.938	136.295	0.142	-0.188
-588.923	800.000	0.056	0.233
-587.909	800.000	-0.049	0.212
-586.894	-47.345	-0.457	0.226
-585.879	-200.000	-0.009	0.213
-584.865	-73.782	-0.128	0.047
-583.850	-200.000	0.098	0.487
-582.836	800.000	0.056	-0.199
-581.821	-83.687	-0.144	-0.047
-580.806	-200.000	0.012	-0.189
-579.792	800.000	-0.097	-0.327
-578.777	74.579	0.213	0.227
-577.763	28.650	0.290	-0.250
-576.748	-21.847	-0.260	-0.160
-575.733	556.169	-0.109	0.266
-574.719	-173.093	0.295	-0.009
-573.704	309.420	-0.084	0.160
-572.690	90.780	0.139	0.159
-571.675	-200.000	-0.024	-0.306
-570.661	-200.000	0.034	-0.302
-569.646	216.084	-0.175	0.283
-568.631	-30.282	-0.456	-0.263
-567.617	-130.505	-0.128	-0.018
-566.602	172.979	-0.219	-0.320
-565.588	-200.000	0.010	-0.176
-564.573	-154.388	-0.177	-0.012
-563.558	29.882	-0.163	0.141
-562.544	800.000	-0.080	0.226
-561.529	90.068	0.132	0.150
-560.515	-36.895	-0.225	0.122
-559.500	-131.402	-0.071	-0.010
-558.485	-86.817	0.134	-0.041
-557.471	-96.031	-0.098	0.026
-556.456	-97.151	0.074	-0.020
-555.442	-67.696	-0.325	0.129
-554.427	-30.438	0.307	-0.177
-553.412	-30.837	-0.054	-0.031
-552.398	134.498	0.133	-0.175
-551.383	-172.428	-0.154	-0.005
-550.369	-36.553	0.414	0.226
-549.354	-120.544	-0.242	0.042
-548.339	-124.303	-0.173	0.027
-547.325	-164.297	0.129	0.006
-546.310	-106.313	-0.579	0.131
-545.296	-120.372	0.251	-0.043
-544.281	-200.000	0.084	0.542
-543.266	-154.851	-0.251	-0.017
-542.252	-200.000	-0.022	-0.156
-541.237	723.315	0.080	0.215
-540.223	118.678	0.152	0.190
-539.208	-30.806	-0.094	-0.054
-538.193	-134.779	-0.562	-0.069
-537.179	800.000	0.031	-0.129
-536.164	137.065	0.161	-0.213
-535.150	107.747	0.049	-0.059
-534.135	-200.000	-0.006	-0.150
-533.121	-154.099	-0.107	0.007
-532.106	25.102	0.119	0.100
-531.091	-145.172	-0.440	-0.040
-530.077	-84.574	0.122	0.039
-529.062	137.622	-0.169	0.224
-528.048	-110.904	0.363	-0.076
-527.033	79.681	0.072	-0.078
-526.018	-74.811	0.276	-0.100
-525.004	-200.000	0.008	0.090
-523.989	338.979	-0.153	-0.302
-522.975	98.560	0.217	-0.253
-521.960	-200.000	-0.011	0.241
-520.945	299.293	-0.046	-0.086
-519.931	-200.000	-0.024	-0.328
-518.916	-30.220	0.356	0.205
-517.902	-200.000	0.029	0.154
-516.887	494.844	0.048	-0.112
-515.872	-200.000	-0.003	-0.080
-514.858	-30.702	0.117	0.067
-513.843	-200.000	0.003	0.056
-512.829	-90.733	0.130	-0.038
-511.814	-28.005	-0.147	0.086
-510.799	403.147	0.029	0.063
-509.785	-5.767	-0.413	0.287
-508.770	800.000	0.081	-0.236
-507.756	-55.183	0.139	0.063
-506.741	-138.989	0.384	0.042
-505.726	800.000	-0.090	0.255
-504.712	-102.261	0.327	0.079
-503.697	-94.964	0.213	-0.058
-502.683	-39.322	0.107	0.057
-501.668	-8.749	-0.304	-0.207
-500.653	156.665	0.244	-0.340
-499.639	-200.000	-0.031	-0.274
-498.624	84.298	0.246	0.272
-497.610	800.000	0.042	0.174
-496.595	-90.556	-0.091	0.027
-495.581	431.545	-0.115	-0.253
-494.566	800.000	0.170	0.524
-493.551	-200.000	0.217	0.001
-492.537	131.769	-0.054	0.071
-491.522	-163.570	-0.276	-0.013
-490.508	-48.053	0.093	-0.046
-489.493	54.772	-0.105	0.102
-488.478	-200.000	0.031	0.180
-487.464	166.641	-0.256	0.367
-486.449	-200.000	-0.012	-0.088
-485.435	31.788	-0.182	-0.159
-484.420	-15.540	0.053	0.034
-483.405	136.560	0.088	-0.116
-482.391	3.335	-0.181	0.133
-481.376	-200.000	0.003	-0.326
-480.362	-36.537	-0.182	-0.099
-479.347	-87.280	-0.169	0.052
-478.332	800.000	0.052	-0.198
-477.318	-200.000	-0.009	0.120
-476.303	146.644	0.114	0.155
-475.289	800.000	-0.091	-0.262
-474.274	602.547	-0.010	0.026
-473.259	415.982	0.054	0.117
-472.245	361.169	0.117	0.237
-471.230	-200.000	-0.033	0.176
-470.216	-200.000	-0.050	-0.362
-469.201	-200.000	0.039	0.199
-468.186	-200.000	-0.001	0.090
-467.172	-200.000	0.026	0.227
-466.157	800.000	0.044	0.160
-465.143	-1.595	0.139	-0.099
-464.128	-70.834	-0.392	-0.149
-463.113	140.559	-0.042	0.056
-462.099	-200.000	0.033	-0.199
-461.084	-200.000	0.063	-0.383
-460.070	203.626	-0.049	-0.077
-459.055	-200.000	0.009	-0.163
-458.040	-126.898	0.086	0.013
-457.026	258.981	0.169	-0.295
-456.011	89.242	0.023	0.026
-454.997	-153.483	-0.142	-0.010
-453.982	20.292	0.316	-0.258
-452.968	12.701	0.067	0.052
-451.953	-200.000	0.013	-0.143
-450.938	800.000	0.078	-0.284
-449.924	-7.738	0.187	-0.128
-448.909	6.717	0.137	0.103
-447.895	21.585	0.052	-0.043
-446.880	434.848	0.120	-0.263
-445.865	360.864	-0.152	-0.308
-444.851	-7.367	-0.091	0.063
-443.836	308.857	-0.084	0.158
-442.822	23.947	-0.306	-0.255
-441.807	-47.369	0.249	-0.122
-440.792	23.360	-0.197	0.164
-439.778	-77.993	0.335	-0.117
-438.763	-200.000	-0.038	-0.533
-437.749	298.087	-0.010	-0.019
-436.734	90.770	-0.114	0.129
-435.719	-52.352	0.226	0.106
-434.705	27.113	0.029	-0.025
-433.690	-200.000	-0.000	-0.197
-432.676	-173.741	0.326	-0.010
-431.661	-13.864	-0.178	-0.116
-430.646	320.230	-0.073	-0.140
-429.632	473.587	-0.067	-0.152
-428.617	28.718	-0.067	-0.057
-427.603	800.000	0.057	0.221
-426.588	-112.043	-0.320	-0.065
-425.573	-191.262	0.222	0.002
-424.559	-113.472	-0.064	-0.013
-423.544	-30.973	0.155	-0.088
-422.530	-107.900	0.129	0.028
-421.515	800.000	-0.021	0.090
-420.500	52.517	-0.254	-0.245
-419.486	-200.000	-0.006	0.096
-418.471	-200.000	0.008	0.150
-417.457	-44.006	-0.165	0.084
-416.442	-200.000	-0.079	-0.401
-415.428	134.860	0.029	-0.038
-414.413	99.755	0.064	0.075
-413.398	118.451	-0.071	-0.088
-412.384	-81.770	-0.059	-0.020
-411.369	395.160	0.103	0.216
-410.355	-105.340	-0.044	-0.010
-409.340	-200.000	0.017	0.123
-408.325	-113.723	-0.122	-0.024
-407.311	420.105	0.019	0.042
-406.296	27.884	0.199	0.170
-405.282	520.099	0.056	-0.133
-404.267	130.377	-0.043	0.055
-403.252	84.435	-0.045	0.050
-402.238	-88.875	0.042	0.012
-401.223	800.000	-0.065	-0.208
-400.209	-200.000	-0.002	-0.373
-399.194	36.418	0.224	0.200
-398.179	-82.212	0.195	-0.064
-397.165	-34.614	0.143	0.079
-396.150	586.260	-0.138	-0.343
-395.136	389.248	-0.012	0.025
-394.121	-178.010	-0.055	0.001
-393.106	-102.683	0.257	-0.062
-392.092	-117.805	0.166	0.030
-391.077	-7.549	0.327	0.223
-390.063	-102.804	0.135	-0.032
-389.048	-200.000	0.016	0.090
-388.033	237.702	-0.073	0.123
-387.019	114.854	-0.207	-0.255
-386.004	170.123	0.109	-0.157
-384.990	2.744	-0.150	-0.110
-383.975	-132.584	0.269	0.035
-382.960	-158.786	0.125	0.007
-381.946	-142.225	-0.174	0.017
-380.931	146.737	-0.102	-0.138
-379.917	-197.249	0.374	-0.002
-378.902	-108.156	0.302	0.066
-377.888	800.000	-0.072	-0.273
-376.873	112.254	0.140	0.170
-375.858	-200.000	0.029	-0.190
-374.844	-10.626	0.058	-0.038
-373.829	-200.000	-0.028	-0.125
-372.815	-200.000	-0.003	-0.027
-371.800	134.206	0.225	-0.293
-370.785	-200.000	-0.015	-0.434
-369.771	116.629	-0.101	0.125
-368.756	66.387	-0.154	0.158
-367.742	-200.000	0.041	0.303
-366.727	-51.191	0.123	0.058
-365.712	163.456	-0.202	0.286
-364.698	29.276	-0.161	0.137
-363.683	-52.689	-0.243	0.113
-362.669	666.652	-0.129	-0.335
-361.654	-159.238	0.249	0.014
-360.639	-200.000	0.031	0.207
-359.625	718.038	-0.026	0.070
-358.610	-200.000	-0.012	-0.303
-357.596	84.814	0.129	0.142
-356.581	-200.000	-0.061	-0.320
-355.566	-42.264	-0.393	0.202
-354.552	-63.363	0.315	0.130
-353.537	-158.523	0.391	-0.023
-352.523	800.000	-0.015	0.050
-351.508	428.112	-0.009	0.020
-350.493	495.230	0.041	-0.096
-349.479	104.307	0.179	0.212
-348.464	178.827	-0.072	-0.106
-347.450	43.096	0.144	0.132
-346.435	-200.000	0.026	0.176
-345.420	36.001	0.161	0.143
-344.406	7.744	-0.130	0.098
-343.391	-51.393	0.398	0.187
-342.377	43.734	-0.245	-0.225
-341.362	98.023	0.129	-0.149
-340.348	97.790	-0.074	0.086
-339.333	14.309	0.209	-0.164
-338.318	-200.000	-0.030	0.263
-337.304	-200.000	-0.018	-0.219
-336.289	-106.545	-0.246	-0.055
-335.275	321.557	0.046	-0.087
-334.260	-36.439	0.201	0.109
-333.245	-200.000	0.012	0.080
-332.231	151.805	0.037	0.051
-331.216	463.489	0.077	-0.172
-330.202	449.229	-0.148	-0.328
-329.187	-200.000	0.012	-0.227
-328.172	672.659	-0.139	-0.361
-327.158	-200.000	0.037	-0.238
-326.143	-200.000	-0.052	-0.433
-325.129	-23.286	0.157	-0.095
-324.114	800.000	0.071	0.235
-323.099	800.000	0.049	0.181
-322.085	800.000	0.116	-0.366
-321.070	-19.000	-0.160	0.100
-320.056	-94.435	0.071	-0.020
-319.041	-112.750	0.429	-0.086
-318.026	-200.000	0.010	0.101
-317.012	-151.787	0.239	0.018
-315.997	403.468	-0.092	0.194
-314.983	271.804	-0.078	0.138
-313.968	-200.000	0.043	0.264
-312.953	800.000	0.022	-0.076
-311.939	-95.572	-0.088	0.024
-310.924	-200.000	0.019	0.220
-309.910	722.780	0.153	0.409
-308.895	-8.511	-0.067	0.045
-307.880	-87.140	0.024	0.007
-306.866	94.583	0.093	-0.106
-305.851	94.587	0.184	-0.210
-304.837	267.827	-0.035	-0.061
-303.822	172.758	0.084	0.121
-302.807	-125.990	0.133	0.020
-301.793	242.011	0.080	0.135
-300.778	-104.027	-0.532	-0.125
-299.764	-150.084	-0.178	0.014
-298.749	800.000	-0.011	-0.032
-297.735	585.449	-0.088	0.218
-296.720	-84.395	-0.185	-0.059
-295.705	240.229	0.092	0.155
-294.691	75.934	0.131	-0.139
-293.676	-86.340	0.268	0.083
-292.662	-13.432	-0.234	-0.153
-291.647	-23.060	0.316	-0.191
-290.632	135.170	-0.137	0.179
-289.618	-153.482	-0.270	0.019
-288.603	36.769	-0.108	-0.096
-287.589	85.261	-0.298	-0.328
-286.574	-183.888	-0.261	0.004
-285.559	-87.080	0.029	0.009
-284.545	279.188	-0.050	0.089
-283.530	209.912	-0.175	0.275
-282.516	-200.000	0.092	0.587
-281.501	-200.000	-0.024	-0.165
-280.486	275.161	-0.165	0.294
-279.472	566.632	-0.137	0.333
-278.457	-145.478	0.094	-0.008
-277.443	-150.107	0.193	0.015
-276.428	128.362	-0.179	0.229
-275.413	-60.417	0.204	0.087
-274.399	-200.000	0.014	0.218
-273.384	-12.351	0.070	0.046
-272.370	260.249	0.216	-0.375
-271.355	-200.000	-0.076	-0.401
-270.340	764.727	0.069	-0.187
-269.326	697.523	-0.140	-0.369
-268.311	168.825	0.152	-0.217
-267.297	-167.282	-0.144	0.006
-266.282	-104.655	-0.040	0.009
-265.267	-129.443	0.209	-0.029
-264.253	-121.620	0.360	0.060
-263.238	221.064	0.141	-0.227
-262.224	12.310	0.268	0.207
-261.209	103.943	0.251	0.296
-260.195	-181.675	0.122	0.002
-259.180	-11.028	-0.288	-0.191
-258.165	375.008	0.096	0.196
-257.151	333.883	-0.180	-0.349
-256.136	-143.824	0.185	0.017
-255.122	-33.500	-0.300	0.166
-254.107	-34.703	0.102	0.056
-253.092	-36.860	-0.174	0.093
-252.078	716.795	-0.107	-0.284
-251.063	595.136	0.049	-0.122
-250.049	24.263	-0.122	0.101
-249.034	27.525	0.137	0.115
-248.019	313.996	-0.060	0.114
-247.005	-200.000	-0.025	-0.117
-245.990	-38.361	0.365	0.193
-244.976	-200.000	-0.009	0.221
-243.961	135.449	0.123	0.161
-242.946	263.901	-0.228	-0.397
-241.932	-200.000	0.003	-0.094
-240.917	-183.558	-0.201	0.003
-239.903	133.769	-0.150	0.195
-238.888	15.260	0.071	0.056
-237.873	-6.008	-0.167	-0.114
-236.859	-1.819	0.137	0.097
-235.844	-33.813	-0.312	0.172
-234.830	35.562	-0.177	0.156
-233.815	-200.000	-0.051	0.467
-232.800	111.856	0.213	0.258
-231.786	-200.000	-0.283	0.001
-230.771	-200.000	-0.064	-0.418
-229.757	-102.270	-0.252	0.060
-228.742	424.857	0.086	0.184
-227.727	156.678	0.196	-0.272
-226.713	-11.034	0.225	0.148
-225.698	12.822	-0.256	-0.198
-224.684	107.671	-0.164	0.195
-223.669	509.818	0.059	0.137
-222.655	-12.971	-0.218	-0.142
-221.640	85.422	-0.189	-0.207
-220.625	111.348	-0.085	0.103
-219.611	-143.609	-0.447	-0.043
-218.596	7.349	0.102	0.076
-217.582	-47.820	0.263	-0.127
-216.567	800.000	-0.070	-0.194
-215.552	232.650	-0.034	0.056
-214.538	-200.000	-0.003	-0.167
-213.523	800.000	0.122	-0.453
-212.509	-16.939	0.275	-0.174
-211.494	40.595	-0.203	-0.183
-210.479	-200.000	0.016	-0.181
-209.465	800.000	0.061	0.186
-208.450	-200.000	-0.008	0.311
-207.436	-64.962	0.145	0.059
-206.421	145.837	-0.042	-0.056
-205.406	-15.889	-0.091	0.058
-204.392	363.357	-0.057	0.114
-203.377	-38.638	0.236	0.125
-202.363	51.026	-0.161	0.153
-201.348	-43.428	-0.283	0.143
-200.333	-15.500	-0.128	-0.082
-199.319	280.369	-0.121	-0.216
-198.304	126.445	0.092	-0.116
-197.290	-26.478	-0.162	0.095
-196.275	-200.000	-0.023	-0.101
-195.260	-67.037	-0.069	-0.027
-194.246	-200.000	0.065	-0.346
-193.231	33.463	0.082	-0.071
-192.217	800.000	-0.017	0.073
-191.202	-200.000	0.012	-0.104
-190.187	-85.357	0.229	-0.072
-189.173	173.561	0.163	0.235
-188.158	138.640	-0.187	0.245
-187.144	-200.000	-0.012	-0.406
-186.129	-129.726	0.082	-0.011
-185.114	70.856	0.232	0.240
-184.100	-20.388	0.080	0.049
-183.085	152.782	-0.123	0.168
-182.071	28.894	-0.136	0.115
-181.056	-21.701	0.248	-0.151
-180.042	-137.794	-0.138	-0.016
-179.027	800.000	-0.030	0.115
-178.012	210.726	0.202	0.317
-176.998	215.368	-0.207	0.328
-175.983	99.204	-0.224	0.259
-174.969	-200.000	-0.014	0.297
-173.954	303.387	-0.054	-0.100
-172.939	5.773	0.284	0.210
-171.925	800.000	0.033	0.096
-170.910	-53.014	0.119	0.055
-169.896	-147.506	-0.268	0.023
-168.881	260.499	0.024	-0.041
-167.866	-177.246	-0.230	0.006
-166.852	-47.880	0.320	-0.155
-165.837	51.217	-0.114	0.108
-164.823	151.700	0.271	0.369
-163.808	52.452	-0.088	-0.084
-162.793	-34.407	-0.162	0.089
-161.779	-200.000	0.055	-0.287
-160.764	-152.303	-0.232	0.017
-159.750	-200.000	0.013	-0.097
-158.735	53.731	0.053	0.051
-157.720	-140.101	-0.174	-0.018
-156.706	-62.658	-0.230	-0.095
-155.691	-140.684	-0.278	-0.029
-154.677	77.516	-0.118	0.126
-153.662	6.572	-0.172	-0.128
-152.647	38.519	0.340	-0.303
-151.633	-50.940	-0.183	0.086
-150.618	-15.295	0.214	0.136
-149.604	-84.718	-0.127	0.040
-148.589	800.000	0.046	-0.176
-147.574	-14.542	-0.245	-0.157
-146.560	145.455	-0.055	-0.073
-145.545	800.000	0.083	-0.347
-144.531	17.416	0.142	-0.113
-143.516	-163.960	0.267	-0.012
-142.502	-200.000	-0.004	0.284
-141.487	-9.355	-0.179	0.119
-140.472	669.336	0.025	0.064
-139.458	-91.171	-0.237	0.068
-138.443	738.732	-0.099	0.265
-137.429	-200.000	-0.017	-0.158
-136.414	144.021	0.148	0.197
-135.399	-29.456	-0.076	0.044
-134.385	-25.518	-0.097	0.057
-133.370	800.000	-0.129	0.451
-132.356	324.387	-0.148	-0.282
-131.341	-51.719	0.067	-0.031
-130.326	-85.214	-0.249	0.078
-129.312	-21.130	0.337	0.206
-128.297	-200.000	0.040	-0.183
-127.283	682.946	0.023	-0.061
-126.268	104.902	-0.159	-0.188
-125.253	168.833	-0.151	-0.215
-124.239	-26.704	0.140	-0.082
-123.224	800.000	0.042	0.119
-122.210	-200.000	-0.001	0.288
-121.195	-131.690	0.414	-0.054
-120.180	-89.831	0.182	-0.053
-119.166	39.224	0.160	-0.143
-118.151	-200.000	-0.030	-0.135
-117.137	203.762	-0.046	0.072
-116.122	227.271	-0.123	0.199
-115.107	-200.000	0.051	0.455
-114.093	-66.590	-0.162	0.064
-113.078	-69.872	-0.331	0.126
-112.064	513.631	-0.035	-0.081
-111.049	-200.000	-0.014	0.141
-110.034	800.000	0.127	-0.458
-109.020	43.559	0.170	0.155
-108.005	748.347	-0.031	0.083
-106.991	800.000	-0.059	-0.171
-105.976	800.000	-0.022	-0.080
-104.962	-155.101	0.067	-0.004
-103.947	15.898	-0.128	-0.101
-102.932	-103.893	0.118	-0.027
-101.918	274.253	0.079	-0.139
-100.903	-78.161	0.414	0.142
-99.889	-181.610	0.321	0.006
-98.874	-93.441	0.183	-0.051
-97.859	42.740	-0.076	-0.069
-96.845	800.000	0.005	-0.016
-95.830	800.000	0.058	-0.203
-94.816	315.436	0.010	-0.019
-93.801	149.670	0.065	0.088
-92.786	70.639	0.182	-0.187
-91.772	197.614	0.256	0.389
-90.757	50.952	-0.124	0.117
-89.743	-79.333	-0.346	0.117
-88.728	105.853	0.068	-0.080
-87.713	687.423	-0.078	0.203
-86.699	225.908	0.090	0.146
-85.684	800.000	-0.031	-0.096
-84.670	800.000	0.042	0.183
-83.655	-200.000	0.056	-0.294
-82.640	612.517	0.055	-0.136
-81.626	253.803	-0.129	-0.220
-80.611	-113.604	-0.163	0.032
-79.597	-200.000	0.018	0.128
-78.582	-50.863	0.227	-0.106
-77.567	-200.000	-0.076	0.354
-76.553	-40.398	-0.152	0.079
-75.538	343.303	-0.201	-0.392
-74.524	-75.957	-0.234	-0.082
-73.509	-200.000	-0.022	-0.235
-72.494	85.474	-0.166	0.181
-71.480	-126.139	-0.105	0.016
-70.465	-200.000	0.044	0.373
-69.451	-83.469	0.278	0.089
-68.436	106.441	-0.134	-0.158
-67.422	800.000	-0.067	0.196
-66.407	-134.503	-0.043	-0.005
-65.392	-57.546	0.263	-0.115
-64.378	-139.891	0.404	-0.043
-63.363	206.221	0.292	0.452
-62.349	-200.000	-0.003	-0.224
-61.334	203.206	-0.599	-0.922
-60.319	311.080	0.329	0.613
-59.305	345.827	-0.431	-0.844
-58.290	422.528	0.464	0.990
-57.276	304.318	0.839	1.548
-56.261	-200.000	85.627	507.013
-55.246	556.620	1374.618	3294.926
-54.232	182.761	2609.553	3830.349
-53.217	117.899	2262.534	2772.338
-52.203	46.935	1790.822	1656.171
-51.188	40.309	1596.786	1429.060
-50.173	37.759	1569.711	1386.655
-49.159	54.305	1612.604	1544.124
-48.144	58.184	1631.856	1590.471
-47.130	40.683	1592.769	1427.935
-46.115	37.516	1577.689	1391.741
-45.100	37.292	1574.614	1387.378
-44.086	37.337	1571.999	1385.339
-43.071	37.256	1570.374	1383.273
-42.057	37.193	1568.578	1381.189
-41.042	37.246	1567.323	1380.403
-40.027	37.169	1565.962	1378.604
-39.013	37.247	1563.963	1377.342
-37.998	37.233	1562.720	1376.094
-36.984	37.219	1561.681	1375.026
-35.969	37.305	1559.870	1373.983
-34.954	37.195	1558.617	1372.051
-33.940	37.230	1557.154	1370.955
-32.925	37.305	1555.502	1369.976
-31.911	37.218	1554.680	1368.580
-30.896	37.328	1553.064	1367.882
-29.881	37.399	1551.682	1367.111
-28.867	37.379	1550.209	1365.617
-27.852	37.237	1549.602	1364.030
-26.838	37.298	1547.606	1362.644
-25.823	37.311	1545.994	1361.267
-24.809	37.336	1544.014	1359.638
-23.794	37.215	1543.295	1358.108
-22.779	37.292	1541.665	1357.159
-21.765	37.287	1540.674	1356.197
-20.750	37.287	1539.332	1354.962
-19.736	37.293	1538.008	1353.782
-18.721	37.249	1537.140	1352.662
-17.706	37.219	1535.956	1351.353
-16.692	37.261	1535.198	1350.926
-15.677	37.215	1534.003	1349.499
-14.663	37.221	1532.906	1348.521
-13.648	37.191	1531.744	1347.240
-12.633	37.179	1530.891	1346.351
-11.619	37.174	1530.176	1345.639
-10.604	37.229	1528.866	1344.815
-9.590	37.232	1528.160	1344.161
-8.575	37.181	1527.088	1342.811
-7.560	37.239	1526.009	1342.208
-6.546	37.256	1525.115	1341.484
-5.531	37.291	1524.106	1340.789
-4.517	37.187	1523.276	1339.288
-3.502	37.162	1522.025	1337.959
-2.487	37.168	1520.801	1336.875
-1.473	37.144	1519.723	1335.705
-0.458	37.329	1517.886	1335.313
0.556	35.646	1509.673	1325.936
1.571	33.446	1482.498	1287.027
2.586	30.380	1419.766	1212.477
3.600	28.846	1335.025	1130.579
4.615	26.965	1286.566	1078.278
5.629	21.895	1225.278	998.058
6.644	10.226	1131.213	859.708
7.659	1.664	1084.826	780.608
8.673	0.358	1079.003	769.686
9.688	0.123	1076.038	766.308
10.702	0.066	1074.109	764.574
11.717	0.134	1072.598	763.775
12.731	3.882	1077.681	786.415
13.746	14.516	1093.285	852.338
14.761	21.377	1102.507	894.690
15.775	22.202	1102.253	898.627
16.790	22.310	1101.312	898.327
17.804	22.108	1100.533	896.583
18.819	21.875	1100.236	895.076
19.834	22.080	1099.470	895.416
20.848	22.179	1098.679	895.198
21.863	22.139	1098.289	894.598
22.877	22.167	1097.918	894.355
23.892	21.990	1098.241	893.638
24.907	21.974	1096.763	892.276
25.921	21.992	1095.819	891.524
26.936	21.978	1095.112	890.794
27.950	22.082	1093.629	890.039
28.965	22.006	1092.788	888.889
29.980	21.893	1090.781	886.607
30.994	22.018	1089.310	885.967
32.009	22.064	1089.012	885.877
33.023	22.063	1088.631	885.482
34.038	21.855	1087.037	883.059
35.053	21.982	1086.211	882.951
36.067	22.169	1085.737	883.426
37.082	22.045	1084.862	882.013
38.096	22.207	1083.843	881.920
39.111	22.257	1083.600	881.895
40.126	22.386	1082.251	881.367
41.140	22.226	1081.165	879.604
42.155	21.837	1080.082	876.699
43.169	21.724	1078.465	874.744
44.184	21.771	1077.268	873.931
45.199	21.812	1076.230	873.218
46.213	21.640	1075.405	871.616
47.228	21.513	1074.624	870.272
48.242	21.740	1073.571	870.469
49.257	21.827	1073.260	870.571
50.271	22.017	1072.028	870.440
51.286	22.139	1071.308	870.381
52.301	22.116	1070.547	869.573
53.315	22.138	1069.609	868.841
54.330	22.068	1068.649	867.642
55.344	22.030	1068.007	866.853
56.359	22.027	1066.794	865.780
57.374	22.029	1066.191	865.220
58.388	21.876	1065.114	863.518
59.403	21.751	1064.731	862.515
60.417	21.858	1063.566	862.023
61.432	21.682	1062.897	860.539
62.447	21.765	1062.191	860.301
63.461	21.812	1061.771	860.115
64.476	21.794	1060.976	859.305
65.490	21.780	1059.882	858.272
66.505	21.842	1058.799	857.622
67.520	21.693	1058.375	856.476
68.534	21.957	1057.150	856.698
69.549	21.714	1056.722	855.088
70.563	21.366	1055.061	851.975
71.578	21.355	1054.411	851.320
72.593	21.389	1053.375	850.574
73.607	21.174	1052.111	848.432
74.622	21.260	1050.889	847.789
75.636	21.464	1050.676	848.535
76.651	21.655	1050.212	849.011
77.666	21.575	1048.563	847.216
78.680	21.411	1048.118	845.987
79.695	21.521	1047.312	845.791
80.709	21.533	1046.956	845.486
81.724	21.645	1046.018	845.198
82.739	21.626	1045.278	844.434
83.753	21.562	1044.241	843.214
84.768	21.916	1043.393	844.158
85.782	22.101	1043.246	844.854
86.797	22.402	1042.195	845.374
87.812	22.358	1041.420	844.457
88.826	22.207	1040.071	842.566
89.841	22.124	1039.538	841.662
90.855	22.260	1038.659	841.525
91.870	22.212	1038.078	840.749
92.884	22.239	1036.759	839.737
93.899	22.193	1036.220	839.005
94.914	22.121	1034.823	837.460
95.928	22.183	1034.211	837.184
96.943	22.286	1033.281	836.850
97.957	21.800	1032.467	833.803
98.972	21.659	1031.255	832.081
99.987	21.480	1029.934	830.095
101.001	21.584	1029.560	830.213
102.016	21.907	1028.763	831.024
103.030	21.868	1028.248	830.349
104.045	21.903	1026.865	829.326
105.060	21.720	1025.456	827.251
106.074	21.645	1023.952	825.613
107.089	21.697	1023.308	825.262
108.103	21.959	1023.472	826.555
109.118	22.152	1021.943	826.154
110.133	21.777	1021.342	823.836
111.147	21.800	1020.093	822.865
112.162	21.702	1018.650	821.165
113.176	21.469	1017.269	818.888
114.191	21.592	1016.436	818.722
115.206	21.829	1015.312	818.852
116.220	21.318	1014.617	815.835
117.235	21.189	1013.763	814.472
118.249	21.376	1013.150	814.780
119.264	21.488	1012.146	814.424
120.279	21.392	1011.160	813.110
121.293	21.409	1010.265	812.397
122.308	21.632	1009.426	812.689
123.322	21.568	1008.836	811.845
124.337	21.491	1007.713	810.509
125.352	21.351	1006.236	808.602
126.366	20.957	1004.871	805.616
127.381	20.698	1003.282	803.073
128.395	21.082	1003.160	804.677
129.410	21.836	1002.754	807.755
130.424	22.123	1001.923	808.333
131.439	21.982	1001.228	807.055
132.454	21.994	999.754	805.851
133.468	21.916	998.984	804.801
134.483	21.963	998.309	804.399
135.497	21.892	997.722	803.529
136.512	22.099	997.231	804.010
137.527	22.197	996.455	803.762
138.541	22.225	995.591	803.121
139.556	22.219	994.657	802.269
140.570	22.197	993.515	801.180
141.585	22.345	992.570	801.020
142.600	22.305	992.007	800.310
143.614	22.232	990.966	799.071
144.629	22.152	990.625	798.361
145.643	22.488	989.882	799.214
146.658	22.440	988.291	797.642
147.673	22.138	987.381	795.471
148.687	22.146	986.172	794.461
149.702	22.026	985.067	792.962
150.716	22.091	984.023	792.343
151.731	21.986	982.972	790.954
152.746	21.905	982.714	790.310
153.760	22.104	981.965	790.537
154.775	22.367	981.201	791.031
155.789	22.362	979.957	789.936
156.804	22.382	978.911	789.112
157.819	22.263	978.037	787.808
158.833	22.246	977.406	787.151
159.848	22.310	976.492	786.630
160.862	22.347	975.613	786.022
161.877	22.311	974.594	784.970
162.892	22.076	974.356	783.658
163.906	22.358	973.293	783.993
164.921	22.175	972.157	782.195
165.935	22.287	971.102	781.774
166.950	22.440	969.935	781.444
167.964	22.399	968.762	780.247
168.979	22.259	968.218	779.121
169.994	22.105	967.047	777.427
171.008	22.008	966.159	776.217
172.023	22.231	965.422	776.539
173.037	22.361	964.608	776.389
174.052	22.202	963.507	774.733
175.067	22.087	961.992	772.943
176.081	22.003	961.497	772.108
177.096	22.077	960.962	771.934
178.110	22.197	959.661	771.345
179.125	21.880	958.697	769.112
180.140	21.534	957.818	766.827
181.154	21.662	956.863	766.552
182.169	21.776	956.352	766.573
183.183	21.938	956.267	767.147
184.198	22.180	955.861	767.812
185.213	22.261	955.102	767.487
186.227	22.182	954.278	766.411
187.242	22.154	954.355	766.282
188.256	22.154	953.416	765.461
189.271	22.208	952.576	764.955
190.286	22.352	951.525	764.669
191.300	22.249	950.586	763.401
192.315	21.641	949.515	759.836
193.329	21.027	947.754	755.698
194.344	20.697	946.054	752.851
195.359	21.170	947.049	755.620
196.373	21.923	947.380	759.077
197.388	22.259	946.414	759.688
198.402	22.130	946.025	758.753
199.417	22.088	945.237	757.872
200.432	22.204	944.755	757.921
201.446	21.982	944.494	756.685
202.461	21.760	943.048	754.506
203.475	21.833	942.681	754.459
204.490	21.465	941.052	751.505
205.504	20.307	939.117	744.930
206.519	20.671	939.114	746.421
207.534	21.616	939.572	750.772
208.548	21.731	938.795	750.579
209.563	22.041	939.011	752.011
210.577	22.126	937.926	751.442
211.592	21.896	936.779	749.474
212.607	22.244	936.780	750.894
213.621	22.428	936.442	751.340
214.636	22.306	935.580	750.062
215.650	22.394	935.207	750.071
216.665	22.227	934.572	748.784
217.680	22.226	933.930	748.201
218.694	22.366	933.558	748.434
219.709	22.165	932.291	746.496
220.723	21.653	931.398	743.544
221.738	21.979	931.033	744.568
222.753	22.045	930.846	744.633
223.767	22.084	930.093	744.129
224.782	22.103	928.983	743.256
225.796	22.231	928.427	743.288
226.811	22.412	927.567	743.298
227.826	22.062	926.468	740.875
228.840	21.295	924.950	736.364
229.855	21.231	924.308	735.516
230.869	21.423	923.820	735.872
231.884	21.206	922.878	734.144
232.899	21.113	922.688	733.537
233.913	21.968	922.918	737.249
234.928	22.096	922.651	737.507
235.942	21.979	921.897	736.349
236.957	21.996	921.034	735.666
237.972	21.747	919.953	733.696
238.986	21.686	919.328	732.877
240.001	21.834	918.739	732.961
241.015	21.953	917.874	732.701
242.030	21.781	917.448	731.580
243.045	22.020	916.661	731.884
244.059	21.984	916.777	731.759
245.074	22.260	916.130	732.328
246.088	22.219	914.882	731.097
247.103	21.910	914.205	729.207
248.117	22.018	913.211	728.797
249.132	22.336	913.467	730.260
250.147	22.835	913.205	732.053
251.161	22.818	912.990	731.746
252.176	22.974	911.636	731.242
253.190	22.954	911.623	731.082
254.205	22.929	910.902	730.339
255.220	23.140	910.728	731.004
256.234	23.272	909.984	730.890
257.249	23.023	909.168	729.140
258.263	22.946	908.535	728.251
259.278	22.998	908.013	727.985
260.293	23.046	907.263	727.517
261.307	23.184	906.632	727.512
262.322	23.085	905.965	726.508
263.336	22.861	905.384	725.054
264.351	22.398	904.035	722.014
265.366	21.236	901.927	715.507
266.380	20.834	900.535	712.696
267.395	21.697	901.301	716.771
268.409	22.574	901.603	720.533
269.424	22.645	900.840	720.153
270.439	22.704	900.092	719.732
271.453	22.876	899.465	719.868
272.468	22.899	899.097	719.604
273.482	23.026	898.667	719.711
274.497	23.031	898.321	719.393
275.512	23.021	896.350	717.707
276.526	22.371	895.445	714.281
277.541	22.484	895.328	714.584
278.555	22.830	895.702	716.225
279.570	22.698	894.420	714.600
280.585	22.487	893.274	712.771
281.599	22.469	893.095	712.491
282.614	22.663	892.555	712.778
283.628	22.301	891.258	710.219
284.643	21.862	890.568	707.836
285.657	22.301	890.570	709.547
286.672	22.342	889.529	708.821
287.687	21.835	888.208	705.665
288.701	22.121	888.613	707.073
289.716	22.569	888.328	708.589
290.730	22.282	887.030	706.339
291.745	21.977	886.570	704.684
292.760	21.859	885.519	703.311
293.774	21.705	885.069	702.277
294.789	22.630	885.800	706.501
295.803	23.286	885.581	708.891
296.818	23.297	885.334	708.677
297.833	23.305	884.910	708.304
298.847	23.246	883.467	706.852
299.862	22.816	882.738	704.491
300.876	22.998	882.160	704.692
301.891	23.303	881.979	705.703
302.906	23.384	881.050	705.220
303.920	22.966	880.042	702.688
304.935	22.782	879.309	701.309
305.949	23.105	878.891	702.196
306.964	23.317	878.699	702.821
307.979	23.105	877.527	700.981
308.993	22.971	877.545	700.403
310.008	23.322	877.480	701.679
311.022	23.520	876.824	701.878
312.037	23.298	875.925	700.216
313.052	23.040	875.349	698.675
314.066	23.091	874.249	697.938
315.081	22.238	873.152	693.638
316.095	21.603	871.788	689.991
317.110	22.284	871.501	692.384
318.125	23.017	871.987	695.592
319.139	22.592	871.034	693.103
320.154	21.510	869.165	687.306
321.168	21.031	868.351	684.719
322.183	21.607	868.577	687.100
323.197	22.565	868.854	691.016
324.212	22.827	868.529	691.723
325.227	23.018	868.008	691.995
326.241	23.194	867.745	692.411
327.256	23.046	867.112	691.266
328.270	23.063	865.988	690.376
329.285	22.866	865.737	689.346
330.300	22.865	864.608	688.384
331.314	22.595	863.912	686.713
332.329	22.514	863.758	686.216
333.343	22.846	863.031	686.869
334.358	23.164	862.698	687.781
335.373	23.178	862.241	687.410
336.387	23.339	861.792	687.616
337.402	23.395	861.586	687.608
338.416	23.596	860.788	687.691
339.431	23.586	860.322	687.219
340.446	23.650	859.737	686.936
341.460	23.795	859.321	687.106
342.475	23.752	858.858	686.508
343.489	23.446	858.011	684.587
344.504	23.737	857.166	684.976
345.519	23.861	857.196	685.417
346.533	23.948	856.704	685.297
347.548	24.010	856.243	685.108
348.562	24.015	855.758	684.677
349.577	23.900	855.445	683.925
350.592	23.926	854.665	683.340
351.606	24.055	853.730	683.030
352.621	23.844	853.716	682.146
353.635	23.856	852.958	681.528
354.650	23.793	852.862	681.148
355.665	23.539	851.246	678.827
356.679	22.549	849.608	673.677
357.694	22.235	849.219	672.108
358.708	22.964	849.354	674.941
359.723	22.886	848.449	673.866
360.738	23.191	848.728	675.189
361.752	23.581	848.638	676.548
362.767	23.752	847.919	676.563
363.781	23.913	847.908	677.108
364.796	24.202	847.870	678.121
365.810	24.243	847.015	677.532
366.825	24.379	846.945	677.933
367.840	24.423	846.605	677.769
368.854	24.206	845.745	676.195
369.869	23.808	844.639	673.743
370.883	23.613	843.954	672.399
371.898	23.775	843.409	672.515
372.913	23.589	842.975	671.409
373.927	23.641	842.195	670.922
374.942	23.734	841.599	670.740
375.956	23.818	841.454	670.883
376.971	24.022	840.429	670.777
377.986	24.154	839.804	670.715
379.000	24.341	839.410	671.045
380.015	24.292	838.983	670.457
381.029	24.053	838.615	669.207
382.044	24.080	837.784	668.585
383.059	24.203	837.519	668.778
384.073	24.414	836.566	668.747
385.088	24.303	836.065	667.874
386.102	24.273	835.805	667.492
387.117	24.123	835.129	666.334
388.132	24.049	834.462	665.467
389.146	23.904	833.821	664.352
390.161	23.301	832.660	661.120
391.175	23.389	832.547	661.302
392.190	23.936	832.504	663.249
393.205	23.898	831.968	662.620
394.219	22.991	830.350	657.899
395.234	21.470	827.885	650.239
396.248	20.758	826.917	646.777
397.263	21.573	828.037	650.625
398.278	23.525	828.960	658.546
399.292	23.913	828.773	659.782
400.307	23.603	828.068	658.014
401.321	23.542	827.642	657.389
402.336	23.662	827.479	657.645
403.350	23.860	827.441	658.290
404.365	24.442	827.222	660.211
405.380	24.781	826.892	661.145
406.394	24.818	826.658	661.033
407.409	24.947	826.325	661.188
408.423	25.047	825.622	660.935
409.438	24.883	825.101	659.852
410.453	24.943	824.534	659.563
411.467	25.041	824.130	659.543
412.482	24.924	823.724	658.728
413.496	24.984	822.994	658.307
414.511	25.012	822.712	658.125
415.526	24.839	822.956	657.629
416.540	25.054	822.117	657.687
417.555	24.933	821.546	656.728
418.569	24.755	820.461	655.153
419.584	24.601	820.175	654.300
420.599	24.692	819.902	654.357
421.613	149.869	1364.641	1782.968
422.628	130.462	1444.038	1783.073
