DTS Sentinel unit serial number:	SN413079Multiplexer serial number:	ORYXHardware model number:	OX4-SRSoftware version number:	ORYX F/W v4.00 Oryx Data Collector v3.7.2.0data status	okinstallation	princeton_trtdifferential loss correction	single-endedforward channel	channel 3reverse channel	N/Adate	2019/09/11time	00:42:11forward acquisition time	60.00reverse acquisition time	0.00gamma	496.2192k internal	0.2331k external	0.2331temperature offset calibration	0.9918default loss term (dB/km)	0.3790temperature slope calibration	1.0000multiplexer offset coefficient	1.0000multiplexer slope coefficient	1.0000fibre end	0.00T internal ref (°C)	29.19T ext. ref 1 (°C)	-0.31T ext. ref 2 (°C)	22.86length (m)	temperature (°C)	Stokes	anti-Stokes-747.200	102.252	0.121	-0.142
-746.185	800.000	-0.039	-0.125
-745.171	152.705	0.207	0.284
-744.156	-68.468	-0.410	0.160
-743.142	-82.887	-0.208	-0.067
-742.127	8.214	0.038	-0.029
-741.112	263.521	0.156	0.272
-740.098	23.738	-0.185	-0.153
-739.083	-200.000	-0.003	0.489
-738.069	262.107	0.219	0.382
-737.054	-61.454	0.134	-0.057
-736.039	-94.836	-0.461	-0.126
-735.025	-23.704	0.072	0.043
-734.010	-200.000	0.013	-0.114
-732.996	533.555	-0.110	-0.262
-731.981	62.624	-0.077	0.078
-730.966	30.466	-0.107	-0.092
-729.952	-200.000	-0.023	-0.247
-728.937	-200.000	0.041	-0.212
-727.923	800.000	-0.051	0.219
-726.908	-200.000	-0.037	-0.216
-725.894	-25.320	-0.179	-0.107
-724.879	-191.826	-0.298	-0.003
-723.864	-74.387	-0.212	0.077
-722.850	-113.840	0.482	0.094
-721.835	-47.013	-0.087	-0.042
-720.821	-62.389	0.333	-0.139
-719.806	-200.000	-0.009	0.105
-718.791	-67.256	-0.156	-0.062
-717.777	74.915	-0.219	0.232
-716.762	-200.000	0.060	-0.275
-715.748	-39.966	-0.225	0.118
-714.733	-200.000	-0.035	0.297
-713.718	363.730	-0.224	0.453
-712.704	-79.353	-0.223	0.076
-711.689	137.184	0.204	0.267
-710.675	-167.101	-0.117	0.005
-709.660	40.860	-0.312	-0.283
-708.645	-106.915	0.155	-0.034
-707.631	-111.945	-0.087	-0.018
-706.616	-82.108	0.239	0.078
-705.602	90.629	0.162	-0.182
-704.587	-200.000	0.042	0.288
-703.572	-113.028	0.498	-0.099
-702.558	-67.487	-0.203	-0.080
-701.543	-108.096	-0.081	0.018
-700.529	94.604	-0.231	0.264
-699.514	-76.394	-0.137	-0.049
-698.499	-200.000	-0.008	0.145
-697.485	800.000	-0.067	0.198
-696.470	-58.793	0.129	-0.056
-695.456	-41.057	0.116	0.060
-694.441	800.000	-0.096	-0.364
-693.426	753.865	-0.029	0.080
-692.412	448.916	-0.073	-0.161
-691.397	-121.605	-0.075	-0.013
-690.383	-200.000	-0.035	-0.238
-689.368	-147.261	-0.355	0.030
-688.354	474.475	0.089	-0.203
-687.339	26.588	0.122	-0.102
-686.324	357.124	-0.062	0.125
-685.310	800.000	-0.079	-0.307
-684.295	61.654	0.149	0.149
-683.281	-200.000	-0.037	0.251
-682.266	2.962	-0.258	0.188
-681.251	-101.244	-0.091	-0.022
-680.237	-104.792	0.101	0.023
-679.222	-200.000	0.032	0.162
-678.208	-97.206	-0.235	0.062
-677.193	-95.988	0.297	0.079
-676.178	-200.000	0.027	0.133
-675.164	162.055	-0.184	-0.259
-674.149	218.219	0.046	0.074
-673.135	220.226	-0.140	-0.226
-672.120	-101.295	-0.137	0.034
-671.105	-125.415	-0.037	0.006
-670.091	-31.325	0.192	0.109
-669.076	66.297	0.272	0.277
-668.062	48.558	-0.254	-0.238
-667.047	-27.707	0.501	-0.292
-666.032	203.837	-0.092	0.142
-665.018	800.000	0.127	0.358
-664.003	571.608	-0.041	0.100
-662.989	23.374	0.180	-0.148
-661.974	800.000	-0.081	0.268
-660.959	-200.000	0.021	0.231
-659.945	800.000	0.124	0.358
-658.930	-72.852	-0.296	0.109
-657.916	135.046	-0.075	0.098
-656.901	-182.130	-0.193	0.004
-655.886	-81.650	-0.140	-0.046
-654.872	717.614	-0.074	0.197
-653.857	571.410	0.098	0.239
-652.843	-152.760	0.101	0.007
-651.828	-131.598	-0.266	-0.035
-650.814	468.963	-0.204	-0.460
-649.799	-200.000	-0.010	0.228
-648.784	800.000	-0.053	-0.186
-647.770	-107.550	0.158	0.035
-646.755	-38.092	-0.432	-0.230
-645.741	-42.714	-0.258	-0.132
-644.726	-120.282	0.129	0.022
-643.711	70.321	0.080	0.083
-642.697	-200.000	0.003	0.157
-641.682	-200.000	0.036	-0.193
-640.668	235.338	0.117	0.193
-639.653	-80.935	-0.121	0.040
-638.638	800.000	0.051	-0.167
-637.624	-200.000	-0.038	-0.247
-636.609	800.000	-0.024	-0.066
-635.595	48.029	0.150	-0.140
-634.580	800.000	0.048	-0.192
-633.565	164.191	-0.132	-0.187
-632.551	-158.626	0.364	0.021
-631.536	772.016	0.017	-0.048
-630.522	-200.000	-0.054	-0.240
-629.507	177.564	-0.116	0.170
-628.492	-92.948	-0.235	0.066
-627.478	-60.966	-0.096	0.041
-626.463	79.443	-0.263	-0.282
-625.449	-23.593	-0.027	-0.016
-624.434	151.773	0.182	0.248
-623.419	441.282	-0.138	0.302
-622.405	404.028	0.099	0.209
-621.390	-10.851	-0.158	-0.105
-620.376	71.464	-0.231	0.240
-619.361	800.000	-0.085	0.241
-618.346	-86.645	-0.270	-0.083
-617.332	-200.000	0.279	0.001
-616.317	115.387	-0.242	-0.296
-615.303	-200.000	0.056	0.372
-614.288	800.000	-0.018	-0.073
-613.273	210.889	-0.122	-0.192
-612.259	105.651	-0.091	-0.108
-611.244	800.000	0.082	0.252
-610.230	-19.800	0.183	0.113
-609.215	-100.435	-0.028	0.007
-608.201	-94.280	0.184	0.050
-607.186	-200.000	0.015	0.109
-606.171	223.233	0.171	0.276
-605.157	-38.151	-0.358	0.190
-604.142	83.550	-0.216	-0.236
-603.128	-122.091	0.090	0.015
-602.113	146.945	0.278	-0.374
-601.098	748.946	-0.124	-0.334
-600.084	-200.000	0.074	-0.477
-599.069	-48.159	0.121	0.059
-598.055	-122.113	-0.273	-0.045
-597.040	23.310	-0.048	-0.039
-596.025	304.746	0.071	0.132
-595.011	-92.418	0.304	0.085
-593.996	86.162	0.098	-0.108
-592.982	51.742	-0.262	-0.249
-591.967	800.000	0.022	0.064
-590.952	-10.326	0.190	0.126
-589.938	-33.919	0.238	0.131
-588.923	-82.808	-0.233	-0.075
-587.909	-200.000	0.035	0.307
-586.894	-30.102	0.197	-0.112
-585.879	-36.546	0.153	-0.082
-584.865	-44.894	-0.155	-0.077
-583.850	800.000	0.077	-0.259
-582.836	-15.203	-0.261	-0.167
-581.821	-113.900	-0.182	0.035
-580.806	-200.000	-0.009	-0.132
-579.792	800.000	0.050	0.211
-578.777	-200.000	-0.008	-0.348
-577.763	-52.198	-0.203	-0.094
-576.748	-58.741	-0.066	0.029
-575.733	420.860	-0.080	-0.172
-574.719	-131.956	-0.217	0.028
-573.704	5.295	-0.359	0.265
-572.690	223.399	-0.087	-0.140
-571.675	-2.778	0.198	-0.138
-570.661	800.000	-0.116	0.483
-569.646	-88.046	0.233	0.070
-568.631	-95.976	-0.208	-0.055
-567.617	-2.497	-0.268	0.188
-566.602	68.905	-0.067	0.069
-565.588	22.629	-0.139	-0.113
-564.573	75.733	-0.135	0.143
-563.558	276.382	-0.064	-0.113
-562.544	93.951	-0.076	0.086
-561.529	183.901	-0.051	-0.075
-560.515	-43.486	-0.116	0.059
-559.500	-200.000	0.004	-0.145
-558.485	174.216	0.092	-0.133
-557.471	-131.449	0.077	-0.010
-556.456	800.000	-0.100	0.353
-555.442	-200.000	-0.021	-0.448
-554.427	-108.340	0.252	-0.054
-553.412	-200.000	-0.009	0.359
-552.398	-116.861	-0.277	0.051
-551.383	-73.132	0.116	0.042
-550.369	-100.497	0.119	0.029
-549.354	-107.518	0.368	0.081
-548.339	-200.000	-0.016	-0.178
-547.325	-67.687	-0.260	0.102
-546.310	306.932	-0.171	-0.318
-545.296	-200.000	0.002	0.384
-544.281	267.562	0.052	0.091
-543.266	298.155	0.126	-0.232
-542.252	2.483	0.163	-0.118
-541.237	415.866	0.078	0.166
-540.223	9.893	-0.182	0.138
-539.208	-145.692	0.142	-0.013
-538.193	800.000	-0.074	0.283
-537.179	800.000	0.016	-0.046
-536.164	-200.000	-0.049	0.358
-535.150	131.296	0.178	-0.228
-534.135	-200.000	-0.035	0.291
-533.121	358.077	-0.114	0.227
-532.106	-200.000	0.002	0.021
-531.091	-200.000	0.005	0.113
-530.077	562.375	-0.100	-0.241
-529.062	51.724	-0.222	-0.211
-528.048	82.715	0.089	0.096
-527.033	800.000	0.123	-0.426
-526.018	464.467	-0.151	-0.336
-525.004	-98.810	-0.537	-0.136
-523.989	-12.834	0.124	-0.080
-522.975	-141.345	0.165	0.017
-521.960	-200.000	0.009	0.133
-520.945	795.486	0.071	-0.196
-519.931	467.059	-0.090	0.202
-518.916	-51.978	0.270	-0.125
-517.902	-15.754	-0.249	0.158
-516.887	-8.181	0.223	-0.150
-515.872	-145.547	-0.240	-0.021
-514.858	-200.000	0.005	0.059
-513.843	92.151	0.081	-0.090
-512.829	270.022	-0.242	0.424
-511.814	-200.000	-0.074	0.362
-510.799	-13.289	0.213	0.138
-509.785	-95.024	-0.088	-0.024
-508.770	-40.002	-0.060	0.031
-507.756	-200.000	-0.049	-0.237
-506.741	24.348	-0.067	-0.055
-505.726	256.105	0.071	-0.122
-504.712	-146.433	0.118	0.010
-503.697	-33.055	-0.135	-0.075
-502.683	-42.915	0.019	0.010
-501.668	800.000	0.078	0.246
-500.653	514.994	-0.094	-0.219
-499.639	12.976	-0.115	-0.089
-498.624	498.333	-0.129	-0.296
-497.610	-77.695	-0.126	-0.044
-496.595	-168.097	-0.353	0.014
-495.581	248.696	-0.198	-0.335
-494.566	-53.441	0.064	0.029
-493.551	-95.048	0.142	0.038
-492.537	-164.418	0.139	-0.006
-491.522	-190.480	-0.547	-0.006
-490.508	480.663	0.028	-0.063
-489.493	-200.000	-0.002	-0.202
-488.478	122.340	0.181	0.225
-487.464	800.000	0.058	-0.235
-486.449	349.788	0.113	0.222
-485.435	800.000	-0.086	-0.306
-484.420	471.410	0.088	-0.197
-483.405	13.168	-0.177	0.137
-482.391	800.000	0.076	0.302
-481.376	504.607	-0.094	-0.218
-480.362	-93.170	0.463	-0.128
-479.347	-200.000	0.073	-0.332
-478.332	-91.439	0.191	-0.054
-477.318	393.848	-0.045	-0.094
-476.303	83.573	0.123	-0.134
-475.289	-200.000	0.002	0.155
-474.274	92.282	0.282	0.316
-473.259	-62.775	0.155	0.064
-472.245	800.000	-0.115	0.402
-471.230	-87.642	-0.234	0.070
-470.216	109.653	-0.050	-0.059
-469.201	-88.827	-0.470	-0.139
-468.186	-46.649	-0.095	0.046
-467.172	-82.513	0.203	-0.066
-466.157	-142.187	0.172	0.017
-465.143	30.046	-0.064	0.054
-464.128	399.542	-0.104	-0.217
-463.113	-200.000	0.019	-0.177
-462.099	800.000	0.087	0.334
-461.084	-104.075	0.054	-0.012
-460.070	-70.593	0.148	-0.056
-459.055	-102.061	0.205	0.049
-458.040	97.628	0.335	-0.383
-457.026	-200.000	-0.050	-0.281
-456.011	28.186	0.104	-0.087
-454.997	-77.661	-0.220	-0.076
-453.982	800.000	0.083	-0.344
-452.968	-104.688	0.364	-0.083
-451.953	-54.506	-0.137	-0.062
-450.938	96.729	0.118	-0.134
-449.924	-39.122	-0.146	-0.076
-448.909	-78.732	0.498	0.169
-447.895	-92.102	0.242	0.068
-446.880	40.815	-0.097	-0.087
-445.865	39.193	0.172	-0.153
-444.851	800.000	0.093	-0.274
-443.836	264.295	0.044	0.077
-442.822	-47.233	0.279	-0.135
-441.807	-68.673	-0.254	-0.098
-440.792	-80.639	0.259	0.086
-439.778	-200.000	0.036	-0.158
-438.763	82.078	-0.270	-0.291
-437.749	800.000	-0.038	0.137
-436.734	-90.780	0.278	0.080
-435.719	-130.881	-0.251	-0.033
-434.705	119.891	0.138	-0.171
-433.690	57.509	0.237	0.231
-432.676	-200.000	0.015	0.160
-431.661	-16.269	0.177	0.112
-430.646	-200.000	0.053	-0.247
-429.632	231.053	0.020	0.032
-428.617	-91.739	-0.042	0.012
-427.603	-77.421	0.223	-0.077
-426.588	-52.528	0.176	0.081
-425.573	-102.636	0.235	-0.056
-424.559	-36.543	0.101	0.054
-423.544	-8.404	0.400	0.267
-422.530	26.025	-0.236	0.196
-421.515	-101.137	0.364	-0.089
-420.500	-24.933	-0.322	-0.190
-419.486	-70.551	-0.131	0.049
-418.471	147.656	0.082	-0.110
-417.457	147.668	0.109	-0.146
-416.442	260.610	0.189	0.325
-415.428	-70.819	0.056	-0.021
-414.413	-91.237	-0.095	-0.027
-413.398	259.246	0.107	0.184
-412.384	-35.769	0.182	-0.098
-411.369	800.000	-0.049	-0.189
-410.355	59.887	-0.178	0.175
-409.340	-132.402	0.160	-0.021
-408.325	469.510	0.102	0.227
-407.311	-6.596	-0.276	0.187
-406.296	54.820	-0.032	0.031
-405.282	800.000	-0.066	-0.236
-404.267	657.051	0.052	-0.132
-403.252	-86.992	0.146	-0.044
-402.238	-49.543	-0.046	0.022
-401.223	-70.581	-0.268	-0.101
-400.209	-54.597	0.155	-0.070
-399.194	93.951	-0.320	-0.361
-398.179	-192.861	0.035	0.000
-397.165	-106.448	-0.230	-0.051
-396.150	-200.000	-0.007	-0.482
-395.136	585.114	-0.027	0.067
-394.121	800.000	0.021	-0.059
-393.106	187.377	-0.004	0.005
-392.092	70.972	-0.199	0.204
-391.077	-200.000	0.000	0.117
-390.063	11.337	0.041	0.031
-389.048	-200.000	-0.026	-0.510
-388.033	250.348	0.048	-0.082
-387.019	-200.000	0.029	0.143
-386.004	1.514	0.086	0.062
-384.990	206.088	-0.129	0.199
-383.975	303.213	0.018	0.033
-382.960	-104.954	-0.466	0.106
-381.946	-86.293	0.289	-0.088
-380.931	128.665	-0.043	0.054
-379.917	-61.214	-0.308	-0.129
-378.902	397.280	0.072	0.149
-377.888	191.563	-0.195	0.291
-376.873	-108.546	-0.436	0.093
-375.858	176.714	-0.092	0.132
-374.844	800.000	-0.030	-0.086
-373.829	120.068	-0.064	0.079
-372.815	-44.999	0.158	-0.078
-371.800	215.165	0.021	0.033
-370.785	-75.010	0.091	0.032
-369.771	-126.782	0.130	-0.019
-368.756	9.587	-0.117	0.088
-367.742	-70.772	-0.100	0.037
-366.727	-73.706	-0.134	-0.048
-365.712	56.280	-0.183	-0.176
-364.698	-87.235	0.080	-0.024
-363.683	25.194	-0.254	-0.209
-362.669	-107.959	0.214	-0.046
-361.654	-49.817	0.153	-0.072
-360.639	11.960	0.168	0.128
-359.625	0.918	-0.461	0.327
-358.610	800.000	0.014	0.058
-357.596	274.952	-0.031	-0.055
-356.581	-152.769	-0.517	0.036
-355.566	-90.925	-0.096	-0.027
-354.552	-60.734	0.151	-0.064
-353.537	-166.898	0.325	0.013
-352.523	355.004	0.194	-0.383
-351.508	800.000	0.058	0.177
-350.493	213.666	-0.116	-0.181
-349.479	194.632	0.123	-0.185
-348.464	124.447	-0.031	-0.039
-347.450	-131.591	0.207	0.027
-346.435	-108.748	0.224	-0.048
-345.420	-112.179	0.223	-0.044
-344.406	31.964	0.175	0.150
-343.391	450.971	0.048	-0.106
-342.377	-144.055	-0.256	0.024
-341.362	104.066	-0.143	0.167
-340.348	77.427	-0.068	-0.072
-339.333	78.058	0.315	0.333
-338.318	800.000	0.099	0.361
-337.304	440.126	-0.031	0.068
-336.289	-158.869	-0.191	-0.011
-335.275	23.216	0.168	-0.137
-334.260	-116.322	-0.110	-0.020
-333.245	497.233	0.035	0.079
-332.231	-200.000	-0.012	-0.098
-331.216	-102.440	0.335	-0.079
-330.202	-200.000	0.000	-0.009
-329.187	-95.265	-0.169	0.045
-328.172	134.093	-0.152	0.194
-327.158	-34.111	-0.066	0.036
-326.143	-115.386	0.259	-0.048
-325.129	800.000	0.069	0.232
-324.114	800.000	0.095	0.261
-323.099	-126.312	-0.603	0.089
-322.085	-99.346	0.319	-0.080
-321.070	800.000	0.093	0.287
-320.056	463.673	0.104	0.229
-319.041	8.309	0.157	0.117
-318.026	-146.788	-0.287	0.025
-317.012	242.927	0.178	0.296
-315.997	47.271	0.181	-0.167
-314.983	144.177	0.061	-0.080
-313.968	800.000	0.083	-0.233
-312.953	-80.790	-0.196	-0.064
-311.939	33.778	0.163	0.140
-310.924	-174.518	0.120	-0.003
-309.910	-14.901	0.045	-0.029
-308.895	-145.455	0.158	-0.014
-307.880	11.033	0.215	-0.163
-306.866	580.491	-0.042	-0.101
-305.851	-200.000	-0.013	0.064
-304.837	98.858	-0.044	0.050
-303.822	-87.994	-0.424	0.126
-302.807	-200.000	-0.034	-0.204
-301.793	-200.000	-0.024	0.248
-300.778	-135.670	-0.377	-0.044
-299.764	-38.187	0.285	0.149
-298.749	106.230	0.236	0.277
-297.735	-109.763	0.099	-0.021
-296.720	-200.000	0.000	-0.021
-295.705	-62.835	0.167	0.068
-294.691	70.662	0.162	0.166
-293.676	26.564	-0.132	-0.110
-292.662	786.795	-0.061	-0.165
-291.647	800.000	0.066	-0.187
-290.632	-36.146	0.380	0.203
-289.618	146.969	0.064	-0.084
-288.603	800.000	0.043	-0.145
-287.589	-70.630	0.168	-0.063
-286.574	162.565	-0.024	-0.033
-285.559	-97.994	0.227	0.058
-284.545	248.463	-0.088	0.147
-283.530	-17.431	-0.165	0.103
-282.516	126.134	-0.166	-0.207
-281.501	-129.369	-0.141	-0.019
-280.486	-184.574	0.398	-0.006
-279.472	-200.000	0.034	-0.230
-278.457	-145.519	0.169	-0.015
-277.443	800.000	0.089	-0.262
-276.428	232.178	0.260	-0.422
-275.413	-84.351	-0.389	0.122
-274.399	-200.000	-0.034	0.159
-273.384	-200.000	0.023	-0.198
-272.370	-44.057	0.062	-0.031
-271.355	39.576	0.088	0.078
-270.340	-37.443	0.230	0.121
-269.326	-26.791	-0.303	0.175
-268.311	-4.003	0.168	-0.115
-267.297	-67.262	-0.036	-0.014
-266.282	-200.000	0.003	0.110
-265.267	-73.917	-0.284	-0.102
-264.253	-21.597	0.251	0.151
-263.238	-105.681	0.136	-0.030
-262.224	-160.735	0.431	0.023
-261.209	60.010	-0.105	0.102
-260.195	-200.000	-0.010	0.087
-259.180	-200.000	0.013	-0.109
-258.165	-60.885	-0.254	0.106
-257.151	104.859	0.163	0.189
-256.136	194.741	0.193	0.289
-255.122	371.371	-0.152	0.305
-254.107	682.515	-0.070	-0.181
-253.092	-61.823	-0.123	0.051
-252.078	-129.273	0.435	0.060
-251.063	-89.223	-0.447	-0.130
-250.049	13.384	-0.060	-0.046
-249.034	800.000	0.029	0.093
-248.019	-200.000	-0.002	-0.010
-247.005	309.170	-0.003	-0.005
-245.990	-100.611	0.409	0.100
-244.976	-130.412	-0.190	0.025
-243.961	-30.218	0.086	-0.048
-242.946	-71.562	-0.390	-0.144
-241.932	-159.317	0.740	-0.041
-240.917	-131.293	-0.461	-0.060
-239.903	-42.689	-0.316	-0.159
-238.888	57.543	0.198	-0.190
-237.873	-200.000	0.038	-0.177
-236.859	144.189	-0.251	0.331
-235.844	389.789	0.137	0.280
-234.830	57.384	0.084	0.081
-233.815	-200.000	-0.009	-0.099
-232.800	165.283	-0.243	-0.338
-231.786	-200.000	0.001	-0.075
-230.771	132.178	0.242	0.308
-229.757	800.000	0.053	0.160
-228.742	303.947	0.124	0.227
-227.727	-96.370	0.196	0.051
-226.713	185.242	-0.174	0.254
-225.698	-38.360	-0.251	-0.131
-224.684	-21.176	-0.308	-0.186
-223.669	-91.473	0.146	0.041
-222.655	-78.815	-0.293	-0.099
-221.640	22.118	-0.184	0.148
-220.625	126.372	0.120	-0.150
-219.611	62.852	-0.091	-0.090
-218.596	-59.267	0.118	0.050
-217.582	-200.000	0.021	0.197
-216.567	275.375	0.159	0.278
-215.552	195.448	-0.078	0.116
-214.538	42.700	-0.222	0.199
-213.523	-75.440	0.128	-0.045
-212.509	-21.560	-0.402	-0.242
-211.494	-51.127	-0.206	-0.095
-210.479	-200.000	0.003	0.089
-209.465	76.642	-0.105	0.110
-208.450	-34.852	-0.173	0.093
-207.436	-125.120	0.079	-0.012
-206.421	-94.647	0.192	0.051
-205.406	-10.241	0.083	0.054
-204.392	676.569	0.044	0.114
-203.377	-156.578	-0.262	0.016
-202.363	308.101	0.094	0.172
-201.348	-9.407	0.267	-0.176
-200.333	626.777	-0.075	0.187
-199.319	165.810	-0.093	-0.130
-198.304	800.000	0.024	-0.074
-197.290	-200.000	0.034	0.346
-196.275	-200.000	0.059	0.260
-195.260	19.637	0.126	0.100
-194.246	-200.000	-0.044	0.285
-193.231	-13.945	-0.159	-0.101
-192.217	-135.585	0.310	0.036
-191.202	168.634	-0.308	-0.433
-190.187	-33.685	-0.174	-0.094
-189.173	-119.099	-0.414	0.071
-188.158	-91.272	0.243	-0.068
-187.144	800.000	-0.035	0.113
-186.129	-77.290	0.251	-0.086
-185.114	-200.000	0.009	-0.052
-184.100	403.695	-0.048	0.099
-183.085	84.394	-0.055	-0.060
-182.071	-106.258	0.134	0.030
-181.056	-200.000	-0.016	-0.117
-180.042	-93.812	-0.146	0.040
-179.027	-74.054	0.219	0.078
-178.012	-93.578	-0.234	0.064
-176.998	284.967	-0.198	0.350
-175.983	-4.998	0.092	0.063
-174.969	78.410	0.140	0.147
-173.954	0.388	-0.133	0.093
-172.939	-200.000	-0.010	0.231
-171.925	-121.377	-0.059	-0.010
-170.910	-56.248	-0.144	-0.063
-169.896	181.509	-0.205	-0.296
-168.881	643.689	0.083	-0.208
-167.866	162.784	0.241	0.333
-166.852	-4.951	0.155	0.105
-165.837	57.515	-0.058	-0.056
-164.823	-129.621	0.471	-0.064
-163.808	79.481	0.161	-0.170
-162.793	800.000	0.062	0.193
-161.779	-200.000	0.019	0.140
-160.764	800.000	-0.128	-0.417
-159.750	27.532	0.163	0.135
-158.735	31.935	-0.101	-0.086
-157.720	409.279	0.009	0.018
-156.706	117.849	-0.085	-0.103
-155.691	-200.000	-0.027	0.306
-154.677	96.079	-0.176	0.198
-153.662	-200.000	-0.001	-0.040
-152.647	800.000	0.020	-0.081
-151.633	800.000	-0.062	-0.211
-150.618	21.612	-0.211	0.169
-149.604	23.031	0.207	-0.167
-148.589	56.807	-0.244	0.234
-147.574	-10.276	0.197	-0.128
-146.560	32.330	-0.060	0.051
-145.545	130.439	-0.172	0.217
-144.531	-83.358	-0.152	-0.048
-143.516	46.668	0.134	-0.122
-142.502	56.037	0.112	0.106
-141.487	-16.774	-0.180	0.112
-140.472	800.000	-0.073	-0.269
-139.458	-200.000	0.007	-0.232
-138.443	-200.000	0.017	0.125
-137.429	108.311	0.267	0.313
-136.414	160.443	0.188	-0.258
-135.399	-200.000	0.058	0.303
-134.385	398.883	-0.076	-0.157
-133.370	-107.820	0.262	-0.056
-132.356	85.619	0.061	-0.066
-131.341	-200.000	0.002	-0.156
-130.326	-54.795	0.292	-0.130
-129.312	-200.000	0.044	-0.238
-128.297	478.454	-0.183	-0.407
-127.283	201.795	-0.174	0.263
-126.268	-38.151	0.312	0.163
-125.253	462.935	0.099	-0.217
-124.239	800.000	-0.058	-0.203
-123.224	-101.117	-0.225	-0.054
-122.210	156.073	0.153	0.207
-121.195	-77.190	0.273	0.093
-120.180	800.000	0.065	0.179
-119.166	591.201	-0.081	0.195
-118.151	-149.190	0.091	0.007
-117.137	42.802	-0.055	0.049
-116.122	-65.918	0.167	-0.066
-115.107	340.272	0.052	-0.099
-114.093	-103.614	0.353	0.081
-113.078	230.097	0.121	-0.194
-112.064	-16.625	0.235	-0.146
-111.049	215.462	-0.077	0.120
-110.034	-142.096	0.274	0.027
-109.020	-135.706	-0.395	0.046
-108.005	586.310	-0.041	0.099
-106.991	-12.133	0.181	-0.116
-105.976	-200.000	-0.028	-0.259
-104.962	-156.134	-0.116	-0.007
-103.947	-200.000	-0.048	0.288
-102.932	-125.871	-0.227	-0.034
-101.918	237.169	0.093	0.151
-100.903	19.996	-0.038	0.030
-99.889	-200.000	-0.032	0.468
-98.874	-26.641	0.218	-0.125
-97.859	-75.684	0.288	0.100
-96.845	-100.997	-0.183	0.044
-95.830	238.659	-0.068	-0.111
-94.816	800.000	-0.061	0.242
-93.801	204.835	-0.224	0.340
-92.786	800.000	0.075	0.289
-91.772	-53.762	0.474	0.212
-90.757	285.277	0.077	-0.137
-89.743	3.726	0.205	-0.147
-88.728	800.000	-0.087	-0.239
-87.713	-99.174	-0.142	0.035
-86.699	3.154	0.253	-0.181
-85.684	-118.501	0.223	0.039
-84.670	65.618	0.172	0.171
-83.655	-200.000	0.059	-0.412
-82.640	800.000	-0.076	-0.304
-81.626	-115.693	-0.419	-0.077
-80.611	95.649	0.229	-0.256
-79.597	2.678	-0.394	0.280
-78.582	409.811	0.111	-0.230
-77.567	76.118	-0.106	0.111
-76.553	-109.096	0.268	0.056
-75.538	-200.000	0.001	-0.061
-74.524	-148.389	0.228	0.018
-73.509	-200.000	-0.011	0.210
-72.494	800.000	-0.047	-0.168
-71.480	71.632	0.277	0.282
-70.465	-56.281	0.111	-0.048
-69.451	-200.000	0.001	-0.105
-68.436	76.620	0.080	0.083
-67.422	-200.000	-0.002	-0.130
-66.407	-50.404	0.116	-0.054
-65.392	800.000	0.036	0.124
-64.378	-120.148	-0.351	-0.059
-63.363	-31.447	-0.066	-0.036
-62.349	-85.975	0.132	0.040
-61.334	82.292	-0.827	-0.879
-60.319	114.058	0.574	0.684
-59.305	800.000	-0.282	-0.817
-58.290	258.998	0.909	1.536
-57.276	800.000	0.469	1.462
-56.261	-200.000	106.791	621.484
-55.246	522.546	1510.283	3474.524
-54.232	176.366	2701.664	3844.794
-53.217	110.388	2182.135	2568.239
-52.203	39.753	1705.378	1498.702
-51.188	32.371	1517.745	1283.621
-50.173	29.940	1491.725	1245.236
-49.159	50.795	1547.958	1435.751
-48.144	50.943	1564.912	1452.432
-47.130	32.544	1519.639	1286.197
-46.115	29.432	1505.091	1252.746
-45.100	29.277	1501.822	1248.922
-44.086	29.214	1499.614	1246.609
-43.071	29.120	1497.511	1244.180
-42.057	29.132	1495.547	1242.576
-41.042	29.240	1494.435	1242.336
-40.027	29.095	1493.154	1240.244
-39.013	29.118	1491.665	1239.108
-37.998	29.139	1489.974	1237.796
-36.984	29.126	1488.591	1236.513
-35.969	29.190	1487.431	1235.932
-34.954	29.073	1486.257	1234.122
-33.940	29.183	1484.203	1233.099
-32.925	29.183	1483.561	1232.520
-31.911	29.287	1481.995	1231.867
-30.896	29.214	1481.206	1230.674
-29.881	29.323	1479.427	1229.875
-28.867	29.313	1478.220	1228.756
-27.852	29.271	1477.143	1227.530
-26.838	29.253	1475.623	1226.096
-25.823	29.216	1474.445	1224.822
-24.809	29.189	1472.598	1223.064
-23.794	29.294	1471.318	1222.644
-22.779	29.313	1469.787	1221.454
-21.765	29.215	1468.977	1220.082
-20.750	29.251	1467.657	1219.174
-19.736	29.223	1466.657	1218.109
-18.721	29.234	1465.749	1217.380
-17.706	29.180	1464.819	1216.202
-16.692	29.213	1463.272	1215.089
-15.677	29.163	1462.889	1214.395
-14.663	29.217	1461.486	1213.534
-13.648	29.184	1460.397	1212.365
-12.633	29.080	1460.154	1211.431
-11.619	29.121	1458.983	1210.685
-10.604	29.093	1458.201	1209.801
-9.590	29.119	1456.850	1208.803
-8.575	29.250	1455.688	1208.649
-7.560	29.099	1455.142	1207.158
-6.546	29.243	1454.307	1207.360
-5.531	29.029	1453.919	1205.592
-4.517	29.082	1452.164	1204.434
-3.502	29.055	1451.909	1204.000
-2.487	29.086	1450.856	1203.282
-1.473	29.053	1449.935	1202.251
-0.458	29.212	1448.312	1201.897
0.556	26.871	1438.787	1190.318
1.571	23.972	1413.686	1150.730
2.586	20.789	1353.706	1082.061
3.600	19.173	1272.305	1007.459
4.615	18.194	1227.993	966.753
5.629	15.827	1172.615	910.289
6.644	7.727	1088.972	804.442
7.659	0.878	1049.584	741.790
8.673	-0.173	1043.848	732.547
9.688	-0.283	1040.073	729.298
10.702	-0.472	1039.222	727.719
11.717	-0.333	1036.569	726.472
12.731	2.597	1039.595	742.744
13.746	11.285	1052.066	794.053
14.761	18.204	1061.210	834.761
15.775	19.931	1062.664	844.263
16.790	20.161	1062.282	845.007
17.804	20.070	1061.214	843.639
18.819	19.856	1060.528	841.978
19.834	19.906	1059.874	841.625
20.848	19.927	1059.813	841.606
21.863	20.013	1059.412	841.633
22.877	20.036	1058.778	841.164
23.892	20.013	1057.941	840.311
24.907	19.876	1057.164	838.959
25.921	19.991	1056.461	838.881
26.936	20.018	1055.570	838.233
27.950	20.138	1054.312	837.737
28.965	19.942	1053.908	836.396
29.980	19.790	1051.520	833.697
30.994	19.716	1050.403	832.380
32.009	20.043	1049.351	833.046
33.023	20.115	1048.994	833.031
34.038	19.798	1047.670	830.384
35.053	19.820	1046.958	829.854
36.067	20.095	1046.254	830.540
37.082	20.014	1045.463	829.450
38.096	20.090	1044.425	828.918
39.111	20.154	1044.023	828.833
40.126	20.215	1043.163	828.367
41.140	20.327	1041.785	827.732
42.155	20.004	1040.045	824.740
43.169	19.730	1038.626	822.238
44.184	19.723	1037.905	821.562
45.199	19.704	1037.158	820.807
46.213	19.551	1035.941	819.044
47.228	19.510	1035.208	818.199
48.242	19.843	1033.329	818.219
49.257	19.843	1033.089	817.956
50.271	20.013	1031.787	817.656
51.286	20.046	1031.133	817.220
52.301	19.927	1030.574	816.144
53.315	20.072	1029.841	816.173
54.330	20.228	1028.354	815.655
55.344	19.985	1027.793	813.999
56.359	20.080	1027.143	813.855
57.374	19.992	1026.453	812.825
58.388	19.940	1024.999	811.358
59.403	19.867	1024.469	810.525
60.417	19.887	1023.502	809.782
61.432	19.608	1022.952	807.971
62.447	19.733	1022.049	807.772
63.461	19.920	1021.216	807.913
64.476	19.912	1020.513	807.249
65.490	20.031	1019.243	806.727
66.505	19.839	1018.418	805.110
67.520	19.798	1017.852	804.398
68.534	19.984	1016.391	804.034
69.549	19.780	1016.377	803.009
70.563	19.384	1015.265	800.218
71.578	19.295	1014.487	799.125
72.593	19.455	1013.483	799.003
73.607	19.306	1012.229	797.257
74.622	19.229	1011.277	796.079
75.636	19.517	1010.719	796.898
76.651	19.903	1009.592	797.720
77.666	19.571	1009.094	795.727
78.680	19.561	1007.796	794.586
79.695	19.533	1007.790	794.383
80.709	19.585	1006.579	793.596
81.724	19.679	1006.091	793.571
82.739	19.639	1005.433	792.800
83.753	19.684	1004.507	792.203
84.768	19.842	1004.107	792.543
85.782	20.258	1003.002	793.506
86.797	20.426	1002.137	793.517
87.812	20.314	1001.256	792.237
88.826	20.090	1000.376	790.450
89.841	20.183	999.411	790.044
90.855	20.118	998.932	789.298
91.870	20.314	997.449	788.945
92.884	20.284	997.090	788.459
93.899	20.179	996.169	787.181
94.914	20.084	995.329	786.018
95.928	20.225	994.588	786.004
96.943	20.257	993.468	785.195
97.957	19.938	992.544	782.952
98.972	19.732	991.134	780.839
99.987	19.598	990.051	779.311
101.001	19.637	989.440	778.939
102.016	19.854	988.957	779.468
103.030	20.005	987.991	779.317
104.045	19.906	987.201	778.178
105.060	19.810	985.285	776.169
106.074	19.655	983.814	774.247
107.089	19.657	983.668	774.071
108.103	19.899	983.454	774.917
109.118	20.191	982.302	775.250
110.133	19.943	980.731	772.833
111.147	19.811	980.260	771.803
112.162	19.784	978.783	770.455
113.176	19.597	977.723	768.720
114.191	19.658	976.974	768.330
115.206	19.784	975.844	767.937
116.220	19.387	974.544	765.085
117.235	19.352	974.051	764.472
118.249	19.425	972.908	763.833
119.264	19.375	972.234	763.015
120.279	19.473	970.807	762.261
121.293	19.450	970.363	761.742
122.308	19.606	969.702	761.842
123.322	19.737	968.729	761.591
124.337	19.615	967.573	760.077
125.352	19.608	965.988	758.735
126.366	19.077	964.581	755.230
127.381	18.933	963.093	753.368
128.395	19.291	962.892	754.713
129.410	19.873	962.841	757.151
130.424	20.023	962.289	757.307
131.439	20.072	960.574	756.105
132.454	19.855	959.947	754.597
133.468	19.815	959.011	753.620
134.483	19.888	957.902	753.002
135.497	19.957	957.265	752.735
136.512	20.153	956.782	753.141
137.527	20.174	956.216	752.718
138.541	20.216	955.217	752.046
139.556	20.381	954.058	751.782
140.570	20.215	953.902	750.874
141.585	20.227	952.483	749.745
142.600	20.272	952.038	749.519
143.614	20.220	950.787	748.243
144.629	20.270	950.141	747.885
145.643	20.477	949.448	748.165
146.658	20.213	948.513	746.227
147.673	20.217	947.318	745.238
148.687	20.126	946.346	744.018
149.702	20.090	945.282	742.961
150.716	20.016	944.011	741.580
151.731	19.937	943.130	740.482
152.746	20.176	942.514	740.955
153.760	20.249	942.111	740.885
154.775	20.476	941.055	740.957
155.789	20.414	940.463	740.160
156.804	20.323	939.580	739.012
157.819	20.289	938.652	738.073
158.833	20.232	937.760	737.064
159.848	20.410	936.795	736.995
160.862	20.476	935.768	736.404
161.877	20.280	935.327	735.162
162.892	20.212	934.351	734.042
163.906	20.525	933.497	734.630
164.921	20.429	932.471	733.352
165.935	20.399	931.065	732.052
166.950	20.216	930.953	731.129
167.964	20.336	929.794	730.659
168.979	20.300	928.638	729.535
169.994	20.301	927.224	728.363
171.008	20.182	926.535	727.258
172.023	20.475	925.370	727.507
173.037	20.463	924.777	726.929
174.052	20.340	923.495	725.340
175.067	20.031	922.671	723.340
176.081	20.015	922.180	722.824
177.096	20.227	921.279	722.936
178.110	20.221	920.046	721.883
179.125	20.155	918.920	720.661
180.140	19.834	918.263	718.748
181.154	19.882	917.707	718.446
182.169	19.956	916.859	718.026
183.183	20.108	916.729	718.492
184.198	20.441	916.366	719.524
185.213	20.260	915.839	718.297
186.227	20.307	914.935	717.719
187.242	20.368	914.153	717.293
188.256	20.354	913.812	716.903
189.271	20.287	912.868	715.825
190.286	20.358	912.333	715.632
191.300	20.285	910.815	714.078
192.315	19.885	910.046	711.768
193.329	19.263	908.140	707.663
194.344	19.002	906.881	705.546
195.359	19.316	907.730	707.435
196.373	20.086	907.866	710.638
197.388	20.429	907.345	711.571
198.402	20.287	906.374	710.167
199.417	20.191	906.059	709.465
200.432	20.263	905.700	709.415
201.446	20.089	904.801	707.935
202.461	19.713	904.117	705.804
203.475	19.794	903.478	705.571
204.490	19.402	901.831	702.627
205.504	18.417	899.580	696.805
206.519	18.850	899.892	698.747
207.534	19.828	900.098	702.823
208.548	19.869	899.352	702.342
209.563	20.254	899.370	703.859
210.577	20.330	898.351	703.304
211.592	19.959	897.690	701.225
212.607	20.271	897.846	702.546
213.621	20.451	897.082	702.617
214.636	20.354	896.605	701.788
215.650	20.517	895.840	701.784
216.665	20.379	895.086	700.575
217.680	20.421	894.588	700.294
218.694	20.488	894.419	700.370
219.709	20.183	893.107	698.051
220.723	19.929	892.216	696.272
221.738	19.991	891.954	696.255
222.753	20.218	891.316	696.605
223.767	20.144	890.656	695.735
224.782	20.284	889.772	695.541
225.796	20.415	889.072	695.458
226.811	20.543	888.727	695.638
227.826	20.180	887.467	693.139
228.840	19.385	886.378	689.053
229.855	19.365	885.410	688.161
230.869	19.623	885.246	689.001
231.884	19.367	883.414	686.494
232.899	19.286	883.511	686.187
233.913	20.155	883.679	689.716
234.928	20.434	883.065	690.285
235.942	20.133	882.578	688.647
236.957	20.316	881.530	688.496
237.972	20.022	880.626	686.561
238.986	19.849	879.974	685.309
240.001	19.946	879.534	685.287
241.015	19.980	878.912	684.877
242.030	20.054	878.204	684.557
243.045	20.320	877.508	685.003
244.059	20.345	876.974	684.625
245.074	20.457	876.732	684.819
246.088	20.405	875.959	683.947
247.103	19.918	875.144	681.336
248.117	20.067	874.002	680.972
249.132	20.530	874.334	682.991
250.147	20.725	874.051	683.473
251.161	20.833	873.062	683.065
252.176	21.172	872.589	683.964
253.190	21.180	871.712	683.244
254.205	21.150	871.397	682.820
255.220	21.223	871.383	683.035
256.234	21.153	870.548	682.048
257.249	21.091	869.826	681.177
258.263	20.911	869.049	679.808
259.278	21.110	868.681	680.236
260.293	21.143	867.915	679.703
261.307	21.356	866.869	679.652
262.322	20.952	866.795	677.963
263.336	20.830	866.242	676.998
264.351	20.363	864.403	673.688
265.366	19.348	862.299	668.059
266.380	18.872	861.625	665.634
267.395	19.849	861.956	669.613
268.409	20.651	862.282	672.912
269.424	20.519	861.332	671.600
270.439	20.739	861.167	672.262
271.453	20.889	860.589	672.329
272.468	20.925	859.364	671.452
273.482	21.099	858.909	671.708
274.497	21.146	858.880	671.805
275.512	21.070	857.587	670.444
276.526	20.532	856.043	667.114
277.541	20.685	856.075	667.666
278.555	20.920	855.998	668.450
279.570	20.719	855.363	667.123
280.585	20.620	854.306	665.859
281.599	20.716	853.579	665.601
282.614	20.742	853.237	665.377
283.628	20.472	851.974	663.300
284.643	20.118	851.204	661.293
285.657	20.382	851.623	662.567
286.672	20.416	850.317	661.623
287.687	19.842	849.387	658.655
288.701	20.280	849.240	660.149
289.716	20.655	849.015	661.343
290.730	20.287	848.297	659.326
291.745	20.277	847.156	658.345
292.760	20.023	846.208	656.587
293.774	19.949	845.906	656.012
294.789	20.847	846.338	659.693
295.803	21.412	846.428	661.842
296.818	21.426	845.424	661.054
297.833	21.514	845.254	661.195
298.847	21.304	843.934	659.311
299.862	21.006	842.980	657.384
300.876	21.295	842.663	658.169
301.891	21.470	842.373	658.543
302.906	21.473	841.298	657.654
303.920	20.996	840.622	655.274
304.935	20.956	839.947	654.539
305.949	21.208	839.610	655.165
306.964	21.338	839.192	655.269
307.979	21.139	838.386	653.836
308.993	21.087	837.948	653.242
310.008	21.505	837.516	654.412
311.022	21.544	837.432	654.434
312.037	21.516	836.604	653.626
313.052	21.186	836.284	652.084
314.066	21.241	835.083	651.294
315.081	20.491	833.681	647.352
316.095	19.871	832.787	644.292
317.110	20.336	832.684	645.888
318.125	21.145	832.813	648.937
319.139	20.705	832.334	646.873
320.154	19.605	830.210	641.085
321.168	19.326	829.171	639.190
322.183	19.858	829.638	641.468
323.197	20.749	830.104	645.072
324.212	21.030	829.695	645.741
325.227	21.178	829.276	645.902
326.241	21.304	828.717	645.878
327.256	21.147	827.900	644.605
328.270	21.076	827.711	644.136
329.285	21.149	826.451	643.367
330.300	21.069	825.569	642.332
331.314	20.749	824.848	640.534
332.329	20.846	824.527	640.585
333.343	21.074	824.153	641.077
334.358	21.315	824.038	641.816
335.373	21.353	823.396	641.400
336.387	21.449	822.772	641.206
337.402	21.580	822.365	641.315
338.416	21.838	821.800	641.761
339.431	21.725	821.496	641.052
340.446	21.754	821.040	640.746
341.460	21.842	820.699	640.747
342.475	21.849	819.872	640.070
343.489	21.709	819.043	638.853
344.504	21.686	818.647	638.405
345.519	21.897	818.454	638.968
346.533	22.058	817.558	638.795
347.548	22.110	817.348	638.765
348.562	22.138	817.310	638.781
349.577	22.104	816.293	637.805
350.592	21.968	815.997	637.024
351.606	22.063	815.334	636.795
352.621	22.064	815.000	636.482
353.635	22.030	814.525	635.929
354.650	21.892	813.769	634.786
355.665	21.600	812.926	633.016
356.679	20.562	811.253	627.908
357.694	20.518	810.816	627.358
358.708	21.040	810.727	629.116
359.723	21.024	809.933	628.385
360.738	21.370	809.445	629.199
361.752	21.863	809.456	630.924
362.767	21.895	809.428	630.962
363.781	22.131	809.126	631.519
364.796	22.328	808.893	631.990
365.810	22.439	808.505	632.027
366.825	22.540	808.041	631.973
367.840	22.524	807.757	631.638
368.854	22.175	807.134	629.844
369.869	21.951	806.103	628.183
370.883	21.765	805.458	626.957
371.898	22.044	804.858	627.431
372.913	21.817	804.171	626.032
373.927	21.689	803.786	625.220
374.942	21.818	803.280	625.229
375.956	22.083	802.714	625.677
376.971	22.194	801.993	625.456
377.986	22.111	801.608	624.805
379.000	22.310	801.397	625.294
380.015	22.387	800.634	624.915
381.029	22.293	800.096	624.107
382.044	22.288	799.466	623.541
383.059	22.393	799.014	623.507
384.073	22.357	798.568	622.976
385.088	22.472	798.045	622.921
386.102	22.504	797.369	622.451
387.117	22.294	797.037	621.393
388.132	22.240	796.244	620.529
389.146	21.913	795.790	618.968
390.161	21.601	794.783	617.032
391.175	21.593	794.599	616.806
392.190	21.991	794.785	618.298
393.205	22.119	793.858	617.972
394.219	21.163	792.455	613.467
395.234	19.517	790.239	605.926
396.248	18.971	789.245	603.193
397.263	20.215	789.828	607.949
398.278	21.861	791.116	614.662
399.292	22.238	790.938	615.788
400.307	21.902	790.536	614.246
401.321	21.870	789.741	613.461
402.336	21.900	789.754	613.521
403.350	22.164	789.594	614.267
404.365	22.505	789.595	615.404
405.380	22.838	788.854	615.935
406.394	23.031	789.065	616.717
407.409	23.297	788.567	617.202
408.423	23.044	788.100	615.899
409.438	22.887	787.318	614.686
410.453	23.004	786.904	614.715
411.467	23.075	786.833	614.852
412.482	23.109	785.901	614.190
413.496	23.134	785.323	613.769
414.511	23.112	785.199	613.543
415.526	23.105	784.664	613.045
416.540	23.095	784.435	612.779
417.555	23.158	783.933	612.549
418.569	22.896	782.860	610.752
419.584	22.676	782.608	609.739
420.599	22.832	782.051	609.789
421.613	158.043	1363.722	1798.655
422.628	136.624	1448.467	1798.734
