DTS Sentinel unit serial number:	SN413079Multiplexer serial number:	ORYXHardware model number:	OX4-SRSoftware version number:	ORYX F/W v4.00 Oryx Data Collector v3.7.2.0data status	okinstallation	princeton_trtdifferential loss correction	single-endedforward channel	channel 3reverse channel	N/Adate	2019/09/12time	06:06:11forward acquisition time	60.00reverse acquisition time	0.00gamma	496.2192k internal	0.2320k external	0.2320temperature offset calibration	1.0034default loss term (dB/km)	0.3790temperature slope calibration	1.0000multiplexer offset coefficient	1.0000multiplexer slope coefficient	1.0000fibre end	0.00T internal ref (°C)	32.12T ext. ref 1 (°C)	1.55T ext. ref 2 (°C)	27.35length (m)	temperature (°C)	Stokes	anti-Stokes-747.200	800.000	0.065	0.272
-746.185	-43.128	0.240	0.123
-745.171	800.000	0.072	0.295
-744.156	362.084	0.187	0.380
-743.142	800.000	-0.023	-0.089
-742.127	10.313	0.201	0.155
-741.112	-200.000	0.041	-0.214
-740.098	242.294	0.073	-0.124
-739.083	-92.286	-0.352	0.100
-738.069	50.468	-0.254	0.243
-737.054	209.821	-0.166	0.263
-736.039	-200.000	-0.004	-0.155
-735.025	-117.504	0.382	0.070
-734.010	301.262	-0.110	-0.205
-732.996	-162.006	-0.124	-0.006
-731.981	218.351	-0.085	-0.137
-730.966	-97.148	-0.167	-0.044
-729.952	-128.999	-0.306	-0.043
-728.937	121.636	0.106	-0.134
-727.923	27.752	0.150	0.127
-726.908	800.000	0.009	-0.025
-725.894	-2.244	-0.315	0.223
-724.879	25.391	0.302	0.254
-723.864	-58.111	-0.075	-0.033
-722.850	-141.203	0.123	0.013
-721.835	237.334	0.085	-0.143
-720.821	-200.000	-0.037	0.202
-719.806	-200.000	-0.008	-0.103
-718.791	-120.828	-0.367	-0.062
-717.777	126.812	-0.192	0.246
-716.762	53.691	0.195	0.189
-715.748	227.966	0.126	-0.207
-714.733	-200.000	0.030	0.265
-713.718	-200.000	0.035	-0.217
-712.704	179.557	-0.102	-0.151
-711.689	-141.288	0.106	-0.011
-710.675	-200.000	0.019	0.150
-709.660	90.049	-0.218	0.246
-708.645	-114.299	0.340	-0.066
-707.631	-200.000	-0.008	-0.356
-706.616	-200.000	0.009	-0.154
-705.602	-55.845	-0.165	-0.075
-704.587	800.000	0.097	-0.278
-703.572	-72.700	0.308	-0.114
-702.558	341.279	0.174	-0.343
-701.543	800.000	0.025	-0.101
-700.529	82.635	-0.062	-0.068
-699.514	-157.205	-0.267	-0.016
-698.499	-147.639	0.185	-0.016
-697.485	251.603	0.250	0.430
-696.470	56.081	-0.065	0.064
-695.456	-10.477	0.129	0.087
-694.441	-167.451	-0.078	0.003
-693.426	199.983	-0.146	-0.227
-692.412	-200.000	0.001	0.233
-691.397	800.000	0.089	-0.335
-690.383	-68.600	0.170	0.067
-689.368	-114.388	-0.113	0.022
-688.354	800.000	0.011	-0.041
-687.339	50.864	0.104	-0.099
-686.324	-196.664	-0.227	0.002
-685.310	45.837	0.228	-0.213
-684.295	-124.686	-0.305	-0.048
-683.281	-1.067	-0.059	0.042
-682.266	440.758	0.105	0.232
-681.251	211.082	-0.104	0.164
-680.237	-200.000	-0.036	-0.212
-679.222	264.034	0.274	-0.481
-678.208	39.180	-0.208	0.188
-677.193	-59.759	-0.164	0.071
-676.178	-34.531	-0.331	-0.183
-675.164	709.817	-0.089	-0.238
-674.149	-200.000	-0.023	0.302
-673.135	-125.870	-0.202	-0.031
-672.120	-200.000	-0.003	-0.037
-671.105	-69.335	-0.142	0.055
-670.091	-200.000	-0.012	-0.280
-669.076	-200.000	0.002	0.238
-668.062	32.502	0.036	-0.031
-667.047	201.536	0.102	-0.158
-666.032	800.000	0.098	-0.409
-665.018	-63.469	0.139	-0.058
-664.003	-71.669	0.273	-0.103
-662.989	-27.825	-0.404	0.236
-661.974	-139.358	-0.181	0.020
-660.959	537.648	-0.021	0.049
-659.945	-200.000	0.035	-0.270
-658.930	-200.000	-0.040	-0.355
-657.916	800.000	-0.064	0.218
-656.901	-128.164	0.140	0.020
-655.886	123.725	0.064	-0.081
-654.872	-170.659	-0.136	-0.005
-653.857	362.530	0.078	-0.158
-652.843	-200.000	0.043	-0.327
-651.828	740.863	0.056	0.151
-650.814	515.916	-0.080	0.189
-649.799	151.952	-0.089	0.123
-648.784	-7.173	0.105	0.072
-647.770	-22.615	-0.203	-0.124
-646.755	-146.061	-0.202	0.018
-645.741	-89.180	0.212	-0.063
-644.726	399.486	0.043	-0.092
-643.711	-34.071	-0.119	0.066
-642.697	-78.474	0.111	-0.038
-641.682	1.870	0.303	0.220
-640.668	-12.075	0.061	0.040
-639.653	204.082	-0.125	0.195
-638.638	800.000	0.036	0.121
-637.624	18.296	0.149	-0.120
-636.609	120.118	-0.177	-0.222
-635.595	800.000	0.037	0.143
-634.580	-78.277	-0.202	0.070
-633.565	31.831	0.157	0.136
-632.551	-127.825	-0.102	-0.015
-631.536	800.000	0.081	-0.289
-630.522	47.724	0.223	-0.210
-629.507	753.550	-0.093	-0.253
-628.492	-48.393	-0.208	-0.101
-627.478	-96.254	0.022	-0.006
-626.463	100.633	-0.124	-0.145
-625.449	-71.199	0.132	0.050
-624.434	-200.000	0.054	-0.279
-623.419	-200.000	-0.012	-0.372
-622.405	-42.084	0.120	0.062
-621.390	-200.000	-0.004	0.027
-620.376	-200.000	0.036	-0.243
-619.361	-2.443	0.071	0.050
-618.346	-32.226	0.299	0.168
-617.332	-200.000	0.007	0.045
-616.317	484.923	-0.120	-0.275
-615.303	-191.189	0.383	-0.004
-614.288	-48.184	0.274	0.133
-613.273	23.688	-0.251	-0.208
-612.259	-174.321	0.148	0.004
-611.244	183.018	0.112	0.166
-610.230	-145.848	0.080	0.007
-609.215	647.893	-0.095	-0.244
-608.201	-200.000	-0.120	0.000
-607.186	-87.868	-0.214	0.065
-606.171	563.906	0.096	-0.235
-605.157	-69.542	0.171	-0.066
-604.142	-66.251	0.094	0.038
-603.128	-136.237	0.092	-0.011
-602.113	-2.867	0.291	-0.204
-601.098	396.826	-0.076	0.161
-600.084	210.377	-0.155	0.244
-599.069	-78.396	-0.421	-0.145
-598.055	22.263	-0.134	-0.110
-597.040	-27.571	0.340	0.198
-596.025	320.795	-0.072	0.138
-595.011	31.572	-0.131	-0.113
-593.996	-178.498	0.166	-0.004
-592.982	-163.953	-0.202	-0.009
-591.967	800.000	0.070	-0.264
-590.952	-200.000	-0.009	-0.103
-589.938	-70.003	-0.242	-0.093
-588.923	262.875	0.053	0.092
-587.909	800.000	0.019	0.058
-586.894	-65.036	0.480	-0.195
-585.879	-122.098	0.285	-0.047
-584.865	-54.362	-0.045	-0.020
-583.850	48.933	0.167	0.158
-582.836	625.669	-0.110	0.278
-581.821	251.296	-0.071	0.121
-580.806	-49.060	-0.317	0.152
-579.792	137.140	-0.115	0.151
-578.777	503.108	0.030	0.070
-577.763	800.000	-0.121	-0.404
-576.748	-123.579	0.271	0.043
-575.733	-183.074	-0.067	0.001
-574.719	-64.899	0.204	-0.083
-573.704	-21.729	-0.239	-0.146
-572.690	529.035	0.050	-0.119
-571.675	800.000	0.052	-0.159
-570.661	-200.000	-0.018	-0.239
-569.646	-27.001	-0.051	-0.030
-568.631	246.187	-0.049	-0.082
-567.617	-200.000	-0.025	0.317
-566.602	-84.186	-0.466	0.149
-565.588	329.262	0.059	0.114
-564.573	-36.791	-0.042	-0.023
-563.558	-72.810	0.135	-0.050
-562.544	-114.069	0.272	-0.053
-561.529	-130.180	0.359	-0.049
-560.515	10.938	0.139	0.106
-559.500	151.487	-0.078	-0.106
-558.485	-16.305	-0.186	0.118
-557.471	104.472	0.092	-0.109
-556.456	49.245	-0.163	0.154
-555.442	-200.000	-0.152	0.000
-554.427	44.186	0.044	0.041
-553.412	556.854	0.137	-0.332
-552.398	-72.619	0.225	-0.083
-551.383	-26.674	0.144	-0.084
-550.369	-58.339	-0.253	-0.111
-549.354	-200.000	-0.016	0.283
-548.339	532.294	-0.105	0.249
-547.325	98.046	-0.173	0.200
-546.310	-118.112	0.043	0.008
-545.296	202.483	-0.099	-0.154
-544.281	800.000	0.124	-0.400
-543.266	516.840	-0.129	-0.303
-542.252	-81.083	0.283	0.094
-541.237	-93.266	0.460	0.128
-540.223	-113.312	0.169	-0.033
-539.208	-102.764	-0.308	-0.074
-538.193	179.501	0.197	-0.289
-537.179	-200.000	-0.042	-0.223
-536.164	-60.936	0.245	0.104
-535.150	-100.894	-0.055	-0.014
-534.135	39.570	0.263	0.236
-533.121	-43.618	-0.175	-0.089
-532.106	800.000	0.086	-0.260
-531.091	-14.334	0.155	0.100
-530.077	492.325	0.051	0.116
-529.062	800.000	0.011	0.043
-528.048	464.564	-0.098	0.220
-527.033	-86.962	0.131	0.040
-526.018	-61.041	-0.122	0.052
-525.004	224.509	-0.115	-0.186
-523.989	434.698	0.009	0.019
-522.975	475.853	0.090	0.204
-521.960	84.482	-0.137	-0.151
-520.945	-87.817	0.050	0.015
-519.931	-53.844	0.345	0.158
-518.916	115.326	-0.080	0.098
-517.902	-200.000	-0.030	-0.463
-516.887	-20.051	-0.295	-0.182
-515.872	-60.449	0.138	-0.059
-514.858	-50.285	-0.253	0.120
-513.843	88.865	-0.138	0.154
-512.829	-139.093	0.218	0.024
-511.814	-20.017	-0.221	0.136
-510.799	800.000	0.051	0.159
-509.785	-120.834	-0.068	-0.012
-508.770	-200.000	-0.013	0.161
-507.756	-200.000	-0.041	0.286
-506.741	169.522	0.174	0.249
-505.726	175.727	0.042	-0.060
-504.712	112.722	0.086	-0.104
-503.697	-49.658	-0.221	-0.105
-502.683	-34.715	-0.325	-0.178
-501.668	-200.000	0.023	-0.304
-500.653	487.236	-0.076	0.173
-499.639	-200.000	0.029	0.293
-498.624	800.000	0.030	0.096
-497.610	-95.526	0.096	-0.026
-496.595	-200.000	0.020	0.315
-495.581	-10.459	0.348	-0.231
-494.566	257.189	-0.122	0.210
-493.551	627.757	0.134	0.339
-492.537	-200.000	0.009	0.089
-491.522	577.977	-0.192	-0.469
-490.508	-86.996	-0.134	-0.041
-489.493	-119.521	0.230	0.040
-488.478	-65.400	-0.355	0.143
-487.464	103.969	0.118	-0.139
-486.449	-200.000	0.004	0.300
-485.435	10.241	0.264	0.201
-484.420	-200.000	0.031	0.232
-483.405	-6.311	-0.165	0.113
-482.391	23.746	0.098	-0.081
-481.376	426.744	-0.097	-0.209
-480.362	-200.000	0.003	0.190
-479.347	261.672	-0.121	0.209
-478.332	-100.425	-0.165	0.041
-477.318	-200.000	-0.037	-0.351
-476.303	114.726	-0.200	0.244
-475.289	-112.182	-0.130	0.026
-474.274	-132.687	-0.182	0.023
-473.259	800.000	-0.064	0.186
-472.245	353.966	0.018	-0.037
-471.230	26.643	0.298	-0.250
-470.216	95.749	-0.116	0.132
-469.201	-95.840	0.050	-0.013
-468.186	-134.814	-0.184	0.022
-467.172	-67.689	-0.241	-0.094
-466.157	61.302	-0.156	-0.155
-465.143	-200.000	0.029	-0.495
-464.128	189.288	0.083	0.125
-463.113	-200.000	0.057	-0.250
-462.099	-88.219	-0.132	-0.040
-461.084	-164.942	0.278	-0.012
-460.070	114.255	0.036	0.044
-459.055	29.711	-0.185	-0.158
-458.040	-6.192	-0.254	-0.174
-457.026	88.463	-0.140	-0.156
-456.011	-200.000	0.005	-0.166
-454.997	-1.668	0.192	-0.136
-453.982	800.000	-0.087	-0.347
-452.968	-166.312	-0.362	-0.015
-451.953	-86.921	-0.299	0.091
-450.938	-176.898	0.210	-0.005
-449.924	-65.422	0.150	0.060
-448.909	-47.421	0.244	-0.118
-447.895	224.905	-0.016	0.026
-446.880	-200.000	0.001	-0.145
-445.865	588.557	0.067	-0.165
-444.851	52.771	-0.091	-0.087
-443.836	-200.000	0.036	0.163
-442.822	70.195	-0.116	0.120
-441.807	-90.752	0.102	-0.029
-440.792	-200.000	0.021	0.264
-439.778	-200.000	0.056	0.445
-438.763	272.404	0.186	-0.327
-437.749	-142.272	0.182	0.018
-436.734	283.202	-0.069	0.123
-435.719	-200.000	-0.002	0.016
-434.705	12.862	-0.208	-0.160
-433.690	334.156	-0.137	-0.266
-432.676	695.618	0.132	0.346
-431.661	12.052	0.145	-0.111
-430.646	73.694	-0.051	0.054
-429.632	-66.023	0.493	0.197
-428.617	-200.000	-0.041	0.251
-427.603	19.409	0.100	0.080
-426.588	46.152	0.217	0.201
-425.573	-72.220	0.282	-0.104
-424.559	73.302	0.231	-0.242
-423.544	134.562	0.185	0.240
-422.530	800.000	0.071	0.220
-421.515	-15.930	0.136	-0.087
-420.500	75.718	-0.195	0.205
-419.486	131.362	0.230	0.296
-418.471	800.000	-0.017	0.063
-417.457	800.000	-0.018	-0.052
-416.442	641.061	-0.061	0.156
-415.428	-45.287	-0.292	-0.144
-414.413	-200.000	0.035	0.352
-413.398	-61.357	-0.144	-0.061
-412.384	101.609	-0.103	-0.120
-411.369	93.775	0.202	-0.228
-410.355	-80.527	-0.331	0.110
-409.340	168.038	-0.107	0.151
-408.325	107.979	-0.233	0.277
-407.311	455.389	-0.173	0.384
-406.296	-97.430	-0.277	-0.072
-405.282	14.820	0.116	0.091
-404.267	-110.727	-0.263	0.054
-403.252	62.977	0.121	0.121
-402.238	800.000	0.089	0.314
-401.223	800.000	0.083	-0.274
-400.209	-15.661	0.011	0.007
-399.194	236.261	0.085	-0.141
-398.179	32.524	-0.097	-0.084
-397.165	-200.000	0.003	0.255
-396.150	800.000	-0.110	0.341
-395.136	-200.000	-0.007	-0.218
-394.121	-200.000	0.003	-0.134
-393.106	-13.277	-0.066	0.043
-392.092	-200.000	0.006	0.045
-391.077	-57.028	-0.064	-0.028
-390.063	256.423	0.134	0.230
-389.048	800.000	-0.057	0.167
-388.033	-200.000	-0.044	0.258
-387.019	-46.205	-0.226	-0.111
-386.004	111.426	-0.097	-0.116
-384.990	63.453	0.076	0.076
-383.975	425.699	0.076	0.163
-382.960	264.973	0.222	-0.386
-381.946	477.785	-0.078	0.175
-380.931	-82.433	-0.179	0.058
-379.917	-132.797	0.128	-0.016
-378.902	465.914	-0.064	-0.142
-377.888	-132.551	-0.382	-0.049
-376.873	-200.000	-0.008	-0.132
-375.858	-200.000	0.004	0.067
-374.844	-200.000	0.004	0.073
-373.829	118.767	-0.055	-0.068
-372.815	196.766	-0.165	-0.250
-371.800	257.578	0.083	0.143
-370.785	-200.000	-0.004	-0.201
-369.771	-87.262	-0.263	0.079
-368.756	800.000	-0.050	-0.139
-367.742	-58.495	0.070	-0.030
-366.727	27.947	0.098	-0.083
-365.712	800.000	0.045	-0.196
-364.698	94.189	-0.179	0.203
-363.683	-67.647	-0.137	0.054
-362.669	53.579	-0.156	0.149
-361.654	222.254	0.188	0.302
-360.639	-200.000	-0.014	-0.121
-359.625	800.000	0.041	0.149
-358.610	-93.978	-0.124	0.034
-357.596	800.000	-0.030	-0.131
-356.581	-200.000	-0.010	0.049
-355.566	-111.368	0.268	0.055
-354.552	239.497	0.099	-0.164
-353.537	-55.343	-0.540	0.242
-352.523	690.505	0.086	-0.225
-351.508	461.515	0.107	0.238
-350.493	267.826	0.149	-0.259
-349.479	-200.000	-0.017	-0.081
-348.464	-173.767	-0.161	-0.005
-347.450	368.374	-0.103	0.208
-346.435	-5.774	0.348	-0.237
-345.420	800.000	0.010	-0.029
-344.406	800.000	0.046	-0.150
-343.391	-141.733	0.252	-0.025
-342.377	800.000	-0.031	-0.099
-341.362	197.555	0.059	-0.090
-340.348	-68.458	0.195	-0.075
-339.333	-200.000	0.083	-0.398
-338.318	105.831	0.245	-0.289
-337.304	-123.584	0.281	0.044
-336.289	0.305	-0.315	0.224
-335.275	-62.161	-0.150	-0.062
-334.260	-92.033	-0.085	0.024
-333.245	30.350	0.195	-0.166
-332.231	-200.000	-0.016	-0.156
-331.216	496.507	-0.076	0.173
-330.202	30.276	-0.147	-0.125
-329.187	-193.265	0.259	0.002
-328.172	-181.023	-0.126	0.003
-327.158	150.800	-0.238	-0.322
-326.143	242.990	0.026	-0.044
-325.129	-51.604	0.181	-0.084
-324.114	-200.000	0.061	-0.373
-323.099	-33.391	-0.041	0.022
-322.085	-200.000	-0.002	0.189
-321.070	800.000	-0.013	0.037
-320.056	-15.607	-0.104	-0.066
-319.041	-58.830	0.104	0.045
-318.026	800.000	-0.089	0.322
-317.012	-133.942	0.148	-0.018
-315.997	398.689	0.061	0.126
-314.983	800.000	0.076	0.293
-313.968	800.000	-0.091	0.296
-312.953	-200.000	0.042	-0.309
-311.939	64.430	-0.065	0.065
-310.924	-200.000	0.034	0.262
-309.910	-10.909	-0.062	0.040
-308.895	38.577	0.071	-0.063
-307.880	-200.000	0.044	-0.288
-306.866	-94.499	-0.156	0.042
-305.851	9.035	0.190	0.142
-304.837	-121.062	0.142	-0.024
-303.822	800.000	-0.022	0.065
-302.807	-54.487	-0.441	-0.199
-301.793	-95.591	0.211	-0.056
-300.778	256.474	0.100	-0.170
-299.764	800.000	0.051	-0.208
-298.749	213.934	-0.162	-0.254
-297.735	511.665	0.024	0.056
-296.720	-200.000	0.048	0.284
-295.705	-119.065	-0.277	0.048
-294.691	23.275	-0.297	-0.242
-293.676	800.000	-0.094	0.302
-292.662	-105.162	-0.310	-0.070
-291.647	402.095	-0.170	0.356
-290.632	-200.000	-0.017	0.106
-289.618	268.078	-0.153	0.267
-288.603	-125.440	0.162	-0.024
-287.589	-93.543	-0.226	0.062
-286.574	-200.000	0.026	-0.154
-285.559	-103.658	0.241	-0.056
-284.545	800.000	0.047	0.198
-283.530	-86.114	0.216	-0.066
-282.516	-21.648	-0.300	0.182
-281.501	4.205	-0.104	0.075
-280.486	-103.345	-0.312	0.073
-279.472	448.815	0.068	0.149
-278.457	290.079	0.071	-0.128
-277.443	128.292	0.249	0.315
-276.428	38.977	0.158	-0.141
-275.413	84.024	0.210	0.228
-274.399	91.824	-0.126	-0.141
-273.384	-90.862	0.308	0.088
-272.370	-9.165	-0.311	-0.207
-271.355	800.000	-0.068	-0.193
-270.340	475.495	-0.091	0.204
-269.326	-5.662	0.225	-0.153
-268.311	-200.000	0.004	-0.104
-267.297	23.027	0.087	-0.071
-266.282	-200.000	-0.116	-0.579
-265.267	-40.686	0.217	-0.112
-264.253	-13.295	-0.047	-0.030
-263.238	-200.000	-0.011	-0.052
-262.224	353.871	0.119	0.234
-261.209	231.398	-0.253	0.412
-260.195	364.964	-0.106	-0.212
-259.180	-119.167	-0.097	-0.017
-258.165	554.210	0.075	-0.178
-257.151	-78.775	-0.316	0.107
-256.136	-200.000	-0.002	-0.154
-255.122	-123.596	-0.348	0.055
-254.107	450.677	0.083	-0.181
-253.092	71.515	0.198	-0.204
-252.078	590.725	-0.079	0.193
-251.063	-173.836	0.212	0.006
-250.049	49.752	0.097	0.091
-249.034	-101.420	-0.237	0.057
-248.019	288.476	-0.077	0.139
-247.005	-200.000	0.030	0.135
-245.990	266.934	0.087	0.151
-244.976	-38.612	-0.311	-0.163
-243.961	-24.700	0.126	-0.075
-242.946	-200.000	-0.028	0.540
-241.932	792.451	0.136	0.372
-240.917	82.982	0.129	-0.139
-239.903	-23.793	-0.126	0.075
-238.888	5.930	0.131	-0.096
-237.873	-32.618	0.111	0.061
-236.859	-16.198	-0.349	0.220
-235.844	-35.466	-0.184	-0.099
-234.830	146.562	0.212	0.282
-233.815	800.000	0.047	-0.131
-232.800	-176.062	-0.232	0.006
-231.786	-71.303	0.107	0.040
-230.771	100.208	0.183	-0.210
-229.757	543.379	0.114	0.269
-228.742	755.225	-0.067	-0.179
-227.727	-185.577	-0.052	0.001
-226.713	-72.192	0.193	-0.071
-225.698	-152.649	-0.170	-0.012
-224.684	117.231	-0.183	-0.223
-223.669	23.793	0.098	-0.080
-222.655	800.000	-0.100	0.316
-221.640	-200.000	-0.010	0.405
-220.625	592.668	0.092	0.225
-219.611	-79.182	0.023	-0.008
-218.596	99.386	-0.069	-0.079
-217.582	-25.674	-0.097	-0.057
-216.567	-77.939	0.120	-0.041
-215.552	800.000	0.070	0.220
-214.538	471.458	0.090	-0.200
-213.523	-43.881	0.504	0.251
-212.509	451.415	0.044	-0.096
-211.494	800.000	-0.068	-0.197
-210.479	123.861	-0.175	0.218
-209.465	77.826	-0.027	0.029
-208.450	142.398	-0.052	-0.069
-207.436	22.918	-0.333	-0.270
-206.421	48.249	0.202	0.187
-205.406	-200.000	-0.013	-0.123
-204.392	-147.028	-0.343	-0.029
-203.377	-200.000	0.011	0.108
-202.363	4.683	0.184	0.134
-201.348	-52.854	0.264	0.120
-200.333	167.958	-0.091	-0.128
-199.319	28.462	-0.051	-0.043
-198.304	170.785	-0.181	-0.256
-197.290	-129.890	-0.090	-0.012
-196.275	100.583	-0.011	-0.012
-195.260	-200.000	0.004	0.048
-194.246	800.000	0.025	-0.087
-193.231	-122.058	-0.283	-0.046
-192.217	-100.442	0.142	-0.035
-191.202	427.996	-0.070	0.149
-190.187	-32.266	0.318	0.176
-189.173	-133.043	0.234	0.029
-188.158	-200.000	-0.029	-0.146
-187.144	800.000	-0.074	0.209
-186.129	-46.384	-0.118	0.057
-185.114	-128.512	0.363	-0.051
-184.100	150.000	0.156	0.209
-183.085	-59.601	0.121	0.051
-182.071	-97.760	0.150	0.038
-181.056	-109.503	-0.168	-0.035
-180.042	-200.000	-0.011	0.136
-179.027	-200.000	0.004	0.048
-178.012	296.923	-0.054	0.098
-176.998	-200.000	-0.013	-0.212
-175.983	-200.000	-0.031	-0.226
-174.969	125.363	-0.149	-0.185
-173.954	419.942	0.030	-0.063
-172.939	27.075	0.239	-0.199
-171.925	-200.000	0.059	-0.454
-170.910	-77.562	-0.088	0.030
-169.896	-82.967	0.434	-0.138
-168.881	-2.542	0.237	0.164
-167.866	86.906	-0.103	0.113
-166.852	-5.435	-0.364	-0.247
-165.837	-34.412	-0.235	0.127
-164.823	-94.553	-0.463	-0.125
-163.808	418.919	0.105	-0.223
-162.793	-17.981	0.175	-0.108
-161.779	-15.582	0.214	-0.135
-160.764	-200.000	0.008	0.060
-159.750	-17.155	0.227	0.142
-158.735	-54.930	-0.068	-0.030
-157.720	800.000	-0.109	-0.364
-156.706	95.114	-0.121	0.136
-155.691	32.322	-0.171	0.146
-154.677	-134.710	0.283	0.034
-153.662	-2.901	0.229	0.158
-152.647	4.213	0.098	-0.071
-151.633	135.700	-0.156	0.200
-150.618	-151.039	0.097	-0.007
-149.604	-124.448	0.137	0.021
-148.589	82.238	0.035	-0.038
-147.574	-3.855	0.220	-0.151
-146.560	-111.873	-0.386	-0.077
-145.545	-141.088	-0.156	-0.016
-144.531	-63.134	0.358	-0.146
-143.516	-26.830	0.343	-0.198
-142.502	-53.102	0.184	-0.084
-141.487	99.955	-0.173	-0.198
-140.472	223.486	0.146	0.232
-139.458	75.167	-0.079	0.082
-138.443	70.463	-0.096	-0.098
-137.429	-34.430	0.214	0.116
-136.414	-93.787	0.194	0.053
-135.399	25.505	0.310	0.255
-134.385	49.521	-0.115	-0.107
-133.370	-138.353	-0.228	0.025
-132.356	-200.000	0.018	-0.086
-131.341	-52.749	0.481	-0.219
-130.326	331.639	-0.028	0.053
-129.312	-171.386	-0.049	0.002
-128.297	7.300	0.159	0.117
-127.283	211.422	-0.053	0.083
-126.268	28.960	0.174	-0.146
-125.253	-200.000	-0.008	0.070
-124.239	-116.225	0.215	0.039
-123.224	16.110	-0.312	0.243
-122.210	503.875	0.064	0.145
-121.195	800.000	0.025	-0.069
-120.180	73.983	0.197	-0.204
-119.166	-200.000	-0.024	0.121
-118.151	739.954	0.151	-0.400
-117.137	-44.982	0.161	0.079
-116.122	12.925	0.121	-0.092
-115.107	343.024	0.196	0.380
-114.093	303.743	0.127	0.233
-113.078	146.826	0.121	0.161
-112.064	402.676	-0.091	-0.188
-111.049	53.520	0.257	-0.243
-110.034	-6.788	-0.104	-0.070
-109.020	131.139	-0.129	0.164
-108.005	-120.218	-0.044	-0.007
-106.991	109.289	-0.167	0.198
-105.976	28.801	-0.171	0.142
-104.962	261.172	-0.044	-0.075
-103.947	800.000	0.092	-0.270
-102.932	257.179	0.131	0.223
-101.918	-23.206	-0.171	-0.102
-100.903	-200.000	0.014	-0.073
-99.889	534.549	0.074	-0.173
-98.874	-152.634	-0.093	0.007
-97.859	-94.784	-0.125	-0.033
-96.845	46.127	0.104	0.095
-95.830	-93.282	0.150	-0.041
-94.816	172.628	0.210	0.298
-93.801	-162.416	-0.227	-0.011
-92.786	-24.303	0.187	-0.110
-91.772	-200.000	-0.048	0.244
-90.757	116.162	0.146	0.176
-89.743	107.685	-0.099	0.117
-88.728	800.000	0.016	0.066
-87.713	-68.201	-0.459	0.176
-86.699	-90.021	0.412	0.118
-85.684	-26.108	-0.233	-0.135
-84.670	-200.000	-0.027	-0.575
-83.655	-144.811	-0.364	-0.033
-82.640	26.101	0.309	-0.254
-81.626	274.869	0.081	-0.142
-80.611	800.000	0.065	0.198
-79.597	356.472	0.109	-0.213
-78.582	-200.000	0.019	0.327
-77.567	48.348	0.167	0.154
-76.553	-5.565	0.204	0.138
-75.538	-200.000	0.058	0.375
-74.524	800.000	0.136	0.412
-73.509	-33.084	-0.249	0.136
-72.494	328.220	0.118	0.223
-71.480	800.000	0.091	-0.314
-70.465	-148.372	-0.174	0.014
-69.451	189.303	0.055	0.082
-68.436	775.809	-0.034	0.092
-67.422	67.844	0.146	-0.147
-66.407	609.570	0.099	0.244
-65.392	12.880	0.116	-0.089
-64.378	381.537	-0.153	0.308
-63.363	70.299	-0.331	-0.336
-62.349	15.835	-0.284	-0.220
-61.334	11.096	-0.801	-0.603
-60.319	219.945	0.437	0.690
-59.305	353.048	-0.378	-0.739
-58.290	292.424	0.663	1.190
-57.276	380.475	0.828	1.671
-56.261	-200.000	96.067	593.812
-55.246	565.354	1371.075	3272.243
-54.232	161.144	2549.005	3506.949
-53.217	112.078	2163.137	2572.896
-52.203	42.774	1707.515	1530.967
-51.188	35.320	1521.241	1313.104
-50.173	32.892	1494.465	1273.579
-49.159	51.836	1543.656	1445.846
-48.144	53.873	1560.481	1475.515
-47.130	35.535	1520.932	1314.099
-46.115	32.404	1506.122	1279.993
-45.100	32.231	1502.695	1275.854
-44.086	32.141	1500.951	1273.717
-43.071	32.148	1498.393	1271.541
-42.057	32.155	1496.904	1270.271
-41.042	32.179	1495.599	1269.276
-40.027	32.101	1494.679	1267.919
-39.013	32.072	1493.001	1266.248
-37.998	32.081	1492.038	1265.444
-36.984	32.119	1490.792	1264.595
-35.969	32.159	1488.768	1263.096
-34.954	32.202	1487.317	1262.099
-33.940	32.103	1486.588	1260.770
-32.925	32.078	1484.945	1259.161
-31.911	32.212	1483.327	1258.630
-30.896	32.202	1482.063	1257.446
-29.881	32.277	1480.435	1256.515
-28.867	32.237	1479.190	1255.142
-27.852	32.214	1478.206	1254.105
-26.838	32.146	1476.677	1252.299
-25.823	32.155	1474.962	1250.861
-24.809	32.193	1473.371	1249.713
-23.794	32.104	1471.872	1247.796
-22.779	32.216	1470.451	1247.291
-21.765	32.158	1469.804	1246.307
-20.750	32.203	1468.349	1245.322
-19.736	32.125	1467.689	1244.193
-18.721	32.150	1466.199	1243.051
-17.706	32.002	1465.553	1241.471
-16.692	32.139	1464.364	1241.320
-15.677	32.107	1463.055	1239.950
-14.663	32.115	1462.207	1239.232
-13.648	32.113	1461.070	1238.208
-12.633	32.040	1460.181	1236.926
-11.619	32.093	1459.495	1236.646
-10.604	32.060	1458.623	1235.637
-9.590	32.052	1457.657	1234.718
-8.575	32.130	1456.487	1234.194
-7.560	32.074	1455.936	1233.306
-6.546	32.128	1455.271	1233.049
-5.531	32.033	1453.710	1231.057
-4.517	31.991	1453.013	1230.143
-3.502	32.040	1451.602	1229.218
-2.487	31.973	1450.943	1228.173
-1.473	31.945	1450.118	1227.244
-0.458	32.095	1448.250	1226.593
0.556	32.046	1438.772	1215.969
1.571	29.139	1414.704	1176.975
2.586	25.952	1358.313	1110.363
3.600	24.537	1278.685	1036.968
4.615	23.023	1231.826	990.403
5.629	19.300	1173.977	923.892
6.644	9.660	1087.114	807.384
7.659	2.733	1045.684	743.080
8.673	1.762	1040.280	734.493
9.688	1.570	1037.552	731.577
10.702	1.421	1035.843	729.592
11.717	1.457	1033.677	728.174
12.731	4.310	1037.082	744.210
13.746	13.927	1050.723	800.482
14.761	22.348	1061.268	849.264
15.775	24.545	1063.770	861.804
16.790	25.059	1063.197	863.740
17.804	24.837	1062.873	862.330
18.819	24.694	1061.872	860.753
19.834	24.705	1061.308	860.275
20.848	24.906	1060.599	860.590
21.863	25.021	1060.582	861.053
22.877	24.878	1060.685	860.372
23.892	24.932	1059.193	859.348
24.907	24.864	1058.749	858.585
25.921	24.936	1058.019	858.261
26.936	24.932	1057.156	857.466
27.950	24.884	1056.277	856.449
28.965	24.791	1055.239	855.086
29.980	24.751	1053.767	853.624
30.994	24.645	1052.590	852.090
32.009	24.901	1051.774	852.577
33.023	24.957	1051.199	852.298
34.038	24.745	1049.987	850.235
35.053	24.991	1048.401	850.041
36.067	24.790	1048.511	849.104
37.082	24.995	1047.132	848.881
38.096	24.976	1047.146	848.729
39.111	25.075	1046.211	848.363
40.126	25.232	1045.722	848.637
41.140	25.152	1044.045	846.821
42.155	24.832	1043.126	844.490
43.169	24.401	1041.790	841.301
44.184	24.550	1040.572	840.947
45.199	24.549	1039.697	840.159
46.213	24.495	1038.863	839.156
47.228	24.541	1037.688	838.349
48.242	24.587	1037.413	838.272
49.257	24.710	1036.697	838.194
50.271	24.773	1035.912	837.778
51.286	24.955	1035.251	838.023
52.301	25.114	1034.337	837.955
53.315	25.048	1033.900	837.215
54.330	24.907	1032.558	835.399
55.344	24.806	1032.128	834.504
56.359	24.969	1031.087	834.348
57.374	24.852	1030.718	833.429
58.388	24.748	1029.643	832.002
59.403	24.617	1029.234	830.993
60.417	24.798	1027.972	830.738
61.432	24.481	1027.034	828.439
62.447	24.526	1026.853	828.428
63.461	24.609	1026.348	828.329
64.476	24.725	1025.515	828.123
65.490	24.651	1024.765	827.101
66.505	24.440	1023.737	825.222
67.520	24.609	1022.775	825.156
68.534	24.753	1021.884	825.025
69.549	24.554	1021.228	823.508
70.563	24.201	1020.007	820.823
71.578	24.211	1019.006	819.991
72.593	24.190	1018.530	819.437
73.607	24.075	1017.199	817.769
74.622	24.031	1016.422	816.870
75.636	24.212	1015.984	817.275
76.651	24.520	1015.129	817.927
77.666	24.386	1014.088	816.401
78.680	24.232	1013.734	815.342
79.695	24.263	1012.824	814.678
80.709	24.511	1012.246	815.273
81.724	24.548	1011.509	814.778
82.739	24.493	1010.645	813.756
83.753	24.549	1009.636	813.126
84.768	24.765	1009.155	813.652
85.782	25.145	1008.148	814.494
86.797	25.249	1008.166	814.911
87.812	25.203	1006.878	813.586
88.826	24.987	1006.058	811.872
89.841	25.033	1005.130	811.263
90.855	25.084	1004.944	811.270
91.870	25.193	1003.351	810.407
92.884	25.227	1002.651	809.921
93.899	25.098	1001.651	808.459
94.914	24.955	1000.717	806.989
95.928	25.078	1000.388	807.206
96.943	25.120	999.301	806.450
97.957	24.819	998.101	804.057
98.972	24.515	997.300	801.972
99.987	24.271	996.379	800.068
101.001	24.600	995.579	800.829
102.016	24.738	995.386	801.221
103.030	24.902	994.076	800.832
104.045	24.831	992.636	799.283
105.060	24.657	991.741	797.714
106.074	24.519	990.587	796.102
107.089	24.565	989.734	795.550
108.103	24.853	989.714	796.746
109.118	24.797	989.029	795.872
110.133	24.586	987.700	793.796
111.147	24.558	986.601	792.720
112.162	24.417	985.330	791.004
113.176	24.384	984.250	789.920
114.191	24.522	983.450	789.816
115.206	24.545	982.703	789.249
116.220	24.339	981.569	787.362
117.235	24.073	980.954	785.623
118.249	24.305	980.619	786.309
119.264	24.280	979.970	785.608
120.279	24.153	978.534	783.829
121.293	24.128	978.165	783.353
122.308	24.241	977.752	783.449
123.322	24.302	976.935	782.997
124.337	24.323	975.187	781.618
125.352	24.032	974.322	779.580
126.366	23.676	972.601	776.579
127.381	23.281	971.268	773.719
128.395	23.964	971.504	776.821
129.410	24.637	971.232	779.473
130.424	24.758	970.150	779.062
131.439	24.925	968.899	778.716
132.454	24.820	968.085	777.536
133.468	24.945	966.834	777.006
134.483	24.643	966.859	775.644
135.497	24.781	965.798	775.322
136.512	24.893	965.599	775.581
137.527	25.066	964.828	775.642
138.541	25.054	963.657	774.580
139.556	25.040	963.053	773.965
140.570	24.969	962.366	773.037
141.585	25.153	961.048	772.703
142.600	25.131	960.689	772.250
143.614	25.058	960.004	771.317
144.629	25.128	959.257	770.951
145.643	25.304	958.529	771.054
146.658	25.172	957.374	769.490
147.673	25.099	955.947	767.964
148.687	24.969	955.230	766.763
149.702	24.797	954.485	765.362
150.716	24.727	953.108	763.891
151.731	24.885	951.751	763.408
152.746	24.808	951.535	762.840
153.760	24.999	950.810	763.004
154.775	25.146	950.417	763.249
155.789	25.121	949.704	762.501
156.804	25.236	948.373	761.852
157.819	25.244	947.372	761.016
158.833	25.107	946.675	759.806
159.848	25.244	946.166	759.912
160.862	25.438	945.027	759.750
161.877	25.265	944.021	758.143
162.892	25.091	943.075	756.583
163.906	25.151	942.672	756.447
164.921	25.039	941.989	755.359
165.935	24.914	940.649	753.691
166.950	25.178	939.431	753.756
167.964	25.180	938.276	752.775
168.979	25.214	937.739	752.419
169.994	25.057	936.777	750.921
171.008	24.939	935.895	749.654
172.023	25.137	935.073	749.759
173.037	25.272	934.387	749.706
174.052	25.118	933.369	748.178
175.067	25.000	931.906	746.447
176.081	24.914	931.612	745.791
177.096	25.038	930.527	745.373
178.110	24.980	929.997	744.639
179.125	24.808	928.610	742.748
180.140	24.561	927.489	740.762
181.154	24.502	927.496	740.460
182.169	24.748	926.402	740.537
183.183	24.873	926.510	741.076
184.198	25.157	925.736	741.564
185.213	25.133	925.040	740.842
186.227	25.037	924.612	740.039
187.242	25.117	924.145	739.929
188.256	25.407	923.054	740.184
189.271	25.196	922.955	739.171
190.286	25.346	922.130	739.063
191.300	25.068	921.297	737.186
192.315	24.620	919.704	734.008
193.329	23.838	918.176	729.515
194.344	23.434	917.037	726.887
195.359	24.098	917.697	730.071
196.373	24.825	918.288	733.457
197.388	25.060	917.958	734.092
198.402	25.087	916.680	733.114
199.417	25.046	916.417	732.675
200.432	25.123	915.951	732.551
201.446	24.900	915.481	731.198
202.461	24.676	914.605	729.519
203.475	24.729	914.341	729.462
204.490	24.223	912.586	725.935
205.504	23.195	910.491	720.027
206.519	23.622	910.036	721.337
207.534	24.614	910.798	725.910
208.548	24.607	910.241	725.372
209.563	24.963	909.735	726.350
210.577	24.997	909.379	726.141
211.592	24.769	908.565	724.501
212.607	25.297	907.869	726.017
213.621	25.268	907.602	725.624
214.636	25.253	906.947	724.976
215.650	25.186	906.728	724.464
216.665	25.267	905.410	723.673
217.680	25.246	905.225	723.377
218.694	25.416	904.858	723.706
219.709	24.927	904.009	720.993
220.723	24.539	902.871	718.461
221.738	24.941	902.384	719.627
222.753	25.058	901.913	719.659
223.767	24.886	901.577	718.637
224.782	25.091	900.682	718.683
225.796	25.242	900.220	718.853
226.811	25.476	899.664	719.285
227.826	25.007	898.695	716.569
228.840	24.257	896.653	711.884
229.855	24.139	895.931	710.778
230.869	24.319	896.149	711.606
231.884	24.114	895.021	709.827
232.899	24.090	894.752	709.456
233.913	24.836	894.918	712.498
234.928	25.077	894.202	712.824
235.942	24.886	893.894	711.755
236.957	24.983	892.881	711.273
237.972	24.663	892.000	709.235
238.986	24.532	891.311	708.107
240.001	24.647	891.190	708.402
241.015	24.667	889.987	707.464
242.030	24.759	889.912	707.705
243.045	25.002	889.198	708.034
244.059	24.933	889.207	707.707
245.074	25.228	888.373	708.148
246.088	25.100	887.765	707.094
247.103	24.537	887.214	704.374
248.117	24.893	886.119	704.845
249.132	25.304	886.154	706.427
250.147	25.750	886.098	708.071
251.161	25.740	885.613	707.583
252.176	26.029	884.985	708.153
253.190	25.980	884.368	707.407
254.205	26.123	883.671	707.345
255.220	26.030	883.550	706.824
256.234	26.138	882.850	706.624
257.249	26.023	881.993	705.424
258.263	25.789	881.575	704.113
259.278	25.868	880.778	703.721
260.293	25.982	880.675	704.023
261.307	26.120	879.736	703.747
262.322	25.966	879.219	702.673
263.336	25.810	878.775	701.646
264.351	25.404	876.936	698.538
265.366	24.300	874.791	692.483
266.380	23.945	874.141	690.531
267.395	24.716	875.000	694.141
268.409	25.514	875.128	697.277
269.424	25.478	874.094	696.255
270.439	25.556	874.106	696.502
271.453	25.790	873.068	696.519
272.468	25.851	872.506	696.247
273.482	25.837	872.161	695.856
274.497	25.974	872.014	696.203
275.512	25.843	870.384	694.338
276.526	25.255	869.251	691.107
277.541	25.344	869.036	691.218
278.555	25.826	869.173	693.121
279.570	25.677	867.918	691.489
280.585	25.379	867.429	689.892
281.599	25.516	866.967	689.987
282.614	25.668	866.440	690.092
283.628	25.301	865.216	687.648
284.643	24.862	864.746	685.535
285.657	25.207	864.725	686.778
286.672	25.202	863.469	685.701
287.687	24.773	862.365	683.126
288.701	25.006	862.805	684.305
289.716	25.481	862.206	685.579
290.730	25.000	861.606	683.207
291.745	25.049	860.602	682.539
292.760	24.769	860.101	681.015
293.774	24.664	859.675	680.218
294.789	25.519	860.583	684.130
295.803	26.404	860.029	686.993
296.818	26.324	859.349	686.086
297.833	26.444	858.782	686.027
298.847	26.071	857.941	683.881
299.862	25.816	856.810	681.956
300.876	25.877	856.624	681.979
301.891	26.105	856.496	682.680
302.906	26.274	855.256	682.268
303.920	26.010	854.112	680.301
304.935	25.879	854.062	679.707
305.949	26.320	853.821	681.116
306.964	26.210	853.679	680.529
307.979	26.001	852.635	678.850
308.993	26.004	851.724	678.076
310.008	26.189	852.205	679.092
311.022	26.496	851.476	679.607
312.037	26.166	850.932	677.873
313.052	26.107	850.111	676.938
314.066	25.908	849.367	675.538
315.081	25.325	847.747	672.009
316.095	24.500	846.563	667.927
317.110	24.890	847.180	669.812
318.125	25.778	846.965	672.903
319.139	25.516	845.952	671.061
320.154	24.147	844.630	664.849
321.168	23.955	843.624	663.281
322.183	24.703	843.806	666.155
323.197	25.475	844.164	669.253
324.212	25.764	843.924	670.078
325.227	25.939	843.399	670.255
326.241	26.064	843.177	670.483
327.256	25.957	842.655	669.610
328.270	25.778	842.015	668.380
329.285	25.887	840.912	667.848
330.300	25.657	840.484	666.597
331.314	25.520	839.388	665.163
332.329	25.550	838.671	664.645
333.343	26.000	838.040	665.747
334.358	26.281	838.207	666.861
335.373	26.112	837.534	665.642
336.387	26.204	837.355	665.780
337.402	26.374	837.061	666.116
338.416	26.501	836.764	666.288
339.431	26.553	835.978	665.791
340.446	26.656	835.355	665.618
341.460	26.669	835.439	665.673
342.475	26.792	834.563	665.367
343.489	26.705	833.740	664.332
344.504	26.463	833.471	663.174
345.519	26.760	833.256	664.032
346.533	26.990	832.736	664.398
347.548	27.037	832.449	664.284
348.562	26.976	831.906	663.569
349.577	26.956	831.195	662.869
350.592	26.851	830.439	661.825
351.606	26.881	830.012	661.536
352.621	26.901	829.395	661.059
353.635	26.872	828.900	660.501
354.650	26.848	828.253	659.837
355.665	26.493	827.290	657.722
356.679	25.347	825.829	652.342
357.694	25.238	825.414	651.560
358.708	25.813	825.539	653.689
359.723	25.733	825.004	652.916
360.738	26.012	824.897	653.788
361.752	26.534	824.588	655.373
362.767	26.575	823.972	654.976
363.781	26.929	824.066	656.274
364.796	27.199	823.754	656.943
365.810	27.346	823.067	656.867
366.825	27.361	822.901	656.731
367.840	27.224	823.116	656.350
368.854	27.146	821.900	655.040
369.869	26.744	821.145	652.932
370.883	26.687	820.192	651.911
371.898	26.692	819.865	651.613
372.913	26.511	819.268	650.431
373.927	26.572	818.926	650.319
374.942	26.756	818.064	650.239
375.956	26.970	817.329	650.363
376.971	26.810	816.921	649.410
377.986	27.037	816.654	649.952
379.000	27.269	816.092	650.275
380.015	27.200	816.035	649.926
381.029	27.026	815.234	648.610
382.044	27.078	814.276	647.974
383.059	27.055	814.392	647.926
384.073	27.255	813.253	647.678
385.088	27.413	813.007	647.985
386.102	27.248	812.483	646.924
387.117	27.194	811.305	645.736
388.132	26.877	810.935	644.261
389.146	26.828	810.306	643.531
390.161	26.191	809.530	640.598
391.175	26.341	809.366	640.941
392.190	26.918	809.101	642.721
393.205	26.891	808.876	642.391
394.219	26.090	806.786	637.842
395.234	24.158	805.118	629.645
396.248	23.468	803.772	626.101
397.263	24.536	804.719	630.557
398.278	26.465	805.921	638.257
399.292	26.791	805.829	639.279
400.307	26.471	805.452	637.793
401.321	26.409	804.509	636.773
402.336	26.591	804.370	637.245
403.350	26.820	804.238	637.890
404.365	27.363	804.223	639.732
405.380	27.635	803.847	640.330
406.394	27.902	803.660	641.062
407.409	27.900	803.344	640.746
408.423	27.850	802.945	640.196
409.438	27.963	802.176	639.922
410.453	27.993	801.891	639.745
411.467	28.048	801.457	639.534
412.482	27.919	801.138	638.770
413.496	27.931	800.693	638.401
414.511	28.093	800.242	638.550
415.526	27.897	799.820	637.475
416.540	27.935	799.564	637.347
417.555	27.783	798.713	636.081
418.569	27.707	798.041	635.226
419.584	27.658	797.513	634.578
420.599	27.572	797.083	633.881
421.613	110.215	1285.596	1459.003
422.628	94.935	1356.786	1459.110
