DTS Sentinel unit serial number:	SN413079Multiplexer serial number:	ORYXHardware model number:	OX4-SRSoftware version number:	ORYX F/W v4.00 Oryx Data Collector v3.7.2.0data status	okinstallation	princeton_trtdifferential loss correction	single-endedforward channel	channel 3reverse channel	N/Adate	2019/09/10time	17:06:11forward acquisition time	60.00reverse acquisition time	0.00gamma	496.2192k internal	0.2298k external	0.2298temperature offset calibration	0.9906default loss term (dB/km)	0.3790temperature slope calibration	1.0000multiplexer offset coefficient	1.0000multiplexer slope coefficient	1.0000fibre end	0.00T internal ref (°C)	37.62T ext. ref 1 (°C)	-0.37T ext. ref 2 (°C)	31.94length (m)	temperature (°C)	Stokes	anti-Stokes-747.200	800.000	-0.006	-0.024
-746.185	561.315	-0.123	0.303
-745.171	182.162	-0.165	-0.248
-744.156	66.288	-0.317	0.328
-743.142	-110.736	0.370	-0.078
-742.127	-112.078	-0.046	0.009
-741.112	90.721	0.177	0.202
-740.098	-149.148	0.222	0.018
-739.083	199.915	-0.136	0.213
-738.069	-74.400	-0.219	0.081
-737.054	800.000	-0.046	-0.150
-736.039	217.232	-0.101	0.163
-735.025	-117.565	0.106	0.019
-734.010	43.315	0.039	0.036
-732.996	298.694	0.168	-0.316
-731.981	-49.738	0.567	-0.275
-730.966	800.000	-0.034	-0.110
-729.952	-10.991	-0.261	-0.175
-728.937	45.728	-0.202	0.191
-727.923	-179.308	0.136	-0.003
-726.908	122.551	-0.409	-0.522
-725.894	141.505	0.116	0.157
-724.879	-68.094	0.062	0.025
-723.864	-124.654	0.089	0.014
-722.850	40.647	0.106	0.098
-721.835	-51.801	-0.066	-0.031
-720.821	-150.217	-0.178	-0.014
-719.806	800.000	-0.045	-0.176
-718.791	-176.571	0.046	0.001
-717.777	-119.120	-0.352	-0.063
-716.762	526.329	0.065	0.156
-715.748	390.136	-0.038	-0.079
-714.733	-200.000	0.033	-0.365
-713.718	-200.000	0.031	-0.196
-712.704	358.146	0.050	0.102
-711.689	-200.000	-0.024	-0.111
-710.675	-93.686	-0.417	-0.117
-709.660	800.000	-0.075	-0.273
-708.645	-200.000	0.006	0.097
-707.631	20.850	0.245	0.203
-706.616	112.278	-0.022	-0.027
-705.602	4.406	-0.158	-0.118
-704.587	-100.546	0.238	0.060
-703.572	-111.026	0.167	-0.035
-702.558	-200.000	-0.060	-0.382
-701.543	175.782	0.050	-0.075
-700.529	-143.788	-0.218	0.021
-699.514	-70.379	-0.192	-0.074
-698.499	800.000	0.051	-0.211
-697.485	556.623	0.025	0.060
-696.470	-200.000	0.006	-0.161
-695.456	-19.229	0.097	-0.061
-694.441	144.739	0.099	-0.135
-693.426	82.857	-0.147	0.163
-692.412	32.073	-0.183	0.160
-691.397	800.000	0.042	0.139
-690.383	-29.075	-0.199	-0.116
-689.368	63.471	-0.094	-0.096
-688.354	-200.000	-0.006	-0.040
-687.339	29.541	-0.157	0.136
-686.324	174.338	-0.171	-0.252
-685.310	-168.524	0.075	-0.003
-684.295	800.000	-0.078	0.282
-683.281	-95.386	-0.298	-0.082
-682.266	94.293	-0.092	0.107
-681.251	286.748	0.091	-0.167
-680.237	-200.000	0.036	-0.290
-679.222	124.802	0.244	0.313
-678.208	-91.676	-0.118	-0.034
-677.193	800.000	-0.031	0.119
-676.178	800.000	0.060	-0.244
-675.164	-26.604	0.120	0.072
-674.149	800.000	-0.041	-0.150
-673.135	8.405	0.249	-0.191
-672.120	-118.771	0.067	-0.012
-671.105	111.269	-0.109	0.134
-670.091	-200.000	-0.069	-0.371
-669.076	-200.000	-0.012	0.216
-668.062	-55.344	0.151	0.069
-667.047	155.968	-0.028	0.039
-666.032	354.795	0.045	0.091
-665.018	800.000	-0.037	-0.151
-664.003	-122.272	0.324	-0.054
-662.989	800.000	0.050	-0.202
-661.974	-200.000	0.035	-0.199
-660.959	0.468	-0.142	-0.103
-659.945	407.485	-0.127	0.273
-658.930	-21.997	0.237	0.146
-657.916	800.000	0.050	-0.173
-656.901	-200.000	0.005	-0.061
-655.886	-44.156	0.310	-0.158
-654.872	-124.670	-0.149	0.023
-653.857	516.030	0.144	0.343
-652.843	-120.283	0.143	0.025
-651.828	33.502	-0.094	-0.083
-650.814	-4.151	0.377	0.266
-649.799	182.126	-0.149	0.223
-648.784	48.354	-0.197	0.187
-647.770	334.444	-0.153	-0.301
-646.755	800.000	0.114	0.360
-645.741	-115.770	-0.019	0.004
-644.726	-131.733	0.258	-0.034
-643.711	-59.263	-0.189	0.083
-642.697	186.692	0.049	0.074
-641.682	116.217	-0.090	0.112
-640.668	-200.000	0.021	-0.417
-639.653	-6.872	0.039	0.027
-638.638	-11.948	0.065	0.044
-637.624	305.181	0.143	-0.270
-636.609	-15.129	-0.160	0.104
-635.595	-200.000	-0.030	-0.155
-634.580	-49.741	0.289	-0.139
-633.565	769.184	-0.126	0.348
-632.551	-53.750	-0.120	0.056
-631.536	-5.823	0.131	-0.091
-630.522	135.886	-0.129	-0.171
-629.507	123.799	0.221	-0.282
-628.492	-200.000	-0.003	-0.023
-627.478	-200.000	0.060	-0.334
-626.463	-162.855	0.164	-0.008
-625.449	95.605	-0.155	0.180
-624.434	122.478	0.144	0.183
-623.419	89.960	-0.201	-0.228
-622.405	800.000	0.093	0.273
-621.390	-171.630	-0.145	-0.005
-620.376	14.876	0.116	-0.092
-619.361	-79.203	-0.152	-0.053
-618.346	553.209	0.057	-0.139
-617.332	69.628	-0.169	-0.177
-616.317	800.000	-0.045	0.175
-615.303	-200.000	-0.013	0.297
-614.288	-62.903	0.195	-0.082
-613.273	-177.953	-0.324	-0.008
-612.259	800.000	0.046	-0.193
-611.244	106.651	0.188	-0.227
-610.230	217.278	-0.057	0.093
-609.215	195.292	0.110	0.170
-608.201	-112.241	0.095	-0.019
-607.186	121.615	-0.047	-0.059
-606.171	-200.000	0.014	-0.091
-605.157	-109.434	-0.328	-0.070
-604.142	-140.551	-0.125	-0.013
-603.128	-45.391	-0.081	-0.041
-602.113	-157.069	0.353	0.022
-601.098	250.870	-0.029	-0.049
-600.084	200.429	0.056	0.088
-599.069	-159.477	0.245	0.014
-598.055	-169.430	-0.135	-0.005
-597.040	-102.137	-0.333	0.081
-596.025	-200.000	-0.011	-0.148
-595.011	7.920	0.241	0.184
-593.996	766.651	-0.099	0.273
-592.982	15.147	-0.237	-0.189
-591.967	176.405	0.083	0.122
-590.952	-16.606	-0.107	0.069
-589.938	27.416	0.123	-0.105
-588.923	-114.850	-0.148	-0.029
-587.909	-143.151	0.420	-0.041
-586.894	-106.436	0.385	-0.087
-585.879	800.000	-0.084	0.254
-584.865	155.326	-0.079	0.110
-583.850	73.366	-0.151	0.160
-582.836	237.736	-0.065	0.109
-581.821	-128.672	-0.191	0.027
-580.806	-200.000	0.002	-0.064
-579.792	258.980	0.053	0.092
-578.777	-200.000	0.008	0.418
-577.763	158.920	0.028	0.040
-576.748	427.610	-0.069	0.150
-575.733	-200.000	-0.025	0.123
-574.719	-63.512	-0.300	-0.125
-573.704	44.814	-0.192	0.179
-572.690	90.553	-0.015	-0.017
-571.675	800.000	-0.047	0.136
-570.661	68.935	0.143	-0.148
-569.646	157.967	-0.080	0.112
-568.631	257.780	-0.088	-0.153
-567.617	212.561	0.104	0.166
-566.602	750.504	-0.085	-0.233
-565.588	-67.641	0.080	0.032
-564.573	734.261	-0.015	0.040
-563.558	-17.233	-0.187	0.119
-562.544	-200.000	-0.088	0.398
-561.529	-169.863	0.132	0.005
-560.515	-200.000	0.004	-0.031
-559.500	-152.839	-0.265	0.019
-558.485	-23.252	-0.140	0.085
-557.471	-6.779	0.177	0.122
-556.456	28.229	-0.176	0.150
-555.442	-151.639	-0.308	0.023
-554.427	-19.669	0.121	0.076
-553.412	-179.516	-0.427	-0.009
-552.398	576.810	0.056	0.138
-551.383	223.321	0.308	0.503
-550.369	-200.000	0.011	0.251
-549.354	-17.725	0.264	-0.168
-548.339	800.000	-0.023	-0.085
-547.325	800.000	0.114	0.474
-546.310	-20.773	-0.218	-0.136
-545.296	-88.589	-0.546	-0.165
-544.281	-137.919	0.233	0.026
-543.266	800.000	0.071	-0.206
-542.252	-29.578	-0.242	-0.140
-541.237	562.494	-0.139	0.341
-540.223	-18.050	0.218	-0.138
-539.208	800.000	-0.066	-0.227
-538.193	161.703	-0.067	-0.094
-537.179	374.977	-0.141	-0.291
-536.164	178.486	-0.067	0.100
-535.150	-200.000	0.011	-0.364
-534.135	800.000	0.086	-0.329
-533.121	-2.089	0.037	0.027
-532.106	-173.407	-0.229	0.007
-531.091	800.000	-0.043	0.127
-530.077	-143.372	0.434	0.042
-529.062	40.703	0.176	0.161
-528.048	88.671	0.101	0.113
-527.033	-79.810	0.049	-0.017
-526.018	-6.046	-0.188	-0.130
-525.004	-27.675	0.198	0.116
-523.989	74.070	0.122	0.130
-522.975	-108.663	0.312	-0.068
-521.960	-112.411	-0.169	-0.034
-520.945	183.235	-0.018	0.027
-519.931	800.000	-0.035	0.114
-518.916	-55.129	0.252	0.115
-517.902	91.527	0.114	0.130
-516.887	189.843	0.101	-0.154
-515.872	-112.221	-0.111	-0.023
-514.858	-34.189	0.071	-0.040
-513.843	-200.000	0.050	-0.352
-512.829	636.803	-0.123	-0.317
-511.814	800.000	0.078	0.256
-510.799	-102.490	-0.120	-0.029
-509.785	-143.567	-0.208	0.020
-508.770	800.000	0.065	0.191
-507.756	-54.169	-0.224	0.103
-506.741	-30.926	-0.112	0.064
-505.726	-5.865	0.154	0.106
-504.712	-200.000	0.028	0.240
-503.697	-110.266	-0.228	-0.048
-502.683	555.827	0.032	0.077
-501.668	98.198	0.223	0.260
-500.653	-200.000	-0.061	0.364
-499.639	-15.226	-0.181	-0.117
-498.624	-200.000	-0.028	0.164
-497.610	264.129	0.054	0.095
-496.595	800.000	-0.059	0.243
-495.581	-158.603	-0.178	-0.010
-494.566	-153.477	0.106	0.007
-493.551	668.065	-0.003	-0.007
-492.537	119.584	-0.049	-0.061
-491.522	-198.343	0.080	0.000
-490.508	28.515	-0.119	-0.102
-489.493	145.814	0.227	0.308
-488.478	185.587	-0.046	0.069
-487.464	-200.000	-0.027	0.139
-486.449	-85.310	-0.252	0.079
-485.435	317.824	-0.088	-0.168
-484.420	-106.162	0.297	0.067
-483.405	23.611	0.166	0.138
-482.391	365.892	0.113	-0.229
-481.376	-105.998	0.306	0.070
-480.362	-200.000	0.058	0.409
-479.347	158.205	-0.097	0.136
-478.332	-102.638	-0.587	0.141
-477.318	800.000	0.084	0.271
-476.303	-164.438	-0.300	0.014
-475.289	105.108	-0.197	0.235
-474.274	-85.096	-0.216	-0.068
-473.259	9.433	0.151	0.115
-472.245	-26.409	-0.344	0.204
-471.230	-101.188	0.179	0.044
-470.216	593.120	-0.096	-0.240
-469.201	-103.973	0.386	-0.091
-468.186	-118.425	-0.119	0.021
-467.172	141.087	-0.167	0.223
-466.157	-42.365	-0.008	-0.004
-465.143	800.000	-0.036	-0.110
-464.128	800.000	0.069	0.288
-463.113	-200.000	-0.023	-0.273
-462.099	800.000	-0.049	-0.143
-461.084	52.294	0.261	-0.251
-460.070	-155.860	0.234	0.015
-459.055	-138.281	-0.359	0.040
-458.040	187.268	0.172	-0.260
-457.026	263.057	0.188	-0.330
-456.011	60.929	0.130	0.131
-454.997	-25.486	-0.064	0.038
-453.982	-200.000	0.044	-0.305
-452.968	-200.000	-0.029	0.354
-451.953	488.917	-0.042	0.098
-450.938	9.177	-0.198	-0.151
-449.924	-51.651	0.100	0.047
-448.909	-29.748	-0.198	-0.114
-447.895	-142.483	-0.196	-0.019
-446.880	5.586	0.221	-0.165
-445.865	257.225	-0.094	-0.163
-444.851	-25.686	-0.229	-0.136
-443.836	61.886	0.150	0.151
-442.822	27.433	0.046	-0.039
-441.807	2.356	-0.150	-0.110
-440.792	99.236	0.090	0.104
-439.778	-200.000	0.016	0.080
-438.763	-85.500	0.237	-0.074
-437.749	-200.000	-0.084	-0.000
-436.734	-31.873	0.212	0.120
-435.719	-177.358	-0.115	0.003
-434.705	497.417	0.063	-0.146
-433.690	-200.000	0.007	0.074
-432.676	229.823	-0.167	0.275
-431.661	-200.000	0.044	-0.201
-430.646	-21.261	-0.025	-0.015
-429.632	-200.000	0.029	0.165
-428.617	-200.000	-0.004	-0.060
-427.603	-200.000	-0.001	-0.177
-426.588	-134.827	0.173	0.021
-425.573	141.275	0.126	0.168
-424.559	219.004	-0.066	0.106
-423.544	-19.672	0.045	0.028
-422.530	-37.196	0.177	-0.096
-421.515	335.310	0.217	-0.423
-420.500	-200.000	-0.016	0.187
-419.486	-124.843	0.104	-0.016
-418.471	60.857	0.077	-0.077
-417.457	-106.226	-0.125	-0.028
-416.442	393.559	0.015	-0.031
-415.428	430.499	0.095	-0.207
-414.413	-179.423	-0.102	0.002
-413.398	-70.176	0.060	-0.023
-412.384	-125.199	0.232	-0.036
-411.369	-177.895	0.343	-0.008
-410.355	-97.103	-0.060	0.016
-409.340	-200.000	-0.012	-0.159
-408.325	-200.000	0.057	-0.328
-407.311	-21.066	-0.183	0.113
-406.296	800.000	-0.111	0.368
-405.282	-138.859	0.173	-0.019
-404.267	748.969	-0.045	0.123
-403.252	52.766	-0.196	-0.189
-402.238	245.884	-0.030	-0.051
-401.223	157.426	0.163	-0.227
-400.209	20.953	-0.211	0.172
-399.194	-114.927	0.055	-0.011
-398.179	-200.000	0.004	-0.098
-397.165	-97.882	0.336	-0.087
-396.150	262.231	-0.119	-0.208
-395.136	761.915	-0.071	-0.193
-394.121	12.167	0.082	-0.064
-393.106	76.213	-0.196	-0.208
-392.092	631.255	-0.130	0.331
-391.077	20.525	0.324	0.264
-390.063	-121.098	-0.036	0.006
-389.048	-73.498	-0.270	-0.099
-388.033	-107.128	0.055	-0.012
-387.019	-200.000	-0.047	-0.233
-386.004	-153.490	0.413	0.029
-384.990	-200.000	0.019	0.306
-383.975	424.558	0.062	-0.133
-382.960	53.740	0.147	-0.142
-381.946	16.439	-0.042	-0.033
-380.931	-161.766	0.312	-0.016
-379.917	118.389	0.139	0.173
-378.902	-13.597	0.158	-0.103
-377.888	-200.000	-0.025	-0.440
-376.873	415.493	0.053	0.115
-375.858	236.625	0.247	-0.412
-374.844	120.693	-0.177	-0.221
-373.829	-200.000	-0.013	0.234
-372.815	-120.962	0.237	-0.040
-371.800	29.849	-0.204	0.175
-370.785	-200.000	0.019	-0.236
-369.771	-200.000	0.055	0.298
-368.756	800.000	-0.105	-0.404
-367.742	800.000	-0.041	0.116
-366.727	347.343	0.084	0.166
-365.712	-200.000	-0.059	-0.264
-364.698	-200.000	0.018	-0.379
-363.683	-14.569	0.224	-0.145
-362.669	68.633	-0.253	-0.261
-361.654	-104.852	-0.298	-0.069
-360.639	-200.000	-0.007	-0.064
-359.625	-200.000	-0.012	-0.109
-358.610	149.238	0.035	0.048
-357.596	6.883	-0.079	-0.059
-356.581	-123.992	-0.153	-0.024
-355.566	27.727	-0.098	0.083
-354.552	-200.000	-0.073	0.601
-353.537	-25.293	0.157	-0.093
-352.523	800.000	0.071	-0.250
-351.508	21.244	-0.043	-0.035
-350.493	-200.000	-0.008	0.316
-349.479	-59.146	-0.392	-0.170
-348.464	218.061	0.199	-0.319
-347.450	139.891	0.117	-0.154
-346.435	-190.509	0.229	-0.002
-345.420	800.000	0.191	0.599
-344.406	271.258	0.108	0.192
-343.391	28.827	-0.151	0.128
-342.377	-86.229	-0.529	-0.164
-341.362	83.932	-0.081	-0.089
-340.348	206.646	-0.134	0.210
-339.333	-148.694	-0.178	-0.015
-338.318	332.976	0.120	-0.233
-337.304	-200.000	-0.022	-0.235
-336.289	225.151	-0.211	-0.344
-335.275	214.368	-0.112	0.178
-334.260	-136.036	0.345	-0.041
-333.245	94.187	-0.164	0.187
-332.231	-200.000	-0.016	0.127
-331.216	-44.900	0.202	0.101
-330.202	-200.000	-0.009	0.241
-329.187	-200.000	0.038	-0.176
-328.172	186.758	0.103	-0.154
-327.158	800.000	-0.133	0.421
-326.143	-200.000	0.013	-0.181
-325.129	160.402	0.146	-0.205
-324.114	-137.950	-0.225	-0.025
-323.099	-177.785	-0.275	-0.007
-322.085	8.330	0.125	-0.095
-321.070	518.881	0.070	-0.164
-320.056	-200.000	0.067	0.304
-319.041	293.125	-0.254	-0.466
-318.026	-124.478	-0.364	-0.057
-317.012	582.105	-0.110	0.272
-315.997	-85.030	-0.223	-0.070
-314.983	54.537	0.138	-0.133
-313.968	220.406	-0.200	0.323
-312.953	598.595	-0.069	0.171
-311.939	25.253	-0.131	-0.109
-310.924	230.774	0.107	0.175
-309.910	440.919	0.139	-0.306
-308.895	259.149	-0.183	0.317
-307.880	30.011	0.148	0.127
-306.866	-200.000	0.016	0.282
-305.851	800.000	-0.080	0.240
-304.837	205.306	-0.039	0.061
-303.822	-25.926	-0.172	-0.102
-302.807	9.641	0.131	0.100
-301.793	-140.922	0.146	0.015
-300.778	-57.163	0.256	-0.113
-299.764	144.273	0.121	0.163
-298.749	51.368	-0.215	0.205
-297.735	-141.581	0.197	0.020
-296.720	-51.700	0.351	0.164
-295.705	-22.228	0.107	-0.065
-294.691	4.970	0.219	-0.162
-293.676	800.000	0.103	0.338
-292.662	396.538	0.055	-0.114
-291.647	800.000	0.063	0.183
-290.632	49.224	0.080	0.075
-289.618	-48.733	-0.170	-0.082
-288.603	81.527	-0.171	0.185
-287.589	56.122	-0.314	-0.305
-286.574	235.268	-0.088	0.146
-285.559	-170.512	0.035	0.001
-284.545	180.977	0.045	-0.067
-283.530	-200.000	-0.052	0.233
-282.516	-47.710	-0.175	0.085
-281.501	-200.000	-0.017	0.182
-280.486	-200.000	0.009	-0.141
-279.472	578.098	0.075	0.185
-278.457	-119.627	-0.497	0.086
-277.443	120.789	0.262	-0.327
-276.428	365.930	-0.039	0.079
-275.413	800.000	0.101	-0.355
-274.399	-93.132	-0.313	0.087
-273.384	56.494	0.107	-0.104
-272.370	-45.104	0.375	-0.187
-271.355	-13.123	0.024	0.015
-270.340	-100.082	0.143	0.036
-269.326	-134.640	0.146	0.018
-268.311	450.725	0.106	-0.235
-267.297	641.479	-0.125	-0.319
-266.282	112.277	0.231	-0.280
-265.267	-200.000	0.016	0.088
-264.253	279.936	0.095	-0.171
-263.238	-168.174	-0.093	0.004
-262.224	56.705	0.233	-0.228
-261.209	391.386	0.126	-0.261
-260.195	45.724	-0.098	-0.091
-259.180	-46.354	-0.174	0.086
-258.165	313.765	-0.179	-0.338
-257.151	-183.815	-0.138	-0.002
-256.136	272.211	0.109	0.192
-255.122	25.754	-0.025	0.021
-254.107	648.514	-0.066	-0.169
-253.092	755.185	-0.074	-0.201
-252.078	-174.242	0.358	0.010
-251.063	-200.000	0.066	-0.305
-250.049	-5.178	0.198	-0.136
-249.034	-21.177	-0.193	-0.118
-248.019	539.561	-0.051	-0.121
-247.005	2.229	0.109	-0.079
-245.990	-124.826	0.092	0.014
-244.976	2.475	-0.038	-0.027
-243.961	88.717	-0.208	0.231
-242.946	-67.378	0.241	-0.095
-241.932	69.854	-0.041	-0.043
-240.917	-137.509	-0.119	-0.013
-239.903	63.874	0.306	0.307
-238.888	178.724	-0.032	-0.047
-237.873	-200.000	0.012	-0.310
-236.859	-23.001	0.147	-0.089
-235.844	-200.000	-0.081	-0.472
-234.830	-105.152	0.368	-0.084
-233.815	274.612	0.089	-0.158
-232.800	-3.506	-0.278	0.193
-231.786	672.673	-0.112	0.290
-230.771	-200.000	0.008	-0.108
-229.757	-200.000	0.025	0.171
-228.742	27.242	-0.216	0.182
-227.727	-72.716	0.493	-0.182
-226.713	-200.000	-0.003	-0.337
-225.698	-51.027	0.218	0.102
-224.684	-96.527	-0.133	0.035
-223.669	4.650	0.068	0.050
-222.655	800.000	0.165	0.475
-221.640	-21.236	0.311	0.190
-220.625	98.231	0.140	-0.161
-219.611	195.089	-0.063	0.095
-218.596	81.736	-0.064	0.069
-217.582	359.461	0.112	-0.224
-216.567	-60.802	0.077	-0.033
-215.552	800.000	-0.138	0.409
-214.538	-156.864	-0.282	-0.017
-213.523	-4.390	-0.188	-0.130
-212.509	-200.000	-0.090	-0.456
-211.494	-141.539	0.116	-0.012
-210.479	204.290	0.201	0.312
-209.465	-83.997	-0.326	0.104
-208.450	553.786	-0.040	-0.096
-207.436	-143.872	0.051	0.005
-206.421	-37.229	0.197	0.105
-205.406	298.304	0.074	0.136
-204.392	82.654	0.262	0.285
-203.377	46.458	0.251	-0.232
-202.363	237.797	-0.059	-0.097
-201.348	-118.011	0.098	0.018
-200.333	-200.000	0.015	-0.222
-199.319	-70.218	0.222	0.084
-198.304	-200.000	-0.003	0.067
-197.290	-200.000	-0.012	0.088
-196.275	800.000	-0.075	0.242
-195.260	800.000	-0.070	0.198
-194.246	18.309	-0.144	0.115
-193.231	-13.326	-0.232	-0.151
-192.217	-200.000	-0.023	0.377
-191.202	800.000	0.058	-0.187
-190.187	33.215	-0.081	0.070
-189.173	50.209	0.230	0.217
-188.158	122.976	-0.111	0.139
-187.144	-155.704	0.350	-0.022
-186.129	-31.181	-0.180	-0.101
-185.114	22.418	-0.232	-0.190
-184.100	-183.507	0.166	0.003
-183.085	-200.000	-0.027	0.165
-182.071	-85.427	-0.110	0.034
-181.056	715.954	-0.062	0.163
-180.042	-129.104	-0.277	-0.039
-179.027	557.798	-0.113	-0.273
-178.012	-58.784	-0.089	0.038
-176.998	-200.000	-0.018	0.099
-175.983	-109.807	-0.224	-0.047
-174.969	-200.000	0.018	-0.322
-173.954	800.000	-0.113	-0.372
-172.939	-49.383	-0.285	0.136
-171.925	28.758	0.209	0.177
-170.910	-34.201	0.228	-0.125
-169.896	70.105	-0.161	-0.166
-168.881	-97.297	0.159	0.041
-167.866	116.340	0.058	-0.071
-166.852	-200.000	0.028	-0.228
-165.837	-78.629	0.340	-0.116
-164.823	53.591	-0.126	-0.121
-163.808	231.129	-0.120	-0.196
-162.793	-43.494	0.264	-0.133
-161.779	-200.000	0.045	0.375
-160.764	93.500	-0.079	0.090
-159.750	-143.819	0.180	0.017
-158.735	165.365	0.233	-0.328
-157.720	-126.025	-0.433	0.065
-156.706	214.335	0.064	-0.101
-155.691	36.653	0.162	0.143
-154.677	-148.708	-0.216	-0.017
-153.662	614.974	0.135	-0.338
-152.647	800.000	-0.080	0.294
-151.633	38.659	-0.296	0.264
-150.618	191.424	0.063	-0.095
-149.604	216.561	0.150	0.238
-148.589	-138.418	-0.288	0.032
-147.574	-106.801	-0.200	0.044
-146.560	552.154	0.115	0.276
-145.545	-9.062	0.160	-0.107
-144.531	-59.354	-0.136	-0.058
-143.516	-125.966	-0.387	0.058
-142.502	800.000	0.072	0.204
-141.487	-164.038	0.245	0.011
-140.472	-200.000	-0.016	0.208
-139.458	800.000	-0.055	-0.201
-138.443	-48.847	-0.302	-0.144
-137.429	291.295	0.096	0.174
-136.414	68.746	-0.188	0.193
-135.399	94.369	0.006	-0.007
-134.385	274.676	0.122	0.215
-133.370	-52.477	-0.134	-0.062
-132.356	-120.448	-0.182	0.031
-131.341	-59.925	0.280	0.119
-130.326	189.453	0.270	0.403
-129.312	144.980	-0.064	0.086
-128.297	-72.479	0.176	0.065
-127.283	-200.000	0.049	-0.389
-126.268	-142.966	-0.284	-0.027
-125.253	10.918	0.110	0.084
-124.239	-57.370	0.149	-0.065
-123.224	-200.000	0.013	0.289
-122.210	53.702	0.116	0.111
-121.195	178.292	0.014	0.021
-120.180	71.169	0.086	0.089
-119.166	29.712	0.041	0.035
-118.151	-56.939	-0.252	-0.111
-117.137	-200.000	0.023	0.342
-116.122	37.566	-0.246	-0.218
-115.107	800.000	0.058	0.206
-114.093	-200.000	-0.013	0.256
-113.078	-200.000	-0.005	0.298
-112.064	12.856	0.318	0.245
-111.049	-36.713	-0.201	-0.107
-110.034	421.134	-0.183	-0.390
-109.020	-56.841	-0.309	-0.136
-108.005	-151.019	0.174	0.013
-106.991	-189.752	0.186	0.002
-105.976	59.050	0.043	0.042
-104.962	-200.000	0.020	0.192
-103.947	40.092	0.107	0.096
-102.932	800.000	-0.008	0.026
-101.918	-158.789	-0.079	0.004
-100.903	15.970	0.247	0.193
-99.889	-87.077	-0.043	-0.013
-98.874	-200.000	-0.046	-0.275
-97.859	369.927	0.100	-0.202
-96.845	-35.080	0.018	-0.010
-95.830	85.199	0.262	-0.286
-94.816	-175.363	0.031	-0.001
-93.801	-2.062	-0.160	0.112
-92.786	65.384	-0.274	0.276
-91.772	71.483	-0.266	0.275
-90.757	800.000	-0.009	0.025
-89.743	-188.269	0.367	0.005
-88.728	-177.979	0.124	-0.003
-87.713	-200.000	0.012	-0.289
-86.699	-0.824	0.210	0.148
-85.684	-200.000	0.000	-0.131
-84.670	-200.000	0.016	0.251
-83.655	3.336	0.266	0.193
-82.640	371.160	-0.029	0.058
-81.626	-143.959	0.408	0.038
-80.611	-200.000	-0.003	0.317
-79.597	20.871	0.253	0.204
-78.582	800.000	0.145	-0.420
-77.567	-200.000	-0.049	-0.293
-76.553	-114.518	-0.356	0.068
-75.538	-200.000	0.051	0.371
-74.524	-62.776	0.270	0.111
-73.509	729.752	-0.051	-0.136
-72.494	114.191	0.070	-0.084
-71.480	98.859	0.082	0.094
-70.465	-69.927	0.207	-0.079
-69.451	-200.000	0.065	0.384
-68.436	-18.495	-0.276	-0.171
-67.422	800.000	0.040	0.127
-66.407	771.935	0.130	-0.353
-65.392	800.000	0.037	-0.102
-64.378	119.804	0.222	-0.273
-63.363	342.156	0.174	-0.338
-62.349	192.664	0.217	0.325
-61.334	113.698	-0.686	-0.829
-60.319	120.088	0.677	0.834
-59.305	-200.000	-0.150	-0.744
-58.290	433.533	0.409	0.881
-57.276	376.046	0.675	1.368
-56.261	-200.000	85.561	504.116
-55.246	549.376	1375.759	3276.242
-54.232	180.269	2626.533	3827.488
-53.217	117.823	2273.863	2782.046
-52.203	47.355	1801.753	1667.586
-51.188	40.672	1606.725	1438.791
-50.173	38.178	1579.258	1396.338
-49.159	54.624	1623.163	1554.587
-48.144	58.612	1642.819	1602.247
-47.130	41.214	1601.751	1438.030
-46.115	37.967	1587.101	1401.538
-45.100	37.695	1584.117	1396.899
-44.086	37.549	1582.506	1394.373
-43.071	37.610	1579.518	1392.125
-42.057	37.597	1578.071	1390.700
-41.042	37.636	1576.752	1389.760
-40.027	37.579	1575.657	1388.333
-39.013	37.549	1573.752	1386.382
-37.998	37.547	1572.318	1385.053
-36.984	37.679	1571.064	1384.831
-35.969	37.641	1569.659	1383.267
-34.954	37.623	1568.165	1381.772
-33.940	37.605	1567.227	1380.759
-32.925	37.646	1565.195	1379.206
-31.911	37.611	1563.995	1377.843
-30.896	37.714	1562.426	1377.138
-29.881	37.719	1561.168	1376.011
-28.867	37.680	1559.785	1374.461
-27.852	37.704	1558.818	1373.724
-26.838	37.668	1556.993	1371.804
-25.823	37.725	1554.897	1370.303
-24.809	37.686	1553.134	1368.427
-23.794	37.663	1552.678	1367.808
-22.779	37.611	1551.133	1366.025
-21.765	37.699	1549.960	1365.555
-20.750	37.582	1549.091	1363.919
-19.736	37.626	1547.746	1362.983
-18.721	37.624	1546.413	1361.744
-17.706	37.674	1544.990	1360.787
-16.692	37.694	1543.876	1359.892
-15.677	37.605	1543.106	1358.538
-14.663	37.603	1541.607	1357.152
-13.648	37.535	1540.910	1356.005
-12.633	37.703	1539.198	1355.614
-11.619	37.599	1538.870	1354.552
-10.604	37.544	1538.243	1353.560
-9.590	37.601	1537.085	1352.889
-8.575	37.607	1536.344	1352.225
-7.560	37.606	1535.296	1351.240
-6.546	37.599	1534.348	1350.302
-5.531	37.531	1533.681	1349.193
-4.517	37.646	1532.353	1348.767
-3.502	37.623	1530.971	1347.333
-2.487	37.517	1530.764	1346.369
-1.473	37.585	1529.088	1345.311
-0.458	37.514	1527.841	1343.670
0.556	35.202	1517.669	1333.374
1.571	32.289	1489.665	1288.723
2.586	28.497	1424.188	1207.060
3.600	26.592	1337.558	1121.751
4.615	25.081	1290.227	1072.921
5.629	21.446	1231.552	1003.228
6.644	10.459	1139.312	869.387
7.659	1.375	1091.895	786.265
8.673	-0.170	1085.342	773.522
9.688	-0.378	1082.348	770.252
10.702	-0.426	1080.648	768.725
11.717	-0.505	1079.196	767.220
12.731	3.139	1083.431	788.876
13.746	12.805	1097.662	849.190
14.761	17.526	1103.116	877.722
15.775	15.912	1099.737	866.657
16.790	15.052	1097.967	860.767
17.804	14.743	1097.050	858.380
18.819	14.378	1096.158	855.732
19.834	14.501	1095.196	855.535
20.848	14.418	1094.624	854.589
21.863	14.400	1093.731	853.727
22.877	14.368	1093.505	853.308
23.892	14.304	1092.771	852.332
24.907	14.218	1091.971	851.192
25.921	14.295	1091.468	851.121
26.936	14.373	1090.178	850.439
27.950	14.287	1088.871	848.903
28.965	14.362	1087.898	848.450
29.980	14.230	1086.296	846.458
30.994	14.240	1084.607	845.115
32.009	14.441	1083.539	845.226
33.023	14.447	1082.439	844.325
34.038	14.181	1081.881	842.470
35.053	14.142	1080.638	841.228
36.067	14.490	1079.411	841.957
37.082	14.397	1078.599	840.783
38.096	14.448	1077.944	840.453
39.111	14.567	1076.873	840.145
40.126	14.490	1076.071	839.056
41.140	14.561	1074.675	838.251
42.155	14.402	1073.612	836.548
43.169	14.268	1072.417	834.871
44.184	14.338	1071.197	834.197
45.199	14.167	1070.711	832.888
46.213	14.324	1068.815	832.127
47.228	14.163	1067.962	830.584
48.242	14.240	1066.624	829.854
49.257	14.215	1065.450	828.741
50.271	14.153	1064.590	827.690
51.286	14.264	1063.731	827.503
52.301	14.232	1062.930	826.645
53.315	14.363	1061.912	826.434
54.330	14.397	1060.808	825.667
55.344	14.248	1060.221	824.399
56.359	14.500	1058.598	824.312
57.374	14.314	1057.674	822.602
58.388	14.249	1056.973	821.660
59.403	14.272	1056.125	821.043
60.417	14.275	1055.266	820.317
61.432	14.197	1054.479	819.247
62.447	14.222	1053.563	818.587
63.461	14.278	1052.818	818.214
64.476	14.347	1051.738	817.639
65.490	14.303	1050.914	816.712
66.505	14.250	1050.116	815.757
67.520	14.332	1048.824	815.082
68.534	14.309	1047.989	814.250
69.549	14.262	1047.455	813.536
70.563	14.048	1046.418	811.612
71.578	14.197	1045.355	811.441
72.593	14.270	1044.364	810.959
73.607	14.169	1043.354	809.610
74.622	14.212	1042.426	809.027
75.636	14.295	1041.773	808.851
76.651	14.414	1040.782	808.589
77.666	14.223	1040.279	807.201
78.680	14.084	1039.041	805.493
79.695	14.207	1038.764	805.805
80.709	14.339	1037.834	805.650
81.724	14.251	1037.078	804.565
82.739	14.266	1035.960	803.698
83.753	14.188	1035.095	802.583
84.768	14.398	1034.333	802.931
85.782	14.476	1033.269	802.408
86.797	14.405	1032.331	801.267
87.812	14.341	1031.692	800.397
88.826	14.330	1030.469	799.319
89.841	14.352	1029.504	798.607
90.855	14.408	1028.411	797.958
91.870	14.409	1027.836	797.444
92.884	14.386	1026.957	796.583
93.899	14.366	1025.947	795.635
94.914	14.352	1024.823	794.628
95.928	14.408	1023.944	794.142
96.943	14.382	1023.666	793.728
97.957	14.193	1022.479	791.838
98.972	14.107	1021.534	790.630
99.987	13.978	1019.879	788.666
101.001	13.972	1019.713	788.442
102.016	14.030	1019.308	788.334
103.030	14.075	1018.339	787.724
104.045	14.164	1016.719	786.824
105.060	14.046	1015.277	785.083
106.074	13.913	1014.294	783.624
107.089	14.047	1013.251	783.380
108.103	14.335	1012.488	784.077
109.118	14.446	1012.133	784.256
110.133	14.250	1011.220	782.556
111.147	14.237	1009.810	781.337
112.162	14.252	1008.865	780.609
113.176	14.118	1007.450	778.816
114.191	14.196	1006.546	778.412
115.206	14.237	1005.493	777.719
116.220	14.142	1004.350	776.323
117.235	14.003	1003.546	774.988
118.249	14.187	1002.828	775.221
119.264	14.185	1001.769	774.325
120.279	14.200	1000.793	773.571
121.293	14.162	1000.132	772.813
122.308	14.251	999.154	772.403
123.322	14.244	998.417	771.734
124.337	14.242	997.383	770.856
125.352	14.145	995.998	769.269
126.366	13.918	994.296	766.837
127.381	13.827	992.369	764.867
128.395	13.956	991.930	765.056
129.410	14.225	991.146	765.621
130.424	14.427	989.889	765.507
131.439	14.310	988.960	764.185
132.454	14.333	988.034	763.509
133.468	14.265	987.090	762.397
134.483	14.354	986.026	761.916
135.497	14.253	986.083	761.433
136.512	14.478	984.848	761.438
137.527	14.487	983.963	760.730
138.541	14.526	983.215	760.259
139.556	14.483	982.765	759.651
140.570	14.525	981.415	758.729
141.585	14.454	980.542	757.665
142.600	14.383	979.658	756.590
143.614	14.432	978.304	755.701
144.629	14.461	977.839	755.406
145.643	14.461	976.899	754.616
146.658	14.401	976.140	753.690
147.673	14.492	974.918	753.091
148.687	14.370	974.275	751.976
149.702	14.297	973.148	750.713
150.716	14.333	971.819	749.781
151.731	14.352	971.477	749.534
152.746	14.363	970.567	748.816
153.760	14.523	969.772	748.856
154.775	14.593	968.953	748.471
155.789	14.495	968.095	747.302
156.804	14.482	966.922	746.274
157.819	14.298	966.235	744.853
158.833	14.575	965.039	745.105
159.848	14.520	964.481	744.360
160.862	14.568	963.291	743.592
161.877	14.488	962.045	742.206
162.892	14.473	961.601	741.731
163.906	14.649	960.596	741.675
164.921	14.466	960.130	740.436
165.935	14.518	958.592	739.414
166.950	14.425	957.848	738.362
167.964	14.593	956.859	738.281
168.979	14.420	955.482	736.388
169.994	14.479	954.648	735.937
171.008	14.418	953.526	734.743
172.023	14.266	953.296	733.830
173.037	14.379	952.321	733.512
174.052	14.359	950.821	732.200
175.067	14.139	949.957	730.507
176.081	14.294	949.432	730.720
177.096	14.467	948.662	730.818
178.110	14.407	947.615	729.685
179.125	14.524	946.350	729.160
180.140	14.353	945.415	727.629
181.154	14.225	944.810	726.540
182.169	14.360	944.265	726.643
183.183	14.431	943.452	726.261
184.198	14.549	942.516	725.992
185.213	14.644	941.413	725.491
186.227	14.455	941.078	724.346
187.242	14.687	940.646	724.957
188.256	14.635	939.614	723.871
189.271	14.611	938.301	722.695
190.286	14.540	937.647	721.819
191.300	14.615	936.904	721.509
192.315	14.308	936.166	719.551
193.329	14.114	934.911	717.683
194.344	13.929	934.023	716.140
195.359	14.089	934.141	716.859
196.373	14.580	933.536	718.444
197.388	14.543	933.082	717.873
198.402	14.366	932.141	716.324
199.417	14.241	931.921	715.553
200.432	14.411	930.632	715.231
201.446	14.212	930.044	713.864
202.461	14.079	929.537	712.839
203.475	14.039	928.998	712.190
204.490	13.812	928.129	710.492
205.504	13.379	926.333	707.203
206.519	13.744	926.240	708.628
207.534	14.142	925.877	709.987
208.548	14.233	925.626	710.119
209.563	14.380	925.343	710.467
210.577	14.477	924.012	709.795
211.592	14.298	923.658	708.698
212.607	14.451	923.321	709.028
213.621	14.500	922.482	708.528
214.636	14.436	921.492	707.434
215.650	14.526	920.747	707.180
216.665	14.550	920.328	706.899
217.680	14.564	919.710	706.422
218.694	14.667	918.777	706.079
219.709	14.398	918.100	704.359
220.723	14.294	917.281	703.227
221.738	14.543	916.574	703.676
222.753	14.513	916.284	703.265
223.767	14.450	915.205	702.109
224.782	14.519	914.174	701.543
225.796	14.628	913.438	701.377
226.811	14.743	912.727	701.250
227.826	14.401	911.917	699.133
228.840	14.058	911.022	696.945
229.855	14.092	910.073	696.300
230.869	14.179	909.628	696.265
231.884	14.082	908.440	694.887
232.899	14.039	908.192	694.455
233.913	14.567	907.804	696.303
234.928	14.772	907.061	696.526
235.942	14.697	906.651	695.834
236.957	14.734	905.590	695.114
237.972	14.609	905.048	694.119
238.986	14.643	903.952	693.357
240.001	14.784	903.292	693.375
241.015	14.748	902.735	692.735
242.030	14.772	901.502	691.826
243.045	14.765	900.958	691.319
244.059	14.921	899.901	691.092
245.074	14.976	899.875	691.241
246.088	14.594	899.500	689.313
247.103	14.457	898.415	687.853
248.117	14.459	897.499	687.098
249.132	14.741	896.794	687.659
250.147	14.931	896.109	687.855
251.161	14.727	895.755	686.685
252.176	14.797	894.526	685.971
253.190	14.872	893.779	685.641
254.205	14.987	893.188	685.599
255.220	15.173	892.407	685.702
256.234	15.132	891.901	685.084
257.249	14.980	891.596	684.167
258.263	15.052	890.266	683.382
259.278	14.978	890.124	682.911
260.293	15.134	889.496	683.002
261.307	15.080	888.784	682.175
262.322	15.035	887.558	680.993
263.336	14.911	887.572	680.438
264.351	14.626	886.540	678.427
265.366	13.995	884.920	674.566
266.380	13.783	883.746	672.755
267.395	14.307	883.775	674.838
268.409	14.647	883.719	676.117
269.424	14.741	882.804	675.734
270.439	14.808	882.361	675.607
271.453	14.855	881.558	675.121
272.468	15.013	880.558	674.933
273.482	15.059	880.192	674.779
274.497	15.247	879.786	675.166
275.512	15.074	878.539	673.452
276.526	14.689	877.517	671.063
277.541	14.798	876.862	670.942
278.555	15.180	876.077	671.812
279.570	14.915	875.442	670.204
280.585	14.594	874.968	668.498
281.599	14.818	873.947	668.552
282.614	15.073	873.175	668.925
283.628	14.818	872.764	667.530
284.643	14.671	872.120	666.391
285.657	15.004	871.636	667.291
286.672	14.753	871.123	665.840
287.687	14.564	869.969	664.144
288.701	14.550	869.906	663.984
289.716	14.893	869.654	665.097
290.730	14.683	868.478	663.306
291.745	14.680	867.673	662.617
292.760	14.563	867.035	661.610
293.774	14.553	866.128	660.819
294.789	14.913	866.371	662.373
295.803	15.331	866.062	663.731
296.818	15.238	865.531	662.897
297.833	15.518	864.917	663.475
298.847	15.373	863.757	661.955
299.862	15.212	862.670	660.427
300.876	15.268	862.174	660.213
301.891	15.342	861.568	659.982
302.906	15.326	861.106	659.505
303.920	15.114	859.974	657.748
304.935	14.887	859.323	656.299
305.949	15.025	858.887	656.452
306.964	15.349	857.845	656.865
307.979	15.360	857.405	656.511
308.993	15.220	857.385	655.889
310.008	15.643	856.458	656.779
311.022	15.502	855.986	655.808
312.037	15.395	855.384	654.868
313.052	15.291	854.615	653.819
314.066	15.362	853.936	653.519
315.081	15.027	853.063	651.489
316.095	14.649	852.271	649.357
317.110	14.954	851.908	650.208
318.125	15.417	851.312	651.493
319.139	15.254	851.073	650.621
320.154	14.871	849.563	647.922
321.168	14.681	848.945	646.658
322.183	14.957	848.931	647.658
323.197	15.350	848.641	648.903
324.212	15.509	848.248	649.160
325.227	15.559	847.710	648.883
326.241	15.674	847.342	648.986
327.256	15.817	846.340	648.713
328.270	15.624	846.031	647.675
329.285	15.448	845.543	646.566
330.300	15.599	844.918	646.611
331.314	15.481	844.088	645.465
332.329	15.430	843.592	644.836
333.343	15.415	843.379	644.558
334.358	15.552	842.449	644.313
335.373	15.556	841.485	643.534
336.387	15.630	840.998	643.391
337.402	15.762	840.498	643.455
338.416	15.891	840.035	643.535
339.431	15.616	839.113	641.724
340.446	15.548	838.428	640.884
341.460	15.612	837.832	640.615
342.475	15.782	837.026	640.590
343.489	15.463	836.591	638.985
344.504	15.611	836.043	639.075
345.519	15.663	835.735	638.979
346.533	15.784	835.228	638.995
347.548	15.756	834.920	638.595
348.562	15.639	834.840	638.033
349.577	15.718	834.165	637.762
350.592	15.882	833.271	637.645
351.606	15.846	832.602	636.940
352.621	16.075	831.947	637.246
353.635	15.948	831.573	636.424
354.650	15.938	831.425	636.217
355.665	15.914	830.474	635.342
356.679	15.393	829.580	632.639
357.694	15.113	829.038	631.113
358.708	15.423	828.195	631.582
359.723	15.505	827.653	631.420
360.738	15.780	827.667	632.409
361.752	15.931	827.596	632.866
362.767	16.012	826.981	632.646
363.781	15.929	826.531	631.935
364.796	16.171	825.883	632.288
365.810	16.242	825.181	631.962
366.825	16.217	824.626	631.389
367.840	16.219	824.528	631.264
368.854	15.997	824.296	630.200
369.869	15.859	823.333	628.895
370.883	15.751	822.910	628.113
371.898	16.054	822.069	628.544
372.913	15.854	821.203	627.081
373.927	15.617	820.815	625.845
374.942	15.946	820.215	626.559
375.956	16.041	819.825	626.558
376.971	16.048	819.141	626.007
377.986	16.029	818.874	625.675
379.000	16.140	818.147	625.477
380.015	16.260	817.694	625.519
381.029	16.209	816.942	624.701
382.044	15.933	816.365	623.182
383.059	16.102	815.516	623.105
384.073	16.061	814.981	622.487
385.088	16.161	814.540	622.465
386.102	16.084	814.687	622.238
387.117	16.319	813.643	622.254
388.132	16.397	813.443	622.332
389.146	16.356	812.983	621.773
390.161	15.867	812.165	619.296
391.175	15.991	811.471	619.166
392.190	15.936	811.511	618.940
393.205	16.103	810.361	618.621
394.219	15.723	809.868	616.797
395.234	15.238	809.306	614.535
396.248	15.251	808.437	613.868
397.263	15.525	808.216	614.651
398.278	16.048	808.506	616.732
399.292	16.421	808.275	617.865
400.307	16.265	807.875	616.932
401.321	16.257	807.595	616.634
402.336	16.420	807.003	616.723
403.350	16.331	806.848	616.226
404.365	16.335	806.279	615.751
405.380	16.422	805.567	615.471
406.394	16.442	804.734	614.853
407.409	16.552	804.287	614.855
408.423	16.651	803.722	614.730
409.438	16.539	803.129	613.815
410.453	16.515	803.052	613.614
411.467	16.527	802.682	613.320
412.482	16.634	801.847	613.017
413.496	16.842	801.433	613.400
414.511	16.628	801.305	612.473
415.526	16.832	800.584	612.604
416.540	16.752	800.279	612.026
417.555	16.731	799.868	611.584
418.569	16.331	799.393	609.722
419.584	16.353	798.732	609.242
420.599	16.502	798.118	609.259
421.613	150.552	1356.304	1780.090
422.628	130.533	1437.638	1780.216
