DTS Sentinel unit serial number:	SN413079Multiplexer serial number:	ORYXHardware model number:	OX4-SRSoftware version number:	ORYX F/W v4.00 Oryx Data Collector v3.7.2.0data status	okinstallation	princeton_trtdifferential loss correction	single-endedforward channel	channel 3reverse channel	N/Adate	2019/09/12time	00:34:11forward acquisition time	60.00reverse acquisition time	0.00gamma	496.2192k internal	0.2318k external	0.2318temperature offset calibration	1.0064default loss term (dB/km)	0.3790temperature slope calibration	1.0000multiplexer offset coefficient	1.0000multiplexer slope coefficient	1.0000fibre end	0.00T internal ref (°C)	33.37T ext. ref 1 (°C)	2.07T ext. ref 2 (°C)	28.09length (m)	temperature (°C)	Stokes	anti-Stokes-747.200	800.000	0.085	-0.282
-746.185	-200.000	-0.005	0.095
-745.171	382.311	0.154	0.321
-744.156	382.111	0.055	-0.114
-743.142	-41.252	0.128	-0.067
-742.127	502.300	-0.246	0.576
-741.112	-79.935	-0.165	0.056
-740.098	37.897	0.171	0.154
-739.083	-172.602	-0.239	-0.008
-738.069	-200.000	-0.023	0.165
-737.054	675.393	-0.052	-0.136
-736.039	159.507	-0.085	-0.119
-735.025	94.891	-0.121	0.139
-734.010	-200.000	0.018	-0.120
-732.996	-200.000	-0.063	0.332
-731.981	10.525	-0.125	-0.096
-730.966	212.629	-0.250	-0.398
-729.952	-200.000	-0.019	-0.214
-728.937	-162.838	-0.317	-0.016
-727.923	-11.239	0.330	0.220
-726.908	-200.000	0.062	-0.368
-725.894	-66.948	-0.198	-0.079
-724.879	800.000	-0.081	-0.282
-723.864	263.603	-0.147	-0.259
-722.850	14.208	0.251	0.198
-721.835	-122.108	0.390	-0.065
-720.821	-46.780	0.142	0.070
-719.806	-200.000	0.014	0.184
-718.791	-131.647	-0.319	-0.042
-717.777	84.873	-0.036	-0.040
-716.762	-52.311	-0.219	0.102
-715.748	-8.288	-0.362	-0.246
-714.733	143.396	0.081	-0.109
-713.718	-200.000	-0.055	-0.358
-712.704	9.988	0.288	0.221
-711.689	-64.579	-0.510	-0.209
-710.675	116.418	0.042	-0.052
-709.660	381.139	0.059	0.121
-708.645	633.887	-0.111	0.285
-707.631	-102.536	-0.005	-0.001
-706.616	-64.556	-0.192	-0.079
-705.602	63.424	-0.197	-0.200
-704.587	143.170	0.100	-0.134
-703.572	107.498	0.032	-0.039
-702.558	-138.850	-0.304	0.033
-701.543	184.319	-0.129	0.193
-700.529	98.662	0.210	0.245
-699.514	-200.000	-0.000	-0.197
-698.499	-120.273	0.268	0.046
-697.485	-200.000	-0.013	0.152
-696.470	23.244	0.282	0.234
-695.456	-124.242	-0.129	-0.020
-694.441	-158.836	0.258	-0.015
-693.426	-183.461	-0.292	0.005
-692.412	-200.000	0.069	0.405
-691.397	72.601	0.352	0.371
-690.383	655.134	-0.071	-0.184
-689.368	-200.000	0.007	0.043
-688.354	-64.021	-0.175	0.072
-687.339	147.082	-0.071	-0.096
-686.324	-200.000	0.005	0.285
-685.310	308.809	0.080	-0.151
-684.295	704.198	0.044	-0.116
-683.281	-181.361	0.221	-0.004
-682.266	-82.885	0.302	0.099
-681.251	34.011	0.067	0.059
-680.237	-86.758	0.093	0.029
-679.222	42.998	0.071	-0.065
-678.208	22.389	0.405	-0.334
-677.193	-200.000	0.014	-0.327
-676.178	-54.053	0.051	0.023
-675.164	69.818	-0.080	0.084
-674.149	-136.819	0.232	0.027
-673.135	-118.127	-0.184	-0.033
-672.120	800.000	-0.040	-0.159
-671.105	-86.539	0.356	0.110
-670.091	-4.616	-0.192	-0.134
-669.076	252.296	-0.100	-0.171
-668.062	163.476	-0.050	0.070
-667.047	-200.000	0.008	0.309
-666.032	-117.773	0.131	0.024
-665.018	800.000	-0.026	-0.113
-664.003	-46.711	0.080	-0.040
-662.989	-34.576	0.169	0.094
-661.974	-161.407	-0.246	-0.013
-660.959	800.000	0.121	-0.425
-659.945	-71.010	0.185	0.070
-658.930	614.433	-0.086	-0.216
-657.916	355.567	-0.119	-0.240
-656.901	800.000	-0.066	0.270
-655.886	-57.197	0.368	-0.163
-654.872	278.702	-0.122	-0.220
-653.857	-200.000	-0.066	-0.310
-652.843	800.000	0.059	-0.211
-651.828	-200.000	-0.048	-0.260
-650.814	800.000	0.148	-0.438
-649.799	202.475	-0.185	0.288
-648.784	80.616	0.060	-0.065
-647.770	-200.000	-0.274	-0.000
-646.755	-81.775	-0.036	0.012
-645.741	-59.310	0.132	-0.057
-644.726	-76.779	-0.147	-0.052
-643.711	-139.966	0.323	-0.034
-642.697	-39.978	-0.386	-0.203
-641.682	-80.136	0.213	-0.072
-640.668	163.836	-0.177	0.252
-639.653	-200.000	0.038	-0.312
-638.638	83.878	0.032	0.036
-637.624	-109.926	0.163	-0.034
-636.609	91.911	-0.121	-0.137
-635.595	-131.082	0.133	0.018
-634.580	360.545	0.052	0.106
-633.565	-106.840	-0.274	0.061
-632.551	-200.000	-0.032	0.292
-631.536	390.631	-0.107	0.223
-630.522	644.253	-0.075	-0.192
-629.507	395.488	-0.036	-0.076
-628.492	-96.158	-0.234	0.063
-627.478	-107.435	0.226	0.050
-626.463	800.000	0.073	-0.217
-625.449	316.915	-0.080	-0.153
-624.434	-99.904	-0.128	-0.032
-623.419	-200.000	-0.020	0.296
-622.405	-3.089	-0.117	0.082
-621.390	-53.999	0.260	-0.119
-620.376	-89.885	0.172	-0.051
-619.361	48.496	0.209	0.197
-618.346	1.786	0.140	0.101
-617.332	-200.000	-0.048	0.224
-616.317	14.287	0.104	-0.082
-615.303	-200.000	0.021	-0.207
-614.288	410.294	-0.055	-0.117
-613.273	573.999	-0.047	-0.116
-612.259	115.332	0.168	-0.207
-611.244	-42.115	-0.171	0.088
-610.230	-132.753	-0.146	0.019
-609.215	333.124	-0.047	-0.091
-608.201	-93.596	-0.454	-0.126
-607.186	-200.000	-0.029	0.141
-606.171	61.776	0.240	0.240
-605.157	-98.438	-0.106	0.027
-604.142	-200.000	-0.002	-0.159
-603.128	-47.757	0.269	0.131
-602.113	194.701	-0.107	0.163
-601.098	-65.106	-0.250	0.101
-600.084	202.937	-0.056	-0.088
-599.069	206.126	-0.168	0.263
-598.055	-135.644	-0.356	0.042
-597.040	-200.000	-0.052	-0.306
-596.025	-75.477	0.134	-0.048
-595.011	-60.539	-0.288	0.123
-593.996	-200.000	-0.038	0.477
-592.982	-132.367	0.216	-0.028
-591.967	0.546	-0.245	-0.176
-590.952	-200.000	-0.005	0.083
-589.938	-137.424	-0.428	-0.049
-588.923	345.169	-0.146	-0.288
-587.909	800.000	-0.083	-0.230
-586.894	54.704	0.122	0.118
-585.879	-200.000	0.078	0.439
-584.865	-119.827	-0.259	-0.045
-583.850	10.163	0.178	0.136
-582.836	-200.000	0.001	-0.178
-581.821	594.005	-0.060	-0.148
-580.806	-48.604	-0.447	-0.216
-579.792	-107.917	-0.226	-0.049
-578.777	-56.558	0.152	-0.068
-577.763	671.468	-0.059	0.154
-576.748	241.626	0.114	-0.192
-575.733	-77.116	0.393	-0.138
-574.719	647.032	-0.081	-0.207
-573.704	-20.893	-0.157	0.097
-572.690	-20.476	0.194	-0.120
-571.675	54.535	0.048	0.047
-570.661	-47.531	-0.105	0.051
-569.646	-119.663	0.187	0.032
-568.631	800.000	0.077	-0.229
-567.617	-85.324	-0.366	-0.115
-566.602	85.730	-0.070	-0.077
-565.588	-179.937	-0.163	-0.003
-564.573	800.000	0.050	-0.192
-563.558	-152.059	0.054	0.004
-562.544	-95.754	-0.192	0.052
-561.529	185.687	-0.107	-0.160
-560.515	-194.121	-0.079	-0.001
-559.500	39.235	-0.043	0.038
-558.485	-40.485	0.344	-0.179
-557.471	800.000	0.106	0.299
-556.456	-200.000	-0.017	0.230
-555.442	259.206	-0.217	0.376
-554.427	-146.170	0.215	-0.019
-553.412	529.636	-0.076	-0.180
-552.398	-200.000	-0.018	-0.227
-551.383	-72.890	-0.022	-0.008
-550.369	-100.122	0.185	-0.046
-549.354	-34.326	0.140	-0.077
-548.339	800.000	0.066	-0.226
-547.325	156.487	-0.029	-0.040
-546.310	-200.000	0.011	-0.135
-545.296	-59.862	-0.306	-0.131
-544.281	800.000	-0.017	-0.059
-543.266	24.700	-0.093	-0.078
-542.252	800.000	0.029	0.109
-541.237	-10.179	-0.183	-0.122
-540.223	202.764	-0.112	-0.173
-539.208	800.000	0.072	-0.263
-538.193	-8.476	0.146	-0.099
-537.179	380.721	-0.039	0.080
-536.164	-25.174	0.269	-0.160
-535.150	-39.454	0.310	0.163
-534.135	33.512	-0.089	0.078
-533.121	524.689	-0.052	0.123
-532.106	-22.456	0.189	-0.115
-531.091	800.000	0.033	0.122
-530.077	-14.493	-0.274	-0.177
-529.062	-200.000	0.004	-0.278
-528.048	-136.484	-0.082	0.010
-527.033	-180.074	-0.408	0.009
-526.018	-200.000	0.012	-0.079
-525.004	241.710	0.157	-0.264
-523.989	407.352	-0.171	0.364
-522.975	800.000	-0.095	-0.268
-521.960	560.365	-0.005	0.011
-520.945	-200.000	-0.004	-0.184
-519.931	155.665	-0.099	0.136
-518.916	-104.677	0.315	-0.073
-517.902	-128.578	0.040	-0.006
-516.887	392.636	-0.108	-0.226
-515.872	-200.000	0.043	-0.412
-514.858	-200.000	-0.007	-0.068
-513.843	-200.000	0.020	-0.291
-512.829	50.381	0.226	0.214
-511.814	115.929	-0.162	0.198
-510.799	-14.432	0.309	-0.200
-509.785	148.452	0.093	-0.126
-508.770	12.141	0.284	0.219
-507.756	-130.873	0.282	0.038
-506.741	-200.000	0.036	-0.195
-505.726	46.678	-0.143	-0.133
-504.712	-88.781	-0.357	-0.106
-503.697	-52.351	0.085	0.039
-502.683	54.998	0.136	0.132
-501.668	-173.297	0.046	-0.001
-500.653	169.069	0.060	-0.086
-499.639	-123.082	-0.241	0.039
-498.624	55.256	0.189	0.183
-497.610	-116.865	-0.295	-0.054
-496.595	240.908	0.162	0.271
-495.581	112.125	0.136	-0.164
-494.566	800.000	0.027	-0.103
-493.551	-72.561	-0.150	0.055
-492.537	-200.000	0.217	0.001
-491.522	-160.266	-0.188	0.010
-490.508	14.338	0.207	-0.162
-489.493	-136.272	-0.016	-0.002
-488.478	-52.884	0.157	0.072
-487.464	-200.000	-0.004	0.041
-486.449	204.028	-0.234	0.364
-485.435	118.061	0.016	-0.020
-484.420	800.000	-0.052	-0.164
-483.405	800.000	-0.081	-0.313
-482.391	-20.783	-0.323	-0.198
-481.376	-192.259	-0.337	0.003
-480.362	6.559	0.149	0.111
-479.347	-200.000	-0.035	-0.257
-478.332	19.621	-0.241	-0.194
-477.318	-200.000	-0.006	0.205
-476.303	-77.800	0.488	-0.169
-475.289	193.515	-0.136	0.207
-474.274	-200.000	-0.020	0.211
-473.259	-200.000	0.002	0.037
-472.245	359.977	0.099	-0.198
-471.230	-119.720	0.072	-0.013
-470.216	-163.208	0.110	-0.005
-469.201	-12.067	-0.139	0.091
-468.186	-147.217	0.131	0.011
-467.172	173.893	-0.129	-0.187
-466.157	-78.143	-0.175	0.060
-465.143	61.574	0.179	-0.178
-464.128	-22.341	0.532	0.323
-463.113	53.984	-0.147	-0.141
-462.099	758.374	-0.121	-0.328
-461.084	-90.655	0.228	0.066
-460.070	-110.063	-0.291	-0.061
-459.055	-0.198	0.131	-0.093
-458.040	201.134	-0.088	-0.136
-457.026	-74.304	-0.040	0.015
-456.011	-99.860	-0.227	0.057
-454.997	-17.552	0.311	0.195
-453.982	261.628	-0.178	0.308
-452.968	800.000	-0.064	0.208
-451.953	-28.797	-0.040	0.023
-450.938	-31.705	-0.120	-0.067
-449.924	-200.000	0.062	0.402
-448.909	85.573	0.207	0.228
-447.895	-193.271	0.195	-0.002
-446.880	252.796	0.131	0.224
-445.865	115.110	0.264	-0.322
-444.851	-113.220	-0.274	0.054
-443.836	-9.139	0.150	0.100
-442.822	64.355	-0.234	-0.236
-441.807	-13.808	-0.137	-0.088
-440.792	800.000	0.094	0.350
-439.778	208.838	-0.026	0.040
-438.763	-133.724	0.154	-0.019
-437.749	-200.000	0.035	-0.207
-436.734	-21.847	-0.230	-0.140
-435.719	-200.000	-0.013	-0.110
-434.705	413.456	-0.108	0.229
-433.690	-61.679	-0.048	0.020
-432.676	17.011	0.133	-0.105
-431.661	-200.000	-0.033	-0.571
-430.646	94.846	-0.164	0.187
-429.632	-50.500	0.320	0.151
-428.617	88.911	-0.354	0.393
-427.603	-101.997	-0.232	-0.056
-426.588	31.758	-0.040	-0.034
-425.573	-200.000	0.005	0.136
-424.559	800.000	0.041	-0.120
-423.544	437.348	0.088	0.191
-422.530	480.191	0.173	-0.393
-421.515	134.508	-0.040	-0.052
-420.500	-180.242	0.273	0.006
-419.486	-131.073	0.183	0.024
-418.471	-200.000	0.028	-0.341
-417.457	616.965	-0.063	-0.157
-416.442	-32.689	-0.237	0.132
-415.428	-26.541	0.237	0.139
-414.413	-66.196	0.289	0.115
-413.398	8.011	0.028	-0.021
-412.384	24.467	0.259	-0.214
-411.369	-200.000	0.021	-0.137
-410.355	-200.000	-0.007	0.288
-409.340	327.665	-0.162	0.310
-408.325	-110.640	-0.363	-0.075
-407.311	107.104	-0.028	0.033
-406.296	209.439	-0.173	0.271
-405.282	-166.526	0.497	-0.021
-404.267	57.323	-0.166	0.162
-403.252	-13.494	-0.365	0.237
-402.238	-1.605	-0.131	0.092
-401.223	45.196	0.131	0.121
-400.209	-200.000	-0.033	-0.289
-399.194	-88.661	-0.170	-0.051
-398.179	-10.953	-0.129	-0.085
-397.165	768.692	0.059	0.160
-396.150	0.266	0.387	0.275
-395.136	-200.000	-0.022	0.198
-394.121	-129.760	-0.144	-0.020
-393.106	-59.537	-0.211	0.091
-392.092	800.000	0.061	-0.173
-391.077	706.005	-0.071	0.188
-390.063	-200.000	-0.006	0.066
-389.048	800.000	0.132	-0.364
-388.033	113.641	0.194	-0.236
-387.019	-74.187	0.092	0.033
-386.004	117.041	-0.237	0.291
-384.990	353.466	0.227	0.450
-383.975	-200.000	0.039	0.170
-382.960	409.380	-0.108	-0.229
-381.946	17.979	-0.328	0.261
-380.931	18.464	0.101	0.081
-379.917	-108.795	0.320	-0.068
-378.902	-87.353	-0.150	-0.045
-377.888	-200.000	0.006	-0.086
-376.873	7.427	0.147	-0.110
-375.858	659.191	0.110	-0.283
-374.844	-200.000	0.024	0.114
-373.829	-25.519	-0.131	-0.077
-372.815	-178.666	0.119	0.003
-371.800	-200.000	0.020	0.184
-370.785	-22.309	-0.086	0.052
-369.771	389.710	0.102	0.211
-368.756	112.147	-0.241	0.290
-367.742	-200.000	-0.004	0.370
-366.727	-200.000	0.003	0.020
-365.712	-43.146	0.166	-0.084
-364.698	245.555	0.037	-0.062
-363.683	-200.000	-0.006	0.095
-362.669	-6.842	-0.188	0.128
-361.654	-29.439	0.326	-0.186
-360.639	426.790	-0.101	-0.216
-359.625	574.556	0.184	0.446
-358.610	-191.273	-0.052	-0.001
-357.596	800.000	0.081	-0.282
-356.581	-60.981	0.230	-0.097
-355.566	-69.919	-0.289	-0.110
-354.552	-200.000	-0.005	-0.039
-353.537	800.000	-0.020	0.071
-352.523	252.309	0.065	-0.111
-351.508	715.634	0.053	0.141
-350.493	221.471	0.144	0.230
-349.479	800.000	0.084	0.331
-348.464	44.548	0.257	-0.235
-347.450	-147.315	0.185	0.016
-346.435	-142.313	0.231	0.023
-345.420	-48.734	0.329	0.157
-344.406	-122.801	-0.406	-0.065
-343.391	-200.000	-0.039	0.453
-342.377	658.182	-0.098	0.250
-341.362	800.000	-0.046	-0.179
-340.348	-124.275	-0.119	0.019
-339.333	800.000	0.056	-0.207
-338.318	700.390	0.084	0.219
-337.304	800.000	0.027	0.116
-336.289	-171.860	0.085	-0.003
-335.275	-86.481	0.136	-0.042
-334.260	800.000	0.089	-0.246
-333.245	20.333	-0.129	-0.104
-332.231	-164.635	0.051	0.002
-331.216	-200.000	-0.009	-0.043
-330.202	-36.934	-0.209	0.111
-329.187	-94.248	0.213	-0.058
-328.172	-99.775	0.317	0.079
-327.158	-200.000	-0.009	-0.154
-326.143	-109.982	0.483	-0.101
-325.129	249.243	0.118	0.198
-324.114	-124.058	-0.212	-0.033
-323.099	71.954	0.102	0.105
-322.085	594.984	-0.092	-0.226
-321.070	-72.107	-0.309	-0.114
-320.056	278.862	0.061	-0.108
-319.041	423.259	-0.129	0.277
-318.026	-171.593	0.200	0.007
-317.012	-114.331	-0.250	-0.048
-315.997	-90.259	-0.455	0.132
-314.983	-139.641	-0.483	-0.051
-313.968	-200.000	0.022	0.346
-312.953	468.039	-0.095	0.213
-311.939	800.000	-0.106	0.442
-310.924	174.357	-0.087	0.125
-309.910	-149.455	-0.358	-0.028
-308.895	105.835	0.284	0.335
-307.880	800.000	0.088	0.344
-306.866	-118.523	0.397	-0.070
-305.851	800.000	-0.100	-0.279
-304.837	-88.170	-0.322	-0.096
-303.822	-88.556	-0.184	-0.055
-302.807	117.141	0.223	0.272
-301.793	-130.995	-0.126	0.017
-300.778	60.917	-0.284	-0.280
-299.764	-200.000	-0.007	0.288
-298.749	273.445	-0.071	-0.124
-297.735	201.081	-0.150	0.230
-296.720	-88.221	0.072	-0.022
-295.705	800.000	-0.069	0.230
-294.691	751.441	-0.057	0.154
-293.676	146.496	-0.162	-0.216
-292.662	186.296	0.101	-0.149
-291.647	245.568	-0.064	0.108
-290.632	-200.000	-0.009	-0.354
-289.618	-53.056	-0.282	-0.129
-288.603	-141.938	-0.340	0.034
-287.589	-40.867	0.048	0.025
-286.574	-147.060	0.128	0.011
-285.559	-32.634	-0.092	0.051
-284.545	-51.260	0.211	-0.098
-283.530	288.905	0.217	0.391
-282.516	-20.740	0.004	-0.002
-281.501	-200.000	0.019	-0.286
-280.486	-61.789	-0.070	-0.029
-279.472	167.970	0.198	-0.279
-278.457	16.862	0.290	0.228
-277.443	164.475	0.138	-0.194
-276.428	-22.268	0.139	-0.084
-275.413	-69.685	0.124	0.047
-274.399	1.822	-0.088	0.063
-273.384	232.598	-0.117	0.190
-272.370	-54.688	0.052	0.024
-271.355	-200.000	-0.000	-0.021
-270.340	51.901	0.300	-0.284
-269.326	-90.859	-0.011	0.003
-268.311	-116.289	0.375	0.069
-267.297	-200.000	-0.011	-0.057
-266.282	-66.725	0.246	-0.097
-265.267	-200.000	-0.005	-0.156
-264.253	-94.046	0.198	0.054
-263.238	-50.239	-0.053	0.025
-262.224	800.000	0.076	-0.271
-261.209	-18.837	0.220	-0.136
-260.195	-200.000	-0.051	0.295
-259.180	27.138	0.323	-0.269
-258.165	-200.000	0.043	-0.215
-257.151	-66.956	0.121	-0.048
-256.136	314.910	-0.114	0.213
-255.122	-1.295	-0.190	0.133
-254.107	26.187	-0.141	-0.117
-253.092	-200.000	0.058	0.362
-252.078	-68.637	-0.279	0.107
-251.063	-71.868	0.298	-0.110
-250.049	-18.084	-0.181	0.112
-249.034	45.598	0.236	0.216
-248.019	-6.682	-0.081	-0.055
-247.005	-200.000	0.027	-0.251
-245.990	-200.000	-0.093	-0.436
-244.976	27.898	0.142	-0.119
-243.961	800.000	-0.062	-0.193
-242.946	-90.723	-0.124	-0.036
-241.932	-50.888	-0.208	0.097
-240.917	579.051	0.030	-0.073
-239.903	-121.930	0.336	-0.055
-238.888	185.115	-0.233	-0.343
-237.873	198.229	0.147	-0.223
-236.859	-58.948	-0.169	0.072
-235.844	-89.325	0.282	0.083
-234.830	-200.000	-0.004	-0.061
-233.815	-129.100	0.035	0.005
-232.800	-82.650	-0.259	0.083
-231.786	-7.864	-0.213	0.142
-230.771	207.901	0.059	-0.092
-229.757	465.879	-0.074	0.164
-228.742	-85.837	0.201	-0.062
-227.727	54.460	-0.147	0.141
-226.713	-136.228	-0.132	0.015
-225.698	-200.000	-0.066	0.395
-224.684	129.542	-0.160	-0.203
-223.669	-45.314	-0.265	-0.130
-222.655	-23.404	-0.150	-0.089
-221.640	-81.599	0.183	-0.060
-220.625	309.283	0.114	0.211
-219.611	-97.583	-0.222	0.057
-218.596	-52.190	-0.266	-0.122
-217.582	50.171	0.252	0.236
-216.567	-147.184	0.187	-0.016
-215.552	-200.000	0.019	-0.257
-214.538	141.923	-0.116	-0.152
-213.523	-200.000	-0.015	-0.078
-212.509	386.702	0.082	0.169
-211.494	-110.779	0.093	0.019
-210.479	33.404	0.117	0.101
-209.465	-19.694	0.104	0.064
-208.450	-43.003	-0.148	0.074
-207.436	-200.000	0.045	0.216
-206.421	-200.000	-0.042	0.273
-205.406	-200.000	0.002	0.049
-204.392	85.074	-0.212	0.231
-203.377	74.692	-0.212	0.221
-202.363	-117.001	0.080	0.014
-201.348	-200.000	0.017	0.130
-200.333	-200.000	0.016	0.182
-199.319	169.067	0.092	-0.130
-198.304	21.230	0.178	-0.143
-197.290	19.955	-0.125	-0.100
-196.275	-177.703	-0.133	0.003
-195.260	-86.006	-0.278	-0.085
-194.246	800.000	-0.055	-0.198
-193.231	-183.392	0.408	-0.007
-192.217	-200.000	-0.018	0.301
-191.202	-200.000	-0.004	0.082
-190.187	-123.177	0.411	-0.065
-189.173	-5.760	-0.427	-0.289
-188.158	149.262	0.136	0.182
-187.144	-97.588	0.210	-0.054
-186.129	800.000	0.041	-0.167
-185.114	10.260	0.102	-0.077
-184.100	-51.797	0.380	-0.175
-183.085	129.695	-0.037	0.047
-182.071	-77.639	-0.141	0.048
-181.056	-200.000	-0.005	0.077
-180.042	-7.402	0.142	-0.095
-179.027	678.400	-0.040	-0.104
-178.012	-132.845	-0.090	-0.011
-176.998	-59.599	-0.145	-0.061
-175.983	451.977	0.019	0.042
-174.969	-162.030	-0.067	0.003
-173.954	-200.000	0.010	-0.121
-172.939	203.035	-0.081	-0.125
-171.925	-98.440	0.166	-0.042
-170.910	-119.925	0.218	-0.037
-169.896	-200.000	-0.006	-0.176
-168.881	-31.296	0.402	0.224
-167.866	10.723	0.275	0.207
-166.852	310.543	-0.070	-0.129
-165.837	7.904	0.225	-0.167
-164.823	-200.000	-0.025	-0.140
-163.808	23.265	-0.066	-0.053
-162.793	-120.865	-0.042	0.007
-161.779	59.378	0.182	0.177
-160.764	-87.012	-0.190	0.057
-159.750	92.369	0.126	-0.141
-158.735	207.622	-0.128	0.198
-157.720	-9.267	-0.254	-0.168
-156.706	-200.000	0.065	0.424
-155.691	345.865	-0.086	0.167
-154.677	-27.973	0.344	0.197
-153.662	80.301	-0.263	-0.280
-152.647	-200.000	-0.036	-0.184
-151.633	-131.153	0.263	0.035
-150.618	75.509	0.095	-0.099
-149.604	800.000	-0.104	-0.332
-148.589	30.237	-0.177	0.149
-147.574	-60.381	0.375	-0.158
-146.560	373.590	0.132	-0.266
-145.545	173.811	-0.194	0.277
-144.531	800.000	0.031	-0.117
-143.516	-200.000	0.016	-0.491
-142.502	-137.242	0.476	0.053
-141.487	68.361	0.288	-0.292
-140.472	126.759	-0.177	0.222
-139.458	147.396	0.038	0.050
-138.443	-200.000	0.024	-0.406
-137.429	-154.638	0.247	-0.016
-136.414	-96.076	-0.206	0.054
-135.399	800.000	0.080	0.337
-134.385	-200.000	0.055	0.260
-133.370	194.618	0.155	-0.232
-132.356	-98.285	-0.207	-0.053
-131.341	-11.731	0.214	0.139
-130.326	137.947	0.147	0.191
-129.312	-149.274	0.234	0.018
-128.297	-200.000	-0.015	-0.097
-127.283	483.076	0.174	-0.391
-126.268	-45.465	-0.153	0.075
-125.253	-200.000	0.009	-0.363
-124.239	-117.824	0.138	0.024
-123.224	-2.662	-0.201	0.139
-122.210	-200.000	0.026	-0.192
-121.195	144.341	-0.064	0.085
-120.180	30.246	-0.135	0.114
-119.166	6.219	0.115	-0.084
-118.151	53.877	0.042	0.040
-117.137	-32.085	-0.062	-0.034
-116.122	800.000	-0.150	0.459
-115.107	372.873	0.052	-0.103
-114.093	-38.450	-0.290	-0.151
-113.078	93.841	-0.049	0.054
-112.064	105.078	0.125	0.146
-111.049	72.945	-0.048	-0.049
-110.034	800.000	0.114	0.328
-109.020	-153.132	-0.115	-0.008
-108.005	-200.000	-0.056	-0.277
-106.991	121.852	-0.131	0.161
-105.976	-161.600	0.506	0.026
-104.962	136.699	-0.315	-0.405
-103.947	-112.470	-0.192	0.038
-102.932	-200.000	0.058	-0.335
-101.918	-200.000	0.028	-0.409
-100.903	158.473	-0.184	-0.252
-99.889	226.839	0.136	0.218
-98.874	-116.602	0.025	0.005
-97.859	-200.000	0.050	-0.226
-96.845	-200.000	0.013	0.256
-95.830	140.497	-0.091	0.118
-94.816	-74.328	0.080	-0.028
-93.801	406.787	0.009	0.019
-92.786	800.000	-0.058	0.237
-91.772	133.882	0.018	-0.023
-90.757	800.000	0.082	-0.254
-89.743	749.934	0.060	0.161
-88.728	-103.951	-0.139	0.032
-87.713	-125.848	0.233	-0.035
-86.699	-200.000	-0.001	0.289
-85.684	32.997	0.358	0.306
-84.670	-69.735	0.387	0.146
-83.655	-42.907	0.155	-0.078
-82.640	-200.000	-0.075	-0.430
-81.626	800.000	-0.057	-0.171
-80.611	107.067	-0.124	-0.145
-79.597	-32.770	0.212	0.116
-78.582	-33.114	0.133	-0.073
-77.567	-200.000	0.026	-0.316
-76.553	-61.784	0.336	-0.139
-75.538	10.054	-0.266	0.199
-74.524	29.112	0.022	0.018
-73.509	200.746	-0.125	0.190
-72.494	-200.000	-0.004	0.177
-71.480	33.684	-0.099	-0.085
-70.465	118.028	0.276	-0.335
-69.451	-200.000	-0.001	0.492
-68.436	226.001	0.113	0.180
-67.422	-136.713	0.293	-0.033
-66.407	-200.000	-0.048	-0.306
-65.392	115.766	0.274	0.330
-64.378	-80.365	-0.139	-0.046
-63.363	-124.333	-0.369	0.057
-62.349	-67.168	-0.169	0.066
-61.334	144.249	-0.727	-0.956
-60.319	-5.071	0.272	0.185
-59.305	800.000	-0.271	-0.918
-58.290	73.326	0.669	0.689
-57.276	379.035	0.898	1.812
-56.261	-200.000	96.492	578.306
-55.246	542.312	1387.028	3257.822
-54.232	157.382	2569.279	3502.303
-53.217	110.814	2167.350	2568.898
-52.203	43.416	1709.363	1538.649
-51.188	36.684	1522.146	1324.198
-50.173	34.201	1495.640	1284.362
-49.159	53.239	1544.506	1457.239
-48.144	55.197	1563.184	1488.236
-47.130	36.812	1521.213	1324.049
-46.115	33.511	1507.043	1289.255
-45.100	33.423	1503.488	1285.564
-44.086	33.450	1501.397	1283.909
-43.071	33.379	1499.703	1281.926
-42.057	33.430	1497.889	1280.673
-41.042	33.391	1496.702	1279.344
-40.027	33.430	1495.292	1278.352
-39.013	33.462	1493.575	1277.050
-37.998	33.384	1492.357	1275.428
-36.984	33.423	1491.469	1274.884
-35.969	33.385	1490.296	1273.577
-34.954	33.440	1488.345	1272.227
-33.940	33.332	1487.665	1270.867
-32.925	33.342	1486.550	1269.937
-31.911	33.369	1484.953	1268.700
-30.896	33.396	1483.440	1267.534
-29.881	33.396	1482.081	1266.326
-28.867	33.434	1480.469	1265.150
-27.852	33.453	1478.999	1263.972
-26.838	33.454	1477.748	1262.859
-25.823	33.473	1476.136	1261.562
-24.809	33.359	1474.689	1259.516
-23.794	33.390	1473.178	1258.378
-22.779	33.402	1471.937	1257.351
-21.765	33.294	1471.301	1256.042
-20.750	33.362	1470.076	1255.392
-19.736	33.478	1468.526	1254.790
-18.721	33.379	1467.654	1253.336
-17.706	33.410	1466.995	1252.931
-16.692	33.353	1465.886	1251.560
-15.677	33.440	1464.877	1251.218
-14.663	33.404	1463.891	1250.091
-13.648	33.316	1462.762	1248.496
-12.633	33.364	1461.841	1247.978
-11.619	33.408	1460.707	1247.250
-10.604	33.354	1460.151	1246.373
-9.590	33.341	1459.222	1245.442
-8.575	33.378	1457.960	1244.559
-7.560	33.228	1457.599	1243.213
-6.546	33.244	1456.890	1242.666
-5.531	33.348	1455.518	1242.132
-4.517	33.368	1454.573	1241.406
-3.502	33.393	1453.335	1240.466
-2.487	33.397	1452.447	1239.680
-1.473	33.358	1451.264	1238.368
-0.458	33.215	1450.467	1236.705
0.556	33.722	1441.126	1226.020
1.571	30.985	1416.923	1187.912
2.586	27.875	1361.276	1122.084
3.600	26.355	1282.825	1048.516
4.615	25.134	1235.511	1002.929
5.629	21.660	1178.126	937.698
6.644	11.375	1090.916	816.959
7.659	3.407	1047.587	745.998
8.673	2.272	1041.701	736.276
9.688	2.142	1038.562	733.368
10.702	1.933	1037.352	731.447
11.717	1.944	1035.228	729.936
12.731	5.602	1040.054	750.842
13.746	15.746	1054.239	810.097
14.761	23.256	1063.881	853.796
15.775	24.933	1065.679	863.257
16.790	25.337	1064.427	864.111
17.804	25.046	1064.013	862.298
18.819	24.840	1063.252	860.613
19.834	25.014	1062.589	860.834
20.848	25.121	1062.082	860.862
21.863	25.090	1062.471	860.954
22.877	25.233	1061.306	860.620
23.892	25.006	1060.927	859.149
24.907	25.070	1059.490	858.214
25.921	25.134	1059.237	858.242
26.936	25.254	1058.278	857.961
27.950	25.058	1057.543	856.351
28.965	24.971	1056.532	855.044
29.980	24.976	1054.714	853.522
30.994	24.899	1053.492	852.089
32.009	25.168	1052.813	852.743
33.023	25.144	1052.618	852.394
34.038	24.960	1050.981	850.121
35.053	24.831	1050.551	849.085
36.067	25.141	1049.567	849.687
37.082	25.113	1048.939	848.969
38.096	25.112	1048.429	848.476
39.111	25.325	1047.467	848.629
40.126	25.503	1046.740	848.804
41.140	25.256	1045.457	846.524
42.155	24.995	1043.979	844.026
43.169	24.691	1042.977	841.708
44.184	24.656	1042.353	840.964
45.199	24.761	1041.359	840.584
46.213	24.608	1040.224	838.873
47.228	24.697	1039.245	838.428
48.242	24.791	1038.638	838.303
49.257	24.941	1038.009	838.427
50.271	25.003	1037.068	837.882
51.286	25.108	1036.593	837.914
52.301	25.096	1036.132	837.412
53.315	25.252	1035.025	837.171
54.330	25.314	1033.774	836.375
55.344	25.134	1033.311	835.085
56.359	25.063	1032.602	834.107
57.374	25.079	1031.980	833.607
58.388	25.026	1030.910	832.423
59.403	24.875	1030.348	831.192
60.417	24.882	1029.502	830.469
61.432	24.767	1028.681	829.202
62.447	24.663	1028.224	828.277
63.461	24.866	1027.667	828.696
64.476	24.890	1026.788	828.027
65.490	24.851	1026.072	827.194
66.505	24.844	1024.820	826.079
67.520	24.914	1024.412	826.001
68.534	24.850	1023.511	824.905
69.549	24.764	1022.478	823.603
70.563	24.492	1021.414	821.425
71.578	24.264	1020.810	819.818
72.593	24.507	1019.684	819.955
73.607	24.243	1018.973	818.099
74.622	24.224	1018.178	817.301
75.636	24.527	1017.400	817.994
76.651	24.706	1017.024	818.439
77.666	24.509	1016.148	816.758
78.680	24.489	1015.060	815.723
79.695	24.444	1014.696	815.153
80.709	24.526	1014.228	815.077
81.724	24.815	1012.795	815.171
82.739	24.599	1012.202	813.639
83.753	24.663	1011.302	813.132
84.768	25.020	1010.898	814.361
85.782	25.392	1010.147	815.373
86.797	25.434	1009.751	815.172
87.812	25.456	1009.024	814.610
88.826	25.284	1007.776	812.752
89.841	25.202	1007.059	811.731
90.855	25.342	1006.126	811.542
91.870	25.436	1005.365	811.281
92.884	25.384	1004.767	810.490
93.899	25.279	1003.684	809.071
94.914	25.092	1002.634	807.311
95.928	25.216	1002.311	807.539
96.943	25.280	1001.138	806.811
97.957	24.970	1000.179	804.572
98.972	24.851	999.013	803.033
99.987	24.612	998.193	801.227
101.001	24.810	997.027	801.109
102.016	25.047	996.735	801.863
103.030	24.986	996.067	800.983
104.045	24.984	995.221	800.221
105.060	24.855	993.873	798.490
106.074	24.877	992.736	797.608
107.089	24.743	992.287	796.576
108.103	25.182	991.523	797.845
109.118	25.239	990.947	797.568
110.133	24.772	990.336	794.928
111.147	24.703	989.367	793.777
112.162	24.559	987.922	791.908
113.176	24.425	987.068	790.558
114.191	24.682	986.034	790.799
115.206	24.811	985.254	790.672
116.220	24.555	984.024	788.485
117.235	24.313	983.174	786.669
118.249	24.467	982.650	786.858
119.264	24.501	981.870	786.314
120.279	24.537	980.740	785.496
121.293	24.427	980.551	784.792
122.308	24.514	980.030	784.687
123.322	24.623	978.784	784.098
124.337	24.580	977.971	783.189
125.352	24.411	976.739	781.394
126.366	24.048	974.878	778.249
127.381	23.603	973.520	775.155
128.395	24.126	973.769	777.566
129.410	24.819	973.377	780.210
130.424	25.102	972.546	780.706
131.439	25.046	971.368	779.448
132.454	24.968	970.542	778.374
133.468	24.960	969.988	777.831
134.483	25.021	968.855	777.118
135.497	24.916	968.731	776.492
136.512	25.163	967.829	776.770
137.527	25.272	966.980	776.493
138.541	25.255	966.413	775.895
139.556	25.295	965.638	775.376
140.570	25.368	964.515	774.722
141.585	25.253	964.047	773.782
142.600	25.369	963.145	773.487
143.614	25.267	962.291	772.294
144.629	25.409	961.649	772.322
145.643	25.625	960.822	772.520
146.658	25.547	959.577	771.115
147.673	25.228	958.489	768.806
148.687	25.216	957.649	768.013
149.702	25.068	956.614	766.480
150.716	25.043	955.439	765.365
151.731	25.059	954.601	764.692
152.746	25.119	954.008	764.407
153.760	25.246	953.301	764.313
154.775	25.515	952.169	764.481
155.789	25.514	951.476	763.853
156.804	25.310	950.992	762.532
157.819	25.286	949.752	761.367
158.833	25.322	949.309	761.099
159.848	25.376	948.618	760.708
160.862	25.576	947.498	760.585
161.877	25.291	946.532	758.541
162.892	25.277	945.856	757.872
163.906	25.436	945.089	757.862
164.921	25.421	944.273	757.076
165.935	25.262	942.987	755.310
166.950	25.527	941.792	755.398
167.964	25.417	940.935	754.181
168.979	25.461	940.047	753.590
169.994	25.166	939.017	751.459
171.008	25.146	937.883	750.402
172.023	25.348	937.171	750.612
173.037	25.592	936.565	751.077
174.052	25.324	935.472	749.016
175.067	25.198	934.278	747.472
176.081	25.115	933.606	746.520
177.096	25.052	932.982	745.693
178.110	25.309	931.551	745.554
179.125	25.031	931.007	743.896
180.140	24.687	930.032	741.625
181.154	24.882	929.262	741.755
182.169	24.995	929.050	741.987
183.183	25.154	928.510	742.148
184.198	25.380	928.152	742.732
185.213	25.326	927.656	742.046
186.227	25.227	927.117	741.137
187.242	25.308	926.844	741.190
188.256	25.389	925.945	740.740
189.271	25.291	925.021	739.532
190.286	25.486	923.963	739.421
191.300	25.387	923.500	738.578
192.315	24.835	921.809	734.896
193.329	24.121	920.076	730.521
194.344	23.707	919.074	727.963
195.359	24.193	919.629	730.332
196.373	25.075	919.570	733.831
197.388	25.279	919.625	734.645
198.402	25.319	918.777	734.068
199.417	25.139	918.392	732.960
200.432	25.286	917.687	732.932
201.446	25.152	917.313	732.021
202.461	24.897	916.458	730.233
203.475	24.809	915.990	729.439
204.490	24.404	914.346	726.417
205.504	23.485	912.215	720.924
206.519	23.738	912.439	722.069
207.534	24.642	912.778	725.943
208.548	24.886	911.773	726.074
209.563	25.247	912.051	727.695
210.577	25.253	910.903	726.739
211.592	24.807	910.447	724.504
212.607	25.516	909.833	726.819
213.621	25.458	909.950	726.614
214.636	25.386	908.778	725.322
215.650	25.469	908.223	725.151
216.665	25.324	907.807	724.169
217.680	25.433	907.514	724.311
218.694	25.731	906.505	724.641
219.709	25.246	905.826	722.081
220.723	24.652	905.046	719.009
221.738	25.045	904.664	720.222
222.753	25.279	903.904	720.492
223.767	25.180	903.274	719.527
224.782	25.319	902.472	719.381
225.796	25.559	901.811	719.751
226.811	25.594	901.439	719.531
227.826	25.239	899.964	716.872
228.840	24.436	898.536	712.469
229.855	24.242	898.263	711.414
230.869	24.628	897.588	712.358
231.884	24.288	896.529	710.099
232.899	24.364	896.180	710.060
233.913	25.038	896.704	713.097
234.928	25.293	896.537	713.916
235.942	25.161	895.760	712.710
236.957	25.097	895.055	711.831
237.972	24.840	894.119	710.003
238.986	24.766	892.981	708.746
240.001	24.928	892.666	709.076
241.015	24.923	891.901	708.385
242.030	25.045	891.445	708.442
243.045	25.314	890.879	708.991
244.059	25.180	890.812	708.346
245.074	25.259	890.618	708.442
246.088	25.439	888.990	707.793
247.103	25.011	888.236	705.445
248.117	25.070	887.616	705.123
249.132	25.555	887.769	707.089
250.147	25.911	887.489	708.204
251.161	26.149	886.945	708.639
252.176	26.174	886.764	708.530
253.190	26.211	885.791	707.834
254.205	26.174	885.498	707.393
255.220	26.409	884.818	707.709
256.234	26.303	884.857	707.263
257.249	26.211	883.925	706.095
258.263	26.102	883.073	704.927
259.278	26.043	882.773	704.393
260.293	26.259	881.869	704.452
261.307	26.236	881.735	704.194
262.322	26.201	881.069	703.465
263.336	26.099	880.465	702.522
264.351	25.428	879.303	698.923
265.366	24.576	876.906	693.648
266.380	24.125	875.841	690.994
267.395	25.011	876.478	694.875
268.409	25.681	876.729	697.609
269.424	25.870	875.613	697.394
270.439	25.882	875.273	697.107
271.453	25.845	874.972	696.662
272.468	25.942	874.151	696.321
273.482	26.056	873.880	696.485
274.497	26.355	873.338	697.142
275.512	26.102	872.026	695.062
276.526	25.548	870.795	691.887
277.541	25.725	870.572	692.330
278.555	26.120	870.628	693.832
279.570	25.811	869.827	691.945
280.585	25.623	868.984	690.492
281.599	25.654	868.985	690.550
282.614	25.915	868.366	690.998
283.628	25.452	867.044	688.111
284.643	25.112	866.163	686.052
285.657	25.410	866.538	687.426
286.672	25.544	865.324	686.916
287.687	24.967	864.334	683.865
288.701	25.207	864.378	684.757
289.716	25.618	864.294	686.199
290.730	25.302	863.407	684.228
291.745	25.239	862.558	683.256
292.760	24.948	861.664	681.380
293.774	25.002	861.077	681.061
294.789	25.801	861.865	684.665
295.803	26.548	861.544	687.184
296.818	26.579	860.918	686.742
297.833	26.652	860.715	686.796
298.847	26.242	859.632	684.317
299.862	26.032	858.438	682.511
300.876	26.202	858.476	683.124
301.891	26.491	858.263	683.988
302.906	26.531	857.731	683.654
303.920	26.127	856.226	680.871
304.935	25.918	855.972	679.819
305.949	26.589	855.309	681.762
306.964	26.510	855.183	681.304
307.979	26.287	854.185	679.610
308.993	26.205	854.033	679.120
310.008	26.613	853.805	680.411
311.022	26.691	853.338	680.271
312.037	26.648	852.195	679.141
313.052	26.319	851.770	677.509
314.066	26.182	850.819	676.180
315.081	25.531	849.576	672.698
316.095	24.826	848.347	669.029
317.110	25.310	848.365	670.793
318.125	26.254	848.502	674.367
319.139	25.861	847.757	672.248
320.154	24.684	845.645	666.133
321.168	24.166	845.103	663.718
322.183	24.800	845.418	666.266
323.197	25.721	845.920	670.036
324.212	26.071	845.386	670.853
325.227	26.177	845.176	671.020
326.241	26.182	844.732	670.630
327.256	26.195	843.937	669.986
328.270	26.061	843.351	668.965
329.285	25.936	842.835	668.032
330.300	25.763	842.046	666.709
331.314	25.625	841.256	665.514
332.329	25.776	840.620	665.508
333.343	26.215	840.310	666.826
334.358	26.539	839.855	667.601
335.373	26.334	839.488	666.495
336.387	26.527	838.762	666.570
337.402	26.646	838.552	666.782
338.416	26.824	838.178	667.081
339.431	26.837	837.676	666.670
340.446	26.885	837.127	666.349
341.460	27.053	837.317	667.061
342.475	26.945	836.283	665.783
343.489	26.830	835.302	664.518
344.504	26.679	834.893	663.582
345.519	26.972	834.793	664.518
346.533	27.130	834.533	664.831
347.548	27.303	833.904	664.904
348.562	27.183	833.490	664.073
349.577	27.139	832.816	663.317
350.592	27.220	832.385	663.211
351.606	27.073	831.916	662.243
352.621	27.167	831.451	662.159
353.635	26.967	830.760	660.820
354.650	26.861	830.367	660.063
355.665	26.594	829.134	658.056
356.679	25.593	827.403	652.989
357.694	25.458	827.069	652.180
358.708	26.134	827.047	654.555
359.723	26.147	826.042	653.750
360.738	26.331	826.087	654.395
361.752	26.784	825.917	655.841
362.767	26.810	825.824	655.803
363.781	27.040	825.604	656.401
364.796	27.304	825.658	657.341
365.810	27.394	825.279	657.307
366.825	27.517	824.530	657.095
367.840	27.605	824.474	657.310
368.854	27.464	823.338	655.839
369.869	26.988	822.779	653.622
370.883	26.782	822.147	652.320
371.898	27.044	821.613	652.779
372.913	26.951	820.788	651.732
373.927	26.836	819.998	650.637
374.942	26.875	819.949	650.678
375.956	27.183	819.321	651.226
376.971	27.294	818.763	651.123
377.986	27.294	818.312	650.706
379.000	27.731	817.606	651.649
380.015	27.593	817.201	650.774
381.029	27.331	816.891	649.538
382.044	27.289	816.044	648.658
383.059	27.619	815.487	649.331
384.073	27.434	815.237	648.417
385.088	27.439	814.885	648.095
386.102	27.518	814.056	647.661
387.117	27.184	813.815	646.223
388.132	27.248	812.900	645.669
389.146	27.094	811.964	644.322
390.161	26.466	811.397	641.587
391.175	26.561	811.063	641.602
392.190	26.962	811.343	643.190
393.205	27.138	810.717	643.258
394.219	26.255	808.880	638.626
395.234	24.507	806.478	630.507
396.248	23.694	805.493	626.812
397.263	24.811	806.548	631.522
398.278	26.642	807.870	638.968
399.292	27.150	807.890	640.718
400.307	26.728	807.212	638.636
401.321	26.614	806.291	637.452
402.336	26.807	806.110	637.932
403.350	27.131	806.190	639.077
404.365	27.528	805.755	640.072
405.380	27.785	805.987	641.100
406.394	28.191	805.255	641.885
407.409	28.275	804.977	641.904
408.423	28.258	804.575	641.467
409.438	28.066	803.973	640.256
410.453	28.112	803.673	640.123
411.467	28.167	803.241	639.913
412.482	28.306	802.040	639.385
413.496	28.157	802.103	638.860
414.511	28.150	801.794	638.534
415.526	28.265	801.225	638.423
416.540	28.128	800.699	637.469
417.555	28.337	800.063	637.634
418.569	27.879	799.637	635.646
419.584	27.785	799.172	634.892
420.599	27.912	798.366	634.639
421.613	110.558	1283.011	1454.436
422.628	95.340	1353.608	1454.531
