DTS Sentinel unit serial number:	SN413079Multiplexer serial number:	ORYXHardware model number:	OX4-SRSoftware version number:	ORYX F/W v4.00 Oryx Data Collector v3.7.2.0data status	okinstallation	princeton_trtdifferential loss correction	single-endedforward channel	channel 3reverse channel	N/Adate	2019/09/12time	06:46:11forward acquisition time	60.00reverse acquisition time	0.00gamma	496.2192k internal	0.2320k external	0.2320temperature offset calibration	1.0035default loss term (dB/km)	0.3790temperature slope calibration	1.0000multiplexer offset coefficient	1.0000multiplexer slope coefficient	1.0000fibre end	0.00T internal ref (°C)	32.16T ext. ref 1 (°C)	1.60T ext. ref 2 (°C)	27.30length (m)	temperature (°C)	Stokes	anti-Stokes-747.200	-17.538	-0.381	0.242
-746.185	-149.043	-0.124	-0.010
-745.171	-200.000	-0.033	-0.233
-744.156	-108.460	-0.308	0.067
-743.142	65.360	0.104	0.106
-742.127	-67.686	0.137	-0.054
-741.112	-145.678	0.238	0.021
-740.098	800.000	-0.074	0.237
-739.083	-83.245	-0.434	-0.141
-738.069	-171.671	0.290	-0.010
-737.054	-128.508	-0.158	0.023
-736.039	-132.566	-0.222	-0.029
-735.025	-200.000	0.045	-0.256
-734.010	61.605	0.184	-0.185
-732.996	-131.930	-0.211	0.028
-731.981	-200.000	-0.053	0.258
-730.966	-92.295	0.234	0.067
-729.952	1.047	0.105	0.076
-728.937	75.202	-0.337	-0.359
-727.923	161.760	-0.143	-0.202
-726.908	-171.417	-0.123	-0.004
-725.894	-171.470	-0.392	0.013
-724.879	-25.123	0.170	-0.102
-723.864	6.546	0.144	0.108
-722.850	231.863	-0.048	-0.080
-721.835	23.400	-0.137	-0.114
-720.821	-37.960	0.214	-0.115
-719.806	-200.000	0.003	-0.260
-718.791	14.477	0.163	0.128
-717.777	-125.037	-0.290	0.045
-716.762	-40.175	-0.251	-0.132
-715.748	800.000	0.061	-0.240
-714.733	800.000	0.091	-0.327
-713.718	-200.000	0.000	0.034
-712.704	-118.674	-0.276	0.049
-711.689	-200.000	0.004	-0.198
-710.675	-6.249	-0.278	-0.192
-709.660	110.955	-0.100	0.122
-708.645	97.623	0.148	-0.172
-707.631	212.353	0.263	0.419
-706.616	-113.528	0.247	0.049
-705.602	-99.747	0.110	-0.028
-704.587	800.000	0.062	0.197
-703.572	80.122	0.017	0.019
-702.558	-128.040	0.376	0.054
-701.543	272.527	-0.094	-0.167
-700.529	800.000	-0.040	0.143
-699.514	800.000	0.023	-0.096
-698.499	-200.000	0.007	0.048
-697.485	11.179	0.127	-0.098
-696.470	474.956	-0.019	0.044
-695.456	-200.000	0.010	-0.162
-694.441	-10.249	-0.062	0.041
-693.426	89.944	-0.064	-0.072
-692.412	800.000	0.077	-0.271
-691.397	71.975	-0.097	0.102
-690.383	28.111	-0.051	0.043
-689.368	-81.220	0.110	0.037
-688.354	-140.091	0.189	-0.020
-687.339	737.923	-0.153	-0.415
-686.324	-19.052	-0.229	-0.144
-685.310	800.000	-0.127	0.386
-684.295	21.587	-0.251	-0.206
-683.281	128.260	-0.137	-0.176
-682.266	-200.000	0.010	0.070
-681.251	-200.000	-0.037	-0.209
-680.237	259.897	-0.106	-0.186
-679.222	-138.314	0.164	-0.018
-678.208	-200.000	0.015	-0.469
-677.193	-200.000	0.042	-0.200
-676.178	-75.716	-0.175	-0.063
-675.164	166.940	0.129	0.184
-674.149	-147.249	0.292	0.025
-673.135	97.226	0.123	0.142
-672.120	-53.410	0.111	-0.051
-671.105	37.682	-0.383	0.343
-670.091	156.240	0.042	-0.059
-669.076	-200.000	0.004	-0.140
-668.062	253.070	-0.151	-0.260
-667.047	125.215	-0.157	-0.199
-666.032	-108.262	-0.045	-0.010
-665.018	800.000	0.051	0.189
-664.003	41.607	-0.116	0.106
-662.989	-42.398	0.249	0.128
-661.974	-39.461	-0.167	0.088
-660.959	629.981	0.192	0.491
-659.945	-118.744	0.165	0.029
-658.930	39.609	-0.053	0.048
-657.916	-200.000	-0.058	0.288
-656.901	70.123	-0.241	0.251
-655.886	418.790	-0.058	-0.125
-654.872	-200.000	0.012	-0.080
-653.857	-83.805	-0.167	-0.054
-652.843	-152.107	-0.285	0.021
-651.828	-52.786	0.156	-0.073
-650.814	70.328	0.109	-0.114
-649.799	15.100	-0.281	-0.222
-648.784	523.684	0.097	-0.230
-647.770	35.559	0.208	-0.184
-646.755	20.292	-0.036	0.029
-645.741	488.750	0.075	0.173
-644.726	567.614	0.011	-0.026
-643.711	-200.000	-0.025	-0.136
-642.697	703.535	-0.105	-0.278
-641.682	-110.140	0.388	0.082
-640.668	-200.000	0.055	-0.259
-639.653	-114.619	-0.264	0.051
-638.638	-200.000	-0.043	-0.421
-637.624	800.000	0.118	0.395
-636.609	-200.000	0.025	0.252
-635.595	800.000	0.092	-0.364
-634.580	-200.000	0.018	-0.109
-633.565	-118.798	-0.239	0.042
-632.551	800.000	-0.068	-0.283
-631.536	800.000	0.027	-0.117
-630.522	800.000	0.059	-0.184
-629.507	44.637	-0.124	-0.114
-628.492	56.869	-0.064	0.063
-627.478	-99.229	0.273	0.069
-626.463	-54.206	-0.219	-0.100
-625.449	91.099	-0.202	0.228
-624.434	-5.478	0.110	-0.076
-623.419	-57.088	-0.141	-0.062
-622.405	-15.346	0.066	-0.043
-621.390	800.000	0.113	-0.353
-620.376	-184.024	-0.413	0.007
-619.361	255.237	0.118	-0.203
-618.346	-31.324	-0.171	-0.097
-617.332	242.226	-0.065	-0.109
-616.317	150.633	-0.054	0.074
-615.303	800.000	-0.088	-0.333
-614.288	-86.419	0.324	0.100
-613.273	-33.818	-0.200	-0.111
-612.259	300.246	-0.198	0.368
-611.244	-120.934	0.231	0.039
-610.230	-200.000	-0.006	-0.091
-609.215	31.585	-0.083	-0.072
-608.201	-200.000	0.022	-0.288
-607.186	-200.000	0.028	-0.128
-606.171	319.543	-0.068	0.130
-605.157	120.886	-0.200	0.251
-604.142	-200.000	-0.038	-0.299
-603.128	-200.000	-0.007	-0.112
-602.113	-81.061	-0.346	-0.115
-601.098	-65.708	0.184	0.074
-600.084	215.919	0.167	-0.267
-599.069	-30.084	-0.203	0.116
-598.055	800.000	0.018	-0.076
-597.040	-107.806	0.500	0.110
-596.025	-51.619	-0.143	-0.067
-595.011	-77.477	0.147	-0.051
-593.996	-132.896	0.121	0.016
-592.982	371.753	-0.106	-0.216
-591.967	-200.000	0.022	0.280
-590.952	77.977	-0.177	0.190
-589.938	-200.000	0.001	0.259
-588.923	-134.223	0.210	-0.026
-587.909	-62.932	0.233	0.097
-586.894	11.515	0.194	-0.149
-585.879	800.000	-0.095	-0.333
-584.865	667.639	0.068	-0.176
-583.850	-47.345	0.452	-0.221
-582.836	94.293	-0.143	-0.163
-581.821	-99.087	-0.126	0.032
-580.806	176.657	-0.161	-0.235
-579.792	55.753	0.083	-0.081
-578.777	-39.152	0.275	-0.145
-577.763	15.678	0.020	0.016
-576.748	59.832	0.109	0.108
-575.733	-102.778	-0.105	0.025
-574.719	4.487	-0.294	-0.217
-573.704	27.116	-0.030	-0.026
-572.690	9.599	-0.195	-0.148
-571.675	-116.030	-0.317	-0.059
-570.661	-94.798	-0.144	0.039
-569.646	-17.769	0.104	0.066
-568.631	-117.173	0.380	-0.069
-567.617	-127.661	-0.094	-0.014
-566.602	460.180	0.141	-0.315
-565.588	-200.000	-0.043	0.200
-564.573	115.258	-0.136	-0.167
-563.558	-162.704	0.431	-0.021
-562.544	230.104	-0.088	0.145
-561.529	-152.078	-0.179	-0.013
-560.515	-100.336	-0.199	-0.050
-559.500	-200.000	0.039	-0.303
-558.485	248.899	-0.119	-0.202
-557.471	-10.732	0.164	-0.109
-556.456	174.351	-0.046	-0.066
-555.442	226.075	-0.222	-0.361
-554.427	50.230	0.320	0.303
-553.412	-200.000	-0.003	0.057
-552.398	-69.156	-0.149	0.057
-551.383	-57.211	0.110	0.048
-550.369	-156.656	0.131	0.008
-549.354	269.679	0.162	0.286
-548.339	800.000	-0.110	0.452
-547.325	-200.000	-0.019	0.090
-546.310	64.526	-0.026	-0.026
-545.296	102.713	-0.222	0.261
-544.281	-133.816	-0.289	0.036
-543.266	-36.475	-0.078	-0.042
-542.252	109.985	0.094	-0.113
-541.237	-146.863	-0.155	-0.013
-540.223	-35.863	0.167	0.091
-539.208	-67.802	-0.102	-0.040
-538.193	147.847	-0.308	-0.417
-537.179	-200.000	-0.024	0.117
-536.164	136.740	0.111	0.145
-535.150	-15.615	0.311	0.199
-534.135	800.000	0.040	0.161
-533.121	15.130	-0.071	-0.056
-532.106	800.000	0.105	-0.322
-531.091	800.000	-0.111	0.387
-530.077	69.485	0.027	0.028
-529.062	-200.000	-0.025	0.179
-528.048	-1.115	-0.117	0.083
-527.033	-200.000	0.012	-0.164
-526.018	-154.722	0.129	-0.009
-525.004	-97.655	-0.241	-0.063
-523.989	391.789	-0.014	-0.030
-522.975	-200.000	0.046	-0.247
-521.960	-82.440	-0.071	0.023
-520.945	-34.654	0.181	0.099
-519.931	-116.656	-0.095	0.017
-518.916	-112.545	0.173	0.035
-517.902	800.000	-0.039	-0.138
-516.887	299.970	0.071	-0.130
-515.872	-134.036	0.456	0.056
-514.858	-88.281	0.181	-0.054
-513.843	307.091	0.077	0.144
-512.829	144.631	-0.151	0.203
-511.814	22.930	-0.041	0.034
-510.799	453.400	0.151	0.334
-509.785	800.000	0.088	-0.366
-508.770	-200.000	0.004	-0.050
-507.756	-178.625	0.200	-0.005
-506.741	6.271	0.319	0.237
-505.726	-200.000	0.046	0.369
-504.712	-91.561	-0.155	0.044
-503.697	-123.302	0.078	-0.012
-502.683	209.665	0.048	0.075
-501.668	-29.979	0.310	-0.177
-500.653	61.141	-0.113	-0.112
-499.639	-108.442	-0.249	-0.054
-498.624	800.000	-0.025	-0.096
-497.610	800.000	0.081	0.234
-496.595	-112.247	-0.186	-0.037
-495.581	-58.868	-0.301	-0.130
-494.566	72.249	-0.330	-0.344
-493.551	-97.190	0.116	-0.030
-492.537	-35.414	-0.226	0.123
-491.522	94.009	0.093	-0.106
-490.508	-200.000	0.008	0.079
-489.493	-142.096	-0.180	0.018
-488.478	291.779	0.081	-0.147
-487.464	53.079	-0.100	0.096
-486.449	-200.000	0.013	0.111
-485.435	5.989	0.082	0.061
-484.420	-89.267	0.182	0.054
-483.405	788.836	-0.098	-0.269
-482.391	71.323	-0.183	0.190
-481.376	143.279	-0.118	-0.158
-480.362	-91.144	0.180	-0.052
-479.347	-107.486	-0.225	0.049
-478.332	-200.000	-0.023	-0.189
-477.318	374.587	-0.031	-0.063
-476.303	-200.000	0.005	-0.073
-475.289	-25.346	-0.312	-0.185
-474.274	-56.597	-0.067	-0.030
-473.259	78.411	0.172	0.184
-472.245	-200.000	0.057	-0.270
-471.230	400.879	0.155	0.325
-470.216	-35.214	0.191	0.104
-469.201	800.000	0.090	-0.296
-468.186	-200.000	0.056	-0.420
-467.172	356.173	0.056	-0.111
-466.157	-200.000	0.013	0.100
-465.143	308.328	0.172	-0.320
-464.128	164.985	-0.109	-0.154
-463.113	800.000	0.086	0.300
-462.099	312.183	0.063	-0.119
-461.084	394.698	-0.021	0.044
-460.070	120.353	0.123	0.153
-459.055	-94.753	-0.431	-0.117
-458.040	-200.000	0.048	-0.330
-457.026	-124.704	0.073	-0.011
-456.011	116.650	-0.080	0.098
-454.997	-6.596	0.194	0.132
-453.982	-200.000	-0.010	-0.144
-452.968	-139.925	0.299	-0.032
-451.953	-200.000	0.007	-0.098
-450.938	349.867	-0.090	-0.178
-449.924	800.000	0.065	0.269
-448.909	-200.000	0.005	0.142
-447.895	21.449	-0.146	0.119
-446.880	385.267	-0.116	0.239
-445.865	50.899	-0.121	-0.114
-444.851	618.484	-0.224	-0.562
-443.836	-138.142	0.224	0.025
-442.822	-200.000	0.021	0.155
-441.807	6.868	0.176	0.131
-440.792	-139.934	-0.132	0.014
-439.778	-55.055	-0.179	0.080
-438.763	-184.855	0.177	0.003
-437.749	-9.712	-0.285	-0.190
-436.734	220.227	-0.201	-0.322
-435.719	-200.000	0.013	-0.187
-434.705	39.110	-0.106	0.095
-433.690	800.000	0.027	-0.101
-432.676	208.452	-0.113	0.177
-431.661	439.702	-0.117	0.255
-430.646	800.000	0.058	0.230
-429.632	-61.501	-0.288	0.121
-428.617	-200.000	0.006	0.223
-427.603	-45.078	0.143	0.071
-426.588	-114.261	0.194	0.037
-425.573	-102.795	-0.307	0.073
-424.559	-200.000	-0.037	-0.188
-423.544	226.883	0.129	-0.210
-422.530	-200.000	-0.051	0.248
-421.515	672.200	0.070	-0.180
-420.500	-200.000	0.016	0.208
-419.486	-113.161	0.415	-0.082
-418.471	-70.335	0.303	0.115
-417.457	-5.491	0.398	0.273
-416.442	800.000	0.098	0.357
-415.428	87.878	-0.100	-0.111
-414.413	-61.898	0.172	0.072
-413.398	98.368	-0.176	-0.202
-412.384	67.511	-0.224	-0.229
-411.369	-156.581	-0.307	-0.019
-410.355	-51.400	-0.329	-0.153
-409.340	62.829	0.279	-0.279
-408.325	45.128	-0.093	0.085
-407.311	26.470	0.294	-0.245
-406.296	126.747	-0.181	-0.229
-405.282	-64.977	-0.167	0.067
-404.267	800.000	0.091	0.252
-403.252	46.523	-0.029	0.027
-402.238	-200.000	-0.002	-0.033
-401.223	-200.000	-0.038	0.222
-400.209	-187.050	-0.281	-0.004
-399.194	-200.000	-0.046	-0.312
-398.179	-200.000	0.017	0.228
-397.165	224.938	0.147	-0.238
-396.150	88.268	-0.113	0.125
-395.136	-75.583	-0.100	-0.036
-394.121	-166.778	-0.094	0.004
-393.106	-44.344	0.320	-0.160
-392.092	-58.560	0.293	0.127
-391.077	248.504	0.181	-0.306
-390.063	9.135	0.065	0.049
-389.048	-84.974	-0.184	-0.058
-388.033	-200.000	0.067	-0.381
-387.019	29.334	-0.145	-0.123
-386.004	-200.000	-0.015	-0.148
-384.990	101.826	-0.167	0.194
-383.975	430.936	0.089	0.191
-382.960	-40.039	0.175	0.091
-381.946	10.353	-0.370	0.281
-380.931	-33.592	-0.117	0.064
-379.917	-200.000	0.000	0.113
-378.902	-4.830	0.288	0.198
-377.888	-200.000	0.028	-0.330
-376.873	800.000	-0.059	0.222
-375.858	-12.953	-0.200	-0.130
-374.844	27.267	-0.170	-0.142
-373.829	155.466	-0.056	0.077
-372.815	461.762	0.128	0.284
-371.800	217.316	-0.044	-0.070
-370.785	117.557	-0.043	-0.052
-369.771	130.208	-0.151	-0.193
-368.756	-133.222	0.152	-0.019
-367.742	170.669	0.117	0.167
-366.727	90.027	0.141	0.157
-365.712	-11.973	-0.098	0.064
-364.698	485.089	0.115	0.262
-363.683	-200.000	0.025	0.136
-362.669	267.380	0.179	0.312
-361.654	-82.018	-0.057	0.019
-360.639	-48.158	-0.103	0.050
-359.625	780.513	0.016	0.044
-358.610	439.689	0.108	-0.236
-357.596	-45.645	0.350	0.173
-356.581	-21.171	0.138	-0.084
-355.566	-127.666	0.264	-0.038
-354.552	-200.000	0.019	0.124
-353.537	763.049	0.111	-0.301
-352.523	457.188	0.086	-0.191
-351.508	104.196	-0.029	0.034
-350.493	-200.000	-0.078	0.363
-349.479	-148.056	0.047	-0.004
-348.464	187.471	-0.058	-0.086
-347.450	19.839	-0.140	0.112
-346.435	-104.935	0.323	0.074
-345.420	-3.218	0.177	0.123
-344.406	-49.721	-0.064	-0.030
-343.391	-174.745	-0.274	-0.008
-342.377	-69.609	0.182	-0.069
-341.362	800.000	0.085	0.362
-340.348	-111.360	-0.272	0.055
-339.333	-86.362	0.289	0.088
-338.318	-200.000	0.028	0.255
-337.304	-77.180	0.089	0.031
-336.289	-187.639	-0.249	-0.003
-335.275	479.223	0.079	0.177
-334.260	76.448	-0.129	0.137
-333.245	763.488	-0.110	0.297
-332.231	800.000	-0.110	0.338
-331.216	800.000	0.025	0.075
-330.202	-200.000	-0.040	0.360
-329.187	-70.850	-0.168	-0.063
-328.172	-164.836	0.323	-0.014
-327.158	800.000	-0.099	0.347
-326.143	-112.916	-0.310	-0.061
-325.129	-129.437	0.177	-0.024
-324.114	134.845	0.055	0.072
-323.099	441.719	-0.034	0.075
-322.085	-173.552	0.148	0.004
-321.070	-150.404	-0.271	0.021
-320.056	-67.078	-0.080	0.031
-319.041	39.158	-0.243	0.216
-318.026	-32.442	0.123	0.068
-317.012	-141.261	-0.253	0.026
-315.997	-89.626	0.082	-0.024
-314.983	56.694	-0.167	-0.161
-313.968	204.199	0.123	-0.190
-312.953	-155.994	0.332	0.021
-311.939	-69.165	-0.061	-0.023
-310.924	177.134	0.025	0.036
-309.910	-72.915	0.192	0.070
-308.895	-144.848	0.220	0.020
-307.880	125.243	0.087	0.109
-306.866	148.288	0.210	-0.282
-305.851	-16.631	0.167	0.105
-304.837	-78.386	0.067	-0.023
-303.822	-200.000	-0.028	0.189
-302.807	-5.636	-0.034	-0.023
-301.793	-2.182	0.040	0.028
-300.778	-96.891	-0.140	0.037
-299.764	-6.915	0.132	0.089
-298.749	-200.000	-0.014	-0.131
-297.735	134.329	-0.052	0.067
-296.720	-148.417	-0.346	0.028
-295.705	3.919	-0.126	-0.092
-294.691	-104.973	-0.568	-0.129
-293.676	-108.938	-0.165	0.035
-292.662	0.049	-0.448	-0.317
-291.647	106.142	-0.066	-0.078
-290.632	-189.724	0.182	0.002
-289.618	-51.041	0.234	0.109
-288.603	-136.284	0.312	-0.036
-287.589	314.679	0.089	-0.167
-286.574	25.024	-0.449	0.370
-285.559	1.557	0.224	-0.160
-284.545	675.543	0.081	-0.210
-283.530	-34.573	-0.137	0.074
-282.516	-42.616	-0.157	0.079
-281.501	-103.120	0.100	0.024
-280.486	320.261	-0.109	0.206
-279.472	12.343	0.235	0.180
-278.457	-60.003	0.340	0.144
-277.443	125.830	0.089	-0.111
-276.428	-200.000	-0.015	0.351
-275.413	-152.746	-0.214	0.015
-274.399	31.948	-0.161	0.138
-273.384	-82.798	0.092	0.030
-272.370	-200.000	0.049	0.243
-271.355	-7.343	-0.179	0.121
-270.340	-200.000	0.047	-0.237
-269.326	-131.697	-0.459	-0.060
-268.311	-1.717	0.386	0.270
-267.297	-108.808	0.123	0.026
-266.282	-184.491	-0.350	-0.006
-265.267	-99.327	-0.131	0.033
-264.253	95.821	-0.052	-0.059
-263.238	-200.000	0.041	0.220
-262.224	-78.824	0.060	-0.020
-261.209	-200.000	0.032	0.156
-260.195	-84.638	-0.294	-0.092
-259.180	118.403	0.043	-0.052
-258.165	99.158	0.092	0.106
-257.151	-84.032	-0.459	-0.145
-256.136	-130.944	0.181	0.024
-255.122	800.000	-0.059	0.225
-254.107	-107.919	-0.203	0.044
-253.092	-200.000	-0.072	-0.314
-252.078	241.935	-0.191	-0.316
-251.063	-56.002	0.166	-0.074
-250.049	-200.000	-0.032	-0.292
-249.034	-200.000	0.005	0.092
-248.019	-200.000	-0.008	0.171
-247.005	415.135	-0.035	0.073
-245.990	-200.000	0.016	-0.119
-244.976	800.000	0.210	0.587
-243.961	-47.245	-0.048	-0.023
-242.946	-200.000	-0.022	0.297
-241.932	-200.000	0.030	0.370
-240.917	-200.000	0.002	-0.037
-239.903	-103.538	0.484	-0.113
-238.888	58.364	0.166	0.162
-237.873	412.551	-0.151	-0.319
-236.859	80.518	0.136	-0.145
-235.844	-200.000	-0.027	0.234
-234.830	-200.000	-0.078	0.532
-233.815	226.153	-0.195	0.313
-232.800	800.000	-0.037	-0.158
-231.786	23.296	-0.239	0.195
-230.771	-76.250	-0.121	-0.042
-229.757	-50.125	0.360	-0.169
-228.742	-200.000	-0.038	0.182
-227.727	-113.062	0.268	0.052
-226.713	-72.392	0.063	0.023
-225.698	46.588	0.172	0.158
-224.684	-145.872	0.229	0.020
-223.669	73.756	0.216	-0.224
-222.655	121.204	0.134	-0.166
-221.640	800.000	-0.051	0.173
-220.625	323.717	-0.084	-0.159
-219.611	-200.000	0.038	-0.287
-218.596	-200.000	0.018	0.217
-217.582	-200.000	0.001	0.144
-216.567	487.247	0.145	-0.327
-215.552	-78.355	-0.061	0.021
-214.538	250.935	-0.063	0.105
-213.523	800.000	0.062	-0.234
-212.509	344.230	-0.058	0.113
-211.494	-84.059	-0.253	-0.080
-210.479	-200.000	-0.001	0.199
-209.465	27.804	0.126	0.105
-208.450	-200.000	-0.015	-0.110
-207.436	46.972	0.110	0.102
-206.421	-200.000	0.003	0.269
-205.406	-200.000	0.010	0.070
-204.392	-71.600	0.296	-0.109
-203.377	-109.477	0.266	0.056
-202.363	234.377	0.039	-0.064
-201.348	-200.000	-0.005	0.138
-200.333	-13.436	-0.095	0.061
-199.319	171.540	0.126	-0.179
-198.304	-5.738	-0.229	-0.155
-197.290	-200.000	-0.019	0.260
-196.275	-143.682	-0.159	0.015
-195.260	-165.158	-0.220	-0.010
-194.246	-63.349	-0.175	-0.071
-193.231	-45.228	0.220	-0.108
-192.217	-200.000	-0.108	-0.555
-191.202	113.630	0.074	0.089
-190.187	-200.000	0.026	-0.305
-189.173	800.000	-0.075	-0.267
-188.158	320.946	0.075	-0.141
-187.144	-42.377	-0.151	0.076
-186.129	162.419	0.001	0.002
-185.114	-46.525	-0.294	-0.143
-184.100	-89.775	0.282	-0.082
-183.085	-58.941	0.463	0.198
-182.071	79.105	0.062	0.066
-181.056	52.695	-0.011	0.010
-180.042	800.000	-0.063	0.189
-179.027	-200.000	0.016	0.164
-178.012	-25.192	-0.140	0.082
-176.998	800.000	0.063	-0.176
-175.983	28.694	-0.081	-0.068
-174.969	-12.969	0.285	-0.184
-173.954	-65.406	-0.136	0.054
-172.939	-86.156	0.270	-0.082
-171.925	46.284	0.154	-0.141
-170.910	110.137	-0.081	-0.096
-169.896	-200.000	-0.017	-0.086
-168.881	-130.766	-0.160	-0.021
-167.866	-125.283	-0.072	0.011
-166.852	2.460	0.077	-0.055
-165.837	-110.329	-0.182	-0.037
-164.823	48.934	-0.163	0.151
-163.808	-23.411	0.122	0.073
-162.793	12.499	0.132	-0.101
-161.779	198.228	-0.172	-0.260
-160.764	501.545	-0.043	0.098
-159.750	-200.000	0.033	0.453
-158.735	12.852	-0.237	-0.181
-157.720	-164.066	-0.414	0.019
-156.706	-110.222	0.173	0.036
-155.691	-48.668	-0.332	-0.158
-154.677	-176.416	0.278	-0.007
-153.662	-200.000	-0.032	0.216
-152.647	219.313	0.072	0.113
-151.633	-21.761	0.313	0.188
-150.618	-132.484	-0.104	-0.013
-149.604	-29.487	0.175	-0.099
-148.589	800.000	0.072	0.299
-147.574	-140.276	-0.211	-0.022
-146.560	-200.000	-0.058	0.375
-145.545	-200.000	-0.210	-0.001
-144.531	-200.000	-0.022	-0.270
-143.516	46.177	0.149	-0.137
-142.502	-200.000	-0.007	0.092
-141.487	154.298	-0.040	-0.054
-140.472	384.564	0.030	0.061
-139.458	277.983	-0.112	0.196
-138.443	165.653	0.102	-0.143
-137.429	432.167	-0.068	-0.146
-136.414	-188.350	0.143	0.002
-135.399	-200.000	-0.002	-0.037
-134.385	40.967	0.060	0.054
-133.370	722.161	-0.061	0.160
-132.356	229.816	-0.139	-0.224
-131.341	-58.480	0.457	-0.196
-130.326	-107.554	-0.344	-0.074
-129.312	37.030	-0.063	-0.055
-128.297	167.478	0.160	0.224
-127.283	-89.028	-0.098	-0.029
-126.268	64.153	-0.133	-0.132
-125.253	175.254	0.161	-0.231
-124.239	146.047	0.147	0.195
-123.224	-60.266	0.174	0.073
-122.210	-46.256	-0.142	-0.069
-121.195	-200.000	0.004	0.168
-120.180	100.871	-0.159	-0.182
-119.166	320.774	0.162	-0.304
-118.151	304.556	0.021	-0.039
-117.137	-38.588	0.320	0.167
-116.122	800.000	0.060	0.182
-115.107	-38.472	0.200	0.105
-114.093	-28.202	0.050	0.028
-113.078	401.505	0.100	-0.208
-112.064	230.423	-0.170	-0.274
-111.049	800.000	0.133	-0.364
-110.034	54.820	-0.145	-0.138
-109.020	-4.038	-0.287	0.196
-108.005	800.000	0.023	-0.067
-106.991	41.908	-0.210	0.188
-105.976	14.012	-0.115	0.088
-104.962	-65.327	0.247	-0.098
-103.947	-19.163	0.313	-0.192
-102.932	-164.674	0.346	0.015
-101.918	-126.384	-0.040	0.006
-100.903	131.424	-0.187	0.237
-99.889	-4.446	0.153	-0.104
-98.874	39.204	0.062	0.054
-97.859	-200.000	0.020	0.156
-96.845	-120.944	-0.385	-0.064
-95.830	-32.993	-0.122	0.067
-94.816	528.756	0.141	-0.329
-93.801	-118.083	0.157	0.028
-92.786	91.317	-0.072	0.079
-91.772	-76.510	0.210	-0.073
-90.757	214.729	0.092	-0.144
-89.743	-53.210	-0.179	0.081
-88.728	-86.786	0.266	0.080
-87.713	178.864	-0.106	-0.153
-86.699	51.435	-0.249	-0.233
-85.684	-93.310	-0.216	0.059
-84.670	-182.069	-0.206	0.004
-83.655	-150.062	0.130	0.010
-82.640	-124.263	-0.201	-0.031
-81.626	-200.000	0.022	-0.360
-80.611	800.000	-0.038	0.162
-79.597	800.000	-0.070	-0.272
-78.582	-71.554	0.380	0.140
-77.567	-200.000	0.021	0.407
-76.553	-67.023	-0.092	0.036
-75.538	63.999	-0.191	-0.189
-74.524	800.000	-0.094	-0.266
-73.509	-110.036	0.443	0.091
-72.494	800.000	0.066	0.267
-71.480	-102.479	-0.267	0.063
-70.465	-44.538	-0.284	-0.140
-69.451	558.853	0.064	0.152
-68.436	77.123	-0.190	0.199
-67.422	800.000	-0.054	-0.148
-66.407	414.432	0.128	-0.268
-65.392	800.000	-0.103	0.340
-64.378	-64.729	-0.280	-0.112
-63.363	-200.000	-0.016	-0.162
-62.349	96.577	0.044	0.050
-61.334	53.446	-0.998	-0.942
-60.319	106.843	0.409	0.479
-59.305	-200.000	-0.143	-0.743
-58.290	800.000	0.277	0.965
-57.276	352.507	0.789	1.540
-56.261	-200.000	96.344	595.010
-55.246	565.645	1372.858	3277.089
-54.232	160.840	2551.216	3507.096
-53.217	112.281	2163.752	2575.313
-52.203	42.850	1708.184	1532.111
-51.188	35.398	1521.875	1314.149
-50.173	33.038	1495.173	1275.139
-49.159	52.065	1544.593	1448.239
-48.144	53.988	1561.499	1477.225
-47.130	35.553	1521.324	1314.530
-46.115	32.438	1506.863	1280.819
-45.100	32.253	1503.130	1276.342
-44.086	32.190	1501.525	1274.502
-43.071	32.203	1499.551	1272.865
-42.057	32.163	1497.978	1271.209
-41.042	32.200	1496.385	1270.054
-40.027	32.283	1495.305	1269.648
-39.013	32.185	1493.794	1267.649
-37.998	32.171	1492.788	1266.654
-36.984	32.189	1491.428	1265.568
-35.969	32.133	1490.619	1264.457
-34.954	32.218	1488.636	1263.295
-33.940	32.205	1486.913	1261.698
-32.925	32.139	1486.105	1260.518
-31.911	32.176	1484.676	1259.504
-30.896	32.206	1482.897	1258.149
-29.881	32.299	1481.623	1257.637
-28.867	32.189	1480.318	1255.744
-27.852	32.240	1478.980	1254.900
-26.838	32.083	1477.901	1252.888
-25.823	32.165	1476.177	1251.926
-24.809	32.157	1474.398	1250.310
-23.794	32.222	1472.680	1249.238
-22.779	32.184	1471.969	1248.331
-21.765	32.238	1470.206	1247.147
-20.750	32.254	1469.548	1246.645
-19.736	32.163	1468.223	1244.870
-18.721	32.213	1467.319	1244.384
-17.706	32.147	1466.263	1243.000
-16.692	32.086	1465.328	1241.756
-15.677	32.161	1464.274	1241.309
-14.663	32.122	1463.007	1239.929
-13.648	32.238	1461.749	1239.578
-12.633	32.048	1461.321	1237.911
-11.619	32.131	1460.305	1237.549
-10.604	32.075	1459.560	1236.501
-9.590	32.058	1458.950	1235.819
-8.575	32.112	1457.539	1234.936
-7.560	32.131	1457.105	1234.641
-6.546	32.098	1456.094	1233.521
-5.531	32.110	1454.945	1232.575
-4.517	32.135	1453.809	1231.726
-3.502	32.144	1452.760	1230.851
-2.487	32.201	1451.313	1229.946
-1.473	32.052	1450.805	1228.496
-0.458	32.046	1449.804	1227.558
0.556	32.089	1439.492	1216.634
1.571	29.194	1414.749	1177.147
2.586	25.790	1358.953	1109.688
3.600	24.359	1279.496	1036.403
4.615	23.043	1232.411	990.806
5.629	19.190	1174.834	923.809
6.644	9.728	1088.002	808.237
7.659	2.790	1046.538	743.828
8.673	1.840	1041.515	735.604
9.688	1.691	1038.367	732.601
10.702	1.477	1037.064	730.590
11.717	1.373	1034.773	728.413
12.731	4.302	1038.067	744.740
13.746	14.007	1051.288	801.154
14.761	22.265	1062.544	849.727
15.775	24.747	1064.865	863.508
16.790	25.049	1064.558	864.644
17.804	24.877	1063.694	863.035
18.819	24.636	1063.587	861.710
19.834	24.903	1062.551	862.081
20.848	24.819	1062.346	861.434
21.863	25.024	1061.989	862.054
22.877	25.168	1061.087	861.937
23.892	25.109	1060.427	861.043
24.907	24.884	1059.972	859.515
25.921	24.866	1059.521	858.986
26.936	25.090	1058.188	858.905
27.950	24.937	1057.537	857.569
28.965	24.910	1055.897	856.030
29.980	24.813	1054.867	854.660
30.994	24.763	1053.573	853.298
32.009	24.887	1053.022	853.366
33.023	25.040	1052.318	853.448
34.038	24.896	1051.080	851.684
35.053	24.757	1050.430	850.422
36.067	24.921	1049.600	850.452
37.082	24.938	1048.918	849.906
38.096	24.895	1048.300	849.127
39.111	24.958	1048.210	849.277
40.126	25.254	1046.554	849.260
41.140	25.136	1045.355	847.653
42.155	24.984	1043.436	845.307
43.169	24.651	1042.835	843.176
44.184	24.700	1041.604	842.333
45.199	24.606	1041.359	841.619
46.213	24.564	1040.220	840.429
47.228	24.639	1038.618	839.411
48.242	24.715	1038.560	839.645
49.257	24.869	1037.745	839.634
50.271	25.052	1036.769	839.628
51.286	25.009	1036.614	839.226
52.301	24.966	1035.969	838.431
53.315	25.025	1035.162	837.977
54.330	25.010	1034.306	837.142
55.344	24.961	1033.403	836.108
56.359	25.044	1032.486	835.678
57.374	24.940	1031.704	834.485
58.388	24.911	1030.533	833.333
59.403	24.831	1029.926	832.394
60.417	24.809	1029.232	831.659
61.432	24.582	1028.700	830.100
62.447	24.591	1028.260	829.714
63.461	24.796	1027.773	830.198
64.476	24.756	1026.818	829.166
65.490	24.691	1026.161	828.263
66.505	24.679	1024.731	826.978
67.520	24.633	1024.332	826.370
68.534	24.608	1023.825	825.772
69.549	24.582	1022.714	824.684
70.563	24.209	1021.422	821.849
71.578	24.211	1020.574	821.103
72.593	24.283	1019.553	820.541
73.607	24.176	1018.417	819.062
74.622	24.160	1017.428	818.122
75.636	24.420	1017.141	819.013
76.651	24.578	1016.192	818.902
77.666	24.517	1015.246	817.788
78.680	24.398	1014.613	816.657
79.695	24.387	1014.216	816.218
80.709	24.317	1013.896	815.567
81.724	24.677	1012.510	816.025
82.739	24.655	1011.541	815.070
83.753	24.602	1011.139	814.432
84.768	24.854	1010.627	815.098
85.782	25.153	1009.926	815.819
86.797	25.380	1008.944	815.985
87.812	25.365	1008.147	815.199
88.826	25.120	1007.429	813.435
89.841	25.111	1006.728	812.758
90.855	25.197	1006.177	812.632
91.870	25.385	1004.763	812.265
92.884	25.237	1003.921	810.845
93.899	25.191	1002.708	809.588
94.914	25.034	1002.026	808.254
95.928	25.170	1001.469	808.349
96.943	25.209	1000.618	807.767
97.957	24.846	999.647	805.275
98.972	24.642	998.445	803.321
99.987	24.573	997.072	801.833
101.001	24.435	997.264	801.300
102.016	24.832	996.264	802.205
103.030	24.975	995.187	801.906
104.045	24.871	994.088	800.486
105.060	24.813	992.938	799.227
106.074	24.582	991.860	797.262
107.089	24.515	991.167	796.334
108.103	24.877	991.147	797.861
109.118	24.914	990.308	797.281
110.133	24.708	988.750	795.039
111.147	24.664	988.061	794.220
112.162	24.685	986.667	793.122
113.176	24.337	985.634	790.679
114.191	24.460	985.198	790.804
115.206	24.585	984.137	790.434
116.220	24.279	982.967	788.072
117.235	24.154	982.146	786.794
118.249	24.517	981.755	788.013
119.264	24.349	980.955	786.562
120.279	24.183	980.104	785.078
121.293	24.289	979.011	784.600
122.308	24.355	978.697	784.567
123.322	24.383	977.694	783.816
124.337	24.251	976.597	782.289
125.352	24.237	975.511	781.287
126.366	23.807	973.699	777.885
127.381	23.474	972.527	775.424
128.395	24.011	972.169	777.416
129.410	24.639	972.254	780.159
130.424	24.798	971.614	780.272
131.439	24.873	970.495	779.630
132.454	24.961	969.158	778.867
133.468	24.815	968.800	777.878
134.483	24.795	967.783	776.904
135.497	24.829	967.213	776.525
136.512	24.969	967.073	776.955
137.527	25.007	966.215	776.362
138.541	25.103	965.016	775.743
139.556	25.056	964.918	775.391
140.570	25.154	963.768	774.824
141.585	25.213	962.760	774.201
142.600	25.260	962.452	774.086
143.614	25.050	961.447	772.302
144.629	25.084	960.745	771.819
145.643	25.400	960.413	772.843
146.658	25.263	958.778	770.869
147.673	25.059	957.608	768.985
148.687	25.041	956.866	768.246
149.702	24.838	955.794	766.445
150.716	24.899	954.579	765.666
151.731	24.948	953.385	764.850
152.746	25.068	952.685	764.734
153.760	25.073	952.200	764.299
154.775	25.330	951.884	765.072
155.789	25.381	951.004	764.515
156.804	25.362	949.626	763.256
157.819	25.298	948.839	762.285
158.833	25.116	948.345	761.048
159.848	25.345	947.590	761.345
160.862	25.373	946.631	760.627
161.877	25.263	945.894	759.502
162.892	25.138	944.948	758.148
163.906	25.271	944.399	758.200
164.921	25.221	943.319	757.055
165.935	25.327	941.980	756.363
166.950	25.323	940.989	755.481
167.964	25.175	940.584	754.467
168.979	25.314	939.399	754.035
169.994	25.252	937.781	752.407
171.008	25.169	936.861	751.256
172.023	25.177	936.560	750.984
173.037	25.449	935.660	751.332
174.052	25.266	934.785	749.796
175.067	25.037	933.879	748.049
176.081	25.032	932.989	747.249
177.096	25.039	932.099	746.500
178.110	25.006	931.570	745.870
179.125	24.855	930.131	744.024
180.140	24.542	929.291	741.989
181.154	24.582	928.787	741.684
182.169	24.820	928.159	742.106
183.183	25.179	927.739	743.191
184.198	25.122	927.726	742.881
185.213	25.134	927.329	742.546
186.227	25.149	926.487	741.869
187.242	25.203	925.922	741.572
188.256	25.237	925.172	741.048
189.271	25.250	924.612	740.586
190.286	25.342	923.820	740.266
191.300	25.192	922.987	738.916
192.315	24.622	921.374	735.217
193.329	23.901	920.027	731.112
194.344	23.404	918.999	728.188
195.359	24.023	919.639	731.174
196.373	24.906	919.965	734.995
197.388	25.247	919.187	735.710
198.402	25.175	918.941	735.152
199.417	25.134	918.408	734.492
200.432	25.240	918.053	734.575
201.446	25.100	917.157	733.224
202.461	24.759	916.287	731.069
203.475	24.800	915.959	730.911
204.490	24.429	914.230	727.954
205.504	23.175	912.171	721.142
206.519	23.608	912.548	723.140
207.534	24.576	912.511	726.990
208.548	24.643	911.973	726.768
209.563	25.079	911.619	728.192
210.577	25.139	911.070	727.933
211.592	24.826	910.200	725.905
212.607	25.325	910.067	727.758
213.621	25.456	909.797	728.010
214.636	25.225	909.120	726.468
215.650	25.298	908.375	726.104
216.665	25.287	908.040	725.728
217.680	25.179	907.430	724.740
218.694	25.387	906.588	724.841
219.709	25.176	905.635	723.164
220.723	24.742	904.568	720.502
221.738	24.941	904.517	721.199
222.753	25.192	903.836	721.599
223.767	25.128	903.059	720.660
224.782	25.188	902.352	720.271
225.796	25.507	901.510	720.818
226.811	25.484	901.091	720.327
227.826	24.994	900.171	717.562
228.840	24.222	898.752	713.279
229.855	24.224	897.782	712.457
230.869	24.430	898.049	713.426
231.884	24.104	896.733	711.020
232.899	24.046	896.642	710.652
233.913	24.945	896.552	714.105
234.928	25.125	895.771	714.134
235.942	25.156	895.324	713.838
236.957	24.991	895.090	712.932
237.972	24.578	894.242	710.554
238.986	24.672	892.622	709.576
240.001	24.743	892.755	709.900
241.015	24.743	892.166	709.370
242.030	24.837	891.555	709.192
243.045	25.049	890.935	709.477
244.059	25.107	890.673	709.433
245.074	25.145	890.109	709.073
246.088	25.235	889.179	708.626
247.103	24.842	888.196	706.228
248.117	24.917	887.830	706.172
249.132	25.520	887.743	708.418
250.147	25.629	887.774	708.807
251.161	25.841	886.957	708.928
252.176	26.042	886.283	709.115
253.190	25.962	885.962	708.483
254.205	25.949	885.425	707.939
255.220	26.433	885.037	709.465
256.234	26.319	884.214	708.297
257.249	26.132	883.923	707.265
258.263	25.943	883.442	706.079
259.278	26.032	882.572	705.669
260.293	26.086	882.232	705.544
261.307	26.163	881.489	705.189
262.322	25.974	881.039	704.031
263.336	25.859	880.322	702.946
264.351	25.372	878.781	699.756
265.366	24.368	876.831	694.237
266.380	23.929	876.215	691.981
267.395	24.782	876.759	695.668
268.409	25.471	876.860	698.363
269.424	25.455	876.097	697.632
270.439	25.752	875.503	698.250
271.453	25.802	875.064	698.032
272.468	25.792	874.296	697.320
273.482	25.908	873.955	697.433
274.497	26.178	873.549	698.093
275.512	25.914	872.496	696.169
276.526	25.210	871.537	692.627
277.541	25.575	870.845	693.424
278.555	25.855	870.900	694.484
279.570	25.547	869.974	692.497
280.585	25.532	869.240	691.795
281.599	25.728	868.939	692.248
282.614	25.781	868.243	691.837
283.628	25.211	867.092	688.672
284.643	25.050	866.304	687.368
285.657	25.393	866.603	688.859
286.672	25.267	866.056	687.880
287.687	24.683	864.722	684.524
288.701	25.061	864.483	685.720
289.716	25.559	863.947	687.138
290.730	25.181	863.580	685.343
291.745	25.043	862.538	683.927
292.760	24.955	861.806	682.951
293.774	24.754	861.352	681.766
294.789	25.690	861.793	685.619
295.803	26.332	862.028	688.192
296.818	26.483	861.251	688.085
297.833	26.563	860.683	687.876
298.847	26.120	859.948	685.545
299.862	25.799	858.826	683.371
300.876	26.099	858.153	683.914
301.891	26.464	857.614	684.803
302.906	26.375	857.239	684.108
303.920	26.091	856.249	682.184
304.935	25.899	855.568	680.857
305.949	26.188	855.916	682.165
306.964	26.457	855.122	682.485
307.979	26.117	854.493	680.641
308.993	25.951	854.130	679.664
310.008	26.382	853.798	680.965
311.022	26.390	853.822	680.955
312.037	26.412	852.771	680.140
313.052	26.136	852.148	678.545
314.066	26.073	851.258	677.538
315.081	25.371	849.721	673.624
316.095	24.664	848.613	670.036
317.110	25.179	848.895	672.132
318.125	26.033	849.050	675.393
319.139	25.664	847.669	672.856
320.154	24.563	845.837	667.233
321.168	23.816	845.415	664.049
322.183	24.683	845.366	667.188
323.197	25.530	846.227	670.974
324.212	25.822	845.480	671.411
325.227	26.039	845.357	672.062
326.241	26.266	844.880	672.469
327.256	26.223	843.877	671.451
328.270	25.799	843.718	669.689
329.285	25.885	843.180	669.522
330.300	25.634	842.226	667.772
331.314	25.427	841.422	666.310
332.329	25.567	840.873	666.335
333.343	25.997	840.348	667.451
334.358	26.424	840.064	668.746
335.373	26.208	840.074	667.897
336.387	26.213	838.967	666.975
337.402	26.606	838.538	668.025
338.416	26.673	838.698	668.339
339.431	26.629	838.166	667.695
340.446	26.646	837.368	667.063
341.460	27.017	836.781	667.899
342.475	26.894	836.025	666.786
343.489	26.616	835.820	665.541
344.504	26.601	834.980	664.759
345.519	26.960	834.556	665.679
346.533	27.045	834.521	665.906
347.548	27.209	834.072	666.090
348.562	26.929	833.210	664.316
349.577	27.055	832.913	664.484
350.592	26.992	832.269	663.677
351.606	27.130	831.606	663.597
352.621	27.033	831.552	663.140
353.635	26.987	830.465	662.048
354.650	26.871	830.316	661.444
355.665	26.464	829.527	659.276
356.679	25.446	827.647	654.020
357.694	25.384	826.875	653.125
358.708	26.137	827.061	655.952
359.723	25.993	826.519	654.945
360.738	26.089	826.311	655.069
361.752	26.619	826.539	657.114
362.767	26.699	826.295	657.151
363.781	26.860	825.989	657.433
364.796	27.139	825.628	658.100
365.810	27.252	825.425	658.288
366.825	27.406	825.061	658.499
367.840	27.280	824.715	657.709
368.854	27.176	824.204	656.865
369.869	26.947	822.869	654.919
370.883	26.724	821.958	653.331
371.898	26.686	821.935	653.117
372.913	26.622	821.283	652.313
373.927	26.740	820.529	652.078
374.942	26.880	819.985	652.091
375.956	26.983	819.024	651.640
376.971	26.935	819.069	651.448
377.986	26.956	818.558	651.058
379.000	27.278	818.085	651.778
380.015	27.529	817.193	651.910
381.029	27.189	816.640	650.194
382.044	27.168	816.373	649.849
383.059	27.319	816.089	650.104
384.073	27.464	815.387	650.004
385.088	27.303	815.070	649.119
386.102	27.342	814.008	648.355
387.117	27.075	813.388	646.854
388.132	27.200	812.506	646.539
389.146	26.847	812.252	645.025
390.161	26.354	811.351	642.501
391.175	26.462	810.889	642.461
392.190	26.910	811.096	644.161
393.205	26.970	810.555	643.886
394.219	25.951	808.944	638.940
395.234	24.467	806.343	631.584
396.248	23.704	805.138	627.886
397.263	24.645	806.782	632.444
398.278	26.527	807.779	639.830
399.292	26.852	807.598	640.779
400.307	26.700	806.975	639.694
401.321	26.646	806.762	639.276
402.336	26.544	806.359	638.539
403.350	27.096	805.695	639.904
404.365	27.596	806.101	641.929
405.380	27.836	805.758	642.445
406.394	27.908	805.490	642.427
407.409	28.162	805.413	643.202
408.423	28.036	805.109	642.458
409.438	28.046	804.343	641.828
410.453	28.050	803.831	641.377
411.467	28.239	803.061	641.366
412.482	28.082	802.661	640.440
413.496	27.987	801.930	639.468
414.511	28.119	802.009	639.936
415.526	28.077	801.744	639.523
416.540	28.124	801.360	639.323
417.555	27.893	800.639	637.885
418.569	27.603	799.945	636.263
419.584	27.597	799.231	635.618
420.599	27.856	798.629	635.986
421.613	110.087	1286.458	1459.084
422.628	94.857	1357.520	1459.218
