DTS Sentinel unit serial number:	SN413079Multiplexer serial number:	ORYXHardware model number:	OX4-SRSoftware version number:	ORYX F/W v4.00 Oryx Data Collector v3.7.2.0data status	okinstallation	princeton_trtdifferential loss correction	single-endedforward channel	channel 3reverse channel	N/Adate	2019/09/12time	01:46:11forward acquisition time	60.00reverse acquisition time	0.00gamma	496.2192k internal	0.2320k external	0.2320temperature offset calibration	1.0066default loss term (dB/km)	0.3790temperature slope calibration	1.0000multiplexer offset coefficient	1.0000multiplexer slope coefficient	1.0000fibre end	0.00T internal ref (°C)	32.86T ext. ref 1 (°C)	2.06T ext. ref 2 (°C)	27.48length (m)	temperature (°C)	Stokes	anti-Stokes-747.200	800.000	0.029	0.118
-746.185	-200.000	-0.058	0.271
-745.171	20.221	-0.150	0.123
-744.156	14.754	-0.289	0.228
-743.142	800.000	0.053	0.226
-742.127	37.788	-0.289	0.260
-741.112	-91.571	-0.265	0.076
-740.098	378.043	0.193	0.399
-739.083	-9.345	0.179	-0.121
-738.069	138.299	0.119	0.158
-737.054	11.331	0.117	-0.091
-736.039	-34.874	-0.279	-0.154
-735.025	154.621	0.036	0.051
-734.010	-4.815	-0.236	-0.165
-732.996	283.703	0.128	-0.233
-731.981	800.000	0.054	-0.159
-730.966	567.609	0.068	0.168
-729.952	389.413	-0.136	0.285
-728.937	-96.372	-0.312	-0.083
-727.923	13.368	0.265	-0.208
-726.908	180.434	0.160	-0.238
-725.894	109.372	-0.123	-0.149
-724.879	-116.852	-0.359	0.066
-723.864	114.442	0.095	-0.117
-722.850	-177.129	-0.177	0.004
-721.835	-87.392	-0.101	0.031
-720.821	800.000	0.123	0.365
-719.806	-200.000	-0.002	-0.120
-718.791	-200.000	-0.025	-0.125
-717.777	122.324	-0.078	-0.098
-716.762	72.620	-0.294	0.310
-715.748	-200.000	0.020	-0.202
-714.733	-200.000	-0.029	0.224
-713.718	800.000	0.085	-0.290
-712.704	-200.000	0.001	-0.040
-711.689	-59.501	-0.245	0.106
-710.675	-200.000	-0.021	-0.174
-709.660	-147.310	0.298	0.026
-708.645	-38.935	-0.207	0.110
-707.631	-70.198	0.210	0.081
-706.616	185.884	0.133	-0.199
-705.602	140.495	-0.277	-0.369
-704.587	351.539	-0.123	-0.247
-703.572	11.835	-0.275	0.213
-702.558	146.721	-0.158	0.215
-701.543	112.642	0.087	0.107
-700.529	800.000	0.067	-0.202
-699.514	-36.004	-0.276	-0.151
-698.499	105.837	-0.007	0.008
-697.485	800.000	-0.062	-0.208
-696.470	513.197	-0.049	-0.115
-695.456	230.989	-0.134	0.222
-694.441	-200.000	0.012	0.071
-693.426	-137.678	0.066	-0.007
-692.412	-138.069	-0.166	-0.019
-691.397	-128.330	-0.181	0.026
-690.383	-8.524	0.036	-0.025
-689.368	-97.664	-0.284	0.074
-688.354	473.308	0.097	-0.221
-687.339	105.201	-0.056	0.067
-686.324	-16.609	-0.185	-0.118
-685.310	47.504	-0.079	0.074
-684.295	-85.207	0.044	-0.014
-683.281	-176.497	-0.258	-0.007
-682.266	-80.921	0.174	-0.058
-681.251	-69.980	-0.261	0.100
-680.237	-67.615	-0.277	-0.110
-679.222	-73.630	-0.256	0.094
-678.208	134.928	0.199	-0.261
-677.193	294.255	-0.129	-0.239
-676.178	56.811	-0.252	0.247
-675.164	44.030	-0.246	0.228
-674.149	-28.979	-0.016	-0.009
-673.135	111.379	-0.107	-0.130
-672.120	-45.709	-0.343	-0.171
-671.105	-108.994	0.307	-0.066
-670.091	-121.343	-0.237	-0.040
-669.076	8.950	-0.326	0.248
-668.062	-141.996	0.394	0.040
-667.047	-170.011	-0.261	-0.009
-666.032	-90.909	-0.103	-0.030
-665.018	-200.000	0.034	-0.256
-664.003	-85.544	-0.168	0.053
-662.989	-87.757	-0.207	0.063
-661.974	-87.326	0.217	0.066
-660.959	800.000	0.014	0.052
-659.945	800.000	-0.039	0.155
-658.930	106.769	-0.050	-0.060
-657.916	761.879	0.028	0.076
-656.901	-16.708	-0.163	-0.104
-655.886	-15.758	-0.209	-0.134
-654.872	265.330	-0.043	-0.075
-653.857	-140.623	0.357	0.037
-652.843	800.000	0.045	0.196
-651.828	-105.903	-0.167	-0.038
-650.814	-96.878	0.215	0.057
-649.799	485.026	-0.107	-0.245
-648.784	800.000	0.083	-0.366
-647.770	-117.919	0.259	-0.047
-646.755	104.460	0.188	-0.223
-645.741	62.733	-0.216	0.218
-644.726	800.000	0.067	-0.200
-643.711	800.000	-0.061	-0.261
-642.697	-108.182	-0.133	-0.029
-641.682	-55.597	0.178	0.080
-640.668	793.460	-0.058	-0.160
-639.653	-166.555	-0.032	0.001
-638.638	800.000	0.049	0.142
-637.624	-91.280	-0.038	-0.011
-636.609	-57.755	-0.293	-0.129
-635.595	-200.000	-0.041	-0.328
-634.580	-91.867	0.400	-0.114
-633.565	-23.467	0.297	-0.180
-632.551	-200.000	0.009	-0.105
-631.536	24.797	0.238	0.199
-630.522	-131.975	0.208	-0.027
-629.507	483.273	0.112	0.256
-628.492	-61.332	0.114	-0.048
-627.478	-164.304	-0.118	-0.005
-626.463	-11.044	-0.108	0.072
-625.449	67.662	0.076	0.078
-624.434	800.000	0.060	-0.183
-623.419	-66.151	-0.346	-0.139
-622.405	-200.000	-0.014	0.067
-621.390	143.600	0.114	0.153
-620.376	-149.093	-0.096	-0.008
-619.361	342.966	-0.109	-0.216
-618.346	236.762	-0.195	0.325
-617.332	-200.000	0.059	0.329
-616.317	-21.147	-0.240	0.148
-615.303	-200.000	0.014	-0.183
-614.288	-111.700	-0.121	0.025
-613.273	800.000	0.038	0.136
-612.259	800.000	0.051	-0.158
-611.244	-69.001	-0.168	-0.065
-610.230	-20.938	-0.158	0.098
-609.215	268.821	-0.050	-0.089
-608.201	-154.489	-0.203	-0.014
-607.186	-137.713	0.305	0.034
-606.171	8.864	0.101	0.076
-605.157	-89.936	0.228	-0.067
-604.142	-200.000	0.051	-0.371
-603.128	2.496	0.301	-0.219
-602.113	132.328	0.036	-0.046
-601.098	-10.886	0.185	0.123
-600.084	131.704	0.139	0.180
-599.069	-56.520	0.037	-0.016
-598.055	112.715	0.027	-0.033
-597.040	-125.716	-0.088	0.013
-596.025	-200.000	0.031	0.145
-595.011	-132.264	-0.133	-0.017
-593.996	-40.238	0.131	-0.068
-592.982	-189.733	0.118	0.001
-591.967	-52.445	0.243	0.113
-590.952	167.937	-0.322	-0.460
-589.938	-127.369	-0.168	-0.025
-588.923	-99.175	-0.446	0.113
-587.909	743.656	0.124	-0.335
-586.894	-159.997	-0.208	-0.011
-585.879	-82.909	0.213	0.069
-584.865	-48.230	0.157	-0.076
-583.850	46.035	0.158	-0.147
-582.836	70.717	-0.166	0.173
-581.821	-171.593	-0.198	-0.007
-580.806	800.000	-0.046	-0.189
-579.792	437.986	0.064	0.141
-578.777	-150.521	-0.332	0.026
-577.763	-159.579	0.256	-0.014
-576.748	-69.897	0.207	0.079
-575.733	86.292	0.102	-0.113
-574.719	190.499	-0.192	0.289
-573.704	800.000	0.070	-0.235
-572.690	-200.000	-0.010	-0.325
-571.675	365.198	-0.214	-0.434
-570.661	574.121	0.111	-0.272
-569.646	484.473	0.153	-0.349
-568.631	593.301	0.105	-0.260
-567.617	514.037	0.129	-0.303
-566.602	800.000	-0.072	0.203
-565.588	-200.000	0.028	-0.332
-564.573	-122.810	0.148	0.024
-563.558	-200.000	-0.012	-0.068
-562.544	-13.274	-0.131	0.085
-561.529	-106.179	-0.164	0.037
-560.515	800.000	-0.142	-0.417
-559.500	-101.846	-0.185	-0.045
-558.485	397.608	-0.026	0.055
-557.471	-126.194	0.325	0.049
-556.456	91.244	-0.148	-0.167
-555.442	-165.554	0.063	0.003
-554.427	-55.613	-0.087	0.039
-553.412	31.977	0.100	-0.087
-552.398	-200.000	0.002	0.238
-551.383	-140.284	-0.066	0.007
-550.369	53.489	-0.147	0.142
-549.354	-63.772	-0.142	0.058
-548.339	189.991	-0.150	0.226
-547.325	215.895	0.115	-0.184
-546.310	800.000	-0.116	-0.406
-545.296	800.000	-0.031	-0.099
-544.281	-76.721	0.386	-0.136
-543.266	-117.166	-0.427	-0.078
-542.252	130.168	0.016	-0.021
-541.237	205.858	-0.159	-0.249
-540.223	800.000	0.039	-0.146
-539.208	800.000	0.057	0.236
-538.193	142.592	-0.198	0.263
-537.179	800.000	-0.070	0.199
-536.164	42.886	-0.030	-0.028
-535.150	-25.108	-0.189	0.112
-534.135	-200.000	-0.025	-0.237
-533.121	792.284	0.121	0.335
-532.106	-26.986	0.242	-0.142
-531.091	-1.014	-0.100	-0.071
-530.077	-190.043	0.263	-0.003
-529.062	-139.058	0.114	-0.012
-528.048	-200.000	0.090	-0.516
-527.033	800.000	0.087	-0.316
-526.018	28.995	-0.149	-0.127
-525.004	64.404	0.275	-0.278
-523.989	-121.932	-0.016	-0.003
-522.975	-48.502	-0.421	0.203
-521.960	-138.350	-0.309	-0.034
-520.945	1.789	0.209	-0.151
-519.931	39.014	0.208	0.186
-518.916	-58.028	0.281	0.123
-517.902	-38.205	-0.168	0.089
-516.887	359.486	-0.042	0.085
-515.872	-81.151	0.287	-0.095
-514.858	4.016	0.247	-0.181
-513.843	579.391	-0.056	0.138
-512.829	30.301	0.240	0.205
-511.814	-11.098	-0.138	-0.091
-510.799	-45.483	-0.190	0.094
-509.785	800.000	-0.110	-0.470
-508.770	173.087	0.111	0.161
-507.756	564.076	0.044	-0.107
-506.741	-200.000	0.056	-0.450
-505.726	261.722	0.090	0.156
-504.712	-1.378	-0.086	0.061
-503.697	-108.746	0.122	-0.026
-502.683	357.024	0.202	0.404
-501.668	106.735	0.148	0.176
-500.653	800.000	0.046	0.152
-499.639	-56.305	0.149	0.066
-498.624	95.981	-0.175	-0.200
-497.610	-132.771	0.126	0.016
-496.595	111.039	0.151	0.182
-495.581	-200.000	-0.004	-0.020
-494.566	65.647	0.123	0.125
-493.551	-200.000	0.033	0.326
-492.537	-90.231	-0.110	-0.032
-491.522	800.000	0.061	-0.168
-490.508	233.354	0.053	0.087
-489.493	7.816	-0.150	-0.113
-488.478	543.651	-0.024	-0.058
-487.464	512.821	0.075	0.175
-486.449	212.802	-0.111	-0.175
-485.435	154.486	0.018	0.024
-484.420	800.000	0.066	0.188
-483.405	-147.219	-0.212	0.018
-482.391	261.600	-0.067	-0.116
-481.376	-4.178	0.191	-0.133
-480.362	79.568	0.175	-0.188
-479.347	237.367	-0.092	0.153
-478.332	800.000	0.119	-0.387
-477.318	288.998	-0.027	-0.049
-476.303	-133.482	0.170	0.021
-475.289	-60.824	0.031	0.013
-474.274	-62.133	-0.512	-0.214
-473.259	37.519	-0.107	-0.095
-472.245	-39.701	-0.074	0.039
-471.230	800.000	0.137	-0.393
-470.216	-154.307	-0.274	0.018
-469.201	-122.562	0.076	0.012
-468.186	-200.000	0.009	-0.330
-467.172	-200.000	0.007	-0.130
-466.157	570.299	0.126	0.306
-465.143	362.848	-0.073	-0.147
-464.128	510.410	0.205	0.477
-463.113	-200.000	0.068	0.401
-462.099	-42.244	0.433	-0.221
-461.084	-110.450	-0.288	0.060
-460.070	-200.000	-0.014	-0.408
-459.055	-130.938	-0.078	0.010
-458.040	800.000	0.084	-0.283
-457.026	79.232	-0.053	0.057
-456.011	-57.457	-0.242	0.106
-454.997	800.000	-0.053	-0.199
-453.982	-75.007	-0.072	0.026
-452.968	-144.667	-0.414	-0.038
-451.953	-200.000	-0.030	0.199
-450.938	-22.762	0.278	0.168
-449.924	408.461	-0.080	0.170
-448.909	307.534	-0.066	-0.123
-447.895	15.784	-0.181	0.142
-446.880	515.011	-0.145	-0.338
-445.865	-133.207	0.029	-0.004
-444.851	382.385	0.092	0.190
-443.836	119.903	-0.083	0.103
-442.822	800.000	-0.085	0.308
-441.807	-200.000	-0.043	-0.211
-440.792	-106.140	-0.419	0.094
-439.778	800.000	-0.083	0.251
-438.763	217.236	0.085	-0.135
-437.749	-200.000	-0.045	0.258
-436.734	-113.455	-0.260	-0.051
-435.719	-170.160	0.216	0.008
-434.705	88.492	0.188	-0.208
-433.690	-147.052	0.263	0.022
-432.676	-63.973	-0.050	0.020
-431.661	-110.429	0.114	0.024
-430.646	-20.688	-0.176	0.108
-429.632	800.000	0.073	0.283
-428.617	-200.000	0.058	0.313
-427.603	115.712	0.119	0.145
-426.588	-40.563	0.197	0.102
-425.573	-200.000	0.027	0.302
-424.559	164.491	0.161	0.227
-423.544	-35.202	-0.186	-0.101
-422.530	38.712	-0.157	-0.140
-421.515	-125.866	0.207	0.031
-420.500	-8.308	0.213	-0.143
-419.486	243.528	-0.089	0.149
-418.471	-79.517	0.096	0.032
-417.457	-148.415	-0.136	-0.011
-416.442	-121.675	0.096	-0.016
-415.428	-200.000	-0.007	0.030
-414.413	-200.000	-0.006	0.314
-413.398	-200.000	-0.010	0.213
-412.384	-85.387	-0.261	-0.081
-411.369	150.253	0.083	-0.112
-410.355	-101.667	-0.259	-0.063
-409.340	254.091	0.064	0.109
-408.325	-200.000	0.000	-0.150
-407.311	7.551	0.200	-0.149
-406.296	167.670	0.177	0.250
-405.282	800.000	-0.058	-0.173
-404.267	132.768	-0.175	0.226
-403.252	-26.977	-0.151	0.088
-402.238	-161.794	-0.222	-0.011
-401.223	37.499	-0.407	0.360
-400.209	163.336	0.114	-0.159
-399.194	-14.720	-0.112	0.072
-398.179	-97.110	-0.386	0.101
-397.165	-52.238	0.311	0.144
-396.150	-38.711	0.070	-0.037
-395.136	60.828	-0.172	0.170
-394.121	-45.366	-0.051	-0.025
-393.106	264.926	-0.064	-0.111
-392.092	161.183	-0.146	0.204
-391.077	40.524	-0.075	0.068
-390.063	800.000	0.005	-0.016
-389.048	-200.000	0.000	0.269
-388.033	800.000	0.035	-0.112
-387.019	158.047	-0.063	0.087
-386.004	354.923	-0.162	-0.320
-384.990	117.713	-0.100	-0.123
-383.975	25.298	0.077	-0.064
-382.960	-192.527	-0.341	-0.003
-381.946	271.010	0.108	0.189
-380.931	127.408	-0.094	0.119
-379.917	-3.587	0.209	0.145
-378.902	-200.000	0.035	-0.552
-377.888	114.932	-0.044	0.053
-376.873	198.339	-0.086	0.132
-375.858	-120.465	-0.294	-0.050
-374.844	800.000	-0.073	0.230
-373.829	800.000	-0.048	-0.169
-372.815	87.028	-0.096	-0.105
-371.800	-107.918	0.184	-0.040
-370.785	-200.000	0.005	0.024
-369.771	160.635	0.087	-0.120
-368.756	142.702	-0.241	-0.319
-367.742	-7.331	-0.092	0.062
-366.727	509.910	-0.081	-0.188
-365.712	724.552	0.088	0.235
-364.698	0.329	0.108	-0.077
-363.683	56.553	0.171	0.166
-362.669	-23.612	0.153	-0.092
-361.654	12.496	-0.167	0.128
-360.639	490.428	-0.109	0.247
-359.625	-46.882	-0.168	-0.082
-358.610	-136.500	-0.419	0.048
-357.596	200.440	0.068	0.105
-356.581	-94.082	0.275	0.075
-355.566	-200.000	0.052	-0.297
-354.552	147.043	-0.142	0.190
-353.537	-200.000	0.004	0.339
-352.523	4.738	0.133	-0.098
-351.508	-2.642	-0.090	0.062
-350.493	357.576	-0.097	0.193
-349.479	-91.018	0.254	-0.073
-348.464	-101.193	-0.032	0.008
-347.450	-200.000	0.008	0.037
-346.435	82.889	-0.044	0.048
-345.420	-122.214	-0.341	-0.056
-344.406	124.639	0.157	-0.197
-343.391	-177.615	0.189	-0.005
-342.377	-200.000	-0.004	-0.061
-341.362	-200.000	-0.106	-0.605
-340.348	-63.785	0.173	0.071
-339.333	-127.149	0.166	-0.024
-338.318	-136.911	0.249	0.028
-337.304	406.587	-0.065	0.137
-336.289	-142.259	-0.091	-0.009
-335.275	-22.453	0.105	0.063
-334.260	400.352	-0.077	-0.160
-333.245	-114.922	-0.109	0.021
-332.231	69.139	0.173	0.177
-331.216	-27.030	0.180	-0.104
-330.202	152.488	0.165	-0.224
-329.187	109.777	0.333	0.397
-328.172	-118.386	-0.194	-0.034
-327.158	-200.000	-0.045	-0.349
-326.143	277.827	0.049	0.087
-325.129	-73.123	0.289	0.105
-324.114	-200.000	-0.044	0.193
-323.099	-200.000	-0.003	0.140
-322.085	800.000	0.033	-0.105
-321.070	-0.359	-0.290	-0.205
-320.056	-167.863	0.052	0.002
-319.041	454.184	-0.118	-0.260
-318.026	-200.000	-0.009	0.158
-317.012	126.003	0.342	-0.430
-315.997	-128.098	-0.077	0.011
-314.983	75.411	-0.195	0.204
-313.968	-85.528	0.272	-0.084
-312.953	-53.157	0.045	0.021
-311.939	-200.000	0.015	0.330
-310.924	-67.363	0.195	-0.076
-309.910	-27.327	0.241	0.139
-308.895	216.885	-0.084	-0.134
-307.880	116.135	-0.169	0.206
-306.866	-119.588	-0.534	0.092
-305.851	-200.000	0.022	0.136
-304.837	800.000	-0.064	0.222
-303.822	-26.455	0.072	0.042
-302.807	630.724	0.127	0.319
-301.793	-200.000	0.037	-0.175
-300.778	464.418	0.061	0.135
-299.764	-154.967	-0.314	-0.021
-298.749	372.752	0.125	-0.253
-297.735	-73.716	-0.101	0.036
-296.720	174.806	-0.224	-0.323
-295.705	263.217	-0.032	0.056
-294.691	-200.000	-0.031	-0.212
-293.676	-69.698	-0.194	0.074
-292.662	591.235	0.090	0.219
-291.647	76.827	-0.031	0.033
-290.632	-109.531	-0.166	0.035
-289.618	-200.000	-0.041	0.228
-288.603	104.620	0.149	-0.175
-287.589	-200.000	-0.094	-0.456
-286.574	51.046	0.139	0.131
-285.559	800.000	0.036	0.121
-284.545	575.930	0.144	0.350
-283.530	250.350	0.055	-0.093
-282.516	5.470	0.181	-0.133
-281.501	48.397	-0.129	-0.120
-280.486	-49.602	-0.159	-0.075
-279.472	515.032	0.048	0.111
-278.457	-84.763	0.243	-0.076
-277.443	488.003	0.073	-0.166
-276.428	495.284	0.025	-0.056
-275.413	341.081	-0.061	-0.119
-274.399	353.132	0.032	-0.062
-273.384	800.000	0.071	0.228
-272.370	-96.432	-0.138	0.036
-271.355	205.042	-0.198	-0.305
-270.340	54.747	0.031	-0.029
-269.326	-3.589	-0.193	0.133
-268.311	-200.000	-0.003	0.038
-267.297	800.000	-0.103	-0.330
-266.282	-200.000	0.004	-0.137
-265.267	-16.681	-0.019	0.012
-264.253	-74.480	0.119	-0.043
-263.238	72.898	-0.270	0.280
-262.224	800.000	0.137	0.415
-261.209	-200.000	0.008	0.317
-260.195	-97.425	-0.360	-0.093
-259.180	-123.247	0.490	-0.078
-258.165	800.000	0.056	0.186
-257.151	352.250	-0.175	-0.345
-256.136	-30.042	-0.526	-0.297
-255.122	-200.000	0.019	-0.244
-254.107	-129.504	-0.319	0.044
-253.092	7.703	0.161	0.120
-252.078	-14.045	-0.192	0.123
-251.063	-200.000	0.014	-0.139
-250.049	-200.000	0.082	0.402
-249.034	47.905	0.182	0.168
-248.019	-89.201	0.315	0.092
-247.005	-200.000	0.024	0.208
-245.990	290.838	0.048	-0.087
-244.976	375.975	0.071	0.144
-243.961	800.000	-0.040	-0.112
-242.946	-39.444	-0.208	-0.108
-241.932	-88.361	0.191	0.057
-240.917	68.656	-0.038	0.039
-239.903	517.726	0.056	0.129
-238.888	-107.548	-0.190	0.041
-237.873	-61.887	-0.189	0.078
-236.859	35.800	-0.140	-0.122
-235.844	1.247	0.030	-0.021
-234.830	77.510	-0.275	-0.291
-233.815	-200.000	0.006	0.278
-232.800	-59.281	-0.230	0.098
-231.786	-182.182	-0.129	0.002
-230.771	-200.000	0.014	-0.520
-229.757	-157.171	0.281	0.017
-228.742	800.000	0.056	-0.231
-227.727	800.000	-0.111	0.370
-226.713	-35.952	-0.165	0.088
-225.698	800.000	-0.056	-0.241
-224.684	-13.024	-0.161	-0.104
-223.669	-200.000	0.005	0.234
-222.655	128.881	0.026	0.033
-221.640	-200.000	-0.004	-0.325
-220.625	-79.364	0.297	0.100
-219.611	-200.000	-0.015	0.118
-218.596	-200.000	0.078	0.503
-217.582	-107.383	0.257	-0.056
-216.567	96.345	-0.165	0.187
-215.552	-200.000	0.044	0.243
-214.538	-154.088	0.208	-0.014
-213.523	-200.000	-0.005	-0.102
-212.509	-68.106	0.419	-0.162
-211.494	800.000	-0.041	0.141
-210.479	80.686	-0.128	0.137
-209.465	-200.000	0.020	0.179
-208.450	75.837	0.214	-0.224
-207.436	-17.074	0.208	0.130
-206.421	15.851	-0.189	0.147
-205.406	-65.902	-0.115	-0.046
-204.392	25.897	-0.196	-0.162
-203.377	374.153	0.123	0.248
-202.363	-45.982	-0.320	0.156
-201.348	-200.000	0.017	0.441
-200.333	14.753	0.280	-0.217
-199.319	-167.806	0.189	-0.007
-198.304	135.052	-0.100	0.129
-197.290	132.926	0.113	-0.145
-196.275	155.982	0.060	-0.082
-195.260	347.954	-0.113	-0.221
-194.246	50.560	-0.208	0.195
-193.231	-138.915	-0.369	-0.040
-192.217	210.915	0.200	0.311
-191.202	207.594	0.110	0.170
-190.187	274.681	-0.156	-0.273
-189.173	-42.150	0.243	0.123
-188.158	484.101	-0.103	0.233
-187.144	517.896	0.083	0.191
-186.129	-200.000	-0.006	-0.147
-185.114	-95.655	-0.526	-0.139
-184.100	-200.000	0.056	0.332
-183.085	150.332	0.019	0.025
-182.071	-74.185	0.067	-0.024
-181.056	-65.489	0.296	0.117
-180.042	222.640	0.117	-0.187
-179.027	-153.327	0.208	-0.014
-178.012	12.283	0.176	-0.134
-176.998	-200.000	-0.013	0.319
-175.983	252.561	0.096	0.162
-174.969	197.413	0.091	-0.138
-173.954	800.000	-0.137	-0.433
-172.939	54.374	0.154	0.147
-171.925	229.470	0.111	0.180
-170.910	-200.000	0.048	0.375
-169.896	-200.000	0.050	0.270
-168.881	-138.931	0.432	-0.046
-167.866	22.153	0.063	0.051
-166.852	6.120	0.197	-0.145
-165.837	775.249	0.107	0.289
-164.823	455.654	-0.059	0.129
-163.808	800.000	0.081	0.348
-162.793	800.000	-0.042	0.131
-161.779	-200.000	0.049	0.260
-160.764	800.000	-0.011	-0.046
-159.750	111.315	-0.153	0.182
-158.735	330.408	-0.046	-0.087
-157.720	-51.963	0.205	-0.094
-156.706	35.730	0.143	-0.124
-155.691	424.486	0.059	-0.124
-154.677	181.103	0.137	-0.199
-153.662	800.000	0.024	-0.075
-152.647	256.269	-0.143	-0.242
-151.633	2.278	-0.065	0.046
-150.618	-200.000	-0.014	0.201
-149.604	-50.883	-0.113	-0.053
-148.589	355.150	0.158	0.310
-147.574	-142.147	-0.140	0.014
-146.560	-76.337	0.344	0.120
-145.545	28.732	-0.078	0.066
-144.531	20.171	0.057	-0.045
-143.516	-200.000	0.046	0.252
-142.502	-200.000	0.009	0.132
-141.487	47.250	0.327	0.301
-140.472	-70.369	-0.307	0.115
-139.458	-107.536	-0.056	-0.012
-138.443	-200.000	-0.033	-0.371
-137.429	-39.622	-0.170	-0.088
-136.414	800.000	-0.061	-0.204
-135.399	57.461	0.302	-0.292
-134.385	-18.907	0.313	0.193
-133.370	-33.016	-0.139	-0.076
-132.356	340.111	0.215	0.414
-131.341	14.920	-0.139	0.108
-130.326	233.896	-0.109	0.177
-129.312	-69.777	0.214	-0.081
-128.297	503.367	0.058	-0.132
-127.283	-168.827	0.186	0.007
-126.268	-155.377	-0.215	-0.014
-125.253	115.707	-0.237	0.286
-124.239	-55.813	-0.537	-0.237
-123.224	-102.686	-0.212	-0.050
-122.210	-69.606	0.171	0.065
-121.195	59.099	-0.070	0.068
-120.180	-29.973	-0.374	-0.210
-119.166	30.401	-0.415	0.350
-118.151	153.051	0.069	0.093
-117.137	-91.049	-0.227	0.064
-116.122	11.853	-0.044	-0.034
-115.107	800.000	-0.036	0.103
-114.093	-40.197	0.017	-0.009
-113.078	800.000	0.049	-0.142
-112.064	195.930	0.115	0.173
-111.049	220.110	-0.176	0.279
-110.034	-56.876	-0.006	-0.003
-109.020	225.361	0.216	-0.345
-108.005	213.861	-0.196	0.306
-106.991	123.281	0.049	0.060
-105.976	-3.014	-0.241	-0.166
-104.962	97.085	-0.117	-0.132
-103.947	-200.000	-0.010	0.369
-102.932	800.000	0.081	0.246
-101.918	92.069	0.290	-0.322
-100.903	-200.000	0.028	0.257
-99.889	-7.348	0.228	0.152
-98.874	800.000	-0.088	0.292
-97.859	252.308	0.143	-0.240
-96.845	-2.435	-0.174	0.121
-95.830	304.183	-0.010	0.018
-94.816	-18.544	-0.140	0.086
-93.801	33.637	-0.135	0.116
-92.786	-103.887	0.196	-0.045
-91.772	88.768	-0.039	-0.043
-90.757	-200.000	-0.014	0.113
-89.743	-95.600	0.225	0.059
-88.728	491.530	0.179	0.404
-87.713	-86.286	-0.135	0.041
-86.699	-200.000	0.005	0.167
-85.684	333.067	0.100	-0.191
-84.670	-77.030	0.455	-0.157
-83.655	-200.000	-0.061	-0.369
-82.640	-200.000	-0.035	-0.186
-81.626	-111.630	0.096	0.019
-80.611	-115.324	-0.220	0.041
-79.597	-200.000	-0.011	-0.136
-78.582	-73.328	0.164	-0.059
-77.567	472.851	0.067	-0.148
-76.553	239.630	-0.037	-0.061
-75.538	32.377	0.132	0.112
-74.524	-179.976	0.118	0.002
-73.509	-150.014	-0.273	0.021
-72.494	-102.798	-0.370	0.087
-71.480	-200.000	-0.057	-0.319
-70.465	800.000	-0.009	-0.035
-69.451	-185.153	0.095	-0.001
-68.436	-16.779	0.080	-0.050
-67.422	96.734	-0.144	-0.163
-66.407	-9.843	0.196	0.128
-65.392	-200.000	-0.022	-0.124
-64.378	178.078	0.121	0.173
-63.363	-200.000	0.009	0.139
-62.349	-51.922	0.101	0.046
-61.334	57.686	-0.892	-0.858
-60.319	80.858	0.567	0.602
-59.305	537.388	-0.358	-0.838
-58.290	302.714	0.552	1.006
-57.276	276.513	0.930	1.626
-56.261	-200.000	96.226	574.806
-55.246	553.704	1376.353	3257.382
-54.232	160.561	2551.222	3504.420
-53.217	111.099	2161.692	2562.613
-52.203	43.224	1706.681	1533.556
-51.188	36.163	1519.888	1317.627
-50.173	33.664	1493.439	1277.837
-49.159	52.715	1541.741	1449.927
-48.144	54.579	1560.108	1479.905
-47.130	36.177	1519.417	1317.101
-46.115	33.114	1504.713	1283.545
-45.100	32.861	1501.824	1279.315
-44.086	32.817	1500.513	1277.852
-43.071	32.927	1497.660	1276.115
-42.057	32.846	1496.138	1274.222
-41.042	32.910	1494.482	1273.193
-40.027	32.920	1493.271	1272.172
-39.013	32.812	1491.768	1270.115
-37.998	32.869	1490.355	1269.245
-36.984	32.951	1489.102	1268.679
-35.969	32.845	1488.120	1267.084
-34.954	32.920	1486.905	1266.504
-33.940	32.862	1485.687	1265.021
-32.925	32.902	1483.943	1263.753
-31.911	32.996	1482.431	1263.048
-30.896	32.956	1481.346	1261.807
-29.881	32.943	1480.072	1260.582
-28.867	32.897	1478.584	1258.956
-27.852	32.888	1477.204	1257.677
-26.838	32.851	1475.500	1255.926
-25.823	32.912	1474.234	1255.206
-24.809	32.905	1472.628	1253.745
-23.794	32.905	1471.047	1252.348
-22.779	32.920	1469.548	1251.123
-21.765	32.935	1468.648	1250.404
-20.750	32.848	1467.781	1249.041
-19.736	32.746	1466.979	1247.631
-18.721	32.841	1465.605	1247.041
-17.706	32.882	1464.408	1246.248
-16.692	32.863	1462.962	1244.841
-15.677	32.890	1462.440	1244.527
-14.663	32.878	1461.261	1243.393
-13.648	32.873	1460.291	1242.486
-12.633	32.755	1459.657	1241.117
-11.619	32.825	1458.440	1240.499
-10.604	32.782	1457.940	1239.736
-9.590	32.823	1456.985	1239.147
-8.575	32.862	1455.799	1238.347
-7.560	32.784	1455.339	1237.391
-6.546	32.714	1454.661	1236.308
-5.531	32.822	1453.450	1235.940
-4.517	32.725	1452.355	1234.324
-3.502	32.760	1451.652	1233.904
-2.487	32.818	1450.521	1233.274
-1.473	32.720	1449.968	1232.115
-0.458	32.715	1448.246	1230.569
0.556	33.257	1438.964	1219.992
1.571	30.396	1414.906	1181.319
2.586	27.294	1362.238	1118.214
3.600	25.622	1285.198	1045.175
4.615	24.184	1237.165	997.974
5.629	20.739	1179.811	933.191
6.644	10.968	1092.318	815.172
7.659	3.214	1049.938	746.012
8.673	2.364	1044.585	738.040
9.688	2.030	1041.224	733.993
10.702	1.869	1039.877	732.207
11.717	1.968	1038.052	731.334
12.731	5.470	1042.641	751.342
13.746	15.446	1056.060	809.262
14.761	23.127	1066.098	854.120
15.775	24.963	1067.878	864.338
16.790	25.326	1067.480	865.690
17.804	25.236	1066.902	864.711
18.819	25.047	1065.831	862.860
19.834	25.154	1064.845	862.497
20.848	25.244	1064.831	862.843
21.863	25.288	1064.596	862.787
22.877	25.183	1064.439	862.081
23.892	25.274	1063.240	861.467
24.907	25.196	1062.719	860.595
25.921	25.185	1061.755	859.689
26.936	25.274	1060.851	859.303
27.950	25.172	1060.357	858.339
28.965	25.132	1058.926	856.914
29.980	24.879	1057.460	854.448
30.994	25.049	1055.941	853.952
32.009	25.180	1055.393	854.057
33.023	25.338	1054.766	854.226
34.038	25.297	1053.327	852.793
35.053	25.216	1052.600	851.744
36.067	25.291	1052.603	852.027
37.082	25.145	1051.588	850.438
38.096	25.174	1051.184	850.171
39.111	25.411	1050.175	850.404
40.126	25.506	1049.204	849.991
41.140	25.456	1048.227	848.890
42.155	25.040	1046.815	845.705
43.169	24.816	1045.480	843.498
44.184	24.808	1044.528	842.616
45.199	24.970	1043.339	842.346
46.213	24.853	1042.290	840.874
47.228	24.818	1041.914	840.334
48.242	24.990	1041.089	840.398
49.257	25.094	1040.525	840.359
50.271	25.096	1039.833	839.733
51.286	25.249	1039.033	839.730
52.301	25.320	1038.308	839.400
53.315	25.295	1037.551	838.596
54.330	25.263	1036.864	837.821
55.344	25.234	1036.111	836.999
56.359	25.175	1035.535	836.185
57.374	25.201	1034.903	835.722
58.388	25.069	1033.655	834.025
59.403	25.151	1032.609	833.489
60.417	24.965	1032.148	832.180
61.432	24.843	1031.447	830.974
62.447	24.868	1031.016	830.671
63.461	25.063	1030.182	830.829
64.476	25.020	1029.343	829.881
65.490	24.940	1029.063	829.210
66.505	24.925	1027.476	827.791
67.520	24.900	1026.776	827.034
68.534	25.028	1026.197	827.088
69.549	24.950	1024.933	825.637
70.563	24.579	1023.920	823.038
71.578	24.365	1023.644	821.757
72.593	24.631	1022.246	821.788
73.607	24.322	1021.363	819.585
74.622	24.308	1020.501	818.754
75.636	24.652	1019.582	819.525
76.651	24.723	1018.923	819.248
77.666	24.795	1018.041	818.795
78.680	24.642	1016.958	817.150
79.695	24.674	1016.572	816.917
80.709	24.770	1015.953	816.786
81.724	24.846	1015.415	816.625
82.739	24.803	1014.445	815.578
83.753	24.833	1013.423	814.821
84.768	25.081	1013.169	815.675
85.782	25.499	1012.305	816.805
86.797	25.557	1011.714	816.518
87.812	25.583	1010.756	815.793
88.826	25.340	1009.983	813.994
89.841	25.409	1009.319	813.700
90.855	25.368	1008.669	812.917
91.870	25.646	1007.527	813.181
92.884	25.387	1007.429	811.863
93.899	25.280	1005.780	809.979
94.914	25.179	1005.170	808.958
95.928	25.356	1004.376	809.046
96.943	25.287	1003.779	808.181
97.957	25.120	1002.127	806.030
98.972	24.783	1001.724	804.119
99.987	24.833	1000.190	803.041
101.001	24.718	999.976	802.283
102.016	25.035	999.714	803.425
103.030	25.077	998.357	802.449
104.045	25.136	997.322	801.810
105.060	24.966	996.050	799.957
106.074	24.771	995.212	798.344
107.089	24.809	994.430	797.816
108.103	25.273	993.795	799.301
109.118	25.254	993.404	798.835
110.133	24.890	992.124	796.113
111.147	24.977	990.959	795.494
112.162	24.969	989.743	794.414
113.176	24.617	988.758	791.991
114.191	24.751	987.958	791.877
115.206	24.922	987.181	791.937
116.220	24.581	986.068	789.471
117.235	24.453	985.222	788.159
118.249	24.612	984.680	788.353
119.264	24.608	984.210	787.891
120.279	24.523	982.913	786.411
121.293	24.498	982.091	785.571
122.308	24.628	981.464	785.572
123.322	24.727	980.793	785.400
124.337	24.715	979.436	784.193
125.352	24.554	978.096	782.346
126.366	24.158	976.540	779.301
127.381	23.827	975.313	776.804
128.395	24.262	975.313	778.634
129.410	24.941	974.943	781.234
130.424	25.171	974.212	781.585
131.439	25.091	973.334	780.460
132.454	25.112	972.294	779.650
133.468	25.050	971.420	778.609
134.483	24.986	970.514	777.536
135.497	25.036	970.019	777.288
136.512	25.285	969.255	777.689
137.527	25.326	968.778	777.412
138.541	25.352	967.610	776.521
139.556	25.423	966.911	776.198
140.570	25.351	966.417	775.421
141.585	25.391	965.406	774.712
142.600	25.365	964.863	774.096
143.614	25.485	963.452	773.414
144.629	25.458	963.454	773.232
145.643	25.649	962.799	773.455
146.658	25.618	961.461	772.181
147.673	25.333	960.449	770.079
148.687	25.279	959.556	769.063
149.702	25.308	958.531	768.297
150.716	25.055	957.458	766.286
151.731	25.125	956.373	765.648
152.746	25.225	955.852	765.591
153.760	25.474	954.908	765.827
154.775	25.478	954.742	765.644
155.789	25.674	953.549	765.455
156.804	25.579	952.637	764.250
157.819	25.544	951.820	763.377
158.833	25.555	951.231	762.885
159.848	25.607	950.736	762.641
160.862	25.846	949.707	762.763
161.877	25.588	948.685	760.783
162.892	25.312	948.022	759.014
163.906	25.516	947.263	759.201
164.921	25.469	946.515	758.336
165.935	25.276	945.525	756.664
166.950	25.387	944.438	756.195
167.964	25.448	943.416	755.564
168.979	25.496	942.246	754.766
169.994	25.386	941.200	753.398
171.008	25.333	940.228	752.332
172.023	25.387	939.750	752.106
173.037	25.506	939.021	751.956
174.052	25.485	938.101	751.066
175.067	25.259	936.822	749.031
176.081	25.207	936.284	748.320
177.096	25.328	935.209	747.895
178.110	25.335	934.368	747.187
179.125	25.068	933.628	745.419
180.140	24.754	932.480	743.132
181.154	24.927	931.562	743.051
182.169	24.963	931.254	742.890
183.183	25.313	930.656	743.799
184.198	25.543	930.626	744.662
185.213	25.605	929.645	744.065
186.227	25.321	929.232	742.494
187.242	25.489	928.958	742.904
188.256	25.516	928.287	742.417
189.271	25.600	927.239	741.860
190.286	25.704	926.435	741.576
191.300	25.486	925.478	739.849
192.315	24.901	924.037	736.225
193.329	24.190	922.529	732.039
194.344	23.763	921.517	729.420
195.359	24.361	922.022	732.210
196.373	25.210	922.261	735.817
197.388	25.519	922.138	736.923
198.402	25.422	921.180	735.692
199.417	25.406	920.478	735.002
200.432	25.379	920.012	734.454
201.446	25.155	919.728	733.249
202.461	24.904	918.668	731.312
203.475	25.114	918.236	731.760
204.490	24.625	916.579	728.385
205.504	23.415	914.727	721.921
206.519	23.936	914.846	724.072
207.534	24.722	915.306	727.572
208.548	24.928	914.662	727.834
209.563	25.419	914.210	729.404
210.577	25.484	912.942	728.592
211.592	25.124	912.611	726.802
212.607	25.521	912.768	728.472
213.621	25.698	912.001	728.513
214.636	25.639	911.326	727.672
215.650	25.577	910.747	726.896
216.665	25.533	910.342	726.328
217.680	25.542	909.928	725.972
218.694	25.550	909.666	725.728
219.709	25.364	908.062	723.635
220.723	25.019	907.346	721.611
221.738	25.221	907.243	722.280
222.753	25.339	906.746	722.297
223.767	25.452	905.545	721.728
224.782	25.453	904.943	721.191
225.796	25.609	904.691	721.550
226.811	25.717	904.136	721.478
227.826	25.330	902.882	718.864
228.840	24.501	901.372	714.281
229.855	24.527	900.553	713.673
230.869	24.722	900.223	714.127
231.884	24.436	899.304	712.193
232.899	24.434	898.540	711.517
233.913	25.234	899.093	715.085
234.928	25.341	898.715	715.145
235.942	25.288	897.878	714.207
236.957	25.250	897.796	713.925
237.972	25.104	896.380	712.157
238.986	24.902	895.567	710.645
240.001	25.053	895.246	710.928
241.015	25.089	894.746	710.610
242.030	25.142	894.032	710.190
243.045	25.448	893.077	710.580
244.059	25.381	892.986	710.179
245.074	25.446	892.542	710.018
246.088	25.425	892.217	709.616
247.103	25.149	890.795	707.334
248.117	25.173	890.120	706.830
249.132	25.764	890.414	709.328
250.147	25.998	890.672	710.394
251.161	26.265	889.920	710.782
252.176	26.238	889.167	710.011
253.190	26.264	888.413	709.448
254.205	26.315	888.499	709.655
255.220	26.481	887.969	709.819
256.234	26.425	887.569	709.216
257.249	26.354	886.706	708.189
258.263	26.239	885.849	706.989
259.278	26.223	884.912	706.117
260.293	26.270	884.796	706.145
261.307	26.354	884.530	706.199
262.322	26.226	883.393	704.731
263.336	26.159	883.142	704.205
264.351	25.753	881.403	701.176
265.366	24.579	879.443	694.991
266.380	24.091	878.941	692.634
267.395	25.101	879.127	696.646
268.409	25.811	879.134	699.348
269.424	25.855	878.100	698.634
270.439	26.131	877.971	699.541
271.453	26.146	877.533	699.188
272.468	26.064	876.540	698.018
273.482	26.277	876.455	698.711
274.497	26.333	876.189	698.653
275.512	26.127	874.618	696.543
276.526	25.676	873.623	693.950
277.541	25.926	873.185	694.505
278.555	26.093	873.477	695.321
279.570	26.028	872.267	694.047
280.585	25.765	871.755	692.565
281.599	25.956	871.348	692.915
282.614	26.034	870.859	692.764
283.628	25.592	869.606	690.009
284.643	25.284	868.827	688.151
285.657	25.519	868.994	689.123
286.672	25.656	867.807	688.644
287.687	25.072	866.881	685.615
288.701	25.265	867.330	686.651
289.716	25.784	866.739	688.105
290.730	25.547	865.196	685.914
291.745	25.471	864.828	685.271
292.760	25.240	864.154	683.799
293.774	25.114	863.697	682.894
294.789	25.969	864.288	686.561
295.803	26.639	864.008	688.826
296.818	26.623	863.894	688.612
297.833	26.904	863.170	689.043
298.847	26.395	862.156	686.239
299.862	26.098	861.216	684.307
300.876	26.313	860.938	684.838
301.891	26.729	860.267	685.819
302.906	26.793	859.752	685.590
303.920	26.302	858.603	682.757
304.935	26.108	858.322	681.742
305.949	26.496	857.771	682.709
306.964	26.517	857.501	682.514
307.979	26.298	856.844	681.104
308.993	26.274	856.173	680.418
310.008	26.688	856.013	681.791
311.022	26.818	855.432	681.756
312.037	26.565	855.190	680.552
313.052	26.438	854.448	679.423
314.066	26.310	853.455	678.093
315.081	25.484	852.143	673.895
316.095	24.826	851.248	670.661
317.110	25.427	851.057	672.703
318.125	26.132	851.652	675.755
319.139	25.967	850.016	673.783
320.154	24.729	848.306	667.747
321.168	24.248	847.440	665.212
322.183	25.108	847.405	668.332
323.197	25.832	848.057	671.489
324.212	26.108	848.010	672.421
325.227	26.210	847.428	672.276
326.241	26.397	847.099	672.654
327.256	26.272	846.521	671.669
328.270	26.128	846.100	670.743
329.285	26.047	845.397	669.825
330.300	26.010	844.216	668.691
331.314	25.772	843.338	667.055
332.329	25.879	842.651	666.848
333.343	26.382	842.244	668.328
334.358	26.574	842.435	669.131
335.373	26.546	842.071	668.679
336.387	26.509	841.485	668.016
337.402	26.737	841.275	668.634
338.416	26.827	840.378	668.191
339.431	26.843	840.232	668.077
340.446	26.834	839.597	667.477
341.460	27.109	839.104	668.038
342.475	27.149	838.575	667.706
343.489	26.926	837.434	665.920
344.504	26.797	837.552	665.481
345.519	27.066	837.167	666.104
346.533	27.370	836.713	666.796
347.548	27.341	836.398	666.383
348.562	27.388	835.963	666.149
349.577	27.317	835.130	665.165
350.592	27.276	834.607	664.540
351.606	27.183	834.067	663.710
352.621	27.196	833.744	663.443
353.635	27.154	832.884	662.549
354.650	27.068	832.728	662.053
355.665	26.829	831.609	660.232
356.679	25.767	829.806	654.883
357.694	25.538	829.568	653.804
358.708	26.158	829.488	655.938
359.723	26.225	828.871	655.634
360.738	26.508	828.456	656.273
361.752	26.877	828.674	657.727
362.767	26.982	828.204	657.677
363.781	27.306	827.906	658.556
364.796	27.437	827.970	659.020
365.810	27.587	827.411	659.059
366.825	27.606	827.062	658.792
367.840	27.692	827.057	659.041
368.854	27.681	826.024	658.121
369.869	27.156	825.417	655.686
370.883	26.930	824.585	654.152
371.898	27.104	823.873	654.154
372.913	27.027	822.895	653.045
373.927	26.894	822.699	652.353
374.942	27.043	822.238	652.464
375.956	27.294	821.372	652.619
376.971	27.447	820.800	652.656
377.986	27.435	820.531	652.341
379.000	27.606	820.488	652.863
380.015	27.714	819.927	652.743
381.029	27.557	818.925	651.329
382.044	27.527	818.473	650.805
383.059	27.667	817.664	650.602
384.073	27.634	817.481	650.281
385.088	27.720	816.707	649.916
386.102	27.704	816.346	649.512
387.117	27.577	815.408	648.259
388.132	27.451	814.913	647.361
389.146	27.133	814.258	645.652
390.161	26.550	813.730	643.105
391.175	26.731	813.232	643.296
392.190	27.240	813.089	644.932
393.205	27.285	812.750	644.766
394.219	26.261	810.861	639.589
395.234	24.587	808.907	632.074
396.248	23.865	807.581	628.430
397.263	24.919	808.571	632.872
398.278	26.686	809.960	640.153
399.292	27.263	809.779	641.991
400.307	26.912	809.212	640.245
401.321	26.797	808.725	639.399
402.336	26.940	808.470	639.645
403.350	27.307	808.118	640.602
404.365	27.706	808.375	642.155
405.380	27.885	808.275	642.649
406.394	28.207	808.032	643.530
407.409	28.453	807.106	643.599
408.423	28.414	807.054	643.364
409.438	28.154	806.486	641.941
410.453	28.222	805.840	641.609
411.467	28.313	805.498	641.599
412.482	28.327	804.784	641.023
413.496	28.362	804.323	640.723
414.511	28.356	804.051	640.428
415.526	28.368	803.864	640.262
416.540	28.387	803.485	639.972
417.555	28.198	802.831	638.733
418.569	27.919	801.953	637.006
419.584	27.967	801.333	636.625
420.599	27.931	801.241	636.368
421.613	110.789	1285.064	1456.474
422.628	95.600	1355.559	1456.595
