DTS Sentinel unit serial number:	SN413079Multiplexer serial number:	ORYXHardware model number:	OX4-SRSoftware version number:	ORYX F/W v4.00 Oryx Data Collector v3.7.2.0data status	okinstallation	princeton_trtdifferential loss correction	single-endedforward channel	channel 3reverse channel	N/Adate	2019/09/11time	13:06:11forward acquisition time	60.00reverse acquisition time	0.00gamma	496.2192k internal	0.2294k external	0.2294temperature offset calibration	0.9942default loss term (dB/km)	0.3790temperature slope calibration	1.0000multiplexer offset coefficient	1.0000multiplexer slope coefficient	1.0000fibre end	0.00T internal ref (°C)	41.75T ext. ref 1 (°C)	0.34T ext. ref 2 (°C)	39.08length (m)	temperature (°C)	Stokes	anti-Stokes-747.200	-135.068	0.082	0.010
-746.185	22.934	-0.120	0.101
-745.171	-159.777	-0.182	-0.010
-744.156	-129.120	-0.178	0.025
-743.142	48.028	-0.117	0.112
-742.127	-2.112	0.267	0.192
-741.112	66.816	0.136	0.141
-740.098	521.413	0.100	0.240
-739.083	-100.646	-0.195	0.049
-738.069	800.000	0.113	0.320
-737.054	-126.838	-0.123	0.018
-736.039	660.991	0.041	-0.109
-735.025	-76.313	0.213	0.077
-734.010	767.967	0.102	-0.283
-732.996	79.688	-0.174	-0.191
-731.981	-91.561	0.126	0.037
-730.966	-116.710	-0.268	0.050
-729.952	-200.000	0.030	-0.155
-728.937	-123.522	0.214	-0.035
-727.923	-43.646	0.272	-0.140
-726.908	168.153	0.082	0.119
-725.894	-61.160	-0.181	-0.078
-724.879	800.000	-0.090	0.324
-723.864	-12.627	-0.228	0.152
-722.850	-67.918	-0.256	-0.102
-721.835	224.076	-0.149	-0.246
-720.821	239.182	-0.222	0.378
-719.806	-200.000	0.016	-0.123
-718.791	260.197	0.024	-0.042
-717.777	64.743	0.061	0.063
-716.762	-17.948	0.245	-0.157
-715.748	-51.828	-0.104	-0.049
-714.733	214.012	0.286	-0.463
-713.718	192.253	0.069	-0.106
-712.704	-32.377	-0.312	0.178
-711.689	-78.583	-0.332	-0.116
-710.675	-2.623	-0.131	-0.094
-709.660	-200.000	0.003	-0.204
-708.645	-56.229	-0.441	-0.201
-707.631	15.884	0.147	-0.118
-706.616	-9.443	-0.191	0.130
-705.602	99.416	-0.167	-0.197
-704.587	150.523	-0.082	0.114
-703.572	117.415	-0.080	-0.101
-702.558	-200.000	-0.024	0.262
-701.543	-140.293	0.033	-0.003
-700.529	800.000	0.058	0.253
-699.514	-96.116	0.177	-0.048
-698.499	738.041	-0.037	-0.101
-697.485	13.144	-0.196	0.155
-696.470	4.134	-0.432	-0.322
-695.456	282.898	-0.102	0.187
-694.441	506.957	-0.029	-0.069
-693.426	-139.857	0.106	-0.011
-692.412	342.443	0.038	0.076
-691.397	327.455	0.129	0.252
-690.383	-151.874	-0.205	-0.015
-689.368	-15.388	-0.190	0.124
-688.354	800.000	0.082	0.256
-687.339	800.000	-0.081	0.314
-686.324	-25.387	0.080	-0.048
-685.310	-200.000	0.016	0.199
-684.295	150.762	0.058	0.080
-683.281	-53.361	0.138	-0.065
-682.266	64.810	-0.192	-0.198
-681.251	246.794	-0.058	0.099
-680.237	11.361	-0.087	0.068
-679.222	-136.829	-0.205	0.024
-678.208	-200.000	0.052	0.299
-677.193	-53.738	-0.146	0.068
-676.178	-4.456	-0.179	-0.126
-675.164	233.215	-0.147	-0.247
-674.149	-142.437	0.405	-0.041
-673.135	-32.515	-0.403	-0.229
-672.120	425.565	0.042	-0.092
-671.105	110.929	0.085	-0.104
-670.091	780.251	-0.085	-0.238
-669.076	800.000	-0.141	-0.410
-668.062	130.709	-0.097	-0.127
-667.047	-200.000	0.019	-0.095
-666.032	126.050	0.062	0.080
-665.018	-150.998	-0.203	0.016
-664.003	155.223	-0.097	0.136
-662.989	-200.000	0.010	-0.466
-661.974	-200.000	-0.032	-0.281
-660.959	800.000	-0.035	0.102
-659.945	294.844	0.044	0.083
-658.930	11.540	-0.168	-0.131
-657.916	393.615	-0.121	-0.257
-656.901	-13.618	-0.074	-0.049
-655.886	800.000	0.161	-0.475
-654.872	-200.000	-0.017	-0.184
-653.857	258.901	-0.067	0.118
-652.843	110.353	-0.117	0.143
-651.828	159.128	-0.125	0.177
-650.814	-31.034	-0.033	0.019
-649.799	664.049	0.064	0.169
-648.784	532.245	-0.135	0.325
-647.770	-200.000	-0.024	-0.135
-646.755	-87.485	-0.129	0.040
-645.741	532.597	0.036	0.088
-644.726	-93.813	-0.093	-0.026
-643.711	-72.169	-0.209	-0.079
-642.697	26.275	-0.177	-0.150
-641.682	800.000	-0.099	0.349
-640.668	-0.859	0.103	0.074
-639.653	-151.729	-0.348	0.026
-638.638	-53.807	0.127	-0.059
-637.624	-0.864	-0.301	0.217
-636.609	79.132	-0.152	-0.166
-635.595	49.193	-0.166	0.159
-634.580	40.313	0.158	-0.145
-633.565	-200.000	-0.068	0.395
-632.551	-200.000	0.024	-0.186
-631.536	108.761	0.070	-0.085
-630.522	-200.000	-0.030	-0.145
-629.507	57.449	0.146	0.145
-628.492	-69.642	-0.222	-0.086
-627.478	800.000	0.005	0.017
-626.463	-200.000	0.013	-0.404
-625.449	-97.459	0.223	-0.059
-624.434	491.504	0.175	0.407
-623.419	-14.214	-0.099	-0.065
-622.405	2.836	0.176	-0.130
-621.390	310.711	-0.173	-0.330
-620.376	60.172	-0.122	-0.122
-619.361	-86.836	-0.252	0.078
-618.346	-134.107	-0.190	-0.024
-617.332	-200.000	-0.000	-0.120
-616.317	-5.192	-0.077	0.054
-615.303	36.254	0.141	-0.126
-614.288	393.773	-0.059	-0.124
-613.273	9.516	0.089	-0.068
-612.259	10.092	0.188	0.145
-611.244	-86.313	0.131	0.041
-610.230	30.289	-0.131	0.114
-609.215	-106.377	0.177	-0.040
-608.201	-49.538	-0.193	-0.093
-607.186	45.618	-0.060	-0.057
-606.171	-63.090	-0.012	-0.005
-605.157	73.207	-0.122	-0.130
-604.142	291.347	-0.029	0.054
-603.128	-21.137	-0.046	-0.029
-602.113	658.266	-0.124	-0.325
-601.098	-55.018	-0.233	-0.107
-600.084	-200.000	-0.017	-0.228
-599.069	43.675	0.146	0.136
-598.055	100.017	0.096	0.113
-597.040	227.395	-0.268	0.443
-596.025	-184.539	-0.041	-0.001
-595.011	-17.438	0.223	-0.143
-593.996	52.867	0.216	0.210
-592.982	-47.465	0.076	-0.037
-591.967	124.116	-0.097	0.124
-590.952	-22.107	-0.369	0.228
-589.938	201.601	-0.059	0.093
-588.923	-200.000	-0.068	0.525
-587.909	52.617	0.103	0.100
-586.894	37.323	0.129	-0.116
-585.879	331.134	-0.106	-0.207
-584.865	-26.354	0.143	0.085
-583.850	800.000	0.049	0.161
-582.836	-167.979	-0.131	-0.005
-581.821	-104.585	0.206	0.048
-580.806	-200.000	-0.009	0.043
-579.792	800.000	0.044	-0.168
-578.777	215.022	-0.117	-0.188
-577.763	-35.276	0.166	-0.092
-576.748	-51.210	0.129	-0.061
-575.733	-116.500	0.231	-0.043
-574.719	0.403	-0.264	-0.191
-573.704	-64.465	-0.355	-0.146
-572.690	-16.151	0.173	-0.112
-571.675	-47.257	-0.207	0.103
-570.661	800.000	0.112	0.454
-569.646	-43.374	-0.140	0.072
-568.631	108.558	-0.040	-0.048
-567.617	800.000	0.053	0.233
-566.602	2.007	0.074	0.054
-565.588	-200.000	0.025	0.458
-564.573	-200.000	-0.011	0.224
-563.558	800.000	-0.033	-0.104
-562.544	-157.284	-0.222	-0.014
-561.529	-0.943	-0.180	-0.129
-560.515	291.007	0.056	-0.104
-559.500	800.000	-0.017	0.055
-558.485	-84.244	0.453	0.146
-557.471	-10.403	-0.101	-0.068
-556.456	800.000	0.046	-0.156
-555.442	-35.133	-0.195	-0.108
-554.427	-200.000	0.255	0.001
-553.412	465.500	-0.045	0.102
-552.398	278.126	0.196	-0.355
-551.383	-55.071	0.182	0.083
-550.369	-64.900	-0.214	-0.088
-549.354	11.616	0.069	-0.054
-548.339	-14.459	0.092	0.060
-547.325	-170.458	-0.198	0.007
-546.310	-74.548	0.114	-0.042
-545.296	-159.921	0.196	0.011
-544.281	565.564	0.088	0.216
-543.266	350.597	0.068	0.137
-542.252	311.673	0.180	0.343
-541.237	-15.762	-0.109	-0.070
-540.223	-200.000	-0.023	0.120
-539.208	-163.292	-0.194	0.009
-538.193	-59.958	0.220	0.096
-537.179	-91.605	0.037	0.011
-536.164	-29.664	0.270	-0.156
-535.150	-58.515	-0.334	-0.147
-534.135	-147.218	0.127	0.011
-533.121	-40.096	-0.185	0.098
-532.106	-96.424	-0.242	0.065
-531.091	-10.009	-0.200	0.135
-530.077	-11.241	-0.127	-0.085
-529.062	-77.297	-0.447	-0.158
-528.048	800.000	-0.058	0.247
-527.033	65.092	-0.182	-0.186
-526.018	171.471	0.102	0.148
-525.004	89.084	0.155	-0.175
-523.989	534.369	0.066	0.157
-522.975	-200.000	0.001	-0.437
-521.960	800.000	0.042	-0.136
-520.945	38.952	-0.127	0.115
-519.931	800.000	-0.025	-0.090
-518.916	-118.599	0.477	-0.085
-517.902	-3.012	0.187	-0.132
-516.887	-200.000	0.018	0.127
-515.872	-113.909	-0.226	-0.044
-514.858	92.301	0.015	0.018
-513.843	595.584	0.029	0.073
-512.829	282.316	-0.066	0.120
-511.814	800.000	-0.034	0.136
-510.799	58.321	0.172	0.171
-509.785	800.000	-0.051	-0.194
-508.770	206.251	-0.172	0.271
-507.756	-200.000	-0.025	-0.256
-506.741	152.804	-0.093	0.129
-505.726	-53.907	0.059	0.027
-504.712	-141.121	-0.214	0.022
-503.697	96.043	-0.276	-0.319
-502.683	-200.000	-0.008	0.248
-501.668	-111.960	-0.030	0.006
-500.653	-101.767	0.323	-0.079
-499.639	320.220	-0.115	-0.221
-498.624	-149.889	0.177	-0.014
-497.610	-165.758	0.359	0.016
-496.595	-58.728	-0.241	0.106
-495.581	-106.191	0.106	-0.024
-494.566	350.096	0.021	-0.042
-493.551	190.413	-0.125	-0.190
-492.537	85.162	0.131	-0.145
-491.522	79.524	0.182	0.198
-490.508	82.299	0.135	-0.149
-489.493	25.522	-0.039	-0.033
-488.478	41.436	-0.230	-0.210
-487.464	83.315	0.173	-0.191
-486.449	-124.106	0.131	-0.021
-485.435	334.825	-0.097	-0.190
-484.420	289.696	0.211	-0.387
-483.405	-114.882	0.309	0.060
-482.391	800.000	-0.076	-0.237
-481.376	-173.676	-0.231	-0.007
-480.362	-200.000	-0.029	0.335
-479.347	23.966	0.214	0.179
-478.332	232.667	0.051	0.085
-477.318	-200.000	-0.020	0.130
-476.303	-165.082	-0.355	-0.016
-475.289	-13.609	0.184	0.121
-474.274	-149.961	0.138	-0.011
-473.259	-74.292	-0.333	-0.122
-472.245	-95.687	-0.080	0.022
-471.230	-123.832	0.398	-0.064
-470.216	800.000	0.087	-0.308
-469.201	-200.000	-0.020	0.180
-468.186	-200.000	0.078	0.351
-467.172	-50.797	-0.409	0.195
-466.157	-88.755	0.170	-0.051
-465.143	-9.314	0.285	0.193
-464.128	643.523	0.041	0.107
-463.113	-34.301	-0.226	0.125
-462.099	-200.000	-0.029	0.413
-461.084	-42.166	-0.177	0.091
-460.070	539.051	-0.152	0.366
-459.055	3.485	-0.177	-0.130
-458.040	7.313	0.196	-0.148
-457.026	511.710	0.083	-0.194
-456.011	230.801	-0.075	0.125
-454.997	-85.348	-0.178	0.056
-453.982	-127.557	0.415	-0.061
-452.968	800.000	-0.052	-0.214
-451.953	51.680	-0.085	0.081
-450.938	-136.247	0.233	0.028
-449.924	280.188	-0.134	0.242
-448.909	37.498	-0.097	0.087
-447.895	-81.901	-0.128	-0.042
-446.880	150.238	-0.311	-0.427
-445.865	192.843	0.057	0.087
-444.851	125.595	0.108	0.138
-443.836	-115.363	-0.040	-0.008
-442.822	-128.383	-0.340	-0.049
-441.807	-17.086	-0.077	-0.049
-440.792	-5.916	0.072	-0.050
-439.778	207.539	-0.056	-0.088
-438.763	-60.871	-0.139	0.060
-437.749	-200.000	-0.020	0.123
-436.734	90.010	-0.159	-0.179
-435.719	466.906	-0.047	-0.106
-434.705	-139.417	0.174	-0.019
-433.690	-108.140	-0.163	-0.036
-432.676	-200.000	0.001	-0.135
-431.661	32.864	0.076	0.066
-430.646	238.673	-0.036	-0.060
-429.632	84.879	-0.100	-0.111
-428.617	-77.137	-0.152	0.054
-427.603	800.000	-0.029	-0.121
-426.588	-94.034	-0.092	0.025
-425.573	10.366	0.114	-0.088
-424.559	800.000	-0.063	-0.212
-423.544	76.665	0.068	0.073
-422.530	601.230	-0.039	-0.098
-421.515	260.633	0.032	0.056
-420.500	30.039	0.041	-0.035
-419.486	-103.156	0.106	0.025
-418.471	77.322	0.106	-0.114
-417.457	35.708	0.124	0.110
-416.442	332.801	0.170	0.332
-415.428	116.247	-0.183	0.226
-414.413	50.913	0.132	0.126
-413.398	379.676	0.175	0.363
-412.384	-103.721	0.203	0.048
-411.369	12.055	-0.272	0.212
-410.355	-127.372	-0.231	-0.034
-409.340	800.000	0.062	0.215
-408.325	48.132	-0.245	0.232
-407.311	-159.753	-0.182	0.010
-406.296	-200.000	-0.008	-0.056
-405.282	-54.025	-0.292	-0.134
-404.267	-200.000	-0.051	0.236
-403.252	274.359	0.128	-0.228
-402.238	786.696	-0.111	-0.307
-401.223	-129.586	0.173	-0.024
-400.209	130.509	-0.249	-0.322
-399.194	361.485	-0.097	-0.196
-398.179	61.732	0.082	0.083
-397.165	-162.043	0.191	-0.010
-396.150	32.893	0.084	0.073
-395.136	-79.043	-0.519	0.178
-394.121	-52.269	0.130	-0.061
-393.106	-1.851	-0.110	0.078
-392.092	-146.573	0.101	0.009
-391.077	116.980	0.083	-0.103
-390.063	-74.681	0.174	0.063
-389.048	-162.969	-0.286	-0.014
-388.033	-182.794	0.251	0.005
-387.019	-200.000	-0.042	-0.226
-386.004	-171.662	-0.072	-0.002
-384.990	-96.230	0.154	-0.041
-383.975	39.450	0.134	0.121
-382.960	338.313	0.079	0.155
-381.946	-109.531	-0.350	-0.075
-380.931	-20.219	-0.174	-0.108
-379.917	52.941	-0.073	-0.071
-378.902	-95.676	0.350	0.094
-377.888	800.000	-0.045	-0.129
-376.873	-134.187	-0.196	-0.024
-375.858	39.389	0.072	0.065
-374.844	-24.062	0.296	-0.178
-373.829	800.000	0.041	-0.149
-372.815	-26.851	0.227	-0.134
-371.800	781.225	-0.033	-0.090
-370.785	20.044	-0.158	0.129
-369.771	69.214	-0.264	0.274
-368.756	56.546	-0.173	0.169
-367.742	300.747	0.126	0.234
-366.727	92.477	-0.239	-0.272
-365.712	315.153	0.132	-0.250
-364.698	213.711	0.091	-0.146
-363.683	-77.171	-0.164	0.058
-362.669	28.686	-0.107	-0.091
-361.654	-86.476	-0.140	-0.043
-360.639	35.413	-0.443	0.392
-359.625	340.568	0.136	0.268
-358.610	-200.000	0.007	0.062
-357.596	126.808	-0.106	-0.136
-356.581	3.396	0.175	-0.128
-355.566	45.982	0.304	-0.283
-354.552	102.272	0.202	-0.237
-353.537	-96.275	0.115	-0.031
-352.523	423.347	0.111	-0.240
-351.508	-130.234	-0.189	0.026
-350.493	800.000	0.067	0.243
-349.479	296.957	-0.184	0.340
-348.464	79.112	0.129	0.140
-347.450	680.833	0.114	-0.299
-346.435	38.796	0.168	-0.151
-345.420	323.746	-0.095	-0.182
-344.406	415.806	-0.090	-0.193
-343.391	-200.000	0.005	-0.295
-342.377	800.000	-0.028	0.118
-341.362	76.884	-0.074	-0.079
-340.348	-84.124	0.118	-0.038
-339.333	-32.594	0.138	-0.078
-338.318	800.000	-0.066	-0.274
-337.304	-200.000	-0.061	-0.502
-336.289	60.809	0.096	0.095
-335.275	-200.000	-0.026	0.542
-334.260	-173.541	-0.174	-0.005
-333.245	-121.199	0.202	0.034
-332.231	-200.000	0.015	-0.074
-331.216	235.827	0.069	-0.115
-330.202	-200.000	-0.027	0.133
-329.187	-101.346	-0.237	-0.058
-328.172	-200.000	0.047	-0.248
-327.158	-46.587	0.475	-0.234
-326.143	-161.183	0.445	0.023
-325.129	-200.000	0.007	0.354
-324.114	753.341	0.052	0.142
-323.099	270.679	-0.153	-0.271
-322.085	-18.636	0.176	0.110
-321.070	-166.201	-0.093	0.004
-320.056	-84.592	0.192	-0.061
-319.041	-25.261	0.185	0.110
-318.026	-113.440	-0.221	0.043
-317.012	104.904	0.094	0.112
-315.997	-94.063	0.318	-0.088
-314.983	800.000	-0.027	0.110
-313.968	66.877	0.289	-0.296
-312.953	139.094	0.087	0.115
-311.939	-38.857	0.137	-0.073
-310.924	800.000	-0.039	-0.111
-309.910	13.031	0.158	0.123
-308.895	108.840	-0.221	0.266
-307.880	-200.000	0.030	0.172
-306.866	41.108	0.170	-0.154
-305.851	-33.656	-0.433	-0.240
-304.837	155.949	-0.170	-0.235
-303.822	43.903	-0.159	-0.146
-302.807	-87.068	0.072	0.022
-301.793	-200.000	0.008	0.114
-300.778	130.770	0.181	-0.233
-299.764	56.334	-0.272	-0.266
-298.749	-200.000	0.002	0.124
-297.735	283.947	0.054	-0.097
-296.720	-100.848	-0.113	0.028
-295.705	-13.912	-0.132	0.086
-294.691	-43.228	-0.193	-0.098
-293.676	519.659	0.093	-0.219
-292.662	-61.676	0.184	-0.077
-291.647	-163.989	0.217	0.010
-290.632	14.163	-0.131	-0.102
-289.618	-200.000	-0.066	-0.353
-288.603	800.000	0.088	-0.294
-287.589	40.216	0.066	-0.060
-286.574	-75.649	0.125	-0.044
-285.559	-158.196	-0.261	-0.015
-284.545	120.757	0.108	-0.135
-283.530	13.569	0.164	-0.128
-282.516	-200.000	-0.034	0.155
-281.501	166.080	-0.242	-0.344
-280.486	345.412	-0.111	-0.220
-279.472	244.364	0.076	0.128
-278.457	521.518	-0.090	-0.211
-277.443	-200.000	0.036	0.333
-276.428	-116.340	-0.219	0.041
-275.413	69.194	0.067	0.069
-274.399	-200.000	-0.046	0.209
-273.384	-35.140	0.401	0.219
-272.370	528.448	-0.032	0.076
-271.355	-163.866	-0.115	-0.005
-270.340	-102.145	0.128	0.031
-269.326	14.215	-0.096	0.075
-268.311	-172.231	0.125	-0.004
-267.297	-200.000	0.060	0.339
-266.282	-200.000	-0.019	0.285
-265.267	-15.468	-0.238	-0.152
-264.253	208.897	0.056	0.088
-263.238	-81.152	-0.156	0.052
-262.224	-75.251	0.010	0.004
-261.209	160.156	0.082	0.114
-260.195	40.413	0.163	0.148
-259.180	-162.362	0.067	0.003
-258.165	600.371	-0.027	0.066
-257.151	-200.000	0.025	0.170
-256.136	-200.000	-0.055	0.294
-255.122	800.000	-0.073	-0.203
-254.107	-34.044	0.182	-0.100
-253.092	-200.000	-0.025	0.180
-252.078	493.830	0.102	-0.235
-251.063	62.247	-0.147	0.147
-250.049	-200.000	-0.045	-0.201
-249.034	-106.826	0.114	-0.025
-248.019	-200.000	-0.072	0.366
-247.005	-200.000	-0.014	0.071
-245.990	-6.502	0.138	-0.094
-244.976	357.017	-0.031	-0.061
-243.961	64.103	0.174	0.175
-242.946	-138.026	-0.165	-0.018
-241.932	91.558	-0.095	0.107
-240.917	-200.000	-0.013	0.097
-239.903	32.784	0.075	-0.065
-238.888	-41.712	0.062	-0.032
-237.873	-78.298	0.274	0.094
-236.859	-189.162	0.119	-0.001
-235.844	-165.908	0.392	0.017
-234.830	-134.515	-0.419	-0.051
-233.815	-112.908	0.207	0.041
-232.800	122.274	-0.170	-0.213
-231.786	-177.407	0.368	-0.009
-230.771	84.648	0.080	0.088
-229.757	-200.000	-0.014	0.277
-228.742	800.000	-0.065	-0.245
-227.727	-6.986	-0.085	-0.058
-226.713	-62.528	-0.052	0.022
-225.698	-200.000	0.025	-0.202
-224.684	237.972	0.114	0.190
-223.669	33.088	-0.136	-0.118
-222.655	-99.796	0.225	0.056
-221.640	-147.562	-0.302	0.025
-220.625	-200.000	0.012	-0.184
-219.611	74.433	-0.315	0.332
-218.596	-135.917	0.091	-0.011
-217.582	800.000	0.052	-0.148
-216.567	-200.000	0.027	-0.121
-215.552	72.112	-0.277	0.288
-214.538	-71.720	-0.065	0.024
-213.523	-148.094	0.094	0.008
-212.509	30.396	0.067	-0.057
-211.494	-48.845	-0.251	-0.120
-210.479	-50.110	0.242	0.115
-209.465	-99.416	-0.203	0.051
-208.450	16.556	-0.136	0.107
-207.436	25.005	0.194	-0.162
-206.421	-200.000	0.001	0.048
-205.406	-157.745	0.151	0.009
-204.392	-73.857	0.157	0.057
-203.377	-127.810	0.316	0.046
-202.363	-126.917	0.379	0.056
-201.348	-102.068	-0.089	-0.022
-200.333	72.201	-0.164	0.171
-199.319	353.140	0.040	0.079
-198.304	-200.000	0.083	0.383
-197.290	-46.439	-0.125	-0.062
-196.275	153.984	-0.117	-0.161
-195.260	-150.954	0.093	-0.007
-194.246	-75.626	-0.012	-0.004
-193.231	-100.879	-0.255	-0.063
-192.217	308.377	-0.108	-0.202
-191.202	22.102	0.175	0.143
-190.187	-200.000	-0.033	-0.189
-189.173	323.092	-0.224	0.428
-188.158	-200.000	0.039	-0.222
-187.144	196.097	-0.118	0.179
-186.129	150.173	0.197	0.268
-185.114	-119.036	-0.417	0.073
-184.100	800.000	0.017	-0.070
-183.085	-28.329	0.082	0.047
-182.071	-65.347	0.324	-0.130
-181.056	-83.694	0.106	0.034
-180.042	-4.797	-0.220	-0.152
-179.027	-200.000	0.026	-0.261
-178.012	-120.686	0.237	0.040
-176.998	43.049	-0.066	0.060
-175.983	-200.000	0.050	-0.380
-174.969	800.000	0.075	-0.269
-173.954	270.631	-0.114	0.201
-172.939	117.314	0.015	0.018
-171.925	-74.970	0.160	-0.057
-170.910	291.354	-0.199	-0.361
-169.896	216.167	0.134	0.213
-168.881	446.881	-0.069	0.151
-167.866	-144.346	0.625	0.058
-166.852	-48.037	-0.223	0.108
-165.837	-71.917	0.385	-0.143
-164.823	-200.000	-0.002	-0.104
-163.808	800.000	-0.085	0.261
-162.793	251.127	-0.230	-0.392
-161.779	-200.000	0.014	0.153
-160.764	-134.334	0.419	0.051
-159.750	-200.000	-0.031	0.206
-158.735	41.081	0.097	0.087
-157.720	800.000	-0.101	0.282
-156.706	-82.177	0.438	-0.143
-155.691	-200.000	0.009	0.066
-154.677	-89.494	-0.090	0.026
-153.662	-200.000	0.048	-0.273
-152.647	241.297	-0.040	-0.066
-151.633	800.000	-0.046	0.128
-150.618	-90.278	0.179	-0.052
-149.604	102.101	0.124	-0.145
-148.589	-200.000	0.001	0.472
-147.574	584.480	0.035	-0.085
-146.560	121.028	0.203	-0.252
-145.545	12.528	0.117	-0.090
-144.531	330.494	0.077	-0.147
-143.516	769.868	0.089	-0.243
-142.502	-200.000	-0.027	0.133
-141.487	800.000	0.079	0.326
-140.472	-22.542	-0.055	0.033
-139.458	147.864	0.032	0.043
-138.443	342.751	-0.037	-0.073
-137.429	-200.000	-0.027	0.124
-136.414	7.509	-0.315	0.235
-135.399	-200.000	-0.056	-0.000
-134.385	-200.000	0.004	0.228
-133.370	-95.514	-0.475	0.127
-132.356	328.843	-0.072	-0.138
-131.341	228.007	0.201	0.327
-130.326	497.663	0.128	0.295
-129.312	-200.000	0.029	-0.242
-128.297	544.221	0.035	-0.083
-127.283	-61.458	-0.145	-0.061
-126.268	-83.312	-0.154	0.049
-125.253	-128.899	0.136	-0.019
-124.239	218.963	-0.165	-0.263
-123.224	453.537	0.096	0.213
-122.210	-20.137	0.163	0.101
-121.195	800.000	0.101	0.296
-120.180	318.128	-0.020	0.037
-119.166	226.771	0.173	0.280
-118.151	-16.760	0.198	-0.125
-117.137	-117.498	-0.141	0.025
-116.122	-101.120	0.282	0.069
-115.107	193.457	-0.216	0.326
-114.093	398.522	0.067	0.141
-113.078	240.735	0.145	0.241
-112.064	-3.995	-0.139	0.096
-111.049	-77.725	0.266	-0.092
-110.034	18.714	0.247	0.197
-109.020	800.000	0.061	-0.215
-108.005	800.000	0.064	-0.232
-106.991	693.174	-0.038	0.099
-105.976	188.186	-0.094	0.140
-104.962	-200.000	0.019	-0.124
-103.947	-94.677	0.212	-0.058
-102.932	25.367	-0.249	-0.207
-101.918	-200.000	-0.004	0.427
-100.903	-8.767	-0.104	0.069
-99.889	-171.001	-0.088	-0.003
-98.874	-89.736	-0.399	0.116
-97.859	144.324	0.144	0.192
-96.845	-200.000	0.024	-0.105
-95.830	-134.814	0.163	0.020
-94.816	-51.833	0.236	-0.110
-93.801	427.957	0.090	-0.194
-92.786	-200.000	0.056	0.251
-91.772	384.605	-0.151	0.310
-90.757	-200.000	-0.057	0.318
-89.743	-200.000	-0.077	-0.360
-88.728	-16.873	0.059	0.037
-87.713	-26.241	0.157	0.092
-86.699	358.396	0.062	0.123
-85.684	800.000	-0.057	0.217
-84.670	-14.753	0.045	0.029
-83.655	-200.000	0.029	0.241
-82.640	-18.898	-0.160	0.099
-81.626	-167.997	-0.117	0.005
-80.611	-51.932	0.193	-0.090
-79.597	-54.113	-0.266	0.120
-78.582	-200.000	-0.049	0.318
-77.567	-109.887	0.148	-0.031
-76.553	-110.747	-0.147	0.030
-75.538	36.460	0.087	-0.076
-74.524	77.639	-0.095	-0.101
-73.509	-142.649	-0.216	0.021
-72.494	56.924	-0.095	-0.092
-71.480	-85.912	-0.391	-0.121
-70.465	0.011	-0.397	-0.282
-69.451	-200.000	0.030	0.493
-68.436	498.104	0.142	-0.327
-67.422	-20.608	-0.083	-0.051
-66.407	202.325	-0.209	0.321
-65.392	-163.243	0.134	-0.006
-64.378	-200.000	0.029	0.385
-63.363	-177.371	0.102	0.002
-62.349	-59.656	-0.171	0.073
-61.334	-9.273	-1.243	-0.827
-60.319	800.000	-0.096	0.344
-59.305	117.689	0.220	-0.270
-58.290	314.782	0.340	0.638
-57.276	363.760	0.700	1.402
-56.261	-200.000	75.006	522.047
-55.246	552.757	1302.319	3115.139
-54.232	145.582	2550.892	3401.766
-53.217	117.825	2262.115	2773.147
-52.203	52.942	1779.173	1694.284
-51.188	45.424	1573.970	1445.945
-50.173	42.484	1544.407	1398.295
-49.159	58.149	1580.769	1541.595
-48.144	64.483	1600.308	1605.066
-47.130	45.734	1563.017	1437.830
-46.115	42.046	1548.772	1398.964
-45.100	41.911	1545.292	1394.820
-44.086	41.841	1543.257	1392.441
-43.071	41.677	1541.108	1389.305
-42.057	41.700	1539.582	1388.038
-41.042	41.772	1537.543	1386.643
-40.027	41.801	1536.297	1385.663
-39.013	41.775	1535.088	1384.335
-37.998	41.739	1534.039	1383.092
-36.984	41.741	1532.592	1381.742
-35.969	41.792	1531.274	1380.855
-34.954	41.779	1529.859	1379.429
-33.940	41.774	1527.901	1377.578
-32.925	41.757	1527.018	1376.607
-31.911	41.794	1525.422	1375.373
-30.896	41.855	1524.046	1374.493
-29.881	41.835	1522.741	1373.126
-28.867	41.828	1521.767	1372.143
-27.852	41.825	1519.975	1370.453
-26.838	41.868	1518.534	1369.393
-25.823	41.848	1516.983	1367.806
-24.809	41.736	1515.488	1365.639
-23.794	41.739	1514.118	1364.367
-22.779	41.771	1512.812	1363.355
-21.765	41.820	1511.380	1362.345
-20.750	41.829	1510.465	1361.532
-19.736	41.778	1509.329	1360.104
-18.721	41.644	1508.804	1358.663
-17.706	41.732	1507.068	1357.642
-16.692	41.788	1505.620	1356.667
-15.677	41.731	1504.987	1355.657
-14.663	41.762	1504.020	1354.942
-13.648	41.725	1502.861	1353.589
-12.633	41.674	1502.238	1352.633
-11.619	41.751	1501.384	1352.331
-10.604	41.684	1500.277	1350.826
-9.590	41.707	1499.237	1349.994
-8.575	41.690	1498.226	1348.917
-7.560	41.674	1497.634	1348.220
-6.546	41.716	1496.729	1347.637
-5.531	41.597	1496.065	1346.182
-4.517	41.696	1494.788	1345.643
-3.502	41.500	1494.435	1343.954
-2.487	41.614	1492.994	1343.373
-1.473	41.669	1492.086	1342.870
-0.458	41.711	1490.698	1341.853
0.556	40.228	1481.139	1333.103
1.571	37.870	1453.957	1292.908
2.586	34.562	1390.958	1215.748
3.600	32.621	1307.277	1130.867
4.615	30.483	1258.428	1076.149
5.629	24.985	1198.350	994.258
6.644	12.088	1103.314	848.971
7.659	2.054	1054.480	761.463
8.673	0.622	1048.015	749.625
9.688	0.333	1045.307	746.190
10.702	0.235	1043.837	744.590
11.717	0.170	1042.148	742.998
12.731	4.440	1047.793	768.111
13.746	15.970	1064.083	837.616
14.761	22.663	1072.582	877.661
15.775	22.781	1071.509	877.291
16.790	22.603	1070.456	875.467
17.804	22.276	1070.162	873.526
18.819	22.145	1069.177	871.997
19.834	22.374	1068.518	872.518
20.848	22.378	1068.234	872.226
21.863	22.542	1067.233	872.144
22.877	22.492	1066.825	871.488
23.892	22.384	1066.544	870.644
24.907	22.128	1065.892	868.772
25.921	22.309	1064.824	868.717
26.936	22.376	1063.826	868.156
27.950	22.315	1062.711	866.868
28.965	22.312	1061.499	865.792
29.980	22.221	1059.910	863.970
30.994	22.118	1058.935	862.593
32.009	22.256	1058.044	862.467
33.023	22.373	1057.329	862.384
34.038	22.180	1056.194	860.437
35.053	22.152	1054.927	859.191
36.067	22.281	1055.037	859.837
37.082	22.313	1054.078	859.131
38.096	22.214	1053.790	858.339
39.111	22.396	1052.715	858.272
40.126	22.634	1051.594	858.445
41.140	22.541	1050.595	857.102
42.155	22.236	1049.120	854.341
43.169	21.998	1047.266	851.598
44.184	21.836	1047.215	850.696
45.199	22.109	1045.748	850.750
46.213	22.013	1044.614	849.289
47.228	21.847	1043.698	847.669
48.242	21.985	1043.158	847.818
49.257	22.198	1042.251	848.035
50.271	22.242	1041.773	847.784
51.286	22.368	1041.020	847.701
52.301	22.426	1040.316	847.334
53.315	22.332	1039.550	846.182
54.330	22.338	1038.316	845.134
55.344	22.277	1037.232	843.883
56.359	22.236	1036.700	843.179
57.374	22.141	1036.402	842.407
58.388	22.068	1035.077	840.908
59.403	22.073	1034.414	840.315
60.417	22.045	1033.944	839.726
61.432	21.983	1032.667	838.320
62.447	21.879	1032.505	837.617
63.461	22.121	1031.373	837.777
64.476	22.080	1030.584	836.867
65.490	22.036	1030.092	836.184
66.505	22.042	1028.823	835.107
67.520	21.973	1027.914	833.968
68.534	22.086	1027.157	833.818
69.549	22.062	1025.945	832.645
70.563	21.653	1024.742	829.658
71.578	21.571	1024.290	828.831
72.593	21.619	1023.547	828.387
73.607	21.580	1021.951	826.837
74.622	21.479	1021.180	825.660
75.636	21.842	1020.305	826.593
76.651	21.986	1019.861	826.836
77.666	21.838	1019.084	825.438
78.680	21.823	1017.933	824.362
79.695	21.770	1017.504	823.694
80.709	21.839	1017.048	823.573
81.724	21.857	1016.571	823.198
82.739	21.890	1015.135	822.122
83.753	21.882	1014.569	821.550
84.768	22.161	1013.846	822.197
85.782	22.505	1013.700	823.616
86.797	22.716	1012.747	823.753
87.812	22.668	1011.441	822.397
88.826	22.458	1011.078	821.051
89.841	22.452	1010.227	820.256
90.855	22.493	1009.312	819.631
91.870	22.546	1008.455	819.109
92.884	22.627	1007.595	818.715
93.899	22.452	1006.641	817.054
94.914	22.433	1005.485	815.957
95.928	22.595	1005.202	816.406
96.943	22.417	1004.681	815.087
97.957	22.230	1003.365	813.082
98.972	22.004	1002.214	811.034
99.987	21.812	1000.948	809.053
101.001	21.879	1000.746	809.123
102.016	22.285	999.843	810.194
103.030	22.322	998.944	809.566
104.045	22.219	998.048	808.293
105.060	22.011	997.097	806.499
106.074	21.948	995.340	804.712
107.089	21.893	994.970	804.094
108.103	22.317	994.481	805.570
109.118	22.368	993.738	805.130
110.133	22.070	992.766	802.905
111.147	21.977	991.908	801.716
112.162	22.032	990.345	800.635
113.176	21.705	989.298	798.229
114.191	21.914	988.353	798.346
115.206	21.989	987.379	797.830
116.220	21.765	986.410	795.960
117.235	21.500	985.349	793.828
118.249	21.813	984.769	794.710
119.264	21.759	983.954	793.740
120.279	21.569	983.426	792.381
121.293	21.675	982.505	792.049
122.308	21.886	981.603	792.204
123.322	21.769	981.133	791.225
124.337	21.642	979.969	789.648
125.352	21.797	978.266	788.901
126.366	21.314	976.777	785.462
127.381	20.874	975.842	782.663
128.395	21.422	975.238	784.571
129.410	22.169	974.942	787.608
130.424	22.283	974.266	787.504
131.439	22.288	973.237	786.625
132.454	22.235	971.998	785.318
133.468	22.313	971.062	784.842
134.483	22.235	970.286	783.795
135.497	22.164	969.994	783.175
136.512	22.522	968.946	783.853
137.527	22.594	968.179	783.482
138.541	22.541	967.675	782.771
139.556	22.577	966.808	782.159
140.570	22.442	965.719	780.609
141.585	22.580	965.198	780.730
142.600	22.511	964.265	779.602
143.614	22.451	963.225	778.426
144.629	22.500	962.807	778.237
145.643	22.709	962.527	778.866
146.658	22.767	960.905	777.741
147.673	22.553	959.680	775.738
148.687	22.409	958.820	774.339
149.702	22.294	957.736	772.892
150.716	22.204	956.800	771.674
151.731	22.211	955.599	770.668
152.746	22.245	954.985	770.250
153.760	22.386	954.299	770.246
154.775	22.629	953.288	770.426
155.789	22.682	952.266	769.761
156.804	22.671	951.659	769.155
157.819	22.484	950.916	767.674
158.833	22.633	950.253	767.716
159.848	22.666	950.066	767.644
160.862	22.650	948.850	766.523
161.877	22.610	948.093	765.670
162.892	22.508	947.121	764.375
163.906	22.524	946.350	763.753
164.921	22.552	945.397	763.039
165.935	22.416	944.389	761.567
166.950	22.548	943.323	761.213
167.964	22.594	942.037	760.305
168.979	22.657	940.819	759.527
169.994	22.438	940.231	758.041
171.008	22.356	939.049	756.667
172.023	22.556	938.506	757.025
173.037	22.671	937.623	756.738
174.052	22.579	936.191	755.122
175.067	22.464	935.422	753.941
176.081	22.225	935.006	752.515
177.096	22.456	933.837	752.499
178.110	22.490	932.948	751.859
179.125	22.177	932.502	750.100
180.140	22.101	930.831	748.362
181.154	22.081	930.379	747.850
182.169	22.152	929.936	747.727
183.183	22.354	929.646	748.289
184.198	22.547	929.597	749.004
185.213	22.499	928.379	747.753
186.227	22.408	927.857	746.880
187.242	22.463	927.496	746.754
188.256	22.584	926.677	746.544
189.271	22.559	926.021	745.841
190.286	22.719	924.881	745.535
191.300	22.504	924.057	743.897
192.315	22.099	923.017	741.286
193.329	21.393	921.393	736.942
194.344	21.022	919.901	734.121
195.359	21.518	920.354	736.504
196.373	22.233	920.943	739.919
197.388	22.548	920.428	740.768
198.402	22.455	919.902	739.887
199.417	22.335	919.428	738.938
200.432	22.349	919.299	738.826
201.446	22.288	918.215	737.634
202.461	22.101	916.952	735.773
203.475	22.131	916.486	735.455
204.490	21.733	915.242	732.729
205.504	20.519	913.442	726.157
206.519	20.961	913.049	727.622
207.534	21.966	913.202	731.876
208.548	21.986	912.993	731.725
209.563	22.368	912.765	733.068
210.577	22.538	912.049	733.136
211.592	22.137	911.378	730.864
212.607	22.525	911.165	732.242
213.621	22.732	910.848	732.782
214.636	22.652	909.567	731.355
215.650	22.730	909.025	731.178
216.665	22.562	908.669	730.132
217.680	22.752	907.847	730.193
218.694	22.724	907.761	729.943
219.709	22.265	906.623	727.065
220.723	22.115	905.551	725.524
221.738	22.340	905.039	725.979
222.753	22.300	905.063	725.765
223.767	22.233	904.190	724.728
224.782	22.556	903.025	725.056
225.796	22.620	902.606	724.922
226.811	22.843	901.985	725.273
227.826	22.465	900.872	722.766
228.840	21.544	899.721	717.998
229.855	21.506	898.739	716.996
230.869	21.747	898.520	717.746
231.884	21.504	897.330	715.739
232.899	21.303	897.219	714.764
233.913	22.195	897.276	718.393
234.928	22.424	897.047	719.081
235.942	22.290	896.156	717.759
236.957	22.403	895.586	717.698
237.972	22.295	893.823	715.782
238.986	21.945	893.914	714.367
240.001	22.115	893.189	714.414
241.015	22.158	892.479	713.959
242.030	22.223	891.743	713.573
243.045	22.325	891.432	713.672
244.059	22.396	890.909	713.481
245.074	22.623	890.551	714.049
246.088	22.642	889.668	713.353
247.103	22.197	888.879	710.860
248.117	22.150	888.298	710.140
249.132	22.653	888.151	711.995
250.147	22.979	888.252	713.325
251.161	23.139	887.258	713.113
252.176	23.311	887.020	713.551
253.190	23.355	886.191	712.997
254.205	23.328	885.938	712.621
255.220	23.444	885.452	712.634
256.234	23.497	884.666	712.150
257.249	23.494	883.760	711.344
258.263	23.250	883.155	709.819
259.278	23.287	882.691	709.532
260.293	23.431	882.093	709.565
261.307	23.489	881.925	709.596
262.322	23.348	880.906	708.153
263.336	23.218	880.242	707.036
264.351	22.782	878.812	704.085
265.366	21.759	876.850	698.376
266.380	21.229	875.881	695.435
267.395	22.029	876.358	698.936
268.409	22.965	876.606	702.798
269.424	22.943	875.927	702.105
270.439	23.059	875.416	702.092
271.453	23.214	874.883	702.219
272.468	23.327	873.992	701.889
273.482	23.276	873.827	701.493
274.497	23.358	873.701	701.654
275.512	23.107	872.445	699.592
276.526	22.647	870.984	696.540
277.541	22.734	870.564	696.485
278.555	23.231	870.342	698.209
279.570	23.095	869.688	697.084
280.585	22.818	869.025	695.399
281.599	22.851	868.467	695.024
282.614	23.073	868.173	695.598
283.628	22.778	867.017	693.452
284.643	22.230	865.893	690.344
285.657	22.462	866.327	691.538
286.672	22.677	865.389	691.570
287.687	22.199	864.274	688.748
288.701	22.317	864.556	689.372
289.716	22.874	864.084	691.114
290.730	22.499	863.025	688.742
291.745	22.359	862.587	687.784
292.760	22.279	861.143	686.259
293.774	22.137	860.596	685.211
294.789	22.834	861.269	688.401
295.803	23.598	861.480	691.491
296.818	23.643	860.877	691.119
297.833	23.835	860.004	691.105
298.847	23.492	859.191	689.056
299.862	23.185	858.043	686.886
300.876	23.335	857.833	687.237
301.891	23.630	857.211	687.820
302.906	23.787	856.639	687.909
303.920	23.385	855.572	685.435
304.935	23.144	855.046	684.023
305.949	23.522	854.784	685.213
306.964	23.670	854.391	685.410
307.979	23.400	853.703	683.756
308.993	23.357	852.958	682.931
310.008	23.761	852.711	684.229
311.022	23.812	852.396	684.112
312.037	23.590	851.648	682.597
313.052	23.443	850.879	681.357
314.066	23.355	850.338	680.525
315.081	22.717	848.850	676.828
316.095	22.068	847.174	672.944
317.110	22.533	847.914	675.258
318.125	23.309	848.027	678.261
319.139	23.046	846.967	676.345
320.154	21.823	845.077	670.105
321.168	21.388	843.985	667.521
322.183	21.888	844.521	669.796
323.197	22.766	845.160	673.595
324.212	23.233	844.678	674.932
325.227	23.383	844.062	674.951
326.241	23.331	844.096	674.720
327.256	23.382	843.346	674.258
328.270	23.247	842.541	673.041
329.285	23.253	841.629	672.276
330.300	23.093	840.758	670.911
331.314	22.928	840.058	669.671
332.329	22.787	839.801	668.872
333.343	23.225	839.050	669.870
334.358	23.581	838.985	671.107
335.373	23.598	838.447	670.683
336.387	23.622	837.974	670.333
337.402	23.822	837.730	670.834
338.416	24.018	837.193	671.082
339.431	23.893	836.387	669.909
340.446	23.873	836.306	669.708
341.460	24.060	835.974	670.088
342.475	24.037	835.105	669.247
343.489	23.946	834.126	668.062
344.504	23.826	833.622	667.148
345.519	24.214	833.410	668.373
346.533	24.194	833.430	668.255
347.548	24.435	832.763	668.565
348.562	24.513	831.982	668.171
349.577	24.558	831.221	667.668
350.592	24.279	831.210	666.557
351.606	24.221	830.530	665.737
352.621	24.180	829.985	665.087
353.635	24.079	829.678	664.404
354.650	24.163	828.968	664.091
355.665	23.869	827.849	662.042
356.679	22.908	825.953	656.895
357.694	22.587	825.919	655.616
358.708	23.222	825.913	657.915
359.723	23.401	824.920	657.731
360.738	23.414	824.984	657.771
361.752	23.852	825.003	659.351
362.767	24.029	824.433	659.495
363.781	24.332	824.456	660.576
364.796	24.648	824.098	661.402
365.810	24.466	823.840	660.463
366.825	24.640	823.479	660.757
367.840	24.686	822.909	660.411
368.854	24.550	822.342	659.395
369.869	24.188	821.296	657.166
370.883	23.947	820.932	655.927
371.898	24.115	820.233	655.929
372.913	24.054	819.374	654.957
373.927	24.005	818.820	654.280
374.942	24.150	818.427	654.440
375.956	24.380	817.876	654.784
376.971	24.515	817.120	654.618
377.986	24.425	816.816	653.985
379.000	24.611	816.520	654.372
380.015	24.639	816.254	654.202
381.029	24.490	815.134	652.701
382.044	24.550	814.471	652.335
383.059	24.592	814.555	652.496
384.073	24.693	813.477	651.945
385.088	24.700	813.036	651.559
386.102	24.724	812.564	651.209
387.117	24.384	812.094	649.538
388.132	24.531	811.263	649.352
389.146	24.294	810.899	648.141
390.161	23.712	809.763	645.060
391.175	23.718	809.347	644.695
392.190	24.262	809.428	646.678
393.205	24.448	808.944	646.907
394.219	23.434	807.444	641.978
395.234	21.742	805.315	634.114
396.248	21.012	803.947	630.342
397.263	21.877	804.961	634.210
398.278	23.875	806.104	642.279
399.292	24.428	805.627	643.840
400.307	23.984	805.570	642.134
401.321	24.035	804.781	641.634
402.336	23.998	804.553	641.261
403.350	24.336	804.635	642.487
404.365	24.650	804.521	643.470
405.380	25.015	804.046	644.346
406.394	25.321	804.067	645.407
407.409	25.408	803.763	645.418
408.423	25.381	802.797	644.490
409.438	25.409	802.240	644.085
410.453	25.376	801.763	643.526
411.467	25.386	801.817	643.548
412.482	25.370	801.036	642.807
413.496	25.130	800.735	641.652
414.511	25.456	800.402	642.493
415.526	25.349	800.060	641.780
416.540	25.337	799.585	641.298
417.555	25.371	799.059	640.942
418.569	25.163	798.246	639.489
419.584	24.945	797.885	638.369
420.599	25.082	796.942	638.044
421.613	90.548	1253.326	1353.691
422.628	77.313	1319.839	1353.821
