DTS Sentinel unit serial number:	SN413079Multiplexer serial number:	ORYXHardware model number:	OX4-SRSoftware version number:	ORYX F/W v4.00 Oryx Data Collector v3.7.2.0data status	okinstallation	princeton_trtdifferential loss correction	single-endedforward channel	channel 3reverse channel	N/Adate	2019/09/11time	13:18:11forward acquisition time	60.00reverse acquisition time	0.00gamma	496.2192k internal	0.2293k external	0.2293temperature offset calibration	0.9975default loss term (dB/km)	0.3790temperature slope calibration	1.0000multiplexer offset coefficient	1.0000multiplexer slope coefficient	1.0000fibre end	0.00T internal ref (°C)	41.94T ext. ref 1 (°C)	0.79T ext. ref 2 (°C)	36.33length (m)	temperature (°C)	Stokes	anti-Stokes-747.200	-43.357	-0.069	0.036
-746.185	149.283	0.099	0.137
-745.171	-200.000	-0.005	0.421
-744.156	585.872	0.154	0.388
-743.142	59.699	0.061	0.061
-742.127	50.427	-0.063	-0.061
-741.112	-200.000	-0.077	-0.439
-740.098	-110.139	0.271	-0.058
-739.083	49.975	-0.097	-0.094
-738.069	-3.137	-0.235	0.167
-737.054	-200.000	-0.009	0.201
-736.039	-141.272	-0.296	0.031
-735.025	-78.769	0.442	0.154
-734.010	0.193	0.018	-0.013
-732.996	37.406	-0.159	-0.144
-731.981	-104.829	-0.150	0.035
-730.966	-137.663	-0.361	-0.041
-729.952	443.701	-0.040	0.089
-728.937	-90.372	-0.166	-0.049
-727.923	-45.337	-0.200	0.101
-726.908	-200.000	0.012	0.230
-725.894	-22.262	-0.306	-0.190
-724.879	-99.070	-0.094	-0.024
-723.864	-200.000	-0.008	-0.086
-722.850	-110.459	0.469	0.099
-721.835	-200.000	-0.034	-0.264
-720.821	-148.214	-0.067	-0.006
-719.806	209.877	-0.069	0.111
-718.791	25.605	0.052	0.044
-717.777	52.990	0.043	-0.042
-716.762	305.311	0.100	-0.191
-715.748	-200.000	0.011	-0.162
-714.733	-128.147	-0.158	-0.023
-713.718	141.493	-0.146	0.198
-712.704	72.213	0.276	0.294
-711.689	-160.020	-0.124	0.007
-710.675	18.128	-0.054	-0.044
-709.660	-66.214	-0.279	-0.113
-708.645	-87.913	-0.129	-0.040
-707.631	-42.092	0.237	-0.124
-706.616	-200.000	-0.019	0.266
-705.602	-64.246	-0.349	0.145
-704.587	-99.860	0.256	-0.065
-703.572	2.829	0.097	0.072
-702.558	21.763	0.194	-0.162
-701.543	188.632	0.111	-0.170
-700.529	-57.182	-0.065	-0.029
-699.514	39.320	0.203	-0.186
-698.499	-100.120	-0.223	-0.057
-697.485	387.083	-0.094	0.198
-696.470	-116.915	-0.195	0.036
-695.456	-200.000	0.010	0.095
-694.441	294.357	-0.041	-0.076
-693.426	70.542	0.237	0.251
-692.412	-83.961	0.307	0.100
-691.397	132.796	0.206	-0.272
-690.383	38.235	0.121	0.110
-689.368	191.062	0.060	-0.093
-688.354	98.907	0.205	-0.242
-687.339	743.566	-0.032	0.088
-686.324	-200.000	-0.060	0.319
-685.310	-48.036	-0.194	0.096
-684.295	117.328	0.017	-0.021
-683.281	-150.844	-0.061	0.005
-682.266	800.000	-0.116	0.414
-681.251	-87.757	-0.211	-0.065
-680.237	-110.791	-0.320	-0.067
-679.222	800.000	0.085	0.288
-678.208	-200.000	-0.021	0.152
-677.193	-200.000	0.039	-0.190
-676.178	-200.000	-0.007	-0.276
-675.164	167.920	-0.161	-0.234
-674.149	800.000	-0.061	0.174
-673.135	800.000	-0.063	0.182
-672.120	-71.527	-0.323	-0.123
-671.105	-83.584	0.193	-0.063
-670.091	-52.112	0.270	-0.128
-669.076	-80.387	-0.266	0.091
-668.062	52.932	-0.080	-0.078
-667.047	-62.967	0.242	-0.102
-666.032	-59.345	0.160	0.070
-665.018	-42.420	0.141	0.073
-664.003	109.009	0.130	0.159
-662.989	-100.111	-0.272	0.069
-661.974	131.298	0.042	-0.055
-660.959	-86.243	0.072	0.022
-659.945	-118.589	0.266	0.048
-658.930	-69.194	-0.305	-0.120
-657.916	-200.000	-0.013	-0.233
-656.901	-200.000	-0.074	-0.390
-655.886	-200.000	-0.011	0.193
-654.872	35.760	-0.101	0.090
-653.857	-200.000	-0.039	-0.193
-652.843	-181.558	-0.212	-0.004
-651.828	69.193	0.229	0.240
-650.814	-157.622	-0.340	0.021
-649.799	-109.652	-0.041	0.009
-648.784	-200.000	-0.193	-0.001
-647.770	204.682	0.145	-0.229
-646.755	-35.798	-0.121	0.067
-645.741	160.286	-0.021	-0.031
-644.726	-200.000	-0.001	-0.025
-643.711	-200.000	-0.039	-0.264
-642.697	369.653	0.129	0.265
-641.682	535.972	-0.121	0.293
-640.668	-200.000	0.017	-0.100
-639.653	-200.000	0.010	-0.056
-638.638	800.000	0.021	-0.077
-637.624	-184.831	-0.156	0.003
-636.609	-102.638	0.163	0.040
-635.595	21.855	0.230	-0.191
-634.580	-119.364	-0.424	-0.075
-633.565	394.074	0.132	-0.280
-632.551	605.362	0.074	0.189
-631.536	-168.682	0.169	0.007
-630.522	-77.992	-0.238	0.084
-629.507	129.631	-0.163	0.213
-628.492	572.835	-0.059	-0.146
-627.478	-200.000	-0.046	-0.377
-626.463	-47.393	0.181	-0.090
-625.449	-200.000	-0.022	0.129
-624.434	297.228	-0.106	-0.198
-623.419	-45.383	0.072	0.036
-622.405	364.543	-0.023	-0.048
-621.390	110.522	-0.226	-0.277
-620.376	332.250	0.130	-0.257
-619.361	-116.509	-0.206	0.039
-618.346	-102.836	-0.155	0.037
-617.332	-200.000	0.013	-0.253
-616.317	383.917	0.079	0.165
-615.303	268.690	-0.067	-0.119
-614.288	372.270	-0.144	0.299
-613.273	-49.390	0.325	-0.158
-612.259	-31.922	-0.388	-0.221
-611.244	251.563	-0.062	-0.107
-610.230	-63.802	-0.139	0.058
-609.215	604.675	-0.105	-0.267
-608.201	525.956	-0.139	0.334
-607.186	800.000	-0.095	-0.293
-606.171	-25.547	-0.126	0.076
-605.157	211.821	-0.146	0.234
-604.142	93.914	-0.261	0.302
-603.128	254.368	-0.197	0.344
-602.113	-200.000	0.031	-0.226
-601.098	800.000	0.143	-0.453
-600.084	427.180	-0.045	-0.100
-599.069	183.175	0.073	0.110
-598.055	-128.085	0.220	0.032
-597.040	-108.792	0.127	-0.028
-596.025	-81.908	-0.128	-0.043
-595.011	662.925	0.011	0.029
-593.996	-146.620	0.298	-0.026
-592.982	-85.666	-0.219	-0.069
-591.967	-200.000	-0.005	0.024
-590.952	-37.642	0.189	0.102
-589.938	-58.016	0.471	-0.209
-588.923	115.488	-0.129	0.160
-587.909	101.370	0.159	0.188
-586.894	-200.000	0.030	0.245
-585.879	-7.693	-0.275	-0.189
-584.865	754.556	0.053	0.147
-583.850	-200.000	-0.069	0.333
-582.836	-118.604	-0.090	0.016
-581.821	-83.820	-0.214	0.069
-580.806	-164.630	-0.116	0.005
-579.792	-125.501	0.063	0.010
-578.777	222.412	0.203	0.332
-577.763	9.712	-0.244	0.188
-576.748	800.000	-0.079	-0.300
-575.733	-82.843	0.106	0.035
-574.719	800.000	-0.056	-0.164
-573.704	45.670	0.090	0.085
-572.690	800.000	0.096	0.312
-571.675	-89.971	0.499	0.148
-570.661	664.141	-0.061	0.159
-569.646	-87.446	0.125	-0.038
-568.631	-200.000	0.024	0.142
-567.617	-200.000	-0.017	-0.489
-566.602	354.974	-0.073	0.148
-565.588	800.000	-0.025	0.107
-564.573	800.000	0.102	0.310
-563.558	-155.249	0.155	-0.010
-562.544	680.321	-0.073	0.192
-561.529	144.507	0.116	0.157
-560.515	-200.000	0.043	-0.390
-559.500	-5.681	-0.153	-0.106
-558.485	-97.241	-0.280	-0.074
-557.471	-200.000	-0.014	0.478
-556.456	-16.450	-0.139	-0.090
-555.442	-35.379	0.215	0.119
-554.427	-44.607	0.156	-0.079
-553.412	91.919	0.070	-0.080
-552.398	-102.422	-0.323	0.079
-551.383	-107.388	0.253	-0.056
-550.369	-111.312	-0.052	-0.011
-549.354	13.757	-0.098	0.077
-548.339	-128.465	0.215	0.031
-547.325	-87.592	-0.168	-0.052
-546.310	315.967	0.087	0.167
-545.296	-139.672	-0.197	-0.021
-544.281	-32.398	-0.354	-0.200
-543.266	423.115	-0.111	-0.242
-542.252	359.534	-0.001	-0.002
-541.237	209.442	0.158	-0.251
-540.223	23.242	0.142	0.118
-539.208	-200.000	-0.035	-0.257
-538.193	148.272	0.182	-0.250
-537.179	558.163	0.082	0.201
-536.164	800.000	0.075	0.276
-535.150	-139.157	0.083	-0.009
-534.135	66.806	0.255	0.263
-533.121	12.532	0.178	-0.140
-532.106	-174.608	0.159	-0.005
-531.091	296.132	-0.063	-0.116
-530.077	-200.000	-0.013	-0.139
-529.062	154.056	-0.091	0.126
-528.048	-200.000	-0.017	0.240
-527.033	-32.923	0.112	0.063
-526.018	310.291	-0.092	0.175
-525.004	23.556	-0.146	-0.122
-523.989	-84.405	-0.313	-0.100
-522.975	141.812	-0.312	-0.419
-521.960	-200.000	0.057	-0.274
-520.945	437.554	0.050	-0.112
-519.931	-42.727	-0.201	-0.104
-518.916	-34.984	0.120	-0.066
-517.902	-99.011	-0.146	0.037
-516.887	-79.711	0.184	-0.063
-515.872	-45.733	0.270	-0.135
-514.858	460.769	-0.055	-0.125
-513.843	233.220	-0.116	-0.193
-512.829	-28.505	0.083	-0.049
-511.814	231.806	-0.072	0.120
-510.799	216.574	-0.134	0.215
-509.785	-155.207	-0.305	-0.020
-508.770	-200.000	0.031	-0.221
-507.756	-200.000	-0.026	-0.201
-506.741	143.840	-0.161	-0.218
-505.726	-32.500	-0.308	0.174
-504.712	800.000	0.053	0.234
-503.697	236.274	0.065	-0.109
-502.683	-38.641	-0.076	0.041
-501.668	-200.000	0.006	-0.124
-500.653	134.030	-0.184	-0.241
-499.639	-49.237	0.188	0.091
-498.624	519.064	0.109	-0.259
-497.610	75.149	0.071	-0.076
-496.595	14.631	0.077	0.061
-495.581	-35.009	-0.114	0.063
-494.566	800.000	0.086	0.272
-493.551	60.315	0.050	-0.050
-492.537	800.000	-0.029	0.121
-491.522	206.844	0.080	0.126
-490.508	-140.940	-0.071	0.007
-489.493	-107.060	0.216	0.048
-488.478	20.996	0.204	0.168
-487.464	-200.000	0.001	-0.222
-486.449	-200.000	-0.019	-0.132
-485.435	-113.674	-0.085	0.017
-484.420	-83.826	-0.109	0.035
-483.405	-23.413	0.274	-0.167
-482.391	-67.215	-0.077	0.031
-481.376	-89.576	-0.270	-0.080
-480.362	800.000	0.091	-0.309
-479.347	-174.684	0.175	0.005
-478.332	-200.000	-0.034	0.231
-477.318	-150.279	-0.453	0.035
-476.303	151.761	-0.134	-0.185
-475.289	-152.102	0.081	0.006
-474.274	153.358	0.364	-0.505
-473.259	-20.316	-0.140	0.087
-472.245	-22.351	0.153	0.094
-471.230	294.476	-0.130	-0.240
-470.216	-163.147	-0.370	0.018
-469.201	-200.000	0.066	0.401
-468.186	101.515	0.261	0.308
-467.172	-200.000	-0.004	0.032
-466.157	119.260	0.114	0.143
-465.143	112.060	-0.156	0.190
-464.128	800.000	-0.136	0.479
-463.113	194.189	0.262	0.402
-462.099	87.315	-0.092	-0.103
-461.084	52.289	0.171	0.165
-460.070	-14.422	0.234	-0.153
-459.055	-200.000	0.010	-0.143
-458.040	8.250	0.262	-0.199
-457.026	32.714	-0.119	0.104
-456.011	-165.616	0.053	0.002
-454.997	465.842	0.145	0.329
-453.982	-169.126	0.364	-0.014
-452.968	-106.983	0.211	-0.047
-451.953	800.000	0.044	0.126
-450.938	800.000	-0.065	0.205
-449.924	800.000	0.054	-0.202
-448.909	42.486	-0.070	0.065
-447.895	-200.000	0.028	-0.130
-446.880	-136.176	-0.056	-0.007
-445.865	-124.373	0.294	0.046
-444.851	360.269	-0.111	0.224
-443.836	-200.000	-0.005	0.045
-442.822	11.833	0.106	0.083
-441.807	-131.917	-0.153	0.020
-440.792	800.000	-0.067	-0.231
-439.778	-60.098	-0.173	-0.074
-438.763	52.984	-0.127	0.123
-437.749	-71.976	-0.215	0.081
-436.734	25.617	0.259	-0.218
-435.719	-53.007	-0.224	0.104
-434.705	-200.000	0.025	-0.224
-433.690	2.279	0.109	-0.079
-432.676	-120.644	0.199	-0.034
-431.661	-29.046	0.358	0.208
-430.646	105.593	-0.100	-0.119
-429.632	1.384	-0.151	-0.110
-428.617	22.474	-0.201	0.167
-427.603	-140.173	-0.125	0.013
-426.588	258.282	0.138	-0.240
-425.573	-200.000	0.019	-0.100
-424.559	800.000	0.037	0.128
-423.544	-34.506	0.118	-0.065
-422.530	563.246	0.111	0.271
-421.515	-80.294	-0.173	0.058
-420.500	-34.696	0.448	0.248
-419.486	-183.152	0.252	-0.004
-418.471	-111.361	0.144	-0.030
-417.457	23.412	-0.157	-0.131
-416.442	-200.000	-0.032	-0.251
-415.428	133.245	-0.076	0.100
-414.413	-199.285	0.165	-0.001
-413.398	-113.557	-0.080	-0.016
-412.384	-137.295	-0.372	-0.043
-411.369	216.817	-0.032	0.052
-410.355	800.000	0.080	0.317
-409.340	82.830	0.029	0.032
-408.325	251.948	0.145	-0.250
-407.311	265.833	-0.299	0.527
-406.296	-124.877	-0.350	0.055
-405.282	-200.000	-0.052	0.255
-404.267	-200.000	0.002	-0.376
-403.252	298.826	0.073	-0.136
-402.238	650.991	-0.056	0.144
-401.223	124.354	0.180	0.229
-400.209	800.000	0.023	0.081
-399.194	9.710	-0.252	0.193
-398.179	-200.000	-0.019	-0.202
-397.165	-69.067	-0.131	0.051
-396.150	-200.000	-0.005	-0.380
-395.136	-89.665	0.187	0.055
-394.121	-49.182	0.093	0.045
-393.106	152.098	0.056	0.077
-392.092	136.786	-0.035	-0.045
-391.077	-72.873	-0.190	-0.071
-390.063	96.312	0.049	0.056
-389.048	-8.933	-0.198	-0.134
-388.033	-183.557	-0.111	-0.002
-387.019	-116.445	-0.357	-0.067
-386.004	-14.816	0.143	-0.093
-384.990	-160.319	-0.080	-0.004
-383.975	800.000	0.142	0.488
-382.960	-143.891	0.252	0.024
-381.946	-160.798	0.244	-0.013
-380.931	-200.000	-0.066	0.393
-379.917	18.647	0.137	-0.110
-378.902	-11.782	-0.305	-0.202
-377.888	0.067	0.208	0.150
-376.873	27.855	0.141	0.120
-375.858	-200.000	0.020	0.146
-374.844	37.236	0.078	-0.070
-373.829	-103.673	0.107	0.025
-372.815	-129.873	-0.065	0.009
-371.800	8.564	-0.124	0.094
-370.785	139.625	0.219	-0.291
-369.771	91.362	0.147	-0.167
-368.756	119.508	0.125	0.156
-367.742	800.000	0.076	-0.258
-366.727	-45.691	-0.086	-0.043
-365.712	-7.298	0.255	-0.175
-364.698	26.378	-0.311	0.263
-363.683	-112.103	-0.121	0.024
-362.669	336.728	0.095	-0.186
-361.654	202.226	-0.082	-0.128
-360.639	-200.000	0.041	-0.228
-359.625	-151.049	-0.178	-0.013
-358.610	111.461	0.188	0.228
-357.596	-200.000	-0.165	-0.001
-356.581	-200.000	-0.021	0.117
-355.566	-200.000	0.007	0.179
-354.552	800.000	-0.064	0.185
-353.537	-200.000	0.031	0.248
-352.523	-91.976	0.403	0.115
-351.508	-200.000	0.029	0.292
-350.493	-26.144	-0.171	-0.102
-349.479	-100.569	-0.249	0.062
-348.464	734.020	0.010	-0.027
-347.450	-81.997	0.480	0.158
-346.435	-28.342	-0.149	-0.087
-345.420	255.138	0.041	-0.070
-344.406	456.448	0.062	0.139
-343.391	353.986	-0.054	0.108
-342.377	251.554	0.125	-0.214
-341.362	800.000	-0.033	-0.097
-340.348	367.278	-0.098	0.198
-339.333	-42.220	-0.288	-0.148
-338.318	-143.284	0.215	-0.021
-337.304	-70.526	0.117	0.044
-336.289	-49.755	0.043	0.021
-335.275	318.286	0.096	-0.183
-334.260	15.132	-0.140	0.111
-333.245	-49.275	-0.333	-0.160
-332.231	800.000	0.007	-0.021
-331.216	505.419	0.153	-0.356
-330.202	-38.313	0.145	-0.077
-329.187	-130.180	-0.208	-0.029
-328.172	267.719	0.065	0.114
-327.158	85.147	0.037	-0.041
-326.143	-105.648	0.492	0.112
-325.129	92.831	0.049	-0.055
-324.114	-70.343	0.083	-0.032
-323.099	800.000	-0.031	-0.097
-322.085	-200.000	-0.085	0.407
-321.070	-105.325	-0.189	-0.043
-320.056	-200.000	-0.005	-0.326
-319.041	-119.913	-0.214	-0.037
-318.026	-47.240	-0.233	-0.114
-317.012	-133.081	-0.293	-0.037
-315.997	204.749	-0.182	0.283
-314.983	-123.400	0.252	0.040
-313.968	-117.729	-0.301	-0.054
-312.953	-122.483	-0.261	0.043
-311.939	79.271	0.213	-0.230
-310.924	38.216	0.077	0.069
-309.910	-102.810	0.189	0.045
-308.895	139.339	0.160	0.211
-307.880	-89.171	0.060	-0.018
-306.866	440.263	0.044	-0.096
-305.851	-200.000	-0.031	-0.151
-304.837	175.969	0.141	0.206
-303.822	-126.492	-0.203	-0.030
-302.807	-200.000	-0.003	0.051
-301.793	-82.659	0.295	-0.096
-300.778	-200.000	-0.033	0.287
-299.764	117.811	0.117	0.145
-298.749	-29.758	-0.204	-0.117
-297.735	97.410	0.456	0.526
-296.720	-99.006	-0.335	-0.085
-295.705	131.362	-0.330	0.426
-294.691	-92.028	0.072	0.020
-293.676	-50.636	0.304	-0.144
-292.662	-125.434	-0.161	-0.025
-291.647	-200.000	0.018	0.284
-290.632	-130.583	-0.237	-0.032
-289.618	-47.143	-0.083	0.041
-288.603	-151.820	0.245	-0.018
-287.589	-22.663	-0.097	0.059
-286.574	-55.571	-0.382	0.172
-285.559	-130.334	0.162	-0.022
-284.545	-80.672	0.386	-0.129
-283.530	-11.805	0.154	-0.101
-282.516	-200.000	0.011	-0.251
-281.501	45.138	0.078	0.073
-280.486	-12.771	-0.173	0.113
-279.472	185.652	0.108	-0.161
-278.457	-200.000	-0.029	0.163
-277.443	-57.547	-0.018	-0.008
-276.428	158.596	-0.054	-0.075
-275.413	-200.000	-0.052	-0.302
-274.399	-10.845	0.371	-0.246
-273.384	96.144	-0.102	0.117
-272.370	-67.379	-0.213	-0.084
-271.355	16.364	0.123	0.098
-270.340	-73.894	0.214	0.078
-269.326	-121.344	-0.237	-0.040
-268.311	797.728	-0.073	0.203
-267.297	800.000	0.113	-0.332
-266.282	43.899	-0.100	-0.092
-265.267	-1.452	-0.362	-0.257
-264.253	115.604	0.088	-0.108
-263.238	-200.000	-0.003	0.213
-262.224	522.155	0.055	-0.131
-261.209	-43.611	0.217	-0.110
-260.195	-200.000	0.052	-0.298
-259.180	-200.000	0.008	-0.326
-258.165	0.171	0.205	-0.147
-257.151	-9.720	0.155	-0.104
-256.136	24.073	-0.104	-0.087
-255.122	-200.000	0.029	-0.258
-254.107	-72.424	0.220	-0.082
-253.092	-200.000	0.020	-0.123
-252.078	-200.000	-0.011	0.103
-251.063	-97.148	-0.305	0.080
-250.049	77.366	0.171	0.182
-249.034	47.186	-0.196	-0.183
-248.019	68.001	-0.094	-0.097
-247.005	-200.000	0.007	-0.072
-245.990	164.859	0.097	-0.137
-244.976	-24.343	-0.230	0.138
-243.961	-44.703	0.147	-0.073
-242.946	91.932	-0.147	-0.166
-241.932	71.751	-0.370	0.386
-240.917	141.201	0.154	0.204
-239.903	-58.676	-0.255	0.111
-238.888	20.819	-0.106	-0.086
-237.873	36.029	-0.086	-0.076
-236.859	48.449	-0.141	0.133
-235.844	369.389	-0.006	0.012
-234.830	34.899	-0.276	0.242
-233.815	387.977	0.104	-0.217
-232.800	2.066	-0.119	-0.086
-231.786	-200.000	0.007	0.039
-230.771	-150.918	-0.186	-0.014
-229.757	231.047	0.095	-0.155
-228.742	39.470	-0.090	-0.081
-227.727	-200.000	-0.002	-0.036
-226.713	161.502	0.100	-0.141
-225.698	-133.130	-0.201	0.025
-224.684	-200.000	0.019	-0.119
-223.669	34.221	0.103	-0.090
-222.655	106.498	-0.162	-0.192
-221.640	35.426	-0.020	0.017
-220.625	800.000	0.118	-0.333
-219.611	69.283	0.137	-0.141
-218.596	-80.042	0.340	-0.114
-217.582	-76.346	-0.149	0.053
-216.567	289.620	0.098	-0.178
-215.552	-193.175	0.384	-0.003
-214.538	-200.000	-0.003	0.072
-213.523	800.000	0.136	0.399
-212.509	60.181	-0.180	-0.178
-211.494	-200.000	-0.025	0.250
-210.479	-115.117	-0.086	0.016
-209.465	-113.779	-0.308	0.060
-208.450	156.892	-0.067	-0.093
-207.436	248.737	-0.021	0.035
-206.421	-94.242	0.187	0.051
-205.406	-200.000	0.021	0.192
-204.392	45.039	-0.077	-0.071
-203.377	-88.981	-0.068	0.020
-202.363	-73.953	0.323	0.117
-201.348	128.560	0.074	-0.094
-200.333	-57.997	-0.209	0.091
-199.319	800.000	-0.102	-0.322
-198.304	-7.763	-0.247	-0.167
-197.290	256.078	0.072	0.124
-196.275	-144.173	-0.218	0.020
-195.260	591.326	0.069	0.171
-194.246	231.371	-0.149	0.245
-193.231	-56.433	0.143	-0.064
-192.217	-56.103	0.402	-0.179
-191.202	133.876	-0.226	-0.293
-190.187	-114.962	0.079	0.015
-189.173	148.921	-0.088	0.119
-188.158	-168.584	0.188	-0.007
-187.144	-200.000	-0.094	0.546
-186.129	315.558	-0.166	-0.314
-185.114	800.000	0.033	-0.106
-184.100	418.571	0.049	0.104
-183.085	-172.029	0.475	-0.015
-182.071	-162.079	-0.166	-0.008
-181.056	-200.000	-0.019	-0.203
-180.042	-111.939	0.349	-0.070
-179.027	-13.418	-0.064	0.041
-178.012	-67.228	0.295	0.116
-176.998	-200.000	-0.018	-0.306
-175.983	-67.816	-0.183	0.072
-174.969	-178.913	0.248	-0.006
-173.954	198.995	-0.051	0.078
-172.939	-74.145	0.039	0.014
-171.925	359.227	0.099	0.199
-170.910	-1.017	0.300	-0.213
-169.896	101.380	0.075	-0.087
-168.881	-83.708	-0.321	0.102
-167.866	24.357	0.190	-0.157
-166.852	-117.926	0.120	0.021
-165.837	-200.000	0.018	0.092
-164.823	-28.800	-0.340	0.196
-163.808	141.941	-0.131	0.174
-162.793	435.172	0.116	0.252
-161.779	-19.068	-0.209	-0.130
-160.764	-200.000	-0.057	-0.461
-159.750	398.585	0.057	0.120
-158.735	175.203	0.313	0.453
-157.720	-4.630	-0.159	0.110
-156.706	43.060	0.088	-0.080
-155.691	-154.185	-0.110	-0.007
-154.677	-29.132	-0.072	0.041
-153.662	361.825	-0.085	0.171
-152.647	-200.000	0.065	0.343
-151.633	-76.262	0.255	0.090
-150.618	16.162	-0.130	-0.103
-149.604	-125.932	0.303	0.046
-148.589	59.477	0.092	0.091
-147.574	156.277	0.052	-0.071
-146.560	-200.000	-0.036	0.242
-145.545	-58.882	0.247	-0.107
-144.531	336.954	-0.086	0.167
-143.516	276.319	-0.153	0.272
-142.502	-138.594	-0.061	0.007
-141.487	-148.203	-0.142	-0.012
-140.472	-44.245	0.413	0.207
-139.458	-200.000	-0.000	-0.021
-138.443	-21.891	0.081	0.049
-137.429	98.985	0.207	-0.238
-136.414	800.000	0.032	0.116
-135.399	-151.460	-0.261	0.019
-134.385	-37.690	0.076	-0.040
-133.370	-98.658	-0.217	-0.055
-132.356	-47.309	0.431	-0.210
-131.341	10.052	-0.160	0.121
-130.326	56.759	-0.205	0.200
-129.312	381.908	-0.202	0.415
-128.297	49.085	0.246	-0.230
-127.283	501.806	0.011	0.026
-126.268	800.000	-0.122	0.359
-125.253	419.276	0.112	-0.240
-124.239	158.531	0.326	0.452
-123.224	93.629	-0.084	0.095
-122.210	-0.609	-0.205	0.145
-121.195	88.425	-0.181	0.201
-120.180	-200.000	-0.039	0.212
-119.166	142.628	0.149	0.197
-118.151	-75.519	-0.128	-0.046
-117.137	-124.221	-0.260	-0.041
-116.122	14.156	-0.181	0.140
-115.107	800.000	0.073	0.231
-114.093	-200.000	0.007	-0.112
-113.078	151.401	0.037	-0.050
-112.064	-200.000	-0.052	0.236
-111.049	800.000	0.098	-0.278
-110.034	-200.000	0.007	0.103
-109.020	-200.000	0.009	-0.126
-108.005	-200.000	0.011	-0.112
-106.991	-128.934	-0.539	-0.075
-105.976	31.726	-0.105	-0.090
-104.962	800.000	0.049	0.145
-103.947	-111.811	-0.225	-0.045
-102.932	725.313	-0.039	-0.105
-101.918	101.693	0.221	-0.257
-100.903	-77.840	0.137	0.047
-99.889	256.057	-0.097	0.166
-98.874	-115.385	0.381	0.072
-97.859	-81.967	0.352	-0.115
-96.845	315.154	-0.074	-0.138
-95.830	-140.401	-0.262	0.027
-94.816	-200.000	-0.031	-0.212
-93.801	-17.681	0.198	-0.124
-92.786	-29.048	-0.185	0.106
-91.772	-200.000	0.079	0.391
-90.757	-73.240	-0.080	0.029
-89.743	-49.725	-0.103	0.049
-88.728	102.716	0.105	-0.123
-87.713	77.066	0.082	0.087
-86.699	-5.393	0.075	-0.051
-85.684	-14.167	-0.388	0.249
-84.670	-100.063	-0.413	0.103
-83.655	567.480	-0.111	-0.268
-82.640	800.000	-0.042	0.133
-81.626	133.465	-0.180	-0.232
-80.611	147.608	-0.213	-0.286
-79.597	-85.001	0.166	0.052
-78.582	208.318	0.224	-0.348
-77.567	140.741	0.156	-0.206
-76.553	-200.000	-0.002	0.199
-75.538	168.477	0.224	-0.319
-74.524	-7.015	-0.109	0.074
-73.509	-70.315	0.071	-0.027
-72.494	346.818	0.138	0.270
-71.480	-23.295	0.066	-0.039
-70.465	-200.000	0.025	-0.321
-69.451	-200.000	0.031	-0.138
-68.436	9.398	-0.104	-0.079
-67.422	6.602	-0.210	0.156
-66.407	50.789	0.191	-0.180
-65.392	114.609	0.119	-0.144
-64.378	800.000	-0.047	0.156
-63.363	318.847	-0.131	-0.247
-62.349	-121.674	0.139	0.023
-61.334	184.995	-0.451	-0.666
-60.319	-167.962	0.151	0.006
-59.305	-200.000	-0.012	-0.780
-58.290	24.368	0.514	0.424
-57.276	800.000	0.586	1.678
-56.261	-200.000	75.501	532.256
-55.246	558.564	1308.068	3143.633
-54.232	144.670	2554.155	3399.042
-53.217	118.538	2260.688	2779.207
-52.203	53.251	1777.286	1695.780
-51.188	45.593	1571.495	1445.588
-50.173	42.758	1541.921	1398.651
-49.159	58.401	1578.493	1541.914
-48.144	64.649	1597.909	1604.624
-47.130	45.838	1561.319	1437.719
-46.115	42.259	1546.306	1398.928
-45.100	42.011	1543.402	1394.517
-44.086	41.935	1541.415	1392.138
-43.071	41.953	1539.386	1390.373
-42.057	41.755	1538.257	1387.927
-41.042	41.824	1535.973	1386.285
-40.027	41.916	1534.673	1385.697
-39.013	41.891	1533.229	1384.164
-37.998	41.906	1531.979	1383.087
-36.984	41.940	1530.914	1382.306
-35.969	42.019	1529.254	1381.293
-34.954	41.927	1528.234	1379.686
-33.940	42.022	1526.019	1378.284
-32.925	41.878	1524.974	1376.292
-31.911	41.967	1524.025	1375.995
-30.896	42.082	1522.369	1375.236
-29.881	42.003	1521.489	1373.842
-28.867	42.108	1519.481	1372.699
-27.852	41.973	1518.203	1370.562
-26.838	41.950	1517.238	1369.481
-25.823	42.036	1514.998	1367.989
-24.809	41.949	1513.662	1366.137
-23.794	41.902	1512.033	1364.293
-22.779	42.064	1510.511	1363.969
-21.765	41.940	1510.094	1362.692
-20.750	42.017	1508.548	1361.766
-19.736	41.951	1507.493	1360.309
-18.721	41.935	1506.160	1358.945
-17.706	41.928	1505.098	1357.889
-16.692	41.927	1503.722	1356.583
-15.677	41.920	1503.119	1355.941
-14.663	41.817	1502.442	1354.574
-13.648	41.830	1501.462	1353.731
-12.633	41.959	1499.994	1353.221
-11.619	41.873	1499.109	1351.791
-10.604	41.961	1498.347	1351.640
-9.590	41.872	1497.625	1350.335
-8.575	41.879	1496.363	1349.190
-7.560	41.887	1495.683	1348.580
-6.546	41.895	1494.974	1347.938
-5.531	41.910	1493.790	1346.919
-4.517	41.917	1492.956	1346.163
-3.502	41.834	1491.787	1344.495
-2.487	41.845	1490.746	1343.576
-1.473	41.957	1489.412	1343.078
-0.458	41.880	1488.194	1341.410
0.556	40.858	1478.966	1331.540
1.571	38.101	1451.008	1288.100
2.586	34.723	1389.746	1212.213
3.600	32.918	1308.021	1130.039
4.615	30.987	1259.957	1077.267
5.629	25.696	1200.398	997.037
6.644	12.655	1104.911	850.688
7.659	2.411	1056.194	762.282
8.673	0.992	1049.998	750.715
9.688	0.815	1046.879	747.546
10.702	0.688	1045.262	745.697
11.717	0.675	1043.997	744.663
12.731	4.757	1049.279	768.554
13.746	16.222	1065.864	837.858
14.761	23.320	1074.546	880.003
15.775	23.330	1073.549	879.162
16.790	23.197	1072.366	877.452
17.804	22.978	1071.695	875.744
18.819	22.640	1071.164	873.558
19.834	22.898	1070.398	874.134
20.848	22.915	1069.787	873.638
21.863	22.961	1069.175	873.287
22.877	22.949	1069.435	873.363
23.892	22.869	1068.550	872.168
24.907	22.852	1067.517	871.164
25.921	22.944	1066.297	870.546
26.936	22.871	1066.025	869.886
27.950	22.761	1065.014	868.442
28.965	22.860	1063.519	867.637
29.980	22.667	1062.347	865.657
30.994	22.725	1060.805	864.608
32.009	22.879	1060.406	864.958
33.023	22.876	1059.860	864.424
34.038	22.742	1058.382	862.486
35.053	22.754	1057.295	861.584
36.067	22.865	1056.793	861.636
37.082	22.886	1056.135	861.128
38.096	22.914	1055.379	860.571
39.111	23.016	1054.961	860.651
40.126	23.144	1054.296	860.656
41.140	23.159	1052.695	859.344
42.155	22.833	1051.157	856.430
43.169	22.660	1049.783	854.398
44.184	22.480	1048.906	852.736
45.199	22.677	1047.804	852.721
46.213	22.537	1046.971	851.288
47.228	22.434	1046.331	850.195
48.242	22.572	1045.694	850.270
49.257	22.669	1044.737	849.882
50.271	22.764	1044.138	849.780
51.286	22.798	1043.618	849.446
52.301	22.887	1042.822	849.147
53.315	22.924	1042.218	848.761
54.330	22.904	1041.449	847.963
55.344	22.754	1040.256	846.196
56.359	22.839	1039.575	845.974
57.374	22.836	1038.968	845.392
58.388	22.717	1037.947	843.918
59.403	22.616	1037.378	842.897
60.417	22.548	1036.750	841.987
61.432	22.462	1035.481	840.470
62.447	22.484	1035.221	840.291
63.461	22.556	1034.832	840.243
64.476	22.778	1033.589	840.219
65.490	22.729	1032.612	839.118
66.505	22.552	1031.736	837.491
67.520	22.702	1030.783	837.353
68.534	22.750	1030.194	837.031
69.549	22.493	1029.086	834.836
70.563	22.257	1028.146	832.881
71.578	22.234	1026.961	831.738
72.593	22.160	1026.862	831.236
73.607	22.096	1025.117	829.449
74.622	22.140	1024.201	828.842
75.636	22.367	1024.201	829.838
76.651	22.429	1023.511	829.498
77.666	22.410	1021.790	827.941
78.680	22.233	1021.642	826.912
79.695	22.319	1020.814	826.577
80.709	22.517	1020.371	827.073
81.724	22.536	1019.271	826.197
82.739	22.545	1018.455	825.505
83.753	22.507	1017.706	824.650
84.768	22.712	1017.068	825.015
85.782	22.891	1016.643	825.436
86.797	23.168	1016.160	826.261
87.812	23.095	1014.842	824.780
88.826	22.982	1014.143	823.611
89.841	23.025	1012.922	822.746
90.855	23.156	1012.103	822.619
91.870	23.129	1011.573	821.991
92.884	23.065	1010.723	820.926
93.899	23.061	1009.796	820.083
94.914	22.916	1009.178	818.839
95.928	23.089	1008.367	818.909
96.943	22.934	1007.520	817.430
97.957	22.903	1005.800	815.820
98.972	22.630	1004.865	813.731
99.987	22.326	1003.992	811.551
101.001	22.547	1003.262	811.904
102.016	22.735	1003.006	812.489
103.030	22.795	1002.176	812.023
104.045	22.737	1001.163	810.863
105.060	22.661	1000.092	809.577
106.074	22.460	998.361	807.183
107.089	22.408	998.361	806.875
108.103	22.943	997.302	808.395
109.118	22.910	996.771	807.744
110.133	22.708	995.462	805.688
111.147	22.466	994.631	803.839
112.162	22.546	993.106	802.901
113.176	22.249	992.384	800.894
114.191	22.468	991.246	800.900
115.206	22.543	990.237	800.354
116.220	22.194	989.365	797.994
117.235	22.149	988.358	796.908
118.249	22.345	987.582	797.099
119.264	22.292	987.098	796.397
120.279	22.122	985.907	794.597
121.293	22.232	984.882	794.200
122.308	22.379	984.725	794.663
123.322	22.415	983.608	793.857
124.337	22.266	982.885	792.528
125.352	22.279	981.031	791.023
126.366	21.884	979.458	787.911
127.381	21.452	978.635	785.241
128.395	22.027	978.273	787.462
129.410	22.743	977.808	790.223
130.424	22.909	976.726	790.022
131.439	22.670	976.085	788.364
132.454	22.776	974.875	787.791
133.468	22.963	973.900	787.769
134.483	22.827	973.084	786.432
135.497	22.859	973.030	786.464
136.512	23.046	972.164	786.526
137.527	22.987	971.460	785.624
138.541	23.165	970.243	785.361
139.556	23.076	969.818	784.551
140.570	23.001	968.957	783.454
141.585	23.135	968.263	783.416
142.600	23.219	967.373	782.997
143.614	23.139	966.803	782.113
144.629	23.033	966.019	780.942
145.643	23.389	964.922	781.559
146.658	23.371	963.781	780.483
147.673	22.991	963.113	778.202
148.687	23.074	961.667	777.328
149.702	22.866	961.128	775.912
150.716	22.848	959.760	774.658
151.731	22.663	959.131	773.270
152.746	22.934	958.075	773.539
153.760	23.121	957.305	773.668
154.775	23.113	957.181	773.464
155.789	23.221	955.772	772.729
156.804	23.182	955.183	772.014
157.819	23.136	954.024	770.805
158.833	23.170	953.068	770.114
159.848	23.352	952.297	770.216
160.862	23.373	951.759	769.805
161.877	23.105	951.171	768.097
162.892	23.128	949.807	767.026
163.906	23.265	948.931	766.843
164.921	23.241	947.961	765.888
165.935	23.274	946.794	765.021
166.950	23.198	946.167	764.117
167.964	23.184	944.988	763.036
168.979	23.184	944.045	762.206
169.994	23.081	943.022	760.874
171.008	22.899	942.102	759.282
172.023	22.935	941.884	759.193
173.037	23.272	940.528	759.480
174.052	23.135	939.490	757.984
175.067	22.872	938.335	755.860
176.081	22.752	937.667	754.745
177.096	22.962	936.652	754.754
178.110	22.958	936.124	754.247
179.125	22.688	934.761	751.932
180.140	22.595	933.617	750.547
181.154	22.444	933.415	749.675
182.169	22.674	932.750	750.055
183.183	22.734	933.078	750.507
184.198	23.162	931.939	751.341
185.213	23.138	931.430	750.763
186.227	23.023	930.687	749.612
187.242	23.163	930.145	749.703
188.256	23.178	929.628	749.281
189.271	23.155	928.476	748.190
190.286	23.181	927.797	747.684
191.300	23.064	926.845	746.357
192.315	22.565	925.533	743.134
193.329	21.790	924.105	738.657
194.344	21.363	923.082	735.978
195.359	22.093	922.675	738.657
196.373	22.888	923.263	742.405
197.388	23.100	922.975	743.000
198.402	22.936	922.482	741.848
199.417	22.974	922.065	741.606
200.432	23.085	921.134	741.257
201.446	22.960	920.574	740.215
202.461	22.575	920.092	738.152
203.475	22.743	919.276	738.135
204.490	22.228	917.855	734.777
205.504	21.190	915.817	728.749
206.519	21.548	915.561	729.974
207.534	22.517	915.945	734.259
208.548	22.742	914.982	734.359
209.563	22.934	915.306	735.351
210.577	22.970	914.463	734.761
211.592	22.774	913.613	733.198
212.607	23.097	913.687	734.535
213.621	23.244	912.940	734.478
214.636	23.248	912.223	733.853
215.650	23.166	912.094	733.344
216.665	23.210	911.152	732.704
217.680	23.237	910.211	731.995
218.694	23.401	909.740	732.230
219.709	22.904	909.164	729.648
220.723	22.624	908.175	727.635
221.738	22.748	907.593	727.615
222.753	23.047	907.238	728.496
223.767	22.932	906.403	727.288
224.782	23.031	905.756	727.113
225.796	23.229	905.077	727.317
226.811	23.447	904.469	727.658
227.826	22.873	903.844	724.735
228.840	22.221	902.115	720.614
229.855	22.160	901.290	719.643
230.869	22.338	900.807	719.923
231.884	22.000	900.005	717.834
232.899	21.916	899.693	717.178
233.913	22.839	899.737	720.923
234.928	22.981	899.436	721.197
235.942	23.049	898.207	720.423
236.957	22.936	897.833	719.600
237.972	22.771	896.826	718.058
238.986	22.518	895.925	716.244
240.001	22.682	895.410	716.435
241.015	22.743	895.040	716.323
242.030	22.867	894.240	716.125
243.045	22.843	894.189	715.921
244.059	22.941	893.609	715.792
245.074	23.182	892.754	716.018
246.088	23.128	892.234	715.319
247.103	22.696	891.094	712.597
248.117	22.812	890.567	712.583
249.132	23.178	890.891	714.255
250.147	23.511	890.865	715.513
251.161	23.731	889.478	715.225
252.176	23.831	889.343	715.456
253.190	23.833	888.648	714.837
254.205	23.894	888.210	714.667
255.220	24.008	888.183	715.042
256.234	24.026	887.220	714.277
257.249	24.066	886.222	713.569
258.263	23.811	885.738	712.095
259.278	23.838	885.209	711.717
260.293	23.889	884.992	711.680
261.307	24.068	884.043	711.571
262.322	23.756	883.659	709.951
263.336	23.753	882.940	709.301
264.351	23.288	881.597	706.303
265.366	22.287	879.267	700.392
266.380	21.913	878.545	698.268
267.395	22.717	878.907	701.690
268.409	23.427	879.402	704.850
269.424	23.463	878.444	704.160
270.439	23.463	878.278	703.966
271.453	23.850	877.318	704.668
272.468	23.764	876.361	703.497
273.482	23.884	876.254	703.825
274.497	24.007	876.002	704.048
275.512	23.890	874.782	702.541
276.526	23.412	873.394	699.478
277.541	23.464	872.973	699.284
278.555	23.812	872.756	700.421
279.570	23.615	872.302	699.217
280.585	23.428	871.142	697.489
281.599	23.578	870.722	697.683
282.614	23.717	870.406	697.915
283.628	23.259	869.480	695.313
284.643	22.815	868.540	692.756
285.657	23.419	868.718	695.207
286.672	23.073	867.788	693.045
287.687	22.694	866.893	690.787
288.701	22.990	866.712	691.741
289.716	23.544	866.430	693.620
290.730	23.117	865.546	691.182
291.745	22.909	864.938	689.824
292.760	22.794	863.776	688.386
293.774	22.689	863.386	687.607
294.789	23.556	863.462	690.983
295.803	24.205	864.288	694.115
296.818	24.207	863.667	693.562
297.833	24.343	863.237	693.684
298.847	24.066	861.851	691.430
299.862	23.715	860.707	689.093
300.876	23.905	860.567	689.657
301.891	24.243	860.318	690.703
302.906	24.205	859.325	689.701
303.920	23.947	857.891	687.489
304.935	23.708	857.597	686.271
305.949	24.006	857.376	687.184
306.964	24.280	856.939	687.832
307.979	24.110	855.941	686.312
308.993	24.008	855.404	685.429
310.008	24.192	855.698	686.312
311.022	24.454	854.713	686.470
312.037	24.255	854.111	685.161
313.052	24.064	853.627	683.979
314.066	24.049	852.878	683.260
315.081	23.422	851.295	679.528
316.095	22.537	850.492	675.436
317.110	22.932	850.608	676.983
318.125	23.731	850.980	680.279
319.139	23.382	850.089	678.174
320.154	22.337	847.939	672.405
321.168	21.885	846.828	669.740
322.183	22.449	846.998	671.970
323.197	23.538	847.449	676.423
324.212	23.739	847.183	676.916
325.227	23.871	846.861	677.102
326.241	24.182	846.533	677.963
327.256	24.074	845.620	676.762
328.270	23.865	845.069	675.466
329.285	23.830	844.107	674.505
330.300	23.702	843.606	673.558
331.314	23.377	843.018	671.798
332.329	23.508	842.334	671.689
333.343	23.968	841.537	672.736
334.358	24.274	841.499	673.803
335.373	24.174	841.309	673.211
336.387	24.227	840.442	672.660
337.402	24.485	840.193	673.373
338.416	24.586	839.732	673.326
339.431	24.549	839.304	672.784
340.446	24.612	838.470	672.293
341.460	24.804	838.341	672.852
342.475	24.701	837.761	671.938
343.489	24.463	836.869	670.269
344.504	24.414	836.494	669.727
345.519	24.658	836.178	670.329
346.533	24.862	835.992	670.885
347.548	24.954	835.606	670.862
348.562	25.021	834.816	670.418
349.577	25.003	834.244	669.833
350.592	24.780	834.132	668.851
351.606	24.914	833.324	668.643
352.621	24.934	832.836	668.267
353.635	24.855	831.761	667.051
354.650	24.811	831.653	666.741
355.665	24.381	830.541	664.191
356.679	23.308	829.171	659.046
357.694	23.180	828.458	657.946
358.708	23.795	828.666	660.337
359.723	23.763	827.930	659.574
360.738	24.195	827.579	660.837
361.752	24.559	827.659	662.196
362.767	24.537	827.482	661.914
363.781	24.858	827.018	662.671
364.796	25.135	826.656	663.346
365.810	25.137	826.392	663.086
366.825	25.305	825.994	663.327
367.840	25.260	825.799	662.947
368.854	25.003	825.133	661.405
369.869	24.776	823.932	659.546
370.883	24.524	823.467	658.188
371.898	24.652	822.689	657.977
372.913	24.623	822.055	657.307
373.927	24.628	821.552	656.864
374.942	24.778	820.858	656.800
375.956	24.846	820.571	656.763
376.971	24.953	820.151	656.763
377.986	25.037	819.525	656.512
379.000	25.147	819.081	656.499
380.015	25.146	818.668	656.106
381.029	25.046	817.993	655.141
382.044	25.024	817.351	654.490
383.059	25.191	816.953	654.723
384.073	25.272	816.397	654.515
385.088	25.275	815.862	654.037
386.102	25.319	815.211	653.617
387.117	25.073	814.487	652.085
388.132	25.036	814.089	651.573
389.146	24.753	813.419	649.952
390.161	24.309	812.160	647.277
391.175	24.306	812.000	647.083
392.190	24.748	811.940	648.581
393.205	25.010	811.631	649.225
394.219	24.003	810.366	644.512
395.234	22.358	807.578	636.293
396.248	21.436	806.640	632.165
397.263	22.591	807.532	636.988
398.278	24.357	808.772	644.294
399.292	24.842	808.866	646.064
400.307	24.492	808.187	644.201
401.321	24.489	807.626	643.685
402.336	24.604	807.096	643.620
403.350	24.993	807.097	644.967
404.365	25.380	806.926	646.163
405.380	25.516	807.043	646.692
406.394	25.803	806.671	647.368
407.409	25.972	806.142	647.493
408.423	25.968	805.496	646.901
409.438	25.724	805.171	645.707
410.453	25.998	804.417	646.029
411.467	26.154	803.981	646.178
412.482	25.949	803.260	644.809
413.496	25.972	803.007	644.630
414.511	25.938	802.661	644.175
415.526	26.071	802.367	644.359
416.540	25.897	801.904	643.308
417.555	25.787	801.538	642.565
418.569	25.624	800.555	641.138
419.584	25.491	800.178	640.305
420.599	25.701	799.792	640.688
421.613	90.874	1252.891	1350.981
422.628	77.698	1318.906	1351.072
