DTS Sentinel unit serial number:	SN413079Multiplexer serial number:	ORYXHardware model number:	OX4-SRSoftware version number:	ORYX F/W v4.00 Oryx Data Collector v3.7.2.0data status	okinstallation	princeton_trtdifferential loss correction	single-endedforward channel	channel 3reverse channel	N/Adate	2019/09/12time	03:34:11forward acquisition time	60.00reverse acquisition time	0.00gamma	496.2192k internal	0.2321k external	0.2321temperature offset calibration	1.0069default loss term (dB/km)	0.3790temperature slope calibration	1.0000multiplexer offset coefficient	1.0000multiplexer slope coefficient	1.0000fibre end	0.00T internal ref (°C)	32.16T ext. ref 1 (°C)	2.15T ext. ref 2 (°C)	27.12length (m)	temperature (°C)	Stokes	anti-Stokes-747.200	65.124	0.186	-0.190
-746.185	-200.000	0.035	-0.231
-745.171	273.192	0.223	-0.398
-744.156	-200.000	-0.068	0.325
-743.142	46.790	0.160	0.150
-742.127	-164.425	-0.163	0.008
-741.112	92.257	0.150	0.171
-740.098	800.000	0.068	0.221
-739.083	140.699	-0.125	0.167
-738.069	155.686	-0.103	0.144
-737.054	800.000	0.044	0.142
-736.039	-79.379	-0.525	0.180
-735.025	173.638	0.055	-0.081
-734.010	9.019	-0.238	0.181
-732.996	5.923	-0.153	-0.115
-731.981	87.356	0.051	-0.057
-730.966	247.946	-0.166	0.283
-729.952	372.132	-0.079	-0.162
-728.937	-200.000	0.002	-0.104
-727.923	-200.000	0.022	-0.354
-726.908	87.699	0.120	-0.134
-725.894	-200.000	-0.011	-0.065
-724.879	5.934	-0.162	0.121
-723.864	134.576	0.102	0.134
-722.850	800.000	0.080	0.311
-721.835	-200.000	0.067	-0.299
-720.821	-8.049	-0.087	0.059
-719.806	-200.000	-0.090	0.474
-718.791	140.472	0.034	0.045
-717.777	-129.719	-0.371	0.052
-716.762	38.395	0.370	-0.333
-715.748	300.532	0.068	-0.126
-714.733	-79.493	-0.123	-0.042
-713.718	-134.690	0.388	-0.048
-712.704	73.910	-0.066	0.070
-711.689	-155.812	-0.100	-0.006
-710.675	-197.212	0.226	-0.001
-709.660	301.200	-0.248	-0.463
-708.645	-200.000	0.008	0.262
-707.631	-0.764	-0.233	-0.167
-706.616	41.314	0.269	-0.245
-705.602	-185.068	0.279	0.004
-704.587	550.865	0.098	-0.238
-703.572	46.989	0.152	0.143
-702.558	800.000	0.027	0.086
-701.543	274.463	0.034	-0.060
-700.529	347.120	-0.046	-0.091
-699.514	-149.638	-0.070	0.006
-698.499	388.243	0.068	0.143
-697.485	-33.760	0.171	0.095
-696.470	220.122	-0.157	0.253
-695.456	-43.844	-0.207	0.105
-694.441	-32.709	-0.109	0.061
-693.426	-110.126	-0.178	0.038
-692.412	94.621	-0.155	-0.178
-691.397	-59.986	-0.166	0.072
-690.383	-200.000	-0.020	-0.113
-689.368	-123.594	0.335	-0.054
-688.354	343.883	0.144	-0.284
-687.339	-43.828	-0.170	0.087
-686.324	-76.882	-0.123	0.043
-685.310	-200.000	0.101	-0.553
-684.295	-200.000	-0.031	-0.163
-683.281	28.243	-0.052	0.044
-682.266	-83.340	0.158	-0.051
-681.251	105.200	-0.094	-0.112
-680.237	-200.000	-0.010	-0.121
-679.222	29.583	0.049	0.042
-678.208	597.063	0.042	0.104
-677.193	-200.000	0.010	-0.134
-676.178	-105.211	0.108	-0.025
-675.164	4.390	-0.153	-0.113
-674.149	-115.517	0.020	-0.004
-673.135	56.924	0.410	-0.403
-672.120	-200.000	-0.023	0.285
-671.105	-40.680	0.188	-0.098
-670.091	-200.000	-0.011	-0.058
-669.076	-200.000	0.062	-0.385
-668.062	-54.423	-0.128	-0.058
-667.047	800.000	-0.080	0.274
-666.032	-41.941	0.181	0.093
-665.018	19.120	-0.136	0.110
-664.003	56.081	0.106	0.104
-662.989	-40.660	0.069	-0.036
-661.974	80.206	0.341	0.369
-660.959	-110.941	0.206	-0.043
-659.945	449.813	0.200	0.445
-658.930	-138.014	-0.159	-0.018
-657.916	-75.929	-0.083	0.029
-656.901	-200.000	-0.019	0.089
-655.886	-165.226	-0.173	-0.008
-654.872	-63.633	0.168	-0.069
-653.857	-57.547	0.048	-0.021
-652.843	-25.647	-0.178	-0.106
-651.828	114.147	0.274	-0.336
-650.814	108.050	0.045	0.054
-649.799	-25.756	0.126	0.075
-648.784	-154.228	-0.139	0.009
-647.770	-162.645	0.371	-0.018
-646.755	-91.684	-0.338	-0.097
-645.741	-40.184	0.152	0.079
-644.726	-200.000	-0.008	-0.082
-643.711	80.844	-0.135	-0.146
-642.697	542.100	0.058	-0.139
-641.682	-200.000	0.010	-0.089
-640.668	800.000	-0.095	-0.273
-639.653	339.064	-0.109	0.214
-638.638	-200.000	-0.004	0.089
-637.624	3.659	0.080	-0.059
-636.609	-135.704	-0.212	-0.025
-635.595	800.000	0.027	-0.110
-634.580	3.852	0.090	-0.066
-633.565	-200.000	0.007	0.581
-632.551	-148.759	-0.200	0.016
-631.536	-48.854	-0.146	-0.070
-630.522	452.759	0.083	0.186
-629.507	-87.930	0.223	-0.067
-628.492	800.000	-0.092	0.274
-627.478	-98.615	-0.082	0.021
-626.463	-122.701	0.606	-0.099
-625.449	-200.000	0.061	-0.278
-624.434	-42.445	0.279	-0.143
-623.419	-151.660	-0.231	0.017
-622.405	33.696	-0.172	0.150
-621.390	260.024	-0.254	-0.441
-620.376	-174.709	-0.574	-0.016
-619.361	-26.132	-0.137	-0.081
-618.346	-87.090	-0.227	-0.070
-617.332	-91.590	-0.397	0.114
-616.317	-200.000	0.006	0.048
-615.303	800.000	-0.041	0.170
-614.288	-15.658	0.207	-0.133
-613.273	-6.166	-0.262	-0.180
-612.259	87.693	0.209	0.232
-611.244	-200.000	0.002	0.294
-610.230	493.584	-0.029	-0.067
-609.215	-47.971	-0.241	0.117
-608.201	25.277	0.191	0.160
-607.186	-50.939	-0.193	-0.091
-606.171	166.140	0.105	-0.149
-605.157	-150.535	0.364	-0.028
-604.142	-200.000	-0.008	0.326
-603.128	421.841	-0.094	0.203
-602.113	-127.565	-0.259	-0.038
-601.098	428.875	-0.025	0.055
-600.084	-127.734	-0.316	0.046
-599.069	383.410	0.098	-0.203
-598.055	428.799	0.062	-0.134
-597.040	265.147	0.024	0.042
-596.025	-60.097	-0.131	-0.056
-595.011	-200.000	-0.021	-0.114
-593.996	146.153	0.097	-0.131
-592.982	-129.449	-0.260	-0.036
-591.967	-123.522	-0.134	0.021
-590.952	-125.447	-0.093	0.014
-589.938	-70.693	-0.245	0.093
-588.923	-56.823	0.443	-0.197
-587.909	123.773	-0.115	-0.144
-586.894	-123.572	-0.106	0.017
-585.879	-171.531	-0.255	-0.009
-584.865	-42.492	0.140	0.071
-583.850	800.000	-0.091	-0.396
-582.836	393.987	-0.125	0.262
-581.821	192.213	0.103	-0.156
-580.806	800.000	0.061	-0.259
-579.792	800.000	0.073	0.279
-578.777	-148.430	0.201	0.017
-577.763	-200.000	0.023	0.152
-576.748	-113.401	-0.233	0.046
-575.733	-16.146	0.296	-0.189
-574.719	146.129	0.104	0.140
-573.704	248.272	0.126	-0.215
-572.690	-200.000	0.008	-0.049
-571.675	114.657	0.114	-0.140
-570.661	52.317	0.321	0.307
-569.646	-200.000	-0.001	-0.305
-568.631	-57.212	-0.263	-0.116
-567.617	-164.723	-0.188	-0.009
-566.602	800.000	0.106	0.367
-565.588	-57.463	-0.332	0.146
-564.573	800.000	-0.059	-0.178
-563.558	15.124	0.222	-0.175
-562.544	-149.813	0.275	-0.022
-561.529	95.852	-0.088	-0.101
-560.515	56.786	-0.131	-0.128
-559.500	297.160	-0.094	-0.174
-558.485	333.254	0.167	-0.324
-557.471	-200.000	0.014	0.112
-556.456	265.189	0.139	-0.243
-555.442	800.000	0.017	-0.073
-554.427	-200.000	-0.012	0.404
-553.412	-54.830	0.203	-0.092
-552.398	-200.000	-0.036	0.221
-551.383	137.709	-0.045	-0.059
-550.369	204.155	-0.012	0.018
-549.354	-174.655	-0.371	-0.011
-548.339	191.660	-0.153	-0.231
-547.325	406.157	-0.031	0.067
-546.310	-36.049	0.070	-0.038
-545.296	-40.702	0.209	0.109
-544.281	800.000	0.107	0.327
-543.266	800.000	0.077	-0.317
-542.252	-148.341	0.297	-0.024
-541.237	96.601	0.041	-0.048
-540.223	-29.329	-0.146	-0.084
-539.208	800.000	-0.058	-0.228
-538.193	-164.376	0.535	0.025
-537.179	-200.000	0.000	0.040
-536.164	420.686	-0.021	0.046
-535.150	-74.360	-0.177	-0.064
-534.135	295.995	0.144	-0.264
-533.121	-200.000	-0.002	-0.142
-532.106	-47.105	0.051	0.025
-531.091	-129.112	-0.131	0.018
-530.077	288.712	0.123	-0.224
-529.062	220.875	0.201	0.323
-528.048	59.405	0.140	0.138
-527.033	-200.000	-0.032	0.305
-526.018	-164.131	0.052	0.002
-525.004	-200.000	0.013	-0.352
-523.989	-200.000	-0.070	0.472
-522.975	800.000	-0.023	0.099
-521.960	400.136	0.062	-0.129
-520.945	-200.000	0.030	0.476
-519.931	-200.000	-0.042	-0.219
-518.916	104.661	0.237	-0.280
-517.902	-90.987	0.306	0.088
-516.887	-81.521	-0.265	0.087
-515.872	-200.000	0.028	-0.367
-514.858	102.034	0.115	0.134
-513.843	402.922	0.088	-0.184
-512.829	-165.815	-0.133	0.006
-511.814	-200.000	-0.027	-0.133
-510.799	-12.803	0.235	0.153
-509.785	-2.010	0.249	0.175
-508.770	-200.000	-0.001	-0.116
-507.756	-44.164	0.170	-0.086
-506.741	-60.416	0.165	-0.070
-505.726	-83.517	0.244	-0.078
-504.712	92.260	0.094	-0.106
-503.697	-105.938	0.386	0.087
-502.683	-11.569	-0.361	0.238
-501.668	67.833	-0.163	-0.167
-500.653	328.334	0.017	-0.032
-499.639	109.039	-0.098	0.117
-498.624	0.274	-0.143	-0.102
-497.610	91.106	-0.122	-0.137
-496.595	800.000	0.004	0.015
-495.581	302.610	-0.007	0.013
-494.566	-135.582	0.158	0.019
-493.551	-200.000	-0.017	0.090
-492.537	11.397	-0.091	0.070
-491.522	-57.188	-0.334	-0.147
-490.508	-200.000	0.010	0.089
-489.493	125.903	-0.210	0.265
-488.478	-105.655	0.262	0.059
-487.464	-64.394	0.184	-0.075
-486.449	-20.093	0.250	-0.154
-485.435	-156.190	-0.425	0.027
-484.420	249.057	-0.103	-0.175
-483.405	341.680	-0.163	0.319
-482.391	113.967	-0.129	0.157
-481.376	-77.313	0.179	-0.062
-480.362	800.000	0.047	-0.170
-479.347	108.193	-0.150	0.179
-478.332	-144.919	-0.329	0.030
-477.318	-200.000	0.008	-0.079
-476.303	-9.380	-0.136	0.091
-475.289	-200.000	0.007	-0.038
-474.274	-147.701	-0.404	-0.034
-473.259	422.129	0.042	0.090
-472.245	-200.000	0.020	-0.153
-471.230	-183.060	0.216	-0.004
-470.216	-200.000	-0.005	-0.049
-469.201	-141.130	0.305	-0.031
-468.186	336.485	-0.054	0.104
-467.172	-200.000	0.013	-0.259
-466.157	-156.226	-0.214	0.013
-465.143	-200.000	-0.022	-0.134
-464.128	800.000	0.082	-0.236
-463.113	-200.000	-0.070	-0.491
-462.099	-76.841	-0.322	0.112
-461.084	-94.107	-0.144	-0.039
-460.070	199.186	-0.081	0.124
-459.055	-200.000	-0.022	0.114
-458.040	800.000	-0.076	-0.211
-457.026	-151.513	-0.289	0.021
-456.011	-13.578	0.117	0.076
-454.997	-10.441	0.295	-0.195
-453.982	72.825	0.122	0.128
-452.968	-35.183	-0.092	-0.050
-451.953	661.267	0.111	-0.285
-450.938	90.564	-0.035	-0.039
-449.924	48.107	-0.172	0.161
-448.909	800.000	0.075	0.218
-447.895	-200.000	-0.002	0.096
-446.880	-71.287	0.353	0.132
-445.865	241.560	0.144	-0.241
-444.851	274.096	0.173	-0.306
-443.836	-200.000	0.014	0.424
-442.822	147.975	0.093	0.125
-441.807	-200.000	0.015	0.227
-440.792	155.522	0.056	-0.077
-439.778	-129.478	-0.303	-0.042
-438.763	-200.000	0.041	-0.212
-437.749	246.476	-0.206	0.346
-436.734	7.472	-0.140	0.105
-435.719	-69.675	-0.350	0.134
-434.705	-200.000	-0.003	-0.136
-433.690	-68.092	0.196	0.076
-432.676	-137.683	0.205	0.023
-431.661	-55.532	0.158	-0.071
-430.646	64.966	-0.251	-0.253
-429.632	-200.000	0.014	-0.212
-428.617	-164.658	-0.223	-0.010
-427.603	800.000	-0.012	-0.036
-426.588	-60.703	-0.304	0.128
-425.573	192.487	0.074	-0.112
-424.559	-200.000	-0.022	-0.179
-423.544	181.575	-0.133	-0.195
-422.530	-163.851	0.302	-0.014
-421.515	-49.637	0.468	-0.222
-420.500	-200.000	0.108	0.517
-419.486	-29.598	0.322	-0.184
-418.471	-52.124	-0.182	0.084
-417.457	-36.284	-0.145	0.078
-416.442	-87.365	-0.408	-0.123
-415.428	306.648	0.099	-0.183
-414.413	-181.802	-0.076	-0.001
-413.398	-200.000	0.043	0.224
-412.384	-200.000	-0.016	0.181
-411.369	-81.824	0.263	-0.086
-410.355	-24.040	0.071	0.042
-409.340	16.127	-0.124	-0.098
-408.325	800.000	-0.034	-0.097
-407.311	396.331	0.042	-0.087
-406.296	61.521	0.098	-0.097
-405.282	-78.541	-0.230	-0.079
-404.267	-45.715	-0.079	-0.039
-403.252	333.684	-0.153	0.295
-402.238	-200.000	0.030	0.145
-401.223	-104.507	-0.396	-0.091
-400.209	46.184	-0.195	-0.180
-399.194	-164.604	0.236	0.011
-398.179	19.350	0.069	0.055
-397.165	-18.730	0.171	0.106
-396.150	331.002	-0.038	-0.073
-395.136	172.478	-0.065	-0.093
-394.121	-200.000	-0.012	-0.217
-393.106	67.784	-0.225	0.229
-392.092	-117.374	0.339	0.061
-391.077	-81.348	0.144	0.047
-390.063	78.333	-0.114	0.121
-389.048	-118.174	-0.146	-0.026
-388.033	-134.990	0.172	0.021
-387.019	374.397	-0.080	0.161
-386.004	-64.843	-0.063	-0.026
-384.990	28.104	0.143	-0.120
-383.975	-92.566	-0.409	-0.114
-382.960	-200.000	0.118	0.591
-381.946	-102.579	-0.062	0.015
-380.931	-14.832	-0.160	-0.102
-379.917	291.875	-0.104	0.189
-378.902	288.888	0.183	-0.330
-377.888	26.003	0.072	0.060
-376.873	-133.775	0.362	-0.045
-375.858	151.657	-0.276	-0.374
-374.844	58.761	-0.130	-0.128
-373.829	188.965	-0.184	-0.275
-372.815	-41.454	0.138	0.071
-371.800	-70.522	-0.049	-0.019
-370.785	71.302	0.073	-0.075
-369.771	-115.027	0.110	0.021
-368.756	48.861	0.021	0.020
-367.742	-21.238	-0.255	-0.155
-366.727	623.653	-0.128	-0.322
-365.712	-184.200	0.299	0.005
-364.698	800.000	0.088	0.258
-363.683	514.243	0.027	-0.063
-362.669	6.095	0.114	0.084
-361.654	380.497	0.107	0.219
-360.639	626.794	0.120	0.301
-359.625	-200.000	-0.027	-0.245
-358.610	-33.229	-0.174	-0.096
-357.596	-200.000	-0.001	-0.034
-356.581	110.663	0.089	0.106
-355.566	-58.513	0.196	-0.085
-354.552	7.598	0.275	0.205
-353.537	-42.271	0.270	0.137
-352.523	-169.223	-0.122	-0.004
-351.508	-68.232	-0.129	0.050
-350.493	445.978	-0.104	-0.228
-349.479	-200.000	-0.007	-0.136
-348.464	-142.646	0.348	-0.034
-347.450	13.648	-0.241	-0.186
-346.435	-200.000	0.007	0.171
-345.420	262.212	-0.107	-0.185
-344.406	-120.962	-0.136	0.023
-343.391	-8.996	-0.063	-0.042
-342.377	-56.704	-0.089	-0.039
-341.362	-200.000	0.002	0.079
-340.348	224.765	-0.184	0.296
-339.333	-44.138	-0.456	0.228
-338.318	-166.587	0.279	0.012
-337.304	-47.869	-0.192	0.093
-336.289	800.000	-0.038	0.145
-335.275	225.261	0.232	-0.374
-334.260	-200.000	0.011	-0.126
-333.245	441.792	0.049	-0.106
-332.231	505.244	-0.076	0.174
-331.216	-60.343	-0.364	-0.154
-330.202	-121.910	0.204	0.033
-329.187	-68.944	0.394	0.151
-328.172	-200.000	-0.029	-0.472
-327.158	-38.963	-0.144	-0.075
-326.143	-48.351	0.115	-0.055
-325.129	97.308	0.202	-0.230
-324.114	-137.711	0.257	-0.029
-323.099	346.791	-0.224	0.438
-322.085	-69.123	0.151	-0.058
-321.070	-12.067	-0.141	-0.092
-320.056	-200.000	0.009	-0.079
-319.041	302.841	-0.132	0.242
-318.026	-17.155	-0.139	0.087
-317.012	55.957	0.266	-0.256
-315.997	-101.024	0.517	0.126
-314.983	69.340	-0.067	0.069
-313.968	-92.402	0.349	-0.098
-312.953	800.000	-0.105	0.319
-311.939	-200.000	0.005	-0.396
-310.924	-16.307	-0.198	0.125
-309.910	366.115	-0.125	0.251
-308.895	800.000	0.036	0.114
-307.880	-45.350	0.204	-0.100
-306.866	-46.629	-0.049	0.024
-305.851	-200.000	-0.032	-0.140
-304.837	127.995	0.114	-0.144
-303.822	-12.119	-0.303	0.197
-302.807	-101.157	0.215	0.052
-301.793	-6.893	-0.078	0.053
-300.778	-91.910	-0.229	-0.065
-299.764	-1.761	0.146	-0.102
-298.749	-200.000	-0.064	0.328
-297.735	-20.208	-0.184	-0.113
-296.720	227.087	-0.065	-0.105
-295.705	-57.870	0.258	0.112
-294.691	-123.942	-0.110	0.017
-293.676	-97.580	0.155	-0.040
-292.662	-200.000	-0.013	0.435
-291.647	220.522	0.112	0.179
-290.632	-116.604	-0.119	0.022
-289.618	-200.000	-0.015	-0.141
-288.603	8.132	-0.159	0.118
-287.589	-78.636	0.276	0.094
-286.574	52.377	0.112	0.106
-285.559	800.000	0.041	-0.164
-284.545	361.864	0.126	0.252
-283.530	-80.422	0.269	-0.089
-282.516	-200.000	-0.005	0.155
-281.501	-7.983	-0.294	-0.197
-280.486	-57.375	0.277	0.121
-279.472	-1.630	-0.388	0.271
-278.457	-85.116	0.154	-0.048
-277.443	253.647	-0.070	0.118
-276.428	-28.584	-0.289	0.165
-275.413	279.818	0.130	-0.231
-274.399	-49.445	-0.109	-0.051
-273.384	347.030	0.137	0.268
-272.370	114.079	0.013	-0.015
-271.355	-200.000	0.022	0.099
-270.340	800.000	-0.043	0.132
-269.326	603.070	-0.033	0.081
-268.311	170.708	-0.137	-0.194
-267.297	371.001	0.060	0.120
-266.282	-32.981	-0.165	0.091
-265.267	114.096	-0.065	0.079
-264.253	800.000	-0.068	-0.252
-263.238	800.000	0.123	-0.451
-262.224	-18.631	0.103	0.064
-261.209	-123.839	0.214	-0.033
-260.195	440.516	-0.140	-0.304
-259.180	800.000	0.137	-0.413
-258.165	52.619	0.250	0.236
-257.151	127.326	-0.070	0.088
-256.136	-23.635	-0.176	0.105
-255.122	-1.379	-0.114	0.080
-254.107	-200.000	0.015	0.257
-253.092	-200.000	0.007	0.052
-252.078	-200.000	-0.194	0.001
-251.063	38.392	0.046	0.041
-250.049	-153.746	0.177	0.012
-249.034	-46.670	0.157	-0.076
-248.019	15.907	-0.292	-0.228
-247.005	13.448	-0.176	-0.135
-245.990	-27.906	0.145	0.083
-244.976	-200.000	-0.008	0.168
-243.961	-200.000	-0.044	-0.272
-242.946	-81.117	0.183	0.060
-241.932	-200.000	0.062	0.359
-240.917	584.132	-0.057	0.138
-239.903	-58.256	0.281	0.121
-238.888	-200.000	-0.010	0.084
-237.873	-183.056	-0.344	-0.006
-236.859	86.194	-0.219	0.239
-235.844	800.000	-0.011	0.047
-234.830	-200.000	0.017	-0.115
-233.815	117.972	0.344	-0.420
-232.800	-127.304	-0.319	0.046
-231.786	-91.381	-0.076	-0.022
-230.771	-69.586	-0.274	0.104
-229.757	204.213	0.123	0.188
-228.742	-101.794	0.200	0.048
-227.727	363.079	0.025	0.050
-226.713	-200.000	-0.076	0.363
-225.698	-88.006	-0.326	0.097
-224.684	424.425	-0.071	0.152
-223.669	-25.439	-0.178	0.104
-222.655	-200.000	0.003	0.191
-221.640	800.000	0.033	-0.112
-220.625	237.514	-0.030	0.049
-219.611	93.488	-0.199	0.223
-218.596	-148.071	0.275	-0.023
-217.582	263.258	-0.058	-0.100
-216.567	498.008	0.096	0.219
-215.552	-55.846	0.118	-0.052
-214.538	-200.000	0.004	0.134
-213.523	-200.000	-0.069	0.361
-212.509	240.810	-0.143	0.237
-211.494	189.660	0.074	0.109
-210.479	-54.376	-0.077	-0.035
-209.465	21.932	-0.061	0.049
-208.450	190.495	0.140	0.209
-207.436	39.731	-0.033	0.029
-206.421	-200.000	-0.018	-0.266
-205.406	-200.000	-0.011	-0.072
-204.392	281.414	0.072	0.128
-203.377	-196.118	0.275	-0.002
-202.363	-31.815	-0.200	0.111
-201.348	-200.000	0.007	-0.092
-200.333	-159.296	-0.193	-0.011
-199.319	-200.000	0.001	0.417
-198.304	-68.166	0.157	0.060
-197.290	287.541	-0.088	-0.157
-196.275	800.000	-0.017	-0.062
-195.260	284.161	0.159	0.283
-194.246	118.621	-0.159	0.194
-193.231	143.148	0.170	0.224
-192.217	800.000	0.064	0.199
-191.202	-150.776	-0.075	-0.006
-190.187	128.482	-0.209	-0.264
-189.173	-101.844	0.220	-0.053
-188.158	632.522	-0.050	0.126
-187.144	410.463	-0.017	0.036
-186.129	-26.225	0.308	-0.179
-185.114	-128.860	0.220	-0.031
-184.100	-200.000	-0.030	-0.193
-183.085	-91.512	-0.077	-0.022
-182.071	-200.000	0.018	0.172
-181.056	-200.000	-0.005	-0.227
-180.042	-82.083	-0.338	0.109
-179.027	555.040	-0.029	-0.068
-178.012	504.666	-0.087	-0.199
-176.998	133.322	0.182	-0.232
-175.983	22.288	-0.233	-0.188
-174.969	451.464	-0.027	0.059
-173.954	149.793	0.095	0.127
-172.939	-44.740	0.083	0.041
-171.925	-176.676	0.307	-0.008
-170.910	-118.063	0.322	-0.057
-169.896	-200.000	-0.030	0.221
-168.881	-74.859	-0.081	0.029
-167.866	800.000	0.043	0.122
-166.852	-70.423	0.121	-0.045
-165.837	15.282	-0.184	-0.142
-164.823	22.001	-0.143	-0.115
-163.808	-67.692	0.091	0.035
-162.793	275.315	0.070	0.122
-161.779	-70.716	-0.167	-0.062
-160.764	-158.455	0.293	-0.017
-159.750	418.123	0.070	-0.147
-158.735	75.558	0.082	-0.086
-157.720	136.818	0.257	-0.332
-156.706	33.559	0.266	-0.228
-155.691	-165.965	0.296	-0.013
-154.677	-176.320	-0.339	-0.009
-153.662	-169.573	-0.076	-0.003
-152.647	-102.146	-0.150	-0.036
-151.633	71.640	0.173	-0.178
-150.618	153.536	0.242	0.327
-149.604	-200.000	0.003	-0.225
-148.589	232.842	-0.066	-0.107
-147.574	-163.522	-0.042	-0.002
-146.560	-56.376	-0.229	0.100
-145.545	138.354	0.047	0.060
-144.531	-22.130	0.233	0.140
-143.516	127.516	-0.082	0.103
-142.502	126.877	0.078	-0.098
-141.487	800.000	-0.056	0.205
-140.472	-59.626	0.034	-0.015
-139.458	47.437	0.300	-0.276
-138.443	283.563	0.095	-0.169
-137.429	246.303	0.158	0.263
-136.414	8.113	0.125	0.093
-135.399	124.130	0.163	-0.202
-134.385	-101.614	-0.243	-0.058
-133.370	-200.000	0.021	-0.251
-132.356	-93.035	0.464	0.128
-131.341	-19.437	-0.099	0.061
-130.326	628.744	0.134	-0.334
-129.312	800.000	0.060	-0.219
-128.297	32.840	-0.268	0.229
-127.283	413.667	-0.094	0.198
-126.268	-200.000	-0.002	-0.508
-125.253	-167.473	0.238	-0.009
-124.239	-200.000	-0.053	-0.478
-123.224	387.156	0.129	-0.262
-122.210	427.802	-0.142	0.302
-121.195	-200.000	0.049	-0.318
-120.180	38.286	0.064	-0.056
-119.166	-73.749	-0.438	0.157
-118.151	230.860	0.035	0.057
-117.137	-98.636	-0.380	-0.095
-116.122	219.380	-0.036	0.056
-115.107	64.520	0.176	0.175
-114.093	27.391	-0.146	0.121
-113.078	-46.969	0.288	-0.139
-112.064	800.000	0.097	0.358
-111.049	213.893	-0.124	-0.194
-110.034	47.480	-0.156	-0.144
-109.020	75.648	0.053	0.055
-108.005	116.041	-0.098	-0.118
-106.991	2.683	-0.060	-0.043
-105.976	783.341	0.080	-0.217
-104.962	800.000	-0.077	-0.249
-103.947	-200.000	0.049	0.257
-102.932	-200.000	0.018	0.244
-101.918	-157.155	0.248	0.015
-100.903	81.871	0.127	0.136
-99.889	783.856	0.094	-0.253
-98.874	20.011	0.283	-0.225
-97.859	183.995	-0.065	-0.094
-96.845	-135.247	-0.135	-0.016
-95.830	517.988	0.130	-0.300
-94.816	-38.482	0.086	0.045
-93.801	344.315	0.068	0.131
-92.786	118.903	-0.274	0.334
-91.772	508.717	0.021	0.049
-90.757	37.119	0.260	0.227
-89.743	28.125	0.147	0.122
-88.728	51.562	0.126	0.118
-87.713	-30.871	0.151	0.084
-86.699	-53.480	0.115	-0.052
-85.684	100.894	-0.185	0.212
-84.670	-154.523	-0.404	-0.027
-83.655	-200.000	-0.015	-0.065
-82.640	-200.000	-0.050	0.292
-81.626	-67.711	-0.216	0.083
-80.611	328.174	-0.026	0.049
-79.597	39.094	0.284	0.250
-78.582	121.727	0.083	0.101
-77.567	-2.310	-0.165	0.114
-76.553	-56.078	-0.126	0.055
-75.538	800.000	-0.034	0.105
-74.524	-3.645	-0.177	-0.121
-73.509	800.000	-0.072	0.276
-72.494	-104.926	-0.168	-0.038
-71.480	-146.155	0.221	0.019
-70.465	140.854	0.378	0.491
-69.451	116.468	-0.214	0.258
-68.436	-52.930	0.224	-0.101
-67.422	-73.002	0.052	0.019
-66.407	-5.694	0.224	0.151
-65.392	-85.114	-0.091	0.028
-64.378	-196.529	-0.172	0.001
-63.363	-87.732	-0.547	0.162
-62.349	101.996	-0.096	0.110
-61.334	147.705	-0.830	-1.101
-60.319	4.758	0.216	0.156
-59.305	-200.000	-0.255	-1.200
-58.290	800.000	0.346	1.304
-57.276	367.225	0.749	1.488
-56.261	-200.000	95.827	597.386
-55.246	576.307	1362.763	3275.185
-54.232	163.101	2537.462	3506.721
-53.217	113.259	2155.407	2572.143
-52.203	42.870	1702.356	1526.074
-51.188	35.334	1515.896	1307.731
-50.173	33.041	1489.227	1269.292
-49.159	52.154	1538.293	1442.031
-48.144	54.027	1556.185	1471.540
-47.130	35.531	1515.887	1308.862
-46.115	32.423	1501.254	1275.155
-45.100	32.192	1498.262	1270.999
-44.086	32.206	1496.271	1269.353
-43.071	32.095	1494.466	1267.021
-42.057	32.084	1492.569	1265.290
-41.042	32.105	1491.062	1264.103
-40.027	32.169	1489.669	1263.302
-39.013	32.166	1488.623	1262.344
-37.998	32.075	1487.025	1260.332
-36.984	32.115	1486.039	1259.715
-35.969	32.202	1484.333	1258.801
-34.954	32.233	1483.010	1257.838
-33.940	32.142	1481.438	1255.845
-32.925	32.211	1480.309	1255.296
-31.911	32.142	1478.852	1253.553
-30.896	32.195	1477.153	1252.414
-29.881	32.225	1476.061	1251.637
-28.867	32.259	1474.602	1250.578
-27.852	32.273	1473.589	1249.762
-26.838	32.227	1471.964	1248.032
-25.823	32.225	1470.079	1246.371
-24.809	32.165	1468.958	1244.969
-23.794	32.108	1467.545	1243.344
-22.779	32.203	1466.370	1242.930
-21.765	32.257	1464.738	1241.857
-20.750	32.230	1463.645	1240.702
-19.736	32.164	1462.869	1239.561
-18.721	32.121	1461.903	1238.404
-17.706	32.175	1460.496	1237.523
-16.692	32.127	1459.732	1236.507
-15.677	32.173	1458.667	1235.861
-14.663	32.161	1457.259	1234.541
-13.648	32.122	1456.677	1233.744
-12.633	32.148	1455.365	1232.755
-11.619	32.131	1454.753	1232.071
-10.604	32.103	1454.018	1231.216
-9.590	32.028	1453.288	1230.058
-8.575	32.237	1451.858	1230.170
-7.560	32.133	1451.456	1229.101
-6.546	32.010	1450.744	1227.641
-5.531	32.058	1449.733	1227.054
-4.517	31.929	1448.868	1225.425
-3.502	32.121	1447.210	1225.233
-2.487	32.104	1446.205	1224.216
-1.473	32.023	1445.385	1222.952
-0.458	32.165	1444.032	1222.679
0.556	32.679	1434.321	1211.217
1.571	29.987	1410.345	1173.832
2.586	26.834	1357.376	1110.375
3.600	25.388	1278.492	1037.410
4.615	24.063	1229.846	990.482
5.629	20.538	1172.655	925.599
6.644	10.917	1086.113	809.539
7.659	3.348	1044.475	742.087
8.673	2.408	1038.438	733.228
9.688	2.177	1035.937	730.297
10.702	1.970	1033.974	727.857
11.717	2.036	1032.437	727.028
12.731	5.717	1035.908	746.976
13.746	15.427	1050.371	804.068
14.761	23.224	1059.886	848.822
15.775	25.093	1062.006	859.415
16.790	25.338	1061.853	860.387
17.804	25.231	1060.984	859.096
18.819	25.151	1059.756	857.643
19.834	25.246	1059.255	857.616
20.848	25.326	1059.058	857.766
21.863	25.518	1058.714	858.324
22.877	25.516	1058.146	857.778
23.892	25.500	1057.243	856.895
24.907	25.236	1056.502	854.963
25.921	25.323	1056.387	855.209
26.936	25.284	1055.497	854.227
27.950	25.244	1054.069	852.806
28.965	25.364	1053.155	852.562
29.980	25.215	1051.860	850.727
30.994	25.232	1050.291	849.466
32.009	25.450	1049.222	849.558
33.023	25.530	1048.846	849.556
34.038	25.362	1048.167	848.135
35.053	25.219	1047.304	846.690
36.067	25.431	1046.455	846.928
37.082	25.322	1045.874	845.867
38.096	25.350	1045.373	845.520
39.111	25.539	1044.356	845.508
40.126	25.701	1043.470	845.480
41.140	25.673	1042.096	844.162
42.155	25.297	1040.430	840.973
43.169	25.024	1039.544	838.908
44.184	25.025	1038.473	837.974
45.199	25.050	1037.630	837.335
46.213	24.992	1036.759	836.290
47.228	24.936	1035.998	835.338
48.242	25.088	1035.401	835.492
49.257	25.220	1034.619	835.404
50.271	25.355	1033.915	835.390
51.286	25.410	1033.282	835.058
52.301	25.496	1032.596	834.827
53.315	25.492	1031.428	833.793
54.330	25.435	1031.190	833.262
55.344	25.413	1030.116	832.216
56.359	25.316	1029.242	830.988
57.374	25.239	1028.598	830.040
58.388	25.225	1027.507	829.021
59.403	25.017	1027.274	827.800
60.417	25.239	1026.328	827.987
61.432	24.995	1025.283	825.947
62.447	24.986	1024.548	825.238
63.461	25.083	1024.334	825.442
64.476	25.225	1023.459	825.315
65.490	25.157	1022.601	824.241
66.505	25.125	1021.598	823.210
67.520	25.113	1020.522	822.214
68.534	25.231	1020.018	822.279
69.549	25.055	1018.772	820.396
70.563	24.872	1017.786	818.689
71.578	24.680	1017.263	817.321
72.593	24.609	1016.749	816.513
73.607	24.730	1014.572	815.240
74.622	24.551	1014.058	813.942
75.636	24.806	1013.761	814.792
76.651	25.005	1013.120	815.109
77.666	24.734	1012.559	813.355
78.680	24.764	1011.109	812.253
79.695	24.918	1010.483	812.377
80.709	24.852	1010.446	811.976
81.724	24.929	1009.432	811.438
82.739	24.919	1008.634	810.682
83.753	24.945	1007.483	809.803
84.768	25.210	1007.552	810.984
85.782	25.599	1006.982	812.209
86.797	25.820	1005.611	812.030
87.812	25.641	1004.965	810.631
88.826	25.483	1004.283	809.297
89.841	25.534	1003.615	808.915
90.855	25.600	1002.451	808.204
91.870	25.665	1001.702	807.819
92.884	25.666	1000.855	807.068
93.899	25.634	999.545	805.799
94.914	25.475	999.133	804.682
95.928	25.609	998.184	804.446
96.943	25.542	997.986	803.914
97.957	25.287	996.610	801.596
98.972	25.140	995.316	799.829
99.987	24.856	994.357	797.721
101.001	25.004	993.868	797.920
102.016	25.223	993.222	798.306
103.030	25.446	992.012	798.251
104.045	25.230	991.074	796.471
105.060	25.095	990.185	795.084
106.074	24.908	988.916	793.169
107.089	24.931	988.544	792.900
108.103	25.292	987.925	793.932
109.118	25.473	987.188	794.067
110.133	25.115	985.982	791.446
111.147	25.032	985.100	790.303
112.162	25.069	983.563	789.162
113.176	24.723	982.906	787.045
114.191	24.889	982.253	787.182
115.206	25.153	981.001	787.266
116.220	24.722	980.288	784.737
117.235	24.605	979.368	783.416
118.249	24.658	978.629	782.988
119.264	24.751	978.025	782.842
120.279	24.537	977.434	781.362
121.293	24.690	976.282	781.044
122.308	24.905	975.494	781.282
123.322	24.887	975.121	780.835
124.337	24.741	974.231	779.418
125.352	24.686	972.517	777.738
126.366	24.205	971.317	774.618
127.381	23.969	969.886	772.386
128.395	24.419	969.960	774.329
129.410	25.210	969.356	777.205
130.424	25.376	968.542	777.202
131.439	25.221	967.814	775.882
132.454	25.233	966.127	774.509
133.468	25.197	965.759	773.994
134.483	25.174	964.846	773.091
135.497	25.141	964.568	772.658
136.512	25.376	964.230	773.330
137.527	25.516	962.843	772.754
138.541	25.448	962.437	772.065
139.556	25.500	961.460	771.439
140.570	25.498	960.754	770.796
141.585	25.587	959.552	770.144
142.600	25.612	959.336	770.008
143.614	25.501	957.981	768.377
144.629	25.682	957.273	768.517
145.643	25.916	956.881	769.131
146.658	25.697	955.928	767.363
147.673	25.545	954.464	765.475
148.687	25.501	953.387	764.353
149.702	25.543	952.147	763.472
150.716	25.315	951.177	761.658
151.731	25.169	950.315	760.284
152.746	25.431	949.928	761.015
153.760	25.560	949.430	761.096
154.775	25.745	948.431	761.010
155.789	25.781	947.628	760.449
156.804	25.611	947.065	759.212
157.819	25.638	945.902	758.327
158.833	25.684	944.953	757.692
159.848	25.848	944.365	757.846
160.862	25.680	944.244	756.974
161.877	25.663	942.719	755.613
162.892	25.555	941.648	754.234
163.906	25.763	940.745	754.315
164.921	25.676	940.054	753.332
165.935	25.558	938.841	751.797
166.950	25.747	938.339	752.123
167.964	25.734	937.335	751.196
168.979	25.671	936.418	750.132
169.994	25.590	935.143	748.706
171.008	25.413	934.243	747.183
172.023	25.538	933.457	747.007
173.037	25.888	932.504	747.630
174.052	25.688	931.579	745.995
175.067	25.384	930.635	743.913
176.081	25.364	930.005	743.262
177.096	25.291	929.746	742.687
178.110	25.380	928.861	742.281
179.125	25.179	927.428	740.242
180.140	24.972	926.306	738.429
181.154	25.114	925.343	738.177
182.169	25.204	925.235	738.397
183.183	25.376	924.824	738.711
184.198	25.835	924.475	740.257
185.213	25.619	923.813	738.770
186.227	25.493	923.349	737.821
187.242	25.539	922.989	737.656
188.256	25.635	922.016	737.204
189.271	25.664	921.212	736.617
190.286	25.751	920.563	736.386
191.300	25.681	919.494	735.182
192.315	24.930	918.348	731.136
193.329	24.393	916.493	727.406
194.344	23.801	915.722	724.318
195.359	24.513	916.138	727.484
196.373	25.417	916.395	731.306
197.388	25.778	915.748	732.191
198.402	25.485	915.504	730.740
199.417	25.410	914.995	729.967
200.432	25.598	914.259	730.075
201.446	25.431	913.531	728.753
202.461	25.139	913.070	727.137
203.475	25.106	912.741	726.676
204.490	24.760	910.935	723.777
205.504	23.598	909.041	717.510
206.519	24.206	908.389	719.387
207.534	24.968	909.070	722.941
208.548	25.087	909.121	723.400
209.563	25.497	908.465	724.466
210.577	25.566	907.570	723.964
211.592	25.259	906.744	722.006
212.607	25.694	906.981	723.881
213.621	25.598	906.886	723.358
214.636	25.712	905.303	722.487
215.650	25.696	905.194	722.271
216.665	25.761	904.381	721.821
217.680	25.664	904.132	721.169
218.694	25.828	903.571	721.314
219.709	25.452	902.485	718.878
220.723	25.116	901.826	716.949
221.738	25.444	900.973	717.515
222.753	25.479	900.674	717.354
223.767	25.508	900.025	716.888
224.782	25.698	899.218	716.941
225.796	25.782	898.497	716.638
226.811	25.928	898.183	716.901
227.826	25.553	896.731	714.192
228.840	24.584	895.816	709.554
229.855	24.602	895.056	708.958
230.869	24.633	895.264	709.185
231.884	24.575	893.879	707.794
232.899	24.544	892.875	706.815
233.913	25.389	892.971	710.171
234.928	25.514	893.106	710.709
235.942	25.388	892.604	709.748
236.957	25.515	891.850	709.587
237.972	25.126	890.601	706.998
238.986	24.943	889.832	705.602
240.001	25.149	889.422	706.028
241.015	25.289	888.554	705.826
242.030	25.240	888.172	705.268
243.045	25.437	887.968	705.818
244.059	25.538	887.401	705.700
245.074	25.810	886.597	706.066
246.088	25.723	885.962	705.158
247.103	25.230	885.298	702.637
248.117	25.232	884.687	702.095
249.132	25.891	884.857	704.745
250.147	26.197	884.683	705.742
251.161	26.345	883.717	705.486
252.176	26.467	883.284	705.553
253.190	26.333	882.987	704.732
254.205	26.511	882.043	704.609
255.220	26.666	881.970	705.093
256.234	26.624	881.379	704.395
257.249	26.535	880.848	703.561
258.263	26.397	879.799	702.127
259.278	26.449	878.989	701.620
260.293	26.586	878.911	702.024
261.307	26.561	878.440	701.489
262.322	26.495	877.348	700.302
263.336	26.440	876.738	699.540
264.351	25.840	875.627	696.272
265.366	24.686	874.234	690.648
266.380	24.524	872.568	688.647
267.395	25.230	873.459	692.013
268.409	26.008	873.541	695.014
269.424	26.036	872.526	694.255
270.439	26.004	872.362	693.937
271.453	26.215	871.902	694.323
272.468	26.326	871.279	694.193
273.482	26.384	870.613	693.823
274.497	26.547	870.367	694.189
275.512	26.199	869.345	691.981
276.526	25.703	867.811	688.802
277.541	25.870	867.631	689.235
278.555	26.264	867.670	690.712
279.570	26.193	866.316	689.304
280.585	25.927	865.992	687.968
281.599	26.038	865.550	687.982
282.614	26.220	864.962	688.146
283.628	25.679	863.942	685.214
284.643	25.383	863.327	683.540
285.657	25.741	863.151	684.702
286.672	25.840	862.328	684.363
287.687	25.149	861.710	681.187
288.701	25.510	861.309	682.180
289.716	26.070	860.791	683.836
290.730	25.571	860.022	681.273
291.745	25.434	859.458	680.246
292.760	25.390	858.258	679.071
293.774	25.223	857.813	678.028
294.789	26.164	858.269	681.885
295.803	26.927	858.306	684.733
296.818	26.707	858.187	683.747
297.833	26.791	857.489	683.446
298.847	26.686	856.249	682.004
299.862	26.201	855.172	679.263
300.876	26.376	855.188	679.873
301.891	26.723	854.639	680.681
302.906	26.810	854.179	680.580
303.920	26.534	852.837	678.417
304.935	26.329	852.368	677.214
305.949	26.657	852.326	678.351
306.964	26.697	851.847	678.059
307.979	26.597	850.902	676.873
308.993	26.514	850.635	676.289
310.008	26.792	850.292	676.995
311.022	27.020	849.627	677.258
312.037	26.609	849.546	675.600
313.052	26.469	848.668	674.320
314.066	26.475	847.488	673.346
315.081	25.708	846.419	669.585
316.095	25.045	845.220	666.111
317.110	25.499	845.453	667.924
318.125	26.269	845.917	671.092
319.139	25.896	844.685	668.673
320.154	24.870	842.671	663.219
321.168	24.445	842.138	661.168
322.183	25.112	841.910	663.400
323.197	26.117	842.351	667.405
324.212	26.305	842.201	667.922
325.227	26.511	841.989	668.456
326.241	26.548	841.807	668.390
327.256	26.447	840.823	667.179
328.270	26.433	840.131	666.517
329.285	26.386	839.373	665.685
330.300	26.154	838.621	664.174
331.314	25.883	838.056	662.671
332.329	25.825	837.800	662.197
333.343	26.468	836.916	663.802
334.358	26.685	836.814	664.459
335.373	26.639	836.286	663.812
336.387	26.774	835.802	663.861
337.402	26.822	835.818	663.992
338.416	27.088	835.329	664.517
339.431	26.971	834.951	663.730
340.446	27.028	834.270	663.339
341.460	27.172	834.231	663.777
342.475	27.359	832.753	663.222
343.489	27.161	832.066	661.895
344.504	27.094	832.151	661.660
345.519	27.403	831.319	662.064
346.533	27.548	830.964	662.252
347.548	27.440	830.870	661.724
348.562	27.537	830.383	661.629
349.577	27.653	829.557	661.333
350.592	27.331	829.559	660.109
351.606	27.366	828.482	659.320
352.621	27.309	828.495	659.065
353.635	27.511	827.534	658.975
354.650	27.170	827.206	657.420
355.665	26.878	826.224	655.528
356.679	25.755	824.365	649.944
357.694	25.735	824.048	649.564
358.708	26.486	824.057	652.222
359.723	26.465	823.176	651.393
360.738	26.616	823.486	652.121
361.752	27.171	822.860	653.567
362.767	27.198	822.809	653.564
363.781	27.449	822.871	654.457
364.796	27.566	822.894	654.840
365.810	27.672	822.332	654.713
366.825	27.993	821.483	655.132
367.840	27.875	821.592	654.738
368.854	27.668	820.703	653.230
369.869	27.362	819.803	651.361
370.883	27.235	819.063	650.259
371.898	27.294	818.488	649.957
372.913	27.085	817.824	648.627
373.927	27.184	816.900	648.189
374.942	27.134	817.098	648.111
375.956	27.329	816.528	648.296
376.971	27.526	816.158	648.645
377.986	27.541	815.340	647.991
379.000	27.676	815.453	648.506
380.015	27.635	814.970	647.916
381.029	27.587	813.820	646.777
382.044	27.643	813.046	646.301
383.059	27.763	813.010	646.643
384.073	27.788	812.389	646.177
385.088	27.856	811.691	645.807
386.102	27.850	811.177	645.318
387.117	27.531	810.560	643.645
388.132	27.528	809.720	642.909
389.146	27.286	809.373	641.725
390.161	26.692	808.174	638.623
391.175	26.823	807.928	638.836
392.190	27.463	807.999	641.088
393.205	27.254	807.803	640.140
394.219	26.409	805.557	635.335
395.234	24.897	803.337	628.227
396.248	24.006	802.253	624.200
397.263	25.148	803.352	629.010
398.278	26.906	804.544	636.057
399.292	27.284	804.606	637.371
400.307	27.051	804.257	636.225
401.321	26.965	803.598	635.345
402.336	27.139	803.043	635.457
403.350	27.433	803.178	636.538
404.365	27.741	803.216	637.588
405.380	28.091	803.045	638.618
406.394	28.437	802.589	639.406
407.409	28.662	801.923	639.604
408.423	28.492	801.632	638.722
409.438	28.407	801.070	637.922
410.453	28.538	800.724	638.047
411.467	28.528	800.618	637.869
412.482	28.495	799.771	637.023
413.496	28.390	799.241	636.181
414.511	28.384	799.032	635.938
415.526	28.511	798.529	635.922
416.540	28.422	798.533	635.558
417.555	28.453	797.621	634.883
418.569	28.168	796.693	633.103
419.584	27.992	796.289	632.120
420.599	28.244	795.690	632.458
421.613	111.559	1284.923	1458.737
422.628	96.146	1356.188	1458.822
