DTS Sentinel unit serial number:	SN413079Multiplexer serial number:	ORYXHardware model number:	OX4-SRSoftware version number:	ORYX F/W v4.00 Oryx Data Collector v3.7.2.0data status	okinstallation	princeton_trtdifferential loss correction	single-endedforward channel	channel 3reverse channel	N/Adate	2019/09/11time	01:42:10forward acquisition time	60.00reverse acquisition time	0.00gamma	496.2192k internal	0.2332k external	0.2332temperature offset calibration	0.9914default loss term (dB/km)	0.3790temperature slope calibration	1.0000multiplexer offset coefficient	1.0000multiplexer slope coefficient	1.0000fibre end	0.00T internal ref (°C)	29.16T ext. ref 1 (°C)	-0.30T ext. ref 2 (°C)	23.40length (m)	temperature (°C)	Stokes	anti-Stokes-747.200	-3.182	0.105	-0.074
-746.185	800.000	0.120	-0.339
-745.171	-103.515	-0.157	-0.037
-744.156	800.000	-0.068	0.263
-743.142	-71.275	-0.143	-0.054
-742.127	-73.218	-0.637	-0.235
-741.112	-200.000	0.002	0.008
-740.098	-200.000	0.029	0.191
-739.083	800.000	-0.047	-0.166
-738.069	41.979	-0.270	-0.246
-737.054	501.272	-0.067	0.156
-736.039	-47.305	-0.217	-0.106
-735.025	-173.807	0.527	0.016
-734.010	67.888	0.097	0.100
-732.996	274.897	-0.054	0.097
-731.981	-151.277	-0.412	-0.031
-730.966	-102.855	-0.477	0.114
-729.952	-37.375	0.241	-0.129
-728.937	268.514	-0.201	-0.355
-727.923	628.205	0.151	-0.383
-726.908	373.952	-0.070	0.144
-725.894	119.455	-0.417	-0.519
-724.879	-51.344	0.292	-0.137
-723.864	91.907	0.061	0.069
-722.850	-200.000	0.012	0.160
-721.835	-19.102	-0.426	0.266
-720.821	465.334	-0.083	0.187
-719.806	96.712	-0.083	0.096
-718.791	316.078	0.036	-0.068
-717.777	20.346	0.072	0.058
-716.762	83.649	-0.062	0.068
-715.748	16.161	0.128	-0.101
-714.733	-64.838	-0.102	-0.042
-713.718	-124.598	0.086	-0.013
-712.704	-124.019	-0.299	-0.047
-711.689	-112.585	-0.325	0.065
-710.675	48.965	-0.060	0.057
-709.660	92.088	0.215	0.243
-708.645	-39.912	0.142	0.075
-707.631	-163.243	0.270	-0.013
-706.616	20.108	-0.109	0.088
-705.602	-194.811	0.239	-0.002
-704.587	-116.492	-0.127	-0.024
-703.572	160.857	0.167	-0.234
-702.558	-111.714	0.060	-0.012
-701.543	40.663	-0.210	0.190
-700.529	-200.000	-0.016	0.146
-699.514	-200.000	-0.017	-0.227
-698.499	189.415	-0.112	-0.168
-697.485	646.345	0.068	-0.174
-696.470	-83.851	0.103	-0.033
-695.456	317.520	0.069	-0.131
-694.441	110.648	-0.051	-0.061
-693.426	123.849	0.138	-0.174
-692.412	111.605	0.088	-0.107
-691.397	-146.702	-0.323	0.028
-690.383	-120.083	-0.092	0.016
-689.368	-166.277	-0.078	0.003
-688.354	-33.268	-0.117	-0.065
-687.339	-200.000	-0.023	-0.129
-686.324	128.909	-0.203	-0.260
-685.310	800.000	-0.040	-0.149
-684.295	-200.000	0.010	-0.161
-683.281	306.962	0.212	0.396
-682.266	-33.685	0.233	-0.129
-681.251	1.587	0.042	0.031
-680.237	-200.000	-0.002	-0.193
-679.222	-91.565	0.253	-0.072
-678.208	128.469	0.075	-0.096
-677.193	6.888	0.115	-0.086
-676.178	-57.830	-0.298	-0.131
-675.164	99.899	-0.144	0.168
-674.149	236.202	0.126	-0.209
-673.135	-200.000	-0.023	0.166
-672.120	-15.876	0.194	-0.124
-671.105	-200.000	-0.045	-0.212
-670.091	800.000	0.115	-0.341
-669.076	-127.144	-0.307	0.045
-668.062	-82.041	0.086	-0.028
-667.047	-62.366	0.168	-0.070
-666.032	402.398	0.163	0.343
-665.018	122.923	-0.207	0.259
-664.003	-109.240	0.157	-0.033
-662.989	800.000	-0.045	-0.127
-661.974	-104.630	0.338	-0.078
-660.959	800.000	-0.078	0.250
-659.945	800.000	0.011	-0.031
-658.930	12.341	0.260	-0.201
-657.916	326.085	-0.079	0.152
-656.901	-7.693	-0.181	-0.123
-655.886	-84.833	0.260	0.082
-654.872	-200.000	0.008	-0.298
-653.857	-200.000	0.012	-0.154
-652.843	451.865	0.101	-0.223
-651.828	239.544	-0.045	0.075
-650.814	-31.322	-0.315	-0.178
-649.799	225.142	-0.048	0.078
-648.784	-23.008	-0.136	-0.082
-647.770	800.000	-0.075	-0.301
-646.755	-82.249	-0.150	0.049
-645.741	0.320	-0.219	-0.157
-644.726	-31.925	0.170	-0.095
-643.711	283.706	-0.137	-0.247
-642.697	800.000	0.057	-0.205
-641.682	-100.115	-0.148	-0.037
-640.668	-200.000	-0.021	-0.114
-639.653	-200.000	-0.042	0.279
-638.638	58.130	-0.363	-0.356
-637.624	-200.000	-0.005	-0.277
-636.609	-80.146	-0.244	-0.082
-635.595	3.322	0.276	0.201
-634.580	-11.925	-0.198	0.130
-633.565	-103.458	-0.338	0.080
-632.551	-200.000	0.031	-0.263
-631.536	118.853	0.293	-0.363
-630.522	-44.052	-0.107	0.054
-629.507	-49.168	-0.094	-0.045
-628.492	-200.000	-0.029	0.129
-627.478	16.511	0.215	0.170
-626.463	-200.000	0.001	-0.075
-625.449	-200.000	0.060	0.269
-624.434	38.651	-0.128	-0.114
-623.419	800.000	0.078	-0.233
-622.405	-46.369	0.070	-0.034
-621.390	-200.000	-0.011	-0.210
-620.376	117.946	0.126	0.156
-619.361	-136.937	-0.147	-0.017
-618.346	800.000	-0.120	-0.392
-617.332	578.046	-0.025	0.061
-616.317	-84.952	-0.217	-0.068
-615.303	277.839	-0.012	-0.021
-614.288	70.256	-0.106	-0.109
-613.273	31.407	0.213	-0.183
-612.259	-200.000	0.007	-0.044
-611.244	687.554	0.026	-0.067
-610.230	800.000	-0.047	-0.184
-609.215	-200.000	0.006	-0.129
-608.201	112.103	0.183	-0.222
-607.186	108.669	0.074	0.088
-606.171	20.829	0.207	-0.168
-605.157	90.373	0.136	-0.153
-604.142	75.018	0.147	-0.155
-603.128	-81.547	0.171	0.056
-602.113	238.421	0.087	0.145
-601.098	-200.000	-0.009	0.116
-600.084	800.000	-0.035	-0.118
-599.069	399.229	0.078	-0.163
-598.055	800.000	0.031	-0.131
-597.040	-1.541	0.325	0.229
-596.025	-200.000	0.071	0.417
-595.011	259.899	-0.133	0.231
-593.996	-103.730	0.092	0.022
-592.982	-200.000	0.018	-0.088
-591.967	800.000	0.099	-0.338
-590.952	263.695	-0.020	0.036
-589.938	461.434	0.091	-0.203
-588.923	158.709	-0.069	0.096
-587.909	322.923	0.107	0.204
-586.894	-200.000	0.021	0.202
-585.879	800.000	0.060	0.234
-584.865	-200.000	-0.110	-0.488
-583.850	-32.110	-0.202	-0.113
-582.836	190.155	-0.197	0.295
-581.821	138.883	0.152	-0.199
-580.806	38.809	-0.218	0.195
-579.792	800.000	0.065	0.205
-578.777	-200.000	-0.003	0.201
-577.763	126.237	-0.082	-0.104
-576.748	365.172	0.080	0.160
-575.733	800.000	0.052	-0.177
-574.719	-8.125	0.184	-0.124
-573.704	-60.165	-0.385	-0.164
-572.690	-100.992	0.178	-0.044
-571.675	92.358	0.105	0.118
-570.661	-200.000	-0.032	-0.145
-569.646	-151.539	-0.249	0.018
-568.631	202.880	0.052	0.081
-567.617	-173.732	0.396	0.012
-566.602	-8.638	0.086	-0.058
-565.588	-66.514	0.231	-0.091
-564.573	-154.474	-0.206	0.014
-563.558	-26.632	-0.131	-0.077
-562.544	-13.877	-0.118	0.076
-561.529	58.863	-0.139	0.136
-560.515	-200.000	-0.003	-0.218
-559.500	338.114	0.118	0.230
-558.485	-21.515	0.304	0.185
-557.471	-114.839	-0.057	-0.011
-556.456	-15.709	-0.235	0.150
-555.442	39.085	-0.080	0.072
-554.427	800.000	-0.073	-0.305
-553.412	371.886	0.055	-0.111
-552.398	320.215	-0.014	-0.027
-551.383	800.000	-0.064	-0.277
-550.369	800.000	0.031	0.092
-549.354	-143.779	0.194	0.018
-548.339	274.497	0.132	0.234
-547.325	35.129	-0.303	0.265
-546.310	765.068	-0.045	-0.123
-545.296	-4.986	-0.372	-0.256
-544.281	-23.961	0.147	0.087
-543.266	-144.836	-0.077	0.007
-542.252	-200.000	-0.007	-0.150
-541.237	-200.000	0.073	-0.357
-540.223	165.109	0.210	-0.296
-539.208	-87.124	0.150	-0.045
-538.193	109.669	-0.218	-0.261
-537.179	370.953	-0.037	-0.075
-536.164	235.459	0.024	0.040
-535.150	-48.943	-0.259	0.124
-534.135	-190.246	0.122	-0.001
-533.121	251.791	0.130	-0.222
-532.106	-65.406	-0.147	0.059
-531.091	-60.213	-0.063	0.027
-530.077	-79.399	0.220	0.074
-529.062	800.000	-0.030	-0.118
-528.048	-63.417	0.176	-0.072
-527.033	-200.000	-0.022	0.161
-526.018	-121.934	-0.181	-0.030
-525.004	-95.494	-0.305	-0.082
-523.989	458.661	0.159	0.354
-522.975	352.387	-0.194	-0.384
-521.960	-100.822	-0.187	-0.046
-520.945	800.000	-0.063	0.221
-519.931	-57.029	0.135	0.059
-518.916	800.000	-0.068	0.205
-517.902	-95.174	-0.237	0.064
-516.887	305.617	-0.286	0.531
-515.872	-90.064	-0.134	-0.039
-514.858	54.180	0.162	0.155
-513.843	-52.985	-0.262	-0.120
-512.829	-200.000	-0.019	-0.397
-511.814	-200.000	0.009	-0.049
-510.799	-200.000	-0.008	-0.173
-509.785	5.081	0.210	-0.154
-508.770	112.008	0.234	0.282
-507.756	-144.028	-0.157	-0.015
-506.741	-200.000	-0.035	0.257
-505.726	2.800	0.252	0.183
-504.712	-200.000	0.023	-0.319
-503.697	-200.000	-0.031	-0.281
-502.683	-200.000	-0.032	-0.189
-501.668	800.000	0.140	-0.524
-500.653	800.000	-0.074	-0.254
-499.639	43.081	-0.256	-0.233
-498.624	800.000	-0.040	0.144
-497.610	-83.318	-0.332	0.106
-496.595	-126.289	0.104	-0.016
-495.581	-25.354	0.181	-0.107
-494.566	313.563	0.050	-0.094
-493.551	-200.000	-0.018	-0.186
-492.537	140.834	0.135	0.177
-491.522	43.149	-0.126	-0.114
-490.508	-101.480	0.384	0.093
-489.493	-79.231	0.090	-0.030
-488.478	148.738	0.158	0.213
-487.464	-147.506	-0.175	0.015
-486.449	26.527	0.026	-0.022
-485.435	-77.259	0.124	-0.043
-484.420	14.913	0.099	0.077
-483.405	-80.762	-0.182	-0.060
-482.391	800.000	0.080	-0.243
-481.376	247.891	0.208	-0.350
-480.362	207.416	0.064	0.100
-479.347	47.420	-0.136	0.126
-478.332	-123.221	0.190	-0.030
-477.318	91.960	-0.063	0.070
-476.303	52.617	0.337	0.321
-475.289	42.582	0.178	-0.162
-474.274	41.040	0.036	0.032
-473.259	-97.480	0.054	0.014
-472.245	-41.547	0.221	-0.113
-471.230	-200.000	-0.149	-0.000
-470.216	-200.000	0.043	0.257
-469.201	359.271	-0.090	0.179
-468.186	111.702	-0.125	0.150
-467.172	634.489	0.046	-0.116
-466.157	-86.898	0.337	0.102
-465.143	-200.000	-0.023	0.176
-464.128	800.000	-0.025	0.075
-463.113	-56.847	0.163	0.071
-462.099	210.262	-0.136	-0.213
-461.084	362.066	-0.039	-0.078
-460.070	-71.844	0.078	-0.029
-459.055	737.785	0.076	0.203
-458.040	5.933	0.071	0.052
-457.026	-200.000	0.032	0.311
-456.011	-200.000	-0.035	-0.455
-454.997	-93.926	-0.251	-0.069
-453.982	-200.000	-0.215	0.001
-452.968	-51.063	0.233	-0.109
-451.953	14.099	0.197	-0.153
-450.938	209.273	0.137	-0.213
-449.924	-7.737	-0.483	0.325
-448.909	-200.000	-0.046	0.258
-447.895	-39.541	-0.365	-0.190
-446.880	-192.643	0.324	-0.003
-445.865	-82.051	-0.130	-0.042
-444.851	387.425	-0.090	0.186
-443.836	800.000	-0.055	0.191
-442.822	800.000	-0.080	0.235
-441.807	-70.486	-0.127	0.048
-440.792	-141.951	-0.108	-0.011
-439.778	-85.402	0.621	-0.193
-438.763	-200.000	-0.010	0.164
-437.749	-185.106	-0.386	0.006
-436.734	80.471	0.101	0.108
-435.719	-175.245	0.187	-0.005
-434.705	270.612	-0.084	-0.147
-433.690	-116.702	-0.203	0.037
-432.676	-53.085	0.235	-0.107
-431.661	156.632	0.224	0.308
-430.646	-91.727	-0.516	-0.146
-429.632	-164.456	0.224	0.010
-428.617	44.092	0.040	-0.036
-427.603	-200.000	0.029	0.146
-426.588	-200.000	-0.003	0.246
-425.573	800.000	0.129	0.365
-424.559	165.968	0.088	0.124
-423.544	-200.000	0.006	0.282
-422.530	800.000	0.118	0.405
-421.515	-192.873	-0.139	0.001
-420.500	44.440	0.195	-0.178
-419.486	-26.981	-0.205	-0.119
-418.471	-154.305	0.313	-0.021
-417.457	81.916	0.187	0.201
-416.442	530.272	0.113	-0.266
-415.428	78.469	-0.136	0.144
-414.413	-50.630	-0.132	-0.062
-413.398	-162.061	-0.482	-0.024
-412.384	-30.602	-0.334	0.188
-411.369	-200.000	-0.014	0.120
-410.355	-128.780	-0.266	-0.037
-409.340	-35.298	-0.029	0.015
-408.325	-107.937	0.137	-0.030
-407.311	-200.000	-0.012	0.234
-406.296	800.000	0.107	0.346
-405.282	-23.400	0.138	0.083
-404.267	477.461	0.122	0.275
-403.252	-56.317	-0.096	-0.042
-402.238	-99.854	-0.238	0.059
-401.223	13.974	-0.151	0.117
-400.209	-200.000	-0.004	0.072
-399.194	-200.000	-0.013	0.157
-398.179	706.374	0.073	0.192
-397.165	800.000	-0.116	0.398
-396.150	800.000	-0.034	0.115
-395.136	494.912	-0.032	0.072
-394.121	-50.791	0.136	-0.064
-393.106	-61.242	-0.251	0.105
-392.092	-77.418	-0.088	-0.030
-391.077	35.345	-0.087	-0.075
-390.063	-200.000	0.012	0.430
-389.048	-64.916	0.087	-0.035
-388.033	-41.786	0.270	-0.137
-387.019	-6.372	-0.361	0.245
-386.004	44.442	0.316	-0.288
-384.990	202.078	-0.131	-0.201
-383.975	80.345	0.076	0.082
-382.960	-64.427	-0.234	-0.094
-381.946	-200.000	-0.009	-0.138
-380.931	331.057	0.101	-0.192
-379.917	-200.000	0.012	-0.094
-378.902	-106.976	-0.177	-0.039
-377.888	-200.000	0.003	-0.104
-376.873	-24.561	-0.145	-0.086
-375.858	-40.041	0.256	-0.133
-374.844	139.514	0.163	0.213
-373.829	248.566	-0.129	-0.217
-372.815	-71.698	-0.214	0.079
-371.800	45.260	0.224	0.204
-370.785	402.053	-0.069	-0.144
-369.771	-74.249	-0.283	0.101
-368.756	357.467	0.127	0.251
-367.742	-178.719	0.346	0.008
-366.727	5.496	0.273	-0.200
-365.712	-36.953	-0.266	0.141
-364.698	-64.846	0.281	0.113
-363.683	85.475	0.139	-0.151
-362.669	-190.056	-0.222	-0.002
-361.654	-50.243	-0.190	-0.089
-360.639	-60.026	0.348	0.147
-359.625	51.191	0.271	0.255
-358.610	-148.350	0.321	-0.026
-357.596	420.955	-0.064	-0.137
-356.581	-200.000	0.027	0.305
-355.566	-104.238	-0.156	-0.036
-354.552	-93.783	-0.114	-0.031
-353.537	800.000	-0.050	-0.139
-352.523	3.325	-0.181	-0.130
-351.508	-61.595	-0.222	0.092
-350.493	800.000	0.010	-0.032
-349.479	-154.805	-0.323	0.021
-348.464	-200.000	0.021	-0.159
-347.450	149.152	-0.097	0.130
-346.435	520.975	0.133	-0.310
-345.420	-66.531	-0.098	-0.039
-344.406	-140.828	-0.309	0.032
-343.391	111.500	-0.098	-0.117
-342.377	6.411	-0.250	-0.184
-341.362	-6.070	0.073	-0.049
-340.348	-122.852	0.102	0.016
-339.333	-200.000	-0.032	0.183
-338.318	277.319	0.079	0.139
-337.304	125.238	-0.251	0.313
-336.289	118.900	0.226	-0.277
-335.275	312.982	0.088	0.164
-334.260	31.127	-0.138	-0.117
-333.245	129.285	-0.162	-0.205
-332.231	-68.998	-0.255	-0.097
-331.216	392.346	-0.097	-0.200
-330.202	-87.759	-0.297	0.089
-329.187	459.528	0.027	-0.059
-328.172	-83.415	0.292	-0.093
-327.158	-200.000	-0.017	-0.178
-326.143	-79.593	0.386	0.129
-325.129	83.119	-0.073	0.079
-324.114	-200.000	-0.041	0.188
-323.099	-135.929	-0.144	0.017
-322.085	-0.747	0.125	0.088
-321.070	9.017	-0.074	-0.056
-320.056	-200.000	0.030	0.182
-319.041	-48.277	-0.241	-0.115
-318.026	-65.115	0.259	0.103
-317.012	646.384	-0.038	-0.096
-315.997	-200.000	0.027	-0.198
-314.983	69.590	-0.310	-0.316
-313.968	-143.112	-0.283	0.027
-312.953	5.221	-0.321	-0.234
-311.939	263.135	-0.082	-0.140
-310.924	-69.964	0.304	-0.114
-309.910	-200.000	-0.029	-0.290
-308.895	-113.318	-0.174	0.034
-307.880	-13.751	0.187	0.119
-306.866	-200.000	-0.008	-0.075
-305.851	75.869	-0.049	0.051
-304.837	-164.656	0.159	-0.007
-303.822	-80.408	-0.102	-0.034
-302.807	-139.533	-0.125	0.013
-301.793	-88.954	0.154	0.045
-300.778	386.753	-0.146	0.298
-299.764	593.238	0.141	-0.344
-298.749	800.000	-0.026	0.084
-297.735	-200.000	0.018	0.213
-296.720	800.000	-0.089	0.375
-295.705	34.606	-0.245	-0.211
-294.691	105.098	0.231	-0.269
-293.676	132.904	-0.255	-0.325
-292.662	-150.863	-0.115	-0.009
-291.647	-81.868	0.096	-0.031
-290.632	528.697	-0.122	-0.285
-289.618	613.369	0.097	-0.240
-288.603	-200.000	-0.053	0.425
-287.589	-112.396	0.176	-0.035
-286.574	-39.711	0.212	-0.109
-285.559	-66.808	0.115	0.045
-284.545	-37.322	0.270	0.142
-283.530	-200.000	-0.033	0.212
-282.516	-96.802	-0.180	0.047
-281.501	28.052	-0.194	-0.162
-280.486	-200.000	-0.016	-0.081
-279.472	218.181	-0.058	-0.092
-278.457	-58.107	0.192	0.083
-277.443	14.823	-0.280	0.217
-276.428	800.000	-0.028	0.078
-275.413	-200.000	-0.005	-0.051
-274.399	-200.000	0.002	0.317
-273.384	338.729	0.101	-0.193
-272.370	319.558	-0.127	0.238
-271.355	800.000	-0.048	0.152
-270.340	-163.918	0.151	-0.007
-269.326	111.260	0.218	0.260
-268.311	-72.699	-0.084	-0.031
-267.297	144.789	-0.022	0.029
-266.282	-101.467	-0.115	-0.028
-265.267	-17.718	0.212	-0.131
-264.253	94.873	-0.059	-0.066
-263.238	-127.858	-0.229	-0.033
-262.224	-200.000	0.036	0.208
-261.209	-56.366	0.170	0.075
-260.195	417.646	-0.049	-0.103
-259.180	800.000	-0.040	0.127
-258.165	-200.000	-0.010	0.209
-257.151	-115.397	0.244	-0.045
-256.136	-200.000	-0.010	-0.169
-255.122	109.289	0.288	-0.340
-254.107	-200.000	-0.027	-0.142
-253.092	-200.000	-0.006	-0.233
-252.078	-105.978	0.307	-0.068
-251.063	297.810	0.121	-0.220
-250.049	57.318	0.186	-0.179
-249.034	111.803	0.039	0.046
-248.019	137.743	0.127	0.164
-247.005	-25.102	0.359	-0.210
-245.990	372.330	0.139	-0.279
-244.976	-22.760	0.259	-0.154
-243.961	800.000	0.029	0.088
-242.946	-44.612	-0.426	0.210
-241.932	-92.386	0.151	0.042
-240.917	19.156	0.147	0.116
-239.903	708.527	0.084	0.220
-238.888	-11.586	0.507	0.329
-237.873	-50.996	0.154	-0.071
-236.859	-81.242	0.173	-0.056
-235.844	-88.510	-0.263	-0.077
-234.830	-90.981	-0.162	-0.046
-233.815	74.689	0.091	-0.094
-232.800	-6.532	0.130	0.088
-231.786	56.488	-0.272	0.260
-230.771	302.188	-0.088	-0.161
-229.757	-118.131	0.107	-0.019
-228.742	-31.033	-0.138	-0.077
-227.727	-12.311	0.128	0.083
-226.713	-68.931	0.100	0.038
-225.698	-122.241	-0.296	0.048
-224.684	-97.290	-0.168	-0.043
-223.669	-31.128	0.101	-0.056
-222.655	220.422	0.100	0.158
-221.640	-57.912	0.376	0.162
-220.625	-117.394	-0.125	-0.022
-219.611	118.141	-0.117	0.142
-218.596	58.821	-0.251	0.243
-217.582	-83.119	0.352	0.112
-216.567	318.653	0.069	0.129
-215.552	215.557	-0.154	0.241
-214.538	-200.000	-0.052	-0.234
-213.523	35.361	0.128	-0.111
-212.509	209.317	-0.224	-0.346
-211.494	38.823	0.341	-0.300
-210.479	80.553	0.122	0.130
-209.465	9.785	-0.298	0.222
-208.450	-31.795	0.150	-0.083
-207.436	-200.000	-0.029	-0.216
-206.421	-31.964	-0.120	0.066
-205.406	800.000	0.054	0.167
-204.392	23.320	-0.314	-0.254
-203.377	-200.000	0.027	-0.221
-202.363	44.176	0.128	0.116
-201.348	-164.255	0.154	0.007
-200.333	-20.914	-0.409	0.247
-199.319	-54.562	-0.234	-0.104
-198.304	-200.000	0.082	0.370
-197.290	-114.022	-0.172	0.033
-196.275	49.064	0.093	-0.086
-195.260	-144.605	-0.323	-0.029
-194.246	391.639	-0.072	-0.147
-193.231	-77.476	-0.286	-0.098
-192.217	105.614	-0.079	0.092
-191.202	-152.981	-0.299	0.021
-190.187	149.371	-0.146	0.194
-189.173	205.394	0.224	0.343
-188.158	-157.830	0.235	0.014
-187.144	-80.827	0.265	-0.086
-186.129	-123.017	0.251	-0.040
-185.114	97.611	-0.199	0.225
-184.100	-200.000	-0.039	0.191
-183.085	-78.594	0.182	0.061
-182.071	-21.173	0.221	-0.133
-181.056	26.954	-0.182	-0.150
-180.042	188.627	0.181	0.266
-179.027	305.304	-0.097	0.177
-178.012	-200.000	0.022	0.168
-176.998	112.489	0.154	-0.183
-175.983	-200.000	0.006	0.128
-174.969	-69.556	-0.105	-0.039
-173.954	-200.000	-0.046	0.318
-172.939	-200.000	0.009	-0.093
-171.925	-137.222	0.067	-0.008
-170.910	37.031	0.186	-0.162
-169.896	-6.582	-0.319	0.213
-168.881	-200.000	0.056	-0.335
-167.866	-200.000	-0.008	-0.439
-166.852	-89.871	0.352	0.101
-165.837	-200.000	-0.030	-0.139
-164.823	6.468	0.054	0.039
-163.808	341.069	0.154	0.297
-162.793	-54.567	0.243	-0.108
-161.779	-22.795	0.389	0.231
-160.764	86.152	-0.258	-0.279
-159.750	-200.000	0.044	0.309
-158.735	164.039	0.112	0.155
-157.720	-81.232	-0.072	-0.023
-156.706	75.407	0.240	0.249
-155.691	-200.000	-0.006	-0.029
-154.677	-200.000	-0.007	0.251
-153.662	-107.507	0.055	0.012
-152.647	-114.763	-0.122	0.023
-151.633	-92.096	0.047	-0.013
-150.618	-77.375	-0.169	-0.058
-149.604	-84.117	-0.366	0.114
-148.589	-20.957	0.131	-0.079
-147.574	-69.256	-0.326	0.123
-146.560	-11.805	0.274	0.176
-145.545	-3.233	-0.259	-0.177
-144.531	-172.860	-0.286	-0.009
-143.516	-200.000	-0.046	-0.329
-142.502	350.507	0.131	-0.254
-141.487	-67.128	-0.090	-0.035
-140.472	-142.148	0.271	-0.026
-139.458	-200.000	0.037	0.204
-138.443	-200.000	0.039	-0.429
-137.429	430.048	0.031	0.065
-136.414	-122.606	-0.295	-0.047
-135.399	-151.007	0.041	0.003
-134.385	155.761	0.115	-0.156
-133.370	800.000	-0.116	-0.458
-132.356	-200.000	-0.006	0.257
-131.341	-26.294	0.119	-0.069
-130.326	139.428	0.082	-0.105
-129.312	-160.742	0.406	-0.021
-128.297	-200.000	-0.010	0.207
-127.283	710.718	0.053	0.137
-126.268	114.371	-0.138	0.165
-125.253	251.228	0.218	-0.364
-124.239	-0.703	0.080	0.056
-123.224	800.000	-0.071	0.193
-122.210	-147.491	0.413	0.034
-121.195	563.080	0.059	0.141
-120.180	242.496	-0.074	-0.122
-119.166	800.000	0.010	-0.042
-118.151	-111.301	-0.107	0.021
-117.137	-5.283	-0.099	-0.067
-116.122	148.620	0.278	0.369
-115.107	-93.543	0.081	0.022
-114.093	495.240	-0.016	-0.035
-113.078	-66.547	-0.117	-0.046
-112.064	-110.202	-0.135	-0.028
-111.049	-162.361	-0.171	0.008
-110.034	98.013	0.126	0.142
-109.020	-52.679	0.183	0.083
-108.005	96.995	0.111	0.125
-106.991	800.000	-0.068	-0.248
-105.976	-131.691	-0.231	0.030
-104.962	-179.354	-0.140	0.003
-103.947	800.000	0.092	-0.275
-102.932	-185.414	0.290	0.004
-101.918	59.060	0.120	-0.116
-100.903	8.176	0.198	-0.146
-99.889	-200.000	-0.033	0.237
-98.874	34.214	0.002	-0.002
-97.859	37.684	0.146	-0.127
-96.845	134.140	-0.169	0.215
-95.830	-80.206	0.238	-0.078
-94.816	-74.872	-0.145	-0.051
-93.801	30.507	-0.231	-0.194
-92.786	-135.684	0.234	-0.027
-91.772	109.254	-0.026	0.031
-90.757	-200.000	0.004	-0.177
-89.743	-36.991	-0.122	0.064
-88.728	-83.333	-0.040	0.013
-87.713	23.057	0.115	0.092
-86.699	79.765	-0.112	0.118
-85.684	-62.504	0.179	0.073
-84.670	-35.020	-0.171	-0.091
-83.655	-6.958	-0.301	-0.200
-82.640	-30.327	-0.362	0.202
-81.626	-200.000	-0.023	-0.120
-80.611	-200.000	-0.036	0.198
-79.597	-200.000	-0.011	-0.053
-78.582	689.298	-0.147	-0.377
-77.567	-101.637	-0.170	0.040
-76.553	266.072	-0.037	-0.063
-75.538	-200.000	-0.019	0.169
-74.524	800.000	0.029	-0.120
-73.509	-38.133	-0.231	0.120
-72.494	-200.000	-0.050	-0.254
-71.480	508.662	-0.121	0.276
-70.465	-44.355	0.039	0.019
-69.451	-92.513	0.297	0.082
-68.436	-132.873	-0.333	0.042
-67.422	-14.728	0.171	0.108
-66.407	-81.239	0.348	0.113
-65.392	71.847	-0.063	0.064
-64.378	88.081	0.198	0.215
-63.363	-142.650	-0.283	0.027
-62.349	137.264	0.142	-0.182
-61.334	39.809	-1.069	-0.940
-60.319	-45.336	0.612	0.297
-59.305	-200.000	-0.190	-0.853
-58.290	383.272	0.611	1.231
-57.276	496.592	0.788	1.776
-56.261	-200.000	106.865	624.715
-55.246	523.501	1513.448	3483.723
-54.232	176.343	2704.136	3847.338
-53.217	111.003	2183.328	2574.462
-52.203	39.866	1705.831	1499.662
-51.188	32.302	1518.296	1283.357
-50.173	29.990	1491.853	1245.429
-49.159	50.934	1548.827	1437.219
-48.144	51.176	1564.589	1453.445
-47.130	32.524	1519.976	1286.090
-46.115	29.489	1505.446	1253.178
-45.100	29.317	1502.669	1249.652
-44.086	29.244	1500.115	1246.984
-43.071	29.222	1497.705	1244.784
-42.057	29.204	1496.267	1243.417
-41.042	29.203	1494.923	1242.243
-40.027	29.164	1493.642	1240.864
-39.013	29.169	1491.683	1239.228
-37.998	29.085	1490.851	1237.918
-36.984	29.203	1489.220	1237.310
-35.969	29.033	1488.329	1235.376
-34.954	29.100	1486.784	1234.493
-33.940	29.213	1484.957	1233.688
-32.925	29.211	1483.731	1232.608
-31.911	29.234	1482.444	1231.642
-30.896	29.194	1481.678	1230.691
-29.881	29.229	1480.020	1229.497
-28.867	29.261	1478.718	1228.580
-27.852	29.244	1477.135	1227.104
-26.838	29.274	1476.290	1226.551
-25.823	29.229	1474.436	1224.666
-24.809	29.213	1472.856	1223.193
-23.794	29.214	1471.323	1221.879
-22.779	29.189	1470.496	1220.979
-21.765	29.262	1469.402	1220.505
-20.750	29.244	1468.233	1219.365
-19.736	29.176	1467.262	1218.060
-18.721	29.264	1465.691	1217.296
-17.706	29.129	1465.304	1216.030
-16.692	29.100	1464.140	1214.822
-15.677	29.179	1462.968	1214.327
-14.663	29.159	1462.130	1213.451
-13.648	29.161	1460.863	1212.363
-12.633	29.088	1460.141	1211.237
-11.619	29.117	1459.223	1210.617
-10.604	29.069	1458.224	1209.423
-9.590	28.971	1457.895	1208.457
-8.575	29.051	1456.721	1207.965
-7.560	29.144	1455.523	1207.534
-6.546	29.075	1455.146	1206.721
-5.531	29.057	1454.300	1205.855
-4.517	29.100	1453.302	1205.261
-3.502	29.169	1451.880	1204.483
-2.487	29.160	1450.991	1203.637
-1.473	29.136	1450.019	1202.627
-0.458	29.127	1449.000	1201.677
0.556	26.823	1439.486	1190.867
1.571	23.965	1414.193	1151.369
2.586	20.837	1354.566	1083.303
3.600	19.436	1273.103	1009.872
4.615	18.185	1229.214	967.893
5.629	15.777	1173.500	910.923
6.644	7.611	1089.483	804.426
7.659	0.866	1049.908	742.136
8.673	-0.184	1044.470	733.102
9.688	-0.316	1041.336	730.196
10.702	-0.362	1039.065	728.313
11.717	-0.347	1037.293	727.080
12.731	2.389	1040.461	742.528
13.746	11.223	1052.931	794.593
14.761	18.200	1062.243	835.753
15.775	20.101	1063.557	846.003
16.790	20.364	1063.569	847.221
17.804	20.132	1062.891	845.477
18.819	19.924	1062.019	843.692
19.834	20.102	1061.102	843.759
20.848	20.163	1061.128	844.001
21.863	20.147	1060.660	843.476
22.877	20.210	1059.848	843.060
23.892	20.129	1059.358	842.203
24.907	20.007	1058.310	840.702
25.921	20.129	1057.867	840.869
26.936	20.148	1057.221	840.371
27.950	20.066	1055.992	838.922
28.965	20.093	1054.563	837.846
29.980	19.973	1052.916	835.882
30.994	19.883	1051.652	834.371
32.009	20.135	1050.835	834.865
33.023	20.283	1050.221	835.012
34.038	20.089	1048.783	832.867
35.053	20.044	1047.809	831.803
36.067	20.320	1047.076	832.470
37.082	20.214	1046.541	831.462
38.096	20.145	1046.179	830.772
39.111	20.327	1045.031	830.655
40.126	20.552	1044.057	830.883
41.140	20.466	1042.544	829.197
42.155	20.203	1041.292	826.873
43.169	19.885	1040.321	824.513
44.184	19.845	1039.525	823.620
45.199	19.972	1037.954	822.906
46.213	19.918	1036.953	821.786
47.228	19.860	1035.886	820.592
48.242	20.028	1035.208	820.775
49.257	20.085	1034.148	820.133
50.271	19.999	1033.433	819.086
51.286	20.351	1032.503	819.941
52.301	20.310	1031.575	818.936
53.315	20.183	1031.281	818.032
54.330	20.348	1029.804	817.567
55.344	20.024	1029.390	815.637
56.359	20.189	1028.470	815.614
57.374	20.216	1027.703	815.063
58.388	20.053	1026.519	813.285
59.403	20.000	1025.728	812.339
60.417	19.948	1025.171	811.582
61.432	19.875	1024.140	810.351
62.447	19.890	1023.616	809.935
63.461	19.980	1022.718	809.571
64.476	20.042	1021.882	809.131
65.490	19.976	1020.864	807.946
66.505	19.907	1020.150	806.987
67.520	19.989	1018.995	806.384
68.534	20.138	1018.177	806.358
69.549	20.034	1017.387	805.176
70.563	19.717	1015.810	802.388
71.578	19.496	1015.786	801.271
72.593	19.587	1015.037	801.030
73.607	19.569	1013.630	799.764
74.622	19.684	1012.432	799.283
75.636	19.797	1012.096	799.468
76.651	20.054	1010.863	799.611
77.666	19.772	1010.369	797.849
78.680	19.745	1009.304	796.811
79.695	19.626	1009.365	796.241
80.709	19.914	1008.069	796.474
81.724	19.988	1007.623	796.391
82.739	19.962	1006.217	795.090
83.753	19.808	1005.903	794.062
84.768	20.087	1005.266	794.770
85.782	20.337	1004.489	795.232
86.797	20.434	1003.600	794.900
87.812	20.418	1002.705	794.047
88.826	20.397	1001.435	792.880
89.841	20.422	1000.685	792.326
90.855	20.459	1000.068	791.936
91.870	20.486	999.370	791.436
92.884	20.475	998.178	790.374
93.899	20.373	997.419	789.239
94.914	20.257	996.518	787.930
95.928	20.408	995.782	787.964
96.943	20.345	995.160	787.117
97.957	20.044	993.995	784.759
98.972	20.022	992.213	783.184
99.987	19.656	991.658	781.026
101.001	19.898	990.689	781.283
102.016	20.155	990.678	782.366
103.030	20.216	989.495	781.638
104.045	19.996	988.485	779.782
105.060	19.853	987.491	778.286
106.074	19.801	986.100	776.888
107.089	19.851	985.274	776.389
108.103	20.286	985.004	778.059
109.118	20.367	983.713	777.336
110.133	20.038	982.781	775.059
111.147	20.108	981.587	774.358
112.162	19.906	980.303	772.377
113.176	19.598	979.565	770.355
114.191	19.856	978.442	770.550
115.206	19.969	977.214	770.018
116.220	19.555	976.179	767.294
117.235	19.600	974.608	766.195
118.249	19.726	974.228	766.384
119.264	19.800	973.198	765.836
120.279	19.744	972.391	764.884
121.293	19.648	972.118	764.178
122.308	19.666	971.652	763.821
123.322	19.778	970.541	763.377
124.337	19.765	969.081	762.102
125.352	19.536	967.870	760.076
126.366	19.279	966.132	757.514
127.381	19.100	964.570	755.437
128.395	19.604	964.356	757.414
129.410	20.103	964.070	759.309
130.424	20.243	963.206	759.172
131.439	20.136	962.094	757.762
132.454	20.021	960.910	756.258
133.468	20.168	959.769	755.935
134.483	20.010	959.704	755.129
135.497	20.071	958.913	754.704
136.512	20.421	957.955	755.406
137.527	20.460	957.196	754.913
138.541	20.428	956.297	753.995
139.556	20.441	955.590	753.428
140.570	20.293	954.681	752.005
141.585	20.363	953.924	751.644
142.600	20.419	953.362	751.377
143.614	20.263	951.878	749.468
144.629	20.500	951.083	749.797
145.643	20.564	950.876	749.844
146.658	20.581	949.317	748.624
147.673	20.296	948.679	746.826
148.687	20.218	947.728	745.677
149.702	20.315	946.367	744.955
150.716	20.223	945.276	743.635
151.731	20.171	944.819	742.987
152.746	20.286	943.794	742.608
153.760	20.375	943.100	742.379
154.775	20.538	942.461	742.507
155.789	20.665	941.276	742.049
156.804	20.498	940.923	740.992
157.819	20.529	939.405	739.862
158.833	20.462	939.240	739.383
159.848	20.645	937.921	739.055
160.862	20.664	937.283	738.571
161.877	20.581	935.945	737.097
162.892	20.480	935.364	736.149
163.906	20.675	934.431	736.174
164.921	20.543	933.693	734.968
165.935	20.557	932.620	734.119
166.950	20.717	931.429	733.789
167.964	20.532	930.645	732.326
168.979	20.557	929.312	731.320
169.994	20.443	928.325	730.001
171.008	20.225	927.845	728.642
172.023	20.482	926.744	728.790
173.037	20.586	925.703	728.343
174.052	20.404	924.611	726.656
175.067	20.245	923.783	725.279
176.081	20.174	923.300	724.536
177.096	20.325	922.466	724.448
178.110	20.483	921.164	724.022
179.125	20.262	920.240	722.311
180.140	19.920	918.960	719.820
181.154	20.023	918.556	719.869
182.169	20.199	917.585	719.775
183.183	20.265	917.411	719.849
184.198	20.430	917.455	720.504
185.213	20.443	916.485	719.734
186.227	20.427	915.687	718.977
187.242	20.336	915.454	718.351
188.256	20.515	914.722	718.455
189.271	20.376	913.605	716.938
190.286	20.654	912.856	717.437
191.300	20.582	911.857	716.291
192.315	20.041	910.642	713.046
193.329	19.400	909.192	709.212
194.344	19.068	908.098	706.933
195.359	19.561	908.669	709.341
196.373	20.404	908.550	712.646
197.388	20.562	908.708	713.357
198.402	20.374	907.646	711.689
199.417	20.214	907.312	710.706
200.432	20.374	906.757	710.863
201.446	20.148	906.002	709.286
202.461	19.839	905.153	707.294
203.475	20.128	904.293	707.739
204.490	19.588	902.987	704.453
205.504	18.589	900.821	698.634
206.519	18.994	901.381	700.656
207.534	19.845	901.882	704.453
208.548	19.869	901.274	704.013
209.563	20.305	900.560	705.165
210.577	20.553	899.270	705.100
211.592	20.138	899.077	703.201
212.607	20.674	898.698	705.013
213.621	20.618	898.484	704.557
214.636	20.592	897.279	703.446
215.650	20.616	897.000	703.261
216.665	20.460	896.278	702.004
217.680	20.457	895.833	701.580
218.694	20.504	895.316	701.304
219.709	20.449	893.865	699.884
220.723	20.000	893.140	697.444
221.738	20.181	892.931	697.948
222.753	20.569	891.788	698.554
223.767	20.322	891.309	697.122
224.782	20.311	890.691	696.537
225.796	20.607	889.904	697.044
226.811	20.722	889.490	697.118
227.826	20.406	888.007	694.633
228.840	19.688	886.475	690.506
229.855	19.586	886.031	689.688
230.869	19.698	886.155	690.174
231.884	19.477	884.517	687.953
232.899	19.517	884.256	687.850
233.913	20.281	884.524	691.041
234.928	20.574	883.646	691.458
235.942	20.253	883.566	690.060
236.957	20.455	882.749	690.161
237.972	20.044	881.791	687.722
238.986	20.028	880.917	686.914
240.001	20.072	880.386	686.616
241.015	20.130	879.894	686.399
242.030	20.298	879.065	686.355
243.045	20.348	879.009	686.451
244.059	20.425	878.103	685.986
245.074	20.621	877.725	686.403
246.088	20.598	877.020	685.702
247.103	20.161	875.777	682.948
248.117	19.981	875.611	682.051
249.132	20.622	875.523	684.441
250.147	21.068	874.720	685.510
251.161	21.076	873.931	684.859
252.176	21.256	873.814	685.413
253.190	21.189	873.071	684.508
254.205	21.262	872.376	684.188
255.220	21.459	871.802	684.450
256.234	21.203	871.733	683.335
257.249	21.313	870.760	682.941
258.263	21.182	869.817	681.626
259.278	21.226	869.102	681.178
260.293	21.313	868.746	681.181
261.307	21.329	868.620	681.083
262.322	21.206	867.512	679.674
263.336	21.185	866.854	679.016
264.351	20.558	865.673	675.595
265.366	19.519	863.860	670.092
266.380	19.062	862.858	667.481
267.395	20.028	863.119	671.370
268.409	20.861	863.561	674.883
269.424	20.834	862.395	673.810
270.439	20.834	862.384	673.738
271.453	21.075	861.617	674.012
272.468	21.068	860.670	673.185
273.482	21.282	860.399	673.740
274.497	21.409	859.879	673.760
275.512	21.139	858.784	671.806
276.526	20.623	857.723	668.930
277.541	20.863	857.562	669.669
278.555	21.193	857.170	670.571
279.570	21.031	856.118	669.067
280.585	20.748	854.936	667.000
281.599	20.747	854.945	666.946
282.614	20.919	854.683	667.340
283.628	20.433	853.611	664.586
284.643	20.179	852.542	662.724
285.657	20.620	852.383	664.225
286.672	20.552	851.381	663.128
287.687	19.906	850.486	659.910
288.701	20.498	850.444	662.076
289.716	20.926	849.939	663.251
290.730	20.389	849.266	660.625
291.745	20.473	847.888	659.813
292.760	20.089	847.481	657.979
293.774	20.034	846.827	657.206
294.789	21.003	847.502	661.348
295.803	21.533	847.340	663.175
296.818	21.492	847.035	662.720
297.833	21.712	846.062	662.732
298.847	21.413	845.142	660.822
299.862	21.147	844.134	658.971
300.876	21.358	843.999	659.606
301.891	21.665	843.569	660.369
302.906	21.739	842.572	659.808
303.920	21.216	841.607	657.028
304.935	20.992	841.026	655.674
305.949	21.356	840.883	656.871
306.964	21.474	840.320	656.815
307.979	21.449	839.748	656.219
308.993	21.317	839.137	655.187
310.008	21.637	838.660	655.958
311.022	21.579	838.489	655.548
312.037	21.607	837.476	654.800
313.052	21.321	837.046	653.337
314.066	21.295	836.433	652.706
315.081	20.582	834.908	648.798
316.095	19.953	833.764	645.509
317.110	20.580	833.680	647.722
318.125	21.442	833.886	651.034
319.139	20.963	832.882	648.413
320.154	19.826	831.410	642.985
321.168	19.314	830.511	640.331
322.183	20.062	830.697	643.197
323.197	20.895	831.098	646.543
324.212	21.269	830.427	647.350
325.227	21.207	830.159	646.851
326.241	21.588	829.587	647.760
327.256	21.288	829.062	646.182
328.270	21.280	828.664	645.785
329.285	21.246	827.646	644.809
330.300	20.943	827.201	643.289
331.314	20.836	826.178	642.041
332.329	21.004	825.596	642.150
333.343	21.214	825.561	642.841
334.358	21.425	825.432	643.459
335.373	21.301	824.698	642.373
336.387	21.405	823.928	642.100
337.402	21.774	823.437	643.013
338.416	21.941	822.877	643.133
339.431	21.835	822.434	642.342
340.446	21.798	821.936	641.760
341.460	21.897	821.750	641.921
342.475	21.949	820.781	641.294
343.489	21.728	820.103	639.904
344.504	21.715	819.661	639.454
345.519	22.022	819.075	640.061
346.533	22.167	818.929	640.416
347.548	22.293	818.444	640.439
348.562	22.201	818.571	640.146
349.577	22.246	817.442	639.372
350.592	22.313	816.820	639.072
351.606	22.257	816.465	638.533
352.621	22.218	815.899	637.895
353.635	22.237	815.122	637.299
354.650	22.087	814.947	636.560
355.665	21.761	813.705	634.356
356.679	20.883	811.930	629.744
357.694	20.637	811.644	628.577
358.708	21.193	811.605	630.500
359.723	21.223	811.163	630.210
360.738	21.526	810.456	630.695
361.752	21.741	811.138	631.946
362.767	21.889	810.862	632.208
363.781	22.165	810.229	632.651
364.796	22.284	810.363	633.132
365.810	22.384	810.031	633.175
366.825	22.481	809.626	633.150
367.840	22.547	809.014	632.853
368.854	22.323	807.982	631.186
369.869	21.918	807.440	629.254
370.883	21.958	806.401	628.531
371.898	22.046	806.087	628.548
372.913	21.917	805.493	627.566
373.927	22.000	804.764	627.241
374.942	22.065	804.378	627.116
375.956	22.081	803.878	626.728
376.971	22.267	803.300	626.886
377.986	22.403	802.650	626.807
379.000	22.414	802.419	626.611
380.015	22.625	801.863	626.869
381.029	22.406	801.444	625.708
382.044	22.408	800.443	624.878
383.059	22.594	800.129	625.239
384.073	22.511	799.659	624.522
385.088	22.564	798.917	624.074
386.102	22.566	798.656	623.824
387.117	22.495	797.600	622.690
388.132	22.293	797.543	621.878
389.146	22.050	796.810	620.393
390.161	21.575	796.015	618.042
391.175	21.503	795.808	617.572
392.190	22.088	795.742	619.532
393.205	22.197	794.968	619.257
394.219	21.227	793.311	614.499
395.234	19.658	791.189	607.292
396.248	19.038	790.309	604.387
397.263	20.254	790.993	609.130
398.278	21.881	792.405	615.878
399.292	22.161	792.169	616.625
400.307	21.969	791.461	615.346
401.321	22.031	790.818	615.007
402.336	21.965	790.933	614.811
403.350	22.339	790.547	615.765
404.365	22.701	790.326	616.805
405.380	22.906	790.458	617.570
406.394	23.136	789.985	617.950
407.409	23.218	789.581	617.866
408.423	23.145	789.063	617.150
409.438	23.077	788.848	616.692
410.453	23.156	788.138	616.356
411.467	23.070	787.792	615.733
412.482	23.253	787.053	615.734
413.496	23.199	786.347	614.940
414.511	23.221	786.294	614.924
415.526	23.179	786.127	614.593
416.540	23.277	785.466	614.360
417.555	23.096	784.783	613.145
418.569	22.872	783.944	611.658
419.584	22.895	783.370	611.236
420.599	22.918	783.157	611.096
421.613	158.406	1363.806	1800.934
422.628	136.989	1448.386	1801.003
