DTS Sentinel unit serial number:	SN413079Multiplexer serial number:	ORYXHardware model number:	OX4-SRSoftware version number:	ORYX F/W v4.00 Oryx Data Collector v3.7.2.0data status	okinstallation	princeton_trtdifferential loss correction	single-endedforward channel	channel 3reverse channel	N/Adate	2019/09/11time	10:58:11forward acquisition time	60.00reverse acquisition time	0.00gamma	496.2192k internal	0.2296k external	0.2296temperature offset calibration	0.9940default loss term (dB/km)	0.3790temperature slope calibration	1.0000multiplexer offset coefficient	1.0000multiplexer slope coefficient	1.0000fibre end	0.00T internal ref (°C)	37.16T ext. ref 1 (°C)	0.17T ext. ref 2 (°C)	34.60length (m)	temperature (°C)	Stokes	anti-Stokes-747.200	456.136	-0.206	0.467
-746.185	25.231	-0.159	0.135
-745.171	-100.590	0.541	-0.137
-744.156	-98.372	-0.149	0.039
-743.142	-200.000	-0.022	-0.138
-742.127	-107.648	-0.466	-0.104
-741.112	118.019	0.048	-0.061
-740.098	321.211	0.098	0.190
-739.083	-159.904	-0.200	0.011
-738.069	129.696	0.081	0.106
-737.054	-173.073	-0.475	0.015
-736.039	51.956	0.164	-0.159
-735.025	-54.908	-0.259	0.119
-734.010	-116.480	-0.538	-0.101
-732.996	-83.905	0.219	0.071
-731.981	88.406	-0.162	-0.184
-730.966	-200.000	-0.028	-0.141
-729.952	-148.221	-0.392	-0.033
-728.937	-200.000	-0.010	0.130
-727.923	104.100	0.076	0.091
-726.908	125.555	0.078	-0.101
-725.894	189.280	-0.071	0.108
-724.879	34.999	0.174	0.156
-723.864	178.699	0.276	0.411
-722.850	-200.000	0.011	-0.075
-721.835	110.352	-0.211	0.259
-720.821	-200.000	-0.010	-0.228
-719.806	-147.806	-0.171	-0.015
-718.791	-131.296	-0.076	0.010
-717.777	288.364	0.053	-0.098
-716.762	-200.000	0.008	-0.116
-715.748	-200.000	0.036	0.288
-714.733	38.892	-0.123	0.112
-713.718	-200.000	-0.041	-0.414
-712.704	30.015	-0.304	-0.265
-711.689	-28.081	0.135	0.080
-710.675	-188.070	0.141	0.002
-709.660	-125.718	-0.133	0.021
-708.645	71.876	-0.076	0.080
-707.631	110.984	-0.046	-0.056
-706.616	-200.000	-0.005	-0.093
-705.602	-200.000	0.015	-0.249
-704.587	262.443	0.108	0.191
-703.572	796.483	0.046	0.128
-702.558	-200.000	-0.002	0.158
-701.543	85.545	0.314	0.352
-700.529	16.597	0.186	0.150
-699.514	-200.000	0.010	-0.111
-698.499	120.759	0.178	0.225
-697.485	-200.000	-0.031	-0.243
-696.470	88.799	-0.139	0.158
-695.456	168.338	0.201	-0.292
-694.441	800.000	-0.028	0.086
-693.426	-65.347	0.265	-0.109
-692.412	800.000	0.008	-0.027
-691.397	-109.595	0.100	0.022
-690.383	-200.000	0.047	0.402
-689.368	23.828	-0.118	-0.099
-688.354	94.686	0.087	0.101
-687.339	800.000	-0.036	0.157
-686.324	164.095	-0.117	-0.168
-685.310	-157.368	0.051	-0.003
-684.295	-200.000	-0.033	-0.372
-683.281	-68.618	0.099	-0.039
-682.266	-81.521	0.206	-0.069
-681.251	-52.112	0.237	-0.112
-680.237	-24.649	0.128	0.078
-679.222	-25.113	0.127	-0.077
-678.208	266.417	0.134	0.238
-677.193	-36.263	-0.128	0.071
-676.178	523.239	0.115	-0.276
-675.164	90.491	-0.103	0.118
-674.149	144.525	0.139	0.189
-673.135	-162.100	0.144	0.007
-672.120	-92.456	-0.356	-0.102
-671.105	800.000	-0.051	-0.169
-670.091	-99.590	-0.387	0.099
-669.076	34.687	0.461	-0.411
-668.062	78.194	0.042	0.046
-667.047	800.000	-0.049	-0.164
-666.032	192.223	-0.117	0.180
-665.018	-110.707	0.082	0.017
-664.003	30.307	0.201	0.175
-662.989	-200.000	0.032	0.342
-661.974	-123.929	-0.280	-0.045
-660.959	-200.000	-0.008	0.121
-659.945	-200.000	-0.024	-0.188
-658.930	-200.000	-0.002	0.227
-657.916	-200.000	0.008	-0.226
-656.901	800.000	-0.080	-0.254
-655.886	59.668	0.222	-0.223
-654.872	138.905	-0.058	0.077
-653.857	-72.509	0.072	0.027
-652.843	95.485	0.258	-0.300
-651.828	234.651	-0.092	0.155
-650.814	235.950	0.121	-0.204
-649.799	-102.560	0.318	-0.077
-648.784	-139.314	0.091	-0.010
-647.770	-38.520	0.227	-0.122
-646.755	800.000	0.063	0.206
-645.741	800.000	-0.058	0.191
-644.726	-64.794	-0.217	0.090
-643.711	85.873	-0.178	-0.199
-642.697	28.123	0.116	-0.100
-641.682	44.315	0.368	-0.344
-640.668	-200.000	0.027	0.357
-639.653	19.328	-0.059	-0.048
-638.638	27.924	-0.300	0.257
-637.624	145.374	0.107	-0.146
-636.609	-109.985	-0.409	0.087
-635.595	10.531	-0.028	-0.022
-634.580	-23.331	-0.273	-0.167
-633.565	800.000	-0.096	-0.340
-632.551	-200.000	0.036	0.546
-631.536	184.070	0.142	-0.214
-630.522	124.011	-0.079	-0.101
-629.507	-167.532	-0.119	-0.005
-628.492	-130.992	-0.162	0.022
-627.478	-200.000	-0.002	0.177
-626.463	-109.303	-0.276	-0.060
-625.449	-13.066	0.294	0.195
-624.434	137.171	0.203	0.270
-623.419	-35.747	0.065	-0.036
-622.405	-200.000	0.020	0.243
-621.390	188.418	0.274	-0.416
-620.376	-47.543	-0.026	0.013
-619.361	-135.743	-0.220	-0.027
-618.346	65.781	-0.274	0.282
-617.332	-112.567	0.188	-0.038
-616.317	6.847	-0.125	0.095
-615.303	-86.404	0.256	-0.080
-614.288	-83.845	0.140	-0.045
-613.273	-55.222	0.391	-0.179
-612.259	-105.572	-0.209	0.048
-611.244	-97.429	-0.156	-0.041
-610.230	800.000	0.122	-0.391
-609.215	121.435	0.014	0.018
-608.201	35.632	0.233	-0.208
-607.186	4.917	0.112	0.084
-606.171	18.659	0.226	0.184
-605.157	187.430	-0.147	0.223
-604.142	-50.023	0.048	0.023
-603.128	-24.460	-0.137	-0.083
-602.113	-67.545	0.129	-0.051
-601.098	-22.552	0.293	0.180
-600.084	-68.882	-0.373	0.146
-599.069	-94.414	-0.274	-0.076
-598.055	302.902	0.142	0.267
-597.040	-102.028	-0.181	0.044
-596.025	-200.000	0.055	0.331
-595.011	110.840	-0.122	0.149
-593.996	800.000	0.032	-0.104
-592.982	800.000	-0.054	-0.176
-591.967	-29.306	0.028	0.016
-590.952	-191.409	-0.196	-0.002
-589.938	-200.000	0.007	0.282
-588.923	589.926	0.045	-0.114
-587.909	439.901	0.120	-0.266
-586.894	-133.715	0.324	-0.041
-585.879	-148.641	-0.240	0.020
-584.865	-69.736	-0.502	0.195
-583.850	62.730	-0.154	0.157
-582.836	178.752	-0.123	-0.182
-581.821	7.646	-0.299	-0.227
-580.806	751.964	-0.084	-0.231
-579.792	124.625	-0.135	0.172
-578.777	-111.392	-0.249	-0.051
-577.763	629.950	0.175	-0.450
-576.748	134.850	-0.083	-0.110
-575.733	410.052	0.042	0.091
-574.719	-200.000	-0.014	-0.074
-573.704	-157.785	-0.249	-0.015
-572.690	-36.833	0.253	-0.138
-571.675	176.747	0.226	0.334
-570.661	-200.000	0.009	-0.108
-569.646	800.000	-0.098	-0.317
-568.631	-6.907	0.387	-0.267
-567.617	-110.924	0.111	0.023
-566.602	15.802	-0.165	-0.132
-565.588	34.703	-0.059	0.052
-564.573	52.409	-0.224	0.217
-563.558	171.867	-0.048	0.071
-562.544	-50.734	-0.050	-0.024
-561.529	-200.000	0.012	-0.426
-560.515	-200.000	-0.011	-0.285
-559.500	373.591	0.089	0.184
-558.485	-31.330	0.248	0.142
-557.471	-50.154	0.123	-0.059
-556.456	352.678	-0.079	-0.158
-555.442	8.380	-0.059	0.045
-554.427	79.013	0.290	-0.315
-553.412	139.552	0.113	-0.151
-552.398	20.739	-0.184	-0.151
-551.383	-200.000	0.050	0.250
-550.369	0.011	-0.134	-0.097
-549.354	-91.508	0.354	0.102
-548.339	699.638	-0.048	0.127
-547.325	-55.735	-0.273	-0.124
-546.310	800.000	0.042	-0.147
-545.296	308.235	-0.144	0.272
-544.281	800.000	0.054	0.184
-543.266	-112.062	0.238	0.049
-542.252	137.776	0.031	0.041
-541.237	-24.996	-0.150	0.090
-540.223	90.950	-0.170	0.193
-539.208	59.686	-0.130	0.130
-538.193	-98.994	-0.317	0.082
-537.179	-200.000	-0.008	0.036
-536.164	-123.687	-0.079	0.013
-535.150	-200.000	-0.025	0.210
-534.135	-200.000	0.002	0.171
-533.121	-66.551	0.051	-0.020
-532.106	-19.492	0.099	-0.062
-531.091	135.742	0.083	-0.109
-530.077	228.337	-0.019	0.031
-529.062	-128.480	0.071	0.010
-528.048	486.638	-0.064	-0.147
-527.033	113.767	0.135	-0.167
-526.018	-131.016	0.268	0.036
-525.004	-64.688	-0.239	-0.098
-523.989	273.221	-0.059	-0.105
-522.975	-200.000	0.017	0.099
-521.960	333.293	-0.125	-0.244
-520.945	-200.000	0.014	-0.117
-519.931	19.318	-0.142	-0.116
-518.916	31.068	-0.060	-0.052
-517.902	-184.103	-0.287	-0.005
-516.887	-111.657	0.314	0.065
-515.872	675.062	-0.138	-0.362
-514.858	-200.000	0.012	-0.215
-513.843	-146.080	0.102	-0.009
-512.829	-60.237	0.222	-0.096
-511.814	-200.000	0.017	-0.361
-510.799	-148.511	-0.045	-0.004
-509.785	800.000	-0.044	-0.165
-508.770	-96.375	0.176	-0.047
-507.756	-61.012	-0.286	-0.122
-506.741	122.185	0.142	0.179
-505.726	-196.230	-0.455	0.003
-504.712	349.993	0.085	0.170
-503.697	800.000	0.032	-0.105
-502.683	187.574	0.137	-0.207
-501.668	-200.000	-0.015	-0.243
-500.653	-200.000	-0.087	-0.385
-499.639	278.588	-0.129	0.233
-498.624	46.607	-0.281	-0.264
-497.610	722.175	0.059	-0.160
-496.595	-72.507	-0.169	-0.063
-495.581	110.778	0.072	0.087
-494.566	9.633	0.126	-0.097
-493.551	-200.000	0.008	0.146
-492.537	800.000	-0.069	0.244
-491.522	-134.192	-0.278	0.035
-490.508	151.382	0.146	0.201
-489.493	115.843	0.072	0.089
-488.478	-112.631	-0.176	-0.036
-487.464	-29.830	-0.065	0.037
-486.449	425.661	-0.070	0.153
-485.435	24.899	-0.142	0.119
-484.420	-112.357	0.019	0.004
-483.405	31.740	-0.116	0.101
-482.391	-200.000	-0.061	-0.601
-481.376	-83.633	-0.091	-0.029
-480.362	-86.522	-0.347	0.108
-479.347	-31.751	0.046	-0.026
-478.332	196.006	-0.129	-0.199
-477.318	321.096	-0.145	-0.279
-476.303	-200.000	0.020	-0.486
-475.289	590.517	-0.030	-0.075
-474.274	77.659	-0.043	0.046
-473.259	800.000	-0.062	0.192
-472.245	-114.629	-0.174	-0.034
-471.230	242.995	-0.145	0.245
-470.216	65.869	0.283	0.290
-469.201	45.767	0.159	0.149
-468.186	-20.738	-0.134	-0.083
-467.172	-131.642	0.135	0.018
-466.157	-200.000	0.023	-0.164
-465.143	800.000	0.047	0.173
-464.128	244.120	0.093	0.159
-463.113	240.907	-0.043	-0.072
-462.099	-72.405	0.399	-0.149
-461.084	-88.849	-0.026	0.008
-460.070	52.286	0.215	0.207
-459.055	-200.000	-0.041	0.425
-458.040	-200.000	-0.338	-0.001
-457.026	22.960	-0.334	-0.277
-456.011	-200.000	-0.016	-0.261
-454.997	245.117	-0.138	-0.235
-453.982	101.910	-0.179	-0.211
-452.968	-200.000	0.013	0.155
-451.953	420.207	0.254	0.550
-450.938	-200.000	-0.012	0.065
-449.924	95.575	-0.201	0.232
-448.909	-44.057	-0.119	-0.061
-447.895	203.256	0.087	0.136
-446.880	800.000	-0.119	0.437
-445.865	450.461	0.024	-0.054
-444.851	529.323	0.104	0.249
-443.836	82.455	-0.052	-0.057
-442.822	52.115	0.032	-0.031
-441.807	-200.000	0.028	0.201
-440.792	79.286	0.135	0.146
-439.778	800.000	0.013	0.037
-438.763	-200.000	0.060	-0.342
-437.749	-20.420	0.256	0.159
-436.734	-86.859	-0.286	-0.088
-435.719	-129.684	0.434	0.060
-434.705	-25.897	0.128	0.076
-433.690	19.739	-0.150	0.122
-432.676	800.000	-0.007	-0.027
-431.661	-126.009	-0.354	-0.054
-430.646	389.048	-0.157	0.329
-429.632	-46.379	0.085	0.042
-428.617	-127.436	-0.156	0.023
-427.603	49.768	0.114	0.109
-426.588	41.223	0.506	-0.462
-425.573	676.445	-0.024	-0.064
-424.559	631.553	0.167	-0.428
-423.544	516.380	-0.035	0.082
-422.530	11.973	-0.122	-0.094
-421.515	-144.155	0.332	0.031
-420.500	53.773	-0.090	-0.087
-419.486	4.357	-0.162	0.120
-418.471	215.486	0.095	0.153
-417.457	197.449	0.115	0.176
-416.442	512.455	0.156	0.368
-415.428	289.412	0.116	-0.213
-414.413	-165.902	0.146	0.006
-413.398	-85.546	0.256	0.080
-412.384	-75.145	-0.422	0.152
-411.369	-136.284	-0.244	-0.029
-410.355	728.966	-0.081	-0.217
-409.340	-68.787	0.268	-0.104
-408.325	800.000	-0.127	-0.475
-407.311	-60.730	-0.130	0.056
-406.296	188.616	-0.261	0.393
-405.282	-44.574	-0.090	0.045
-404.267	177.881	0.258	-0.379
-403.252	800.000	0.055	-0.217
-402.238	-200.000	0.058	0.491
-401.223	-95.676	-0.257	-0.069
-400.209	-102.248	0.250	-0.061
-399.194	-45.569	-0.272	-0.136
-398.179	-34.139	0.311	0.172
-397.165	-119.858	-0.091	0.016
-396.150	62.469	0.148	-0.149
-395.136	-158.542	0.233	-0.014
-394.121	-200.000	-0.004	0.020
-393.106	13.100	0.159	0.124
-392.092	-200.000	-0.039	0.296
-391.077	-169.351	0.285	-0.011
-390.063	800.000	-0.044	-0.165
-389.048	-95.381	0.251	0.068
-388.033	532.686	0.088	0.211
-387.019	-87.849	0.021	0.007
-386.004	186.538	-0.043	0.065
-384.990	176.930	0.164	0.240
-383.975	50.257	0.130	-0.123
-382.960	-200.000	-0.025	-0.159
-381.946	800.000	0.002	-0.010
-380.931	-200.000	-0.013	-0.154
-379.917	-145.035	0.116	0.011
-378.902	-200.000	0.016	0.178
-377.888	-65.426	0.124	-0.050
-376.873	-127.221	-0.140	-0.021
-375.858	55.405	-0.110	0.107
-374.844	73.895	-0.222	0.235
-373.829	123.336	-0.138	-0.174
-372.815	29.231	-0.220	-0.188
-371.800	238.819	-0.054	0.090
-370.785	589.067	-0.088	0.218
-369.771	-149.732	0.232	-0.018
-368.756	10.560	0.100	-0.077
-367.742	-155.306	-0.228	-0.015
-366.727	-171.777	0.080	0.003
-365.712	16.533	-0.085	0.067
-364.698	-118.679	-0.262	-0.047
-363.683	-58.612	-0.101	-0.044
-362.669	-200.000	0.047	0.249
-361.654	-200.000	-0.000	0.186
-360.639	161.306	0.217	0.305
-359.625	-107.474	0.212	0.047
-358.610	-179.837	0.420	-0.009
-357.596	66.408	-0.113	-0.115
-356.581	-31.107	-0.163	0.093
-355.566	252.563	0.236	0.404
-354.552	-200.000	-0.027	-0.343
-353.537	120.001	0.197	0.246
-352.523	205.255	0.140	-0.219
-351.508	17.885	-0.288	-0.231
-350.493	-200.000	0.010	-0.237
-349.479	-81.906	0.087	0.029
-348.464	-200.000	0.062	0.297
-347.450	78.480	-0.082	0.088
-346.435	-114.680	0.140	0.027
-345.420	-91.934	0.196	-0.056
-344.406	395.734	0.132	0.278
-343.391	800.000	-0.012	-0.050
-342.377	50.680	0.106	-0.101
-341.362	87.962	-0.112	0.125
-340.348	40.289	0.136	-0.123
-339.333	-120.833	-0.168	0.028
-338.318	-139.256	0.253	0.027
-337.304	-200.000	-0.084	0.654
-336.289	61.462	-0.217	0.217
-335.275	-126.217	-0.310	0.047
-334.260	800.000	0.104	-0.383
-333.245	-200.000	-0.007	0.342
-332.231	-89.381	-0.501	-0.148
-331.216	-90.606	-0.101	0.029
-330.202	-200.000	-0.017	-0.114
-329.187	-200.000	0.027	0.300
-328.172	-71.559	0.096	-0.036
-327.158	800.000	-0.053	0.196
-326.143	213.022	-0.166	-0.263
-325.129	-82.403	-0.279	-0.091
-324.114	-200.000	-0.057	-0.458
-323.099	-200.000	-0.005	0.070
-322.085	-12.174	-0.111	0.073
-321.070	-32.303	-0.068	0.038
-320.056	-133.615	0.448	0.056
-319.041	-91.252	0.227	0.065
-318.026	-135.816	0.166	0.020
-317.012	777.860	-0.013	0.036
-315.997	-77.451	0.093	0.032
-314.983	625.603	-0.036	-0.090
-313.968	-109.799	0.138	0.029
-312.953	-200.000	0.020	-0.090
-311.939	-40.567	-0.404	-0.210
-310.924	449.831	0.024	-0.054
-309.910	-159.066	0.049	0.003
-308.895	63.807	0.314	0.317
-307.880	-61.194	0.165	0.070
-306.866	83.484	-0.226	-0.248
-305.851	-46.308	-0.014	0.007
-304.837	800.000	-0.059	0.217
-303.822	186.458	0.093	0.140
-302.807	800.000	0.073	-0.291
-301.793	36.757	0.069	0.061
-300.778	-58.807	0.153	0.066
-299.764	-30.285	-0.229	-0.131
-298.749	800.000	0.103	0.291
-297.735	230.099	-0.049	0.081
-296.720	20.647	-0.135	0.109
-295.705	-105.997	0.194	0.044
-294.691	154.402	0.188	-0.260
-293.676	158.093	0.096	0.134
-292.662	-35.934	-0.129	-0.070
-291.647	87.161	0.105	0.116
-290.632	-46.106	0.171	0.084
-289.618	594.127	0.119	0.295
-288.603	794.996	-0.035	-0.096
-287.589	-159.767	-0.167	-0.009
-286.574	-167.579	0.447	0.018
-285.559	-200.000	0.026	0.232
-284.545	-7.753	-0.436	-0.295
-283.530	-72.409	-0.139	-0.051
-282.516	-13.415	-0.103	-0.067
-281.501	228.824	0.055	0.091
-280.486	402.655	-0.070	-0.148
-279.472	127.086	0.159	-0.202
-278.457	-200.000	0.049	0.261
-277.443	722.471	-0.101	-0.270
-276.428	-58.568	0.334	0.145
-275.413	43.595	-0.105	-0.097
-274.399	-177.842	0.108	0.003
-273.384	376.464	0.078	0.161
-272.370	-200.000	-0.008	0.077
-271.355	-99.043	0.094	-0.024
-270.340	-25.832	-0.093	-0.055
-269.326	47.055	0.169	-0.157
-268.311	-131.455	0.050	0.007
-267.297	285.690	-0.215	-0.388
-266.282	-200.000	-0.009	-0.193
-265.267	-44.765	0.035	-0.018
-264.253	-163.352	-0.315	0.015
-263.238	-50.650	-0.275	-0.130
-262.224	357.602	0.038	-0.075
-261.209	145.316	-0.229	-0.308
-260.195	37.190	0.227	-0.201
-259.180	174.689	0.059	0.086
-258.165	-200.000	-0.024	-0.130
-257.151	-56.419	0.111	-0.049
-256.136	3.150	0.034	-0.024
-255.122	21.189	-0.132	-0.107
-254.107	191.882	0.148	0.223
-253.092	-121.055	-0.391	-0.066
-252.078	-45.775	0.216	0.107
-251.063	-143.132	0.465	0.045
-250.049	-151.611	0.316	0.023
-249.034	-200.000	0.003	-0.069
-248.019	-50.822	-0.024	-0.011
-247.005	-11.997	-0.241	-0.158
-245.990	-86.599	0.159	-0.049
-244.976	131.933	0.087	0.113
-243.961	-200.000	0.039	-0.205
-242.946	33.535	-0.333	-0.290
-241.932	-33.344	0.033	0.018
-240.917	-2.039	0.181	-0.127
-239.903	-175.319	-0.440	0.012
-238.888	299.276	0.098	0.181
-237.873	464.093	0.159	0.356
-236.859	-26.964	0.158	-0.092
-235.844	41.852	0.185	-0.168
-234.830	58.064	0.153	0.150
-233.815	84.181	0.095	0.104
-232.800	229.609	-0.051	0.084
-231.786	-83.371	0.050	0.016
-230.771	-200.000	-0.057	-0.373
-229.757	-5.831	0.081	0.055
-228.742	800.000	-0.042	-0.146
-227.727	-178.273	-0.022	0.001
-226.713	-200.000	0.026	0.177
-225.698	800.000	0.114	0.457
-224.684	-200.000	-0.027	-0.162
-223.669	-132.631	-0.282	0.036
-222.655	-106.861	0.603	-0.134
-221.640	800.000	0.063	0.183
-220.625	69.711	-0.277	0.286
-219.611	-190.565	-0.502	0.005
-218.596	36.385	0.136	-0.120
-217.582	-200.000	-0.020	0.277
-216.567	110.334	0.122	0.147
-215.552	3.938	-0.052	-0.038
-214.538	113.684	-0.151	0.183
-213.523	17.122	0.156	-0.124
-212.509	-102.654	-0.214	-0.051
-211.494	-114.388	0.375	-0.072
-210.479	-200.000	-0.014	0.172
-209.465	93.550	-0.111	-0.126
-208.450	-157.873	-0.226	-0.013
-207.436	-200.000	-0.012	-0.117
-206.421	285.603	-0.028	0.051
-205.406	54.890	0.097	0.093
-204.392	613.132	-0.141	-0.352
-203.377	469.657	0.060	-0.135
-202.363	-66.369	0.207	0.082
-201.348	329.129	0.036	-0.070
-200.333	46.349	-0.156	-0.145
-199.319	-200.000	0.009	0.092
-198.304	463.232	0.059	0.132
-197.290	-32.747	-0.347	0.193
-196.275	-40.015	-0.261	-0.136
-195.260	-114.918	0.183	-0.035
-194.246	54.086	0.113	-0.109
-193.231	-200.000	-0.005	0.228
-192.217	214.984	-0.146	0.231
-191.202	486.810	-0.069	-0.157
-190.187	-24.242	-0.282	-0.168
-189.173	-200.000	-0.064	0.309
-188.158	98.607	-0.052	-0.060
-187.144	-200.000	0.042	-0.188
-186.129	-151.255	0.342	-0.026
-185.114	-162.153	0.268	-0.013
-184.100	194.778	-0.187	-0.284
-183.085	-89.447	0.340	0.100
-182.071	-174.141	-0.174	-0.005
-181.056	211.550	0.039	0.062
-180.042	800.000	-0.074	-0.311
-179.027	-200.000	0.072	-0.461
-178.012	-95.801	-0.233	0.062
-176.998	216.502	0.212	0.336
-175.983	-200.000	-0.023	-0.416
-174.969	414.640	0.139	-0.296
-173.954	-200.000	0.032	0.272
-172.939	-129.415	-0.092	0.013
-171.925	-147.311	-0.215	0.018
-170.910	-70.796	0.169	0.064
-169.896	800.000	-0.048	0.160
-168.881	178.392	-0.122	-0.178
-167.866	-134.403	0.171	-0.021
-166.852	387.128	0.106	0.219
-165.837	29.029	0.028	-0.024
-164.823	-161.956	-0.181	-0.009
-163.808	800.000	0.010	0.032
-162.793	-56.364	0.101	-0.045
-161.779	128.613	0.098	0.124
-160.764	-200.000	-0.002	-0.221
-159.750	158.501	0.191	-0.264
-158.735	-200.000	-0.056	0.420
-157.720	-200.000	0.017	0.086
-156.706	250.548	-0.087	0.147
-155.691	-200.000	0.037	0.237
-154.677	79.429	0.188	0.201
-153.662	-98.251	0.175	0.045
-152.647	-78.302	-0.255	-0.087
-151.633	-200.000	0.005	0.203
-150.618	713.415	-0.037	0.098
-149.604	-37.118	0.188	0.101
-148.589	783.909	-0.059	0.162
-147.574	-200.000	0.012	0.130
-146.560	-74.290	-0.033	0.012
-145.545	94.651	0.193	0.219
-144.531	151.212	0.119	-0.162
-143.516	-200.000	-0.034	0.434
-142.502	-8.347	-0.019	0.013
-141.487	-200.000	0.011	0.151
-140.472	-200.000	0.019	0.171
-139.458	-111.596	0.207	0.042
-138.443	-200.000	-0.021	0.361
-137.429	-33.486	0.386	-0.213
-136.414	-86.077	-0.333	0.103
-135.399	-46.604	0.435	-0.213
-134.385	-129.253	0.316	0.044
-133.370	-99.099	0.108	-0.027
-132.356	107.503	0.051	-0.061
-131.341	771.288	-0.098	0.267
-130.326	7.806	-0.365	0.273
-129.312	281.988	0.201	-0.359
-128.297	-18.706	-0.079	-0.049
-127.283	-200.000	-0.003	0.070
-126.268	749.684	-0.071	0.192
-125.253	-70.957	-0.167	-0.063
-124.239	-200.000	0.015	-0.146
-123.224	-101.875	0.231	-0.056
-122.210	800.000	0.156	0.488
-121.195	-135.671	-0.176	-0.021
-120.180	-138.873	0.232	0.025
-119.166	-200.000	0.024	-0.289
-118.151	-118.605	0.111	-0.020
-117.137	-41.211	-0.296	0.152
-116.122	-95.234	0.240	0.065
-115.107	157.105	-0.184	0.254
-114.093	-38.018	-0.343	-0.182
-113.078	800.000	0.097	-0.310
-112.064	38.284	0.163	0.145
-111.049	-100.534	-0.198	-0.049
-110.034	-200.000	-0.015	-0.142
-109.020	-98.347	0.160	-0.041
-108.005	-127.625	0.205	-0.030
-106.991	-104.258	0.368	0.085
-105.976	583.106	-0.085	-0.207
-104.962	203.822	0.147	0.226
-103.947	-81.800	-0.123	0.040
-102.932	758.542	-0.035	0.094
-101.918	-127.164	0.053	0.008
-100.903	285.532	-0.041	0.074
-99.889	-200.000	0.010	0.050
-98.874	-57.419	0.143	-0.062
-97.859	32.719	0.132	-0.114
-96.845	314.992	-0.146	0.275
-95.830	-146.625	0.374	0.032
-94.816	626.495	-0.114	0.288
-93.801	174.063	-0.226	0.326
-92.786	-127.342	0.129	0.019
-91.772	405.403	-0.069	-0.146
-90.757	76.202	-0.053	-0.056
-89.743	-35.449	0.106	-0.057
-88.728	800.000	0.066	-0.256
-87.713	-200.000	0.044	-0.197
-86.699	1.947	-0.290	-0.209
-85.684	-65.062	-0.255	0.103
-84.670	-13.459	0.096	-0.062
-83.655	156.769	-0.031	-0.043
-82.640	-40.192	-0.100	0.052
-81.626	-73.869	-0.416	-0.151
-80.611	-200.000	0.009	0.097
-79.597	202.821	-0.190	0.292
-78.582	-56.656	-0.081	-0.036
-77.567	-133.535	0.320	0.040
-76.553	558.513	-0.110	0.265
-75.538	-200.000	-0.003	-0.175
-74.524	-200.000	-0.023	0.373
-73.509	-88.051	0.201	-0.060
-72.494	-153.667	0.171	0.012
-71.480	-148.248	0.276	-0.023
-70.465	363.822	0.106	-0.212
-69.451	800.000	0.090	0.297
-68.436	-76.218	-0.207	0.073
-67.422	-31.158	-0.171	-0.096
-66.407	-36.272	-0.083	-0.044
-65.392	800.000	0.058	0.181
-64.378	-72.738	0.006	0.002
-63.363	800.000	-0.083	0.292
-62.349	102.512	0.213	-0.247
-61.334	117.163	-0.733	-0.896
-60.319	320.613	0.271	0.512
-59.305	800.000	-0.217	-0.904
-58.290	158.373	0.709	0.979
-57.276	327.210	0.783	1.493
-56.261	-200.000	85.993	507.014
-55.246	553.350	1378.788	3296.425
-54.232	182.708	2610.900	3831.035
-53.217	117.477	2259.313	2764.022
-52.203	46.854	1787.440	1652.054
-51.188	40.250	1594.162	1425.994
-50.173	37.742	1566.470	1383.386
-49.159	54.255	1609.142	1540.132
-48.144	58.198	1628.633	1587.093
-47.130	40.697	1589.287	1424.618
-46.115	37.444	1574.940	1388.511
-45.100	37.216	1571.168	1383.505
-44.086	37.190	1569.387	1381.700
-43.071	37.207	1567.407	1380.023
-42.057	37.194	1565.496	1378.193
-41.042	37.144	1564.344	1376.773
-40.027	37.132	1562.561	1375.059
-39.013	37.076	1561.221	1373.428
-37.998	37.075	1559.732	1372.060
-36.984	37.127	1558.341	1371.147
-35.969	37.181	1556.483	1369.840
-34.954	37.166	1555.590	1368.891
-33.940	37.163	1554.054	1367.470
-32.925	37.249	1552.552	1366.695
-31.911	37.171	1551.450	1365.127
-30.896	37.287	1549.932	1364.547
-29.881	37.180	1548.644	1362.607
-28.867	37.201	1547.169	1361.406
-27.852	37.153	1546.325	1360.269
-26.838	37.213	1544.374	1358.920
-25.823	37.150	1542.974	1357.198
-24.809	37.189	1540.879	1355.571
-23.794	37.284	1539.871	1355.293
-22.779	37.238	1538.485	1353.696
-21.765	37.178	1537.649	1352.490
-20.750	37.287	1536.565	1352.246
-19.736	37.196	1535.378	1350.511
-18.721	37.147	1534.284	1349.155
-17.706	37.159	1532.709	1347.799
-16.692	37.240	1531.491	1347.235
-15.677	37.159	1530.303	1345.574
-14.663	37.109	1529.486	1344.462
-13.648	37.038	1528.762	1343.278
-12.633	37.093	1527.944	1342.889
-11.619	37.145	1526.630	1342.036
-10.604	37.060	1525.910	1340.763
-9.590	37.124	1524.864	1340.232
-8.575	37.097	1524.202	1339.413
-7.560	37.172	1522.873	1338.709
-6.546	37.202	1522.030	1338.122
-5.531	37.049	1521.448	1336.505
-4.517	36.963	1520.774	1335.265
-3.502	37.089	1519.000	1334.521
-2.487	37.019	1518.002	1333.111
-1.473	37.094	1516.594	1332.334
-0.458	37.227	1515.100	1331.884
0.556	35.522	1506.578	1322.665
1.571	33.266	1479.971	1283.905
2.586	30.078	1417.779	1209.085
3.600	28.537	1333.526	1127.664
4.615	26.843	1284.965	1076.461
5.629	22.024	1224.278	998.206
6.644	10.253	1130.610	859.587
7.659	1.467	1084.474	779.525
8.673	0.458	1078.331	769.894
9.688	0.179	1075.384	766.299
10.702	0.053	1074.226	764.765
11.717	0.011	1072.333	763.140
12.731	3.882	1077.253	786.277
13.746	14.420	1092.879	851.723
14.761	21.436	1101.836	894.650
15.775	22.170	1101.919	898.390
16.790	22.078	1101.719	897.677
17.804	22.023	1100.591	896.399
18.819	21.889	1099.385	894.654
19.834	21.951	1098.813	894.425
20.848	21.905	1098.718	894.033
21.863	22.125	1097.960	894.459
22.877	22.115	1097.572	894.012
23.892	22.116	1096.823	893.330
24.907	22.026	1095.962	892.091
25.921	22.108	1095.116	891.743
26.936	22.037	1094.257	890.602
27.950	21.963	1093.415	889.462
28.965	21.934	1092.204	888.252
29.980	21.905	1090.613	886.732
30.994	21.702	1089.420	884.662
32.009	21.918	1088.637	885.035
33.023	22.149	1087.695	885.356
34.038	21.928	1086.659	883.321
35.053	21.839	1085.820	882.114
36.067	21.990	1085.379	882.438
37.082	22.093	1084.046	881.793
38.096	22.050	1083.653	881.176
39.111	22.294	1082.585	881.456
40.126	22.223	1082.179	880.689
41.140	22.239	1080.536	879.357
42.155	21.896	1078.958	876.283
43.169	21.663	1077.445	873.813
44.184	21.660	1076.943	873.312
45.199	21.723	1076.012	872.795
46.213	21.658	1074.698	871.329
47.228	21.640	1073.815	870.445
48.242	21.694	1073.280	870.203
49.257	21.902	1072.135	870.229
50.271	21.921	1071.719	869.910
51.286	21.962	1071.090	869.523
52.301	22.189	1069.857	869.570
53.315	22.100	1069.006	868.363
54.330	22.041	1068.593	867.659
55.344	22.094	1067.289	866.786
56.359	22.005	1066.554	865.673
57.374	21.971	1065.716	864.749
58.388	21.794	1064.697	862.974
59.403	21.758	1063.790	861.985
60.417	21.770	1063.228	861.510
61.432	21.683	1062.158	860.141
62.447	21.643	1061.743	859.533
63.461	21.804	1060.759	859.449
64.476	21.851	1060.092	859.063
65.490	21.787	1059.104	857.871
66.505	21.796	1057.959	856.915
67.520	21.811	1057.045	856.170
68.534	21.811	1056.324	855.514
69.549	21.611	1055.689	853.948
70.563	21.431	1053.887	851.534
71.578	21.222	1053.625	850.234
72.593	21.323	1052.739	849.934
73.607	21.228	1051.102	848.073
74.622	21.166	1050.764	847.429
75.636	21.450	1049.789	847.942
76.651	21.692	1049.362	848.694
77.666	21.515	1048.209	846.831
78.680	21.393	1047.141	845.304
79.695	21.383	1046.642	844.777
80.709	21.511	1046.278	845.026
81.724	21.781	1045.324	845.486
82.739	21.536	1044.492	843.554
83.753	21.525	1043.587	842.697
84.768	21.841	1043.029	843.693
85.782	22.131	1042.297	844.417
86.797	22.384	1041.567	844.969
87.812	22.257	1040.985	843.813
88.826	22.037	1040.033	841.910
89.841	22.055	1039.138	841.196
90.855	22.185	1038.196	840.983
91.870	22.173	1037.136	839.993
92.884	22.183	1036.522	839.469
93.899	22.074	1035.775	838.270
94.914	22.033	1034.551	837.012
95.928	22.134	1033.968	836.945
96.943	22.173	1033.239	836.464
97.957	21.820	1032.007	833.716
98.972	21.708	1030.863	832.189
99.987	21.524	1029.500	830.141
101.001	21.561	1028.986	829.825
102.016	21.866	1028.507	830.811
103.030	21.976	1027.818	830.702
104.045	21.781	1026.429	828.588
105.060	21.749	1024.987	827.195
106.074	21.636	1023.791	825.624
107.089	21.626	1023.477	825.254
108.103	21.893	1022.877	825.952
109.118	22.024	1022.128	825.893
110.133	21.759	1020.963	823.632
111.147	21.635	1019.817	822.051
112.162	21.620	1018.524	820.867
113.176	21.410	1017.637	819.098
114.191	21.544	1016.973	819.117
115.206	21.629	1015.931	818.600
116.220	21.229	1014.738	815.699
117.235	21.260	1013.341	814.650
118.249	21.297	1013.064	814.528
119.264	21.294	1012.398	813.908
120.279	21.315	1011.138	812.921
121.293	21.260	1010.554	812.123
122.308	21.294	1010.090	811.833
123.322	21.455	1008.689	811.385
124.337	21.350	1007.944	810.227
125.352	21.461	1006.051	809.145
126.366	20.976	1004.562	805.637
127.381	20.579	1002.967	802.453
128.395	21.119	1003.084	804.971
129.410	21.785	1002.646	807.615
130.424	21.845	1002.008	807.308
131.439	21.830	1000.967	806.327
132.454	21.732	1000.080	805.090
133.468	21.784	999.039	804.421
134.483	21.812	998.103	803.724
135.497	21.944	997.081	803.433
136.512	22.073	996.954	803.854
137.527	22.055	996.156	803.054
138.541	21.994	995.654	802.300
139.556	22.112	994.648	801.957
140.570	22.106	993.813	801.186
141.585	22.171	992.548	800.390
142.600	22.183	992.244	800.132
143.614	22.072	991.131	798.658
144.629	22.113	990.542	798.300
145.643	22.324	989.663	798.475
146.658	22.291	988.510	797.328
147.673	22.286	986.674	795.751
148.687	22.077	985.851	794.071
149.702	21.943	985.081	792.779
150.716	21.877	984.138	791.652
151.731	21.834	982.796	790.305
152.746	21.898	982.524	790.306
153.760	22.226	981.624	790.991
154.775	22.295	980.898	790.644
155.789	22.358	980.191	790.287
156.804	22.201	979.519	788.968
157.819	22.158	978.103	787.566
158.833	22.273	977.305	787.370
159.848	22.328	976.513	786.910
160.862	22.356	975.673	786.286
161.877	22.338	974.494	785.185
162.892	22.199	973.739	783.890
163.906	22.305	973.095	783.773
164.921	22.224	972.161	782.593
165.935	22.206	970.817	781.362
166.950	22.307	970.147	781.199
167.964	22.348	969.015	780.401
168.979	22.265	967.946	779.107
169.994	22.208	966.382	777.527
171.008	22.013	965.738	776.075
172.023	22.210	964.813	776.136
173.037	22.324	964.371	776.214
174.052	21.991	963.429	773.919
175.067	21.968	961.923	772.536
176.081	21.947	961.262	771.847
177.096	21.840	960.838	770.969
178.110	22.081	959.441	770.838
179.125	21.856	958.542	769.059
180.140	21.620	957.384	767.030
181.154	21.660	956.723	766.605
182.169	21.757	956.377	766.685
183.183	21.993	956.082	767.411
184.198	22.261	955.607	768.135
185.213	22.178	955.106	767.301
186.227	22.042	954.066	765.806
187.242	22.034	954.233	765.837
188.256	22.262	952.858	765.659
189.271	22.178	952.408	764.862
190.286	22.413	951.296	764.921
191.300	22.285	950.454	763.624
192.315	21.597	949.183	759.551
193.329	20.980	947.586	755.531
194.344	20.530	946.447	752.611
195.359	21.090	946.758	755.213
196.373	21.936	947.135	759.112
197.388	22.116	946.777	759.537
198.402	22.079	945.923	758.624
199.417	21.990	945.237	757.621
200.432	22.111	944.792	757.719
201.446	22.012	943.882	756.495
202.461	21.725	943.072	754.545
203.475	21.785	942.653	754.402
204.490	21.232	941.594	751.109
205.504	20.227	939.160	744.788
206.519	20.688	938.704	746.339
207.534	21.651	939.038	750.665
208.548	21.701	938.496	750.383
209.563	22.082	938.425	751.888
210.577	21.989	937.671	750.823
211.592	21.864	936.876	749.584
212.607	22.144	936.877	750.716
213.621	22.266	936.423	750.807
214.636	22.325	935.332	750.114
215.650	22.322	934.742	749.562
216.665	22.168	934.384	748.553
217.680	22.190	933.811	748.122
218.694	22.400	933.521	748.716
219.709	22.106	932.201	746.344
220.723	21.743	930.927	743.716
221.738	21.808	930.805	743.829
222.753	22.155	930.321	744.847
223.767	22.085	929.271	743.643
224.782	21.982	929.035	742.955
225.796	22.323	928.024	743.521
226.811	22.536	927.258	743.741
227.826	21.927	926.502	740.498
228.840	21.260	924.606	736.108
229.855	21.185	924.007	735.252
230.869	21.458	923.775	736.150
231.884	21.004	922.948	733.516
232.899	21.034	922.443	733.179
233.913	22.003	922.170	736.964
234.928	22.056	921.655	736.711
235.942	21.901	921.360	735.761
236.957	21.992	920.703	735.552
237.972	21.639	919.666	733.179
238.986	21.718	918.628	732.617
240.001	21.871	918.122	732.790
241.015	21.843	917.613	732.202
242.030	21.880	917.064	731.853
243.045	21.956	916.784	731.879
244.059	22.007	916.118	731.497
245.074	22.192	915.438	731.661
246.088	22.174	914.878	731.071
247.103	21.794	913.821	728.586
248.117	21.891	913.080	728.333
249.132	22.356	913.493	730.528
250.147	22.607	912.978	731.093
251.161	22.720	912.510	731.122
252.176	22.811	912.100	731.104
253.190	22.873	911.240	730.605
254.205	22.929	910.490	730.172
255.220	23.123	909.870	730.414
256.234	23.142	909.302	729.969
257.249	23.086	908.868	729.328
258.263	22.917	907.921	727.807
259.278	22.822	907.295	726.849
260.293	22.884	907.084	726.869
261.307	23.017	906.498	726.885
262.322	22.855	906.045	725.790
263.336	22.799	905.144	724.774
264.351	22.420	903.539	721.869
265.366	21.210	901.728	715.404
266.380	20.743	900.814	712.708
267.395	21.648	901.181	716.636
268.409	22.591	900.607	719.974
269.424	22.507	900.438	719.432
270.439	22.522	900.203	719.240
271.453	22.708	899.406	719.300
272.468	22.705	898.701	718.656
273.482	22.913	898.284	719.110
274.497	22.945	897.991	718.940
275.512	22.781	896.843	717.289
276.526	22.345	895.067	714.038
277.541	22.494	894.985	714.513
278.555	22.878	894.621	715.718
279.570	22.664	894.124	714.389
280.585	22.372	892.910	712.173
281.599	22.576	892.022	712.226
282.614	22.818	891.743	712.921
283.628	22.190	890.860	709.615
284.643	21.896	889.867	707.577
285.657	22.320	889.968	709.303
286.672	22.244	889.141	708.277
287.687	21.761	888.240	705.552
288.701	21.992	888.154	706.352
289.716	22.503	887.684	707.970
290.730	22.105	886.899	705.681
291.745	22.092	885.988	704.842
292.760	22.037	884.364	703.270
293.774	21.780	884.364	702.174
294.789	22.598	885.018	705.912
295.803	23.191	885.185	708.356
296.818	23.301	884.862	708.473
297.833	23.304	884.166	707.866
298.847	23.107	882.970	706.060
299.862	22.803	881.971	703.988
300.876	22.868	881.674	703.947
301.891	23.182	881.097	704.675
302.906	23.315	880.461	704.631
303.920	22.852	879.604	702.042
304.935	22.636	879.089	700.711
305.949	23.158	878.372	702.149
306.964	23.351	877.955	702.522
307.979	23.203	876.877	701.008
308.993	22.922	877.006	699.936
310.008	23.321	876.756	701.255
311.022	23.409	876.128	701.039
312.037	23.237	875.330	699.661
313.052	22.897	874.849	697.870
314.066	22.957	873.933	697.313
315.081	22.360	872.098	693.438
316.095	21.662	870.994	689.751
317.110	22.059	871.248	691.456
318.125	22.818	871.835	694.845
319.139	22.663	870.643	693.225
320.154	21.476	868.872	687.097
321.168	20.972	867.686	684.119
322.183	21.620	867.808	686.699
323.197	22.554	868.169	690.587
324.212	22.842	867.819	691.373
325.227	22.879	867.673	691.342
326.241	23.097	867.412	691.924
327.256	23.111	866.642	691.304
328.270	23.062	865.485	690.130
329.285	22.795	865.341	688.912
330.300	22.780	864.585	688.190
331.314	22.459	863.287	685.845
332.329	22.559	863.014	685.958
333.343	22.874	862.563	686.765
334.358	23.130	862.552	687.687
335.373	23.198	861.765	687.264
336.387	23.266	861.423	687.193
337.402	23.500	860.808	687.549
338.416	23.708	860.300	687.889
339.431	23.475	860.123	686.787
340.446	23.538	859.337	686.339
341.460	23.664	858.741	686.293
342.475	23.761	858.186	686.161
343.489	23.565	857.362	684.684
344.504	23.425	856.904	683.720
345.519	23.820	856.267	684.674
346.533	24.002	856.196	685.256
347.548	24.046	855.757	685.013
348.562	23.995	855.421	684.486
349.577	23.967	854.655	683.704
350.592	23.944	854.392	683.348
351.606	23.947	853.411	682.513
352.621	23.802	853.401	681.890
353.635	23.837	852.568	681.297
354.650	23.703	851.763	680.079
355.665	23.433	851.125	678.476
356.679	22.327	849.285	672.724
357.694	22.226	848.603	671.738
358.708	22.937	848.682	674.458
359.723	22.804	848.084	673.414
360.738	23.031	848.056	674.197
361.752	23.381	848.221	675.605
362.767	23.514	847.575	675.539
363.781	23.719	847.225	675.979
364.796	24.089	847.348	677.427
365.810	24.248	846.504	677.297
366.825	24.269	846.217	677.087
367.840	24.297	846.096	677.035
368.854	24.289	844.882	675.971
369.869	23.675	844.397	673.197
370.883	23.586	843.519	672.100
371.898	23.619	843.149	671.870
372.913	23.473	842.454	670.708
373.927	23.582	841.786	670.529
374.942	23.782	841.087	670.667
375.956	23.763	840.725	670.245
376.971	23.965	839.922	670.308
377.986	24.053	839.244	670.041
379.000	24.249	838.957	670.487
380.015	24.221	838.677	670.101
381.029	24.066	837.982	668.903
382.044	24.039	837.399	668.278
383.059	24.282	836.985	668.799
384.073	24.215	836.439	668.054
385.088	24.225	835.993	667.673
386.102	24.348	835.033	667.310
387.117	24.137	834.360	665.925
388.132	23.828	834.074	664.481
389.146	23.828	832.824	663.427
390.161	23.194	832.210	660.514
391.175	23.293	831.830	660.521
392.190	23.820	832.041	662.597
393.205	23.876	831.648	662.433
394.219	23.078	829.658	657.822
395.234	21.379	827.468	649.721
396.248	20.694	826.267	646.176
397.263	21.570	827.514	650.351
398.278	23.470	828.475	658.109
399.292	23.907	828.439	659.642
400.307	23.690	827.607	658.116
401.321	23.462	827.464	657.101
402.336	23.538	827.253	657.156
403.350	23.965	826.686	658.230
404.365	24.344	826.767	659.635
405.380	24.494	826.706	660.085
406.394	24.857	826.651	661.324
407.409	25.041	825.891	661.336
408.423	24.939	825.305	660.432
409.438	24.977	824.479	659.851
410.453	24.989	824.043	659.489
411.467	24.917	823.629	658.834
412.482	24.838	823.380	658.286
413.496	24.876	822.682	657.810
414.511	24.846	822.194	657.250
415.526	24.947	822.236	657.596
416.540	24.867	821.495	656.653
417.555	24.737	821.451	656.082
418.569	24.661	820.063	654.638
419.584	24.509	819.751	653.774
420.599	24.650	819.616	654.125
421.613	149.882	1364.873	1783.742
422.628	130.464	1444.321	1783.839
