DTS Sentinel unit serial number:	SN413079Multiplexer serial number:	ORYXHardware model number:	OX4-SRSoftware version number:	ORYX F/W v4.00 Oryx Data Collector v3.7.2.0data status	okinstallation	princeton_trtdifferential loss correction	single-endedforward channel	channel 3reverse channel	N/Adate	2019/09/10time	23:38:10forward acquisition time	60.00reverse acquisition time	0.00gamma	496.2192k internal	0.2331k external	0.2331temperature offset calibration	0.9921default loss term (dB/km)	0.3790temperature slope calibration	1.0000multiplexer offset coefficient	1.0000multiplexer slope coefficient	1.0000fibre end	0.00T internal ref (°C)	29.62T ext. ref 1 (°C)	-0.31T ext. ref 2 (°C)	23.01length (m)	temperature (°C)	Stokes	anti-Stokes-747.200	-200.000	-0.029	0.298
-746.185	-89.182	-0.034	0.010
-745.171	-119.465	0.040	-0.007
-744.156	-35.923	-0.148	0.080
-743.142	-145.959	-0.049	0.004
-742.127	-200.000	-0.073	0.359
-741.112	83.193	0.146	-0.160
-740.098	-185.652	0.094	-0.001
-739.083	447.990	0.022	-0.049
-738.069	-200.000	-0.001	0.037
-737.054	-78.367	0.333	0.115
-736.039	31.118	0.137	-0.118
-735.025	-107.849	0.437	0.096
-734.010	-134.668	-0.112	-0.014
-732.996	100.097	-0.099	-0.116
-731.981	-200.000	0.101	-0.485
-730.966	-200.000	0.023	0.150
-729.952	204.358	-0.105	-0.164
-728.937	-39.063	-0.251	0.133
-727.923	90.306	0.183	-0.206
-726.908	-112.724	-0.236	-0.047
-725.894	-41.853	-0.088	0.045
-724.879	115.569	0.194	-0.239
-723.864	137.413	0.235	0.309
-722.850	217.154	0.120	-0.191
-721.835	8.869	0.167	-0.126
-720.821	-62.116	0.145	0.061
-719.806	265.371	-0.111	0.195
-718.791	-185.448	-0.199	-0.003
-717.777	-27.555	0.190	-0.111
-716.762	-84.051	0.212	0.068
-715.748	-61.425	0.071	-0.030
-714.733	28.841	-0.509	-0.433
-713.718	76.060	0.249	-0.265
-712.704	-38.990	-0.264	0.139
-711.689	315.770	-0.107	0.203
-710.675	-73.995	0.640	-0.233
-709.660	800.000	-0.079	-0.295
-708.645	-200.000	0.009	-0.106
-707.631	396.307	-0.121	-0.254
-706.616	185.521	0.174	-0.260
-705.602	-200.000	-0.050	0.229
-704.587	-29.243	0.223	-0.128
-703.572	800.000	0.028	-0.100
-702.558	111.156	0.201	-0.243
-701.543	-13.718	-0.154	-0.100
-700.529	-118.498	0.257	-0.046
-699.514	-115.693	-0.153	-0.029
-698.499	-124.304	0.237	-0.037
-697.485	-0.185	0.228	-0.163
-696.470	39.160	0.135	-0.121
-695.456	55.894	0.180	-0.175
-694.441	252.563	0.076	-0.130
-693.426	800.000	-0.054	0.162
-692.412	154.145	0.084	0.115
-691.397	510.749	-0.161	0.376
-690.383	432.767	0.217	-0.473
-689.368	-37.504	0.187	-0.100
-688.354	102.413	0.067	0.078
-687.339	102.459	0.117	-0.138
-686.324	800.000	-0.105	-0.320
-685.310	11.864	-0.142	-0.109
-684.295	-200.000	-0.011	-0.268
-683.281	-10.952	0.159	-0.105
-682.266	740.969	-0.067	-0.180
-681.251	-72.162	-0.106	0.040
-680.237	800.000	-0.096	-0.315
-679.222	-87.676	0.241	-0.073
-678.208	-89.571	-0.177	0.052
-677.193	194.441	-0.296	-0.451
-676.178	-92.853	0.329	0.092
-675.164	-200.000	-0.006	-0.248
-674.149	-108.658	-0.130	-0.028
-673.135	708.425	-0.147	0.391
-672.120	800.000	0.020	0.079
-671.105	-11.786	0.166	-0.109
-670.091	-200.000	0.022	0.212
-669.076	-200.000	0.013	-0.069
-668.062	-74.381	0.237	-0.086
-667.047	-200.000	0.006	-0.359
-666.032	800.000	0.056	-0.175
-665.018	236.107	-0.050	0.082
-664.003	89.065	-0.043	0.048
-662.989	241.258	-0.069	-0.116
-661.974	201.249	0.208	-0.321
-660.959	305.381	-0.106	-0.197
-659.945	406.856	-0.102	0.217
-658.930	42.815	-0.142	-0.130
-657.916	97.053	-0.010	-0.012
-656.901	293.269	0.186	-0.341
-655.886	-126.776	-0.117	0.017
-654.872	-110.075	0.009	0.002
-653.857	-33.504	-0.077	0.043
-652.843	8.664	-0.221	0.167
-651.828	-200.000	0.021	-0.184
-650.814	235.642	0.058	-0.097
-649.799	-58.426	0.241	-0.105
-648.784	-85.873	0.071	0.022
-647.770	-39.940	0.138	-0.072
-646.755	-138.390	0.162	-0.018
-645.741	72.633	-0.228	-0.238
-644.726	460.559	-0.045	-0.100
-643.711	-160.506	0.142	0.008
-642.697	-125.282	-0.240	-0.037
-641.682	-38.616	-0.242	-0.128
-640.668	187.858	0.108	-0.162
-639.653	-8.277	0.076	0.052
-638.638	-81.254	-0.124	-0.041
-637.624	-14.215	0.113	-0.073
-636.609	-44.214	-0.213	0.107
-635.595	-174.786	0.239	-0.007
-634.580	-200.000	-0.008	-0.084
-633.565	-108.630	-0.341	0.073
-632.551	-101.421	0.066	-0.016
-631.536	-61.554	0.041	-0.017
-630.522	-34.285	-0.138	0.076
-629.507	91.827	-0.264	-0.298
-628.492	-6.761	0.201	0.137
-627.478	-129.955	0.453	-0.062
-626.463	-43.541	0.096	-0.049
-625.449	-200.000	0.041	0.208
-624.434	-26.391	-0.141	-0.083
-623.419	150.098	0.043	-0.059
-622.405	800.000	-0.035	-0.129
-621.390	-200.000	0.027	-0.207
-620.376	16.086	-0.151	-0.119
-619.361	294.428	0.148	0.272
-618.346	-59.858	-0.228	-0.098
-617.332	-184.700	0.215	0.003
-616.317	90.697	-0.084	0.095
-615.303	91.695	-0.165	0.186
-614.288	180.512	0.328	-0.482
-613.273	800.000	0.077	-0.228
-612.259	-200.000	0.014	-0.420
-611.244	800.000	0.042	-0.126
-610.230	-12.225	-0.026	0.017
-609.215	2.347	0.259	-0.188
-608.201	-200.000	0.045	-0.371
-607.186	586.093	0.025	0.061
-606.171	-64.353	0.187	0.076
-605.157	-113.640	-0.025	-0.005
-604.142	-67.999	-0.132	0.051
-603.128	108.581	-0.083	0.099
-602.113	376.862	0.080	0.163
-601.098	-144.967	-0.478	-0.044
-600.084	-72.197	-0.195	0.072
-599.069	-104.823	0.363	-0.084
-598.055	-154.859	0.394	0.026
-597.040	-31.116	0.039	-0.022
-596.025	800.000	0.023	0.074
-595.011	-68.770	-0.105	-0.041
-593.996	317.028	0.069	0.130
-592.982	-17.016	-0.084	0.053
-591.967	-24.262	-0.409	-0.244
-590.952	-200.000	0.023	0.165
-589.938	-10.077	-0.338	-0.225
-588.923	482.952	0.048	-0.108
-587.909	-83.255	0.037	-0.012
-586.894	-200.000	0.018	-0.325
-585.879	92.392	0.227	0.256
-584.865	240.705	0.199	0.333
-583.850	-58.415	0.299	-0.130
-582.836	-121.511	0.335	-0.056
-581.821	98.814	0.208	-0.240
-580.806	-134.119	-0.298	0.037
-579.792	-50.117	-0.270	0.128
-578.777	-148.773	-0.088	0.007
-577.763	-200.000	-0.003	0.229
-576.748	-200.000	-0.002	-0.187
-575.733	-104.252	-0.320	-0.074
-574.719	-127.184	0.220	0.032
-573.704	11.568	-0.218	0.167
-572.690	64.527	0.067	0.067
-571.675	223.717	-0.132	0.212
-570.661	-97.542	0.280	0.073
-569.646	-177.736	0.131	0.003
-568.631	-32.361	-0.256	0.143
-567.617	-171.132	-0.225	0.008
-566.602	26.690	0.170	0.142
-565.588	-200.000	0.043	-0.307
-564.573	-68.317	-0.455	-0.177
-563.558	-27.647	-0.211	0.123
-562.544	-200.000	0.000	0.287
-561.529	-200.000	0.005	-0.107
-560.515	184.451	0.045	0.067
-559.500	-34.870	-0.323	0.176
-558.485	76.867	-0.135	0.143
-557.471	126.278	-0.085	0.107
-556.456	184.165	0.266	0.394
-555.442	-17.297	0.326	-0.205
-554.427	262.163	-0.181	-0.313
-553.412	523.386	0.126	-0.296
-552.398	800.000	0.034	-0.126
-551.383	2.947	-0.032	-0.023
-550.369	120.740	-0.176	0.218
-549.354	177.397	-0.224	0.326
-548.339	694.597	-0.044	-0.115
-547.325	245.156	0.077	0.130
-546.310	800.000	0.032	0.133
-545.296	-101.929	0.243	-0.059
-544.281	67.953	0.182	0.186
-543.266	280.096	0.118	0.210
-542.252	-200.000	-0.003	-0.216
-541.237	-153.717	0.165	0.011
-540.223	32.331	-0.135	-0.116
-539.208	800.000	0.049	-0.209
-538.193	-200.000	0.011	-0.193
-537.179	-200.000	0.001	-0.131
-536.164	-69.179	0.168	-0.064
-535.150	241.789	0.229	-0.383
-534.135	-200.000	-0.008	0.212
-533.121	784.258	-0.022	0.061
-532.106	620.039	-0.014	-0.035
-531.091	21.686	-0.142	0.116
-530.077	-169.986	0.215	-0.008
-529.062	800.000	0.088	-0.264
-528.048	-46.387	-0.059	-0.029
-527.033	-102.632	0.259	-0.062
-526.018	-147.054	-0.428	0.037
-525.004	551.004	-0.041	0.097
-523.989	-200.000	-0.025	0.231
-522.975	584.872	0.086	0.210
-521.960	800.000	0.111	-0.395
-520.945	800.000	0.117	0.334
-519.931	-173.110	0.168	-0.005
-518.916	-146.527	0.139	-0.012
-517.902	293.066	-0.170	0.310
-516.887	-50.904	-0.249	-0.117
-515.872	-18.779	-0.287	-0.179
-514.858	217.881	-0.232	-0.369
-513.843	6.421	0.118	0.087
-512.829	125.792	-0.034	0.043
-511.814	-16.828	0.100	-0.063
-510.799	-106.919	0.215	0.048
-509.785	-200.000	0.042	-0.187
-508.770	157.227	0.147	-0.203
-507.756	-169.902	-0.271	0.010
-506.741	-5.217	-0.380	-0.261
-505.726	-200.000	-0.009	-0.112
-504.712	137.848	0.149	-0.195
-503.697	81.625	-0.146	-0.158
-502.683	-94.524	-0.135	-0.037
-501.668	-94.737	0.249	-0.067
-500.653	285.470	0.141	-0.253
-499.639	282.958	0.212	0.379
-498.624	-200.000	0.015	0.114
-497.610	-161.716	-0.249	0.013
-496.595	76.973	-0.115	0.121
-495.581	-189.882	-0.416	-0.005
-494.566	304.523	0.218	-0.404
-493.551	-200.000	0.053	0.242
-492.537	173.822	0.206	0.296
-491.522	81.418	-0.363	0.391
-490.508	-200.000	0.069	0.313
-489.493	800.000	-0.105	-0.343
-488.478	-200.000	-0.031	-0.201
-487.464	100.537	0.285	-0.330
-486.449	203.980	-0.098	-0.151
-485.435	160.597	0.176	-0.244
-484.420	419.533	0.083	0.178
-483.405	800.000	0.099	0.314
-482.391	-26.019	0.070	0.041
-481.376	-177.264	0.170	0.004
-480.362	-58.481	0.239	0.103
-479.347	-22.398	0.174	0.105
-478.332	262.100	-0.026	-0.046
-477.318	-200.000	-0.051	-0.270
-476.303	23.488	0.103	-0.084
-475.289	-103.093	0.179	0.042
-474.274	258.452	-0.019	0.032
-473.259	-91.320	0.325	-0.093
-472.245	-121.915	-0.255	-0.042
-471.230	-83.603	-0.148	-0.047
-470.216	-63.244	-0.247	-0.101
-469.201	-200.000	-0.018	0.107
-468.186	-200.000	-0.008	-0.175
-467.172	549.665	-0.068	-0.161
-466.157	415.805	0.060	-0.128
-465.143	-160.321	0.270	-0.014
-464.128	482.338	-0.158	0.357
-463.113	800.000	0.093	0.263
-462.099	51.823	0.069	0.065
-461.084	26.714	-0.039	-0.032
-460.070	184.348	0.211	-0.311
-459.055	132.152	0.098	-0.125
-458.040	-95.368	-0.246	-0.066
-457.026	107.541	-0.150	-0.178
-456.011	18.694	0.314	-0.250
-454.997	63.187	0.240	0.240
-453.982	-200.000	-0.235	-0.001
-452.968	-118.448	-0.297	-0.052
-451.953	-91.322	0.106	-0.030
-450.938	95.917	0.248	-0.281
-449.924	-200.000	-0.004	0.143
-448.909	-57.980	-0.030	-0.013
-447.895	12.777	-0.375	0.288
-446.880	-116.116	-0.130	-0.024
-445.865	-200.000	-0.040	-0.307
-444.851	-96.085	0.272	-0.072
-443.836	111.948	-0.146	-0.176
-442.822	-81.609	0.179	0.058
-441.807	598.661	-0.063	-0.156
-440.792	100.754	0.069	-0.080
-439.778	25.920	0.113	-0.094
-438.763	-83.780	-0.284	0.090
-437.749	1.607	-0.359	0.257
-436.734	-200.000	0.058	-0.254
-435.719	295.234	-0.071	0.130
-434.705	-140.437	0.197	-0.020
-433.690	6.518	0.441	0.326
-432.676	216.881	0.157	0.249
-431.661	-27.535	-0.239	-0.138
-430.646	-6.113	-0.175	0.119
-429.632	610.746	-0.062	0.154
-428.617	-200.000	-0.006	0.147
-427.603	-111.679	0.117	-0.024
-426.588	19.130	-0.084	-0.067
-425.573	-145.556	0.107	-0.010
-424.559	-200.000	0.002	0.228
-423.544	503.503	-0.135	-0.310
-422.530	-57.998	0.141	-0.061
-421.515	-200.000	0.029	0.290
-420.500	800.000	0.025	-0.078
-419.486	-104.469	0.287	-0.066
-418.471	-200.000	-0.001	0.064
-417.457	181.031	0.232	0.339
-416.442	800.000	-0.105	0.457
-415.428	-2.443	-0.347	-0.242
-414.413	26.377	-0.136	0.113
-413.398	-200.000	-0.012	0.265
-412.384	-200.000	0.043	0.290
-411.369	-109.121	-0.196	-0.041
-410.355	-1.668	0.035	-0.024
-409.340	-114.180	-0.195	0.037
-408.325	-47.988	-0.157	0.075
-407.311	-77.319	0.029	-0.010
-406.296	-19.243	-0.149	-0.092
-405.282	800.000	0.042	-0.135
-404.267	112.441	-0.122	-0.146
-403.252	46.011	-0.196	0.180
-402.238	213.479	-0.223	0.350
-401.223	-200.000	-0.080	0.368
-400.209	800.000	-0.030	0.118
-399.194	253.263	0.094	0.159
-398.179	-200.000	0.010	0.108
-397.165	-36.509	0.440	0.235
-396.150	-200.000	0.035	-0.306
-395.136	-129.582	-0.071	-0.010
-394.121	247.778	-0.242	0.406
-393.106	-35.032	-0.165	-0.090
-392.092	392.075	-0.171	-0.352
-391.077	64.649	0.070	0.070
-390.063	44.685	0.341	0.311
-389.048	800.000	-0.029	-0.088
-388.033	58.657	0.132	0.129
-387.019	-35.087	-0.155	0.084
-386.004	-5.134	0.124	-0.084
-384.990	-147.701	-0.254	0.021
-383.975	386.488	-0.112	0.229
-382.960	19.338	0.238	-0.189
-381.946	-45.005	-0.054	0.027
-380.931	800.000	0.021	0.087
-379.917	73.463	0.327	0.340
-378.902	-69.671	-0.276	0.105
-377.888	800.000	0.039	0.108
-376.873	-177.261	0.039	0.001
-375.858	800.000	0.079	-0.222
-374.844	418.494	0.160	-0.340
-373.829	74.442	-0.172	-0.180
-372.815	-104.061	-0.126	-0.029
-371.800	-25.776	-0.118	-0.069
-370.785	411.072	0.086	-0.182
-369.771	-11.928	0.183	0.119
-368.756	185.763	0.076	0.112
-367.742	-52.425	-0.367	-0.169
-366.727	-146.982	0.159	0.014
-365.712	-169.253	-0.414	0.015
-364.698	800.000	0.006	0.017
-363.683	-48.241	0.203	0.097
-362.669	800.000	0.044	0.131
-361.654	-92.251	-0.199	0.056
-360.639	-53.879	-0.103	-0.047
-359.625	-200.000	-0.027	-0.186
-358.610	-125.426	0.185	-0.028
-357.596	800.000	0.109	0.392
-356.581	800.000	0.087	-0.294
-355.566	127.452	0.248	-0.312
-354.552	-69.576	0.166	-0.063
-353.537	-200.000	0.084	-0.395
-352.523	547.685	-0.017	0.040
-351.508	596.808	-0.037	-0.090
-350.493	-124.297	0.370	0.057
-349.479	-44.566	0.282	-0.140
-348.464	246.237	-0.072	-0.120
-347.450	-10.854	-0.155	0.101
-346.435	64.745	0.156	-0.156
-345.420	72.735	-0.157	0.162
-344.406	-200.000	0.017	-0.129
-343.391	-200.000	0.043	-0.353
-342.377	598.471	0.048	-0.119
-341.362	74.110	-0.039	-0.041
-340.348	-200.000	0.082	0.365
-339.333	-113.653	0.216	0.042
-338.318	-9.109	0.100	-0.067
-337.304	-48.187	-0.060	-0.029
-336.289	-200.000	0.184	0.000
-335.275	195.437	-0.129	-0.194
-334.260	184.592	0.171	-0.252
-333.245	-200.000	-0.029	0.361
-332.231	44.099	0.132	0.119
-331.216	800.000	-0.035	0.135
-330.202	202.159	-0.263	-0.402
-329.187	452.613	0.068	0.150
-328.172	80.067	0.320	0.340
-327.158	-71.142	-0.148	-0.055
-326.143	-147.858	-0.266	0.022
-325.129	56.509	0.262	0.252
-324.114	800.000	-0.086	-0.271
-323.099	-131.636	-0.091	-0.012
-322.085	-200.000	0.029	-0.249
-321.070	-200.000	-0.008	-0.078
-320.056	-200.000	0.029	-0.328
-319.041	281.083	-0.180	-0.318
-318.026	68.668	-0.193	0.196
-317.012	800.000	-0.093	-0.340
-315.997	-88.675	0.118	-0.035
-314.983	370.191	0.082	-0.165
-313.968	32.532	-0.214	-0.183
-312.953	-84.173	0.193	-0.060
-311.939	-200.000	0.059	0.487
-310.924	-200.000	-0.024	0.000
-309.910	-135.483	0.178	0.021
-308.895	417.126	-0.049	-0.104
-307.880	22.735	-0.162	0.131
-306.866	99.842	0.101	-0.116
-305.851	800.000	-0.070	0.268
-304.837	-102.573	-0.227	-0.054
-303.822	-73.789	-0.545	0.196
-302.807	-200.000	-0.019	0.116
-301.793	141.882	0.133	-0.175
-300.778	663.968	0.078	-0.199
-299.764	-100.711	-0.317	0.077
-298.749	-53.153	-0.519	0.236
-297.735	21.195	0.085	-0.068
-296.720	-21.610	0.111	0.067
-295.705	-200.000	-0.008	0.343
-294.691	1.297	-0.286	0.203
-293.676	-47.385	-0.239	-0.115
-292.662	-200.000	0.341	0.001
-291.647	317.131	0.087	0.162
-290.632	206.094	0.175	-0.270
-289.618	621.282	0.013	-0.032
-288.603	2.622	-0.076	-0.055
-287.589	-200.000	-0.008	0.192
-286.574	800.000	0.028	-0.100
-285.559	685.685	0.138	0.355
-284.545	-200.000	0.049	0.345
-283.530	22.001	-0.289	-0.233
-282.516	-68.614	-0.250	-0.096
-281.501	-132.639	0.237	-0.030
-280.486	-200.000	-0.018	0.183
-279.472	17.848	0.341	0.268
-278.457	-155.729	0.262	-0.017
-277.443	134.007	0.188	-0.240
-276.428	605.170	-0.059	0.145
-275.413	-200.000	-0.032	0.382
-274.399	800.000	0.124	-0.513
-273.384	-200.000	0.097	0.431
-272.370	-137.630	-0.264	-0.029
-271.355	-200.000	-0.010	0.247
-270.340	277.236	0.027	0.047
-269.326	-96.077	0.084	-0.022
-268.311	800.000	-0.071	0.235
-267.297	-93.479	0.363	0.099
-266.282	-111.701	-0.167	-0.033
-265.267	-143.246	-0.593	0.056
-264.253	-100.567	0.179	0.044
-263.238	-59.112	0.143	-0.061
-262.224	11.685	0.102	-0.078
-261.209	-200.000	-0.017	-0.136
-260.195	-146.995	-0.053	0.004
-259.180	158.659	-0.150	-0.206
-258.165	87.355	0.051	-0.056
-257.151	-200.000	-0.021	0.268
-256.136	800.000	0.017	-0.056
-255.122	-93.214	-0.184	-0.051
-254.107	-22.121	0.039	0.023
-253.092	800.000	0.100	-0.354
-252.078	-73.110	-0.201	0.073
-251.063	-200.000	0.021	0.144
-250.049	382.627	-0.076	0.154
-249.034	-89.526	-0.297	-0.086
-248.019	68.026	0.110	0.111
-247.005	563.833	-0.096	0.230
-245.990	-6.890	0.147	0.098
-244.976	69.960	0.110	0.112
-243.961	-139.318	0.292	-0.031
-242.946	800.000	0.047	-0.173
-241.932	90.461	-0.222	-0.245
-240.917	-120.419	0.293	-0.049
-239.903	59.387	-0.106	0.103
-238.888	416.444	-0.141	0.297
-237.873	-100.087	-0.234	-0.057
-236.859	-200.000	-0.008	-0.067
-235.844	-87.407	0.266	0.079
-234.830	16.302	0.101	0.079
-233.815	-68.496	0.163	-0.062
-232.800	670.160	-0.116	0.297
-231.786	36.700	0.382	0.333
-230.771	-200.000	0.028	-0.232
-229.757	800.000	0.022	0.087
-228.742	725.682	0.032	-0.085
-227.727	-101.066	-0.298	-0.072
-226.713	800.000	0.022	-0.073
-225.698	-169.248	-0.128	0.005
-224.684	-98.692	-0.120	0.030
-223.669	59.236	-0.096	0.093
-222.655	-106.529	-0.068	0.015
-221.640	800.000	0.017	0.051
-220.625	148.109	-0.110	-0.146
-219.611	-45.370	0.233	0.114
-218.596	-157.073	0.216	0.013
-217.582	309.975	-0.124	-0.228
-216.567	98.478	0.203	-0.231
-215.552	-6.377	-0.007	0.004
-214.538	35.398	-0.267	0.231
-213.523	-78.432	0.156	-0.053
-212.509	136.660	0.190	-0.245
-211.494	-22.339	0.193	0.115
-210.479	-132.566	-0.440	0.056
-209.465	131.505	-0.052	0.066
-208.450	13.862	0.117	0.090
-207.436	-40.034	0.264	-0.136
-206.421	609.399	-0.039	-0.095
-205.406	-79.453	-0.380	0.127
-204.392	-59.350	0.170	-0.072
-203.377	-24.430	-0.176	-0.103
-202.363	73.570	-0.067	-0.069
-201.348	-55.613	-0.086	0.038
-200.333	-53.068	-0.396	-0.180
-199.319	800.000	0.058	0.166
-198.304	12.445	-0.121	0.092
-197.290	4.358	-0.270	-0.195
-196.275	94.345	-0.086	-0.096
-195.260	800.000	-0.055	0.228
-194.246	13.284	0.255	-0.195
-193.231	-95.771	0.434	0.114
-192.217	-200.000	0.012	0.128
-191.202	572.586	0.047	0.112
-190.187	-15.849	0.085	-0.053
-189.173	36.837	0.187	-0.163
-188.158	101.053	0.138	0.158
-187.144	-200.000	0.027	-0.155
-186.129	53.786	0.212	0.200
-185.114	-200.000	0.003	0.108
-184.100	800.000	0.068	0.229
-183.085	800.000	-0.104	-0.288
-182.071	-55.538	0.129	-0.057
-181.056	-98.911	-0.169	0.042
-180.042	85.875	0.173	0.187
-179.027	136.000	-0.130	0.167
-178.012	68.099	-0.181	0.182
-176.998	-191.919	-0.113	0.001
-175.983	-200.000	-0.006	0.041
-174.969	41.981	0.293	-0.262
-173.954	297.000	-0.086	-0.156
-172.939	-65.676	-0.191	0.075
-171.925	19.659	0.109	0.087
-170.910	198.758	-0.299	-0.450
-169.896	14.777	-0.164	-0.126
-168.881	65.051	0.233	-0.232
-167.866	800.000	0.088	0.271
-166.852	-52.735	-0.082	-0.037
-165.837	61.482	0.232	0.227
-164.823	24.334	-0.045	-0.036
-163.808	-117.340	-0.371	-0.066
-162.793	36.395	-0.113	-0.098
-161.779	148.845	0.234	-0.311
-160.764	-115.488	-0.116	-0.021
-159.750	166.986	-0.050	0.070
-158.735	23.066	-0.146	0.118
-157.720	294.338	0.064	0.115
-156.706	-86.811	-0.240	0.072
-155.691	-47.911	0.177	0.084
-154.677	148.434	0.100	0.132
-153.662	64.257	0.082	0.082
-152.647	331.884	0.124	0.235
-151.633	98.217	-0.206	0.233
-150.618	-95.022	-0.193	0.051
-149.604	64.349	0.377	0.373
-148.589	-122.360	-0.110	0.018
-147.574	-95.666	-0.103	0.027
-146.560	-200.000	-0.012	-0.062
-145.545	-111.167	0.276	0.056
-144.531	41.147	0.261	0.232
-143.516	800.000	0.084	-0.257
-142.502	-67.509	-0.425	-0.164
-141.487	-200.000	0.032	-0.216
-140.472	414.705	-0.135	0.283
-139.458	-91.623	0.354	-0.099
-138.443	113.524	0.063	-0.076
-137.429	51.601	-0.135	0.126
-136.414	-41.617	0.095	-0.048
-135.399	30.445	0.023	-0.020
-134.385	39.063	0.198	-0.174
-133.370	320.480	0.138	-0.257
-132.356	-85.608	-0.006	0.002
-131.341	-200.000	-0.003	0.165
-130.326	132.611	-0.116	-0.147
-129.312	-71.921	0.242	0.089
-128.297	-33.289	-0.201	-0.110
-127.283	26.162	0.295	0.242
-126.268	-200.000	-0.023	0.192
-125.253	-200.000	0.012	-0.174
-124.239	-25.861	-0.219	0.127
-123.224	-144.285	0.280	-0.026
-122.210	325.316	-0.134	0.252
-121.195	111.948	0.234	0.278
-120.180	214.444	-0.364	0.567
-119.166	59.138	-0.252	0.244
-118.151	8.202	-0.048	0.035
-117.137	671.144	-0.051	-0.131
-116.122	-136.310	0.334	-0.038
-115.107	-66.097	0.159	-0.062
-114.093	50.995	-0.235	-0.219
-113.078	131.482	0.082	-0.104
-112.064	-200.000	0.080	0.347
-111.049	-200.000	-0.016	0.100
-110.034	206.488	0.173	0.264
-109.020	161.088	0.154	-0.211
-108.005	-50.859	0.168	0.077
-106.991	-74.223	0.110	0.039
-105.976	61.913	0.226	-0.221
-104.962	-200.000	0.035	0.409
-103.947	-37.598	-0.242	0.126
-102.932	-199.348	0.241	0.001
-101.918	-54.055	0.103	-0.046
-100.903	218.893	0.182	0.285
-99.889	92.337	-0.251	-0.277
-98.874	-143.874	0.267	-0.025
-97.859	180.954	0.117	-0.169
-96.845	251.654	-0.167	-0.278
-95.830	-107.060	0.179	0.039
-94.816	34.393	0.266	0.228
-93.801	6.311	-0.305	-0.222
-92.786	-200.000	-0.008	0.155
-91.772	-200.000	0.010	0.144
-90.757	374.687	-0.057	-0.114
-89.743	-113.860	-0.075	0.014
-88.728	99.528	0.066	0.075
-87.713	197.983	0.030	-0.044
-86.699	-121.442	0.047	0.008
-85.684	800.000	-0.046	0.189
-84.670	-185.146	-0.326	-0.005
-83.655	46.738	0.176	0.160
-82.640	163.615	0.235	0.325
-81.626	-71.967	-0.083	-0.030
-80.611	-40.136	0.163	0.083
-79.597	-200.000	0.021	-0.418
-78.582	-4.142	0.344	0.234
-77.567	663.742	0.055	-0.138
-76.553	-10.852	0.412	0.267
-75.538	-109.310	-0.157	0.033
-74.524	269.135	0.206	0.354
-73.509	25.730	0.064	-0.052
-72.494	-32.488	-0.170	0.093
-71.480	800.000	-0.097	0.361
-70.465	454.449	0.108	0.234
-69.451	186.307	0.116	0.170
-68.436	-200.000	0.028	-0.248
-67.422	800.000	0.084	-0.241
-66.407	-10.562	-0.212	0.138
-65.392	-102.673	0.277	0.065
-64.378	-107.500	0.089	0.019
-63.363	58.929	0.035	0.034
-62.349	-120.553	0.131	0.022
-61.334	35.194	-0.991	-0.851
-60.319	-33.805	0.845	0.456
-59.305	284.448	-0.535	-0.944
-58.290	288.320	0.784	1.390
-57.276	800.000	0.590	1.619
-56.261	-200.000	105.574	622.012
-55.246	524.417	1499.837	3455.940
-54.232	178.093	2690.293	3845.271
-53.217	112.157	2176.671	2577.364
-52.203	40.309	1699.272	1497.716
-51.188	32.726	1509.690	1279.359
-50.173	30.495	1482.963	1241.775
-49.159	51.575	1538.831	1432.712
-48.144	51.849	1554.974	1449.550
-47.130	32.986	1511.659	1282.590
-46.115	29.850	1496.917	1248.905
-45.100	29.731	1492.884	1244.693
-44.086	29.676	1490.748	1242.493
-43.071	29.583	1489.015	1240.370
-42.057	29.613	1487.064	1238.898
-41.042	29.558	1485.881	1237.499
-40.027	29.640	1484.481	1236.831
-39.013	29.622	1482.565	1235.061
-37.998	29.517	1481.873	1233.737
-36.984	29.531	1480.610	1232.727
-35.969	29.634	1479.111	1232.120
-34.954	29.525	1478.437	1230.780
-33.940	29.511	1476.327	1228.884
-32.925	29.612	1474.779	1228.218
-31.911	29.643	1473.891	1227.634
-30.896	29.695	1472.393	1226.687
-29.881	29.679	1471.163	1225.507
-28.867	29.732	1469.697	1224.584
-27.852	29.675	1468.548	1223.205
-26.838	29.685	1466.960	1221.901
-25.823	29.700	1465.328	1220.590
-24.809	29.732	1463.916	1219.576
-23.794	29.727	1462.391	1218.226
-22.779	29.620	1461.419	1216.658
-21.765	29.763	1460.269	1216.595
-20.750	29.727	1459.519	1215.688
-19.736	29.689	1458.346	1214.412
-18.721	29.616	1457.342	1213.050
-17.706	29.568	1456.441	1211.937
-16.692	29.694	1454.846	1211.384
-15.677	29.630	1453.936	1210.160
-14.663	29.656	1453.210	1209.675
-13.648	29.688	1451.647	1208.540
-12.633	29.586	1451.303	1207.537
-11.619	29.567	1450.504	1206.700
-10.604	29.560	1449.664	1205.908
-9.590	29.509	1448.866	1204.865
-8.575	29.631	1447.867	1204.777
-7.560	29.605	1446.800	1203.674
-6.546	29.602	1446.239	1203.141
-5.531	29.563	1445.289	1202.049
-4.517	29.491	1444.752	1201.088
-3.502	29.591	1443.400	1200.564
-2.487	29.551	1441.746	1198.884
-1.473	29.536	1441.390	1198.444
-0.458	29.556	1439.729	1197.142
0.556	27.278	1430.743	1186.132
1.571	24.355	1404.765	1145.747
2.586	20.863	1345.274	1075.606
3.600	19.326	1263.757	1001.422
4.615	18.281	1219.416	960.337
5.629	15.723	1164.522	903.303
6.644	7.689	1081.801	798.827
7.659	0.851	1042.324	736.412
8.673	-0.139	1036.477	727.425
9.688	-0.345	1033.220	724.078
10.702	-0.320	1031.790	723.134
11.717	-0.417	1029.861	721.251
12.731	2.470	1032.486	736.936
13.746	11.062	1044.883	787.428
14.761	18.027	1053.561	827.757
15.775	19.683	1055.060	836.889
16.790	20.014	1054.319	837.827
17.804	19.688	1054.124	836.023
18.819	19.620	1052.955	834.693
19.834	19.657	1052.478	834.418
20.848	19.710	1052.375	834.519
21.863	19.820	1051.563	834.334
22.877	19.610	1051.649	833.313
23.892	19.742	1050.608	833.050
24.907	19.567	1049.466	831.229
25.921	19.696	1049.461	831.772
26.936	19.678	1048.707	831.014
27.950	19.591	1047.297	829.407
28.965	19.724	1046.010	828.951
29.980	19.645	1044.042	826.940
30.994	19.550	1042.546	825.230
32.009	19.660	1042.485	825.631
33.023	19.731	1041.661	825.247
34.038	19.661	1040.031	823.550
35.053	19.420	1039.752	822.104
36.067	19.870	1038.654	823.308
37.082	19.918	1037.688	822.696
38.096	19.734	1037.397	821.516
39.111	19.873	1036.595	821.469
40.126	20.076	1035.337	821.364
41.140	19.978	1033.556	819.417
42.155	19.778	1032.212	817.331
43.169	19.467	1031.337	815.098
44.184	19.517	1030.142	814.316
45.199	19.451	1029.289	813.259
46.213	19.351	1028.205	811.859
47.228	19.432	1026.922	811.154
48.242	19.470	1026.425	810.868
49.257	19.637	1025.361	810.741
50.271	19.613	1024.402	809.797
51.286	19.755	1023.859	809.963
52.301	19.869	1022.796	809.584
53.315	19.873	1022.184	809.046
54.330	19.804	1021.335	807.982
55.344	19.843	1020.423	807.368
56.359	19.749	1019.474	806.111
57.374	19.743	1018.535	805.266
58.388	19.636	1017.565	803.933
59.403	19.527	1016.892	802.820
60.417	19.615	1015.676	802.200
61.432	19.441	1015.177	800.928
62.447	19.424	1014.559	800.290
63.461	19.521	1013.759	800.039
64.476	19.591	1012.745	799.488
65.490	19.578	1011.935	798.720
66.505	19.531	1010.501	797.299
67.520	19.451	1010.233	796.649
68.534	19.684	1009.332	796.942
69.549	19.554	1008.127	795.321
70.563	19.146	1007.095	792.560
71.578	19.144	1005.954	791.582
72.593	19.253	1005.446	791.611
73.607	19.064	1004.296	789.772
74.622	18.972	1003.456	788.617
75.636	19.371	1002.538	789.655
76.651	19.475	1001.755	789.442
77.666	19.332	1000.819	787.984
78.680	19.316	999.770	787.016
79.695	19.359	999.369	786.826
80.709	19.464	998.177	786.296
81.724	19.474	998.075	786.191
82.739	19.418	997.219	785.191
83.753	19.420	996.088	784.243
84.768	19.721	995.594	785.149
85.782	19.870	995.217	785.458
86.797	20.012	994.284	785.299
87.812	19.912	993.424	784.098
88.826	19.782	992.411	782.638
89.841	19.738	992.023	782.067
90.855	19.994	990.728	782.132
91.870	20.015	990.376	781.877
92.884	19.961	989.366	780.768
93.899	19.958	988.045	779.643
94.914	19.717	987.491	778.054
95.928	19.810	986.449	777.581
96.943	19.846	985.789	777.156
97.957	19.706	984.291	775.276
98.972	19.482	983.038	773.218
99.987	19.260	982.283	771.559
101.001	19.344	981.678	771.392
102.016	19.629	981.500	772.458
103.030	19.749	980.402	772.065
104.045	19.691	978.807	770.482
105.060	19.504	977.517	768.567
106.074	19.346	976.032	766.625
107.089	19.296	975.914	766.245
108.103	19.645	975.716	767.572
109.118	19.766	974.850	767.357
110.133	19.637	973.159	765.389
111.147	19.632	972.407	764.707
112.162	19.513	970.937	762.956
113.176	19.292	969.963	761.151
114.191	19.434	969.445	761.302
115.206	19.502	968.045	760.433
116.220	19.162	967.153	758.171
117.235	19.113	966.053	757.027
118.249	19.292	965.166	757.049
119.264	19.251	964.485	756.270
120.279	19.268	963.203	755.271
121.293	19.173	962.515	754.249
122.308	19.280	962.307	754.488
123.322	19.239	961.518	753.621
124.337	19.354	959.954	752.832
125.352	19.213	958.634	751.115
126.366	18.735	957.022	747.705
127.381	18.394	955.464	744.941
128.395	19.032	955.303	747.519
129.410	19.600	954.596	749.367
130.424	19.718	953.851	749.227
131.439	19.730	953.021	748.562
132.454	19.647	951.664	747.070
133.468	19.566	951.367	746.419
134.483	19.574	950.322	745.569
135.497	19.601	949.452	744.935
136.512	19.922	948.854	745.786
137.527	19.862	948.066	744.843
138.541	19.882	947.652	744.537
139.556	20.043	946.448	744.216
140.570	19.883	945.873	743.011
141.585	19.901	944.863	742.230
142.600	19.900	944.126	741.582
143.614	19.588	943.333	739.557
144.629	19.884	942.376	740.007
145.643	20.183	941.683	740.673
146.658	19.979	940.485	738.798
147.673	19.837	939.579	737.415
148.687	19.900	938.209	736.541
149.702	19.767	937.429	735.298
150.716	19.681	936.082	733.812
151.731	19.698	935.395	733.280
152.746	19.721	934.448	732.571
153.760	20.021	933.776	733.248
154.775	20.128	933.185	733.174
155.789	20.141	932.462	732.596
156.804	20.089	931.349	731.436
157.819	19.890	930.144	729.586
158.833	20.070	929.362	729.668
159.848	20.172	928.368	729.250
160.862	20.173	927.829	728.766
161.877	19.999	927.231	727.499
162.892	20.157	926.004	727.136
163.906	20.145	925.544	726.661
164.921	20.131	924.073	725.384
165.935	20.083	923.197	724.432
166.950	20.093	921.910	723.398
167.964	20.166	920.792	722.762
168.979	20.090	920.285	721.983
169.994	19.976	919.518	720.844
171.008	19.931	918.286	719.628
172.023	19.896	917.847	719.075
173.037	20.130	916.653	719.044
174.052	20.001	915.314	717.399
175.067	19.744	914.384	715.540
176.081	19.846	913.702	715.367
177.096	19.788	913.146	714.628
178.110	19.966	912.079	714.464
179.125	19.567	911.236	712.095
180.140	19.447	910.180	710.714
181.154	19.616	909.287	710.650
182.169	19.561	909.197	710.290
183.183	19.825	908.443	710.720
184.198	19.966	908.292	711.119
185.213	20.059	906.922	710.365
186.227	20.034	906.486	709.859
187.242	19.917	906.264	709.142
188.256	20.045	905.721	709.180
189.271	20.129	904.435	708.452
190.286	20.064	904.217	707.954
191.300	19.937	902.939	706.373
192.315	19.463	901.722	703.426
193.329	18.793	900.685	699.826
194.344	18.580	899.096	697.662
195.359	19.229	899.472	700.533
196.373	19.952	899.661	703.559
197.388	20.009	899.499	703.598
198.402	20.019	898.446	702.753
199.417	19.787	897.943	701.358
200.432	19.965	897.291	701.509
201.446	19.801	896.379	700.071
202.461	19.416	896.085	698.218
203.475	19.484	895.481	697.961
204.490	19.148	893.438	694.951
205.504	18.070	892.009	689.433
206.519	18.647	892.023	691.708
207.534	19.453	892.280	695.096
208.548	19.542	891.823	695.037
209.563	19.872	891.387	695.964
210.577	19.921	890.681	695.548
211.592	19.673	889.499	693.567
212.607	20.008	889.599	694.928
213.621	20.121	889.009	694.861
214.636	19.964	888.501	693.773
215.650	20.160	888.066	694.157
216.665	20.122	887.147	693.222
217.680	20.118	886.877	692.934
218.694	20.099	886.336	692.375
219.709	19.840	884.936	690.187
220.723	19.452	884.474	688.219
221.738	19.784	883.527	688.743
222.753	19.934	883.259	689.071
223.767	19.879	882.731	688.378
224.782	19.838	882.125	687.684
225.796	20.106	881.127	687.908
226.811	20.243	880.662	688.028
227.826	19.971	879.007	685.598
228.840	19.002	878.033	680.942
229.855	19.030	877.477	680.561
230.869	19.218	877.163	681.002
231.884	19.042	875.686	679.101
232.899	18.941	875.797	678.726
233.913	19.841	875.640	682.094
234.928	20.063	875.321	682.659
235.942	19.901	874.410	681.251
236.957	20.048	873.524	681.081
237.972	19.609	872.831	678.754
238.986	19.610	872.222	678.226
240.001	19.693	871.764	678.134
241.015	19.747	870.861	677.583
242.030	19.815	870.106	677.202
243.045	19.947	869.407	677.116
244.059	19.900	869.392	676.861
245.074	20.124	868.342	676.856
246.088	20.135	867.831	676.440
247.103	19.721	866.488	673.723
248.117	19.658	866.245	673.229
249.132	20.124	866.305	675.029
250.147	20.409	865.912	675.773
251.161	20.540	865.000	675.512
252.176	20.742	864.370	675.743
253.190	20.765	863.873	675.386
254.205	20.741	863.644	675.051
255.220	20.883	863.268	675.249
256.234	21.022	862.421	675.065
257.249	20.704	861.795	673.284
258.263	20.606	860.859	672.116
259.278	20.672	860.182	671.782
260.293	20.790	859.836	671.910
261.307	20.845	859.266	671.617
262.322	20.765	858.575	670.706
263.336	20.607	857.773	669.414
264.351	19.999	856.585	666.090
265.366	19.057	854.492	660.787
266.380	18.733	853.627	658.819
267.395	19.407	854.284	661.854
268.409	20.449	854.034	665.596
269.424	20.271	853.618	664.531
270.439	20.443	853.087	664.717
271.453	20.548	852.146	664.327
272.468	20.550	851.488	663.763
273.482	20.985	850.509	664.600
274.497	20.990	850.498	664.552
275.512	20.772	849.229	662.670
276.526	20.132	848.149	659.334
277.541	20.257	848.177	659.773
278.555	20.513	847.860	660.441
279.570	20.556	846.507	659.492
280.585	20.204	845.997	657.703
281.599	20.320	845.720	657.869
282.614	20.610	845.005	658.354
283.628	20.170	843.731	655.639
284.643	19.686	843.085	653.248
285.657	20.217	842.876	655.036
286.672	20.130	842.327	654.223
287.687	19.569	841.268	651.226
288.701	19.742	841.721	652.171
289.716	20.374	841.172	654.070
290.730	19.988	839.779	651.479
291.745	19.864	839.416	650.671
292.760	19.598	838.313	648.762
293.774	19.579	838.055	648.432
294.789	20.621	837.960	652.211
295.803	21.011	838.224	653.821
296.818	21.117	837.557	653.643
297.833	21.295	837.123	653.912
298.847	20.915	836.260	651.756
299.862	20.697	834.924	649.846
300.876	20.770	835.072	650.175
301.891	21.016	834.150	650.319
302.906	21.077	833.517	649.994
303.920	20.760	832.313	647.819
304.935	20.607	831.582	646.623
305.949	20.982	831.416	647.831
306.964	21.129	831.058	648.039
307.979	20.842	830.448	646.441
308.993	20.759	830.174	645.864
310.008	21.122	829.948	646.976
311.022	21.331	829.147	647.070
312.037	21.106	828.648	645.791
313.052	20.753	828.542	644.344
314.066	20.899	827.328	643.882
315.081	20.341	825.763	640.548
316.095	19.544	824.578	636.633
317.110	20.001	825.152	638.705
318.125	20.765	824.936	641.299
319.139	20.468	823.652	639.154
320.154	19.277	822.551	633.864
321.168	19.091	821.720	632.484
322.183	19.684	821.411	634.367
323.197	20.488	821.643	637.440
324.212	20.772	821.564	638.366
325.227	21.011	821.039	638.775
326.241	21.031	820.751	638.568
327.256	20.926	820.170	637.676
328.270	20.755	819.624	636.570
329.285	20.731	818.859	635.832
330.300	20.607	818.129	634.753
331.314	20.354	817.201	633.056
332.329	20.418	816.400	632.615
333.343	20.819	816.580	634.158
334.358	21.098	815.887	634.576
335.373	21.039	815.231	633.798
336.387	21.110	815.011	633.827
337.402	21.241	814.675	633.984
338.416	21.278	814.290	633.766
339.431	21.364	813.644	633.519
340.446	21.322	813.032	632.831
341.460	21.514	812.340	632.933
342.475	21.489	811.986	632.511
343.489	21.173	811.212	630.710
344.504	21.348	810.531	630.756
345.519	21.617	810.526	631.668
346.533	21.705	809.831	631.388
347.548	21.663	809.465	630.893
348.562	21.846	809.382	631.434
349.577	21.791	808.459	630.458
350.592	21.762	808.194	630.091
351.606	21.741	807.714	629.586
352.621	21.839	806.869	629.223
353.635	21.627	806.876	628.413
354.650	21.504	806.194	627.386
355.665	21.350	804.889	625.763
356.679	20.340	803.021	620.647
357.694	20.089	803.066	619.729
358.708	20.742	802.602	621.649
359.723	20.755	802.159	621.298
360.738	21.028	802.179	622.231
361.752	21.334	802.388	623.432
362.767	21.396	801.625	623.005
363.781	21.726	801.489	624.016
364.796	21.937	801.063	624.382
365.810	22.090	800.519	624.445
366.825	22.134	800.156	624.264
367.840	22.055	799.899	623.728
368.854	21.844	799.396	622.533
369.869	21.530	798.242	620.466
370.883	21.329	797.770	619.330
371.898	21.583	797.335	619.838
372.913	21.389	796.812	618.691
373.927	21.378	795.740	617.766
374.942	21.563	795.261	617.990
375.956	21.659	794.681	617.825
376.971	21.722	794.215	617.628
377.986	21.877	794.202	618.112
379.000	21.973	793.537	617.875
380.015	21.896	793.562	617.569
381.029	21.738	792.697	616.288
382.044	21.840	792.080	616.110
383.059	21.923	791.761	616.099
384.073	21.942	791.065	615.571
385.088	22.016	790.459	615.305
386.102	22.158	790.083	615.453
387.117	22.001	788.991	614.001
388.132	21.855	789.063	613.490
389.146	21.674	787.971	611.954
390.161	21.187	787.277	609.660
391.175	21.213	787.059	609.532
392.190	21.601	786.971	610.763
393.205	21.614	786.346	610.269
394.219	20.881	784.536	606.257
395.234	19.250	783.015	599.361
396.248	18.692	781.787	596.430
397.263	19.648	782.879	600.535
398.278	21.391	783.823	607.267
399.292	21.832	783.475	608.472
400.307	21.554	782.892	607.003
401.321	21.453	782.562	606.343
402.336	21.646	781.858	606.412
403.350	21.785	782.040	606.982
404.365	22.168	781.864	608.115
405.380	22.458	781.604	608.862
406.394	22.611	781.650	609.373
407.409	22.848	780.822	609.492
408.423	22.854	779.963	608.789
409.438	22.655	779.558	607.732
410.453	22.662	779.399	607.578
411.467	22.712	778.995	607.381
412.482	22.480	778.825	606.399
413.496	22.548	778.078	605.996
414.511	22.736	777.885	606.440
415.526	22.858	777.258	606.316
416.540	22.819	776.774	605.752
417.555	22.630	776.425	604.777
418.569	22.466	775.106	603.134
419.584	22.340	775.104	602.648
420.599	22.377	774.776	602.465
421.613	158.511	1362.292	1798.723
422.628	136.827	1447.905	1798.833
