DTS Sentinel unit serial number:	SN413079Multiplexer serial number:	ORYXHardware model number:	OX4-SRSoftware version number:	ORYX F/W v4.00 Oryx Data Collector v3.7.2.0data status	okinstallation	princeton_trtdifferential loss correction	single-endedforward channel	channel 3reverse channel	N/Adate	2019/09/11time	14:58:11forward acquisition time	60.00reverse acquisition time	0.00gamma	496.2192k internal	0.2289k external	0.2289temperature offset calibration	0.9983default loss term (dB/km)	0.3790temperature slope calibration	1.0000multiplexer offset coefficient	1.0000multiplexer slope coefficient	1.0000fibre end	0.00T internal ref (°C)	42.77T ext. ref 1 (°C)	0.94T ext. ref 2 (°C)	38.26length (m)	temperature (°C)	Stokes	anti-Stokes-747.200	-30.003	-0.289	0.168
-746.185	18.727	0.129	0.106
-745.171	57.268	0.321	-0.321
-744.156	-200.000	-0.082	0.429
-743.142	21.140	-0.115	-0.096
-742.127	-200.000	-0.168	0.001
-741.112	-200.000	0.006	-0.109
-740.098	-97.625	-0.342	0.091
-739.083	-200.000	-0.006	0.311
-738.069	245.734	0.131	0.226
-737.054	-200.000	0.001	-0.043
-736.039	-69.345	-0.171	-0.067
-735.025	1.476	0.317	0.233
-734.010	364.851	-0.128	-0.264
-732.996	44.817	-0.137	-0.129
-731.981	39.316	0.163	-0.149
-730.966	382.751	-0.119	0.251
-729.952	447.070	-0.175	-0.394
-728.937	-26.111	-0.224	-0.135
-727.923	-41.889	0.062	-0.033
-726.908	55.161	0.077	0.076
-725.894	179.097	-0.124	0.185
-724.879	-66.669	-0.272	0.111
-723.864	-1.109	-0.108	-0.078
-722.850	206.744	-0.277	-0.442
-721.835	41.684	0.043	-0.040
-720.821	-144.395	-0.431	-0.041
-719.806	787.092	0.061	-0.170
-718.791	-149.055	0.198	0.016
-717.777	323.233	-0.187	-0.364
-716.762	-12.689	-0.133	-0.089
-715.748	273.193	0.173	0.312
-714.733	164.557	0.126	-0.183
-713.718	-92.992	-0.197	-0.056
-712.704	-44.455	-0.191	0.098
-711.689	-23.116	-0.144	0.089
-710.675	-200.000	0.049	0.372
-709.660	-200.000	-0.040	-0.193
-708.645	800.000	0.063	0.229
-707.631	-143.658	-0.514	-0.050
-706.616	-95.597	-0.269	-0.074
-705.602	-137.344	0.258	0.030
-704.587	800.000	0.021	0.064
-703.572	-108.874	-0.116	0.025
-702.558	269.431	0.078	0.139
-701.543	-82.808	-0.265	0.088
-700.529	179.414	-0.102	-0.153
-699.514	416.339	-0.051	-0.111
-698.499	-200.000	-0.353	-0.001
-697.485	-112.255	-0.197	-0.040
-696.470	-43.336	-0.120	-0.062
-695.456	-57.140	0.337	0.152
-694.441	-152.725	-0.354	-0.026
-693.426	10.976	-0.188	0.147
-692.412	-200.000	0.027	0.170
-691.397	-200.000	-0.024	-0.173
-690.383	396.930	0.130	-0.278
-689.368	83.014	0.036	0.040
-688.354	143.049	-0.241	-0.328
-687.339	25.020	0.311	-0.264
-686.324	160.855	0.157	-0.224
-685.310	163.950	-0.259	0.373
-684.295	109.760	-0.088	-0.108
-683.281	-40.799	0.197	0.104
-682.266	-42.545	-0.243	0.127
-681.251	223.989	0.076	0.126
-680.237	19.578	-0.273	0.225
-679.222	335.610	-0.069	-0.137
-678.208	-142.722	0.200	-0.020
-677.193	-146.844	0.270	0.024
-676.178	252.758	0.025	-0.044
-675.164	132.271	-0.079	-0.104
-674.149	65.942	-0.253	0.262
-673.135	53.409	-0.161	0.158
-672.120	-50.385	0.215	0.104
-671.105	166.111	0.168	0.243
-670.091	-119.318	0.252	0.045
-669.076	-41.071	0.067	-0.035
-668.062	38.441	0.112	-0.102
-667.047	30.068	-0.071	-0.062
-666.032	316.950	-0.143	-0.276
-665.018	-200.000	0.063	0.474
-664.003	-200.000	0.062	0.304
-662.989	-200.000	0.019	0.093
-661.974	-45.736	0.058	0.029
-660.959	32.678	-0.237	0.209
-659.945	-200.000	-0.067	-0.334
-658.930	170.626	0.141	-0.207
-657.916	-0.171	-0.401	-0.292
-656.901	-69.169	0.226	-0.089
-655.886	-200.000	0.037	-0.176
-654.872	-200.000	-0.350	0.001
-653.857	-200.000	-0.031	-0.172
-652.843	-78.873	-0.229	0.080
-651.828	-200.000	-0.025	0.293
-650.814	-9.403	0.166	0.113
-649.799	58.766	0.249	-0.250
-648.784	-200.000	0.040	-0.194
-647.770	-154.328	0.252	-0.017
-646.755	119.978	0.015	0.019
-645.741	-200.000	0.011	0.243
-644.726	-90.216	-0.190	0.056
-643.711	-200.000	-0.025	0.170
-642.697	91.608	-0.131	0.150
-641.682	-64.986	0.028	-0.012
-640.668	-120.038	-0.339	-0.059
-639.653	-131.879	0.177	-0.024
-638.638	-200.000	0.071	0.352
-637.624	-191.674	0.089	0.001
-636.609	699.967	0.063	-0.169
-635.595	800.000	0.008	-0.032
-634.580	-6.450	-0.254	-0.177
-633.565	-120.219	-0.317	0.055
-632.551	70.317	-0.038	0.041
-631.536	800.000	-0.058	-0.203
-630.522	245.826	-0.052	0.090
-629.507	290.763	0.060	-0.111
-628.492	-70.295	-0.329	0.127
-627.478	349.271	0.107	-0.216
-626.463	-200.000	0.004	0.058
-625.449	-200.000	0.033	0.255
-624.434	124.427	0.073	0.093
-623.419	-198.487	-0.207	0.001
-622.405	-104.482	-0.150	0.035
-621.390	149.168	-0.158	-0.218
-620.376	-94.319	0.160	0.045
-619.361	-200.000	-0.045	-0.276
-618.346	-24.897	0.136	-0.082
-617.332	-81.818	0.138	0.046
-616.317	474.243	0.069	0.158
-615.303	316.998	-0.083	-0.159
-614.288	206.043	0.068	-0.108
-613.273	40.403	-0.209	-0.192
-612.259	29.569	0.151	0.131
-611.244	-200.000	-0.001	0.334
-610.230	-39.222	0.167	-0.089
-609.215	800.000	0.045	-0.197
-608.201	-81.058	0.540	-0.182
-607.186	-200.000	0.001	0.008
-606.171	-0.817	-0.096	-0.070
-605.157	269.967	0.167	0.299
-604.142	-200.000	-0.067	-0.317
-603.128	-97.440	0.407	-0.108
-602.113	-200.000	0.023	0.189
-601.098	800.000	-0.077	-0.228
-600.084	-200.000	-0.003	0.139
-599.069	800.000	-0.106	0.373
-598.055	-62.261	0.224	0.095
-597.040	-200.000	0.052	0.239
-596.025	-85.451	-0.196	-0.062
-595.011	86.244	-0.245	-0.275
-593.996	800.000	-0.023	0.099
-592.982	-200.000	-0.006	-0.176
-591.967	117.354	-0.071	-0.089
-590.952	514.678	-0.144	-0.343
-589.938	-142.769	-0.155	0.015
-588.923	-61.917	0.140	-0.060
-587.909	-74.463	-0.302	0.111
-586.894	778.307	-0.074	-0.205
-585.879	-117.087	-0.268	-0.050
-584.865	800.000	0.063	0.189
-583.850	-174.830	0.270	-0.008
-582.836	-54.228	0.313	0.145
-581.821	-115.592	0.148	-0.028
-580.806	800.000	0.088	-0.370
-579.792	-200.000	-0.006	0.121
-578.777	-200.000	-0.035	0.181
-577.763	126.465	0.037	-0.048
-576.748	-56.057	0.332	0.150
-575.733	-8.891	-0.187	0.128
-574.719	-81.995	-0.159	-0.053
-573.704	-146.120	0.188	0.017
-572.690	-184.564	0.298	0.005
-571.675	9.589	0.139	-0.107
-570.661	31.885	-0.305	0.267
-569.646	-200.000	0.032	-0.377
-568.631	-88.579	0.370	0.112
-567.617	-123.249	-0.185	0.030
-566.602	-200.000	0.005	0.122
-565.588	60.652	0.305	0.307
-564.573	-102.050	-0.461	-0.113
-563.558	-200.000	0.072	-0.347
-562.544	-200.000	0.025	-0.142
-561.529	-200.000	0.034	-0.195
-560.515	139.348	0.180	-0.242
-559.500	-200.000	-0.020	-0.317
-558.485	-200.000	-0.041	-0.255
-557.471	-102.081	-0.460	0.113
-556.456	102.297	-0.013	-0.015
-555.442	-121.784	0.397	-0.067
-554.427	-108.050	0.298	-0.066
-553.412	330.370	0.160	-0.313
-552.398	-200.000	0.022	-0.183
-551.383	-200.000	-0.004	0.099
-550.369	-101.232	0.231	-0.057
-549.354	-200.000	-0.000	-0.278
-548.339	-69.271	-0.090	-0.035
-547.325	77.916	0.149	0.161
-546.310	-75.547	-0.074	0.027
-545.296	-200.000	0.026	-0.262
-544.281	-200.000	0.002	0.047
-543.266	-39.733	-0.110	0.058
-542.252	800.000	0.040	0.157
-541.237	800.000	-0.042	0.140
-540.223	-200.000	-0.028	0.176
-539.208	-75.986	-0.299	-0.107
-538.193	-119.623	-0.533	0.094
-537.179	64.844	-0.176	0.181
-536.164	800.000	0.045	0.195
-535.150	74.245	0.030	-0.032
-534.135	800.000	0.099	-0.357
-533.121	-200.000	0.016	-0.090
-532.106	-200.000	0.045	0.398
-531.091	-77.866	0.423	0.148
-530.077	135.799	-0.141	-0.186
-529.062	250.400	0.200	-0.345
-528.048	-12.045	-0.195	-0.130
-527.033	-86.858	0.266	-0.082
-526.018	-200.000	-0.047	-0.304
-525.004	28.964	-0.025	-0.022
-523.989	-82.451	-0.193	-0.064
-522.975	53.579	-0.047	0.045
-521.960	82.944	-0.046	0.051
-520.945	-200.000	-0.003	-0.022
-519.931	-3.293	-0.102	-0.072
-518.916	-90.497	0.089	-0.026
-517.902	-74.482	0.320	0.117
-516.887	218.795	-0.156	0.253
-515.872	-113.384	-0.055	-0.011
-514.858	-63.303	-0.340	0.142
-513.843	-200.000	-0.017	0.157
-512.829	60.791	-0.242	-0.243
-511.814	366.076	-0.076	-0.156
-510.799	-200.000	-0.042	0.483
-509.785	-139.816	0.226	-0.024
-508.770	-89.932	-0.026	0.008
-507.756	-115.531	0.161	0.031
-506.741	-65.149	-0.359	0.147
-505.726	130.280	0.283	0.369
-504.712	186.208	0.260	0.393
-503.697	25.881	0.180	-0.152
-502.683	-107.647	-0.354	-0.079
-501.668	346.763	0.117	-0.234
-500.653	96.480	-0.144	0.167
-499.639	-24.928	0.278	0.168
-498.624	-75.571	-0.088	-0.032
-497.610	-165.076	-0.079	0.004
-496.595	800.000	0.077	-0.337
-495.581	743.916	-0.115	-0.314
-494.566	-101.332	-0.124	-0.031
-493.551	443.038	-0.104	-0.232
-492.537	49.104	-0.197	0.188
-491.522	526.327	-0.037	-0.088
-490.508	25.300	-0.347	-0.293
-489.493	-26.278	-0.185	-0.110
-488.478	-200.000	0.000	0.105
-487.464	302.697	0.046	-0.086
-486.449	403.694	0.050	0.108
-485.435	-200.000	0.084	0.429
-484.420	-21.635	-0.162	0.100
-483.405	8.980	-0.091	-0.070
-482.391	200.306	0.070	-0.110
-481.376	-6.652	-0.129	-0.089
-480.362	800.000	-0.046	-0.186
-479.347	199.041	-0.139	0.216
-478.332	493.190	-0.082	0.192
-477.318	-127.953	-0.052	0.008
-476.303	10.171	0.176	0.136
-475.289	56.947	-0.211	0.208
-474.274	242.893	-0.033	-0.055
-473.259	-193.614	-0.135	-0.001
-472.245	-171.394	-0.371	0.013
-471.230	800.000	-0.080	0.234
-470.216	-3.496	-0.291	-0.205
-469.201	174.004	-0.065	-0.096
-468.186	23.042	0.145	0.121
-467.172	-143.823	-0.156	0.015
-466.157	-177.009	-0.051	0.001
-465.143	20.870	-0.220	-0.181
-464.128	-89.791	0.199	-0.059
-463.113	-200.000	0.015	-0.094
-462.099	24.524	0.204	-0.171
-461.084	71.430	0.090	-0.094
-460.070	-181.664	0.271	0.005
-459.055	-59.347	-0.111	-0.048
-458.040	-148.322	0.299	-0.025
-457.026	28.076	0.279	0.239
-456.011	-140.205	-0.459	-0.049
-454.997	153.235	-0.239	0.332
-453.982	800.000	0.081	-0.348
-452.968	80.911	-0.191	0.209
-451.953	-122.331	-0.371	-0.061
-450.938	-117.020	0.332	-0.061
-449.924	-105.702	0.101	-0.023
-448.909	-67.524	0.255	-0.101
-447.895	-19.402	-0.139	0.088
-446.880	-74.759	0.386	0.140
-445.865	315.806	-0.194	-0.371
-444.851	288.226	-0.144	-0.264
-443.836	43.361	-0.093	0.086
-442.822	394.442	-0.038	0.081
-441.807	-33.165	0.091	0.051
-440.792	459.227	-0.071	-0.160
-439.778	385.227	0.060	-0.124
-438.763	-123.325	-0.191	-0.031
-437.749	68.778	-0.028	-0.029
-436.734	195.599	0.081	-0.124
-435.719	800.000	-0.021	0.092
-434.705	-200.000	0.003	-0.145
-433.690	-126.453	-0.068	0.010
-432.676	-86.082	0.137	-0.043
-431.661	-40.061	-0.163	0.086
-430.646	-3.151	0.154	-0.109
-429.632	35.691	-0.111	0.099
-428.617	-89.709	-0.044	-0.013
-427.603	-21.604	-0.224	0.138
-426.588	-200.000	-0.021	-0.243
-425.573	-200.000	-0.043	0.192
-424.559	113.557	0.059	0.072
-423.544	-43.884	-0.150	-0.077
-422.530	-25.281	-0.252	0.151
-421.515	498.255	0.083	-0.194
-420.500	-46.424	0.279	-0.139
-419.486	-59.772	0.061	0.026
-418.471	800.000	-0.050	0.213
-417.457	-200.000	-0.047	-0.367
-416.442	-200.000	0.028	0.144
-415.428	51.797	0.106	0.102
-414.413	-122.966	-0.151	-0.025
-413.398	-200.000	0.046	-0.319
-412.384	220.020	-0.061	0.100
-411.369	-46.576	0.013	0.006
-410.355	-200.000	-0.050	0.298
-409.340	98.810	0.080	0.093
-408.325	-43.126	-0.080	0.041
-407.311	-200.000	0.032	-0.349
-406.296	153.363	0.120	-0.166
-405.282	-92.927	-0.113	-0.032
-404.267	-200.000	0.055	-0.246
-403.252	310.575	0.105	-0.199
-402.238	-30.974	-0.179	-0.102
-401.223	-28.928	0.203	0.118
-400.209	-2.499	-0.249	-0.177
-399.194	368.282	-0.036	-0.074
-398.179	-119.587	0.148	-0.026
-397.165	79.701	-0.203	-0.221
-396.150	424.939	-0.038	0.082
-395.136	-125.344	0.224	-0.035
-394.121	10.124	0.120	-0.092
-393.106	625.605	0.044	-0.112
-392.092	-146.145	-0.125	0.011
-391.077	-88.733	-0.407	-0.122
-390.063	800.000	0.027	0.088
-389.048	-109.853	-0.258	0.055
-388.033	96.182	0.138	0.159
-387.019	285.783	-0.098	0.179
-386.004	30.716	-0.206	0.178
-384.990	6.454	0.281	0.211
-383.975	144.599	0.282	0.381
-382.960	-121.907	0.055	0.009
-381.946	-15.328	-0.259	-0.167
-380.931	-61.437	0.326	0.139
-379.917	292.466	0.088	0.162
-378.902	41.198	-0.156	-0.143
-377.888	800.000	-0.039	-0.128
-376.873	-200.000	0.014	0.079
-375.858	-133.922	0.177	0.022
-374.844	-107.550	0.197	-0.044
-373.829	800.000	-0.173	0.612
-372.815	160.009	0.097	0.136
-371.800	124.063	0.291	-0.370
-370.785	22.319	-0.208	0.171
-369.771	-114.902	-0.210	0.040
-368.756	37.717	0.190	-0.170
-367.742	198.288	0.205	0.317
-366.727	800.000	-0.013	-0.047
-365.712	-22.459	-0.153	0.094
-364.698	800.000	0.049	0.156
-363.683	175.507	-0.058	-0.085
-362.669	378.799	-0.091	-0.187
-361.654	-37.335	-0.252	-0.136
-360.639	800.000	0.008	-0.037
-359.625	80.147	-0.158	0.171
-358.610	237.908	0.062	0.105
-357.596	-200.000	-0.002	0.082
-356.581	103.449	-0.164	-0.194
-355.566	37.718	0.023	-0.021
-354.552	34.950	0.189	0.167
-353.537	800.000	-0.044	0.166
-352.523	-117.836	0.059	0.011
-351.508	-51.129	0.386	0.183
-350.493	310.059	-0.062	0.117
-349.479	107.789	-0.124	-0.149
-348.464	-200.000	0.031	0.171
-347.450	800.000	-0.099	0.314
-346.435	261.218	-0.097	-0.169
-345.420	-200.000	-0.055	0.280
-344.406	-35.046	0.114	-0.063
-343.391	-13.839	0.110	-0.072
-342.377	120.585	0.157	-0.197
-341.362	-200.000	-0.049	0.278
-340.348	658.459	-0.112	0.290
-339.333	-160.097	0.062	-0.003
-338.318	314.462	0.167	0.316
-337.304	-105.052	-0.149	-0.035
-336.289	218.848	-0.013	-0.022
-335.275	-90.616	0.172	-0.050
-334.260	800.000	-0.024	-0.078
-333.245	-5.736	0.339	0.234
-332.231	-179.356	0.327	-0.007
-331.216	10.790	0.108	0.083
-330.202	800.000	-0.115	0.336
-329.187	25.314	-0.113	0.095
-328.172	-200.000	-0.011	0.105
-327.158	-79.232	-0.199	0.068
-326.143	-200.000	0.015	-0.073
-325.129	186.516	0.179	0.269
-324.114	46.663	-0.164	-0.153
-323.099	-200.000	0.048	0.240
-322.085	22.617	-0.203	0.168
-321.070	-111.200	-0.155	0.032
-320.056	-85.508	0.416	0.131
-319.041	-62.216	0.322	-0.135
-318.026	-165.615	-0.158	0.007
-317.012	-90.804	-0.172	0.050
-315.997	238.274	0.056	0.093
-314.983	-200.000	-0.032	-0.259
-313.968	-200.000	0.047	0.224
-312.953	120.051	-0.174	-0.218
-311.939	4.632	0.299	0.221
-310.924	800.000	0.033	0.103
-309.910	-15.139	0.545	-0.352
-308.895	-124.220	0.091	-0.014
-307.880	-108.736	-0.163	0.035
-306.866	-83.183	0.005	0.002
-305.851	-99.885	-0.235	0.059
-304.837	-140.947	0.235	0.024
-303.822	-76.726	0.230	0.081
-302.807	800.000	0.042	-0.158
-301.793	-127.450	-0.416	-0.061
-300.778	-200.000	-0.008	-0.152
-299.764	-127.073	0.317	-0.047
-298.749	17.995	-0.272	0.218
-297.735	89.248	-0.209	-0.235
-296.720	-44.502	-0.061	-0.031
-295.705	-98.643	0.220	0.056
-294.691	203.766	0.198	0.309
-293.676	319.751	0.099	-0.188
-292.662	-93.007	0.310	-0.087
-291.647	119.848	-0.114	-0.142
-290.632	37.456	0.184	0.164
-289.618	91.340	0.087	0.098
-288.603	-86.554	-0.165	-0.051
-287.589	82.021	-0.406	0.443
-286.574	128.269	-0.020	-0.026
-285.559	800.000	0.044	-0.123
-284.545	49.051	0.213	-0.201
-283.530	57.810	-0.102	-0.101
-282.516	73.441	-0.070	0.074
-281.501	13.701	0.050	-0.039
-280.486	-48.354	0.186	-0.090
-279.472	800.000	0.023	0.087
-278.457	12.938	-0.141	-0.110
-277.443	79.658	0.207	0.224
-276.428	305.228	0.144	-0.269
-275.413	-1.111	0.098	0.070
-274.399	-200.000	-0.018	0.154
-273.384	-200.000	0.086	-0.478
-272.370	36.470	-0.149	0.132
-271.355	-121.250	0.563	0.095
-270.340	-141.080	0.085	0.009
-269.326	12.815	-0.200	0.156
-268.311	-158.041	-0.236	0.014
-267.297	443.029	-0.128	-0.282
-266.282	-23.649	-0.181	0.109
-265.267	800.000	-0.057	-0.177
-264.253	-98.691	-0.236	0.061
-263.238	342.611	0.150	0.296
-262.224	230.499	0.242	-0.398
-261.209	800.000	0.064	-0.197
-260.195	-161.396	0.494	0.026
-259.180	800.000	-0.043	-0.148
-258.165	109.445	-0.155	0.187
-257.151	800.000	-0.116	-0.459
-256.136	-15.442	-0.150	-0.096
-255.122	-200.000	0.026	0.195
-254.107	-200.000	-0.004	0.102
-253.092	457.062	-0.149	-0.334
-252.078	800.000	-0.065	-0.223
-251.063	-141.713	-0.286	0.029
-250.049	-93.818	-0.091	-0.025
-249.034	193.859	-0.109	0.166
-248.019	-200.000	-0.002	0.170
-247.005	-30.995	-0.241	-0.137
-245.990	145.296	0.031	-0.041
-244.976	-159.942	0.054	-0.003
-243.961	-25.086	-0.221	-0.132
-242.946	-48.834	0.155	0.075
-241.932	679.806	-0.045	0.118
-240.917	-133.982	0.072	0.009
-239.903	-200.000	-0.035	0.167
-238.888	-200.000	0.008	-0.112
-237.873	-147.319	0.213	-0.018
-236.859	-200.000	0.054	0.237
-235.844	-28.840	0.095	0.055
-234.830	-200.000	0.027	0.126
-233.815	-30.628	-0.236	0.134
-232.800	28.018	0.342	0.290
-231.786	50.571	0.234	-0.223
-230.771	-100.728	-0.060	-0.015
-229.757	-150.315	0.044	0.003
-228.742	250.819	-0.046	0.079
-227.727	-61.997	-0.158	0.066
-226.713	-200.000	0.048	-0.266
-225.698	17.197	-0.119	-0.095
-224.684	-200.000	-0.056	-0.347
-223.669	800.000	-0.153	-0.431
-222.655	285.312	0.110	0.198
-221.640	122.974	0.155	-0.195
-220.625	-92.967	0.437	0.123
-219.611	224.736	0.133	-0.215
-218.596	376.684	0.217	0.444
-217.582	-161.912	0.397	0.020
-216.567	160.272	-0.180	-0.252
-215.552	-13.098	0.126	-0.082
-214.538	-127.186	-0.231	-0.034
-213.523	-200.000	0.006	0.183
-212.509	267.424	-0.214	-0.375
-211.494	73.032	0.042	0.044
-210.479	385.172	-0.105	0.218
-209.465	158.816	0.281	0.391
-208.450	800.000	0.055	0.205
-207.436	-65.076	-0.207	0.084
-206.421	-21.878	0.176	-0.107
-205.406	618.737	0.072	-0.182
-204.392	-6.355	0.238	-0.163
-203.377	242.138	-0.047	-0.079
-202.363	-200.000	-0.083	0.435
-201.348	-39.802	-0.313	0.164
-200.333	-125.913	0.149	0.022
-199.319	39.706	-0.212	-0.190
-198.304	119.051	0.194	0.241
-197.290	800.000	0.084	-0.348
-196.275	13.783	0.190	-0.148
-195.260	-70.248	-0.096	-0.037
-194.246	32.369	0.215	0.187
-193.231	-200.000	0.007	0.080
-192.217	11.905	0.150	0.116
-191.202	252.912	-0.077	0.131
-190.187	13.675	0.204	-0.159
-189.173	421.591	-0.041	0.088
-188.158	23.160	-0.219	0.180
-187.144	570.482	-0.062	0.152
-186.129	305.731	0.053	-0.099
-185.114	-155.022	0.047	-0.003
-184.100	-58.403	0.131	0.057
-183.085	93.436	-0.030	-0.034
-182.071	-64.574	0.159	-0.065
-181.056	-134.325	-0.225	-0.028
-180.042	-93.053	-0.069	0.019
-179.027	362.235	-0.083	-0.167
-178.012	48.856	0.133	-0.125
-176.998	-66.571	0.138	0.055
-175.983	-79.717	-0.267	0.090
-174.969	474.475	-0.010	0.023
-173.954	-127.838	-0.259	0.037
-172.939	-200.000	-0.006	-0.074
-171.925	78.028	0.076	0.082
-170.910	-200.000	0.036	0.296
-169.896	98.027	-0.250	0.289
-168.881	469.677	0.142	-0.320
-167.866	-66.880	-0.273	0.108
-166.852	656.001	0.040	0.103
-165.837	149.411	0.106	-0.144
-164.823	206.057	-0.053	0.083
-163.808	-200.000	0.039	0.187
-162.793	-75.273	-0.456	0.163
-161.779	-75.733	-0.270	-0.096
-160.764	-156.920	0.150	0.009
-159.750	-121.992	0.257	0.042
-158.735	-5.239	-0.145	-0.100
-157.720	2.228	0.271	0.196
-156.706	105.124	-0.041	-0.048
-155.691	-119.566	-0.031	-0.005
-154.677	397.515	0.158	-0.331
-153.662	112.410	-0.056	0.068
-152.647	-116.312	-0.292	-0.054
-151.633	-200.000	-0.004	-0.095
-150.618	39.863	0.097	-0.088
-149.604	15.102	0.109	-0.086
-148.589	726.610	0.027	-0.073
-147.574	-120.924	0.324	0.055
-146.560	-134.354	0.109	0.013
-145.545	-63.972	-0.044	0.018
-144.531	92.968	0.092	-0.104
-143.516	182.146	0.107	0.159
-142.502	-20.528	0.186	0.115
-141.487	-75.014	-0.179	0.064
-140.472	239.452	0.179	-0.298
-139.458	-200.000	0.002	0.073
-138.443	29.098	-0.152	-0.129
-137.429	-200.000	0.027	0.266
-136.414	-45.348	0.389	0.193
-135.399	-57.180	0.282	-0.124
-134.385	205.566	-0.127	-0.198
-133.370	63.958	0.118	-0.118
-132.356	15.988	-0.101	-0.079
-131.341	-200.000	0.005	-0.363
-130.326	-126.767	0.147	0.022
-129.312	374.024	-0.136	0.277
-128.297	800.000	-0.062	-0.229
-127.283	417.365	0.045	0.095
-126.268	719.837	-0.118	0.315
-125.253	27.671	0.210	0.177
-124.239	201.132	-0.187	0.289
-123.224	112.680	-0.074	0.089
-122.210	-200.000	-0.059	0.297
-121.195	10.980	0.077	-0.059
-120.180	-200.000	-0.044	0.290
-119.166	32.202	-0.042	-0.036
-118.151	199.026	-0.181	0.277
-117.137	-103.025	-0.130	0.031
-116.122	86.174	-0.144	0.159
-115.107	-36.284	-0.247	0.133
-114.093	-200.000	0.020	-0.119
-113.078	-35.870	-0.165	-0.089
-112.064	-200.000	0.001	0.344
-111.049	287.706	-0.097	-0.175
-110.034	-85.775	-0.236	0.073
-109.020	-101.457	0.267	-0.065
-108.005	-200.000	0.046	-0.208
-106.991	-15.240	0.294	0.188
-105.976	-200.000	-0.062	0.310
-104.962	-82.115	0.046	-0.015
-103.947	240.483	0.119	-0.199
-102.932	-66.184	-0.279	-0.111
-101.918	-200.000	0.020	-0.157
-100.903	-162.286	0.276	0.014
-99.889	-200.000	-0.086	-0.477
-98.874	-200.000	0.002	-0.263
-97.859	-88.137	0.071	-0.021
-96.845	-52.993	-0.291	-0.134
-95.830	641.256	-0.047	-0.119
-94.816	76.459	0.146	-0.154
-93.801	493.836	0.195	-0.446
-92.786	-135.347	0.228	-0.027
-91.772	-122.073	-0.175	0.029
-90.757	24.110	-0.046	-0.038
-89.743	-200.000	-0.012	-0.190
-88.728	-123.077	-0.066	0.011
-87.713	-66.876	-0.315	0.124
-86.699	71.635	0.235	-0.244
-85.684	115.520	0.110	-0.135
-84.670	276.598	0.194	-0.343
-83.655	367.910	-0.193	-0.390
-82.640	-91.504	0.102	0.029
-81.626	226.195	-0.037	0.060
-80.611	676.065	0.123	-0.320
-79.597	-200.000	0.043	-0.193
-78.582	-44.901	-0.221	-0.110
-77.567	22.947	0.190	0.155
-76.553	68.559	-0.019	0.020
-75.538	-200.000	-0.032	-0.148
-74.524	-111.140	-0.264	-0.054
-73.509	-135.067	0.202	0.024
-72.494	-200.000	-0.002	0.198
-71.480	800.000	-0.071	0.286
-70.465	287.316	0.087	-0.157
-69.451	-200.000	0.016	0.309
-68.436	697.541	-0.091	0.239
-67.422	-150.243	0.155	-0.012
-66.407	528.305	0.094	0.221
-65.392	-140.143	0.234	-0.025
-64.378	800.000	-0.008	0.032
-63.363	800.000	0.042	-0.160
-62.349	-20.618	0.337	0.207
-61.334	-46.665	-0.778	-0.380
-60.319	10.475	0.071	0.054
-59.305	800.000	-0.157	-0.441
-58.290	312.294	0.312	0.583
-57.276	380.335	0.794	1.624
-56.261	-200.000	74.152	526.582
-55.246	571.052	1299.111	3154.865
-54.232	146.318	2524.039	3380.120
-53.217	120.946	2244.594	2785.348
-52.203	54.285	1763.013	1692.985
-51.188	46.527	1557.397	1441.475
-50.173	43.425	1527.458	1392.368
-49.159	59.163	1562.268	1533.777
-48.144	65.843	1582.349	1599.820
-47.130	46.789	1545.608	1432.158
-46.115	43.020	1531.000	1392.578
-45.100	42.813	1527.839	1388.216
-44.086	42.845	1526.080	1386.783
-43.071	42.786	1524.000	1384.435
-42.057	42.711	1522.130	1382.165
-41.042	42.703	1520.582	1380.648
-40.027	42.633	1519.358	1379.003
-39.013	42.740	1517.840	1378.301
-37.998	42.854	1516.213	1377.555
-36.984	42.688	1515.290	1375.526
-35.969	42.752	1514.182	1374.901
-34.954	42.754	1513.011	1373.796
-33.940	42.788	1511.428	1372.537
-32.925	42.763	1509.777	1370.813
-31.911	42.802	1508.319	1369.700
-30.896	42.798	1506.754	1368.199
-29.881	42.861	1505.466	1367.402
-28.867	42.864	1504.258	1366.269
-27.852	42.814	1503.008	1364.740
-26.838	42.851	1501.677	1363.728
-25.823	42.851	1499.927	1362.086
-24.809	42.815	1497.903	1359.952
-23.794	42.796	1496.272	1358.287
-22.779	42.769	1495.256	1357.132
-21.765	42.834	1494.260	1356.608
-20.750	42.744	1492.965	1354.775
-19.736	42.878	1491.387	1354.189
-18.721	42.740	1490.578	1352.476
-17.706	42.864	1489.153	1351.958
-16.692	42.745	1487.982	1350.044
-15.677	42.717	1487.039	1348.951
-14.663	42.726	1486.053	1348.059
-13.648	42.757	1485.137	1347.383
-12.633	42.762	1484.003	1346.338
-11.619	42.720	1483.091	1345.173
-10.604	42.779	1482.353	1344.844
-9.590	42.745	1481.219	1343.533
-8.575	42.635	1480.589	1342.172
-7.560	42.726	1479.786	1342.006
-6.546	42.658	1479.398	1341.140
-5.531	42.698	1478.331	1340.391
-4.517	42.652	1477.208	1339.011
-3.502	42.691	1476.460	1338.537
-2.487	42.724	1474.847	1337.242
-1.473	42.782	1473.962	1336.770
-0.458	42.704	1472.842	1335.189
0.556	41.993	1464.230	1326.971
1.571	39.755	1436.912	1287.514
2.586	36.263	1375.218	1210.269
3.600	34.527	1292.249	1126.911
4.615	32.549	1243.950	1073.432
5.629	27.147	1184.662	992.764
6.644	13.393	1089.961	843.683
7.659	2.932	1040.310	754.039
8.673	1.134	1034.198	740.765
9.688	0.880	1031.300	737.386
10.702	0.900	1029.236	735.940
11.717	0.836	1027.979	734.666
12.731	5.075	1033.769	759.406
13.746	17.023	1050.676	830.565
14.761	24.039	1058.970	871.532
15.775	23.682	1057.756	868.714
16.790	23.468	1056.433	866.504
17.804	23.275	1055.586	864.789
18.819	22.996	1055.150	862.995
19.834	23.182	1054.246	863.087
20.848	23.205	1053.918	862.850
21.863	23.257	1053.395	862.602
22.877	23.289	1053.105	862.441
23.892	23.193	1051.961	860.961
24.907	23.079	1051.367	859.844
25.921	23.217	1050.880	860.044
26.936	23.178	1049.864	858.944
27.950	23.180	1048.667	857.898
28.965	23.108	1047.885	856.835
29.980	23.043	1045.973	854.882
30.994	22.940	1044.775	853.332
32.009	23.167	1043.975	853.696
33.023	23.401	1043.559	854.411
34.038	23.003	1042.423	851.484
35.053	23.008	1041.679	850.827
36.067	23.219	1040.901	851.131
37.082	23.128	1040.153	850.006
38.096	23.291	1039.146	849.893
39.111	23.420	1038.832	850.177
40.126	23.445	1038.431	849.896
41.140	23.479	1036.759	848.613
42.155	23.192	1035.181	845.874
43.169	22.718	1034.166	842.707
44.184	22.815	1033.167	842.284
45.199	22.875	1032.165	841.676
46.213	22.709	1031.492	840.264
47.228	22.712	1030.343	839.266
48.242	22.828	1029.620	839.157
49.257	23.086	1028.869	839.693
50.271	23.071	1028.226	839.022
51.286	23.224	1027.457	839.049
52.301	23.233	1027.011	838.649
53.315	23.183	1026.011	837.525
54.330	23.272	1025.273	837.268
55.344	23.247	1024.255	836.246
56.359	23.236	1022.911	835.021
57.374	23.217	1022.625	834.623
58.388	22.986	1022.145	833.072
59.403	22.966	1020.739	831.756
60.417	22.982	1020.445	831.520
61.432	22.806	1019.499	829.845
62.447	22.784	1019.125	829.366
63.461	22.917	1018.607	829.493
64.476	22.980	1017.385	828.722
65.490	22.954	1016.166	827.532
66.505	22.879	1015.401	826.488
67.520	22.897	1014.704	825.931
68.534	23.001	1014.337	826.046
69.549	22.908	1012.915	824.379
70.563	22.579	1011.927	821.966
71.578	22.461	1010.889	820.502
72.593	22.538	1010.306	820.314
73.607	22.297	1009.502	818.471
74.622	22.500	1007.749	817.917
75.636	22.630	1007.573	818.304
76.651	22.809	1006.692	818.348
77.666	22.723	1005.928	817.255
78.680	22.496	1005.379	815.687
79.695	22.611	1004.448	815.393
80.709	22.726	1003.876	815.389
81.724	22.873	1003.443	815.642
82.739	22.716	1002.606	814.163
83.753	22.730	1001.858	813.552
84.768	22.977	1001.179	814.066
85.782	23.379	1000.621	815.389
86.797	23.456	999.827	815.025
87.812	23.464	999.174	814.454
88.826	23.208	998.166	812.386
89.841	23.217	997.502	811.814
90.855	23.467	996.487	812.065
91.870	23.386	995.673	810.959
92.884	23.397	994.593	810.055
93.899	23.279	993.832	808.828
94.914	23.233	992.944	807.823
95.928	23.317	992.489	807.765
96.943	23.411	990.968	806.880
97.957	23.091	989.883	804.471
98.972	22.893	988.998	802.781
99.987	22.614	988.105	800.717
101.001	22.739	987.263	800.531
102.016	23.163	986.523	801.783
103.030	23.103	986.136	801.129
104.045	23.020	984.756	799.561
105.060	22.803	983.715	797.662
106.074	22.772	982.685	796.619
107.089	22.762	981.856	795.830
108.103	23.116	981.254	796.868
109.118	23.238	980.483	796.718
110.133	22.859	979.469	794.120
111.147	22.912	978.566	793.558
112.162	22.907	977.286	792.425
113.176	22.722	976.211	790.654
114.191	22.667	975.411	789.689
115.206	22.882	974.566	789.900
116.220	22.590	973.274	787.479
117.235	22.368	972.605	785.876
118.249	22.498	972.066	785.951
119.264	22.589	971.271	785.645
120.279	22.474	970.131	784.138
121.293	22.416	969.355	783.184
122.308	22.500	969.237	783.396
123.322	22.565	968.338	782.888
124.337	22.502	967.086	781.528
125.352	22.585	965.453	780.502
126.366	22.147	964.057	777.370
127.381	21.778	962.545	774.450
128.395	22.259	962.697	776.631
129.410	22.915	962.296	779.131
130.424	23.124	961.306	779.182
131.439	23.039	960.762	778.298
132.454	23.140	959.611	777.744
133.468	23.079	959.070	776.968
134.483	22.928	958.144	775.486
135.497	23.132	956.868	775.279
136.512	23.192	956.959	775.546
137.527	23.432	955.783	775.572
138.541	23.422	954.666	774.554
139.556	23.246	954.695	773.739
140.570	23.334	953.867	773.385
141.585	23.358	953.226	772.904
142.600	23.519	952.272	772.764
143.614	23.382	950.986	771.055
144.629	23.382	950.667	770.727
145.643	23.708	950.307	771.783
146.658	23.532	949.189	770.043
147.673	23.486	947.235	768.190
148.687	23.257	946.264	766.347
149.702	23.237	945.257	765.377
150.716	23.222	944.234	764.414
151.731	23.064	943.466	763.042
152.746	23.270	942.162	762.807
153.760	23.385	941.991	763.096
154.775	23.448	941.470	762.877
155.789	23.458	940.492	762.063
156.804	23.452	939.802	761.412
157.819	23.493	938.280	760.285
158.833	23.412	938.092	759.721
159.848	23.428	937.373	759.138
160.862	23.568	936.657	759.091
161.877	23.394	935.464	757.314
162.892	23.322	934.601	756.241
163.906	23.423	933.831	755.982
164.921	23.428	932.862	755.151
165.935	23.332	932.149	754.097
166.950	23.376	931.221	753.467
167.964	23.436	929.941	752.619
168.979	23.448	929.078	751.905
169.994	23.335	927.918	750.422
171.008	23.218	926.738	748.908
172.023	23.305	926.717	749.192
173.037	23.649	925.294	749.428
174.052	23.291	924.971	747.588
175.067	23.077	923.859	745.720
176.081	23.221	922.966	745.540
177.096	23.260	922.063	744.908
178.110	23.237	921.463	744.261
179.125	23.081	920.306	742.605
180.140	22.759	919.069	740.194
181.154	22.875	918.520	740.170
182.169	22.886	918.242	739.928
183.183	23.102	918.114	740.663
184.198	23.487	917.411	741.640
185.213	23.436	916.652	740.749
186.227	23.308	916.147	739.740
187.242	23.393	915.897	739.826
188.256	23.478	914.821	739.248
189.271	23.465	913.771	738.279
190.286	23.498	913.019	737.743
191.300	23.449	912.276	736.873
192.315	22.963	911.061	733.811
193.329	22.139	909.692	729.226
194.344	21.712	908.416	726.368
195.359	22.287	908.889	729.067
196.373	22.950	909.296	732.074
197.388	23.301	908.946	733.183
198.402	23.362	907.908	732.531
199.417	23.218	907.637	731.655
200.432	23.281	907.050	731.377
201.446	23.115	906.511	730.194
202.461	22.841	905.568	728.239
203.475	22.921	904.947	728.004
204.490	22.693	903.494	725.833
205.504	21.513	901.464	719.288
206.519	21.818	901.248	720.306
207.534	22.784	901.668	724.547
208.548	22.926	901.149	724.649
209.563	23.255	901.142	725.927
210.577	23.327	900.258	725.446
211.592	22.869	899.961	723.268
212.607	23.484	899.120	725.041
213.621	23.548	898.918	725.078
214.636	23.340	898.126	723.526
215.650	23.528	897.609	723.810
216.665	23.500	896.958	723.110
217.680	23.425	896.551	722.409
218.694	23.485	896.279	722.373
219.709	23.379	894.980	720.829
220.723	22.903	894.420	718.381
221.738	23.144	893.639	718.668
222.753	23.331	893.091	718.924
223.767	23.268	892.281	717.952
224.782	23.125	891.884	716.991
225.796	23.269	891.621	717.296
226.811	23.603	890.478	717.664
227.826	23.299	889.211	715.352
228.840	22.453	888.130	711.006
229.855	22.233	887.494	709.546
230.869	22.603	886.921	710.519
231.884	22.399	885.922	708.831
232.899	22.175	885.584	707.599
233.913	23.027	885.684	711.045
234.928	23.292	885.233	711.684
235.942	23.181	884.709	710.753
236.957	23.260	883.765	710.250
237.972	22.984	883.205	708.629
238.986	22.717	882.773	707.149
240.001	22.852	881.639	706.720
241.015	23.130	881.079	707.319
242.030	22.934	880.636	706.121
243.045	23.249	879.872	706.699
244.059	23.251	879.531	706.372
245.074	23.422	879.204	706.729
246.088	23.422	878.168	705.836
247.103	22.927	877.160	702.990
248.117	23.101	876.625	703.191
249.132	23.483	876.795	704.785
250.147	23.808	876.709	705.945
251.161	24.036	875.708	705.981
252.176	24.072	875.572	705.951
253.190	24.060	875.012	705.391
254.205	23.999	874.792	704.908
255.220	24.350	874.121	705.696
256.234	24.260	873.780	705.000
257.249	24.288	872.763	704.228
258.263	23.963	872.406	702.595
259.278	24.096	871.894	702.645
260.293	24.137	871.179	702.168
261.307	24.173	870.619	701.796
262.322	24.044	869.914	700.659
263.336	24.049	869.284	700.108
264.351	23.476	867.929	696.706
265.366	22.500	866.089	691.337
266.380	21.934	865.146	688.305
267.395	22.958	865.019	692.156
268.409	23.723	865.350	695.358
269.424	23.789	864.671	695.008
270.439	23.839	864.217	694.776
271.453	23.879	863.942	694.649
272.468	23.973	863.429	694.542
273.482	24.242	862.478	694.767
274.497	24.372	862.085	694.895
275.512	24.177	861.165	693.331
276.526	23.553	859.693	689.661
277.541	23.542	859.751	689.603
278.555	24.058	859.258	691.151
279.570	23.843	858.608	689.734
280.585	23.740	857.549	688.422
281.599	23.759	857.452	688.357
282.614	23.883	856.561	688.059
283.628	23.441	856.031	685.864
284.643	23.082	855.001	683.589
285.657	23.386	855.244	684.901
286.672	23.440	854.431	684.395
287.687	22.997	853.404	681.804
288.701	23.234	853.269	682.549
289.716	23.687	853.044	684.058
290.730	23.259	852.231	681.695
291.745	23.285	851.574	681.211
292.760	22.843	850.542	678.627
293.774	22.977	849.972	678.625
294.789	23.715	850.403	681.745
295.803	24.391	850.502	684.356
296.818	24.535	850.048	684.484
297.833	24.529	850.076	684.423
298.847	24.371	848.497	682.488
299.862	24.026	847.315	680.158
300.876	24.101	847.213	680.300
301.891	24.433	846.963	681.306
302.906	24.630	845.947	681.181
303.920	24.057	845.556	678.623
304.935	24.034	844.437	677.575
305.949	24.448	843.986	678.732
306.964	24.451	843.913	678.623
307.979	24.302	843.034	677.291
308.993	24.136	842.890	676.483
310.008	24.454	842.436	677.266
311.022	24.671	841.963	677.648
312.037	24.627	841.024	676.668
313.052	24.281	840.758	675.081
314.066	24.181	839.879	673.938
315.081	23.748	838.404	671.059
316.095	22.822	837.518	666.797
317.110	23.298	837.226	668.302
318.125	24.170	837.728	671.934
319.139	23.825	836.491	669.583
320.154	22.676	835.140	664.117
321.168	22.285	833.781	661.507
322.183	22.916	834.060	664.042
323.197	23.531	834.807	666.893
324.212	24.045	834.096	668.194
325.227	24.226	834.134	668.846
326.241	24.339	833.659	668.829
327.256	24.326	832.777	668.014
328.270	24.171	832.210	666.920
329.285	24.088	831.491	665.976
330.300	23.919	830.663	664.621
331.314	23.783	829.968	663.497
332.329	23.813	829.385	663.085
333.343	23.952	829.494	663.634
334.358	24.307	829.101	664.583
335.373	24.320	828.164	663.821
336.387	24.568	827.623	664.253
337.402	24.618	827.531	664.304
338.416	24.788	827.230	664.635
339.431	24.819	826.505	664.108
340.446	24.865	825.950	663.776
341.460	25.181	825.033	664.149
342.475	24.999	825.013	663.400
343.489	24.813	824.028	661.864
344.504	24.780	823.415	661.189
345.519	24.946	823.479	661.796
346.533	25.363	823.041	662.924
347.548	25.261	822.708	662.222
348.562	25.296	822.187	661.874
349.577	25.254	821.638	661.218
350.592	25.314	821.029	660.889
351.606	25.139	820.554	659.806
352.621	25.157	819.785	659.195
353.635	25.068	819.563	658.630
354.650	25.117	818.746	658.094
355.665	24.803	817.745	656.081
356.679	23.744	816.434	651.093
357.694	23.467	815.995	649.669
358.708	24.055	815.951	651.731
359.723	24.089	815.296	651.274
360.738	24.297	815.107	651.825
361.752	24.826	814.828	653.477
362.767	24.801	814.781	653.290
363.781	25.078	814.398	653.937
364.796	25.322	814.407	654.776
365.810	25.422	814.161	654.884
366.825	25.637	813.489	655.069
367.840	25.545	813.112	654.375
368.854	25.328	812.900	653.355
369.869	24.977	811.964	651.271
370.883	24.898	810.923	650.088
371.898	24.854	810.394	649.449
372.913	24.966	809.638	649.189
373.927	24.865	809.126	648.357
374.942	24.910	808.962	648.331
375.956	25.139	808.082	648.398
376.971	25.104	807.509	647.756
377.986	25.417	807.052	648.459
379.000	25.500	806.708	648.426
380.015	25.553	806.155	648.117
381.029	25.395	805.729	647.146
382.044	25.260	805.364	646.310
383.059	25.486	804.538	646.403
384.073	25.493	803.995	645.932
385.088	25.488	803.649	645.582
386.102	25.563	803.104	645.356
387.117	25.322	802.260	643.754
388.132	25.153	802.005	642.886
389.146	25.053	801.339	641.938
390.161	24.591	800.230	639.341
391.175	24.455	799.910	638.543
392.190	25.110	799.633	640.606
393.205	25.238	799.427	640.843
394.219	24.338	797.697	636.190
395.234	22.668	795.839	628.704
396.248	21.840	794.360	624.530
397.263	22.819	795.287	628.694
398.278	24.633	796.724	636.238
399.292	25.126	796.494	637.752
400.307	24.893	795.880	636.377
401.321	24.902	795.658	636.176
402.336	24.926	795.069	635.734
403.350	25.161	795.173	636.594
404.365	25.631	794.611	637.753
405.380	25.881	794.509	638.500
406.394	26.104	794.845	639.505
407.409	26.398	794.186	639.960
408.423	26.127	793.595	638.469
409.438	26.236	792.704	638.079
410.453	26.203	792.592	637.817
411.467	26.156	792.369	637.413
412.482	26.153	791.551	636.690
413.496	26.007	791.309	635.923
414.511	26.181	790.778	636.053
415.526	26.202	790.376	635.748
416.540	26.245	789.871	635.436
417.555	26.270	789.244	634.965
418.569	25.941	788.677	633.296
419.584	25.759	788.455	632.424
420.599	25.701	787.958	631.764
421.613	88.296	1246.250	1331.988
422.628	75.103	1313.043	1332.138
