DTS Sentinel unit serial number:	SN413079Multiplexer serial number:	ORYXHardware model number:	OX4-SRSoftware version number:	ORYX F/W v4.00 Oryx Data Collector v3.7.2.0data status	okinstallation	princeton_trtdifferential loss correction	single-endedforward channel	channel 3reverse channel	N/Adate	2019/09/11time	11:30:11forward acquisition time	60.00reverse acquisition time	0.00gamma	496.2192k internal	0.2294k external	0.2294temperature offset calibration	0.9938default loss term (dB/km)	0.3790temperature slope calibration	1.0000multiplexer offset coefficient	1.0000multiplexer slope coefficient	1.0000fibre end	0.00T internal ref (°C)	38.03T ext. ref 1 (°C)	0.17T ext. ref 2 (°C)	36.00length (m)	temperature (°C)	Stokes	anti-Stokes-747.200	104.341	-0.126	0.151
-746.185	31.300	0.328	0.288
-745.171	-170.592	0.223	0.008
-744.156	234.197	0.182	0.307
-743.142	-101.627	0.263	0.065
-742.127	-200.000	-0.031	0.169
-741.112	-140.949	-0.205	0.022
-740.098	-162.111	-0.192	0.010
-739.083	-200.000	0.001	0.069
-738.069	76.790	-0.261	0.284
-737.054	12.652	0.241	-0.190
-736.039	800.000	-0.025	0.106
-735.025	-93.306	0.341	-0.097
-734.010	-41.357	0.209	0.110
-732.996	-106.314	0.183	-0.042
-731.981	-80.081	-0.078	0.027
-730.966	182.997	-0.097	0.147
-729.952	20.680	0.136	0.113
-728.937	-81.864	0.140	0.047
-727.923	-131.457	0.074	-0.010
-726.908	-68.727	-0.216	0.085
-725.894	226.336	0.067	0.112
-724.879	-200.000	0.100	0.483
-723.864	-18.486	-0.072	-0.046
-722.850	193.106	-0.122	-0.188
-721.835	800.000	0.053	-0.226
-720.821	-145.567	-0.172	0.016
-719.806	394.436	-0.035	0.075
-718.791	-138.394	-0.189	-0.021
-717.777	-35.082	-0.125	0.069
-716.762	184.676	-0.110	-0.167
-715.748	64.794	-0.298	-0.307
-714.733	800.000	0.026	0.114
-713.718	-104.961	0.183	0.043
-712.704	-200.000	-0.163	-0.001
-711.689	-94.571	0.388	-0.108
-710.675	88.974	-0.211	-0.240
-709.660	-54.184	-0.194	0.090
-708.645	98.746	0.194	0.229
-707.631	-22.339	-0.216	0.133
-706.616	-56.688	-0.061	-0.028
-705.602	-63.198	0.201	-0.085
-704.587	-83.754	0.179	0.058
-703.572	800.000	-0.118	0.362
-702.558	-58.548	0.222	-0.098
-701.543	-143.600	0.315	0.031
-700.529	-121.353	0.271	0.046
-699.514	171.351	0.049	-0.071
-698.499	-200.000	0.015	-0.312
-697.485	523.828	0.058	-0.138
-696.470	215.812	-0.029	0.047
-695.456	-61.386	0.042	0.018
-694.441	-98.055	-0.204	-0.054
-693.426	-7.715	-0.186	0.128
-692.412	-105.040	-0.114	-0.027
-691.397	37.615	-0.238	-0.215
-690.383	87.143	-0.151	0.171
-689.368	-37.560	-0.082	-0.045
-688.354	444.101	0.030	-0.068
-687.339	82.555	-0.163	0.181
-686.324	457.174	-0.099	-0.225
-685.310	-115.136	-0.429	-0.083
-684.295	-53.507	0.254	-0.119
-683.281	-84.178	-0.257	-0.083
-682.266	-143.179	0.156	-0.015
-681.251	399.758	-0.037	-0.080
-680.237	149.522	0.063	0.087
-679.222	86.885	-0.212	-0.239
-678.208	-67.501	0.187	0.075
-677.193	17.507	0.188	-0.153
-676.178	-10.039	-0.134	-0.091
-675.164	-170.443	0.156	0.006
-674.149	-200.000	0.000	0.250
-673.135	-200.000	0.006	0.357
-672.120	-1.249	0.139	-0.100
-671.105	-43.653	0.231	-0.119
-670.091	-89.238	0.275	0.083
-669.076	-21.033	0.130	-0.081
-668.062	-178.535	0.084	0.002
-667.047	-200.000	0.018	-0.103
-666.032	-98.459	0.442	-0.115
-665.018	76.964	0.141	0.153
-664.003	75.889	-0.175	-0.189
-662.989	184.431	0.078	-0.119
-661.974	-200.000	-0.003	0.180
-660.959	-142.382	0.015	0.002
-659.945	-200.000	-0.014	0.111
-658.930	248.649	0.102	0.176
-657.916	-198.310	-0.292	-0.002
-656.901	-4.832	0.255	0.179
-655.886	-123.749	0.457	0.074
-654.872	226.364	0.193	-0.319
-653.857	54.914	0.187	0.184
-652.843	282.208	-0.165	-0.302
-651.828	-78.835	0.233	-0.081
-650.814	-132.522	-0.406	-0.053
-649.799	-71.758	0.261	-0.099
-648.784	231.209	-0.059	-0.098
-647.770	800.000	0.066	0.237
-646.755	-61.561	0.093	0.040
-645.741	-73.785	0.078	-0.029
-644.726	515.468	0.041	0.098
-643.711	-64.788	-0.241	-0.100
-642.697	52.541	-0.158	0.154
-641.682	23.540	-0.172	0.144
-640.668	800.000	0.038	-0.143
-639.653	-92.561	0.177	-0.051
-638.638	169.900	0.187	0.273
-637.624	-123.246	0.273	0.044
-636.609	-200.000	0.037	-0.272
-635.595	-18.593	-0.287	0.183
-634.580	369.551	0.077	0.158
-633.565	-200.000	0.010	-0.060
-632.551	75.814	-0.198	-0.214
-631.536	710.845	-0.014	0.038
-630.522	-200.000	0.023	0.122
-629.507	-154.457	-0.195	-0.013
-628.492	-20.143	-0.397	0.249
-627.478	-14.190	0.156	0.102
-626.463	-98.187	-0.216	-0.057
-625.449	-200.000	-0.085	-0.424
-624.434	120.776	-0.050	0.063
-623.419	-200.000	0.026	-0.134
-622.405	130.831	0.043	0.056
-621.390	-14.392	-0.168	-0.110
-620.376	-23.083	-0.178	-0.109
-619.361	133.641	0.136	-0.179
-618.346	-200.000	-0.039	-0.321
-617.332	-200.000	-0.001	-0.053
-616.317	146.624	-0.235	0.321
-615.303	122.328	-0.057	0.072
-614.288	-16.950	-0.184	-0.119
-613.273	165.637	0.036	0.052
-612.259	246.035	-0.345	0.592
-611.244	-83.563	0.366	0.119
-610.230	101.869	0.084	0.099
-609.215	-74.291	-0.336	-0.124
-608.201	800.000	0.049	-0.173
-607.186	-60.833	-0.457	-0.197
-606.171	-41.751	0.144	0.075
-605.157	787.837	0.066	-0.183
-604.142	-13.216	0.328	-0.217
-603.128	-72.330	-0.374	-0.141
-602.113	-97.962	-0.163	0.043
-601.098	157.885	0.162	-0.228
-600.084	800.000	-0.026	0.112
-599.069	107.259	0.243	0.294
-598.055	27.870	-0.158	0.135
-597.040	88.791	0.155	0.175
-596.025	-112.426	0.085	0.017
-595.011	-69.487	0.081	-0.032
-593.996	66.282	0.181	-0.186
-592.982	101.331	-0.090	0.107
-591.967	-179.830	0.140	-0.003
-590.952	139.922	-0.158	-0.212
-589.938	-73.910	0.205	0.076
-588.923	742.972	0.081	0.221
-587.909	-200.000	-0.033	0.282
-586.894	-44.058	0.068	-0.035
-585.879	175.012	0.283	-0.417
-584.865	316.476	-0.088	-0.169
-583.850	117.607	-0.073	-0.091
-582.836	-13.961	-0.033	0.022
-581.821	-39.560	0.302	-0.161
-580.806	-18.729	0.348	0.221
-579.792	173.722	-0.092	0.135
-578.777	99.415	0.200	0.235
-577.763	-41.080	0.099	0.052
-576.748	315.138	-0.022	0.043
-575.733	-200.000	-0.020	-0.115
-574.719	-200.000	0.028	0.299
-573.704	22.276	-0.239	0.198
-572.690	-17.779	0.177	-0.113
-571.675	-154.018	-0.216	-0.015
-570.661	-2.778	-0.380	-0.270
-569.646	-128.986	-0.164	-0.023
-568.631	-200.000	-0.040	0.211
-567.617	657.409	0.084	0.218
-566.602	21.779	-0.026	0.021
-565.588	115.534	0.146	-0.181
-564.573	56.860	-0.083	-0.082
-563.558	242.366	0.039	-0.067
-562.544	757.288	0.042	0.116
-561.529	342.057	0.183	-0.363
-560.515	-137.405	-0.109	-0.013
-559.500	800.000	-0.069	-0.271
-558.485	-44.545	-0.247	-0.126
-557.471	-187.743	-0.105	0.001
-556.456	800.000	0.034	-0.106
-555.442	162.783	0.084	0.119
-554.427	50.124	-0.190	0.182
-553.412	102.455	-0.121	0.143
-552.398	-117.299	0.301	0.055
-551.383	-12.292	0.193	0.128
-550.369	-159.874	-0.151	-0.008
-549.354	-126.187	-0.086	-0.013
-548.339	59.374	-0.123	-0.123
-547.325	164.653	-0.106	-0.152
-546.310	271.620	0.027	-0.048
-545.296	-6.567	0.277	0.191
-544.281	109.249	-0.102	0.124
-543.266	175.335	0.054	0.079
-542.252	559.140	0.051	0.125
-541.237	-74.900	-0.062	-0.023
-540.223	-100.408	-0.259	0.065
-539.208	133.730	0.166	0.218
-538.193	-200.000	0.053	-0.466
-537.179	-96.010	-0.348	0.094
-536.164	81.635	0.055	-0.060
-535.150	-34.553	0.580	0.322
-534.135	-94.794	0.359	-0.099
-533.121	1.685	-0.401	0.293
-532.106	-14.961	-0.423	-0.275
-531.091	225.763	-0.156	-0.257
-530.077	172.969	-0.185	-0.270
-529.062	-74.059	0.177	0.065
-528.048	-53.699	0.243	0.113
-527.033	173.211	0.162	-0.237
-526.018	-15.983	-0.192	0.124
-525.004	145.887	0.107	-0.145
-523.989	297.662	-0.045	0.084
-522.975	-51.198	0.067	-0.032
-521.960	792.199	0.107	0.298
-520.945	-120.525	0.095	-0.016
-519.931	101.387	-0.106	0.126
-518.916	-200.000	0.006	-0.215
-517.902	-42.328	-0.349	-0.181
-516.887	-54.188	-0.291	-0.134
-515.872	173.784	0.140	0.204
-514.858	-200.000	0.007	-0.108
-513.843	800.000	0.082	0.276
-512.829	-66.969	-0.170	-0.068
-511.814	800.000	0.052	0.151
-510.799	240.223	0.179	0.302
-509.785	372.729	-0.083	0.171
-508.770	-56.602	-0.291	-0.131
-507.756	-8.425	0.131	-0.089
-506.741	107.234	-0.185	0.223
-505.726	51.070	-0.045	-0.044
-504.712	-26.806	0.032	-0.019
-503.697	-9.907	-0.045	-0.030
-502.683	-135.652	-0.218	0.026
-501.668	-127.438	0.167	0.025
-500.653	64.727	0.241	-0.246
-499.639	-139.292	0.125	-0.014
-498.624	-200.000	-0.039	-0.297
-497.610	800.000	0.082	-0.255
-496.595	-69.624	-0.190	0.074
-495.581	18.912	0.125	-0.102
-494.566	563.939	0.064	-0.158
-493.551	209.733	0.153	0.244
-492.537	11.901	0.209	0.163
-491.522	-180.808	0.336	-0.007
-490.508	58.969	0.159	0.159
-489.493	83.729	-0.213	-0.235
-488.478	53.257	-0.053	-0.052
-487.464	91.447	-0.176	-0.200
-486.449	-47.808	-0.372	-0.183
-485.435	-200.000	-0.013	-0.111
-484.420	-161.224	0.399	-0.021
-483.405	-87.084	-0.423	0.130
-482.391	43.630	0.284	0.263
-481.376	-126.034	-0.090	0.014
-480.362	-123.202	0.104	0.017
-479.347	161.305	0.169	0.240
-478.332	226.071	0.182	0.298
-477.318	-94.311	-0.210	0.058
-476.303	-171.031	0.115	-0.004
-475.289	9.498	-0.133	-0.102
-474.274	-45.583	-0.203	-0.102
-473.259	562.151	0.259	0.634
-472.245	800.000	0.060	0.183
-471.230	123.839	0.098	-0.124
-470.216	-84.707	0.211	-0.067
-469.201	78.329	0.286	-0.309
-468.186	-200.000	0.147	-0.001
-467.172	-62.185	0.187	0.079
-466.157	509.714	-0.042	0.100
-465.143	727.587	-0.030	0.080
-464.128	-147.731	-0.183	0.015
-463.113	-63.034	0.304	0.127
-462.099	800.000	-0.041	0.128
-461.084	37.652	0.186	-0.167
-460.070	800.000	0.053	-0.225
-459.055	-48.073	0.201	-0.098
-458.040	217.993	-0.231	-0.373
-457.026	128.249	0.154	-0.198
-456.011	-44.269	0.384	0.194
-454.997	800.000	-0.070	0.278
-453.982	-63.207	-0.398	0.166
-452.968	-37.826	0.220	0.118
-451.953	-144.365	-0.367	-0.035
-450.938	20.359	0.103	-0.084
-449.924	800.000	0.109	0.344
-448.909	85.341	-0.063	0.070
-447.895	118.565	0.196	0.245
-446.880	-200.000	0.015	-0.131
-445.865	359.351	-0.097	-0.195
-444.851	-200.000	0.040	-0.258
-443.836	-97.555	-0.242	0.064
-442.822	-200.000	0.028	-0.210
-441.807	2.578	-0.306	-0.224
-440.792	649.235	0.057	-0.146
-439.778	304.045	0.093	-0.175
-438.763	-186.691	-0.181	0.003
-437.749	800.000	0.074	0.287
-436.734	-92.502	0.400	-0.113
-435.719	-24.109	-0.126	-0.076
-434.705	-56.542	0.136	-0.061
-433.690	-82.550	-0.234	-0.077
-432.676	24.048	0.232	0.194
-431.661	-36.184	-0.106	-0.058
-430.646	-12.171	0.071	0.047
-429.632	-153.685	0.193	-0.013
-428.617	-104.618	-0.161	0.038
-427.603	-98.513	0.471	0.122
-426.588	167.218	0.102	-0.147
-425.573	-15.257	-0.275	0.178
-424.559	123.292	0.075	0.095
-423.544	-14.197	0.149	0.097
-422.530	102.707	0.148	0.175
-421.515	59.227	0.138	-0.137
-420.500	-105.375	-0.167	0.038
-419.486	-160.800	0.179	0.010
-418.471	-27.485	-0.098	-0.057
-417.457	-200.000	-0.007	-0.109
-416.442	-200.000	0.027	0.337
-415.428	-67.894	0.236	-0.093
-414.413	-200.000	-0.077	-0.461
-413.398	-113.022	-0.328	0.065
-412.384	531.175	-0.165	0.394
-411.369	94.147	0.368	0.422
-410.355	-59.975	-0.148	-0.064
-409.340	-33.243	-0.220	0.123
-408.325	-200.000	-0.058	0.399
-407.311	800.000	0.037	0.129
-406.296	-155.643	-0.427	0.028
-405.282	351.192	-0.269	0.538
-404.267	405.189	0.042	0.090
-403.252	-196.655	-0.211	-0.001
-402.238	248.842	-0.184	-0.314
-401.223	-200.000	0.043	0.200
-400.209	-200.000	0.063	0.290
-399.194	-79.654	0.114	-0.039
-398.179	800.000	0.039	-0.135
-397.165	-7.580	0.300	0.205
-396.150	221.260	0.175	0.284
-395.136	-109.117	-0.384	-0.082
-394.121	363.828	-0.101	0.204
-393.106	147.107	0.217	0.295
-392.092	-200.000	-0.010	-0.107
-391.077	-200.000	0.029	-0.172
-390.063	20.082	-0.077	0.063
-389.048	74.362	-0.196	-0.208
-388.033	-18.751	-0.153	0.096
-387.019	81.470	0.186	0.203
-386.004	-105.106	0.373	0.086
-384.990	544.872	0.075	0.181
-383.975	-125.723	-0.209	0.032
-382.960	-200.000	-0.030	0.160
-381.946	619.810	0.141	0.358
-380.931	-101.759	0.266	0.065
-379.917	446.018	-0.125	0.277
-378.902	-200.000	-0.000	0.024
-377.888	-200.000	-0.043	-0.251
-376.873	16.942	0.249	0.198
-375.858	-27.079	0.314	-0.185
-374.844	-200.000	-0.046	-0.445
-373.829	116.682	0.276	-0.341
-372.815	-168.010	0.326	-0.013
-371.800	-200.000	0.017	0.111
-370.785	-74.816	-0.239	0.087
-369.771	219.446	-0.225	-0.363
-368.756	800.000	0.080	0.228
-367.742	60.151	-0.132	0.132
-366.727	135.704	-0.095	0.125
-365.712	-80.034	0.213	0.072
-364.698	13.160	-0.313	0.245
-363.683	-31.074	-0.226	-0.128
-362.669	15.960	0.165	-0.131
-361.654	218.970	0.091	-0.146
-360.639	483.636	0.080	-0.183
-359.625	320.916	0.111	0.212
-358.610	700.536	0.043	-0.115
-357.596	-74.475	-0.021	0.008
-356.581	-200.000	-0.033	-0.285
-355.566	-177.825	-0.499	0.012
-354.552	-119.089	-0.314	0.055
-353.537	800.000	-0.011	-0.032
-352.523	-200.000	0.003	0.030
-351.508	-61.024	0.315	-0.134
-350.493	-200.000	0.039	-0.202
-349.479	159.030	0.155	-0.217
-348.464	208.440	-0.238	-0.375
-347.450	-200.000	-0.011	0.156
-346.435	125.150	-0.062	-0.079
-345.420	296.945	0.069	-0.127
-344.406	-200.000	0.036	-0.259
-343.391	56.475	-0.044	0.043
-342.377	-53.773	0.077	0.035
-341.362	-139.202	0.214	0.023
-340.348	-200.000	-0.052	-0.332
-339.333	-62.362	0.399	-0.167
-338.318	-63.573	0.182	0.075
-337.304	-175.658	-0.182	0.005
-336.289	-27.957	0.320	0.186
-335.275	-151.139	0.097	-0.007
-334.260	-140.943	-0.152	-0.016
-333.245	-93.220	0.056	-0.016
-332.231	-200.000	0.007	-0.349
-331.216	-140.659	0.076	0.008
-330.202	-109.970	0.216	0.046
-329.187	-105.594	-0.154	0.035
-328.172	-77.596	-0.289	-0.101
-327.158	800.000	-0.032	0.105
-326.143	-155.498	0.191	-0.012
-325.129	454.671	-0.064	-0.143
-324.114	-200.000	-0.002	-0.081
-323.099	-200.000	0.051	-0.331
-322.085	345.340	0.030	-0.059
-321.070	-200.000	-0.097	0.509
-320.056	-200.000	0.251	-0.000
-319.041	800.000	-0.048	-0.136
-318.026	93.716	0.313	-0.357
-317.012	25.245	0.144	0.120
-315.997	800.000	0.036	-0.152
-314.983	105.294	0.058	-0.069
-313.968	-97.321	-0.597	-0.156
-312.953	-59.388	-0.045	0.019
-311.939	-200.000	-0.049	0.307
-310.924	-22.147	0.059	0.036
-309.910	179.170	0.121	0.178
-308.895	217.835	-0.197	0.316
-307.880	800.000	0.018	0.057
-306.866	800.000	0.064	-0.210
-305.851	-200.000	0.004	-0.031
-304.837	167.865	0.109	-0.156
-303.822	187.346	0.194	-0.292
-302.807	460.956	-0.101	-0.227
-301.793	-200.000	-0.047	-0.317
-300.778	139.274	0.163	0.215
-299.764	800.000	0.050	0.197
-298.749	116.038	0.111	0.137
-297.735	118.231	0.163	-0.202
-296.720	-161.019	0.171	-0.009
-295.705	88.792	-0.096	0.107
-294.691	-42.301	0.128	-0.066
-293.676	800.000	0.075	-0.225
-292.662	800.000	0.047	0.162
-291.647	-112.603	0.032	-0.006
-290.632	72.408	-0.119	0.124
-289.618	207.343	-0.095	-0.148
-288.603	-0.288	0.201	-0.144
-287.589	-200.000	-0.059	-0.379
-286.574	-200.000	0.048	-0.235
-285.559	-44.109	0.194	-0.098
-284.545	89.114	-0.148	0.166
-283.530	-162.613	0.275	-0.014
-282.516	478.790	0.046	0.105
-281.501	167.128	-0.107	-0.153
-280.486	-43.343	0.166	-0.084
-279.472	-200.000	-0.056	0.276
-278.457	-23.507	-0.245	-0.148
-277.443	-200.000	-0.002	0.052
-276.428	-16.720	-0.138	-0.088
-275.413	-106.314	-0.226	0.051
-274.399	-165.596	-0.117	0.005
-273.384	800.000	-0.090	0.308
-272.370	-52.676	-0.285	0.132
-271.355	-77.725	0.186	0.065
-270.340	800.000	0.097	-0.269
-269.326	-200.000	0.001	0.071
-268.311	553.634	0.084	-0.202
-267.297	249.730	-0.164	-0.279
-266.282	110.318	-0.232	-0.280
-265.267	-72.639	0.214	-0.079
-264.253	18.528	-0.105	-0.084
-263.238	-101.482	0.111	0.027
-262.224	34.439	0.108	-0.094
-261.209	-11.259	0.381	-0.252
-260.195	-63.755	-0.223	-0.091
-259.180	56.560	0.259	0.253
-258.165	518.789	0.059	0.138
-257.151	-48.268	-0.100	0.048
-256.136	83.166	-0.272	-0.297
-255.122	59.775	-0.076	0.075
-254.107	24.846	-0.207	-0.172
-253.092	-8.862	0.346	0.233
-252.078	-35.979	-0.334	0.181
-251.063	113.319	-0.116	0.141
-250.049	-200.000	0.013	0.096
-249.034	-62.836	-0.321	-0.133
-248.019	428.395	-0.091	-0.198
-247.005	35.453	-0.012	-0.011
-245.990	-39.199	0.389	-0.205
-244.976	25.536	0.120	0.101
-243.961	85.484	0.121	-0.134
-242.946	-79.584	-0.099	-0.034
-241.932	-48.328	0.288	-0.139
-240.917	-200.000	0.050	0.245
-239.903	-53.684	0.088	0.040
-238.888	-55.253	-0.177	0.080
-237.873	85.786	-0.123	-0.136
-236.859	168.215	0.286	-0.409
-235.844	-15.033	-0.342	0.220
-234.830	-175.942	-0.052	0.001
-233.815	521.832	0.044	0.103
-232.800	-21.059	-0.115	-0.071
-231.786	-141.561	0.172	0.017
-230.771	-166.753	0.299	-0.012
-229.757	800.000	0.120	0.337
-228.742	800.000	-0.117	-0.381
-227.727	26.059	0.257	-0.215
-226.713	-67.407	-0.369	-0.145
-225.698	-34.523	-0.048	-0.026
-224.684	-14.740	-0.122	-0.079
-223.669	13.607	0.129	0.101
-222.655	70.272	0.138	0.142
-221.640	235.886	-0.102	-0.169
-220.625	145.487	0.166	0.223
-219.611	0.822	-0.190	-0.136
-218.596	-161.966	-0.283	-0.014
-217.582	589.124	-0.125	0.309
-216.567	131.588	-0.059	-0.076
-215.552	-117.693	0.259	0.047
-214.538	132.636	-0.171	-0.221
-213.523	-200.000	-0.038	0.268
-212.509	-64.225	0.020	-0.008
-211.494	35.428	-0.021	0.018
-210.479	2.511	0.208	0.151
-209.465	28.497	-0.275	-0.233
-208.450	104.188	0.243	0.286
-207.436	-144.964	-0.230	-0.021
-206.421	-200.000	0.056	-0.303
-205.406	-34.434	-0.082	0.045
-204.392	-2.858	-0.305	0.214
-203.377	197.790	0.078	0.119
-202.363	-200.000	0.041	0.369
-201.348	45.078	0.334	-0.308
-200.333	-18.223	-0.028	-0.018
-199.319	-200.000	-0.004	0.073
-198.304	-158.425	0.096	0.006
-197.290	75.152	-0.182	0.192
-196.275	-200.000	0.008	-0.119
-195.260	-200.000	-0.016	0.135
-194.246	800.000	-0.035	0.106
-193.231	62.467	0.237	0.237
-192.217	-171.323	0.431	0.014
-191.202	-194.791	-0.335	-0.003
-190.187	515.050	0.027	-0.062
-189.173	309.608	0.067	0.125
-188.158	-84.618	-0.349	0.110
-187.144	791.067	0.011	0.030
-186.129	800.000	-0.049	0.147
-185.114	48.832	0.007	0.007
-184.100	150.960	-0.251	-0.342
-183.085	800.000	-0.034	0.119
-182.071	0.877	-0.262	0.187
-181.056	-200.000	-0.027	0.125
-180.042	1.074	0.209	-0.150
-179.027	-10.383	-0.218	0.145
-178.012	122.901	-0.165	0.207
-176.998	-134.471	-0.117	0.014
-175.983	28.956	-0.059	0.050
-174.969	-8.560	-0.106	0.071
-173.954	-200.000	-0.029	0.321
-172.939	749.487	0.035	-0.094
-171.925	-31.327	-0.221	-0.124
-170.910	-47.112	-0.198	-0.097
-169.896	-60.980	-0.150	-0.063
-168.881	-137.677	-0.200	0.022
-167.866	-46.828	-0.037	0.018
-166.852	90.901	-0.121	-0.136
-165.837	-200.000	-0.108	-0.527
-164.823	800.000	0.067	-0.267
-163.808	-200.000	0.052	-0.263
-162.793	71.498	0.195	-0.202
-161.779	800.000	-0.079	0.296
-160.764	29.026	0.134	0.113
-159.750	800.000	-0.012	0.044
-158.735	-30.528	0.236	-0.134
-157.720	174.677	-0.213	-0.307
-156.706	800.000	0.032	-0.135
-155.691	-24.823	-0.110	-0.065
-154.677	-200.000	-0.099	0.440
-153.662	32.249	0.200	0.172
-152.647	165.027	-0.203	0.286
-151.633	-200.000	-0.004	-0.030
-150.618	364.749	0.198	0.398
-149.604	800.000	0.065	-0.197
-148.589	-70.290	0.326	0.124
-147.574	-4.365	0.121	0.084
-146.560	292.631	0.054	0.098
-145.545	121.194	0.239	-0.297
-144.531	32.986	0.114	-0.098
-143.516	-166.914	-0.342	0.014
-142.502	91.193	0.089	-0.100
-141.487	151.773	-0.226	0.307
-140.472	82.187	0.269	0.292
-139.458	-121.611	-0.135	0.022
-138.443	368.422	0.034	0.068
-137.429	72.380	-0.247	-0.257
-136.414	-200.000	-0.018	-0.165
-135.399	-169.859	0.242	0.009
-134.385	85.466	0.144	-0.158
-133.370	124.876	-0.239	-0.301
-132.356	247.016	0.027	-0.046
-131.341	220.818	-0.083	0.132
-130.326	657.864	0.072	-0.185
-129.312	-149.250	-0.159	-0.013
-128.297	-64.456	0.285	0.116
-127.283	170.001	0.276	-0.395
-126.268	800.000	-0.021	-0.081
-125.253	3.999	0.261	0.191
-124.239	136.656	-0.055	-0.071
-123.224	662.387	0.158	-0.406
-122.210	-141.681	0.172	-0.017
-121.195	99.450	-0.049	0.057
-120.180	43.731	0.332	0.303
-119.166	-157.198	0.202	0.012
-118.151	179.637	0.158	-0.230
-117.137	-5.366	0.212	0.145
-116.122	-200.000	0.033	-0.151
-115.107	-29.703	-0.276	0.157
-114.093	800.000	-0.049	-0.202
-113.078	800.000	-0.059	-0.247
-112.064	1.568	0.159	0.114
-111.049	-74.764	-0.364	0.131
-110.034	420.319	-0.072	0.153
-109.020	8.540	0.215	0.162
-108.005	-61.646	0.162	0.068
-106.991	-46.845	-0.316	0.154
-105.976	654.556	-0.110	-0.282
-104.962	-32.397	-0.144	0.080
-103.947	54.676	-0.227	0.219
-102.932	37.356	-0.174	-0.154
-101.918	3.127	0.192	-0.139
-100.903	800.000	0.029	-0.100
-99.889	-91.953	-0.328	0.093
-98.874	218.867	0.131	0.209
-97.859	24.281	-0.172	-0.142
-96.845	-103.254	-0.411	0.097
-95.830	-200.000	-0.010	0.231
-94.816	100.935	0.121	0.141
-93.801	5.797	0.326	0.241
-92.786	-86.491	-0.183	0.056
-91.772	-109.967	-0.076	-0.016
-90.757	191.820	-0.136	0.204
-89.743	54.339	0.078	-0.074
-88.728	-181.437	-0.376	0.007
-87.713	-91.496	0.231	0.066
-86.699	800.000	0.072	0.235
-85.684	116.575	0.091	0.111
-84.670	800.000	-0.061	-0.207
-83.655	-101.568	0.196	-0.048
-82.640	224.854	0.047	0.075
-81.626	-165.204	-0.177	-0.008
-80.611	-38.672	0.038	-0.020
-79.597	800.000	-0.109	-0.345
-78.582	-200.000	0.011	-0.057
-77.567	110.922	-0.074	0.088
-76.553	46.471	0.252	0.233
-75.538	111.856	0.120	0.145
-74.524	35.832	-0.238	-0.209
-73.509	13.169	-0.141	0.109
-72.494	-120.291	0.258	0.044
-71.480	-23.905	0.410	0.244
-70.465	-200.000	-0.003	0.397
-69.451	800.000	0.018	-0.070
-68.436	-200.000	-0.012	0.208
-67.422	430.318	0.106	-0.229
-66.407	123.511	-0.279	0.349
-65.392	77.645	0.188	0.199
-64.378	-200.000	-0.044	-0.261
-63.363	122.336	-0.048	-0.060
-62.349	-86.336	0.240	-0.074
-61.334	79.587	-0.792	-0.846
-60.319	107.400	0.184	0.218
-59.305	-200.000	0.123	-1.015
-58.290	130.023	0.508	0.648
-57.276	800.000	0.415	1.607
-56.261	-200.000	82.870	504.870
-55.246	565.134	1377.167	3323.966
-54.232	180.891	2614.755	3824.058
-53.217	121.358	2272.645	2818.267
-52.203	48.145	1800.883	1676.652
-51.188	41.031	1607.540	1445.159
-50.173	38.587	1579.171	1402.128
-49.159	55.066	1618.899	1556.931
-48.144	59.138	1638.229	1604.921
-47.130	41.646	1601.523	1443.964
-46.115	38.350	1586.849	1407.016
-45.100	38.164	1583.591	1402.737
-44.086	38.193	1581.787	1401.289
-43.071	38.097	1579.691	1398.690
-42.057	38.022	1578.332	1396.891
-41.042	37.990	1576.477	1394.969
-40.027	37.977	1575.508	1393.964
-39.013	38.013	1573.359	1392.258
-37.998	38.027	1571.928	1391.043
-36.984	38.008	1571.246	1390.242
-35.969	38.002	1569.901	1388.954
-34.954	38.039	1568.288	1387.741
-33.940	38.029	1567.049	1386.518
-32.925	38.035	1565.096	1384.773
-31.911	38.091	1563.991	1384.140
-30.896	38.111	1562.682	1383.071
-29.881	38.150	1561.286	1382.057
-28.867	38.105	1559.848	1380.405
-27.852	38.105	1558.499	1379.163
-26.838	38.059	1557.300	1377.716
-25.823	38.069	1555.612	1376.241
-24.809	38.174	1553.568	1375.117
-23.794	38.088	1552.433	1373.456
-22.779	38.126	1550.880	1372.291
-21.765	38.096	1550.031	1371.278
-20.750	38.107	1549.198	1370.563
-19.736	38.072	1547.695	1368.932
-18.721	37.984	1546.299	1367.024
-17.706	37.979	1545.370	1366.113
-16.692	38.056	1543.628	1365.063
-15.677	37.925	1543.406	1363.894
-14.663	38.041	1541.885	1363.308
-13.648	38.088	1540.760	1362.585
-12.633	37.925	1540.385	1361.063
-11.619	38.024	1538.792	1360.293
-10.604	37.910	1537.863	1358.620
-9.590	37.962	1537.492	1358.601
-8.575	38.058	1536.145	1358.023
-7.560	37.959	1535.563	1356.767
-6.546	37.993	1534.410	1355.933
-5.531	37.897	1533.902	1354.759
-4.517	37.887	1532.960	1353.805
-3.502	37.902	1531.778	1352.812
-2.487	37.895	1530.692	1351.752
-1.473	38.011	1529.260	1351.235
-0.458	37.964	1528.183	1349.907
0.556	36.387	1518.810	1341.060
1.571	34.278	1491.480	1302.411
2.586	31.250	1428.018	1227.023
3.600	29.468	1342.785	1142.665
4.615	27.832	1293.359	1090.742
5.629	22.804	1232.089	1010.278
6.644	10.663	1136.893	867.626
7.659	1.582	1089.649	784.801
8.673	0.396	1083.346	774.109
9.688	0.092	1080.493	770.448
10.702	0.094	1078.647	769.072
11.717	0.098	1076.863	767.753
12.731	3.977	1082.539	791.600
13.746	14.979	1098.847	860.307
14.761	21.936	1107.809	903.183
15.775	22.272	1107.183	904.324
16.790	22.214	1106.142	903.097
17.804	21.986	1105.824	901.583
18.819	21.847	1104.293	899.545
19.834	21.876	1104.383	899.688
20.848	21.956	1103.661	899.429
21.863	22.118	1103.055	899.686
22.877	22.141	1102.399	899.186
23.892	21.972	1101.638	897.624
24.907	22.025	1100.686	897.038
25.921	21.966	1100.319	896.358
26.936	22.016	1099.803	896.112
27.950	22.016	1098.102	894.647
28.965	22.023	1097.176	893.850
29.980	21.872	1095.152	891.356
30.994	21.787	1094.319	890.169
32.009	22.095	1093.599	891.067
33.023	22.131	1092.549	890.315
34.038	21.878	1091.681	888.246
35.053	21.715	1091.421	887.131
36.067	21.941	1090.308	887.293
37.082	21.807	1089.465	885.849
38.096	22.134	1088.435	886.582
39.111	22.236	1088.152	886.792
40.126	22.289	1087.224	886.219
41.140	22.244	1085.610	884.601
42.155	22.085	1084.120	882.509
43.169	21.574	1083.086	879.024
44.184	21.575	1082.328	878.337
45.199	21.693	1081.222	877.954
46.213	21.542	1080.171	876.268
47.228	21.571	1078.698	875.136
48.242	21.766	1078.261	875.679
49.257	21.789	1077.839	875.373
50.271	21.886	1077.056	875.147
51.286	22.074	1076.082	875.216
52.301	22.018	1075.398	874.303
53.315	21.984	1074.813	873.579
54.330	22.096	1073.804	873.238
55.344	21.836	1073.054	871.262
56.359	21.925	1072.254	870.976
57.374	22.002	1071.242	870.456
58.388	21.717	1070.272	868.182
59.403	21.775	1069.461	867.732
60.417	21.707	1068.973	866.925
61.432	21.507	1068.194	865.229
62.447	21.627	1067.210	864.945
63.461	21.669	1066.695	864.659
64.476	21.700	1065.823	864.031
65.490	21.843	1064.823	863.847
66.505	21.586	1063.742	861.627
67.520	21.749	1062.825	861.609
68.534	21.683	1062.279	860.766
69.549	21.731	1061.123	859.992
70.563	21.374	1059.712	857.022
71.578	21.343	1058.436	855.761
72.593	21.322	1058.093	855.306
73.607	21.238	1057.253	854.138
74.622	21.134	1056.255	852.752
75.636	21.404	1055.573	853.441
76.651	21.577	1054.967	853.722
77.666	21.510	1053.769	852.347
78.680	21.353	1052.835	850.753
79.695	21.362	1052.659	850.582
80.709	21.541	1051.955	850.805
81.724	21.557	1051.097	850.115
82.739	21.576	1050.157	849.369
83.753	21.648	1049.001	848.711
84.768	21.751	1048.696	848.886
85.782	22.166	1048.453	850.627
86.797	22.283	1047.412	850.269
87.812	22.259	1046.219	849.111
88.826	22.055	1045.512	847.476
89.841	22.104	1044.597	846.896
90.855	22.302	1043.479	846.871
91.870	22.082	1043.238	845.540
92.884	22.191	1042.069	845.040
93.899	22.205	1040.890	844.076
94.914	22.117	1039.828	842.719
95.928	22.169	1039.359	842.514
96.943	22.149	1038.554	841.689
97.957	21.813	1036.996	838.749
98.972	21.529	1035.992	836.502
99.987	21.398	1035.188	835.153
101.001	21.501	1034.640	835.133
102.016	21.817	1033.973	836.027
103.030	21.961	1033.076	835.912
104.045	21.992	1031.179	834.449
105.060	21.674	1030.649	832.435
106.074	21.640	1029.127	830.973
107.089	21.593	1028.676	830.313
108.103	21.859	1028.447	831.317
109.118	22.051	1027.197	831.140
110.133	21.727	1026.166	828.701
111.147	21.710	1025.374	827.905
112.162	21.562	1024.205	826.191
113.176	21.412	1022.800	824.277
114.191	21.481	1022.067	823.940
115.206	21.651	1021.264	824.016
116.220	21.280	1019.819	821.035
117.235	21.165	1018.957	819.728
118.249	21.329	1017.950	819.616
119.264	21.359	1017.617	819.415
120.279	21.303	1016.498	818.182
121.293	21.295	1015.728	817.451
122.308	21.332	1015.342	817.240
123.322	21.378	1014.565	816.761
124.337	21.371	1013.115	815.486
125.352	21.266	1011.706	813.792
126.366	21.002	1009.896	811.037
127.381	20.705	1008.370	808.360
128.395	21.011	1008.878	810.118
129.410	21.751	1008.286	813.001
130.424	21.794	1007.687	812.646
131.439	21.879	1006.235	811.796
132.454	21.781	1005.455	810.642
133.468	21.817	1004.603	810.053
134.483	21.737	1003.750	808.923
135.497	21.853	1002.960	808.748
136.512	22.111	1002.472	809.474
137.527	22.098	1001.662	808.688
138.541	22.139	1000.519	807.883
139.556	22.199	999.923	807.607
140.570	21.978	999.366	806.069
141.585	22.082	998.301	805.618
142.600	22.256	997.409	805.623
143.614	22.147	996.854	804.602
144.629	22.142	996.392	804.137
145.643	22.464	995.445	804.774
146.658	22.255	994.527	803.003
147.673	22.211	992.903	801.422
148.687	22.039	991.688	799.586
149.702	21.877	990.920	798.159
150.716	21.893	989.857	797.307
151.731	21.783	988.791	795.876
152.746	21.966	987.823	795.859
153.760	22.029	987.381	795.718
154.775	22.158	986.770	795.738
155.789	22.171	986.109	795.194
156.804	22.174	985.040	794.274
157.819	22.164	983.812	793.170
158.833	22.237	982.438	792.322
159.848	22.335	982.122	792.435
160.862	22.396	981.444	792.097
161.877	22.139	980.144	789.820
162.892	22.094	979.833	789.295
163.906	22.270	978.783	789.170
164.921	22.275	977.401	788.010
165.935	22.160	976.169	786.430
166.950	22.204	975.347	785.897
167.964	22.208	974.382	785.068
168.979	22.172	973.260	783.936
169.994	22.056	972.728	782.917
171.008	21.994	971.554	781.627
172.023	22.146	970.667	781.524
173.037	22.243	969.765	781.155
174.052	22.175	968.325	779.629
175.067	22.016	967.568	778.245
176.081	22.053	966.988	777.870
177.096	21.997	966.241	776.955
178.110	22.001	964.980	775.888
179.125	21.774	964.094	774.107
180.140	21.541	962.984	772.119
181.154	21.463	962.494	771.316
182.169	21.689	961.866	771.738
183.183	21.921	961.463	772.367
184.198	22.058	961.403	772.853
185.213	22.177	960.441	772.537
186.227	22.171	959.588	771.754
187.242	22.365	959.080	772.131
188.256	22.259	958.079	770.790
189.271	22.228	957.322	769.979
190.286	22.316	956.585	769.702
191.300	22.207	955.211	768.051
192.315	21.737	954.353	765.241
193.329	20.926	952.836	760.420
194.344	20.501	951.310	757.286
195.359	20.963	952.294	760.015
196.373	21.851	952.354	763.867
197.388	22.098	952.262	764.800
198.402	22.115	951.265	764.004
199.417	21.971	950.411	762.626
200.432	22.169	950.023	763.105
201.446	22.055	948.803	761.565
202.461	21.572	948.384	759.068
203.475	21.743	947.747	759.231
204.490	21.294	946.323	756.080
205.504	20.255	943.857	749.557
206.519	20.479	944.162	750.701
207.534	21.622	944.341	755.713
208.548	21.705	943.688	755.483
209.563	21.966	943.839	756.660
210.577	22.095	943.168	756.612
211.592	21.785	942.281	754.500
212.607	22.256	941.827	756.094
213.621	22.294	941.126	755.630
214.636	22.222	940.473	754.729
215.650	22.367	939.817	754.758
216.665	22.324	938.946	753.805
217.680	22.235	939.002	753.402
218.694	22.213	938.655	752.961
219.709	21.848	937.565	750.460
220.723	21.681	936.427	748.770
221.738	21.768	936.176	748.875
222.753	22.114	935.371	749.639
223.767	22.010	934.742	748.627
224.782	22.086	933.934	748.239
225.796	22.265	933.107	748.271
226.811	22.313	932.799	748.159
227.826	21.950	931.413	745.443
228.840	21.186	929.768	740.820
229.855	21.192	928.757	739.974
230.869	21.260	929.258	740.597
231.884	21.182	927.479	738.783
232.899	21.026	927.230	737.860
233.913	21.781	927.735	741.389
234.928	22.115	927.084	742.216
235.942	21.989	926.443	741.102
236.957	22.000	925.838	740.603
237.972	21.587	924.909	738.054
238.986	21.624	924.207	737.583
240.001	21.675	923.541	737.198
241.015	21.838	922.661	737.115
242.030	21.774	922.173	736.391
243.045	22.054	921.560	737.014
244.059	22.011	921.360	736.609
245.074	22.156	920.858	736.749
246.088	22.085	920.289	735.930
247.103	21.838	918.782	733.630
248.117	21.839	918.444	733.298
249.132	22.389	918.200	735.336
250.147	22.715	918.336	736.743
251.161	22.695	917.743	736.117
252.176	22.829	917.359	736.302
253.190	22.930	916.218	735.745
254.205	22.951	915.832	735.454
255.220	23.195	915.350	736.019
256.234	23.133	914.602	735.093
257.249	22.926	914.176	733.826
258.263	22.754	913.333	732.373
259.278	22.875	912.750	732.339
260.293	22.893	912.383	732.057
261.307	22.973	911.989	732.008
262.322	22.788	911.022	730.399
263.336	22.873	909.965	729.840
264.351	22.387	908.444	726.550
265.366	21.265	906.825	720.564
266.380	20.900	905.479	717.930
267.395	21.630	906.315	721.535
268.409	22.517	906.408	725.200
269.424	22.379	905.845	724.116
270.439	22.590	905.324	724.505
271.453	22.708	904.586	724.332
272.468	22.685	903.914	723.638
273.482	22.732	903.748	723.633
274.497	23.015	903.333	724.397
275.512	22.840	901.676	722.290
276.526	22.198	900.520	718.677
277.541	22.447	900.263	719.424
278.555	22.792	900.236	720.749
279.570	22.675	899.176	719.359
280.585	22.335	898.762	717.578
281.599	22.608	897.705	717.780
282.614	22.765	897.268	718.007
283.628	22.326	896.272	715.363
284.643	21.874	895.386	712.757
285.657	22.299	895.361	714.398
286.672	22.130	894.706	713.129
287.687	21.722	893.617	710.541
288.701	21.982	893.454	711.404
289.716	22.565	892.997	713.338
290.730	22.174	892.039	710.926
291.745	21.953	891.295	709.377
292.760	21.766	890.254	707.731
293.774	21.782	889.816	707.384
294.789	22.713	890.422	711.563
295.803	23.191	890.291	713.321
296.818	23.213	890.199	713.275
297.833	23.268	889.519	712.887
298.847	23.159	888.220	711.344
299.862	22.761	887.379	709.008
300.876	22.723	887.151	708.613
301.891	23.039	886.448	709.256
302.906	23.151	885.976	709.262
303.920	22.832	885.007	707.150
304.935	22.767	883.863	705.913
305.949	23.158	883.942	707.475
306.964	23.231	883.262	707.161
307.979	23.015	882.561	705.672
308.993	22.845	882.081	704.551
310.008	23.283	881.744	705.966
311.022	23.498	881.070	706.220
312.037	23.292	880.560	704.930
313.052	22.941	880.153	703.144
314.066	22.852	879.413	702.134
315.081	22.237	877.637	698.213
316.095	21.457	876.617	694.246
317.110	22.041	876.656	696.534
318.125	23.020	876.897	700.546
319.139	22.568	875.962	697.946
320.154	21.399	873.746	691.500
321.168	20.997	872.766	689.075
322.183	21.329	873.603	690.985
323.197	22.393	873.953	695.409
324.212	22.809	873.291	696.461
325.227	22.947	872.860	696.599
326.241	22.993	872.733	696.617
327.256	23.004	871.730	695.800
328.270	22.846	871.412	694.862
329.285	22.795	870.476	693.855
330.300	22.710	869.583	692.747
331.314	22.367	869.147	690.991
332.329	22.412	868.521	690.609
333.343	22.919	868.081	692.185
334.358	23.140	867.897	692.845
335.373	23.186	866.890	692.157
336.387	23.283	866.458	692.132
337.402	23.352	865.989	691.965
338.416	23.531	865.860	692.500
339.431	23.597	864.957	691.972
340.446	23.615	864.562	691.666
341.460	23.781	864.028	691.826
342.475	23.702	863.249	690.833
343.489	23.495	862.603	689.451
344.504	23.564	861.974	689.154
345.519	23.728	861.885	689.660
346.533	24.054	861.399	690.472
347.548	24.117	860.728	690.119
348.562	23.908	860.914	689.398
349.577	23.917	860.213	688.810
350.592	23.875	859.517	688.029
351.606	23.869	859.063	687.580
352.621	23.705	858.763	686.645
353.635	23.739	857.992	686.101
354.650	23.661	857.253	685.147
355.665	23.448	856.305	683.508
356.679	22.358	854.453	677.772
357.694	22.222	853.816	676.685
358.708	22.972	853.455	679.222
359.723	22.958	852.981	678.732
360.738	23.070	852.742	678.913
361.752	23.402	853.143	680.446
362.767	23.496	852.502	680.234
363.781	23.829	852.518	681.462
364.796	24.128	852.494	682.531
365.810	24.243	851.819	682.370
366.825	24.270	851.624	682.258
367.840	24.258	851.118	681.746
368.854	24.184	850.160	680.634
369.869	23.789	849.276	678.359
370.883	23.668	848.651	677.338
371.898	23.585	848.160	676.569
372.913	23.589	847.476	675.980
373.927	23.604	846.511	675.208
374.942	23.822	846.065	675.623
375.956	23.858	845.662	675.375
376.971	23.958	845.373	675.464
377.986	24.096	844.999	675.630
379.000	24.194	844.646	675.661
380.015	24.099	844.226	674.902
381.029	24.091	843.243	674.029
382.044	24.012	842.576	673.135
383.059	24.186	841.877	673.177
384.073	24.275	841.254	672.955
385.088	24.270	840.789	672.505
386.102	24.217	840.442	671.968
387.117	24.082	839.550	670.687
388.132	23.960	838.879	669.633
389.146	23.806	838.463	668.662
390.161	23.277	837.429	665.787
391.175	23.339	837.196	665.777
392.190	23.801	837.530	667.719
393.205	23.920	836.728	667.468
394.219	22.869	835.125	662.193
395.234	21.451	832.762	654.955
396.248	20.747	831.443	651.225
397.263	21.520	832.400	654.812
398.278	23.433	833.776	662.997
399.292	23.895	833.572	664.503
400.307	23.548	832.843	662.569
401.321	23.438	832.323	661.686
402.336	23.479	831.903	661.446
403.350	23.879	831.721	662.735
404.365	24.378	831.543	664.393
405.380	24.607	831.759	665.361
406.394	24.688	831.373	665.291
407.409	24.921	831.163	665.933
408.423	24.919	830.576	665.397
409.438	24.797	830.044	664.458
410.453	24.723	829.755	663.893
411.467	24.873	829.120	663.881
412.482	24.887	828.259	663.186
413.496	24.713	827.950	662.235
414.511	24.767	827.525	662.038
415.526	24.909	827.215	662.257
416.540	25.051	826.465	662.122
417.555	24.965	825.958	661.341
418.569	24.733	825.164	659.788
419.584	24.558	824.791	658.788
420.599	24.640	824.115	658.490
421.613	148.143	1364.097	1776.306
422.628	129.051	1442.768	1776.434
