DTS Sentinel unit serial number:	SN413079Multiplexer serial number:	ORYXHardware model number:	OX4-SRSoftware version number:	ORYX F/W v4.00 Oryx Data Collector v3.7.2.0data status	okinstallation	princeton_trtdifferential loss correction	single-endedforward channel	channel 3reverse channel	N/Adate	2019/09/11time	01:18:10forward acquisition time	60.00reverse acquisition time	0.00gamma	496.2192k internal	0.2332k external	0.2332temperature offset calibration	0.9912default loss term (dB/km)	0.3790temperature slope calibration	1.0000multiplexer offset coefficient	1.0000multiplexer slope coefficient	1.0000fibre end	0.00T internal ref (°C)	29.12T ext. ref 1 (°C)	-0.32T ext. ref 2 (°C)	23.14length (m)	temperature (°C)	Stokes	anti-Stokes-747.200	718.207	-0.027	0.071
-746.185	-67.434	-0.186	0.074
-745.171	569.976	0.067	0.164
-744.156	9.749	0.084	0.064
-743.142	370.556	0.123	0.251
-742.127	177.923	-0.140	0.205
-741.112	-200.000	0.001	-0.093
-740.098	-89.983	-0.143	-0.042
-739.083	-80.287	-0.169	-0.057
-738.069	152.935	-0.181	0.248
-737.054	800.000	-0.066	-0.283
-736.039	-16.599	-0.244	-0.156
-735.025	-136.800	0.206	0.024
-734.010	-118.744	0.268	0.048
-732.996	-87.292	-0.305	-0.093
-731.981	-32.638	-0.199	-0.111
-730.966	-64.798	-0.283	0.115
-729.952	-154.017	0.124	-0.009
-728.937	-200.000	0.024	-0.140
-727.923	-71.547	0.338	0.127
-726.908	-165.158	-0.249	-0.011
-725.894	-85.510	0.324	-0.101
-724.879	392.780	-0.152	-0.318
-723.864	800.000	0.076	-0.219
-722.850	-200.000	0.034	-0.274
-721.835	-75.558	-0.202	-0.072
-720.821	-84.108	-0.298	0.095
-719.806	329.764	0.152	-0.295
-718.791	-5.581	-0.242	0.167
-717.777	125.614	0.174	0.220
-716.762	-99.717	-0.082	0.021
-715.748	56.969	-0.135	0.133
-714.733	-94.659	-0.088	-0.024
-713.718	-200.000	-0.018	0.144
-712.704	-200.000	-0.017	-0.434
-711.689	394.836	0.204	0.428
-710.675	-24.025	0.172	-0.103
-709.660	-72.624	0.275	-0.102
-708.645	-36.429	0.112	-0.060
-707.631	-112.268	-0.464	-0.093
-706.616	-181.267	0.253	-0.005
-705.602	-46.468	0.144	0.071
-704.587	-200.000	-0.010	-0.332
-703.572	800.000	-0.015	0.063
-702.558	192.574	0.079	-0.119
-701.543	-3.137	0.376	0.263
-700.529	168.400	-0.139	-0.198
-699.514	800.000	0.078	0.311
-698.499	-157.245	0.110	0.007
-697.485	627.530	-0.197	-0.500
-696.470	-68.774	-0.254	-0.098
-695.456	-200.000	0.014	0.243
-694.441	43.171	0.278	0.255
-693.426	58.126	-0.135	0.132
-692.412	-152.507	-0.158	-0.011
-691.397	56.222	-0.076	0.074
-690.383	800.000	0.086	-0.344
-689.368	-200.000	-0.062	-0.478
-688.354	771.687	-0.045	-0.124
-687.339	-65.824	0.423	0.170
-686.324	125.108	0.077	-0.098
-685.310	-38.688	-0.230	-0.122
-684.295	-200.000	0.059	0.414
-683.281	137.634	-0.055	0.073
-682.266	-200.000	-0.018	0.109
-681.251	-200.000	0.004	-0.089
-680.237	-200.000	-0.032	0.205
-679.222	-127.782	-0.420	0.061
-678.208	800.000	0.003	-0.012
-677.193	502.452	0.139	-0.322
-676.178	-167.221	0.222	-0.009
-675.164	-124.319	0.226	0.035
-674.149	534.570	0.065	0.154
-673.135	235.947	-0.236	0.391
-672.120	800.000	0.119	-0.465
-671.105	-81.161	0.272	0.090
-670.091	-200.000	0.007	-0.216
-669.076	582.913	0.096	-0.237
-668.062	409.660	0.092	0.196
-667.047	82.303	-0.276	0.301
-666.032	-8.933	-0.161	-0.108
-665.018	-34.868	-0.296	-0.162
-664.003	137.578	-0.100	-0.132
-662.989	-51.102	-0.226	-0.106
-661.974	277.650	0.060	-0.107
-660.959	148.258	0.131	-0.177
-659.945	60.570	0.147	0.146
-658.930	479.302	-0.044	0.100
-657.916	0.884	-0.114	0.082
-656.901	242.604	0.136	-0.228
-655.886	252.676	0.079	-0.135
-654.872	-162.002	0.222	0.011
-653.857	-171.091	-0.322	-0.011
-652.843	-49.570	0.206	-0.098
-651.828	-192.040	-0.339	0.003
-650.814	466.729	-0.131	-0.293
-649.799	800.000	0.038	0.108
-648.784	-200.000	0.027	0.270
-647.770	172.922	-0.097	0.140
-646.755	800.000	0.051	-0.164
-645.741	123.137	0.080	-0.101
-644.726	18.911	0.091	-0.073
-643.711	272.738	-0.092	0.162
-642.697	175.952	0.051	-0.074
-641.682	-75.900	-0.459	-0.163
-640.668	-27.870	0.324	-0.188
-639.653	800.000	0.030	-0.119
-638.638	188.544	0.156	0.234
-637.624	-90.597	0.272	0.079
-636.609	526.527	0.125	0.296
-635.595	-129.092	-0.142	0.020
-634.580	215.393	0.139	-0.221
-633.565	-73.912	-0.264	-0.096
-632.551	-149.104	0.063	-0.005
-631.536	-92.010	0.201	-0.057
-630.522	162.465	0.123	-0.173
-629.507	165.184	0.185	-0.262
-628.492	800.000	0.028	0.080
-627.478	-155.942	0.002	-0.000
-626.463	-21.214	-0.224	0.137
-625.449	737.654	0.019	0.052
-624.434	122.752	-0.176	-0.220
-623.419	-114.845	-0.506	0.097
-622.405	-200.000	-0.037	0.246
-621.390	800.000	-0.073	-0.242
-620.376	-181.901	-0.221	-0.004
-619.361	396.947	0.091	0.191
-618.346	160.088	0.009	0.013
-617.332	-200.000	0.012	-0.180
-616.317	37.430	0.051	-0.045
-615.303	54.282	-0.066	0.063
-614.288	-154.002	-0.304	0.021
-613.273	-176.429	0.171	-0.004
-612.259	9.447	-0.163	0.123
-611.244	585.044	-0.069	-0.171
-610.230	119.008	-0.088	0.109
-609.215	800.000	-0.112	0.339
-608.201	-149.141	-0.287	-0.023
-607.186	-61.596	-0.074	0.031
-606.171	94.353	-0.037	-0.042
-605.157	-81.735	-0.333	0.109
-604.142	-28.803	0.172	-0.099
-603.128	61.461	0.168	0.167
-602.113	-78.774	0.032	0.011
-601.098	-37.204	-0.345	-0.184
-600.084	269.926	-0.047	0.082
-599.069	-130.238	-0.130	0.018
-598.055	193.336	-0.150	0.227
-597.040	800.000	0.066	-0.217
-596.025	-51.786	0.168	0.078
-595.011	263.696	-0.141	0.245
-593.996	-200.000	-0.013	-0.316
-592.982	800.000	0.054	0.152
-591.967	800.000	-0.048	-0.171
-590.952	36.089	-0.122	-0.108
-589.938	-34.268	0.159	-0.087
-588.923	-200.000	-0.068	-0.322
-587.909	-5.304	-0.073	0.050
-586.894	-3.561	0.291	-0.202
-585.879	800.000	0.104	-0.294
-584.865	800.000	0.071	-0.210
-583.850	-66.899	-0.263	0.104
-582.836	800.000	0.082	0.341
-581.821	800.000	0.097	0.360
-580.806	800.000	0.073	0.244
-579.792	-200.000	0.040	-0.231
-578.777	402.591	0.043	0.091
-577.763	59.060	-0.161	-0.159
-576.748	-112.139	0.283	-0.057
-575.733	65.324	-0.149	-0.151
-574.719	-200.000	0.019	-0.258
-573.704	249.786	-0.135	-0.228
-572.690	-27.972	-0.208	0.121
-571.675	147.187	0.127	-0.171
-570.661	86.005	-0.145	-0.160
-569.646	695.864	0.113	0.297
-568.631	299.201	-0.115	-0.212
-567.617	-56.319	-0.430	-0.191
-566.602	-200.000	-0.085	-0.414
-565.588	-52.942	-0.049	-0.023
-564.573	14.349	-0.395	-0.307
-563.558	-200.000	0.008	0.088
-562.544	260.235	-0.187	0.322
-561.529	-146.689	0.155	0.013
-560.515	-54.471	0.416	-0.188
-559.500	79.058	0.094	0.100
-558.485	800.000	-0.025	0.094
-557.471	800.000	-0.035	-0.148
-556.456	-200.000	0.042	0.349
-555.442	373.426	0.077	0.157
-554.427	-83.961	-0.021	-0.007
-553.412	-110.898	-0.304	-0.062
-552.398	-178.006	0.288	0.007
-551.383	-75.276	-0.248	0.088
-550.369	800.000	-0.061	0.229
-549.354	-104.882	-0.289	-0.066
-548.339	-178.070	0.193	-0.005
-547.325	182.875	0.135	-0.199
-546.310	-133.962	-0.065	-0.008
-545.296	165.804	0.094	-0.133
-544.281	-22.232	-0.374	0.227
-543.266	113.143	-0.123	0.149
-542.252	-113.967	0.197	0.038
-541.237	-15.708	-0.174	-0.111
-540.223	800.000	0.020	0.061
-539.208	201.490	-0.083	-0.127
-538.193	-148.112	-0.451	0.037
-537.179	82.638	-0.050	0.054
-536.164	-172.407	0.496	0.016
-535.150	396.066	0.031	0.064
-534.135	-161.664	0.261	-0.013
-533.121	131.625	0.197	0.253
-532.106	-200.000	-0.014	0.266
-531.091	-200.000	0.008	-0.084
-530.077	-200.000	0.014	-0.295
-529.062	-200.000	0.008	-0.070
-528.048	276.645	-0.125	-0.222
-527.033	-15.440	-0.160	0.102
-526.018	213.535	0.118	-0.187
-525.004	14.150	0.182	0.141
-523.989	98.316	-0.136	0.156
-522.975	-193.043	-0.123	-0.001
-521.960	173.183	-0.079	0.114
-520.945	-131.308	-0.386	-0.051
-519.931	596.035	0.162	0.399
-518.916	-200.000	0.023	0.398
-517.902	800.000	0.034	-0.145
-516.887	-14.818	-0.233	-0.149
-515.872	53.734	-0.221	-0.212
-514.858	223.979	-0.094	0.151
-513.843	194.311	0.121	-0.183
-512.829	375.920	-0.147	-0.299
-511.814	12.539	-0.152	-0.117
-510.799	457.675	-0.058	0.130
-509.785	201.388	0.085	-0.131
-508.770	-36.171	-0.371	0.200
-507.756	526.956	0.029	-0.069
-506.741	-37.906	-0.177	-0.094
-505.726	-49.433	-0.109	-0.052
-504.712	387.645	0.054	-0.111
-503.697	800.000	0.065	-0.204
-502.683	-28.933	0.364	0.208
-501.668	-200.000	-0.017	-0.088
-500.653	127.460	-0.113	-0.143
-499.639	-128.722	0.194	-0.027
-498.624	-200.000	0.001	0.169
-497.610	4.914	-0.131	0.096
-496.595	286.473	0.143	0.258
-495.581	138.025	0.140	0.183
-494.566	-56.740	-0.287	0.126
-493.551	-200.000	0.035	-0.185
-492.537	800.000	0.032	0.141
-491.522	147.275	-0.217	0.291
-490.508	-83.275	0.528	0.169
-489.493	426.233	0.083	-0.179
-488.478	-12.524	-0.221	-0.144
-487.464	-87.891	0.162	-0.048
-486.449	335.128	-0.041	-0.079
-485.435	197.873	0.260	-0.396
-484.420	-23.600	-0.350	-0.209
-483.405	-43.549	-0.112	0.057
-482.391	-96.156	-0.392	0.104
-481.376	-31.367	-0.250	-0.140
-480.362	-82.970	0.168	-0.054
-479.347	7.056	-0.095	-0.071
-478.332	32.798	-0.296	-0.255
-477.318	-197.321	-0.257	-0.002
-476.303	184.666	-0.035	-0.051
-475.289	-82.651	-0.225	-0.073
-474.274	-53.932	0.153	-0.069
-473.259	800.000	-0.008	0.024
-472.245	-45.414	0.294	0.145
-471.230	-87.015	0.343	0.104
-470.216	-91.405	-0.269	-0.076
-469.201	-200.000	-0.030	0.137
-468.186	130.515	0.037	0.047
-467.172	33.697	0.154	-0.133
-466.157	-200.000	-0.007	0.327
-465.143	-81.126	-0.261	-0.086
-464.128	-200.000	-0.002	0.171
-463.113	-200.000	-0.028	-0.150
-462.099	602.458	0.076	0.189
-461.084	-92.256	-0.470	0.132
-460.070	800.000	-0.038	-0.119
-459.055	-200.000	-0.008	0.075
-458.040	800.000	0.065	0.211
-457.026	106.810	0.157	0.185
-456.011	-200.000	0.009	-0.195
-454.997	-57.525	-0.350	0.153
-453.982	246.284	0.175	0.293
-452.968	170.305	0.043	-0.061
-451.953	-200.000	-0.017	-0.094
-450.938	45.515	0.089	-0.082
-449.924	150.821	-0.113	-0.153
-448.909	-31.471	0.159	-0.089
-447.895	-200.000	0.039	0.377
-446.880	-163.889	0.086	-0.004
-445.865	-86.273	0.072	0.022
-444.851	800.000	-0.083	-0.328
-443.836	-36.683	0.090	0.048
-442.822	-81.667	0.180	0.059
-441.807	800.000	0.030	-0.129
-440.792	416.380	-0.042	-0.089
-439.778	-68.328	-0.116	0.045
-438.763	-65.754	0.060	0.024
-437.749	352.952	0.014	0.028
-436.734	-5.756	-0.266	0.181
-435.719	-172.124	-0.183	0.006
-434.705	-130.985	0.227	0.030
-433.690	-148.581	0.205	-0.017
-432.676	-35.187	0.089	0.048
-431.661	406.883	0.039	-0.082
-430.646	10.763	-0.060	-0.046
-429.632	33.759	-0.033	0.028
-428.617	22.869	-0.148	0.121
-427.603	-200.000	0.051	0.370
-426.588	-112.680	0.233	-0.046
-425.573	-119.678	0.238	0.041
-424.559	-71.003	-0.048	0.018
-423.544	521.314	0.130	0.304
-422.530	785.139	0.089	-0.242
-421.515	-200.000	-0.004	-0.216
-420.500	-76.441	-0.081	0.028
-419.486	-97.895	-0.149	-0.038
-418.471	136.050	-0.076	0.098
-417.457	-43.255	-0.120	-0.060
-416.442	-200.000	0.013	0.087
-415.428	49.531	0.117	-0.109
-414.413	-99.753	-0.178	-0.044
-413.398	-155.731	-0.271	-0.017
-412.384	520.200	0.083	0.194
-411.369	-200.000	0.043	-0.249
-410.355	-131.540	-0.189	-0.025
-409.340	87.365	0.132	0.145
-408.325	767.872	0.111	0.299
-407.311	201.107	-0.064	0.098
-406.296	-120.902	-0.399	0.067
-405.282	-45.245	0.208	0.103
-404.267	32.887	-0.139	-0.119
-403.252	458.716	0.044	0.096
-402.238	-114.916	0.192	0.036
-401.223	-104.927	-0.143	-0.033
-400.209	-164.883	0.206	-0.009
-399.194	-46.182	0.269	0.131
-398.179	-1.490	-0.192	0.135
-397.165	-200.000	-0.034	0.363
-396.150	-76.934	0.216	-0.075
-395.136	69.200	-0.173	-0.176
-394.121	301.298	-0.070	-0.128
-393.106	800.000	-0.062	0.242
-392.092	-129.929	-0.286	-0.039
-391.077	358.302	-0.171	-0.340
-390.063	203.031	0.235	-0.361
-389.048	-164.250	0.128	-0.006
-388.033	38.071	-0.187	0.165
-387.019	-163.947	-0.264	-0.012
-386.004	-14.366	-0.104	0.066
-384.990	800.000	0.010	-0.038
-383.975	379.878	0.154	-0.313
-382.960	57.494	0.203	-0.197
-381.946	-25.999	0.265	0.154
-380.931	666.795	-0.086	0.220
-379.917	-200.000	0.016	0.155
-378.902	159.217	0.243	-0.335
-377.888	115.274	-0.108	0.131
-376.873	75.591	0.171	-0.179
-375.858	-146.230	0.110	-0.010
-374.844	-31.607	-0.285	0.159
-373.829	192.793	0.139	0.208
-372.815	-174.181	-0.022	-0.001
-371.800	19.293	0.265	-0.211
-370.785	-163.287	-0.143	0.007
-369.771	-37.503	-0.113	0.060
-368.756	-193.719	-0.117	0.001
-367.742	714.492	-0.063	0.165
-366.727	21.016	-0.062	-0.050
-365.712	161.392	-0.034	-0.047
-364.698	188.682	0.120	-0.178
-363.683	-141.570	-0.202	0.020
-362.669	82.895	-0.218	0.235
-361.654	509.500	-0.064	0.148
-360.639	-75.651	0.181	-0.064
-359.625	570.051	-0.134	-0.324
-358.610	-116.168	0.451	0.083
-357.596	800.000	-0.072	-0.265
-356.581	-53.210	0.038	-0.017
-355.566	158.509	0.399	0.548
-354.552	-87.298	0.060	-0.018
-353.537	171.929	0.202	0.288
-352.523	-48.967	-0.377	0.179
-351.508	-113.678	0.129	0.025
-350.493	-26.805	0.118	-0.068
-349.479	98.867	-0.081	-0.093
-348.464	308.644	0.105	-0.194
-347.450	-44.094	-0.357	-0.177
-346.435	-134.213	-0.220	0.027
-345.420	-138.424	-0.026	0.003
-344.406	-200.000	0.067	0.317
-343.391	172.921	-0.127	0.181
-342.377	64.926	-0.094	-0.094
-341.362	506.154	-0.085	0.194
-340.348	93.389	0.281	0.315
-339.333	-200.000	-0.044	0.226
-338.318	-107.627	0.183	0.040
-337.304	-157.844	-0.245	-0.014
-336.289	-86.718	0.405	0.123
-335.275	133.263	0.141	0.181
-334.260	130.956	0.196	-0.249
-333.245	800.000	0.057	-0.207
-332.231	-98.897	0.120	0.030
-331.216	-140.412	0.212	-0.022
-330.202	140.605	0.113	-0.148
-329.187	-88.242	-0.117	-0.035
-328.172	-82.970	0.051	-0.016
-327.158	-157.530	0.225	-0.013
-326.143	-126.598	0.313	-0.046
-325.129	800.000	-0.069	-0.210
-324.114	72.620	-0.129	0.133
-323.099	800.000	-0.053	-0.145
-322.085	-44.777	-0.125	-0.062
-321.070	-101.196	0.242	0.059
-320.056	-66.503	0.398	0.156
-319.041	521.679	-0.106	0.245
-318.026	800.000	0.017	0.059
-317.012	392.194	0.062	0.128
-315.997	265.654	0.161	-0.277
-314.983	15.192	-0.315	-0.244
-313.968	-200.000	-0.035	-0.268
-312.953	279.016	0.094	-0.166
-311.939	-60.894	-0.068	0.029
-310.924	52.819	0.153	-0.145
-309.910	-54.056	0.151	-0.068
-308.895	-200.000	-0.024	-0.131
-307.880	-129.941	0.244	0.033
-306.866	-172.217	-0.407	0.013
-305.851	97.115	-0.122	-0.139
-304.837	-200.000	0.030	0.209
-303.822	-101.511	-0.117	-0.028
-302.807	187.260	0.089	-0.132
-301.793	800.000	-0.039	-0.153
-300.778	800.000	0.156	0.444
-299.764	-89.650	0.132	-0.038
-298.749	78.641	-0.347	-0.367
-297.735	-53.462	0.177	-0.080
-296.720	800.000	0.050	-0.161
-295.705	693.255	-0.052	-0.135
-294.691	-200.000	-0.035	0.195
-293.676	-144.134	0.128	0.012
-292.662	642.084	0.110	0.278
-291.647	-200.000	0.029	0.182
-290.632	-200.000	0.067	0.446
-289.618	218.152	-0.113	0.179
-288.603	-38.665	-0.123	0.064
-287.589	22.153	0.049	-0.040
-286.574	111.130	0.139	0.165
-285.559	800.000	0.037	0.103
-284.545	-151.537	0.501	0.037
-283.530	-6.950	0.020	-0.013
-282.516	443.152	0.126	-0.272
-281.501	-56.581	0.191	-0.084
-280.486	-52.587	-0.134	-0.061
-279.472	800.000	-0.115	-0.384
-278.457	345.658	0.105	-0.204
-277.443	800.000	-0.026	-0.081
-276.428	-52.361	-0.025	-0.012
-275.413	-25.058	0.246	0.144
-274.399	-200.000	-0.029	-0.350
-273.384	-90.235	-0.025	0.007
-272.370	-66.541	0.180	-0.071
-271.355	-67.572	0.064	-0.025
-270.340	800.000	0.057	-0.229
-269.326	-41.169	-0.269	0.137
-268.311	800.000	0.037	-0.146
-267.297	-125.040	0.197	0.030
-266.282	483.065	0.094	0.212
-265.267	87.574	-0.033	-0.037
-264.253	-159.714	0.310	-0.017
-263.238	-111.890	-0.124	-0.025
-262.224	485.111	-0.118	-0.265
-261.209	800.000	-0.070	-0.297
-260.195	-70.591	0.311	0.116
-259.180	-89.978	0.217	-0.062
-258.165	800.000	0.067	-0.255
-257.151	98.830	-0.250	-0.285
-256.136	-200.000	0.015	0.264
-255.122	148.242	-0.141	-0.188
-254.107	174.996	0.056	0.081
-253.092	-86.578	-0.055	-0.017
-252.078	501.978	0.124	-0.283
-251.063	-200.000	0.053	0.238
-250.049	-200.000	0.002	0.037
-249.034	-176.329	0.158	-0.004
-248.019	800.000	-0.048	0.177
-247.005	272.365	-0.189	-0.328
-245.990	-20.811	0.318	-0.193
-244.976	-88.119	-0.361	-0.107
-243.961	15.519	0.154	0.119
-242.946	-16.205	-0.091	0.057
-241.932	800.000	0.123	0.392
-240.917	-124.157	0.280	-0.043
-239.903	800.000	0.061	0.176
-238.888	87.317	0.117	-0.127
-237.873	172.019	0.036	0.051
-236.859	-200.000	0.019	-0.212
-235.844	11.117	-0.058	0.044
-234.830	-124.096	0.324	-0.050
-233.815	421.424	-0.146	-0.309
-232.800	181.247	0.122	0.177
-231.786	-200.000	0.001	0.414
-230.771	-5.911	-0.149	-0.101
-229.757	-200.000	0.046	-0.311
-228.742	4.344	-0.246	-0.178
-227.727	376.613	-0.232	-0.468
-226.713	-85.176	0.145	-0.045
-225.698	-66.969	0.315	-0.123
-224.684	275.084	0.055	0.096
-223.669	-200.000	0.016	-0.132
-222.655	29.985	0.058	0.048
-221.640	-37.177	-0.444	0.234
-220.625	-200.000	0.001	-0.092
-219.611	145.026	0.083	-0.110
-218.596	10.673	0.313	-0.235
-217.582	-88.944	0.220	-0.064
-216.567	-200.000	-0.004	0.028
-215.552	800.000	-0.111	0.365
-214.538	800.000	0.074	0.209
-213.523	191.243	-0.122	0.181
-212.509	800.000	0.040	-0.144
-211.494	-12.991	0.227	-0.146
-210.479	-97.470	0.330	-0.084
-209.465	15.333	0.086	0.066
-208.450	-200.000	-0.003	-0.147
-207.436	-118.398	-0.177	0.031
-206.421	-115.348	-0.105	-0.019
-205.406	104.802	-0.269	-0.312
-204.392	163.887	0.170	-0.235
-203.377	42.246	-0.167	-0.150
-202.363	-75.648	-0.244	0.085
-201.348	-75.347	0.137	0.048
-200.333	-48.034	0.181	0.086
-199.319	38.405	0.343	0.301
-198.304	-200.000	-0.019	0.096
-197.290	48.893	0.174	-0.161
-196.275	800.000	-0.055	-0.229
-195.260	-65.483	0.281	-0.111
-194.246	-81.916	-0.126	0.040
-193.231	-81.907	-0.273	0.088
-192.217	-200.000	0.048	0.483
-191.202	122.480	0.222	0.273
-190.187	8.762	-0.194	-0.144
-189.173	-200.000	0.010	0.057
-188.158	-200.000	-0.014	-0.119
-187.144	-57.303	0.140	0.061
-186.129	800.000	0.047	-0.140
-185.114	-16.049	0.080	0.050
-184.100	112.580	-0.167	-0.199
-183.085	-63.668	-0.210	-0.085
-182.071	-103.875	-0.136	0.031
-181.056	-62.642	-0.146	-0.060
-180.042	-200.000	-0.051	0.229
-179.027	800.000	-0.107	0.339
-178.012	800.000	-0.119	-0.381
-176.998	352.243	0.147	0.286
-175.983	183.792	-0.021	-0.030
-174.969	402.506	0.038	0.079
-173.954	-21.517	-0.127	0.076
-172.939	800.000	0.066	0.186
-171.925	-200.000	-0.009	0.138
-170.910	-149.111	0.045	0.004
-169.896	-200.000	-0.040	0.320
-168.881	758.189	-0.145	-0.386
-167.866	-63.548	-0.093	0.038
-166.852	455.670	-0.073	0.160
-165.837	12.147	-0.241	0.183
-164.823	116.293	-0.129	-0.156
-163.808	-200.000	-0.022	0.215
-162.793	-51.012	0.181	-0.084
-161.779	-60.694	0.115	-0.048
-160.764	-135.635	0.109	0.013
-159.750	389.685	0.110	0.225
-158.735	526.258	-0.125	0.289
-157.720	354.094	0.094	0.184
-156.706	235.091	-0.220	0.357
-155.691	800.000	0.015	0.049
-154.677	-46.602	0.230	-0.111
-153.662	-120.416	0.324	0.054
-152.647	312.652	-0.096	-0.178
-151.633	59.930	0.148	0.144
-150.618	53.259	0.195	0.184
-149.604	-130.595	-0.146	0.019
-148.589	-158.302	0.132	-0.008
-147.574	393.078	-0.161	-0.329
-146.560	800.000	0.146	-0.462
-145.545	-30.699	-0.088	-0.049
-144.531	-124.880	0.336	0.051
-143.516	531.759	-0.058	-0.136
-142.502	162.541	0.196	-0.271
-141.487	-200.000	0.041	-0.178
-140.472	-126.691	-0.130	0.019
-139.458	-200.000	0.057	-0.301
-138.443	-200.000	-0.020	0.107
-137.429	-74.184	-0.641	0.228
-136.414	-200.000	0.001	0.084
-135.399	-47.976	-0.281	0.134
-134.385	61.920	-0.269	0.263
-133.370	76.319	0.095	0.099
-132.356	-200.000	0.022	0.109
-131.341	13.556	0.109	-0.083
-130.326	728.880	0.075	0.197
-129.312	-200.000	-0.006	0.190
-128.297	-26.003	0.322	-0.186
-127.283	-200.000	0.010	0.127
-126.268	-19.292	0.135	0.082
-125.253	181.661	-0.258	0.373
-124.239	129.011	0.051	-0.063
-123.224	-174.127	-0.286	-0.008
-122.210	248.084	0.051	0.085
-121.195	-144.155	0.206	0.019
-120.180	-61.226	0.370	0.153
-119.166	-117.947	-0.157	0.028
-118.151	-171.254	0.216	0.007
-117.137	243.172	0.056	0.093
-116.122	-16.770	0.390	-0.242
-115.107	800.000	0.033	0.107
-114.093	35.967	0.157	0.136
-113.078	13.918	0.032	-0.024
-112.064	296.436	0.085	0.152
-111.049	0.488	0.170	-0.120
-110.034	-200.000	0.052	-0.275
-109.020	-141.192	0.297	0.030
-108.005	796.272	0.116	-0.313
-106.991	-96.810	-0.157	0.040
-105.976	44.628	0.250	-0.225
-104.962	-200.000	0.055	0.256
-103.947	-46.298	0.135	-0.065
-102.932	-176.416	-0.037	-0.001
-101.918	-108.709	0.391	-0.082
-100.903	260.947	-0.056	0.095
-99.889	125.966	-0.051	0.063
-98.874	800.000	0.065	0.222
-97.859	208.715	0.176	-0.269
-96.845	41.579	-0.249	0.221
-95.830	205.050	-0.150	-0.229
-94.816	80.325	0.112	0.118
-93.801	302.678	0.049	-0.090
-92.786	351.798	0.059	0.114
-91.772	-34.824	-0.139	0.074
-90.757	438.681	-0.053	0.113
-89.743	-73.585	0.102	-0.036
-88.728	517.356	0.067	0.153
-87.713	-200.000	0.024	0.134
-86.699	-200.000	-0.008	-0.128
-85.684	-127.357	0.325	0.046
-84.670	-158.704	-0.088	-0.005
-83.655	214.636	-0.050	-0.078
-82.640	-27.936	0.123	-0.070
-81.626	183.105	-0.112	-0.162
-80.611	-200.000	0.022	-0.268
-79.597	-132.775	-0.276	0.035
-78.582	800.000	0.084	0.355
-77.567	399.166	-0.049	0.101
-76.553	-163.151	0.224	-0.011
-75.538	95.848	0.329	0.368
-74.524	-4.195	0.192	0.131
-73.509	312.398	0.254	0.467
-72.494	167.088	-0.387	0.538
-71.480	7.074	-0.169	0.123
-70.465	474.055	0.104	-0.231
-69.451	-84.402	0.244	0.076
-68.436	171.945	-0.080	0.112
-67.422	-85.860	0.226	0.069
-66.407	203.816	0.041	0.062
-65.392	-54.796	0.421	0.186
-64.378	-26.994	0.270	0.154
-63.363	-200.000	-0.007	0.423
-62.349	-200.000	-0.030	0.425
-61.334	23.506	-1.089	-0.878
-60.319	167.252	0.462	0.643
-59.305	-200.000	-0.030	-1.213
-58.290	800.000	0.334	1.192
-57.276	800.000	0.535	1.595
-56.261	-200.000	107.076	625.349
-55.246	524.044	1514.902	3488.443
-54.232	176.014	2704.991	3845.329
-53.217	111.097	2183.408	2575.290
-52.203	39.927	1705.866	1500.112
-51.188	32.325	1518.724	1283.838
-50.173	29.861	1492.631	1245.173
-49.159	50.585	1549.545	1435.471
-48.144	50.773	1565.446	1451.433
-47.130	32.436	1521.337	1286.603
-46.115	29.372	1506.381	1253.127
-45.100	29.183	1503.398	1249.309
-44.086	29.128	1500.926	1246.833
-43.071	29.048	1499.088	1244.721
-42.057	28.982	1497.269	1242.714
-41.042	29.102	1495.663	1242.140
-40.027	29.143	1494.099	1241.069
-39.013	29.166	1492.625	1239.950
-37.998	29.035	1491.593	1238.163
-36.984	29.040	1490.273	1237.052
-35.969	29.117	1488.617	1236.143
-34.954	29.050	1487.446	1234.675
-33.940	29.146	1485.773	1233.876
-32.925	29.106	1484.137	1232.201
-31.911	29.162	1483.487	1231.987
-30.896	29.170	1482.186	1230.910
-29.881	29.114	1480.823	1229.361
-28.867	29.192	1479.791	1228.973
-27.852	29.202	1478.810	1228.175
-26.838	29.155	1476.979	1226.295
-25.823	29.259	1475.207	1225.469
-24.809	29.132	1474.020	1223.587
-23.794	29.219	1471.810	1222.280
-22.779	29.240	1470.827	1221.556
-21.765	29.171	1469.821	1220.217
-20.750	29.130	1469.260	1219.427
-19.736	29.137	1468.208	1218.552
-18.721	29.204	1466.728	1217.718
-17.706	29.201	1465.612	1216.723
-16.692	29.165	1464.630	1215.626
-15.677	29.212	1463.675	1215.095
-14.663	29.190	1462.440	1213.875
-13.648	29.111	1461.899	1212.858
-12.633	29.041	1461.217	1211.781
-11.619	29.082	1460.120	1211.092
-10.604	29.012	1459.302	1209.909
-9.590	29.001	1458.487	1209.111
-8.575	29.065	1457.161	1208.388
-7.560	29.133	1456.140	1207.935
-6.546	29.054	1455.454	1206.803
-5.531	29.077	1455.104	1206.611
-4.517	29.015	1454.025	1205.266
-3.502	29.106	1452.820	1204.815
-2.487	29.085	1451.960	1203.918
-1.473	29.027	1450.944	1202.646
-0.458	29.073	1449.524	1201.721
0.556	26.809	1439.528	1190.998
1.571	23.870	1415.003	1151.595
2.586	20.685	1355.823	1083.532
3.600	19.222	1274.727	1010.059
4.615	18.227	1229.439	968.463
5.629	15.681	1174.585	911.387
6.644	7.558	1090.106	804.740
7.659	0.727	1050.823	742.218
8.673	-0.133	1045.203	733.982
9.688	-0.347	1042.243	730.792
10.702	-0.453	1040.314	728.861
11.717	-0.346	1038.003	727.695
12.731	2.488	1041.598	743.936
13.746	11.257	1053.915	795.627
14.761	18.230	1062.712	836.400
15.775	19.934	1064.478	846.052
16.790	20.287	1063.861	847.210
17.804	20.003	1063.283	845.288
18.819	20.032	1062.071	844.390
19.834	19.993	1061.647	843.791
20.848	19.991	1061.463	843.559
21.863	20.309	1060.644	844.379
22.877	20.085	1060.281	842.927
23.892	19.987	1059.789	841.988
24.907	19.900	1058.830	840.725
25.921	19.998	1058.281	840.694
26.936	20.226	1057.399	841.021
27.950	20.057	1056.108	839.104
28.965	20.040	1055.069	838.119
29.980	19.883	1053.123	835.745
30.994	19.783	1051.825	834.157
32.009	20.010	1051.177	834.666
33.023	20.138	1050.886	834.974
34.038	19.964	1049.313	832.817
35.053	19.921	1048.308	831.734
36.067	20.056	1048.327	832.328
37.082	20.022	1047.247	831.231
38.096	20.118	1046.100	830.709
39.111	20.203	1045.682	830.708
40.126	20.357	1044.643	830.549
41.140	20.285	1043.419	829.156
42.155	20.081	1041.546	826.624
43.169	19.686	1040.859	824.123
44.184	19.853	1039.261	823.576
45.199	19.894	1038.218	822.872
46.213	19.840	1036.865	821.473
47.228	19.742	1036.449	820.604
48.242	19.944	1035.637	820.848
49.257	19.869	1034.748	819.716
50.271	19.965	1034.126	819.603
51.286	20.193	1032.668	819.452
52.301	20.085	1032.144	818.457
53.315	20.113	1031.440	817.955
54.330	20.133	1030.682	817.375
55.344	20.078	1029.511	816.117
56.359	20.084	1028.374	815.174
57.374	20.100	1027.914	814.810
58.388	19.927	1026.864	813.092
59.403	19.830	1025.871	811.779
60.417	19.879	1025.413	811.574
61.432	19.739	1024.481	810.109
62.447	19.751	1023.844	809.589
63.461	19.911	1023.652	810.118
64.476	19.879	1022.549	809.020
65.490	19.865	1021.499	808.054
66.505	19.751	1020.668	806.795
67.520	19.850	1019.907	806.580
68.534	19.917	1018.344	805.588
69.549	19.871	1017.755	804.838
70.563	19.527	1016.512	802.182
71.578	19.538	1015.608	801.451
72.593	19.529	1014.887	800.767
73.607	19.452	1013.585	799.315
74.622	19.488	1012.452	798.516
75.636	19.648	1012.432	799.171
76.651	19.787	1011.243	798.800
77.666	19.648	1010.627	797.601
78.680	19.657	1009.193	796.444
79.695	19.639	1009.096	796.211
80.709	19.795	1008.550	796.431
81.724	19.797	1007.797	795.776
82.739	19.705	1007.044	794.686
83.753	19.678	1006.251	793.869
84.768	19.992	1005.094	794.322
85.782	20.329	1004.729	795.508
86.797	20.356	1003.669	794.725
87.812	20.343	1002.887	793.974
88.826	20.181	1001.954	792.427
89.841	20.184	1000.936	791.563
90.855	20.356	1000.612	792.021
91.870	20.426	999.127	791.097
92.884	20.385	998.301	790.185
93.899	20.018	998.047	788.245
94.914	20.203	996.420	787.732
95.928	20.285	995.768	787.515
96.943	20.335	995.127	787.165
97.957	19.902	994.014	784.255
98.972	19.901	992.807	783.230
99.987	19.636	991.513	780.941
101.001	19.672	991.161	780.758
102.016	20.093	990.274	781.888
103.030	20.208	989.166	781.466
104.045	19.967	988.148	779.504
105.060	19.760	987.117	777.691
106.074	19.647	986.135	776.342
107.089	19.692	985.120	775.675
108.103	19.991	985.118	776.949
109.118	20.188	983.807	776.726
110.133	19.962	982.618	774.711
111.147	19.956	981.700	773.888
112.162	19.762	980.648	772.128
113.176	19.682	978.882	770.311
114.191	19.781	978.125	770.088
115.206	19.912	977.585	770.179
116.220	19.486	976.351	767.245
117.235	19.391	975.502	766.087
118.249	19.565	974.934	766.347
119.264	19.645	973.684	765.648
120.279	19.570	972.588	764.388
121.293	19.587	971.815	763.787
122.308	19.770	971.116	763.981
123.322	19.623	970.776	762.996
124.337	19.679	969.558	762.220
125.352	19.570	967.806	760.293
126.366	19.108	966.561	757.217
127.381	18.886	965.032	754.976
128.395	19.357	965.135	757.057
129.410	19.880	964.675	758.926
130.424	20.102	963.705	759.068
131.439	20.035	962.880	758.056
132.454	20.024	961.459	756.822
133.468	20.061	960.410	756.090
134.483	19.933	960.002	755.143
135.497	20.018	958.966	754.635
136.512	20.169	958.481	754.844
137.527	20.262	957.517	754.421
138.541	20.247	956.993	753.875
139.556	20.336	955.880	753.320
140.570	20.267	955.360	752.542
141.585	20.169	954.904	751.693
142.600	20.393	953.645	751.604
143.614	20.228	952.152	749.649
144.629	20.349	952.193	750.140
145.643	20.531	951.564	750.364
146.658	20.352	950.325	748.545
147.673	20.266	949.073	747.126
148.687	20.129	948.304	745.865
149.702	20.138	946.935	744.761
150.716	20.061	946.073	743.686
151.731	19.943	945.057	742.314
152.746	20.136	944.279	742.465
153.760	20.390	943.396	742.791
154.775	20.389	943.511	742.812
155.789	20.438	942.421	742.095
156.804	20.412	941.069	740.855
157.819	20.299	940.266	739.677
158.833	20.494	939.096	739.521
159.848	20.489	938.672	739.099
160.862	20.604	937.916	738.930
161.877	20.365	936.601	736.812
162.892	20.243	936.434	736.099
163.906	20.471	935.211	736.038
164.921	20.475	934.158	735.160
165.935	20.387	932.909	733.742
166.950	20.478	931.698	733.109
167.964	20.554	931.357	733.097
168.979	20.282	930.122	730.913
169.994	20.411	928.598	730.194
171.008	20.219	928.060	728.900
172.023	20.413	927.241	729.006
173.037	20.540	925.950	728.457
174.052	20.214	925.451	726.636
175.067	19.945	924.608	724.783
176.081	20.198	923.539	724.940
177.096	20.249	922.798	724.507
178.110	20.299	921.676	723.771
179.125	20.099	920.732	722.129
180.140	19.780	919.624	719.872
181.154	19.866	919.291	719.905
182.169	20.016	918.277	719.671
183.183	20.185	917.975	720.070
184.198	20.539	917.608	721.189
185.213	20.339	916.630	719.527
186.227	20.281	915.725	718.511
187.242	20.248	915.964	718.502
188.256	20.542	914.492	718.497
189.271	20.339	913.864	717.102
190.286	20.493	913.226	717.171
191.300	20.402	912.294	716.001
192.315	19.977	910.605	712.865
193.329	19.349	909.180	709.104
194.344	18.840	908.416	706.355
195.359	19.499	908.772	709.277
196.373	20.144	908.781	711.871
197.388	20.393	908.520	712.623
198.402	20.149	908.192	711.302
199.417	20.277	907.098	710.907
200.432	20.267	906.907	710.653
201.446	20.176	905.861	709.400
202.461	19.888	905.462	707.847
203.475	19.854	904.747	707.087
204.490	19.404	903.292	704.049
205.504	18.496	900.932	698.450
206.519	18.933	901.098	700.298
207.534	19.831	901.605	704.287
208.548	19.879	900.813	703.802
209.563	20.368	900.569	705.535
210.577	20.372	899.727	704.831
211.592	20.148	898.730	703.077
212.607	20.504	898.821	704.531
213.621	20.404	898.676	703.952
214.636	20.469	897.661	703.357
215.650	20.536	896.962	703.019
216.665	20.441	896.468	702.185
217.680	20.454	896.206	701.968
218.694	20.545	895.379	701.626
219.709	20.079	894.606	699.078
220.723	19.899	893.244	697.229
221.738	20.114	892.940	697.793
222.753	20.305	892.743	698.347
223.767	20.302	891.926	697.635
224.782	20.373	891.200	697.292
225.796	20.431	890.925	697.246
226.811	20.580	890.295	697.291
227.826	20.076	888.870	694.093
228.840	19.397	887.119	689.948
229.855	19.472	886.808	689.948
230.869	19.670	886.246	690.241
231.884	19.312	885.438	688.120
232.899	19.412	884.762	687.931
233.913	20.127	885.184	691.050
234.928	20.421	884.679	691.766
235.942	20.227	884.017	690.418
236.957	20.224	883.359	689.829
237.972	19.902	882.570	687.871
238.986	19.926	881.498	687.070
240.001	20.147	880.824	687.360
241.015	20.129	880.213	686.753
242.030	20.118	879.920	686.419
243.045	20.206	879.419	686.315
244.059	20.334	878.745	686.233
245.074	20.485	877.891	686.102
246.088	20.390	877.178	685.113
247.103	20.056	876.451	683.168
248.117	20.014	875.966	682.561
249.132	20.462	875.934	684.243
250.147	20.816	875.649	685.352
251.161	20.927	874.438	684.780
252.176	21.062	874.468	685.274
253.190	21.073	873.676	684.636
254.205	21.063	873.066	684.056
255.220	21.196	872.908	684.393
256.234	21.288	872.180	684.124
257.249	21.089	871.329	682.617
258.263	20.969	870.803	681.673
259.278	21.061	870.130	681.446
260.293	21.056	869.690	681.024
261.307	21.175	869.266	681.093
262.322	21.123	868.253	680.038
263.336	20.997	867.252	678.704
264.351	20.362	866.326	675.448
265.366	19.438	863.514	669.612
266.380	18.944	863.328	667.493
267.395	19.903	863.624	671.383
268.409	20.639	863.727	674.258
269.424	20.763	862.866	674.008
270.439	20.890	862.510	674.162
271.453	20.859	862.092	673.655
272.468	21.019	861.243	673.550
273.482	21.112	860.717	673.437
274.497	21.365	860.197	673.947
275.512	21.127	859.249	672.227
276.526	20.405	858.284	668.635
277.541	20.795	857.325	669.326
278.555	21.134	857.390	670.623
279.570	20.750	856.674	668.528
280.585	20.717	855.498	667.423
281.599	20.703	854.965	666.896
282.614	20.948	854.866	667.696
283.628	20.458	853.432	664.646
284.643	20.165	852.838	663.003
285.657	20.419	852.806	663.892
286.672	20.600	851.832	663.764
287.687	20.016	850.885	660.743
288.701	20.391	850.832	662.071
289.716	20.556	850.888	662.685
290.730	20.273	849.640	660.576
291.745	20.119	849.050	659.476
292.760	20.019	848.340	658.485
293.774	20.009	847.342	657.614
294.789	20.894	847.838	661.300
295.803	21.448	848.302	663.707
296.818	21.444	847.485	662.992
297.833	21.523	847.021	662.872
298.847	21.255	845.903	660.924
299.862	20.968	844.840	658.950
300.876	21.147	844.539	659.333
301.891	21.314	844.337	659.748
302.906	21.472	843.438	659.584
303.920	21.161	842.301	657.464
304.935	20.933	841.692	656.071
305.949	21.262	841.494	657.097
306.964	21.321	841.244	657.065
307.979	21.198	840.072	655.629
308.993	21.200	839.683	655.276
310.008	21.469	839.998	656.473
311.022	21.675	839.037	656.436
312.037	21.492	838.546	655.310
313.052	21.149	838.215	653.707
314.066	21.134	837.242	652.837
315.081	20.633	835.630	649.651
316.095	19.978	834.396	646.189
317.110	20.411	834.374	647.731
318.125	21.096	834.964	650.688
319.139	20.564	833.936	647.849
320.154	19.710	832.309	643.350
321.168	19.432	831.032	641.271
322.183	19.941	831.737	643.652
323.197	20.787	831.857	646.831
324.212	20.997	831.480	647.261
325.227	21.099	831.206	647.370
326.241	21.500	830.540	648.280
327.256	21.343	830.079	647.279
328.270	21.319	829.331	646.550
329.285	21.175	828.436	645.264
330.300	21.001	827.884	644.133
331.314	20.747	826.996	642.450
332.329	20.763	826.701	642.222
333.343	21.077	826.465	643.140
334.358	21.426	825.799	643.850
335.373	21.387	824.784	642.859
336.387	21.279	824.982	642.557
337.402	21.598	824.308	643.149
338.416	21.870	823.577	643.520
339.431	21.694	823.487	642.745
340.446	21.755	822.995	642.529
341.460	22.023	822.270	642.888
342.475	22.020	821.131	641.927
343.489	21.653	821.060	640.477
344.504	21.643	820.492	639.937
345.519	22.017	819.886	640.773
346.533	22.125	819.617	640.903
347.548	22.136	819.390	640.708
348.562	22.198	819.117	640.664
349.577	22.112	818.731	639.992
350.592	22.113	817.585	639.044
351.606	22.222	816.934	638.872
352.621	22.078	816.588	638.023
353.635	22.036	816.334	637.615
354.650	21.958	815.486	636.616
355.665	21.750	814.452	634.998
356.679	20.607	813.378	629.966
357.694	20.447	812.884	628.946
358.708	21.098	812.449	630.912
359.723	21.020	811.927	630.168
360.738	21.276	811.767	630.914
361.752	21.638	811.775	632.170
362.767	21.848	811.404	632.583
363.781	22.030	810.804	632.715
364.796	22.277	810.831	633.570
365.810	22.282	810.307	633.122
366.825	22.322	810.098	633.046
367.840	22.470	809.498	633.055
368.854	22.439	808.902	632.422
369.869	21.956	807.827	629.792
370.883	21.768	807.474	628.787
371.898	21.941	806.761	628.795
372.913	21.888	805.891	627.873
373.927	21.778	805.516	627.132
374.942	21.904	804.950	627.085
375.956	22.096	804.709	627.526
376.971	22.079	804.002	626.859
377.986	22.162	803.490	626.701
379.000	22.318	803.093	626.891
380.015	22.358	803.034	626.932
381.029	22.225	802.314	625.841
382.044	22.275	801.187	625.084
383.059	22.380	801.147	625.372
384.073	22.474	799.915	624.689
385.088	22.381	799.719	624.151
386.102	22.491	799.432	624.262
387.117	22.374	798.838	623.327
388.132	22.105	798.638	622.162
389.146	22.087	797.772	621.369
390.161	21.647	796.513	618.779
391.175	21.611	796.160	618.323
392.190	21.980	796.426	619.778
393.205	22.054	795.774	619.479
394.219	21.174	794.356	615.219
395.234	19.632	791.838	607.795
396.248	19.014	790.933	604.872
397.263	20.032	792.067	609.269
398.278	21.793	793.367	616.415
399.292	22.183	793.121	617.539
400.307	21.872	792.316	615.766
401.321	21.898	791.831	615.426
402.336	21.837	791.442	614.855
403.350	22.239	791.207	616.027
404.365	22.590	791.017	617.050
405.380	22.885	790.804	617.862
406.394	22.952	791.051	618.237
407.409	23.118	790.536	618.359
408.423	22.950	789.681	617.049
409.438	22.844	789.431	616.429
410.453	23.100	788.202	616.307
411.467	23.233	788.232	616.741
412.482	22.987	787.709	615.418
413.496	23.017	787.422	615.247
414.511	22.952	787.523	615.043
415.526	23.248	786.679	615.358
416.540	23.081	786.331	614.450
417.555	22.981	785.577	613.461
418.569	22.760	784.878	612.093
419.584	22.856	784.445	612.036
420.599	22.787	783.896	611.315
421.613	157.951	1363.707	1798.900
422.628	136.614	1448.174	1799.028
