DTS Sentinel unit serial number:	SN413079Multiplexer serial number:	ORYXHardware model number:	OX4-SRSoftware version number:	ORYX F/W v4.00 Oryx Data Collector v3.7.2.0data status	okinstallation	princeton_trtdifferential loss correction	single-endedforward channel	channel 3reverse channel	N/Adate	2019/09/11time	13:54:11forward acquisition time	60.00reverse acquisition time	0.00gamma	496.2192k internal	0.2293k external	0.2293temperature offset calibration	0.9979default loss term (dB/km)	0.3790temperature slope calibration	1.0000multiplexer offset coefficient	1.0000multiplexer slope coefficient	1.0000fibre end	0.00T internal ref (°C)	41.87T ext. ref 1 (°C)	0.88T ext. ref 2 (°C)	36.26length (m)	temperature (°C)	Stokes	anti-Stokes-747.200	50.749	0.334	0.323
-746.185	-200.000	0.026	0.226
-745.171	800.000	-0.085	-0.265
-744.156	49.530	0.264	0.254
-743.142	100.622	0.201	0.239
-742.127	-200.000	-0.072	0.477
-741.112	286.899	0.122	-0.225
-740.098	-200.000	0.008	0.122
-739.083	-200.000	0.005	0.126
-738.069	-17.663	0.309	0.199
-737.054	-29.873	0.167	-0.097
-736.039	23.224	-0.281	-0.236
-735.025	-33.008	0.352	-0.200
-734.010	-17.238	0.263	0.169
-732.996	467.800	-0.137	-0.314
-731.981	404.450	-0.139	0.300
-730.966	-78.365	0.208	0.073
-729.952	-86.973	-0.289	0.090
-728.937	747.492	0.124	-0.341
-727.923	37.867	-0.210	0.191
-726.908	-0.100	0.096	0.070
-725.894	-166.943	-0.247	0.010
-724.879	-200.000	-0.034	0.314
-723.864	-96.346	-0.319	0.086
-722.850	-130.773	-0.179	-0.025
-721.835	-131.559	0.159	-0.021
-720.821	-98.605	0.172	0.045
-719.806	-200.000	-0.007	-0.383
-718.791	54.032	-0.017	-0.017
-717.777	739.296	0.051	0.139
-716.762	-200.000	0.040	-0.354
-715.748	-63.023	0.247	0.104
-714.733	180.300	-0.180	-0.270
-713.718	40.718	-0.114	0.105
-712.704	800.000	0.101	0.365
-711.689	800.000	-0.105	0.337
-710.675	-87.610	-0.307	0.095
-709.660	800.000	-0.032	0.120
-708.645	-131.148	0.034	-0.005
-707.631	-200.000	0.014	-0.128
-706.616	-200.000	-0.045	-0.415
-705.602	-120.364	-0.443	0.077
-704.587	-12.338	-0.124	0.083
-703.572	-200.000	-0.024	-0.182
-702.558	76.298	0.169	-0.183
-701.543	-45.379	-0.222	-0.112
-700.529	133.394	-0.262	0.346
-699.514	-200.000	0.034	0.246
-698.499	32.488	0.166	-0.146
-697.485	-58.389	0.380	0.169
-696.470	37.251	0.218	0.197
-695.456	-200.000	0.019	-0.262
-694.441	415.577	0.134	0.292
-693.426	-70.584	-0.311	0.120
-692.412	-12.148	0.255	0.171
-691.397	186.033	0.208	0.316
-690.383	541.370	-0.103	-0.250
-689.368	-43.983	-0.146	-0.075
-688.354	-47.279	-0.351	0.174
-687.339	48.926	-0.058	0.055
-686.324	81.073	0.138	0.152
-685.310	-65.851	-0.400	0.163
-684.295	800.000	0.027	-0.085
-683.281	-200.000	-0.002	-0.101
-682.266	-200.000	0.033	-0.279
-681.251	694.476	0.122	-0.327
-680.237	-200.000	0.067	-0.422
-679.222	-33.045	-0.076	0.043
-678.208	-200.000	-0.024	0.402
-677.193	-200.000	0.024	-0.112
-676.178	323.359	-0.136	-0.264
-675.164	-44.804	0.089	-0.045
-674.149	-111.716	-0.167	-0.035
-673.135	-119.748	-0.045	0.008
-672.120	-200.000	-0.065	-0.357
-671.105	-102.416	-0.162	-0.040
-670.091	154.986	0.077	-0.108
-669.076	192.787	-0.025	-0.039
-668.062	-5.116	-0.194	0.136
-667.047	-200.000	0.013	0.264
-666.032	-25.553	0.027	0.016
-665.018	108.168	0.134	0.163
-664.003	-124.583	-0.264	-0.042
-662.989	-154.187	0.081	0.006
-661.974	-200.000	-0.034	0.358
-660.959	333.539	0.072	0.142
-659.945	55.305	-0.400	0.395
-658.930	-200.000	0.016	0.186
-657.916	-200.000	0.000	0.126
-656.901	-176.194	-0.152	-0.004
-655.886	-86.750	-0.232	0.072
-654.872	-106.347	0.189	0.043
-653.857	-196.969	-0.392	-0.003
-652.843	316.590	0.090	-0.172
-651.828	-23.988	-0.182	-0.111
-650.814	169.028	0.113	-0.164
-649.799	-136.314	-0.181	-0.021
-648.784	-200.000	0.045	-0.237
-647.770	-95.395	-0.230	0.063
-646.755	251.574	-0.115	0.199
-645.741	800.000	0.063	0.182
-644.726	-46.063	-0.320	0.161
-643.711	800.000	-0.096	-0.273
-642.697	-93.159	0.150	-0.043
-641.682	119.670	0.304	0.384
-640.668	132.465	-0.130	-0.171
-639.653	-200.000	0.028	0.225
-638.638	-133.662	0.318	0.040
-637.624	735.071	0.070	-0.192
-636.609	-106.560	0.054	0.012
-635.595	117.429	-0.071	0.089
-634.580	171.824	-0.080	0.117
-633.565	-21.236	-0.189	-0.118
-632.551	28.103	0.122	0.105
-631.536	-156.056	-0.421	-0.027
-630.522	18.259	-0.124	-0.100
-629.507	162.604	-0.177	0.253
-628.492	147.049	0.155	0.212
-627.478	-118.305	-0.386	-0.070
-626.463	6.517	-0.502	-0.380
-625.449	-40.039	-0.032	-0.017
-624.434	800.000	-0.093	-0.316
-623.419	426.572	-0.057	-0.126
-622.405	370.634	0.065	-0.135
-621.390	800.000	0.128	-0.410
-620.376	800.000	0.113	-0.462
-619.361	-19.973	-0.161	-0.101
-618.346	-26.664	-0.142	-0.084
-617.332	169.703	-0.123	0.180
-616.317	-73.039	0.076	-0.028
-615.303	44.647	-0.074	-0.069
-614.288	52.579	0.063	-0.061
-613.273	-120.006	0.307	0.054
-612.259	22.682	-0.364	-0.303
-611.244	-200.000	0.042	-0.311
-610.230	-200.000	0.003	-0.375
-609.215	-157.857	-0.112	0.007
-608.201	121.020	0.172	0.218
-607.186	-21.908	0.205	-0.127
-606.171	-8.803	-0.299	-0.204
-605.157	331.611	0.014	-0.028
-604.142	-40.321	0.118	0.062
-603.128	-77.371	-0.265	-0.094
-602.113	-200.000	0.007	-0.035
-601.098	-97.675	0.604	0.159
-600.084	127.200	0.127	-0.164
-599.069	-145.013	-0.328	0.030
-598.055	594.439	-0.136	0.341
-597.040	-109.826	0.194	-0.042
-596.025	-76.539	0.037	-0.013
-595.011	-35.187	-0.093	0.052
-593.996	-200.000	0.006	-0.203
-592.982	208.574	-0.027	-0.044
-591.967	792.190	0.105	0.294
-590.952	408.966	-0.029	0.062
-589.938	-200.000	0.033	-0.224
-588.923	319.673	0.087	-0.168
-587.909	-200.000	0.016	-0.100
-586.894	-134.222	0.189	-0.024
-585.879	800.000	0.079	0.341
-584.865	131.936	-0.131	0.172
-583.850	-200.000	-0.014	-0.209
-582.836	-22.199	0.201	0.124
-581.821	197.914	0.138	0.214
-580.806	-200.000	-0.019	0.225
-579.792	123.530	-0.129	-0.165
-578.777	-83.856	-0.208	-0.067
-577.763	-89.696	-0.132	0.039
-576.748	1.486	0.035	-0.025
-575.733	-24.738	-0.271	-0.164
-574.719	-200.000	0.016	-0.285
-573.704	400.781	-0.033	-0.071
-572.690	-104.451	-0.146	-0.034
-571.675	800.000	-0.097	0.426
-570.661	-55.059	-0.316	-0.145
-569.646	-40.853	-0.063	-0.033
-568.631	389.254	0.018	-0.037
-567.617	-200.000	-0.013	-0.310
-566.602	800.000	0.061	-0.242
-565.588	70.656	0.118	0.124
-564.573	25.166	-0.235	0.199
-563.558	-39.919	-0.303	0.161
-562.544	164.607	-0.157	0.225
-561.529	-14.526	-0.353	-0.231
-560.515	295.644	-0.099	-0.185
-559.500	-87.793	0.156	0.048
-558.485	100.487	0.207	0.244
-557.471	800.000	0.031	0.124
-556.456	-63.594	0.075	-0.031
-555.442	-97.850	0.241	0.063
-554.427	74.609	0.179	0.191
-553.412	511.850	0.179	-0.423
-552.398	-200.000	-0.036	0.333
-551.383	-90.867	-0.208	0.061
-550.369	81.296	0.226	-0.248
-549.354	73.389	0.127	0.135
-548.339	595.445	0.049	-0.124
-547.325	-13.740	-0.326	-0.214
-546.310	535.317	0.141	-0.339
-545.296	-200.000	-0.030	0.270
-544.281	258.305	-0.035	-0.061
-543.266	78.059	-0.080	0.087
-542.252	-200.000	0.032	0.158
-541.237	71.993	-0.179	-0.189
-540.223	170.216	-0.084	0.123
-539.208	173.379	0.046	-0.068
-538.193	-137.078	0.217	-0.025
-537.179	293.993	0.190	0.353
-536.164	-105.982	0.234	0.053
-535.150	-40.851	-0.057	0.030
-534.135	116.201	-0.065	0.081
-533.121	230.485	0.119	-0.198
-532.106	-200.000	0.030	-0.243
-531.091	12.250	-0.269	-0.210
-530.077	-98.919	-0.163	0.042
-529.062	440.004	0.197	-0.436
-528.048	-81.852	-0.254	-0.084
-527.033	443.686	0.082	0.182
-526.018	143.512	-0.103	-0.139
-525.004	183.296	-0.127	0.191
-523.989	-29.333	-0.167	0.097
-522.975	116.928	0.104	0.130
-521.960	105.421	-0.068	0.082
-520.945	61.234	0.162	-0.163
-519.931	-200.000	-0.034	0.279
-518.916	-125.154	0.111	0.017
-517.902	91.802	0.264	-0.301
-516.887	-150.295	0.225	-0.018
-515.872	-34.511	-0.403	0.224
-514.858	-200.000	-0.041	0.192
-513.843	-200.000	0.031	-0.443
-512.829	-145.668	0.390	0.035
-511.814	259.164	0.090	-0.157
-510.799	-63.899	-0.214	0.089
-509.785	40.992	0.191	0.175
-508.770	-200.000	0.001	-0.410
-507.756	-200.000	0.017	-0.320
-506.741	229.103	0.032	-0.053
-505.726	800.000	0.048	0.200
-504.712	-118.178	0.134	-0.024
-503.697	-91.625	0.298	-0.086
-502.683	62.290	0.273	-0.276
-501.668	-177.380	0.229	-0.006
-500.653	-200.000	-0.025	0.274
-499.639	-84.155	-0.091	0.029
-498.624	34.843	0.163	0.144
-497.610	-28.226	0.296	-0.173
-496.595	176.780	-0.121	-0.178
-495.581	224.364	0.010	-0.017
-494.566	183.271	0.113	0.169
-493.551	413.106	0.080	-0.173
-492.537	61.048	-0.197	-0.198
-491.522	800.000	0.060	0.227
-490.508	-138.124	-0.236	0.027
-489.493	800.000	-0.103	0.408
-488.478	41.047	0.156	-0.143
-487.464	-200.000	0.016	-0.162
-486.449	800.000	0.107	0.322
-485.435	291.607	0.162	-0.298
-484.420	-156.680	0.239	0.015
-483.405	-83.817	0.272	-0.088
-482.391	-48.992	0.182	0.088
-481.376	-200.000	-0.010	0.294
-480.362	-69.788	0.077	-0.030
-479.347	-98.056	0.312	0.081
-478.332	-66.667	-0.290	0.116
-477.318	800.000	-0.033	-0.095
-476.303	-123.811	-0.180	0.029
-475.289	-30.545	0.049	-0.028
-474.274	800.000	-0.046	0.160
-473.259	-156.785	0.497	0.031
-472.245	-47.769	0.075	-0.037
-471.230	800.000	-0.069	-0.256
-470.216	105.587	-0.175	0.210
-469.201	137.298	-0.189	0.250
-468.186	219.248	0.209	0.339
-467.172	-89.210	-0.264	0.079
-466.157	675.584	-0.125	0.330
-465.143	-200.000	0.007	-0.288
-464.128	212.689	-0.166	-0.265
-463.113	-16.912	-0.278	0.178
-462.099	114.844	-0.193	-0.238
-461.084	287.704	0.109	-0.199
-460.070	-47.931	-0.054	0.027
-459.055	-121.761	-0.130	0.022
-458.040	574.472	0.056	-0.139
-457.026	-36.432	0.403	-0.220
-456.011	-109.041	-0.329	-0.071
-454.997	44.954	-0.199	-0.186
-453.982	-200.000	0.055	0.367
-452.968	165.426	-0.198	0.283
-451.953	800.000	-0.067	0.274
-450.938	-200.000	0.019	-0.247
-449.924	-51.456	0.395	0.186
-448.909	-3.188	-0.221	0.156
-447.895	-39.084	-0.131	0.070
-446.880	31.898	0.334	0.291
-445.865	800.000	-0.021	0.063
-444.851	-50.530	0.201	0.096
-443.836	-90.003	-0.257	0.076
-442.822	155.291	0.158	0.219
-441.807	-96.428	-0.089	-0.024
-440.792	800.000	0.111	0.319
-439.778	-4.814	0.106	0.074
-438.763	424.794	-0.134	-0.292
-437.749	-83.600	0.482	0.156
-436.734	-200.000	-0.015	0.145
-435.719	-71.484	-0.191	0.072
-434.705	-58.540	-0.042	-0.018
-433.690	-17.792	-0.187	-0.118
-432.676	-147.845	0.036	-0.003
-431.661	161.954	0.182	0.258
-430.646	19.587	0.373	-0.303
-429.632	-200.000	0.031	0.227
-428.617	800.000	-0.011	-0.036
-427.603	53.982	0.267	0.259
-426.588	49.828	-0.244	-0.233
-425.573	216.192	-0.055	0.088
-424.559	68.593	-0.172	0.178
-423.544	41.144	-0.183	-0.167
-422.530	29.633	0.144	-0.124
-421.515	800.000	0.049	0.140
-420.500	-56.450	0.153	0.069
-419.486	39.357	-0.200	-0.181
-418.471	355.529	-0.140	-0.280
-417.457	-19.705	-0.126	-0.079
-416.442	-171.812	0.124	0.004
-415.428	-111.252	0.052	0.011
-414.413	14.955	0.174	0.138
-413.398	402.270	0.108	0.230
-412.384	-71.540	0.313	-0.118
-411.369	-10.941	-0.056	0.037
-410.355	-200.000	-0.004	-0.082
-409.340	-200.000	-0.032	0.195
-408.325	-120.662	-0.239	-0.041
-407.311	-141.769	0.282	-0.029
-406.296	3.511	-0.104	0.077
-405.282	800.000	-0.005	-0.021
-404.267	-41.009	-0.170	0.088
-403.252	-138.692	-0.370	-0.041
-402.238	781.652	-0.072	0.199
-401.223	55.539	0.248	-0.242
-400.209	-19.962	-0.271	0.169
-399.194	-34.024	-0.127	0.070
-398.179	-200.000	0.004	0.249
-397.165	800.000	0.151	-0.512
-396.150	-81.920	0.030	0.010
-395.136	-163.819	0.122	0.006
-394.121	75.643	-0.122	0.130
-393.106	-22.227	-0.174	-0.106
-392.092	-72.519	0.114	-0.043
-391.077	69.791	0.244	-0.254
-390.063	800.000	0.041	-0.115
-389.048	64.727	0.188	0.191
-388.033	27.460	0.058	-0.049
-387.019	-17.147	0.097	0.061
-386.004	-76.706	0.176	-0.062
-384.990	169.325	-0.144	0.208
-383.975	-53.437	-0.231	0.107
-382.960	-60.368	0.122	0.053
-381.946	76.277	-0.111	0.119
-380.931	-0.911	-0.247	0.177
-379.917	-78.807	0.088	-0.030
-378.902	-22.983	0.169	-0.103
-377.888	-68.130	0.221	0.087
-376.873	39.601	0.314	0.284
-375.858	-1.780	-0.196	-0.139
-374.844	56.660	0.235	0.231
-373.829	281.552	0.052	-0.093
-372.815	-200.000	-0.000	-0.006
-371.800	273.312	0.080	0.143
-370.785	39.951	0.184	-0.166
-369.771	-200.000	0.003	0.044
-368.756	665.089	-0.074	0.193
-367.742	159.648	0.150	-0.210
-366.727	-167.841	-0.317	0.013
-365.712	26.707	-0.294	0.249
-364.698	-200.000	-0.003	0.030
-363.683	800.000	0.054	-0.153
-362.669	-200.000	-0.046	-0.336
-361.654	-74.410	-0.204	-0.074
-360.639	42.633	0.363	-0.333
-359.625	800.000	-0.078	-0.257
-358.610	-51.377	0.130	-0.061
-357.596	127.871	0.076	-0.097
-356.581	800.000	0.041	0.163
-355.566	5.564	0.003	0.002
-354.552	94.305	0.064	-0.073
-353.537	168.725	-0.170	0.245
-352.523	23.377	-0.209	0.173
-351.508	230.198	-0.157	0.258
-350.493	-84.974	-0.094	-0.030
-349.479	197.124	0.053	-0.082
-348.464	-200.000	-0.029	0.145
-347.450	-200.000	-0.015	-0.282
-346.435	-200.000	0.009	0.221
-345.420	-24.393	-0.237	0.142
-344.406	-153.795	0.356	0.025
-343.391	343.743	0.078	-0.154
-342.377	-200.000	-0.030	0.181
-341.362	-94.031	-0.314	-0.087
-340.348	-31.751	0.112	0.064
-339.333	-200.000	0.050	0.231
-338.318	-109.268	-0.080	-0.017
-337.304	16.066	0.173	0.137
-336.289	586.695	-0.079	0.196
-335.275	-200.000	0.039	-0.179
-334.260	-200.000	0.044	-0.282
-333.245	-105.311	-0.118	-0.027
-332.231	800.000	-0.050	0.168
-331.216	-24.087	-0.254	0.153
-330.202	-200.000	-0.034	0.173
-329.187	-47.220	-0.145	-0.071
-328.172	148.151	-0.072	0.098
-327.158	-200.000	-0.041	0.354
-326.143	-200.000	0.040	-0.341
-325.129	159.332	0.151	0.212
-324.114	-43.821	0.107	-0.054
-323.099	509.409	0.069	-0.162
-322.085	253.784	-0.118	0.202
-321.070	110.586	-0.040	-0.049
-320.056	-172.062	0.056	-0.002
-319.041	-151.348	0.223	0.017
-318.026	800.000	0.083	0.237
-317.012	-56.332	-0.085	-0.038
-315.997	-126.852	0.328	0.049
-314.983	-200.000	0.014	0.161
-313.968	-91.095	0.466	0.135
-312.953	269.952	0.287	-0.508
-311.939	-39.129	-0.128	-0.068
-310.924	1.740	-0.267	0.194
-309.910	108.875	-0.138	-0.166
-308.895	-119.683	0.123	-0.021
-307.880	-63.671	-0.224	-0.092
-306.866	-179.303	0.084	0.002
-305.851	112.583	0.091	-0.111
-304.837	-73.507	0.052	0.019
-303.822	-153.258	0.230	0.016
-302.807	-90.933	0.063	0.018
-301.793	617.919	0.031	-0.078
-300.778	195.832	0.044	-0.067
-299.764	-200.000	0.032	0.352
-298.749	-41.730	0.334	0.173
-297.735	800.000	0.072	0.247
-296.720	-127.117	0.168	0.025
-295.705	6.150	-0.122	-0.091
-294.691	-101.119	-0.015	-0.004
-293.676	-11.841	0.262	0.173
-292.662	151.787	0.183	-0.250
-291.647	-86.338	-0.111	-0.034
-290.632	-145.980	0.074	0.007
-289.618	-70.222	0.102	-0.039
-288.603	192.188	0.025	-0.038
-287.589	-127.017	0.391	-0.058
-286.574	-126.598	-0.061	-0.009
-285.559	-5.800	0.283	-0.195
-284.545	50.236	-0.032	-0.031
-283.530	71.783	-0.096	0.100
-282.516	-82.191	-0.235	0.077
-281.501	-54.557	0.288	-0.131
-280.486	-200.000	0.018	-0.141
-279.472	44.882	-0.187	-0.173
-278.457	-56.510	-0.242	0.108
-277.443	-23.858	0.311	-0.187
-276.428	254.380	0.105	0.180
-275.413	-200.000	-0.063	-0.421
-274.399	-24.555	0.469	-0.280
-273.384	-200.000	-0.044	0.233
-272.370	-191.366	0.065	-0.001
-271.355	-89.465	-0.163	-0.048
-270.340	278.781	-0.041	0.073
-269.326	-113.893	0.230	0.045
-268.311	-34.532	-0.118	-0.065
-267.297	-177.963	-0.190	0.005
-266.282	-20.850	-0.348	0.214
-265.267	716.224	0.059	0.156
-264.253	176.313	0.103	0.150
-263.238	11.652	-0.247	-0.191
-262.224	35.298	-0.314	-0.277
-261.209	-88.099	0.145	-0.044
-260.195	9.094	-0.171	0.129
-259.180	-86.304	-0.114	-0.035
-258.165	-46.465	-0.220	-0.108
-257.151	-79.906	0.209	0.070
-256.136	-200.000	-0.026	-0.358
-255.122	-183.267	-0.208	0.004
-254.107	4.063	0.274	0.201
-253.092	65.782	0.037	-0.037
-252.078	649.852	-0.075	0.194
-251.063	-46.315	0.138	-0.068
-250.049	-200.000	-0.045	0.334
-249.034	-200.000	-0.014	-0.085
-248.019	12.123	0.071	-0.055
-247.005	-134.170	0.298	-0.037
-245.990	800.000	-0.054	-0.225
-244.976	-166.233	0.050	-0.002
-243.961	-64.837	0.086	-0.035
-242.946	1.067	-0.090	-0.065
-241.932	50.051	-0.181	-0.172
-240.917	-200.000	0.034	-0.309
-239.903	249.781	0.122	0.207
-238.888	-144.965	-0.241	-0.022
-237.873	-200.000	0.012	-0.205
-236.859	-115.137	0.159	0.030
-235.844	200.732	0.069	-0.107
-234.830	-139.630	-0.260	-0.028
-233.815	280.372	-0.144	0.258
-232.800	-13.006	-0.158	-0.103
-231.786	800.000	-0.019	0.053
-230.771	468.697	-0.176	0.397
-229.757	48.163	0.215	0.201
-228.742	-71.332	0.229	0.086
-227.727	19.664	-0.151	0.122
-226.713	800.000	0.050	-0.164
-225.698	-200.000	-0.001	0.031
-224.684	55.883	-0.274	0.266
-223.669	-71.978	-0.240	-0.089
-222.655	-200.000	0.003	-0.080
-221.640	-194.677	0.161	0.001
-220.625	-200.000	0.010	-0.045
-219.611	-111.771	-0.312	0.063
-218.596	-20.344	-0.019	0.012
-217.582	-200.000	-0.003	-0.103
-216.567	-104.632	0.050	0.012
-215.552	-200.000	0.033	0.242
-214.538	-34.251	0.150	-0.083
-213.523	-200.000	0.001	-0.014
-212.509	-11.224	-0.099	-0.066
-211.494	-43.141	0.073	0.037
-210.479	-139.144	-0.365	0.039
-209.465	-200.000	-0.033	0.215
-208.450	25.445	-0.189	0.157
-207.436	189.650	0.111	0.166
-206.421	-200.000	0.042	0.273
-205.406	322.860	-0.053	0.101
-204.392	-200.000	-0.342	0.000
-203.377	-200.000	0.028	-0.345
-202.363	-64.910	-0.404	-0.163
-201.348	-54.214	-0.507	0.231
-200.333	800.000	0.052	0.174
-199.319	11.171	-0.058	-0.045
-198.304	115.779	-0.304	-0.373
-197.290	221.673	0.111	-0.179
-196.275	-200.000	0.025	0.286
-195.260	-200.000	0.000	-0.304
-194.246	779.457	-0.059	-0.161
-193.231	263.334	0.043	-0.074
-192.217	-25.756	0.040	0.023
-191.202	-17.910	0.378	-0.237
-190.187	49.634	0.080	-0.075
-189.173	-115.267	0.397	0.075
-188.158	-37.838	-0.013	-0.007
-187.144	589.047	0.066	-0.164
-186.129	-46.356	0.314	-0.154
-185.114	-93.242	0.290	0.081
-184.100	-20.606	0.416	-0.256
-183.085	-120.509	0.302	-0.051
-182.071	800.000	-0.041	-0.146
-181.056	-74.032	0.161	-0.058
-180.042	28.886	-0.183	-0.156
-179.027	800.000	-0.023	0.080
-178.012	-200.000	0.040	0.238
-176.998	-141.840	-0.253	0.025
-175.983	566.166	-0.052	-0.126
-174.969	54.580	-0.176	-0.170
-173.954	289.772	-0.031	0.056
-172.939	-95.440	-0.288	-0.077
-171.925	800.000	-0.066	-0.234
-170.910	-102.031	-0.391	0.094
-169.896	98.501	0.177	-0.204
-168.881	251.159	-0.020	-0.034
-167.866	-59.710	0.139	0.060
-166.852	-106.932	-0.436	0.096
-165.837	149.344	-0.158	0.215
-164.823	-71.986	0.109	0.041
-163.808	-37.536	-0.166	0.088
-162.793	422.737	0.108	0.232
-161.779	-52.117	-0.052	-0.024
-160.764	305.742	0.063	-0.117
-159.750	-148.563	-0.327	0.027
-158.735	9.977	-0.098	0.074
-157.720	116.054	-0.340	0.417
-156.706	65.046	0.399	0.403
-155.691	800.000	0.141	-0.428
-154.677	-113.826	0.032	0.006
-153.662	-101.398	-0.200	0.049
-152.647	-104.980	0.196	0.045
-151.633	278.381	-0.049	0.087
-150.618	-68.975	-0.120	-0.046
-149.604	583.901	-0.134	-0.329
-148.589	-152.305	0.059	0.004
-147.574	-200.000	-0.036	-0.249
-146.560	-191.285	-0.124	0.001
-145.545	375.069	0.057	-0.117
-144.531	-2.088	0.137	-0.096
-143.516	-200.000	-0.040	0.195
-142.502	-49.410	0.347	-0.166
-141.487	-200.000	-0.002	-0.170
-140.472	-133.294	-0.375	-0.047
-139.458	-99.570	-0.266	-0.067
-138.443	-115.173	0.172	-0.033
-137.429	-131.095	0.347	-0.046
-136.414	-113.262	0.101	0.020
-135.399	39.422	-0.155	-0.138
-134.385	65.904	0.115	0.117
-133.370	0.596	0.043	0.031
-132.356	652.378	0.087	-0.222
-131.341	606.248	0.144	-0.358
-130.326	207.616	0.104	-0.162
-129.312	125.550	-0.098	0.124
-128.297	-200.000	0.250	-0.000
-127.283	800.000	0.030	-0.114
-126.268	306.789	0.029	-0.054
-125.253	-83.986	0.126	-0.040
-124.239	216.761	-0.069	-0.109
-123.224	800.000	0.136	0.482
-122.210	800.000	0.060	0.224
-121.195	59.997	-0.211	0.208
-120.180	-116.744	0.259	0.047
-119.166	-77.047	-0.142	0.050
-118.151	709.510	0.033	0.086
-117.137	-200.000	0.004	-0.025
-116.122	351.648	-0.118	-0.234
-115.107	-200.000	0.020	-0.159
-114.093	800.000	-0.061	0.205
-113.078	-126.207	-0.260	0.039
-112.064	91.561	-0.061	-0.068
-111.049	-160.567	-0.236	0.013
-110.034	298.178	0.062	0.113
-109.020	-48.775	0.054	-0.026
-108.005	-38.771	-0.092	0.048
-106.991	-100.822	0.207	-0.051
-105.976	-7.867	0.256	-0.173
-104.962	800.000	-0.073	0.303
-103.947	-110.159	0.222	0.046
-102.932	183.624	-0.037	0.055
-101.918	-200.000	-0.012	0.112
-100.903	-105.478	0.160	-0.036
-99.889	253.285	-0.192	-0.327
-98.874	-80.640	-0.070	-0.023
-97.859	-46.817	0.046	0.023
-96.845	13.274	-0.131	0.101
-95.830	-77.845	0.263	-0.091
-94.816	-134.657	0.172	0.021
-93.801	-200.000	0.070	0.374
-92.786	-200.000	0.013	-0.312
-91.772	12.852	0.156	0.120
-90.757	800.000	0.027	-0.108
-89.743	138.925	0.229	0.300
-88.728	-101.994	-0.298	-0.072
-87.713	-116.565	-0.071	0.013
-86.699	-80.492	0.300	-0.100
-85.684	735.819	0.085	0.227
-84.670	-200.000	-0.005	-0.154
-83.655	183.757	-0.203	-0.299
-82.640	-91.583	0.451	0.128
-81.626	-176.504	0.390	0.010
-80.611	-200.000	-0.029	0.167
-79.597	-154.574	-0.258	-0.017
-78.582	68.717	0.053	-0.055
-77.567	62.430	0.328	0.327
-76.553	-77.194	-0.245	0.085
-75.538	-98.655	0.147	0.037
-74.524	-200.000	0.020	-0.191
-73.509	-31.290	-0.220	0.124
-72.494	-53.999	0.226	0.102
-71.480	-99.487	0.332	-0.083
-70.465	398.254	-0.059	0.123
-69.451	157.779	0.164	-0.226
-68.436	82.693	0.129	0.139
-67.422	-93.823	-0.139	-0.038
-66.407	800.000	0.073	-0.271
-65.392	319.534	-0.108	0.205
-64.378	-5.236	-0.387	0.265
-63.363	-148.965	0.171	0.014
-62.349	-200.000	-0.031	-0.202
-61.334	22.025	-1.062	-0.863
-60.319	-108.791	0.086	0.018
-59.305	398.929	0.259	-0.540
-58.290	52.676	0.582	0.554
-57.276	767.347	0.665	1.802
-56.261	-200.000	75.877	525.779
-55.246	546.552	1310.606	3121.794
-54.232	146.281	2548.768	3406.812
-53.217	118.794	2247.319	2764.598
-52.203	53.065	1766.591	1683.835
-51.188	45.484	1561.829	1435.698
-50.173	42.597	1532.216	1388.505
-49.159	58.614	1568.988	1533.846
-48.144	65.027	1588.536	1597.570
-47.130	45.843	1551.194	1428.196
-46.115	42.181	1536.670	1389.434
-45.100	42.017	1533.398	1385.287
-44.086	42.009	1531.312	1383.291
-43.071	41.881	1529.476	1380.699
-42.057	41.871	1527.638	1378.910
-41.042	41.805	1526.080	1376.998
-40.027	41.854	1525.082	1376.379
-39.013	41.871	1523.196	1374.737
-37.998	41.851	1522.043	1373.507
-36.984	41.918	1520.545	1372.564
-35.969	41.852	1519.460	1371.073
-34.954	41.934	1517.963	1370.231
-33.940	41.863	1516.854	1368.690
-32.925	41.922	1515.115	1367.472
-31.911	41.894	1514.022	1366.237
-30.896	41.986	1512.542	1365.478
-29.881	41.883	1511.278	1363.575
-28.867	41.858	1510.046	1362.240
-27.852	41.996	1508.383	1361.625
-26.838	41.959	1507.050	1360.116
-25.823	41.939	1505.290	1358.341
-24.809	41.914	1503.853	1356.818
-23.794	41.881	1502.594	1355.405
-22.779	41.912	1501.315	1354.411
-21.765	41.870	1500.123	1352.997
-20.750	41.958	1499.259	1352.755
-19.736	41.940	1497.869	1351.331
-18.721	41.940	1496.278	1349.836
-17.706	41.887	1495.401	1348.634
-16.692	41.896	1494.442	1347.779
-15.677	41.906	1493.411	1346.861
-14.663	41.828	1492.072	1345.079
-13.648	41.802	1491.152	1344.021
-12.633	41.778	1490.848	1343.531
-11.619	41.802	1490.043	1342.911
-10.604	41.788	1488.895	1341.735
-9.590	41.857	1487.904	1341.250
-8.575	41.873	1486.877	1340.376
-7.560	41.880	1486.019	1339.598
-6.546	41.744	1485.343	1338.026
-5.531	41.826	1483.862	1337.182
-4.517	41.816	1483.472	1336.713
-3.502	41.825	1482.129	1335.511
-2.487	41.902	1481.175	1335.111
-1.473	41.734	1480.246	1333.101
-0.458	41.804	1478.774	1332.185
0.556	40.801	1469.446	1321.830
1.571	38.203	1442.868	1280.801
2.586	35.048	1381.457	1206.338
3.600	33.421	1299.044	1124.620
4.615	31.574	1250.802	1072.188
5.629	26.014	1191.212	990.579
6.644	12.863	1096.895	845.092
7.659	2.621	1048.662	757.448
8.673	1.166	1042.166	745.540
9.688	0.846	1039.341	741.882
10.702	0.835	1037.966	740.782
11.717	0.684	1036.542	738.963
12.731	5.026	1041.882	764.010
13.746	16.937	1059.253	835.704
14.761	23.870	1067.732	876.632
15.775	23.525	1066.073	873.494
16.790	23.268	1064.784	871.092
17.804	23.164	1063.926	869.803
18.819	22.861	1063.088	867.554
19.834	22.984	1062.340	867.471
20.848	23.133	1062.085	867.915
21.863	23.163	1061.636	867.618
22.877	23.015	1061.324	866.560
23.892	23.077	1060.337	865.985
24.907	22.887	1059.714	864.471
25.921	22.993	1059.189	864.480
26.936	23.044	1058.384	864.000
27.950	22.943	1056.882	862.203
28.965	22.998	1056.219	861.853
29.980	22.867	1054.065	859.384
30.994	22.681	1053.191	857.689
32.009	22.930	1052.727	858.445
33.023	23.113	1051.912	858.595
34.038	22.967	1050.618	856.753
35.053	22.784	1049.968	855.261
36.067	23.040	1048.808	855.479
37.082	22.830	1048.528	854.161
38.096	23.065	1047.687	854.536
39.111	23.160	1047.114	854.451
40.126	23.315	1046.122	854.312
41.140	23.330	1044.784	853.218
42.155	22.953	1043.266	850.088
43.169	22.613	1042.444	847.711
44.184	22.601	1041.059	846.450
45.199	22.844	1039.829	846.541
46.213	22.536	1039.311	844.569
47.228	22.723	1037.973	844.298
48.242	22.693	1038.003	844.107
49.257	22.865	1036.763	843.846
50.271	22.889	1036.290	843.502
51.286	23.074	1034.886	843.166
52.301	23.146	1034.274	842.934
53.315	23.085	1033.897	842.264
54.330	23.135	1032.821	841.552
55.344	22.949	1032.257	840.133
56.359	23.024	1031.440	839.748
57.374	23.106	1030.308	839.141
58.388	22.853	1029.706	837.377
59.403	22.869	1028.926	836.747
60.417	23.000	1027.898	836.455
61.432	22.627	1027.406	834.217
62.447	22.697	1026.942	834.096
63.461	22.887	1025.900	834.073
64.476	22.865	1025.307	833.416
65.490	22.873	1024.490	832.712
66.505	22.753	1022.999	830.862
67.520	22.679	1022.963	830.412
68.534	22.846	1022.186	830.495
69.549	22.713	1020.939	828.780
70.563	22.482	1019.625	826.556
71.578	22.370	1018.790	825.282
72.593	22.444	1017.810	824.765
73.607	22.316	1016.717	823.207
74.622	22.127	1016.110	821.756
75.636	22.581	1015.375	823.213
76.651	22.671	1014.721	823.027
77.666	22.642	1013.801	822.075
78.680	22.443	1013.110	820.512
79.695	22.505	1012.400	820.154
80.709	22.475	1012.194	819.775
81.724	22.684	1011.222	819.889
82.739	22.639	1010.643	819.137
83.753	22.653	1009.538	818.232
84.768	22.806	1009.202	818.596
85.782	23.136	1008.295	819.317
86.797	23.292	1007.915	819.659
87.812	23.234	1006.864	818.462
88.826	23.116	1006.135	817.255
89.841	23.137	1005.025	816.377
90.855	23.279	1004.330	816.393
91.870	23.182	1003.652	815.323
92.884	23.245	1003.016	815.025
93.899	23.123	1001.953	813.530
94.914	23.088	1000.729	812.301
95.928	23.171	1000.419	812.362
96.943	23.197	999.749	811.862
97.957	22.942	998.339	809.477
98.972	22.779	997.110	807.662
99.987	22.538	996.403	805.919
101.001	22.532	995.558	805.134
102.016	23.004	994.762	806.577
103.030	23.033	994.214	806.192
104.045	22.870	992.832	804.259
105.060	22.703	991.889	802.660
106.074	22.690	990.384	801.317
107.089	22.597	989.785	800.339
108.103	22.926	989.199	801.285
109.118	23.058	988.424	801.184
110.133	22.753	987.559	799.032
111.147	22.722	986.309	797.808
112.162	22.679	984.794	796.320
113.176	22.498	983.953	794.752
114.191	22.457	983.558	794.177
115.206	22.694	982.528	794.341
116.220	22.365	981.184	791.707
117.235	22.147	980.299	789.940
118.249	22.463	979.315	790.497
119.264	22.420	978.917	789.916
120.279	22.376	977.996	788.906
121.293	22.306	977.294	787.955
122.308	22.439	976.835	788.112
123.322	22.512	976.115	787.784
124.337	22.520	974.465	786.420
125.352	22.447	973.362	785.133
126.366	22.139	971.484	782.179
127.381	21.665	970.511	779.220
128.395	22.132	970.460	781.184
129.410	22.842	969.972	783.879
130.424	22.890	969.327	783.499
131.439	23.003	967.862	782.746
132.454	23.009	967.152	782.132
133.468	22.866	966.467	780.875
134.483	22.931	965.511	780.322
135.497	22.897	964.880	779.590
136.512	23.243	964.200	780.498
137.527	23.176	963.648	779.690
138.541	23.324	962.686	779.493
139.556	23.207	962.383	778.663
140.570	23.234	961.294	777.830
141.585	23.322	960.241	777.298
142.600	23.369	959.655	776.959
143.614	23.183	958.833	775.410
144.629	23.315	958.242	775.443
145.643	23.448	957.375	775.254
146.658	23.409	956.292	774.139
147.673	23.291	955.048	772.547
148.687	23.171	954.048	771.147
149.702	23.139	953.049	770.132
150.716	23.029	952.011	768.747
151.731	23.027	950.807	767.699
152.746	23.010	950.457	767.275
153.760	23.309	949.546	767.768
154.775	23.288	949.041	767.200
155.789	23.462	948.290	767.278
156.804	23.350	947.478	766.070
157.819	23.222	946.237	764.446
158.833	23.288	945.216	763.836
159.848	23.342	944.745	763.622
160.862	23.397	944.309	763.440
161.877	23.211	943.454	761.881
162.892	23.211	942.259	760.847
163.906	23.317	941.168	760.354
164.921	23.343	940.449	759.817
165.935	23.186	939.602	758.393
166.950	23.325	938.223	757.806
167.964	23.285	937.579	757.050
168.979	23.322	936.378	756.172
169.994	23.211	935.178	754.659
171.008	23.022	934.429	753.185
172.023	23.289	933.771	753.726
173.037	23.377	933.092	753.483
174.052	23.216	931.543	751.485
175.067	23.085	930.866	750.316
176.081	22.993	930.317	749.416
177.096	23.047	929.779	749.144
178.110	23.136	928.526	748.445
179.125	22.738	927.776	746.090
180.140	22.666	926.776	744.916
181.154	22.606	926.120	744.072
182.169	22.720	925.552	744.030
183.183	22.940	925.201	744.610
184.198	23.275	924.861	745.680
185.213	23.318	923.970	745.077
186.227	23.222	923.044	743.859
187.242	23.151	922.627	743.162
188.256	23.416	922.303	743.947
189.271	23.391	921.459	743.094
190.286	23.435	920.617	742.537
191.300	23.263	919.470	740.826
192.315	22.791	918.353	737.884
193.329	22.008	917.067	733.518
194.344	21.600	915.816	730.749
195.359	22.209	916.298	733.611
196.373	22.973	916.433	736.843
197.388	23.272	916.075	737.735
198.402	23.092	915.435	736.406
199.417	23.150	914.760	736.039
200.432	23.195	914.134	735.656
201.446	23.065	913.556	734.583
202.461	22.697	913.176	732.688
203.475	22.717	912.206	731.926
204.490	22.460	910.701	729.590
205.504	21.185	908.699	722.646
206.519	21.649	908.642	724.459
207.534	22.617	908.683	728.427
208.548	22.799	908.234	728.755
209.563	22.904	908.516	729.353
210.577	23.234	907.342	729.706
211.592	22.820	906.501	727.258
212.607	23.226	906.406	728.787
213.621	23.468	905.835	729.262
214.636	23.371	904.920	728.062
215.650	23.362	904.408	727.549
216.665	23.448	903.570	727.161
217.680	23.428	903.148	726.675
218.694	23.425	902.974	726.461
219.709	22.994	902.382	724.153
220.723	22.710	901.308	722.066
221.738	22.912	900.397	722.099
222.753	23.165	899.632	722.453
223.767	23.081	899.080	721.603
224.782	23.229	898.406	721.601
225.796	23.444	898.167	722.222
226.811	23.494	897.534	721.854
227.826	23.077	896.311	719.112
228.840	22.287	894.964	714.758
229.855	22.128	894.349	713.559
230.869	22.412	893.671	714.106
231.884	22.072	892.936	712.078
232.899	22.073	892.372	711.566
233.913	23.039	892.385	715.427
234.928	23.143	892.168	715.611
235.942	23.120	891.543	714.952
236.957	23.049	890.841	714.039
237.972	22.761	889.927	712.080
238.986	22.747	889.140	711.334
240.001	22.748	888.588	710.833
241.015	22.787	888.017	710.470
242.030	22.927	887.130	710.258
243.045	23.066	886.569	710.304
244.059	23.189	886.333	710.548
245.074	23.347	885.929	710.793
246.088	23.292	885.030	709.792
247.103	22.990	884.106	707.777
248.117	22.875	883.401	706.691
249.132	23.475	883.436	709.058
250.147	23.857	883.059	710.217
251.161	23.924	882.443	709.926
252.176	23.940	882.565	710.025
253.190	24.051	881.512	709.559
254.205	24.169	880.973	709.533
255.220	24.180	880.798	709.369
256.234	24.148	879.925	708.479
257.249	24.098	879.627	707.976
258.263	23.865	878.919	706.418
259.278	23.946	878.260	706.149
260.293	24.057	877.580	705.978
261.307	24.149	876.913	705.746
262.322	24.107	876.209	704.950
263.336	23.960	875.864	704.028
264.351	23.537	874.461	701.166
265.366	22.285	872.517	694.605
266.380	21.967	871.242	692.274
267.395	22.604	872.106	695.413
268.409	23.555	872.005	699.018
269.424	23.612	871.434	698.725
270.439	23.736	871.066	698.857
271.453	23.837	870.317	698.588
272.468	23.920	869.395	698.116
273.482	23.896	869.293	697.875
274.497	24.171	868.828	698.519
275.512	23.987	867.979	697.053
276.526	23.511	866.209	693.709
277.541	23.410	866.126	693.187
278.555	23.735	866.342	694.568
279.570	23.704	865.021	693.329
280.585	23.526	864.602	692.235
281.599	23.699	863.988	692.358
282.614	23.774	863.678	692.341
283.628	23.423	862.158	689.696
284.643	22.942	861.413	687.168
285.657	23.369	861.608	688.924
286.672	23.292	860.824	687.935
287.687	22.712	859.859	684.855
288.701	22.997	859.722	685.790
289.716	23.547	859.551	687.726
290.730	23.277	858.489	685.769
291.745	23.113	857.855	684.570
292.760	22.916	856.889	682.975
293.774	22.843	856.171	682.059
294.789	23.675	857.010	685.883
295.803	24.429	856.832	688.592
296.818	24.317	856.876	688.135
297.833	24.403	856.071	687.758
298.847	24.225	854.827	686.014
299.862	24.008	853.546	684.088
300.876	24.118	853.281	684.239
301.891	24.362	852.928	684.834
302.906	24.230	852.511	683.929
303.920	24.062	851.202	682.177
304.935	23.951	850.734	681.316
305.949	24.293	850.134	682.085
306.964	24.504	849.718	682.497
307.979	24.131	849.400	680.754
308.993	23.952	849.046	679.728
310.008	24.326	848.828	680.922
311.022	24.593	847.900	681.132
312.037	24.327	847.635	679.847
313.052	24.075	846.872	678.216
314.066	24.099	845.718	677.321
315.081	23.549	844.357	674.083
316.095	22.700	843.155	669.842
317.110	23.136	843.374	671.610
318.125	24.013	843.543	675.015
319.139	23.657	842.671	672.909
320.154	22.394	841.208	666.897
321.168	22.102	840.149	664.893
322.183	22.641	840.464	667.124
323.197	23.537	840.753	670.684
324.212	23.962	840.014	671.641
325.227	23.981	840.067	671.695
326.241	24.281	839.385	672.223
327.256	24.140	838.902	671.245
328.270	23.899	838.309	669.805
329.285	23.860	837.444	668.906
330.300	23.715	837.020	667.962
331.314	23.596	836.028	666.664
332.329	23.495	835.729	665.988
333.343	24.096	834.766	667.417
334.358	24.310	834.500	667.947
335.373	24.197	834.109	667.149
336.387	24.351	833.562	667.229
337.402	24.344	833.454	667.056
338.416	24.710	832.972	667.980
339.431	24.612	832.151	666.899
340.446	24.629	831.828	666.645
341.460	24.944	831.285	667.324
342.475	24.953	830.670	666.803
343.489	24.638	829.860	664.925
344.504	24.487	829.717	664.187
345.519	24.717	829.464	664.781
346.533	24.926	829.607	665.617
347.548	25.040	828.872	665.388
348.562	25.171	827.898	665.034
349.577	25.149	827.623	664.673
350.592	25.016	826.918	663.556
351.606	24.957	826.510	662.953
352.621	25.165	825.486	662.841
353.635	24.982	825.232	661.902
354.650	24.748	824.861	660.681
355.665	24.537	823.799	658.994
356.679	23.532	821.967	653.768
357.694	23.272	821.686	652.528
358.708	24.110	821.754	655.610
359.723	24.004	821.185	654.708
360.738	24.315	820.548	655.288
361.752	24.521	820.864	656.239
362.767	24.724	820.475	656.613
363.781	24.970	820.398	657.399
364.796	25.287	820.131	658.288
365.810	25.406	820.048	658.599
366.825	25.400	819.718	658.255
367.840	25.426	819.030	657.740
368.854	25.264	818.060	656.309
369.869	24.872	817.655	654.492
370.883	24.552	816.832	652.608
371.898	24.798	816.265	652.996
372.913	24.765	815.590	652.278
373.927	24.695	814.925	651.433
374.942	24.676	814.784	651.195
375.956	24.906	814.095	651.420
376.971	25.041	813.214	651.148
377.986	25.146	812.757	651.106
379.000	25.294	812.617	651.476
380.015	25.399	812.253	651.507
381.029	25.181	811.339	649.926
382.044	25.043	811.017	649.108
383.059	25.157	810.750	649.251
384.073	25.169	810.062	648.686
385.088	25.191	810.087	648.728
386.102	25.366	808.880	648.336
387.117	25.331	807.704	647.211
388.132	25.013	807.775	646.065
389.146	24.977	806.945	645.211
390.161	24.433	805.735	642.232
391.175	24.506	805.262	642.060
392.190	25.010	805.681	644.148
393.205	25.117	805.373	644.230
394.219	24.195	803.446	639.327
395.234	22.539	801.333	631.659
396.248	21.732	800.226	627.837
397.263	22.589	800.648	631.184
398.278	24.413	802.472	639.106
399.292	25.017	802.210	641.004
400.307	24.838	801.459	639.704
401.321	24.638	801.315	638.820
402.336	24.718	800.996	638.795
403.350	24.954	800.531	639.208
404.365	25.482	800.641	641.126
405.380	25.652	800.474	641.539
406.394	25.961	800.281	642.428
407.409	26.122	799.651	642.441
408.423	26.048	799.264	641.811
409.438	26.001	798.555	641.017
410.453	26.008	798.203	640.703
411.467	26.066	797.951	640.650
412.482	26.061	797.158	639.939
413.496	26.028	796.723	639.415
414.511	26.211	796.064	639.477
415.526	26.009	795.975	638.635
416.540	26.122	795.425	638.538
417.555	26.093	794.677	637.778
418.569	25.716	794.025	635.865
419.584	25.638	793.881	635.418
420.599	25.901	793.387	635.895
421.613	92.195	1254.591	1358.710
422.628	78.722	1321.799	1358.833
