DTS Sentinel unit serial number:	SN413079Multiplexer serial number:	ORYXHardware model number:	OX4-SRSoftware version number:	ORYX F/W v4.00 Oryx Data Collector v3.7.2.0data status	okinstallation	princeton_trtdifferential loss correction	single-endedforward channel	channel 3reverse channel	N/Adate	2019/09/11time	13:34:10forward acquisition time	60.00reverse acquisition time	0.00gamma	496.2192k internal	0.2293k external	0.2293temperature offset calibration	0.9972default loss term (dB/km)	0.3790temperature slope calibration	1.0000multiplexer offset coefficient	1.0000multiplexer slope coefficient	1.0000fibre end	0.00T internal ref (°C)	41.97T ext. ref 1 (°C)	0.82T ext. ref 2 (°C)	35.96length (m)	temperature (°C)	Stokes	anti-Stokes-747.200	2.377	-0.113	0.084
-746.185	-200.000	0.054	0.365
-745.171	-200.000	-0.010	0.159
-744.156	694.426	0.156	0.418
-743.142	390.147	0.108	-0.229
-742.127	-200.000	-0.018	0.598
-741.112	45.404	-0.051	0.048
-740.098	156.643	0.155	0.219
-739.083	800.000	-0.126	0.437
-738.069	-200.000	-0.024	0.348
-737.054	-28.815	-0.162	-0.095
-736.039	90.782	0.131	-0.150
-735.025	-136.171	0.373	0.045
-734.010	-111.054	-0.324	-0.068
-732.996	52.611	-0.309	-0.301
-731.981	-81.868	0.158	-0.053
-730.966	94.431	0.288	0.334
-729.952	-1.841	-0.145	-0.104
-728.937	-16.627	0.196	-0.127
-727.923	-83.793	-0.371	0.121
-726.908	69.576	-0.102	-0.108
-725.894	-200.000	-0.026	-0.164
-724.879	-15.089	0.302	0.197
-723.864	-45.426	-0.091	0.046
-722.850	-105.737	0.139	0.032
-721.835	-79.118	0.223	0.077
-720.821	-117.566	0.196	-0.036
-719.806	-127.428	0.110	-0.016
-718.791	316.912	0.042	0.082
-717.777	-22.918	0.064	0.039
-716.762	-200.000	-0.006	-0.260
-715.748	-145.751	0.167	-0.015
-714.733	800.000	-0.031	0.103
-713.718	48.191	-0.065	-0.062
-712.704	43.727	0.059	-0.055
-711.689	-19.445	-0.075	0.047
-710.675	250.566	0.082	-0.142
-709.660	61.749	-0.081	-0.083
-708.645	374.209	0.175	0.365
-707.631	-200.000	-0.003	0.095
-706.616	-110.751	-0.125	0.026
-705.602	4.512	-0.301	-0.226
-704.587	-200.000	0.121	0.556
-703.572	800.000	0.038	-0.147
-702.558	-200.000	0.021	-0.180
-701.543	-8.528	-0.082	0.056
-700.529	-200.000	-0.005	-0.051
-699.514	-79.763	-0.134	0.046
-698.499	330.888	0.159	-0.313
-697.485	199.689	0.058	-0.091
-696.470	800.000	-0.163	-0.509
-695.456	25.022	-0.155	-0.131
-694.441	113.258	-0.139	0.172
-693.426	168.998	0.169	0.246
-692.412	10.458	-0.118	-0.092
-691.397	25.044	-0.085	-0.072
-690.383	-103.570	-0.293	-0.070
-689.368	66.102	-0.150	-0.156
-688.354	143.058	0.230	0.312
-687.339	-126.057	-0.179	-0.027
-686.324	19.213	0.169	-0.139
-685.310	-64.157	-0.283	-0.118
-684.295	-154.345	0.085	-0.006
-683.281	1.847	-0.178	-0.131
-682.266	-200.000	0.015	-0.091
-681.251	94.016	-0.151	-0.175
-680.237	-90.705	0.285	0.084
-679.222	82.823	-0.242	0.268
-678.208	-121.496	0.210	-0.036
-677.193	-200.000	-0.023	-0.245
-676.178	263.351	-0.092	-0.162
-675.164	55.987	0.110	0.109
-674.149	409.402	0.141	-0.305
-673.135	-200.000	-0.036	0.214
-672.120	-200.000	0.031	0.213
-671.105	301.473	-0.311	-0.585
-670.091	-200.000	-0.021	-0.292
-669.076	27.897	-0.060	0.052
-668.062	-200.000	-0.046	-0.524
-667.047	-146.222	0.473	0.042
-666.032	-6.595	-0.313	0.217
-665.018	-89.150	-0.118	0.035
-664.003	39.930	-0.344	-0.315
-662.989	485.593	-0.068	0.158
-661.974	119.774	-0.303	-0.383
-660.959	77.721	0.151	-0.164
-659.945	-200.000	-0.003	0.232
-658.930	-143.960	-0.531	-0.051
-657.916	-112.324	0.103	0.021
-656.901	69.558	-0.108	-0.113
-655.886	-200.000	-0.004	-0.096
-654.872	-200.000	-0.004	0.030
-653.857	-117.020	0.187	-0.035
-652.843	-191.167	-0.131	0.001
-651.828	800.000	0.021	0.076
-650.814	202.300	0.168	0.265
-649.799	64.402	0.074	0.076
-648.784	-82.376	-0.232	0.077
-647.770	-200.000	-0.047	-0.222
-646.755	267.542	0.172	0.307
-645.741	-190.257	-0.099	0.001
-644.726	150.881	-0.058	0.080
-643.711	-105.933	0.371	-0.085
-642.697	-200.000	0.005	-0.184
-641.682	800.000	-0.110	0.332
-640.668	-32.503	0.083	-0.047
-639.653	110.211	0.177	-0.216
-638.638	-41.983	0.139	-0.072
-637.624	-111.248	0.101	-0.021
-636.609	468.579	0.059	0.136
-635.595	185.830	-0.123	0.186
-634.580	462.498	0.098	0.223
-633.565	313.555	-0.108	0.206
-632.551	-200.000	-0.011	0.072
-631.536	-140.730	0.306	0.032
-630.522	200.972	-0.116	0.182
-629.507	74.886	0.163	0.174
-628.492	-3.326	-0.232	-0.165
-627.478	51.767	-0.092	0.089
-626.463	-12.078	0.372	-0.248
-625.449	77.428	-0.179	-0.194
-624.434	800.000	0.063	0.219
-623.419	-13.660	-0.022	-0.015
-622.405	204.000	0.092	0.145
-621.390	207.905	-0.231	0.368
-620.376	800.000	0.044	0.178
-619.361	-138.604	-0.212	-0.024
-618.346	-200.000	0.033	0.168
-617.332	-129.578	-0.105	-0.015
-616.317	153.964	0.182	-0.255
-615.303	66.428	-0.093	0.096
-614.288	800.000	-0.075	-0.252
-613.273	536.002	0.049	-0.119
-612.259	-200.000	0.034	-0.260
-611.244	-200.000	-0.002	0.308
-610.230	-120.282	0.261	0.045
-609.215	-200.000	0.061	0.311
-608.201	32.269	-0.038	0.033
-607.186	-1.493	0.178	-0.127
-606.171	-65.464	0.236	-0.096
-605.157	-69.653	-0.146	-0.057
-604.142	-74.796	0.072	-0.026
-603.128	-109.931	-0.089	-0.019
-602.113	-200.000	0.031	0.139
-601.098	-99.611	-0.068	-0.017
-600.084	-83.236	-0.183	-0.060
-599.069	-22.422	-0.059	-0.036
-598.055	-158.532	-0.137	0.008
-597.040	-10.144	0.253	-0.171
-596.025	-46.561	-0.163	0.082
-595.011	-139.118	0.172	0.019
-593.996	266.276	-0.088	-0.157
-592.982	630.945	0.060	-0.154
-591.967	-75.172	-0.120	-0.044
-590.952	-103.696	0.152	0.036
-589.938	-42.872	-0.149	-0.077
-588.923	-179.325	0.161	-0.004
-587.909	-85.563	0.071	-0.022
-586.894	128.944	-0.272	-0.353
-585.879	-98.104	-0.145	-0.038
-584.865	-104.105	0.154	0.037
-583.850	-14.976	-0.325	-0.212
-582.836	15.921	0.188	-0.151
-581.821	-84.650	0.347	0.111
-580.806	3.252	0.016	-0.012
-579.792	-200.000	0.011	0.148
-578.777	-76.749	0.064	0.023
-577.763	198.532	0.114	-0.178
-576.748	-136.095	0.392	0.047
-575.733	163.210	0.248	0.355
-574.719	-200.000	-0.013	0.195
-573.704	-57.981	0.096	0.043
-572.690	-200.000	0.013	0.145
-571.675	308.141	0.137	0.260
-570.661	-61.447	-0.203	-0.087
-569.646	-148.829	-0.157	0.013
-568.631	288.988	-0.146	0.269
-567.617	800.000	-0.069	-0.213
-566.602	-200.000	-0.164	-0.000
-565.588	222.253	-0.211	0.346
-564.573	0.670	0.235	0.171
-563.558	-125.411	0.275	-0.043
-562.544	-94.734	-0.148	-0.041
-561.529	-132.074	0.147	-0.019
-560.515	279.520	-0.025	-0.045
-559.500	-3.085	0.227	0.161
-558.485	-200.000	-0.020	0.090
-557.471	-200.000	0.002	0.237
-556.456	-182.166	0.175	-0.003
-555.442	800.000	0.041	-0.117
-554.427	-10.512	0.177	-0.119
-553.412	-200.000	0.022	-0.102
-552.398	-53.388	-0.262	-0.122
-551.383	100.044	-0.174	-0.204
-550.369	10.706	0.252	-0.195
-549.354	19.325	-0.049	-0.040
-548.339	126.000	-0.062	0.080
-547.325	374.836	-0.076	0.156
-546.310	161.058	-0.094	-0.134
-545.296	102.391	0.277	-0.329
-544.281	-30.786	-0.338	-0.194
-543.266	83.423	0.064	0.070
-542.252	72.580	-0.214	0.226
-541.237	-200.000	-0.030	0.417
-540.223	-200.000	0.006	0.236
-539.208	399.124	0.064	-0.136
-538.193	-200.000	0.049	-0.411
-537.179	-136.434	0.223	-0.026
-536.164	111.459	0.287	0.351
-535.150	800.000	-0.055	-0.167
-534.135	-200.000	0.004	0.120
-533.121	47.802	-0.303	0.287
-532.106	123.216	0.099	0.126
-531.091	171.011	0.144	0.210
-530.077	-161.131	-0.278	0.015
-529.062	-47.235	-0.035	0.017
-528.048	84.622	-0.069	-0.077
-527.033	-8.078	-0.258	-0.177
-526.018	35.457	-0.068	0.061
-525.004	-66.797	0.183	0.074
-523.989	132.243	0.248	0.324
-522.975	637.539	0.062	-0.160
-521.960	0.909	-0.119	0.086
-520.945	800.000	-0.076	-0.270
-519.931	-72.101	0.297	-0.112
-518.916	487.672	0.105	0.244
-517.902	-80.187	-0.060	-0.020
-516.887	-121.452	-0.388	0.065
-515.872	22.001	-0.107	-0.089
-514.858	21.910	0.305	-0.252
-513.843	800.000	0.024	-0.099
-512.829	397.452	-0.081	-0.172
-511.814	31.051	-0.143	-0.125
-510.799	-169.533	0.296	-0.011
-509.785	218.707	0.094	0.152
-508.770	139.514	-0.056	-0.075
-507.756	68.122	0.136	-0.141
-506.741	126.345	-0.247	0.316
-505.726	23.245	0.277	-0.231
-504.712	-40.706	-0.254	-0.133
-503.697	39.639	-0.321	-0.291
-502.683	129.669	-0.102	0.132
-501.668	-15.587	-0.159	-0.103
-500.653	73.106	0.044	0.046
-499.639	-61.684	-0.069	0.029
-498.624	-200.000	-0.021	0.122
-497.610	-200.000	-0.017	0.114
-496.595	48.047	0.067	-0.064
-495.581	127.141	0.223	0.286
-494.566	-17.265	0.165	0.106
-493.551	180.729	0.232	-0.346
-492.537	-33.495	0.140	-0.078
-491.522	800.000	0.005	-0.017
-490.508	46.805	-0.349	-0.328
-489.493	-7.353	-0.250	-0.172
-488.478	-46.843	-0.155	-0.077
-487.464	-102.993	-0.265	0.064
-486.449	-36.818	-0.075	-0.041
-485.435	260.090	-0.074	-0.129
-484.420	-93.606	0.137	-0.038
-483.405	-200.000	0.027	-0.177
-482.391	-123.093	-0.164	0.027
-481.376	106.842	-0.085	-0.103
-480.362	59.933	-0.081	0.081
-479.347	528.708	0.095	-0.228
-478.332	515.387	0.111	0.262
-477.318	27.343	0.235	0.200
-476.303	-200.000	-0.007	0.063
-475.289	-200.000	0.011	0.154
-474.274	-11.360	-0.055	-0.037
-473.259	119.061	-0.103	-0.129
-472.245	99.070	0.179	-0.210
-471.230	-89.170	0.027	0.008
-470.216	69.490	-0.079	-0.082
-469.201	-127.402	-0.165	0.024
-468.186	-119.596	0.076	0.013
-467.172	-42.363	-0.230	-0.119
-466.157	800.000	-0.116	0.380
-465.143	800.000	0.055	0.173
-464.128	92.850	-0.160	0.183
-463.113	105.608	0.145	-0.173
-462.099	-109.905	-0.360	-0.076
-461.084	800.000	0.020	-0.066
-460.070	-38.542	-0.218	0.117
-459.055	95.541	-0.101	0.116
-458.040	116.621	0.142	0.176
-457.026	800.000	0.021	-0.063
-456.011	45.470	-0.077	-0.072
-454.997	-36.921	0.246	0.134
-453.982	44.089	0.072	0.067
-452.968	-20.148	-0.283	0.177
-451.953	-96.624	0.148	-0.040
-450.938	800.000	0.060	-0.189
-449.924	-22.720	0.449	-0.275
-448.909	686.462	-0.128	-0.337
-447.895	87.987	0.132	-0.148
-446.880	800.000	0.024	-0.085
-445.865	-200.000	0.017	0.106
-444.851	81.604	0.114	0.125
-443.836	261.645	-0.073	-0.128
-442.822	-95.560	0.251	-0.068
-441.807	-74.704	0.319	-0.116
-440.792	276.949	-0.038	0.069
-439.778	385.787	-0.168	-0.350
-438.763	-34.782	-0.170	0.094
-437.749	-80.585	-0.173	0.058
-436.734	-102.456	-0.345	0.084
-435.719	4.668	0.098	-0.073
-434.705	254.142	0.021	0.036
-433.690	800.000	0.108	0.384
-432.676	-200.000	-0.033	-0.230
-431.661	528.443	-0.034	-0.082
-430.646	-74.490	0.219	-0.080
-429.632	710.068	0.104	-0.277
-428.617	57.032	0.224	-0.221
-427.603	-121.555	0.235	0.039
-426.588	16.940	-0.356	0.285
-425.573	-38.528	0.224	0.119
-424.559	50.824	-0.394	0.377
-423.544	7.475	0.193	-0.146
-422.530	119.860	0.125	0.156
-421.515	800.000	0.079	0.269
-420.500	-200.000	-0.068	-0.306
-419.486	141.231	-0.101	-0.135
-418.471	9.313	-0.158	0.121
-417.457	-92.071	-0.150	-0.043
-416.442	502.664	0.048	0.113
-415.428	-18.888	-0.174	-0.109
-414.413	-22.267	-0.426	0.261
-413.398	-44.178	-0.148	0.075
-412.384	-159.491	-0.410	-0.023
-411.369	800.000	0.073	0.292
-410.355	72.373	-0.186	-0.196
-409.340	-200.000	0.003	-0.039
-408.325	184.772	-0.159	0.239
-407.311	696.317	0.040	0.106
-406.296	115.932	-0.174	0.215
-405.282	28.039	0.293	0.250
-404.267	-139.440	-0.101	0.011
-403.252	-172.296	-0.283	-0.009
-402.238	-112.509	0.195	0.039
-401.223	-90.084	0.034	0.010
-400.209	-200.000	-0.023	-0.102
-399.194	461.173	-0.057	0.128
-398.179	-15.203	0.030	0.019
-397.165	-66.198	0.229	0.092
-396.150	-150.444	-0.181	-0.014
-395.136	-200.000	0.008	0.093
-394.121	-49.129	0.196	-0.095
-393.106	387.677	0.085	0.178
-392.092	1.109	-0.025	-0.018
-391.077	-107.586	-0.309	-0.068
-390.063	-170.120	-0.412	-0.015
-389.048	43.134	0.299	-0.275
-388.033	800.000	0.078	0.264
-387.019	283.490	-0.086	0.155
-386.004	786.354	-0.091	0.252
-384.990	-101.834	0.272	0.066
-383.975	-200.000	0.042	-0.186
-382.960	203.663	-0.115	0.180
-381.946	-81.368	-0.070	0.023
-380.931	-200.000	0.032	0.206
-379.917	-42.556	0.447	0.230
-378.902	-155.294	-0.103	-0.007
-377.888	800.000	-0.011	-0.034
-376.873	168.277	-0.099	0.143
-375.858	221.366	-0.149	0.241
-374.844	209.259	-0.054	-0.085
-373.829	800.000	0.055	0.190
-372.815	-138.093	0.097	0.011
-371.800	-103.052	-0.143	0.034
-370.785	-200.000	-0.008	-0.175
-369.771	-114.898	0.176	0.034
-368.756	-75.471	-0.363	0.130
-367.742	-90.595	0.273	0.080
-366.727	-200.000	0.029	-0.313
-365.712	800.000	0.055	-0.177
-364.698	-11.967	-0.264	-0.174
-363.683	800.000	-0.021	-0.065
-362.669	85.566	0.207	-0.229
-361.654	68.074	-0.021	-0.022
-360.639	800.000	0.086	-0.302
-359.625	-92.691	0.112	-0.032
-358.610	-27.880	0.345	0.202
-357.596	-160.806	0.235	0.013
-356.581	656.804	0.065	0.169
-355.566	124.313	0.024	0.030
-354.552	363.297	-0.020	-0.040
-353.537	84.741	-0.170	-0.188
-352.523	-200.000	0.001	0.305
-351.508	-62.115	0.351	0.148
-350.493	62.435	0.023	-0.024
-349.479	-200.000	0.064	0.373
-348.464	-70.303	0.211	0.081
-347.450	-78.443	-0.472	-0.163
-346.435	-100.227	-0.075	-0.019
-345.420	-186.448	-0.334	-0.005
-344.406	800.000	-0.032	-0.109
-343.391	-107.651	0.361	0.079
-342.377	64.177	0.082	0.084
-341.362	-48.511	-0.316	-0.153
-340.348	239.373	-0.116	-0.194
-339.333	800.000	-0.055	0.166
-338.318	-29.092	0.344	-0.199
-337.304	-49.036	0.526	-0.254
-336.289	-77.825	0.230	0.080
-335.275	40.785	0.293	0.266
-334.260	-86.525	-0.224	-0.069
-333.245	185.431	-0.140	-0.210
-332.231	-200.000	0.013	-0.284
-331.216	-62.560	0.294	-0.123
-330.202	227.692	0.060	-0.099
-329.187	-44.175	0.042	-0.021
-328.172	-30.075	0.304	-0.174
-327.158	-75.583	0.130	0.047
-326.143	298.658	-0.151	0.279
-325.129	-200.000	-0.016	-0.089
-324.114	-200.000	-0.031	0.174
-323.099	-200.000	-0.004	0.224
-322.085	594.013	0.087	0.216
-321.070	-30.428	0.128	-0.073
-320.056	44.965	0.239	0.221
-319.041	-122.855	-0.283	0.046
-318.026	-200.000	-0.073	-0.451
-317.012	-109.649	0.299	-0.063
-315.997	42.365	-0.169	-0.155
-314.983	-37.112	-0.254	0.137
-313.968	-200.000	0.035	0.197
-312.953	252.911	-0.270	-0.463
-311.939	92.884	-0.094	0.106
-310.924	800.000	0.094	0.306
-309.910	-124.689	0.117	-0.018
-308.895	-120.862	-0.142	-0.024
-307.880	-152.907	-0.385	-0.027
-306.866	800.000	0.125	0.348
-305.851	145.545	-0.073	-0.099
-304.837	-98.802	0.239	-0.061
-303.822	-200.000	0.013	0.259
-302.807	606.087	-0.073	0.183
-301.793	800.000	0.062	-0.178
-300.778	-63.789	-0.186	0.077
-299.764	-100.037	-0.162	0.040
-298.749	-200.000	-0.046	-0.398
-297.735	-160.214	-0.203	-0.011
-296.720	-116.859	0.152	0.028
-295.705	-10.430	-0.175	0.117
-294.691	29.337	-0.180	-0.154
-293.676	-22.772	-0.230	0.139
-292.662	21.560	-0.085	-0.069
-291.647	281.612	-0.019	0.034
-290.632	-121.239	0.246	-0.041
-289.618	268.254	0.049	-0.087
-288.603	115.990	0.319	-0.392
-287.589	272.640	-0.105	-0.186
-286.574	800.000	-0.036	-0.119
-285.559	800.000	0.045	-0.193
-284.545	-12.815	0.291	-0.190
-283.530	-105.893	-0.333	-0.075
-282.516	-107.442	0.133	-0.029
-281.501	-127.343	0.398	0.058
-280.486	-14.372	0.059	-0.038
-279.472	-111.340	0.140	0.029
-278.457	128.990	-0.147	0.188
-277.443	-200.000	0.004	0.171
-276.428	146.992	0.349	0.471
-275.413	-8.617	0.139	-0.094
-274.399	-200.000	-0.037	-0.318
-273.384	-114.892	0.233	-0.045
-272.370	24.812	0.071	0.059
-271.355	158.202	-0.128	0.178
-270.340	250.982	-0.196	0.335
-269.326	-107.436	0.009	-0.002
-268.311	326.645	0.034	0.066
-267.297	373.871	0.133	0.271
-266.282	46.255	0.059	0.055
-265.267	-81.920	-0.296	0.097
-264.253	800.000	0.090	0.366
-263.238	-84.466	0.416	0.132
-262.224	-30.546	-0.016	0.009
-261.209	-200.000	0.052	-0.272
-260.195	-122.058	0.065	0.011
-259.180	89.733	0.111	-0.124
-258.165	-200.000	-0.017	0.153
-257.151	-192.334	-0.215	-0.002
-256.136	33.165	-0.076	0.066
-255.122	92.075	0.190	-0.215
-254.107	-91.838	0.277	0.079
-253.092	-95.100	-0.255	0.069
-252.078	-158.276	0.217	0.013
-251.063	62.836	-0.151	0.151
-250.049	-200.000	-0.058	0.262
-249.034	-60.356	0.108	0.046
-248.019	51.970	-0.071	-0.068
-247.005	600.417	0.051	0.128
-245.990	-119.733	-0.085	0.015
-244.976	76.800	0.110	-0.117
-243.961	-31.730	-0.227	-0.127
-242.946	-83.502	-0.295	-0.095
-241.932	268.500	0.174	-0.306
-240.917	426.344	0.082	0.177
-239.903	-200.000	0.019	0.299
-238.888	-200.000	-0.056	0.354
-237.873	-138.368	-0.188	0.021
-236.859	-7.698	0.249	-0.169
-235.844	-87.467	-0.102	0.031
-234.830	-200.000	0.006	-0.105
-233.815	-132.340	0.252	-0.033
-232.800	-1.182	0.108	-0.076
-231.786	30.445	-0.251	-0.215
-230.771	-165.731	0.232	-0.010
-229.757	-200.000	-0.037	-0.318
-228.742	-76.988	-0.097	-0.034
-227.727	-200.000	0.023	-0.169
-226.713	-97.622	0.464	-0.121
-225.698	-200.000	0.017	-0.078
-224.684	151.039	-0.128	-0.175
-223.669	800.000	0.037	-0.115
-222.655	174.840	-0.167	-0.243
-221.640	709.875	0.045	-0.119
-220.625	-109.658	-0.155	0.033
-219.611	-154.837	0.231	-0.015
-218.596	113.213	-0.048	-0.058
-217.582	155.063	-0.198	-0.273
-216.567	252.705	-0.158	-0.269
-215.552	-82.443	-0.129	-0.042
-214.538	447.278	-0.115	0.253
-213.523	800.000	-0.110	-0.308
-212.509	-200.000	0.008	0.338
-211.494	212.834	0.153	-0.242
-210.479	216.557	0.122	-0.195
-209.465	-27.981	-0.209	-0.121
-208.450	800.000	0.047	-0.186
-207.436	-88.066	0.167	0.050
-206.421	611.923	0.037	0.094
-205.406	9.602	-0.138	-0.105
-204.392	-86.846	0.331	-0.101
-203.377	800.000	-0.029	-0.101
-202.363	-175.138	-0.457	-0.013
-201.348	184.109	-0.092	0.136
-200.333	134.887	-0.103	0.133
-199.319	299.782	-0.014	-0.025
-198.304	-200.000	-0.025	-0.139
-197.290	-65.910	0.407	0.163
-196.275	28.839	0.196	-0.167
-195.260	-112.491	0.125	0.025
-194.246	-29.138	-0.577	0.331
-193.231	60.791	0.053	-0.053
-192.217	127.307	-0.180	-0.229
-191.202	800.000	-0.064	-0.249
-190.187	-38.573	-0.251	-0.133
-189.173	201.210	-0.060	-0.093
-188.158	308.580	0.079	-0.148
-187.144	302.236	0.121	-0.225
-186.129	40.773	-0.348	-0.314
-185.114	-34.586	0.116	-0.063
-184.100	-13.410	0.108	-0.070
-183.085	-200.000	0.021	0.296
-182.071	-126.531	-0.230	0.034
-181.056	215.107	0.077	0.123
-180.042	-120.005	-0.197	-0.034
-179.027	31.209	-0.043	0.037
-178.012	42.726	-0.059	-0.054
-176.998	561.471	0.045	-0.110
-175.983	30.844	0.061	0.052
-174.969	-46.530	-0.056	-0.027
-173.954	251.459	-0.018	0.030
-172.939	-158.586	-0.014	0.001
-171.925	-146.738	0.195	-0.017
-170.910	-200.000	-0.041	0.305
-169.896	-7.523	0.329	0.223
-168.881	-168.329	-0.233	0.009
-167.866	33.238	0.170	-0.148
-166.852	-30.425	0.216	0.122
-165.837	800.000	0.042	0.179
-164.823	23.972	-0.245	0.202
-163.808	-23.441	-0.211	0.127
-162.793	-169.211	-0.202	-0.007
-161.779	220.058	0.037	-0.060
-160.764	167.536	-0.188	-0.267
-159.750	152.546	-0.170	-0.232
-158.735	-200.000	0.005	-0.081
-157.720	800.000	0.040	0.145
-156.706	-125.607	0.178	-0.027
-155.691	4.650	-0.351	-0.258
-154.677	30.673	0.101	-0.086
-153.662	-2.932	-0.221	-0.154
-152.647	133.554	-0.060	0.078
-151.633	532.750	-0.119	0.282
-150.618	102.315	-0.188	-0.220
-149.604	-25.068	0.079	0.047
-148.589	99.089	0.213	-0.246
-147.574	8.676	-0.175	0.132
-146.560	-200.000	-0.006	0.331
-145.545	-200.000	-0.035	-0.191
-144.531	-110.472	0.088	0.018
-143.516	297.342	-0.170	0.313
-142.502	-200.000	0.024	0.199
-141.487	-48.312	0.090	0.043
-140.472	-149.115	-0.043	-0.003
-139.458	-200.000	-0.049	-0.242
-138.443	-200.000	0.086	-0.458
-137.429	-151.489	-0.366	0.027
-136.414	-90.859	0.185	0.053
-135.399	-101.542	0.367	0.089
-134.385	-68.577	0.305	-0.118
-133.370	246.345	-0.138	-0.233
-132.356	44.570	0.149	-0.137
-131.341	800.000	0.025	-0.082
-130.326	-83.131	-0.137	0.044
-129.312	-148.153	-0.211	-0.017
-128.297	-153.128	0.198	-0.014
-127.283	-200.000	0.019	0.131
-126.268	-33.270	-0.241	-0.133
-125.253	-51.217	-0.089	-0.042
-124.239	76.539	0.044	-0.047
-123.224	-56.022	0.142	0.063
-122.210	-200.000	0.086	-0.405
-121.195	28.404	-0.355	0.300
-120.180	-93.088	0.107	-0.030
-119.166	-200.000	0.011	0.115
-118.151	-89.506	-0.243	-0.071
-117.137	75.649	0.110	0.116
-116.122	41.535	0.333	0.301
-115.107	-100.703	-0.156	-0.038
-114.093	-94.961	-0.181	-0.049
-113.078	51.518	-0.187	0.177
-112.064	-86.867	0.167	0.051
-111.049	-162.046	0.447	-0.022
-110.034	-43.121	-0.485	0.245
-109.020	625.500	-0.027	-0.068
-108.005	-60.568	0.109	0.046
-106.991	-45.437	0.197	0.097
-105.976	88.602	-0.070	-0.078
-104.962	-24.066	0.229	-0.137
-103.947	-33.439	0.133	-0.074
-102.932	614.108	-0.105	-0.262
-101.918	-107.886	-0.292	-0.063
-100.903	488.333	-0.055	0.126
-99.889	270.865	-0.083	-0.145
-98.874	174.543	-0.365	0.526
-97.859	-200.000	0.016	0.089
-96.845	46.507	-0.154	-0.143
-95.830	-200.000	-0.032	0.263
-94.816	-76.285	0.140	0.049
-93.801	-152.373	-0.133	-0.010
-92.786	-8.889	0.083	-0.055
-91.772	800.000	0.097	-0.267
-90.757	187.018	0.139	0.206
-89.743	800.000	-0.037	-0.158
-88.728	27.223	0.189	0.158
-87.713	800.000	-0.029	0.083
-86.699	125.102	-0.200	0.252
-85.684	448.452	-0.130	-0.286
-84.670	49.607	-0.053	0.050
-83.655	-49.936	0.244	-0.115
-82.640	-200.000	0.014	0.138
-81.626	-10.984	0.066	0.043
-80.611	-34.823	-0.215	0.117
-79.597	800.000	0.024	0.067
-78.582	47.043	0.194	0.180
-77.567	800.000	-0.050	0.183
-76.553	-12.016	-0.120	-0.078
-75.538	339.873	0.033	0.065
-74.524	-200.000	-0.065	0.476
-73.509	-200.000	-0.055	0.604
-72.494	-78.782	-0.125	0.042
-71.480	230.722	-0.068	-0.110
-70.465	-200.000	0.030	0.182
-69.451	-108.032	0.259	0.056
-68.436	-82.473	-0.622	0.201
-67.422	-200.000	0.015	0.302
-66.407	78.287	0.256	-0.272
-65.392	-26.234	0.294	0.172
-64.378	341.639	0.165	-0.322
-63.363	-39.011	-0.147	-0.077
-62.349	-81.660	-0.135	0.044
-61.334	67.860	-0.502	-0.511
-60.319	545.046	0.206	0.489
-59.305	-200.000	-0.006	-0.615
-58.290	62.039	0.639	0.635
-57.276	342.272	0.727	1.417
-56.261	-200.000	75.570	535.672
-55.246	560.142	1309.969	3150.977
-54.232	145.470	2551.525	3402.409
-53.217	119.580	2254.725	2780.525
-52.203	53.391	1772.081	1691.501
-51.188	45.682	1566.509	1441.270
-50.173	42.837	1536.331	1393.782
-49.159	58.892	1573.677	1540.233
-48.144	65.283	1593.587	1604.298
-47.130	46.040	1555.713	1433.610
-46.115	42.229	1541.278	1393.826
-45.100	41.997	1538.596	1389.732
-44.086	42.013	1536.152	1387.581
-43.071	41.987	1533.972	1385.379
-42.057	41.764	1532.968	1382.869
-41.042	41.840	1530.780	1381.368
-40.027	41.944	1529.554	1380.925
-39.013	41.968	1528.203	1379.812
-37.998	41.933	1526.760	1378.217
-36.984	42.015	1525.862	1377.915
-35.969	42.064	1524.303	1376.790
-34.954	42.042	1522.641	1375.086
-33.940	42.051	1521.239	1373.821
-32.925	41.975	1520.161	1372.279
-31.911	42.061	1518.568	1371.369
-30.896	42.012	1517.382	1369.914
-29.881	42.067	1516.016	1368.999
-28.867	41.992	1514.924	1367.447
-27.852	42.030	1513.065	1365.972
-26.838	41.981	1511.775	1364.423
-25.823	41.908	1510.282	1362.522
-24.809	42.033	1507.993	1361.251
-23.794	41.934	1506.943	1359.578
-22.779	41.972	1505.856	1358.803
-21.765	42.048	1504.733	1358.251
-20.750	42.098	1503.268	1357.212
-19.736	41.951	1502.731	1355.676
-18.721	41.986	1500.954	1354.257
-17.706	41.990	1499.859	1353.242
-16.692	42.012	1498.853	1352.429
-15.677	41.883	1498.065	1350.793
-14.663	41.973	1497.009	1350.399
-13.648	41.892	1496.050	1348.932
-12.633	41.942	1495.208	1348.457
-11.619	41.896	1494.462	1347.422
-10.604	41.905	1493.195	1346.285
-9.590	41.899	1492.481	1345.545
-8.575	41.929	1491.679	1344.974
-7.560	41.894	1490.567	1343.680
-6.546	41.977	1489.456	1343.179
-5.531	41.874	1488.885	1341.926
-4.517	41.889	1488.046	1341.215
-3.502	41.929	1487.168	1340.637
-2.487	41.995	1485.745	1339.741
-1.473	41.928	1484.404	1338.035
-0.458	41.897	1483.164	1336.658
0.556	40.951	1473.408	1327.238
1.571	38.006	1446.200	1283.285
2.586	34.469	1383.928	1205.603
3.600	32.777	1301.156	1123.333
4.615	30.980	1253.137	1071.461
5.629	25.730	1193.662	991.683
6.644	12.632	1099.717	846.618
7.659	2.617	1050.601	759.310
8.673	1.109	1044.169	747.167
9.688	0.797	1041.619	743.740
10.702	0.654	1039.932	741.768
11.717	0.722	1038.183	740.790
12.731	5.135	1044.354	766.849
13.746	17.012	1061.662	838.508
14.761	23.986	1069.950	879.586
15.775	23.473	1068.339	875.652
16.790	23.151	1067.138	872.998
17.804	22.922	1066.139	870.978
18.819	22.683	1065.593	869.274
19.834	22.840	1064.734	869.272
20.848	22.835	1064.628	869.081
21.863	22.759	1064.724	868.709
22.877	23.000	1063.344	868.693
23.892	22.979	1062.515	867.834
24.907	22.711	1062.323	866.287
25.921	22.807	1061.407	865.932
26.936	22.963	1060.634	865.989
27.950	22.806	1059.451	864.177
28.965	22.813	1058.716	863.536
29.980	22.715	1056.536	861.204
30.994	22.593	1055.494	859.683
32.009	22.841	1054.569	860.062
33.023	22.965	1053.895	860.042
34.038	22.702	1053.484	858.350
35.053	22.624	1052.494	857.089
36.067	22.867	1051.848	857.666
37.082	22.867	1050.819	856.749
38.096	22.911	1050.299	856.463
39.111	23.004	1049.561	856.240
40.126	23.195	1048.193	855.968
41.140	23.039	1047.349	854.449
42.155	22.821	1046.005	852.227
43.169	22.380	1044.936	849.155
44.184	22.405	1043.875	848.334
45.199	22.551	1043.108	848.339
46.213	22.414	1041.843	846.579
47.228	22.492	1040.794	846.025
48.242	22.683	1040.165	846.354
49.257	22.800	1039.408	846.226
50.271	22.819	1038.537	845.535
51.286	22.925	1037.848	845.406
52.301	22.955	1037.108	844.872
53.315	22.867	1036.501	843.881
54.330	22.776	1036.041	842.998
55.344	22.677	1035.093	841.678
56.359	22.814	1033.975	841.350
57.374	22.834	1033.456	840.948
58.388	22.685	1032.620	839.485
59.403	22.611	1031.444	838.102
60.417	22.773	1030.940	838.388
61.432	22.574	1030.084	836.670
62.447	22.505	1029.489	835.787
63.461	22.616	1029.214	836.017
64.476	22.761	1028.082	835.709
65.490	22.587	1027.073	833.991
66.505	22.784	1025.711	833.745
67.520	22.556	1025.341	832.292
68.534	22.621	1024.759	832.054
69.549	22.696	1023.450	831.269
70.563	22.195	1022.636	828.175
71.578	22.095	1022.018	827.131
72.593	22.195	1021.166	826.839
73.607	22.052	1019.833	825.016
74.622	22.008	1019.497	824.462
75.636	22.393	1018.306	825.234
76.651	22.466	1018.064	825.307
77.666	22.367	1017.527	824.331
78.680	22.270	1015.716	822.341
79.695	22.358	1015.522	822.521
80.709	22.477	1014.896	822.495
81.724	22.564	1014.148	822.226
82.739	22.525	1013.135	821.146
83.753	22.483	1012.590	820.439
84.768	22.648	1011.775	820.473
85.782	22.955	1011.280	821.425
86.797	23.156	1010.948	822.016
87.812	23.149	1009.872	821.040
88.826	22.982	1008.600	819.158
89.841	22.963	1007.908	818.437
90.855	23.089	1007.179	818.352
91.870	23.178	1006.102	817.818
92.884	23.145	1005.450	817.061
93.899	22.994	1004.585	815.589
94.914	22.988	1003.340	814.482
95.928	22.845	1003.190	813.626
96.943	23.086	1001.853	813.581
97.957	22.824	1000.901	811.528
98.972	22.558	1000.033	809.533
99.987	22.335	998.781	807.423
101.001	22.479	998.226	807.567
102.016	22.803	997.604	808.476
103.030	22.737	996.832	807.475
104.045	22.819	995.360	806.589
105.060	22.670	994.461	805.105
106.074	22.461	993.372	803.199
107.089	22.245	992.896	801.761
108.103	22.787	992.210	803.603
109.118	22.881	991.262	803.193
110.133	22.684	990.087	801.274
111.147	22.327	989.230	798.888
112.162	22.493	987.914	798.510
113.176	22.245	987.106	796.660
114.191	22.469	986.062	796.761
115.206	22.595	985.320	796.662
116.220	22.276	983.930	794.027
117.235	22.145	982.955	792.579
118.249	22.247	982.483	792.590
119.264	22.309	981.346	791.880
120.279	22.172	981.034	790.942
121.293	22.310	980.113	790.750
122.308	22.302	979.535	790.177
123.322	22.365	978.876	789.857
124.337	22.259	977.149	787.919
125.352	22.250	976.020	786.901
126.366	21.894	974.220	783.788
127.381	21.531	972.966	781.092
128.395	21.911	973.174	782.885
129.410	22.686	972.493	785.721
130.424	22.732	972.100	785.541
131.439	22.800	970.910	784.811
132.454	22.819	969.890	784.003
133.468	22.729	969.252	783.015
134.483	22.620	968.786	782.088
135.497	22.699	967.656	781.456
136.512	23.050	966.865	782.302
137.527	22.956	966.661	781.651
138.541	23.002	965.785	781.076
139.556	23.057	964.821	780.470
140.570	23.059	963.925	779.686
141.585	23.003	962.861	778.509
142.600	23.198	961.725	778.381
143.614	23.083	961.478	777.606
144.629	23.166	960.610	777.201
145.643	23.575	959.817	778.285
146.658	23.295	959.168	776.462
147.673	23.175	957.745	774.713
148.687	23.015	956.614	773.033
149.702	22.913	955.779	771.842
150.716	22.803	954.778	770.485
151.731	22.731	953.824	769.333
152.746	22.800	953.282	769.129
153.760	22.983	952.413	769.157
154.775	23.166	951.753	769.350
155.789	23.183	950.991	768.741
156.804	23.206	949.707	767.734
157.819	23.227	948.512	766.793
158.833	23.154	947.901	765.916
159.848	23.291	947.487	766.106
160.862	23.254	946.773	765.302
161.877	23.210	945.598	764.095
162.892	23.153	944.576	762.954
163.906	23.044	944.433	762.299
164.921	23.069	943.187	761.336
165.935	23.158	941.673	760.427
166.950	23.122	941.055	759.707
167.964	23.226	939.993	759.231
168.979	23.154	939.004	758.056
169.994	23.125	937.761	756.860
171.008	22.922	936.711	755.078
172.023	23.113	935.990	755.247
173.037	23.355	935.173	755.553
174.052	22.985	934.160	753.089
175.067	22.854	932.867	751.425
176.081	22.832	932.053	750.607
177.096	23.037	931.448	750.925
178.110	22.986	930.968	750.257
179.125	22.831	929.631	748.453
180.140	22.596	928.271	746.300
181.154	22.554	927.909	745.763
182.169	22.490	927.678	745.240
183.183	22.839	927.305	746.351
184.198	23.221	926.479	747.233
185.213	23.025	926.112	746.045
186.227	23.047	925.356	745.461
187.242	23.056	924.987	745.136
188.256	23.203	924.108	744.980
189.271	23.063	923.532	743.861
190.286	23.054	922.875	743.230
191.300	23.129	921.683	742.517
192.315	22.524	920.501	738.965
193.329	21.908	918.859	735.000
194.344	21.495	917.786	732.350
195.359	21.981	917.813	734.341
196.373	22.838	918.123	738.109
197.388	22.980	918.304	738.779
198.402	22.954	917.685	738.109
199.417	22.957	916.955	737.469
200.432	23.171	916.134	737.637
201.446	22.822	915.745	735.800
202.461	22.574	914.849	733.984
203.475	22.693	914.203	733.897
204.490	22.233	912.866	730.848
205.504	21.158	910.889	724.740
206.519	21.410	910.907	725.735
207.534	22.524	910.894	730.279
208.548	22.662	910.191	730.224
209.563	22.889	910.259	731.153
210.577	23.049	909.407	731.068
211.592	22.822	908.551	729.376
212.607	23.131	908.329	730.409
213.621	23.260	907.952	730.573
214.636	23.080	907.414	729.332
215.650	23.148	907.022	729.236
216.665	23.028	906.249	728.053
217.680	23.073	905.821	727.830
218.694	23.263	905.527	728.310
219.709	22.938	904.264	725.896
220.723	22.482	903.214	723.119
221.738	22.656	903.070	723.652
222.753	23.071	902.005	724.435
223.767	22.870	901.559	723.190
224.782	23.181	900.404	723.473
225.796	23.309	900.233	723.794
226.811	23.414	899.624	723.667
227.826	22.859	898.732	720.622
228.840	22.227	896.999	716.595
229.855	22.026	896.211	715.083
230.869	22.363	895.960	716.190
231.884	21.995	895.069	713.921
232.899	22.057	894.571	713.710
233.913	22.794	894.855	716.870
234.928	22.957	894.652	717.304
235.942	23.029	893.250	716.410
236.957	23.003	892.642	715.754
237.972	22.679	891.821	713.722
238.986	22.655	891.060	712.951
240.001	22.692	890.549	712.628
241.015	22.613	890.012	711.817
242.030	22.843	889.117	711.967
243.045	22.985	888.528	712.001
244.059	22.919	888.367	711.543
245.074	23.137	887.851	711.945
246.088	23.108	887.273	711.304
247.103	22.611	886.354	708.505
248.117	22.803	885.397	708.449
249.132	23.141	885.694	709.983
250.147	23.568	885.397	711.395
251.161	23.713	884.735	711.380
252.176	23.866	884.544	711.776
253.190	23.865	883.710	711.036
254.205	23.985	883.283	711.112
255.220	24.043	883.186	711.202
256.234	24.024	882.159	710.234
257.249	23.843	881.604	709.004
258.263	23.830	880.742	708.196
259.278	23.779	880.500	707.735
260.293	23.977	879.636	707.765
261.307	24.030	879.198	707.563
262.322	23.890	878.472	706.360
263.336	23.707	877.941	705.144
264.351	23.326	876.840	702.684
265.366	22.264	874.457	696.510
266.380	21.799	873.294	693.682
267.395	22.632	873.834	697.345
268.409	23.499	873.848	700.725
269.424	23.372	873.426	699.822
270.439	23.635	872.871	700.351
271.453	23.580	872.732	699.960
272.468	23.778	871.757	699.898
273.482	23.819	871.370	699.686
274.497	23.870	871.284	699.758
275.512	23.720	870.122	698.172
276.526	23.264	868.363	694.909
277.541	23.400	867.915	695.021
278.555	23.716	868.361	696.559
279.570	23.635	867.070	695.145
280.585	23.420	866.333	693.650
281.599	23.466	865.987	693.490
282.614	23.617	865.495	693.624
283.628	23.218	864.278	691.030
284.643	22.807	864.003	689.145
285.657	23.176	863.665	690.254
286.672	23.222	862.670	689.581
287.687	22.731	861.912	687.001
288.701	22.884	862.093	687.678
289.716	23.436	861.480	689.276
290.730	23.031	861.002	687.260
291.745	22.895	860.224	686.050
292.760	22.828	859.153	684.873
293.774	22.694	858.479	683.759
294.789	23.541	858.984	687.381
295.803	24.376	859.061	690.618
296.818	24.166	858.387	689.202
297.833	24.389	857.885	689.600
298.847	24.176	856.894	687.919
299.862	23.866	856.171	686.081
300.876	23.923	855.692	685.858
301.891	24.276	854.707	686.367
302.906	24.266	854.462	686.072
303.920	23.868	853.366	683.600
304.935	23.674	852.602	682.183
305.949	24.059	852.346	683.396
306.964	24.400	851.801	684.206
307.979	23.960	851.373	682.115
308.993	23.909	850.920	681.495
310.008	24.120	850.896	682.225
311.022	24.553	849.862	682.990
312.037	24.327	849.359	681.665
313.052	24.003	848.859	679.963
314.066	23.874	848.239	678.914
315.081	23.265	846.643	675.257
316.095	22.544	845.242	671.333
317.110	23.045	845.566	673.440
318.125	23.855	846.085	676.879
319.139	23.654	844.710	674.955
320.154	22.627	842.695	669.389
321.168	21.853	842.257	666.042
322.183	22.442	842.327	668.277
323.197	23.408	842.668	672.154
324.212	23.841	842.477	673.581
325.227	23.798	841.784	672.805
326.241	24.227	841.273	673.961
327.256	23.898	841.026	672.458
328.270	23.901	840.289	671.822
329.285	23.951	839.286	671.147
330.300	23.812	838.701	670.098
331.314	23.357	838.119	667.859
332.329	23.531	837.300	667.800
333.343	23.889	837.139	668.962
334.358	24.153	836.765	669.596
335.373	24.030	836.477	668.842
336.387	24.074	835.906	668.492
337.402	24.299	835.794	669.187
338.416	24.638	834.835	669.632
339.431	24.615	834.167	668.951
340.446	24.701	833.715	668.853
341.460	24.656	833.946	668.807
342.475	24.840	832.803	668.522
343.489	24.546	832.002	666.722
344.504	24.467	831.656	666.090
345.519	24.668	831.334	666.522
346.533	24.751	831.166	666.640
347.548	25.017	830.757	667.241
348.562	25.055	829.961	666.685
349.577	24.965	829.665	666.054
350.592	24.751	829.284	664.894
351.606	24.742	828.651	664.296
352.621	24.809	828.084	664.030
353.635	24.584	827.435	662.616
354.650	24.707	826.720	662.441
355.665	24.370	825.985	660.545
356.679	23.307	824.564	655.417
357.694	23.228	823.684	654.370
358.708	23.861	823.811	656.752
359.723	23.950	823.019	656.389
360.738	24.058	823.074	656.775
361.752	24.412	822.988	657.954
362.767	24.568	822.688	658.230
363.781	24.857	822.593	659.159
364.796	24.965	822.217	659.197
365.810	25.240	821.562	659.626
366.825	25.407	821.077	659.793
367.840	25.308	820.788	659.138
368.854	25.180	820.282	658.204
369.869	24.663	819.673	655.762
370.883	24.526	819.025	654.680
371.898	24.606	818.462	654.467
372.913	24.665	817.534	653.882
373.927	24.456	816.954	652.597
374.942	24.729	816.351	653.054
375.956	24.840	815.726	652.901
376.971	24.978	815.267	652.981
377.986	25.067	814.999	653.030
379.000	25.202	814.886	653.376
380.015	25.074	814.630	652.647
381.029	25.035	813.515	651.554
382.044	24.986	812.885	650.813
383.059	25.218	812.538	651.319
384.073	25.170	811.961	650.627
385.088	25.283	811.487	650.599
386.102	25.110	811.044	649.558
387.117	25.003	810.320	648.535
388.132	24.994	809.465	647.759
389.146	24.846	808.985	646.783
390.161	24.327	807.772	643.881
391.175	24.169	807.531	643.063
392.190	24.695	808.006	645.283
393.205	24.789	807.268	644.976
394.219	24.031	805.238	640.572
395.234	22.403	803.190	633.035
396.248	21.608	801.878	629.090
397.263	22.567	802.973	633.344
398.278	24.253	804.693	640.707
399.292	24.892	804.104	642.478
400.307	24.703	803.223	641.038
401.321	24.474	803.159	640.110
402.336	24.612	802.758	640.228
403.350	24.763	803.127	641.006
404.365	25.227	802.677	642.251
405.380	25.595	802.384	643.279
406.394	25.781	802.265	643.789
407.409	25.976	801.760	644.025
408.423	25.899	801.203	643.245
409.438	25.819	800.558	642.386
410.453	25.772	800.480	642.098
411.467	25.951	799.794	642.128
412.482	25.978	798.941	641.485
413.496	25.841	798.575	640.646
414.511	25.854	798.603	640.656
415.526	25.835	798.116	640.142
416.540	25.870	797.724	639.897
417.555	25.866	797.210	639.413
418.569	25.560	796.332	637.566
419.584	25.424	796.051	636.804
420.599	25.625	795.185	636.767
421.613	91.277	1254.029	1354.328
422.628	77.928	1320.907	1354.454
