DTS Sentinel unit serial number:	SN413079Multiplexer serial number:	ORYXHardware model number:	OX4-SRSoftware version number:	ORYX F/W v4.00 Oryx Data Collector v3.7.2.0data status	okinstallation	princeton_trtdifferential loss correction	single-endedforward channel	channel 3reverse channel	N/Adate	2019/09/12time	01:50:11forward acquisition time	60.00reverse acquisition time	0.00gamma	496.2192k internal	0.2320k external	0.2320temperature offset calibration	1.0069default loss term (dB/km)	0.3790temperature slope calibration	1.0000multiplexer offset coefficient	1.0000multiplexer slope coefficient	1.0000fibre end	0.00T internal ref (°C)	32.81T ext. ref 1 (°C)	2.08T ext. ref 2 (°C)	27.43length (m)	temperature (°C)	Stokes	anti-Stokes-747.200	-46.079	0.303	0.151
-746.185	-12.150	-0.298	-0.197
-745.171	-112.260	0.396	-0.080
-744.156	-25.771	-0.183	0.109
-743.142	62.659	-0.186	-0.188
-742.127	-187.411	-0.424	0.006
-741.112	-4.003	0.383	-0.269
-740.098	88.268	-0.153	0.172
-739.083	-200.000	-0.011	-0.132
-738.069	72.833	0.177	-0.186
-737.054	-87.218	0.200	0.061
-736.039	503.477	-0.157	-0.366
-735.025	-153.684	0.081	-0.006
-734.010	-29.363	0.239	0.138
-732.996	-181.089	-0.082	0.002
-731.981	5.460	-0.186	0.138
-730.966	-200.000	0.054	-0.282
-729.952	-48.081	-0.084	0.041
-728.937	-104.110	0.018	0.004
-727.923	506.232	-0.149	-0.349
-726.908	-106.714	-0.164	-0.037
-725.894	800.000	0.045	0.167
-724.879	201.198	0.049	0.076
-723.864	26.961	-0.291	-0.246
-722.850	63.664	-0.131	0.133
-721.835	-116.586	-0.231	0.043
-720.821	-193.543	0.173	0.002
-719.806	-2.300	0.152	-0.107
-718.791	248.599	-0.182	-0.311
-717.777	-86.689	-0.085	0.026
-716.762	125.097	0.082	-0.104
-715.748	48.347	0.163	-0.154
-714.733	-153.599	0.051	-0.004
-713.718	-46.855	-0.099	0.049
-712.704	-12.279	0.093	0.061
-711.689	-200.000	-0.003	-0.182
-710.675	59.125	-0.244	0.242
-709.660	-76.421	-0.185	-0.066
-708.645	661.320	0.061	-0.158
-707.631	54.726	-0.165	0.161
-706.616	398.140	-0.090	-0.190
-705.602	54.232	0.198	-0.193
-704.587	-200.000	-0.021	-0.224
-703.572	-11.147	0.259	-0.172
-702.558	-119.521	0.143	0.025
-701.543	-88.597	-0.313	0.094
-700.529	34.398	-0.181	0.159
-699.514	-51.568	0.076	-0.036
-698.499	-137.496	-0.240	-0.027
-697.485	-120.770	0.442	-0.075
-696.470	-200.000	-0.071	-0.344
-695.456	301.136	-0.169	-0.315
-694.441	-141.702	0.436	0.044
-693.426	-14.204	-0.314	-0.204
-692.412	-113.250	-0.196	0.039
-691.397	19.038	-0.245	0.199
-690.383	-200.000	-0.001	0.114
-689.368	-41.475	-0.266	0.138
-688.354	-200.000	-0.006	0.172
-687.339	800.000	-0.023	0.069
-686.324	-200.000	-0.030	0.169
-685.310	-200.000	0.026	-0.125
-684.295	428.843	0.101	-0.221
-683.281	439.726	0.144	0.317
-682.266	-56.415	-0.290	-0.130
-681.251	-6.275	0.332	0.229
-680.237	55.565	-0.211	0.206
-679.222	534.786	-0.134	-0.322
-678.208	-172.965	-0.422	-0.013
-677.193	25.376	-0.254	0.213
-676.178	800.000	-0.059	0.175
-675.164	-200.000	-0.031	0.256
-674.149	-200.000	0.016	-0.313
-673.135	-200.000	0.002	-0.069
-672.120	-108.881	-0.225	-0.048
-671.105	314.162	0.067	-0.127
-670.091	-36.318	0.082	-0.045
-669.076	538.864	0.081	0.195
-668.062	-165.349	0.034	0.002
-667.047	688.178	-0.039	0.103
-666.032	214.938	0.076	-0.122
-665.018	74.240	0.180	-0.190
-664.003	-200.000	0.002	-0.032
-662.989	-105.489	0.085	-0.019
-661.974	59.645	0.145	-0.144
-660.959	800.000	-0.104	-0.337
-659.945	-34.235	-0.213	0.118
-658.930	-1.542	-0.147	-0.104
-657.916	110.880	-0.093	0.113
-656.901	39.651	-0.204	-0.184
-655.886	-200.000	-0.005	-0.241
-654.872	64.850	0.075	0.077
-653.857	73.785	0.057	0.060
-652.843	-200.000	-0.047	0.282
-651.828	-177.269	-0.368	-0.009
-650.814	176.992	-0.152	-0.223
-649.799	-91.556	0.070	0.020
-648.784	171.208	0.161	-0.233
-647.770	-67.978	-0.303	-0.119
-646.755	67.119	0.061	-0.063
-645.741	-16.030	-0.279	-0.179
-644.726	-200.000	-0.012	0.099
-643.711	-102.923	-0.616	-0.147
-642.697	276.960	0.248	-0.443
-641.682	-73.548	0.379	-0.139
-640.668	-7.156	0.289	0.198
-639.653	-135.671	0.274	-0.033
-638.638	-21.819	-0.213	0.131
-637.624	-93.869	-0.303	0.084
-636.609	-89.851	0.130	-0.038
-635.595	-138.302	0.318	-0.035
-634.580	-200.000	0.058	-0.279
-633.565	674.988	0.011	0.028
-632.551	108.412	-0.200	-0.241
-631.536	-145.529	-0.134	-0.012
-630.522	8.585	-0.286	-0.217
-629.507	160.551	0.155	-0.217
-628.492	-124.479	0.140	-0.022
-627.478	-129.240	0.321	-0.045
-626.463	-200.000	0.016	-0.151
-625.449	23.526	0.122	-0.101
-624.434	-59.440	0.270	-0.117
-623.419	26.438	0.109	0.092
-622.405	163.134	-0.007	-0.010
-621.390	-71.784	-0.225	-0.085
-620.376	-35.901	0.273	0.148
-619.361	27.478	-0.004	-0.004
-618.346	4.431	0.178	-0.131
-617.332	-79.433	0.387	-0.132
-616.317	760.048	0.122	-0.332
-615.303	404.705	0.050	-0.107
-614.288	79.317	0.216	-0.233
-613.273	-89.877	-0.192	0.057
-612.259	-180.266	-0.210	0.004
-611.244	-200.000	-0.035	0.308
-610.230	457.965	-0.083	-0.187
-609.215	800.000	-0.069	0.217
-608.201	-200.000	-0.039	0.293
-607.186	-200.000	0.097	0.504
-606.171	526.229	0.103	0.243
-605.157	-87.557	0.148	-0.045
-604.142	-200.000	-0.046	0.222
-603.128	86.894	0.088	-0.097
-602.113	129.228	0.128	0.165
-601.098	-107.983	0.155	0.034
-600.084	318.588	-0.087	0.165
-599.069	-58.086	0.138	0.060
-598.055	-200.000	0.019	-0.170
-597.040	100.953	-0.328	-0.384
-596.025	615.421	-0.043	0.108
-595.011	-50.852	0.225	0.106
-593.996	-200.000	0.030	0.165
-592.982	324.667	0.106	0.204
-591.967	-156.383	0.424	0.027
-590.952	143.955	-0.071	0.095
-589.938	-49.857	-0.111	0.053
-588.923	-39.549	0.217	-0.114
-587.909	464.640	-0.050	-0.113
-586.894	-121.808	-0.271	0.045
-585.879	800.000	-0.028	-0.085
-584.865	-146.531	0.081	-0.007
-583.850	156.828	0.137	-0.191
-582.836	-190.252	0.119	-0.001
-581.821	-200.000	0.010	0.301
-580.806	-67.683	-0.162	-0.064
-579.792	-46.498	-0.150	0.074
-578.777	-103.869	0.277	-0.065
-577.763	165.080	0.175	0.248
-576.748	54.534	0.114	0.110
-575.733	-200.000	0.020	0.288
-574.719	-183.554	-0.419	-0.007
-573.704	187.456	-0.091	0.137
-572.690	-54.143	-0.112	-0.051
-571.675	-148.945	0.204	-0.016
-570.661	360.757	-0.118	-0.237
-569.646	-93.406	-0.197	0.055
-568.631	-108.480	0.114	0.025
-567.617	-76.356	-0.248	-0.088
-566.602	-84.790	-0.110	0.035
-565.588	-200.000	-0.032	0.147
-564.573	102.934	-0.134	-0.157
-563.558	58.054	0.212	-0.209
-562.544	142.163	-0.221	-0.294
-561.529	386.260	0.070	0.146
-560.515	-200.000	0.009	-0.229
-559.500	255.755	-0.177	-0.305
-558.485	800.000	0.118	0.351
-557.471	-159.891	0.143	-0.008
-556.456	-200.000	0.029	-0.173
-555.442	-101.794	0.297	-0.072
-554.427	353.981	-0.190	0.378
-553.412	-200.000	-0.019	0.144
-552.398	-200.000	-0.036	0.419
-551.383	80.085	-0.198	-0.213
-550.369	-73.680	-0.114	0.042
-549.354	-47.396	-0.151	0.074
-548.339	-77.463	0.216	0.075
-547.325	-186.248	0.079	0.001
-546.310	-155.016	0.138	0.009
-545.296	735.493	0.109	-0.293
-544.281	127.426	0.163	-0.207
-543.266	290.794	0.111	0.203
-542.252	91.574	0.034	0.039
-541.237	-200.000	0.011	0.050
-540.223	-117.005	0.236	0.043
-539.208	696.828	-0.113	-0.299
-538.193	498.561	0.106	-0.245
-537.179	148.339	0.101	-0.136
-536.164	-123.022	-0.227	-0.037
-535.150	743.886	0.117	-0.316
-534.135	-146.072	-0.156	-0.014
-533.121	-200.000	0.007	0.064
-532.106	205.567	-0.118	0.184
-531.091	260.231	0.066	-0.114
-530.077	110.493	-0.052	-0.062
-529.062	-65.506	-0.026	0.010
-528.048	-142.828	-0.073	0.007
-527.033	664.627	-0.070	0.180
-526.018	190.655	0.223	0.335
-525.004	-156.631	-0.416	-0.026
-523.989	-200.000	-0.042	-0.331
-522.975	-200.000	0.001	-0.066
-521.960	-125.169	-0.187	-0.029
-520.945	800.000	0.092	0.377
-519.931	-13.531	0.102	-0.066
-518.916	416.914	0.104	0.222
-517.902	235.266	-0.026	-0.043
-516.887	-200.000	0.000	0.121
-515.872	-26.916	-0.323	0.189
-514.858	800.000	0.014	0.055
-513.843	-3.155	0.204	-0.143
-512.829	-42.955	-0.312	0.158
-511.814	10.779	0.207	0.158
-510.799	-200.000	0.005	-0.128
-509.785	155.207	-0.156	0.215
-508.770	120.101	0.189	0.235
-507.756	-24.710	0.360	0.214
-506.741	800.000	-0.072	-0.266
-505.726	-69.910	0.139	0.053
-504.712	339.118	0.092	-0.180
-503.697	32.152	-0.330	-0.285
-502.683	241.016	-0.060	0.101
-501.668	344.303	-0.304	0.598
-500.653	211.106	-0.106	-0.167
-499.639	-14.711	0.290	-0.187
-498.624	-200.000	-0.040	0.269
-497.610	-106.303	0.167	-0.037
-496.595	43.476	-0.245	0.224
-495.581	-47.780	-0.061	0.030
-494.566	-120.234	0.188	0.032
-493.551	800.000	-0.028	-0.095
-492.537	800.000	0.034	-0.112
-491.522	-103.836	-0.502	0.117
-490.508	19.130	-0.063	0.051
-489.493	53.447	-0.194	-0.187
-488.478	60.209	-0.118	0.117
-487.464	-60.899	-0.126	-0.054
-486.449	800.000	0.074	-0.220
-485.435	-116.128	0.100	0.019
-484.420	388.796	-0.011	-0.024
-483.405	-16.549	0.250	-0.158
-482.391	170.033	0.127	-0.182
-481.376	-13.301	-0.062	0.040
-480.362	275.389	-0.060	0.106
-479.347	-179.140	0.226	0.005
-478.332	569.484	0.118	0.286
-477.318	800.000	0.064	0.226
-476.303	-145.702	-0.103	0.009
-475.289	-11.071	0.138	-0.091
-474.274	-121.211	0.143	0.024
-473.259	800.000	0.092	0.348
-472.245	-63.938	-0.133	0.054
-471.230	24.927	-0.282	0.234
-470.216	50.951	0.058	0.055
-469.201	495.459	-0.107	0.246
-468.186	800.000	-0.050	0.186
-467.172	800.000	0.050	0.159
-466.157	800.000	0.100	-0.389
-465.143	71.788	-0.069	-0.072
-464.128	-72.812	-0.321	-0.118
-463.113	-139.279	-0.274	0.030
-462.099	391.997	-0.046	0.095
-461.084	62.477	0.093	-0.093
-460.070	-200.000	0.013	-0.138
-459.055	620.392	-0.077	-0.194
-458.040	-74.893	0.400	0.144
-457.026	54.173	-0.286	0.275
-456.011	-15.629	0.157	0.100
-454.997	-18.595	-0.252	0.157
-453.982	-200.000	-0.018	0.195
-452.968	-200.000	0.009	-0.235
-451.953	-109.624	0.489	0.103
-450.938	-108.102	0.433	0.094
-449.924	-64.776	-0.165	-0.067
-448.909	6.481	0.299	-0.222
-447.895	-187.101	0.240	-0.003
-446.880	4.073	-0.198	-0.145
-445.865	166.775	0.047	0.067
-444.851	153.924	-0.090	-0.124
-443.836	345.371	0.034	0.067
-442.822	-200.000	-0.050	-0.272
-441.807	75.070	-0.116	-0.122
-440.792	272.472	0.043	-0.077
-439.778	-141.258	-0.159	0.016
-438.763	-156.646	-0.432	0.027
-437.749	-200.000	0.004	-0.103
-436.734	-134.569	-0.033	0.004
-435.719	-148.607	-0.249	0.020
-434.705	-32.250	0.083	-0.047
-433.690	55.237	0.153	0.148
-432.676	-77.682	-0.104	0.036
-431.661	188.730	-0.220	-0.329
-430.646	-200.000	0.076	-0.550
-429.632	-200.000	0.012	0.140
-428.617	-29.610	-0.412	-0.235
-427.603	-78.663	0.312	-0.107
-426.588	-200.000	-0.025	0.201
-425.573	-85.685	0.129	0.040
-424.559	-200.000	-0.044	-0.249
-423.544	144.903	0.082	0.110
-422.530	-200.000	-0.002	0.320
-421.515	146.701	-0.210	-0.281
-420.500	62.420	0.135	-0.135
-419.486	54.245	0.153	0.147
-418.471	-200.000	-0.011	-0.127
-417.457	205.199	-0.028	0.044
-416.442	20.452	-0.252	0.203
-415.428	800.000	0.155	0.493
-414.413	26.946	0.150	0.125
-413.398	-76.274	-0.158	0.055
-412.384	27.776	0.255	0.214
-411.369	-98.118	-0.304	0.078
-410.355	345.334	-0.092	0.180
-409.340	-124.480	0.333	-0.052
-408.325	73.893	-0.133	0.139
-407.311	174.551	0.111	-0.160
-406.296	-200.000	-0.020	-0.130
-405.282	-83.246	0.287	-0.092
-404.267	213.528	0.066	0.104
-403.252	-33.928	0.143	-0.079
-402.238	-24.841	0.061	-0.036
-401.223	281.403	-0.053	0.095
-400.209	-29.373	0.315	-0.180
-399.194	172.739	0.057	-0.082
-398.179	-1.644	-0.238	-0.167
-397.165	-37.837	0.151	-0.080
-396.150	-89.269	-0.069	-0.020
-395.136	19.305	-0.307	-0.246
-394.121	-87.790	-0.059	0.018
-393.106	-23.191	0.235	0.141
-392.092	800.000	-0.013	-0.053
-391.077	20.378	-0.095	0.077
-390.063	233.268	-0.148	0.242
-389.048	154.560	-0.062	0.085
-388.033	-43.585	-0.166	0.084
-387.019	-20.733	-0.105	0.064
-386.004	-200.000	0.044	0.201
-384.990	385.318	0.079	-0.163
-383.975	-26.493	0.113	0.066
-382.960	252.151	-0.144	0.245
-381.946	-34.469	0.049	0.027
-380.931	-34.060	-0.235	0.129
-379.917	165.278	0.105	-0.148
-378.902	-85.454	-0.202	-0.063
-377.888	170.228	0.107	-0.153
-376.873	-110.098	0.130	-0.027
-375.858	-141.591	0.069	-0.007
-374.844	-120.716	-0.543	-0.092
-373.829	-135.599	-0.128	-0.015
-372.815	-141.235	-0.349	0.035
-371.800	58.307	0.192	-0.187
-370.785	386.063	0.061	0.126
-369.771	337.314	-0.037	0.071
-368.756	-28.817	0.242	0.138
-367.742	-200.000	-0.018	0.181
-366.727	-80.948	-0.349	-0.115
-365.712	800.000	-0.043	0.152
-364.698	-3.820	-0.334	-0.231
-363.683	231.525	-0.075	0.123
-362.669	6.211	0.047	0.035
-361.654	304.612	-0.220	0.406
-360.639	800.000	0.016	-0.062
-359.625	53.158	-0.114	-0.109
-358.610	37.687	0.216	-0.191
-357.596	110.844	-0.328	-0.393
-356.581	19.255	-0.080	0.064
-355.566	-55.124	-0.105	-0.047
-354.552	336.068	0.059	-0.115
-353.537	800.000	0.040	0.121
-352.523	-200.000	0.100	0.435
-351.508	349.326	0.075	-0.147
-350.493	181.565	0.047	-0.068
-349.479	-200.000	-0.016	0.119
-348.464	800.000	-0.097	0.308
-347.450	-60.258	0.152	-0.064
-346.435	-200.000	-0.003	-0.209
-345.420	-84.071	0.219	0.069
-344.406	197.438	0.023	-0.034
-343.391	-200.000	-0.264	0.000
-342.377	-18.565	-0.169	-0.105
-341.362	29.292	0.068	0.057
-340.348	-100.987	-0.268	0.065
-339.333	335.902	0.069	-0.133
-338.318	167.961	-0.095	0.134
-337.304	-200.000	0.007	0.218
-336.289	313.764	0.123	0.231
-335.275	-126.264	-0.136	0.020
-334.260	-83.865	0.078	0.025
-333.245	-109.416	0.149	-0.031
-332.231	409.294	-0.084	-0.177
-331.216	398.478	0.124	-0.258
-330.202	-28.595	0.318	-0.182
-329.187	-19.768	0.220	0.135
-328.172	-114.508	-0.291	0.056
-327.158	-74.957	0.376	0.134
-326.143	-118.410	0.370	0.065
-325.129	515.360	-0.025	0.059
-324.114	-54.423	-0.139	0.063
-323.099	32.447	-0.153	0.131
-322.085	-117.769	-0.315	-0.056
-321.070	-200.000	-0.027	-0.214
-320.056	800.000	0.108	-0.335
-319.041	-86.739	-0.337	-0.102
-318.026	303.544	0.022	-0.040
-317.012	324.747	-0.134	0.255
-315.997	-84.792	-0.335	-0.105
-314.983	463.823	0.071	-0.157
-313.968	-130.192	-0.098	-0.013
-312.953	211.523	-0.264	-0.413
-311.939	366.116	0.100	-0.200
-310.924	180.659	-0.118	-0.172
-309.910	-200.000	0.003	0.308
-308.895	-30.201	0.249	0.140
-307.880	-200.000	-0.024	-0.263
-306.866	99.835	0.056	-0.065
-305.851	800.000	-0.172	-0.494
-304.837	20.914	0.151	0.121
-303.822	-66.511	0.142	0.056
-302.807	-74.539	-0.289	0.103
-301.793	800.000	0.054	0.192
-300.778	-142.215	-0.024	-0.002
-299.764	-118.925	-0.243	0.042
-298.749	-94.608	-0.240	-0.065
-297.735	-59.729	0.059	-0.025
-296.720	-27.436	-0.061	0.035
-295.705	-90.280	-0.166	-0.048
-294.691	209.104	-0.066	-0.103
-293.676	56.446	-0.104	0.101
-292.662	31.491	-0.152	-0.129
-291.647	753.859	-0.052	0.138
-290.632	-104.376	0.225	0.052
-289.618	208.881	-0.141	0.220
-288.603	-152.491	0.252	0.018
-287.589	-47.589	0.152	0.074
-286.574	69.309	-0.053	0.054
-285.559	-200.000	0.002	-0.073
-284.545	471.881	-0.094	-0.210
-283.530	36.378	-0.042	0.037
-282.516	-200.000	-0.001	-0.176
-281.501	256.053	-0.130	-0.221
-280.486	-10.520	-0.225	-0.148
-279.472	637.626	0.067	-0.168
-278.457	800.000	-0.078	0.269
-277.443	43.163	0.050	0.045
-276.428	-51.258	0.376	-0.175
-275.413	-200.000	-0.011	0.136
-274.399	-79.892	0.261	0.087
-273.384	-200.000	0.102	-0.000
-272.370	-200.000	0.010	-0.204
-271.355	-104.081	-0.368	-0.085
-270.340	-139.565	0.340	0.036
-269.326	-8.926	-0.089	0.059
-268.311	602.316	0.058	0.143
-267.297	22.101	0.227	-0.184
-266.282	3.112	0.107	-0.077
-265.267	427.087	0.081	0.173
-264.253	52.024	-0.077	-0.073
-263.238	11.876	0.128	0.098
-262.224	63.861	-0.079	-0.079
-261.209	4.732	0.319	-0.233
-260.195	38.964	0.355	-0.315
-259.180	13.800	-0.149	-0.115
-258.165	-200.000	0.003	0.150
-257.151	-200.000	-0.008	0.074
-256.136	-93.968	0.204	-0.056
-255.122	60.937	0.074	-0.073
-254.107	736.041	0.102	-0.272
-253.092	-200.000	-0.003	-0.167
-252.078	143.397	0.212	-0.280
-251.063	-103.058	-0.081	0.019
-250.049	800.000	-0.025	-0.094
-249.034	139.065	0.070	-0.092
-248.019	-113.044	0.194	0.038
-247.005	-119.949	-0.145	-0.025
-245.990	294.066	0.034	-0.062
-244.976	-118.889	0.237	0.041
-243.961	-177.866	0.188	0.004
-242.946	-92.094	-0.020	0.006
-241.932	-149.019	0.100	-0.008
-240.917	-93.607	0.138	-0.038
-239.903	-59.971	0.224	0.095
-238.888	73.816	0.259	0.270
-237.873	31.022	-0.195	0.166
-236.859	-200.000	-0.000	-0.219
-235.844	-200.000	-0.013	-0.068
-234.830	-15.717	-0.195	0.123
-233.815	56.608	-0.097	0.093
-232.800	-61.535	0.239	-0.099
-231.786	485.609	-0.013	0.030
-230.771	-200.000	-0.022	0.145
-229.757	800.000	0.034	0.131
-228.742	-86.213	0.189	0.058
-227.727	-38.535	0.277	0.145
-226.713	-155.372	-0.395	-0.025
-225.698	-127.760	0.228	-0.033
-224.684	800.000	0.027	0.114
-223.669	-200.000	-0.021	-0.142
-222.655	-200.000	-0.088	0.392
-221.640	-200.000	0.051	0.304
-220.625	135.562	-0.138	0.178
-219.611	-37.714	0.399	0.211
-218.596	262.427	0.071	-0.121
-217.582	32.798	0.117	0.100
-216.567	142.930	0.143	-0.189
-215.552	82.187	-0.168	0.180
-214.538	800.000	-0.027	-0.105
-213.523	-200.000	0.067	-0.323
-212.509	6.206	-0.227	0.167
-211.494	381.681	0.047	-0.096
-210.479	-107.341	0.236	-0.051
-209.465	129.899	-0.128	0.163
-208.450	183.367	-0.106	0.155
-207.436	15.913	0.080	0.063
-206.421	133.613	0.060	-0.077
-205.406	95.306	-0.166	0.188
-204.392	-100.182	0.421	0.104
-203.377	-200.000	-0.082	0.421
-202.363	-142.388	-0.089	-0.009
-201.348	-138.128	-0.158	0.017
-200.333	215.184	0.101	-0.158
-199.319	456.945	0.107	-0.235
-198.304	91.228	0.099	-0.110
-197.290	110.195	-0.199	-0.236
-196.275	422.057	0.050	-0.107
-195.260	31.772	-0.199	-0.169
-194.246	255.163	0.067	0.114
-193.231	-14.672	-0.095	-0.060
-192.217	-200.000	-0.027	0.148
-191.202	256.502	-0.033	0.056
-190.187	800.000	-0.107	-0.311
-189.173	-200.000	0.033	0.181
-188.158	-154.218	-0.188	0.013
-187.144	295.796	0.284	0.515
-186.129	800.000	-0.039	0.113
-185.114	800.000	-0.128	-0.374
-184.100	-16.945	0.151	0.094
-183.085	56.914	-0.083	0.080
-182.071	-11.444	-0.339	0.220
-181.056	-110.684	0.334	0.068
-180.042	-42.967	-0.182	-0.091
-179.027	628.729	0.185	-0.462
-178.012	99.767	-0.088	0.101
-176.998	-200.000	-0.060	0.400
-175.983	800.000	0.052	-0.187
-174.969	-111.727	-0.207	0.042
-173.954	-104.905	-0.135	-0.031
-172.939	27.399	-0.087	-0.072
-171.925	-32.430	0.109	0.060
-170.910	-17.012	0.158	0.099
-169.896	800.000	0.142	-0.448
-168.881	-35.246	0.192	-0.103
-167.866	-130.117	-0.444	0.060
-166.852	792.151	-0.060	-0.162
-165.837	-200.000	0.007	0.176
-164.823	-161.105	-0.336	-0.017
-163.808	115.473	-0.027	-0.032
-162.793	-200.000	0.008	-0.151
-161.779	-77.145	-0.227	-0.078
-160.764	-166.134	-0.279	-0.012
-159.750	-90.110	0.193	-0.055
-158.735	800.000	0.016	-0.067
-157.720	341.109	0.111	-0.214
-156.706	594.952	-0.018	-0.043
-155.691	-200.000	0.013	0.371
-154.677	-200.000	-0.025	0.193
-153.662	382.940	-0.182	0.369
-152.647	109.875	-0.114	0.136
-151.633	190.453	0.080	-0.119
-150.618	701.845	0.057	-0.149
-149.604	800.000	0.022	-0.089
-148.589	11.793	0.160	-0.121
-147.574	-124.283	0.028	-0.004
-146.560	-169.196	0.361	0.013
-145.545	145.990	-0.011	0.015
-144.531	800.000	-0.128	0.371
-143.516	571.084	0.059	-0.142
-142.502	800.000	0.043	0.117
-141.487	-29.118	0.192	0.109
-140.472	-164.216	0.238	0.011
-139.458	401.139	0.095	0.196
-138.443	89.390	-0.067	-0.074
-137.429	67.662	-0.152	0.154
-136.414	-5.792	0.351	0.237
-135.399	27.300	0.131	-0.109
-134.385	-54.949	0.400	-0.178
-133.370	261.956	0.065	0.111
-132.356	-200.000	0.016	0.072
-131.341	-3.168	-0.247	-0.170
-130.326	9.035	-0.067	-0.050
-129.312	9.979	-0.027	0.020
-128.297	-48.631	0.124	-0.059
-127.283	-44.594	0.292	-0.144
-126.268	800.000	0.107	-0.394
-125.253	800.000	-0.035	-0.142
-124.239	-106.782	-0.165	-0.036
-123.224	59.194	0.104	-0.101
-122.210	375.967	-0.140	0.283
-121.195	800.000	-0.043	0.160
-120.180	30.695	0.260	-0.219
-119.166	10.328	-0.056	-0.042
-118.151	-162.847	0.135	-0.007
-117.137	800.000	-0.056	0.194
-116.122	103.254	0.365	-0.422
-115.107	117.003	-0.087	0.105
-114.093	-109.301	-0.328	0.069
-113.078	81.399	-0.238	-0.254
-112.064	225.591	0.017	0.027
-111.049	-200.000	-0.038	0.300
-110.034	-200.000	0.005	0.075
-109.020	-86.721	-0.174	-0.053
-108.005	-127.856	0.138	-0.020
-106.991	800.000	0.112	-0.389
-105.976	107.322	0.252	0.296
-104.962	27.136	0.113	-0.093
-103.947	-42.015	0.178	0.090
-102.932	365.639	-0.072	-0.144
-101.918	-12.924	0.150	-0.096
-100.903	800.000	-0.155	-0.438
-99.889	241.383	-0.093	0.154
-98.874	37.250	-0.103	0.090
-97.859	-41.074	0.269	-0.137
-96.845	800.000	-0.014	0.056
-95.830	-145.873	0.123	-0.011
-94.816	-44.745	-0.121	0.059
-93.801	-101.111	0.353	0.085
-92.786	-200.000	-0.019	0.218
-91.772	706.225	0.060	-0.155
-90.757	-41.136	0.181	-0.092
-89.743	-90.283	0.243	0.070
-88.728	-157.996	-0.105	-0.006
-87.713	212.409	-0.148	-0.230
-86.699	-136.219	0.291	0.033
-85.684	-107.548	-0.055	0.012
-84.670	-40.574	-0.250	0.128
-83.655	464.223	0.045	-0.099
-82.640	-94.127	-0.232	0.063
-81.626	-200.000	0.036	-0.242
-80.611	800.000	-0.037	0.153
-79.597	116.106	0.209	-0.252
-78.582	-200.000	0.001	0.370
-77.567	469.170	-0.040	0.089
-76.553	800.000	-0.024	0.104
-75.538	-11.158	0.070	-0.046
-74.524	627.343	-0.067	0.167
-73.509	-94.527	0.250	-0.067
-72.494	-110.059	0.257	-0.053
-71.480	-200.000	0.000	0.164
-70.465	419.450	0.055	-0.116
-69.451	37.488	0.114	-0.100
-68.436	106.121	0.139	0.162
-67.422	-93.797	-0.086	-0.023
-66.407	-77.360	-0.443	-0.151
-65.392	800.000	-0.010	0.039
-64.378	23.257	0.198	-0.160
-63.363	-200.000	0.005	0.301
-62.349	-180.620	-0.236	-0.005
-61.334	-19.149	-1.067	-0.653
-60.319	232.172	0.339	0.547
-59.305	-200.000	0.023	-1.281
-58.290	327.317	0.576	1.087
-57.276	800.000	0.580	1.856
-56.261	-200.000	96.528	574.883
-55.246	553.147	1376.722	3256.426
-54.232	160.527	2551.459	3503.874
-53.217	111.037	2161.652	2561.625
-52.203	43.141	1707.279	1533.224
-51.188	36.099	1520.116	1317.181
-50.173	33.723	1493.009	1277.669
-49.159	52.400	1542.296	1448.084
-48.144	54.246	1560.315	1477.593
-47.130	36.200	1519.888	1317.462
-46.115	33.111	1505.117	1283.665
-45.100	33.099	1501.031	1280.055
-44.086	32.889	1499.978	1277.681
-43.071	32.810	1498.103	1275.497
-42.057	32.953	1496.045	1274.665
-41.042	33.004	1494.365	1273.527
-40.027	32.915	1493.164	1271.852
-39.013	32.796	1491.961	1269.974
-37.998	32.663	1491.041	1268.246
-36.984	32.819	1489.668	1268.074
-35.969	32.808	1488.496	1266.953
-34.954	32.817	1486.759	1265.486
-33.940	32.887	1485.488	1264.826
-32.925	32.840	1484.334	1263.474
-31.911	32.933	1482.406	1262.405
-30.896	32.942	1481.320	1261.488
-29.881	32.926	1479.689	1259.946
-28.867	32.931	1478.516	1258.928
-27.852	32.886	1476.921	1257.225
-26.838	32.891	1475.713	1256.176
-25.823	32.849	1474.343	1254.680
-24.809	32.843	1472.359	1252.903
-23.794	32.896	1470.820	1251.894
-22.779	32.830	1469.825	1250.566
-21.765	32.857	1468.913	1249.918
-20.750	32.870	1468.136	1249.293
-19.736	32.871	1466.794	1248.108
-18.721	32.837	1465.410	1246.656
-17.706	32.757	1464.412	1245.229
-16.692	32.769	1463.425	1244.417
-15.677	32.793	1462.368	1243.630
-14.663	32.796	1461.408	1242.784
-13.648	32.756	1460.480	1241.679
-12.633	32.733	1459.859	1240.952
-11.619	32.790	1459.215	1240.732
-10.604	32.686	1458.011	1238.972
-9.590	32.720	1457.290	1238.538
-8.575	32.788	1455.935	1237.782
-7.560	32.825	1454.840	1237.042
-6.546	32.757	1454.659	1236.394
-5.531	32.689	1453.877	1235.234
-4.517	32.709	1452.627	1234.258
-3.502	32.857	1451.312	1234.055
-2.487	32.846	1450.223	1233.012
-1.473	32.788	1449.384	1231.870
-0.458	32.851	1448.286	1231.300
0.556	33.357	1438.776	1219.916
1.571	30.490	1414.909	1181.376
2.586	27.216	1362.489	1117.423
3.600	25.661	1285.563	1045.212
4.615	24.262	1237.413	998.153
5.629	20.644	1179.345	931.882
6.644	11.024	1092.248	815.026
7.659	3.363	1050.344	746.677
8.673	2.288	1045.037	737.654
9.688	2.077	1041.264	733.909
10.702	1.981	1039.719	732.296
11.717	1.984	1037.999	731.033
12.731	5.643	1042.262	751.552
13.746	15.471	1055.824	808.828
14.761	23.098	1065.963	853.478
15.775	25.204	1067.336	864.665
16.790	25.350	1067.444	865.377
17.804	25.016	1067.494	863.732
18.819	25.056	1065.542	862.267
19.834	25.158	1065.325	862.507
20.848	25.349	1064.862	862.977
21.863	25.435	1064.393	862.933
22.877	25.476	1064.057	862.782
23.892	25.361	1063.202	861.459
24.907	25.234	1062.751	860.409
25.921	25.209	1062.358	859.895
26.936	25.287	1061.389	859.406
27.950	25.173	1060.147	857.781
28.965	25.099	1059.304	856.668
29.980	25.084	1057.215	854.832
30.994	25.032	1056.007	853.532
32.009	25.244	1055.596	854.130
33.023	25.451	1054.784	854.384
34.038	25.228	1053.761	852.420
35.053	25.191	1053.049	851.595
36.067	25.299	1052.408	851.514
37.082	25.242	1051.644	850.547
38.096	25.313	1050.939	850.241
39.111	25.490	1050.111	850.331
40.126	25.594	1049.153	849.972
41.140	25.442	1048.133	848.354
42.155	25.327	1046.367	846.306
43.169	24.976	1045.058	843.520
44.184	24.924	1044.411	842.677
45.199	25.021	1043.853	842.612
46.213	24.832	1042.878	840.861
47.228	24.851	1042.046	840.204
48.242	25.039	1040.955	840.131
49.257	25.152	1040.623	840.320
50.271	25.164	1039.782	839.621
51.286	25.308	1038.893	839.506
52.301	25.328	1038.486	839.193
53.315	25.483	1037.471	839.026
54.330	25.291	1037.257	837.878
55.344	25.230	1036.396	836.826
56.359	25.185	1035.669	835.953
57.374	25.287	1034.719	835.589
58.388	25.217	1033.617	834.301
59.403	25.077	1033.079	833.139
60.417	25.146	1032.340	832.791
61.432	24.865	1031.737	830.929
62.447	24.941	1030.902	830.532
63.461	25.160	1030.220	830.923
64.476	25.140	1029.934	830.530
65.490	25.035	1028.579	828.876
66.505	24.852	1027.707	827.256
67.520	24.998	1027.030	827.312
68.534	25.186	1026.191	827.428
69.549	24.939	1025.317	825.515
70.563	24.566	1024.173	822.802
71.578	24.595	1022.876	821.822
72.593	24.504	1022.689	821.180
73.607	24.419	1021.104	819.444
74.622	24.470	1020.346	818.997
75.636	24.652	1019.717	819.253
76.651	25.020	1019.347	820.571
77.666	24.698	1018.445	818.298
78.680	24.745	1017.083	817.346
79.695	24.620	1017.095	816.709
80.709	24.810	1016.082	816.692
81.724	24.937	1015.007	816.338
82.739	24.798	1014.404	815.147
83.753	24.761	1013.953	814.542
84.768	25.155	1013.012	815.505
85.782	25.513	1012.571	816.704
86.797	25.753	1011.625	816.961
87.812	25.665	1010.786	815.809
88.826	25.499	1009.761	814.161
89.841	25.459	1009.575	813.759
90.855	25.630	1008.767	813.808
91.870	25.565	1008.000	812.822
92.884	25.579	1007.292	812.244
93.899	25.485	1005.694	810.459
94.914	25.409	1004.833	809.352
95.928	25.432	1004.402	809.034
96.943	25.529	1003.462	808.641
97.957	25.143	1002.343	805.936
98.972	25.002	1001.210	804.318
99.987	24.845	1000.027	802.594
101.001	24.884	999.655	802.399
102.016	25.138	999.393	803.255
103.030	25.238	998.426	802.858
104.045	25.115	997.387	801.400
105.060	24.990	996.405	799.981
106.074	24.902	995.014	798.399
107.089	24.846	994.128	797.370
108.103	25.217	994.149	798.967
109.118	25.283	993.444	798.625
110.133	24.975	992.054	796.068
111.147	25.150	990.744	795.721
112.162	24.973	989.768	794.086
113.176	24.638	988.429	791.455
114.191	24.825	987.921	791.810
115.206	24.982	987.173	791.833
116.220	24.679	985.930	789.426
117.235	24.477	985.554	788.166
118.249	24.618	984.700	788.035
119.264	24.783	983.709	787.897
120.279	24.553	982.789	786.081
121.293	24.600	981.969	785.559
122.308	24.825	980.974	785.682
123.322	24.616	980.920	784.654
124.337	24.635	979.597	783.607
125.352	24.604	977.831	781.992
126.366	24.180	976.580	779.069
127.381	23.866	975.355	776.650
128.395	24.380	975.433	778.886
129.410	25.004	975.327	781.459
130.424	25.138	974.495	781.303
131.439	25.234	973.314	780.706
132.454	25.065	972.455	779.215
133.468	25.153	971.541	778.797
134.483	25.119	970.762	777.954
135.497	25.102	970.295	777.436
136.512	25.345	969.456	777.748
137.527	25.496	968.715	777.740
138.541	25.431	967.360	776.302
139.556	25.539	967.134	776.520
140.570	25.494	966.345	775.622
141.585	25.453	965.935	775.049
142.600	25.549	964.890	774.554
143.614	25.498	963.611	773.238
144.629	25.691	963.000	773.511
145.643	25.719	962.870	773.456
146.658	25.642	961.558	772.006
147.673	25.391	960.584	770.077
148.687	25.350	959.663	769.095
149.702	25.358	958.377	768.033
150.716	25.185	957.590	766.594
151.731	25.268	956.044	765.644
152.746	25.210	955.859	765.180
153.760	25.380	955.684	765.695
154.775	25.592	954.600	765.663
155.789	25.542	953.939	764.853
156.804	25.523	953.103	764.031
157.819	25.459	951.694	762.565
158.833	25.511	951.262	762.371
159.848	25.730	950.351	762.502
160.862	25.702	950.362	762.324
161.877	25.562	948.964	760.542
162.892	25.651	947.619	759.772
163.906	25.543	947.404	759.079
164.921	25.653	945.972	758.329
165.935	25.463	945.033	756.708
166.950	25.594	944.517	756.778
167.964	25.676	942.952	755.802
168.979	25.654	942.072	754.940
169.994	25.437	941.380	753.407
171.008	25.406	940.323	752.363
172.023	25.396	939.830	751.862
173.037	25.712	938.960	752.420
174.052	25.348	938.234	750.252
175.067	25.416	936.448	749.040
176.081	25.278	935.810	747.891
177.096	25.410	935.108	747.811
178.110	25.472	934.239	747.307
179.125	25.274	933.245	745.625
180.140	24.913	932.464	743.435
181.154	24.873	931.854	742.718
182.169	25.076	931.442	743.164
183.183	25.274	931.251	743.767
184.198	25.560	930.596	744.363
185.213	25.428	929.968	743.249
186.227	25.383	929.320	742.479
187.242	25.548	928.904	742.761
188.256	25.595	928.137	742.279
189.271	25.802	926.670	741.893
190.286	25.661	926.532	741.135
191.300	25.635	925.389	740.047
192.315	24.967	924.274	736.345
193.329	24.273	922.531	732.044
194.344	23.878	921.393	729.454
195.359	24.425	921.973	732.093
196.373	25.310	922.087	735.751
197.388	25.583	921.935	736.680
198.402	25.406	921.292	735.377
199.417	25.424	920.979	735.135
200.432	25.425	920.359	734.580
201.446	25.347	919.294	733.345
202.461	25.065	918.627	731.597
203.475	25.169	918.244	731.653
204.490	24.719	916.837	728.634
205.504	23.654	914.283	722.211
206.519	23.963	914.481	723.558
207.534	24.818	915.368	727.675
208.548	25.036	914.328	727.670
209.563	25.432	914.449	729.310
210.577	25.412	913.468	728.381
211.592	25.152	912.717	726.667
212.607	25.546	912.754	728.228
213.621	25.671	911.822	727.925
214.636	25.562	911.262	726.972
215.650	25.664	910.910	727.039
216.665	25.542	910.619	726.251
217.680	25.523	910.094	725.690
218.694	25.670	909.682	725.890
219.709	25.347	908.429	723.525
220.723	25.074	907.389	721.536
221.738	25.225	907.304	722.012
222.753	25.446	906.361	722.083
223.767	25.484	905.460	721.458
224.782	25.491	904.954	721.015
225.796	25.811	904.614	721.963
226.811	25.837	903.995	721.511
227.826	25.264	902.872	718.259
228.840	24.524	901.172	713.887
229.855	24.518	900.474	713.244
230.869	24.805	900.423	714.288
231.884	24.538	899.243	712.225
232.899	24.540	898.759	711.785
233.913	25.276	898.761	714.654
234.928	25.484	898.648	715.329
235.942	25.284	898.151	714.077
236.957	25.377	897.305	713.712
237.972	25.161	896.029	711.774
238.986	24.977	895.732	710.746
240.001	25.163	894.974	710.820
241.015	25.157	894.244	710.152
242.030	25.282	893.769	710.205
243.045	25.466	893.356	710.546
244.059	25.209	893.589	709.651
245.074	25.618	892.622	710.434
246.088	25.520	891.889	709.401
247.103	25.225	890.962	707.438
248.117	25.288	890.097	706.936
249.132	25.792	890.444	709.134
250.147	26.104	890.180	710.091
251.161	26.227	889.581	710.035
252.176	26.342	889.298	710.198
253.190	26.322	888.480	709.404
254.205	26.555	887.792	709.704
255.220	26.403	888.015	709.223
256.234	26.596	887.039	709.137
257.249	26.361	886.379	707.626
258.263	26.269	885.904	706.825
259.278	26.229	885.690	706.435
260.293	26.474	884.650	706.499
261.307	26.459	884.064	705.910
262.322	26.406	883.422	705.127
263.336	26.276	882.474	703.803
264.351	25.711	881.247	700.566
265.366	24.669	879.383	694.971
266.380	24.267	878.222	692.433
267.395	25.196	878.812	696.444
268.409	25.838	878.802	698.866
269.424	25.880	878.290	698.559
270.439	26.027	878.013	698.846
271.453	26.072	877.242	698.348
272.468	26.279	876.322	698.352
273.482	26.211	876.552	698.211
274.497	26.435	875.961	698.544
275.512	26.277	874.684	696.854
276.526	25.630	873.743	693.551
277.541	25.838	873.274	693.918
278.555	26.308	873.164	695.579
279.570	25.986	872.435	693.697
280.585	25.940	871.242	692.509
281.599	25.959	871.256	692.534
282.614	25.948	871.071	692.283
283.628	25.805	869.251	690.227
284.643	25.376	868.433	687.875
285.657	25.727	868.605	689.292
286.672	25.599	867.652	687.986
287.687	25.154	867.164	685.839
288.701	25.485	866.831	686.779
289.716	26.005	866.634	688.547
290.730	25.503	865.755	685.872
291.745	25.296	865.068	684.479
292.760	25.273	863.609	683.176
293.774	25.215	863.083	682.480
294.789	26.048	864.055	686.358
295.803	26.747	864.272	689.128
296.818	26.564	863.800	687.994
297.833	26.655	863.385	687.949
298.847	26.517	861.997	686.261
299.862	26.323	860.988	684.660
300.876	26.490	860.477	684.826
301.891	26.674	860.543	685.513
302.906	26.779	859.730	685.202
303.920	26.295	858.520	682.349
304.935	26.265	858.122	681.859
305.949	26.576	858.138	682.985
306.964	26.733	857.312	682.862
307.979	26.635	856.444	681.741
308.993	26.385	856.296	680.619
310.008	26.650	856.077	681.381
311.022	26.859	855.311	681.499
312.037	26.611	854.984	680.246
313.052	26.600	853.964	679.331
314.066	26.426	853.254	678.056
315.081	25.550	851.998	673.717
316.095	24.954	850.555	670.287
317.110	25.447	850.994	672.421
318.125	26.126	851.419	675.235
319.139	26.064	849.949	673.781
320.154	24.954	847.884	667.944
321.168	24.282	847.372	664.977
322.183	24.939	847.663	667.596
323.197	25.794	848.496	671.385
324.212	26.097	847.973	672.037
325.227	26.226	847.661	672.211
326.241	26.545	847.101	672.893
327.256	26.426	846.563	671.965
328.270	26.311	845.645	670.749
329.285	26.256	844.589	669.649
330.300	26.041	844.240	668.518
331.314	25.942	843.342	667.381
332.329	25.704	842.881	666.076
333.343	26.353	842.696	668.270
334.358	26.551	842.699	668.947
335.373	26.480	841.978	668.051
336.387	26.790	841.001	668.361
337.402	26.814	840.968	668.363
338.416	27.063	840.504	668.854
339.431	27.017	840.002	668.224
340.446	27.008	839.513	667.745
341.460	27.124	839.278	667.925
342.475	27.087	838.583	667.177
343.489	26.980	837.877	666.163
344.504	26.866	837.375	665.284
345.519	27.262	836.695	666.136
346.533	27.420	836.701	666.662
347.548	27.461	836.265	666.407
348.562	27.569	835.782	666.358
349.577	27.391	835.065	665.075
350.592	27.119	834.448	663.533
351.606	27.327	834.060	663.926
352.621	27.303	833.519	663.347
353.635	27.221	833.272	662.793
354.650	27.242	832.261	662.008
355.665	26.754	831.666	659.699
356.679	25.917	829.509	654.889
357.694	25.830	829.079	654.177
358.708	26.315	829.102	655.900
359.723	26.320	828.564	655.434
360.738	26.604	828.166	656.090
361.752	26.947	828.268	657.354
362.767	27.087	828.168	657.725
363.781	27.308	828.070	658.387
364.796	27.696	827.691	659.433
365.810	27.868	826.979	659.427
366.825	27.879	826.907	659.351
367.840	27.729	826.545	658.462
368.854	27.693	825.941	657.794
369.869	27.245	824.792	655.207
370.883	27.023	824.324	653.978
371.898	27.197	823.858	654.175
372.913	27.017	823.170	652.923
373.927	27.019	822.375	652.244
374.942	27.182	821.945	652.431
375.956	27.308	821.430	652.415
376.971	27.503	820.656	652.443
377.986	27.551	820.478	652.413
379.000	27.706	820.214	652.700
380.015	27.739	819.663	652.322
381.029	27.605	819.174	651.397
382.044	27.597	818.176	650.516
383.059	27.466	817.870	649.750
384.073	27.700	817.124	649.933
385.088	27.629	816.861	649.412
386.102	27.686	816.256	649.079
387.117	27.409	815.752	647.635
388.132	27.418	815.161	647.139
389.146	27.158	814.494	645.630
390.161	26.625	813.342	642.768
391.175	26.643	813.131	642.606
392.190	27.341	813.040	644.956
393.205	27.251	812.401	644.070
394.219	26.375	810.731	639.592
395.234	24.660	808.807	631.961
396.248	23.940	807.688	628.488
397.263	25.116	808.028	632.849
398.278	26.758	809.933	640.089
399.292	27.172	809.673	641.289
400.307	26.796	808.952	639.336
401.321	26.898	808.541	639.313
402.336	26.853	808.377	638.968
403.350	27.370	808.214	640.605
404.365	27.854	808.209	642.247
405.380	27.995	808.205	642.681
406.394	28.364	807.654	643.485
407.409	28.365	807.562	643.357
408.423	28.276	806.819	642.396
409.438	28.435	805.897	642.161
410.453	28.333	805.631	641.537
411.467	28.346	805.469	641.397
412.482	28.406	804.715	640.949
413.496	28.363	804.211	640.338
414.511	28.486	803.894	640.459
415.526	28.391	803.465	639.729
416.540	28.311	803.180	639.169
417.555	28.352	802.443	638.666
418.569	28.094	801.713	637.130
419.584	27.864	801.411	636.033
420.599	28.162	800.670	636.425
421.613	110.908	1284.690	1455.963
422.628	95.703	1355.181	1456.063
