DTS Sentinel unit serial number:	SN413079Multiplexer serial number:	ORYXHardware model number:	OX4-SRSoftware version number:	ORYX F/W v4.00 Oryx Data Collector v3.7.2.0data status	okinstallation	princeton_trtdifferential loss correction	single-endedforward channel	channel 3reverse channel	N/Adate	2019/09/11time	16:34:11forward acquisition time	60.00reverse acquisition time	0.00gamma	496.2192k internal	0.2286k external	0.2286temperature offset calibration	0.9993default loss term (dB/km)	0.3790temperature slope calibration	1.0000multiplexer offset coefficient	1.0000multiplexer slope coefficient	1.0000fibre end	0.00T internal ref (°C)	43.73T ext. ref 1 (°C)	1.07T ext. ref 2 (°C)	39.48length (m)	temperature (°C)	Stokes	anti-Stokes-747.200	405.904	-0.154	0.333
-746.185	-200.000	0.026	0.532
-745.171	-93.372	-0.378	0.108
-744.156	-74.217	0.094	-0.035
-743.142	-57.858	-0.157	-0.071
-742.127	308.535	-0.199	0.382
-741.112	-200.000	-0.007	0.240
-740.098	-200.000	-0.051	0.233
-739.083	-53.546	0.120	0.057
-738.069	109.849	0.071	0.088
-737.054	179.166	-0.089	0.134
-736.039	-5.251	0.200	0.141
-735.025	-145.346	0.140	-0.013
-734.010	10.948	-0.341	-0.267
-732.996	-38.414	-0.202	0.110
-731.981	324.533	-0.165	0.323
-730.966	-28.427	0.042	-0.025
-729.952	-80.537	-0.135	-0.046
-728.937	153.691	-0.239	-0.335
-727.923	800.000	0.112	-0.491
-726.908	123.960	0.252	0.324
-725.894	-200.000	-0.036	-0.184
-724.879	-63.855	-0.209	0.088
-723.864	800.000	-0.064	0.235
-722.850	-138.228	-0.289	0.033
-721.835	-200.000	-0.002	0.138
-720.821	-200.000	-0.010	0.183
-719.806	800.000	0.092	-0.324
-718.791	-15.981	-0.191	0.124
-717.777	-151.473	0.149	-0.011
-716.762	14.513	0.180	-0.144
-715.748	792.514	-0.100	0.282
-714.733	-109.666	0.225	0.049
-713.718	800.000	-0.003	0.012
-712.704	-125.720	-0.172	-0.027
-711.689	-121.995	-0.183	0.031
-710.675	800.000	-0.126	0.399
-709.660	-200.000	-0.010	0.311
-708.645	82.041	0.196	0.217
-707.631	800.000	-0.128	0.524
-706.616	-112.193	0.068	0.014
-705.602	347.959	0.126	0.254
-704.587	-64.405	0.168	0.070
-703.572	-36.378	0.287	-0.158
-702.558	492.706	0.103	-0.242
-701.543	-113.834	0.283	-0.056
-700.529	426.547	-0.053	0.117
-699.514	-118.554	0.200	-0.036
-698.499	-95.733	-0.169	0.046
-697.485	-33.103	-0.177	0.101
-696.470	49.610	-0.216	-0.209
-695.456	-146.830	0.275	0.024
-694.441	-106.338	0.313	-0.072
-693.426	652.004	0.182	0.479
-692.412	-80.280	-0.133	-0.046
-691.397	163.588	-0.160	-0.230
-690.383	-87.630	-0.235	-0.073
-689.368	55.165	0.145	-0.143
-688.354	800.000	0.083	0.264
-687.339	-14.584	0.056	-0.037
-686.324	65.366	0.033	-0.034
-685.310	-7.210	-0.313	-0.217
-684.295	-94.825	-0.112	-0.031
-683.281	-196.360	-0.265	-0.002
-682.266	-13.933	-0.181	0.120
-681.251	-117.402	-0.371	-0.069
-680.237	-86.586	-0.358	-0.112
-679.222	76.669	-0.095	-0.103
-678.208	149.613	0.179	-0.248
-677.193	695.221	0.104	-0.278
-676.178	-200.000	0.058	0.310
-675.164	58.134	0.221	0.221
-674.149	66.043	0.166	-0.173
-673.135	137.108	0.107	0.143
-672.120	-40.855	0.286	0.152
-671.105	146.348	0.359	0.494
-670.091	-9.267	0.140	-0.096
-669.076	309.508	-0.069	0.132
-668.062	-200.000	0.021	0.342
-667.047	86.444	-0.217	0.245
-666.032	153.069	-0.201	-0.281
-665.018	114.719	-0.042	0.052
-664.003	44.044	0.115	0.108
-662.989	-150.113	0.443	-0.035
-661.974	-200.000	-0.036	-0.198
-660.959	-200.000	-0.003	0.114
-659.945	-79.064	0.545	-0.190
-658.930	47.278	0.193	0.184
-657.916	-200.000	-0.090	-0.454
-656.901	302.510	0.074	-0.140
-655.886	-200.000	-0.025	0.170
-654.872	-70.194	-0.064	0.025
-653.857	-47.792	-0.239	0.119
-652.843	-19.477	0.110	0.069
-651.828	65.539	0.266	-0.275
-650.814	-90.336	0.127	-0.038
-649.799	26.008	-0.164	0.140
-648.784	188.642	0.152	-0.232
-647.770	211.188	0.037	-0.059
-646.755	268.250	0.135	0.242
-645.741	-200.000	0.021	0.103
-644.726	-200.000	-0.027	-0.256
-643.711	-200.000	-0.016	0.311
-642.697	800.000	0.080	0.355
-641.682	-200.000	-0.004	0.129
-640.668	739.588	-0.158	-0.434
-639.653	20.367	0.183	0.151
-638.638	-81.423	-0.186	-0.062
-637.624	-200.000	-0.017	-0.187
-636.609	-200.000	-0.029	0.225
-635.595	82.160	0.033	0.036
-634.580	-119.373	-0.163	-0.029
-633.565	-80.458	-0.045	0.015
-632.551	211.283	0.136	0.218
-631.536	154.456	-0.156	-0.219
-630.522	-200.000	0.036	-0.307
-629.507	800.000	0.100	-0.373
-628.492	-144.473	-0.220	0.021
-627.478	-200.000	-0.000	-0.076
-626.463	-31.354	0.217	-0.125
-625.449	41.092	0.050	-0.046
-624.434	122.924	0.042	0.054
-623.419	45.494	0.135	-0.127
-622.405	-47.767	-0.185	0.091
-621.390	152.336	0.183	0.255
-620.376	800.000	0.034	-0.104
-619.361	-200.000	0.017	-0.140
-618.346	55.525	0.170	0.168
-617.332	-162.664	-0.289	-0.014
-616.317	800.000	-0.073	-0.213
-615.303	-133.134	-0.446	-0.058
-614.288	-144.719	-0.144	0.014
-613.273	-102.335	-0.210	0.051
-612.259	60.195	-0.079	-0.079
-611.244	-183.429	0.248	-0.004
-610.230	-200.000	0.015	0.189
-609.215	-8.915	-0.294	-0.201
-608.201	20.043	0.289	0.238
-607.186	287.033	-0.088	0.162
-606.171	-141.562	-0.351	-0.036
-605.157	-103.130	0.311	-0.075
-604.142	82.924	-0.101	-0.112
-603.128	-100.904	0.324	-0.081
-602.113	-16.225	0.156	0.101
-601.098	800.000	0.034	-0.102
-600.084	99.918	-0.170	-0.201
-599.069	5.530	-0.186	0.140
-598.055	12.679	-0.294	0.232
-597.040	-200.000	0.045	-0.202
-596.025	124.675	-0.159	0.204
-595.011	87.555	-0.030	-0.034
-593.996	152.768	-0.080	-0.112
-592.982	-200.000	-0.066	0.331
-591.967	690.709	-0.054	0.146
-590.952	-106.318	0.110	-0.025
-589.938	365.873	0.044	-0.090
-588.923	-172.540	0.361	0.012
-587.909	-34.088	-0.068	0.038
-586.894	7.727	-0.221	0.169
-585.879	88.681	0.046	-0.053
-584.865	-180.533	0.251	-0.005
-583.850	67.466	0.080	-0.083
-582.836	-116.575	0.112	0.021
-581.821	75.347	-0.200	0.215
-580.806	-200.000	-0.058	0.447
-579.792	162.601	-0.130	-0.185
-578.777	800.000	0.039	-0.142
-577.763	157.399	0.117	0.165
-576.748	67.394	0.098	0.102
-575.733	301.324	-0.118	0.223
-574.719	2.739	0.137	-0.101
-573.704	-200.000	-0.032	0.203
-572.690	-200.000	-0.021	-0.440
-571.675	120.261	-0.142	-0.179
-570.661	800.000	0.113	0.328
-569.646	800.000	-0.078	-0.232
-568.631	-6.107	0.232	-0.162
-567.617	71.608	-0.195	0.206
-566.602	-133.324	-0.173	-0.022
-565.588	-200.000	-0.014	0.203
-564.573	-121.214	-0.143	-0.024
-563.558	-6.622	0.068	0.047
-562.544	490.993	0.215	0.502
-561.529	800.000	0.143	0.421
-560.515	-171.924	0.145	0.005
-559.500	290.690	0.071	-0.132
-558.485	-200.000	-0.014	-0.101
-557.471	706.854	-0.092	-0.248
-556.456	-94.241	-0.027	0.008
-555.442	-15.359	0.237	-0.154
-554.427	-200.000	0.018	0.102
-553.412	84.213	-0.135	-0.150
-552.398	639.320	0.043	-0.112
-551.383	-81.375	0.369	0.124
-550.369	153.021	-0.274	-0.382
-549.354	-200.000	0.025	0.246
-548.339	-19.370	-0.275	-0.173
-547.325	174.939	0.191	0.282
-546.310	-200.000	-0.033	0.179
-545.296	2.767	-0.252	0.186
-544.281	-200.000	-0.012	-0.219
-543.266	-175.847	0.248	-0.007
-542.252	61.682	0.019	0.019
-541.237	-200.000	0.001	-0.169
-540.223	202.654	-0.072	-0.114
-539.208	-200.000	0.080	-0.381
-538.193	103.009	0.113	-0.135
-537.179	21.572	-0.111	-0.092
-536.164	-200.000	0.071	-0.000
-535.150	515.310	0.054	-0.130
-534.135	-200.000	0.016	0.347
-533.121	59.159	0.169	-0.169
-532.106	-200.000	-0.002	-0.302
-531.091	-152.834	-0.451	0.033
-530.077	19.028	-0.239	-0.195
-529.062	-50.264	0.061	-0.029
-528.048	-200.000	-0.020	-0.338
-527.033	-67.771	0.037	0.015
-526.018	-56.177	-0.189	0.086
-525.004	-200.000	0.005	0.179
-523.989	-61.558	0.250	0.107
-522.975	-111.783	-0.076	0.016
-521.960	800.000	-0.021	-0.076
-520.945	659.917	-0.105	0.276
-519.931	-23.095	0.098	0.060
-518.916	35.160	0.186	-0.165
-517.902	-200.000	0.059	-0.321
-516.887	-49.527	-0.136	-0.066
-515.872	109.091	0.243	0.296
-514.858	-74.996	0.256	0.093
-513.843	-2.862	-0.092	0.065
-512.829	401.428	-0.024	0.050
-511.814	-114.652	-0.279	0.054
-510.799	-200.000	-0.087	-0.643
-509.785	93.289	0.154	-0.177
-508.770	-80.886	0.352	-0.119
-507.756	-24.358	-0.173	-0.105
-506.741	-118.651	0.225	-0.040
-505.726	120.014	-0.211	0.267
-504.712	-200.000	-0.052	-0.274
-503.697	-55.716	-0.092	-0.042
-502.683	-154.123	0.111	-0.008
-501.668	486.762	-0.102	-0.236
-500.653	800.000	-0.041	-0.135
-499.639	-87.771	0.058	0.018
-498.624	-3.398	-0.186	0.131
-497.610	800.000	0.065	-0.217
-496.595	-193.742	0.043	0.000
-495.581	800.000	-0.123	0.451
-494.566	28.566	-0.214	0.184
-493.551	800.000	0.036	0.110
-492.537	-195.846	-0.051	0.000
-491.522	-126.845	0.097	-0.014
-490.508	-200.000	-0.013	-0.377
-489.493	800.000	-0.006	-0.019
-488.478	490.910	0.140	0.325
-487.464	500.017	0.094	-0.220
-486.449	800.000	-0.031	0.088
-485.435	-200.000	0.022	0.113
-484.420	491.759	0.152	0.353
-483.405	510.836	-0.018	-0.041
-482.391	800.000	-0.116	-0.461
-481.376	-200.000	-0.019	0.155
-480.362	0.143	0.200	0.145
-479.347	-156.608	0.145	-0.009
-478.332	-151.872	0.103	-0.008
-477.318	-138.367	0.353	-0.040
-476.303	-100.891	0.140	-0.035
-475.289	254.690	0.113	-0.196
-474.274	-68.951	0.147	0.058
-473.259	-189.942	-0.151	-0.002
-472.245	-4.155	0.145	-0.102
-471.230	-124.401	0.243	0.038
-470.216	-200.000	-0.082	-0.383
-469.201	41.079	0.179	-0.164
-468.186	245.466	0.120	0.206
-467.172	-72.530	-0.246	0.092
-466.157	273.207	-0.089	-0.159
-465.143	-200.000	-0.060	-0.353
-464.128	-19.830	-0.223	0.140
-463.113	-0.523	0.276	0.199
-462.099	-46.572	0.143	0.071
-461.084	123.889	-0.102	-0.130
-460.070	286.073	0.038	-0.070
-459.055	360.634	0.041	0.084
-458.040	-99.313	-0.120	0.031
-457.026	-83.296	-0.230	-0.075
-456.011	-18.817	0.236	0.149
-454.997	188.163	-0.097	-0.147
-453.982	-200.000	-0.054	-0.338
-452.968	-77.211	0.152	-0.054
-451.953	149.438	-0.107	-0.147
-450.938	800.000	-0.142	-0.452
-449.924	112.415	0.178	0.219
-448.909	676.138	-0.104	0.275
-447.895	73.006	0.171	-0.181
-446.880	800.000	0.071	-0.269
-445.865	124.878	-0.117	-0.150
-444.851	101.926	0.040	0.047
-443.836	433.871	0.191	0.421
-442.822	800.000	-0.009	0.031
-441.807	779.253	0.070	-0.194
-440.792	42.237	0.078	0.072
-439.778	800.000	-0.048	0.152
-438.763	-107.343	-0.161	0.036
-437.749	69.691	0.155	-0.162
-436.734	-200.000	0.020	-0.297
-435.719	-98.948	-0.205	-0.053
-434.705	-188.093	0.486	-0.006
-433.690	20.202	0.143	0.117
-432.676	-45.635	-0.139	-0.069
-431.661	176.749	-0.104	0.154
-430.646	81.129	0.052	-0.057
-429.632	370.640	-0.072	0.148
-428.617	-136.185	-0.394	0.047
-427.603	-200.000	0.045	0.241
-426.588	-144.826	-0.213	-0.020
-425.573	89.627	-0.201	0.227
-424.559	94.423	-0.082	-0.094
-423.544	-39.366	0.186	0.099
-422.530	72.615	0.389	0.411
-421.515	-19.693	-0.197	0.124
-420.500	-26.585	-0.259	0.154
-419.486	-125.403	0.265	-0.041
-418.471	-200.000	-0.009	-0.056
-417.457	128.352	0.050	-0.064
-416.442	-42.258	-0.089	-0.046
-415.428	800.000	-0.058	-0.203
-414.413	-25.625	0.053	-0.032
-413.398	111.254	-0.134	0.164
-412.384	140.393	0.061	0.082
-411.369	-200.000	-0.004	0.200
-410.355	-140.401	0.271	0.029
-409.340	7.857	-0.225	-0.170
-408.325	-137.096	0.390	0.045
-407.311	-49.636	-0.407	0.196
-406.296	-24.360	0.100	0.060
-405.282	800.000	0.033	-0.102
-404.267	-75.984	-0.101	0.036
-403.252	11.818	-0.329	-0.256
-402.238	-200.000	-0.007	0.059
-401.223	-108.181	-0.199	-0.044
-400.209	-200.000	-0.016	0.247
-399.194	-200.000	0.010	-0.303
-398.179	800.000	-0.082	0.258
-397.165	-32.287	0.310	0.175
-396.150	-123.953	-0.548	0.087
-395.136	-4.472	0.089	0.062
-394.121	800.000	-0.127	-0.545
-393.106	63.363	-0.148	-0.151
-392.092	-64.205	0.113	-0.047
-391.077	-149.740	-0.432	0.034
-390.063	644.535	-0.123	-0.318
-389.048	800.000	-0.010	0.031
-388.033	331.363	-0.140	-0.273
-387.019	382.495	-0.083	0.172
-386.004	-37.624	-0.129	0.070
-384.990	259.155	0.078	-0.136
-383.975	21.902	0.151	-0.125
-382.960	-200.000	0.013	0.087
-381.946	-79.343	-0.085	0.029
-380.931	-13.186	0.331	-0.218
-379.917	-200.000	-0.043	0.310
-378.902	-34.136	-0.153	0.085
-377.888	-69.807	0.089	0.034
-376.873	-60.124	0.021	-0.009
-375.858	-133.622	0.341	-0.043
-374.844	-200.000	-0.023	0.173
-373.829	-200.000	0.017	0.183
-372.815	-98.856	-0.369	-0.095
-371.800	27.920	0.177	0.151
-370.785	-200.000	-0.014	0.134
-369.771	-200.000	-0.060	0.297
-368.756	-95.869	0.297	-0.080
-367.742	-68.086	0.105	-0.041
-366.727	28.206	-0.150	-0.128
-365.712	202.723	-0.122	-0.191
-364.698	-200.000	-0.010	0.267
-363.683	-147.365	-0.141	-0.012
-362.669	-200.000	-0.010	-0.085
-361.654	800.000	-0.140	0.527
-360.639	-165.891	0.227	-0.010
-359.625	-8.284	-0.128	-0.087
-358.610	-81.592	0.082	-0.027
-357.596	96.157	-0.025	-0.029
-356.581	800.000	0.103	-0.303
-355.566	103.748	0.242	0.288
-354.552	-200.000	0.008	0.062
-353.537	800.000	0.100	0.332
-352.523	30.571	0.087	-0.076
-351.508	800.000	-0.038	0.166
-350.493	800.000	-0.042	-0.120
-349.479	-200.000	0.042	0.370
-348.464	-200.000	0.008	0.192
-347.450	800.000	-0.126	0.438
-346.435	-54.230	-0.244	-0.112
-345.420	-121.323	-0.300	-0.051
-344.406	726.983	-0.107	-0.289
-343.391	-36.250	-0.152	0.083
-342.377	-200.000	0.010	-0.548
-341.362	-35.922	0.252	0.138
-340.348	740.298	-0.162	0.440
-339.333	-200.000	-0.016	0.292
-338.318	122.874	-0.104	-0.132
-337.304	-200.000	0.004	-0.147
-336.289	-73.745	-0.319	-0.117
-335.275	595.701	0.020	-0.050
-334.260	36.514	-0.138	-0.123
-333.245	-102.739	0.398	0.096
-332.231	64.745	0.174	-0.177
-331.216	-138.094	-0.180	-0.020
-330.202	-124.624	-0.159	-0.025
-329.187	-200.000	0.014	-0.151
-328.172	163.663	0.023	-0.033
-327.158	70.158	-0.264	-0.275
-326.143	202.759	0.094	0.147
-325.129	-114.259	0.381	0.074
-324.114	800.000	0.133	0.451
-323.099	-114.119	-0.313	-0.061
-322.085	188.759	0.067	-0.100
-321.070	-20.175	0.137	-0.085
-320.056	-141.481	-0.197	-0.020
-319.041	-200.000	-0.006	-0.062
-318.026	222.515	-0.163	0.265
-317.012	50.424	-0.051	-0.048
-315.997	-1.321	0.025	-0.018
-314.983	46.506	-0.307	0.287
-313.968	30.681	0.149	-0.128
-312.953	-200.000	0.024	0.157
-311.939	186.303	0.084	0.126
-310.924	800.000	0.079	-0.268
-309.910	242.333	-0.083	0.141
-308.895	800.000	-0.090	0.273
-307.880	525.000	-0.111	0.262
-306.866	86.029	-0.123	-0.136
-305.851	-200.000	0.015	0.222
-304.837	-88.309	-0.149	-0.045
-303.822	-200.000	-0.006	-0.109
-302.807	-135.165	-0.403	0.049
-301.793	-59.405	-0.257	-0.112
-300.778	-200.000	-0.004	-0.057
-299.764	-132.427	-0.084	-0.011
-298.749	364.841	-0.109	-0.221
-297.735	128.568	-0.220	-0.282
-296.720	-14.056	0.173	0.112
-295.705	-113.565	-0.250	0.049
-294.691	-108.645	-0.082	0.018
-293.676	-145.993	0.388	-0.035
-292.662	800.000	0.049	-0.158
-291.647	-200.000	0.015	-0.149
-290.632	-24.675	-0.140	0.084
-289.618	-175.086	0.108	0.003
-288.603	-37.235	-0.101	-0.054
-287.589	-200.000	0.035	-0.356
-286.574	445.959	-0.016	0.036
-285.559	39.256	0.118	0.107
-284.545	-49.864	0.225	-0.108
-283.530	-98.652	0.102	0.026
-282.516	115.498	0.099	0.122
-281.501	319.417	-0.076	-0.145
-280.486	20.397	0.283	0.230
-279.472	-52.181	-0.169	-0.079
-278.457	-178.970	0.089	-0.002
-277.443	-135.077	0.268	0.033
-276.428	800.000	-0.036	-0.131
-275.413	-68.360	0.135	0.053
-274.399	-69.435	-0.119	0.046
-273.384	162.479	-0.101	-0.143
-272.370	-20.761	0.198	-0.123
-271.355	-70.721	-0.357	0.136
-270.340	142.039	-0.279	0.372
-269.326	29.815	0.116	0.099
-268.311	800.000	-0.059	0.219
-267.297	-109.681	0.012	-0.003
-266.282	67.316	0.150	0.154
-265.267	-144.855	0.060	0.006
-264.253	43.662	-0.200	0.184
-263.238	566.098	-0.028	0.068
-262.224	473.800	-0.057	-0.129
-261.209	112.879	-0.284	-0.346
-260.195	-173.435	-0.226	0.007
-259.180	-59.815	0.284	-0.122
-258.165	-55.857	-0.510	0.229
-257.151	-20.843	-0.105	-0.065
-256.136	241.189	-0.061	0.102
-255.122	800.000	-0.133	0.431
-254.107	493.859	0.023	-0.052
-253.092	-85.326	0.234	-0.074
-252.078	241.331	-0.067	0.112
-251.063	-78.237	-0.318	0.110
-250.049	-55.773	0.313	0.141
-249.034	156.592	0.088	-0.122
-248.019	-3.249	0.139	0.098
-247.005	800.000	0.024	-0.102
-245.990	-125.796	0.448	-0.068
-244.976	-145.295	0.299	-0.027
-243.961	-200.000	-0.007	-0.249
-242.946	-100.059	-0.121	-0.030
-241.932	-51.846	0.426	-0.200
-240.917	-200.000	-0.009	-0.139
-239.903	328.015	0.143	-0.277
-238.888	800.000	0.041	0.151
-237.873	-67.293	0.080	0.031
-236.859	322.853	0.055	0.105
-235.844	8.679	-0.188	0.143
-234.830	-112.637	-0.121	-0.024
-233.815	-18.971	0.020	-0.012
-232.800	117.436	0.031	-0.038
-231.786	427.804	0.146	0.316
-230.771	266.703	-0.150	-0.263
-229.757	800.000	0.010	-0.031
-228.742	28.077	-0.065	0.055
-227.727	-200.000	0.003	0.135
-226.713	-48.739	0.222	-0.107
-225.698	-200.000	-0.049	-0.267
-224.684	-132.449	-0.113	0.015
-223.669	82.299	0.404	-0.440
-222.655	-54.702	0.323	0.147
-221.640	568.920	-0.037	0.090
-220.625	148.484	-0.206	-0.279
-219.611	-50.462	-0.289	0.137
-218.596	800.000	0.055	0.229
-217.582	156.722	0.066	-0.092
-216.567	32.662	-0.151	0.131
-215.552	49.239	0.189	-0.178
-214.538	128.931	-0.127	-0.163
-213.523	39.728	-0.105	0.095
-212.509	43.115	0.409	0.375
-211.494	-102.695	-0.192	0.046
-210.479	-16.683	0.222	0.141
-209.465	159.329	0.135	0.189
-208.450	-32.536	0.045	-0.025
-207.436	105.722	-0.267	-0.318
-206.421	153.783	0.254	-0.350
-205.406	-200.000	-0.023	0.154
-204.392	228.753	0.112	0.183
-203.377	792.772	-0.057	-0.158
-202.363	104.827	0.168	-0.199
-201.348	-19.749	-0.193	-0.120
-200.333	-200.000	-0.030	0.181
-199.319	-45.227	-0.146	-0.073
-198.304	-41.333	0.099	0.051
-197.290	341.436	0.008	0.016
-196.275	-200.000	-0.055	0.292
-195.260	-27.810	-0.088	-0.051
-194.246	-154.910	0.129	0.009
-193.231	-108.813	-0.056	-0.012
-192.217	-62.529	-0.044	0.018
-191.202	-200.000	0.023	-0.202
-190.187	203.859	-0.134	-0.208
-189.173	-95.647	0.196	0.053
-188.158	-56.881	-0.133	0.059
-187.144	113.662	-0.044	-0.054
-186.129	-200.000	0.026	0.547
-185.114	-26.472	0.244	-0.143
-184.100	-156.798	0.349	-0.022
-183.085	-96.772	-0.301	0.080
-182.071	20.499	-0.154	-0.125
-181.056	282.727	0.107	0.194
-180.042	5.001	0.179	-0.132
-179.027	10.651	0.126	-0.097
-178.012	152.972	-0.216	-0.296
-176.998	-200.000	0.013	-0.092
-175.983	-138.391	0.148	0.016
-174.969	-200.000	0.001	0.125
-173.954	-34.924	-0.362	-0.198
-172.939	-121.735	0.190	-0.032
-171.925	-200.000	0.075	0.447
-170.910	-65.304	-0.195	-0.079
-169.896	257.996	-0.083	-0.144
-168.881	200.127	0.248	-0.382
-167.866	-2.766	0.214	-0.150
-166.852	-81.979	0.162	-0.053
-165.837	-200.000	0.001	0.312
-164.823	-99.614	0.176	0.044
-163.808	-4.381	0.248	0.172
-162.793	-106.072	0.065	0.015
-161.779	120.279	-0.152	-0.189
-160.764	11.960	0.112	-0.086
-159.750	-200.000	0.015	0.158
-158.735	-76.947	-0.249	0.087
-157.720	45.478	0.226	0.209
-156.706	-83.347	0.173	-0.056
-155.691	-78.286	0.176	0.061
-154.677	-107.750	-0.160	-0.035
-153.662	209.243	0.161	0.253
-152.647	-77.837	-0.193	-0.067
-151.633	28.141	0.198	-0.167
-150.618	-200.000	-0.002	-0.134
-149.604	-200.000	0.017	0.079
-148.589	-79.729	0.321	0.108
-147.574	-7.577	-0.212	0.144
-146.560	-119.095	0.119	0.021
-145.545	-103.913	0.094	0.022
-144.531	12.603	0.284	-0.220
-143.516	-200.000	0.004	0.398
-142.502	632.649	0.073	-0.187
-141.487	-73.623	-0.144	0.053
-140.472	-23.508	0.161	0.097
-139.458	-200.000	-0.013	-0.271
-138.443	42.848	0.227	-0.208
-137.429	129.662	-0.092	0.118
-136.414	-106.247	-0.128	-0.029
-135.399	234.305	-0.144	0.238
-134.385	-7.995	0.092	0.062
-133.370	-200.000	0.015	-0.240
-132.356	239.153	-0.140	-0.234
-131.341	-49.381	-0.314	0.150
-130.326	136.437	0.301	0.393
-129.312	35.651	-0.109	0.096
-128.297	41.912	-0.112	0.102
-127.283	-200.000	-0.009	-0.126
-126.268	-200.000	-0.002	-0.252
-125.253	-17.942	-0.177	0.111
-124.239	800.000	-0.060	0.219
-123.224	-84.554	-0.239	0.075
-122.210	-146.183	0.171	0.015
-121.195	-50.153	0.193	-0.092
-120.180	-118.478	-0.163	0.029
-119.166	-0.282	-0.098	-0.070
-118.151	800.000	0.037	0.122
-117.137	273.013	0.121	-0.214
-116.122	176.007	-0.114	-0.166
-115.107	-200.000	0.021	-0.164
-114.093	271.593	0.270	-0.476
-113.078	-96.676	0.350	-0.092
-112.064	-9.139	-0.139	-0.093
-111.049	11.979	0.192	0.148
-110.034	-72.737	-0.172	-0.064
-109.020	-165.976	-0.286	-0.012
-108.005	13.011	-0.019	0.015
-106.991	-131.495	-0.049	0.006
-105.976	519.557	0.047	-0.111
-104.962	104.438	-0.153	0.180
-103.947	20.456	-0.314	0.254
-102.932	-6.526	0.057	0.039
-101.918	108.560	-0.159	0.190
-100.903	-131.798	-0.236	0.031
-99.889	-2.551	0.130	-0.091
-98.874	-10.297	0.264	0.175
-97.859	800.000	-0.129	0.404
-96.845	-57.278	0.184	-0.081
-95.830	51.104	0.291	0.276
-94.816	-63.197	-0.197	0.081
-93.801	-100.918	0.186	-0.046
-92.786	-154.632	0.141	-0.009
-91.772	57.566	-0.044	-0.043
-90.757	16.542	0.128	-0.101
-89.743	110.613	-0.090	-0.108
-88.728	70.180	0.140	-0.145
-87.713	91.738	0.004	-0.004
-86.699	731.151	-0.013	-0.034
-85.684	-88.641	-0.213	0.064
-84.670	800.000	0.097	-0.315
-83.655	186.905	0.261	0.389
-82.640	91.400	-0.164	0.184
-81.626	-200.000	0.017	0.118
-80.611	15.804	0.194	0.152
-79.597	-132.148	0.122	0.016
-78.582	11.037	0.077	-0.059
-77.567	37.334	0.046	0.041
-76.553	488.679	-0.089	0.204
-75.538	-6.603	-0.036	-0.025
-74.524	206.659	-0.075	-0.116
-73.509	22.692	0.143	0.117
-72.494	34.589	-0.332	0.290
-71.480	-20.988	-0.141	-0.086
-70.465	-125.250	-0.178	0.027
-69.451	800.000	0.051	0.173
-68.436	-200.000	-0.039	0.260
-67.422	99.631	-0.110	0.127
-66.407	213.031	0.214	0.337
-65.392	-182.929	-0.237	-0.004
-64.378	46.933	-0.255	0.237
-63.363	51.341	0.333	0.316
-62.349	800.000	0.103	0.294
-61.334	248.367	-0.497	-0.840
-60.319	-200.000	-0.005	0.280
-59.305	-200.000	-0.136	-0.629
-58.290	209.350	0.413	0.646
-57.276	441.397	0.780	1.704
-56.261	-200.000	71.876	525.451
-55.246	594.450	1278.187	3157.441
-54.232	146.916	2495.641	3351.746
-53.217	121.267	2240.921	2786.988
-52.203	55.262	1763.519	1703.171
-51.188	47.415	1557.357	1449.390
-50.173	44.438	1527.197	1400.793
-49.159	59.564	1560.889	1537.029
-48.144	67.020	1581.283	1608.789
-47.130	47.764	1545.291	1440.352
-46.115	43.959	1531.049	1400.790
-45.100	43.712	1527.528	1395.808
-44.086	43.815	1525.472	1394.588
-43.071	43.744	1523.583	1392.315
-42.057	43.677	1521.584	1389.971
-41.042	43.676	1520.178	1388.623
-40.027	43.661	1518.806	1387.211
-39.013	43.758	1517.077	1386.245
-37.998	43.744	1515.560	1384.708
-36.984	43.783	1514.456	1383.912
-35.969	43.745	1513.349	1382.583
-34.954	43.797	1512.020	1381.674
-33.940	43.827	1510.581	1380.507
-32.925	43.707	1509.011	1378.197
-31.911	43.775	1507.870	1377.566
-30.896	43.815	1506.221	1376.277
-29.881	43.887	1504.626	1375.250
-28.867	43.856	1503.281	1373.758
-27.852	43.833	1502.138	1372.503
-26.838	43.739	1500.614	1370.418
-25.823	43.742	1499.028	1368.936
-24.809	43.802	1497.074	1367.505
-23.794	43.752	1495.987	1366.121
-22.779	43.744	1494.932	1365.050
-21.765	43.814	1493.488	1364.146
-20.750	43.800	1492.028	1362.665
-19.736	43.730	1491.363	1361.535
-18.721	43.718	1490.335	1360.456
-17.706	43.857	1488.537	1359.699
-16.692	43.745	1487.305	1357.768
-15.677	43.748	1486.620	1357.108
-14.663	43.647	1485.721	1355.553
-13.648	43.683	1484.535	1354.664
-12.633	43.659	1483.516	1353.516
-11.619	43.606	1483.146	1352.768
-10.604	43.620	1481.968	1351.737
-9.590	43.681	1480.579	1350.823
-8.575	43.607	1480.146	1349.880
-7.560	43.690	1479.420	1349.717
-6.546	43.645	1478.425	1348.459
-5.531	43.666	1477.300	1347.519
-4.517	43.737	1475.682	1346.461
-3.502	43.597	1475.336	1345.160
-2.487	43.580	1474.626	1344.346
-1.473	43.654	1473.538	1343.790
-0.458	43.638	1472.201	1342.416
0.556	43.213	1463.098	1334.188
1.571	40.764	1435.158	1292.672
2.586	36.975	1372.285	1212.291
3.600	34.957	1288.175	1126.026
4.615	32.674	1240.153	1071.001
5.629	27.039	1181.250	989.439
6.644	13.490	1086.568	841.650
7.659	3.046	1036.787	752.137
8.673	1.342	1030.837	739.461
9.688	1.046	1028.195	736.062
10.702	0.961	1026.377	734.281
11.717	0.932	1024.876	733.006
12.731	5.001	1030.067	756.421
13.746	16.237	1045.885	823.051
14.761	23.421	1055.001	865.358
15.775	23.748	1054.317	866.317
16.790	23.728	1053.218	865.241
17.804	23.551	1052.599	863.795
18.819	23.294	1051.698	861.725
19.834	23.350	1051.328	861.618
20.848	23.591	1050.628	862.140
21.863	23.532	1050.321	861.528
22.877	23.520	1050.123	861.229
23.892	23.502	1049.193	860.303
24.907	23.382	1048.725	859.261
25.921	23.445	1047.800	858.733
26.936	23.370	1047.190	857.793
27.950	23.449	1045.935	857.070
28.965	23.339	1044.588	855.360
29.980	23.254	1043.237	853.771
30.994	23.225	1041.923	852.480
32.009	23.361	1041.020	852.321
33.023	23.547	1040.507	852.715
34.038	23.295	1039.665	850.742
35.053	23.279	1038.623	849.737
36.067	23.424	1038.354	850.137
37.082	23.469	1037.396	849.494
38.096	23.459	1036.466	848.611
39.111	23.571	1036.184	848.841
40.126	23.844	1035.380	849.408
41.140	23.700	1033.842	847.386
42.155	23.498	1032.485	845.233
43.169	23.095	1031.015	842.037
44.184	23.161	1030.167	841.586
45.199	23.313	1029.228	841.465
46.213	23.084	1028.542	839.746
47.228	23.077	1027.661	838.920
48.242	23.167	1026.847	838.604
49.257	23.315	1026.245	838.739
50.271	23.373	1025.329	838.191
51.286	23.540	1024.608	838.320
52.301	23.552	1024.290	838.042
53.315	23.512	1023.667	837.267
54.330	23.534	1022.521	836.358
55.344	23.428	1021.457	834.915
56.359	23.451	1020.960	834.544
57.374	23.527	1020.177	834.189
58.388	23.253	1019.485	832.260
59.403	23.285	1018.217	831.302
60.417	23.194	1017.888	830.531
61.432	23.130	1017.148	829.555
62.447	23.061	1016.156	828.349
63.461	23.162	1015.674	828.356
64.476	23.263	1015.012	828.216
65.490	23.329	1014.049	827.664
66.505	23.224	1012.868	826.139
67.520	23.133	1012.578	825.402
68.534	23.222	1011.782	825.094
69.549	23.073	1010.643	823.401
70.563	22.837	1009.210	821.062
71.578	22.665	1008.481	819.599
72.593	22.797	1007.480	819.327
73.607	22.613	1006.449	817.561
74.622	22.639	1005.685	816.988
75.636	22.865	1004.960	817.372
76.651	23.154	1004.168	817.995
77.666	23.049	1003.475	816.870
78.680	22.756	1002.883	814.965
79.695	23.005	1002.210	815.494
80.709	22.955	1001.722	814.793
81.724	23.117	1000.588	814.546
82.739	23.118	999.592	813.668
83.753	23.081	998.850	812.820
84.768	23.350	998.667	813.838
85.782	23.726	997.771	814.758
86.797	23.908	997.344	815.173
87.812	23.774	996.622	813.899
88.826	23.625	995.318	812.077
89.841	23.657	994.350	811.365
90.855	23.785	993.752	811.389
91.870	23.633	993.178	810.154
92.884	23.830	992.050	810.061
93.899	23.636	991.373	808.554
94.914	23.568	990.394	807.371
95.928	23.599	989.718	806.889
96.943	23.722	988.839	806.662
97.957	23.398	987.977	804.414
98.972	23.197	986.644	802.351
99.987	22.861	985.824	800.089
101.001	22.996	985.183	800.108
102.016	23.494	984.213	801.503
103.030	23.471	983.539	800.779
104.045	23.278	982.467	798.963
105.060	23.264	980.937	797.584
106.074	23.144	979.873	796.110
107.089	23.045	979.383	795.196
108.103	23.379	978.890	796.225
109.118	23.455	978.189	795.930
110.133	23.237	976.868	793.804
111.147	23.296	975.715	793.063
112.162	23.204	974.800	791.838
113.176	22.856	973.616	789.250
114.191	23.217	972.899	790.213
115.206	23.317	971.912	789.785
116.220	22.846	970.989	786.868
117.235	22.646	970.187	785.258
118.249	22.897	969.603	785.831
119.264	22.926	968.928	785.343
120.279	22.850	967.583	783.847
121.293	22.713	967.245	782.895
122.308	22.836	966.509	782.777
123.322	22.910	966.186	782.776
124.337	22.970	964.643	781.719
125.352	22.978	963.112	780.445
126.366	22.495	961.720	777.118
127.381	22.031	960.666	774.153
128.395	22.434	960.510	775.732
129.410	23.351	959.965	779.262
130.424	23.462	959.298	779.139
131.439	23.464	958.152	778.147
132.454	23.445	957.439	777.418
133.468	23.359	956.596	776.286
134.483	23.341	955.750	775.452
135.497	23.410	954.985	775.062
136.512	23.568	954.798	775.534
137.527	23.606	954.156	775.110
138.541	23.715	953.058	774.626
139.556	23.653	952.438	773.784
140.570	23.621	951.768	773.030
141.585	23.646	951.210	772.619
142.600	23.615	950.529	771.862
143.614	23.642	949.369	770.967
144.629	23.838	948.094	770.713
145.643	23.995	948.000	771.252
146.658	23.795	946.926	769.441
147.673	23.699	945.074	767.453
148.687	23.472	944.308	765.783
149.702	23.442	943.324	764.789
150.716	23.438	942.034	763.659
151.731	23.338	941.116	762.416
152.746	23.437	940.125	761.974
153.760	23.700	939.510	762.537
154.775	23.748	938.832	762.121
155.789	23.707	938.563	761.662
156.804	23.731	937.353	760.717
157.819	23.729	936.510	759.954
158.833	23.705	935.659	759.096
159.848	23.842	935.185	759.230
160.862	23.847	934.534	758.655
161.877	23.719	933.463	757.173
162.892	23.591	932.344	755.654
163.906	23.772	931.707	755.838
164.921	23.785	930.559	754.897
165.935	23.629	929.586	753.377
166.950	23.830	928.717	753.461
167.964	23.731	927.998	752.389
168.979	23.903	926.495	751.831
169.994	23.702	925.731	750.296
171.008	23.493	924.795	748.590
172.023	23.762	924.187	749.168
173.037	23.935	922.968	748.841
174.052	23.649	922.255	746.993
175.067	23.500	921.376	745.586
176.081	23.348	920.613	744.264
177.096	23.376	919.774	743.640
178.110	23.453	919.022	743.288
179.125	23.296	917.842	741.612
180.140	23.074	916.489	739.521
181.154	23.093	915.663	738.870
182.169	23.220	915.421	739.140
183.183	23.385	915.363	739.716
184.198	23.835	914.537	740.860
185.213	23.621	914.531	739.899
186.227	23.633	913.537	739.076
187.242	23.671	913.080	738.803
188.256	23.679	912.446	738.257
189.271	23.788	911.607	737.965
190.286	23.796	910.894	737.356
191.300	23.703	910.052	736.224
192.315	23.193	908.539	732.824
193.329	22.441	907.408	728.735
194.344	22.015	905.944	725.733
195.359	22.529	906.747	728.440
196.373	23.362	906.790	731.852
197.388	23.803	906.159	733.098
198.402	23.599	905.669	731.793
199.417	23.635	904.883	731.244
200.432	23.655	904.616	731.046
201.446	23.428	904.232	729.736
202.461	23.254	902.989	727.951
203.475	23.280	902.278	727.420
204.490	22.917	901.137	724.947
205.504	21.759	898.987	718.410
206.519	22.014	898.921	719.339
207.534	23.059	899.174	723.759
208.548	23.252	898.499	723.940
209.563	23.526	898.386	724.906
210.577	23.581	897.588	724.420
211.592	23.371	897.023	723.045
212.607	23.678	896.885	724.120
213.621	23.761	896.661	724.213
214.636	23.787	895.641	723.431
215.650	23.857	894.837	723.004
216.665	23.679	894.359	721.832
217.680	23.880	893.941	722.248
218.694	23.865	893.578	721.829
219.709	23.454	892.848	719.508
220.723	23.109	892.206	717.527
221.738	23.321	891.302	717.595
222.753	23.562	890.760	718.071
223.767	23.478	890.085	717.123
224.782	23.674	889.531	717.406
225.796	23.688	888.706	716.733
226.811	24.090	887.829	717.584
227.826	23.595	887.073	714.915
228.840	22.784	885.452	710.282
229.855	22.633	885.077	709.310
230.869	22.931	884.539	710.016
231.884	22.698	883.731	708.366
232.899	22.726	882.884	707.740
233.913	23.363	883.342	710.599
234.928	23.504	883.170	710.964
235.942	23.472	882.481	710.217
236.957	23.579	881.691	709.948
237.972	23.434	880.137	708.055
238.986	23.155	879.833	706.631
240.001	23.252	879.428	706.633
241.015	23.387	878.629	706.463
242.030	23.349	878.043	705.782
243.045	23.431	877.758	705.815
244.059	23.506	877.123	705.541
245.074	23.744	876.647	706.041
246.088	23.800	875.703	705.442
247.103	23.285	875.288	703.000
248.117	23.287	874.845	702.590
249.132	23.881	874.746	704.803
250.147	24.260	874.325	705.902
251.161	24.328	873.954	705.812
252.176	24.597	873.232	706.228
253.190	24.478	872.583	705.170
254.205	24.504	872.427	705.084
255.220	24.676	872.036	705.387
256.234	24.631	871.274	704.530
257.249	24.483	870.835	703.528
258.263	24.400	869.797	702.301
259.278	24.409	869.331	701.900
260.293	24.385	869.238	701.666
261.307	24.411	868.995	701.510
262.322	24.344	867.993	700.377
263.336	24.343	866.852	699.392
264.351	23.945	865.793	696.915
265.366	22.856	863.926	691.091
266.380	22.256	863.076	688.005
267.395	23.218	863.225	691.824
268.409	24.175	863.233	695.506
269.424	23.962	862.659	694.152
270.439	24.134	862.220	694.408
271.453	24.316	861.860	694.767
272.468	24.330	860.769	693.878
273.482	24.468	860.536	694.166
274.497	24.580	860.344	694.385
275.512	24.429	859.343	692.932
276.526	23.814	857.622	689.097
277.541	23.925	857.348	689.247
278.555	24.312	857.333	690.671
279.570	24.170	856.726	689.571
280.585	24.002	855.819	688.132
281.599	24.217	855.364	688.537
282.614	24.345	854.859	688.564
283.628	23.815	853.848	685.642
284.643	23.620	853.207	684.316
285.657	23.752	853.039	684.632
286.672	23.806	852.116	684.037
287.687	23.245	851.522	681.339
288.701	23.511	851.469	682.262
289.716	24.019	851.091	683.850
290.730	23.729	850.051	681.842
291.745	23.505	849.464	680.452
292.760	23.414	848.465	679.243
293.774	23.253	848.067	678.245
294.789	24.034	848.686	681.673
295.803	24.890	848.448	684.699
296.818	24.924	847.878	684.307
297.833	25.065	847.119	684.171
298.847	24.598	846.470	681.805
299.862	24.314	845.717	680.058
300.876	24.518	844.782	680.022
301.891	24.802	844.684	680.962
302.906	24.818	844.241	680.607
303.920	24.615	842.744	678.569
304.935	24.383	842.387	677.340
305.949	24.604	842.522	678.227
306.964	24.959	841.272	678.506
307.979	24.618	840.947	676.892
308.993	24.435	840.848	676.063
310.008	24.656	840.926	676.900
311.022	25.011	839.950	677.397
312.037	24.899	839.162	676.279
313.052	24.602	838.827	674.828
314.066	24.413	838.060	673.437
315.081	23.975	836.420	670.411
316.095	23.058	835.386	666.072
317.110	23.598	835.343	668.010
318.125	24.421	835.866	671.467
319.139	24.161	834.597	669.412
320.154	23.174	832.376	663.872
321.168	22.550	831.917	661.106
322.183	23.131	832.137	663.402
323.197	23.858	832.932	666.705
324.212	24.357	832.391	668.080
325.227	24.488	832.024	668.217
326.241	24.615	831.643	668.326
327.256	24.591	831.065	667.715
328.270	24.422	830.523	666.588
329.285	24.366	829.552	665.540
330.300	24.261	828.918	664.583
331.314	24.044	827.782	662.803
332.329	24.026	827.660	662.583
333.343	24.464	826.974	663.602
334.358	24.729	826.924	664.487
335.373	24.684	826.178	663.664
336.387	24.760	826.008	663.748
337.402	25.074	825.261	664.255
338.416	25.084	825.276	664.245
339.431	25.225	824.674	664.225
340.446	25.038	824.123	663.030
341.460	25.297	823.417	663.362
342.475	25.378	822.885	663.171
343.489	25.182	822.048	661.715
344.504	25.167	821.625	661.263
345.519	25.285	821.677	661.681
346.533	25.352	821.777	661.947
347.548	25.527	820.704	661.670
348.562	25.632	820.291	661.663
349.577	25.557	819.422	660.631
350.592	25.453	819.123	659.947
351.606	25.394	818.652	659.295
352.621	25.496	817.806	658.927
353.635	25.384	817.469	658.188
354.650	25.422	816.446	657.446
355.665	25.034	815.594	655.282
356.679	24.036	813.976	650.281
357.694	23.786	813.724	649.107
358.708	24.417	813.839	651.448
359.723	24.490	813.210	651.150
360.738	24.542	813.410	651.444
361.752	25.075	812.920	652.935
362.767	25.098	812.514	652.635
363.781	25.382	812.556	653.647
364.796	25.646	812.611	654.592
365.810	25.703	812.207	654.417
366.825	25.817	811.898	654.523
367.840	25.748	811.289	653.723
368.854	25.711	810.688	653.047
369.869	25.235	809.626	650.409
370.883	25.097	808.839	649.220
371.898	25.138	808.594	649.113
372.913	25.199	807.793	648.635
373.927	25.263	807.122	648.271
374.942	25.380	806.481	648.121
375.956	25.508	805.947	648.094
376.971	25.560	805.703	648.028
377.986	25.722	804.810	647.836
379.000	26.035	804.628	648.758
380.015	25.953	804.227	648.082
381.029	25.639	803.521	646.328
382.044	25.570	803.026	645.627
383.059	25.681	802.681	645.691
384.073	25.950	801.983	646.034
385.088	25.883	801.743	645.544
386.102	25.877	801.231	645.053
387.117	25.725	800.568	643.919
388.132	25.544	800.020	642.776
389.146	25.449	799.046	641.597
390.161	24.873	798.322	638.902
391.175	24.722	798.428	638.393
392.190	25.498	798.085	640.828
393.205	25.616	797.586	640.792
394.219	24.537	796.009	635.629
395.234	22.868	793.741	627.836
396.248	22.165	792.452	624.264
397.263	23.010	793.500	628.035
398.278	24.895	794.693	635.625
399.292	25.542	794.847	637.991
400.307	25.093	793.997	635.658
401.321	25.077	793.272	634.964
402.336	25.061	793.233	634.820
403.350	25.512	793.043	636.208
404.365	25.837	793.121	637.366
405.380	26.212	792.823	638.397
406.394	26.417	792.434	638.750
407.409	26.579	792.348	639.198
408.423	26.438	791.677	638.101
409.438	26.408	791.136	637.502
410.453	26.499	790.535	637.284
411.467	26.523	790.304	637.126
412.482	26.561	789.765	636.767
413.496	26.397	789.227	635.701
414.511	26.516	788.892	635.793
415.526	26.672	788.214	635.736
416.540	26.593	788.066	635.285
417.555	26.406	787.639	634.228
418.569	26.262	786.705	632.915
419.584	26.232	786.001	632.190
420.599	26.307	785.734	632.180
421.613	84.081	1239.477	1303.626
422.628	71.246	1305.595	1303.775
