DTS Sentinel unit serial number:	SN413079Multiplexer serial number:	ORYXHardware model number:	OX4-SRSoftware version number:	ORYX F/W v4.00 Oryx Data Collector v3.7.2.0data status	okinstallation	princeton_trtdifferential loss correction	single-endedforward channel	channel 3reverse channel	N/Adate	2019/09/10time	16:22:11forward acquisition time	60.00reverse acquisition time	0.00gamma	496.2192k internal	0.2298k external	0.2298temperature offset calibration	0.9912default loss term (dB/km)	0.3790temperature slope calibration	1.0000multiplexer offset coefficient	1.0000multiplexer slope coefficient	1.0000fibre end	0.00T internal ref (°C)	38.19T ext. ref 1 (°C)	-0.25T ext. ref 2 (°C)	30.85length (m)	temperature (°C)	Stokes	anti-Stokes-747.200	-17.388	-0.078	0.050
-746.185	-121.766	0.311	-0.052
-745.171	-52.496	-0.106	0.050
-744.156	-199.617	-0.203	0.001
-743.142	-200.000	-0.043	-0.339
-742.127	-44.312	0.045	0.023
-741.112	0.244	-0.105	0.076
-740.098	-200.000	0.024	0.304
-739.083	-67.457	-0.318	-0.127
-738.069	117.577	0.097	0.122
-737.054	-129.917	-0.196	0.027
-736.039	300.740	-0.119	-0.224
-735.025	-104.822	-0.081	-0.019
-734.010	-81.551	-0.250	-0.084
-732.996	-121.084	0.072	0.012
-731.981	2.462	-0.192	-0.142
-730.966	353.397	0.082	-0.166
-729.952	245.466	-0.251	-0.431
-728.937	-83.209	0.179	-0.059
-727.923	-144.810	-0.175	0.016
-726.908	-4.728	0.091	-0.064
-725.894	-134.279	0.042	-0.005
-724.879	-88.191	-0.158	0.048
-723.864	42.722	0.237	-0.221
-722.850	-92.989	-0.133	-0.038
-721.835	605.246	0.118	-0.301
-720.821	162.928	-0.189	0.271
-719.806	-12.080	-0.052	-0.035
-718.791	462.848	-0.137	-0.311
-717.777	241.210	0.140	0.238
-716.762	-200.000	0.005	0.187
-715.748	-74.519	0.338	-0.124
-714.733	800.000	0.083	0.250
-713.718	339.509	-0.047	0.093
-712.704	-157.162	-0.066	-0.004
-711.689	335.504	-0.092	-0.182
-710.675	800.000	-0.017	-0.055
-709.660	-200.000	0.001	-0.304
-708.645	-200.000	0.002	0.071
-707.631	-126.180	-0.223	-0.034
-706.616	22.316	-0.148	0.123
-705.602	-112.378	0.071	0.015
-704.587	23.685	-0.067	-0.056
-703.572	518.288	-0.084	-0.202
-702.558	92.270	-0.031	0.036
-701.543	519.379	-0.225	0.536
-700.529	293.153	0.094	0.174
-699.514	306.248	-0.138	-0.261
-698.499	-24.188	-0.230	-0.140
-697.485	210.805	-0.172	0.276
-696.470	-200.000	0.021	-0.197
-695.456	800.000	-0.050	-0.162
-694.441	800.000	-0.146	-0.410
-693.426	-200.000	0.005	-0.186
-692.412	70.618	0.170	0.179
-691.397	163.331	0.066	-0.095
-690.383	-140.487	0.291	0.031
-689.368	-25.606	-0.144	-0.086
-688.354	-65.179	0.063	0.026
-687.339	800.000	0.054	0.185
-686.324	800.000	-0.063	0.225
-685.310	-59.187	0.270	0.118
-684.295	402.280	0.023	0.050
-683.281	381.679	0.069	-0.145
-682.266	-200.000	0.032	-0.172
-681.251	130.284	-0.069	-0.090
-680.237	-200.000	0.060	0.271
-679.222	295.497	-0.118	0.220
-678.208	-200.000	-0.016	0.146
-677.193	800.000	-0.074	-0.286
-676.178	124.865	-0.197	-0.252
-675.164	-120.240	-0.229	-0.040
-674.149	-200.000	-0.005	0.043
-673.135	108.959	-0.324	-0.395
-672.120	-15.185	0.267	-0.174
-671.105	800.000	-0.055	-0.215
-670.091	50.972	0.237	0.229
-669.076	-57.204	-0.289	-0.129
-668.062	-200.000	-0.062	-0.313
-667.047	-92.560	-0.284	0.081
-666.032	-40.122	-0.227	-0.120
-665.018	-200.000	0.007	-0.053
-664.003	-134.223	-0.283	-0.036
-662.989	-200.000	-0.060	0.341
-661.974	281.271	0.088	0.161
-660.959	322.831	-0.122	0.236
-659.945	-116.110	0.255	0.048
-658.930	20.986	0.090	0.074
-657.916	-128.907	-0.322	0.046
-656.901	63.328	0.187	-0.191
-655.886	-12.222	0.422	-0.281
-654.872	-17.881	0.298	-0.190
-653.857	96.090	0.151	0.176
-652.843	-200.000	-0.049	0.374
-651.828	-33.692	-0.072	-0.041
-650.814	-174.370	-0.279	0.008
-649.799	-200.000	-0.047	-0.236
-648.784	63.601	0.059	-0.060
-647.770	99.975	-0.062	0.073
-646.755	490.543	0.027	0.064
-645.741	-123.724	-0.242	-0.039
-644.726	-200.000	-0.000	0.188
-643.711	76.889	0.121	0.130
-642.697	141.369	0.145	-0.195
-641.682	168.121	0.040	-0.058
-640.668	-56.710	-0.193	0.087
-639.653	-4.867	-0.088	-0.062
-638.638	-101.318	0.368	0.091
-637.624	-86.689	-0.069	-0.022
-636.609	16.146	-0.121	0.097
-635.595	-52.629	0.500	0.235
-634.580	84.445	0.109	-0.121
-633.565	800.000	0.058	-0.207
-632.551	-80.164	-0.383	-0.130
-631.536	-121.731	-0.394	-0.066
-630.522	-200.000	-0.013	0.204
-629.507	-44.470	0.385	-0.196
-628.492	355.583	0.081	0.164
-627.478	135.550	0.139	-0.184
-626.463	10.254	-0.168	-0.130
-625.449	79.440	0.158	0.172
-624.434	-190.124	-0.344	0.004
-623.419	623.087	0.029	0.075
-622.405	-142.728	-0.160	-0.016
-621.390	-200.000	0.001	-0.251
-620.376	-120.863	0.368	0.063
-619.361	-115.415	-0.344	-0.066
-618.346	-200.000	-0.014	0.174
-617.332	1.770	-0.237	0.173
-616.317	60.391	0.148	-0.149
-615.303	-86.446	0.122	-0.038
-614.288	7.683	0.209	0.159
-613.273	800.000	-0.080	-0.337
-612.259	-97.338	-0.064	0.017
-611.244	196.989	-0.073	-0.114
-610.230	-200.000	0.004	0.031
-609.215	426.739	0.182	0.399
-608.201	-94.341	-0.357	-0.099
-607.186	90.719	-0.060	0.068
-606.171	-34.094	0.234	0.131
-605.157	-78.168	-0.091	-0.032
-604.142	-12.759	0.083	-0.055
-603.128	-84.541	-0.038	-0.012
-602.113	118.605	0.136	0.170
-601.098	128.795	0.148	-0.192
-600.084	-54.736	0.187	0.086
-599.069	800.000	0.035	-0.127
-598.055	-200.000	0.005	-0.024
-597.040	-200.000	-0.011	0.082
-596.025	-149.495	-0.141	0.011
-595.011	800.000	0.090	-0.349
-593.996	76.345	-0.174	-0.187
-592.982	-24.824	-0.264	-0.159
-591.967	248.751	0.199	0.343
-590.952	-39.386	-0.162	-0.086
-589.938	-200.000	0.036	-0.162
-588.923	-105.719	0.263	0.060
-587.909	79.386	0.059	0.064
-586.894	-94.556	-0.095	-0.026
-585.879	-142.425	0.367	0.037
-584.865	156.220	0.171	-0.239
-583.850	-45.090	0.112	0.057
-582.836	288.599	0.169	-0.311
-581.821	7.550	-0.252	-0.191
-580.806	139.251	-0.159	-0.213
-579.792	183.300	0.104	0.156
-578.777	-123.147	0.305	0.050
-577.763	-164.226	-0.058	0.003
-576.748	800.000	-0.125	-0.404
-575.733	212.916	-0.112	-0.179
-574.719	-50.539	-0.148	-0.071
-573.704	-24.689	-0.150	-0.090
-572.690	-200.000	0.025	0.148
-571.675	800.000	-0.068	-0.251
-570.661	734.426	-0.044	-0.121
-569.646	111.190	-0.089	0.108
-568.631	-39.973	-0.306	-0.162
-567.617	-124.300	0.361	0.057
-566.602	57.825	0.080	-0.080
-565.588	78.619	-0.151	-0.164
-564.573	249.620	-0.135	-0.232
-563.558	338.909	0.175	-0.345
-562.544	-2.005	-0.191	0.136
-561.529	347.262	-0.084	-0.167
-560.515	-74.511	0.548	-0.200
-559.500	42.551	-0.181	-0.167
-558.485	-103.997	0.411	-0.097
-557.471	100.508	0.205	0.242
-556.456	-107.911	0.165	0.036
-555.442	-8.297	-0.118	-0.080
-554.427	14.184	0.239	-0.188
-553.412	-118.571	-0.117	-0.021
-552.398	95.179	-0.069	-0.080
-551.383	-200.000	0.006	-0.163
-550.369	466.457	-0.153	0.346
-549.354	-98.752	-0.145	0.037
-548.339	-175.689	0.089	-0.002
-547.325	238.562	-0.132	0.221
-546.310	800.000	-0.016	0.066
-545.296	-4.037	-0.406	0.285
-544.281	266.282	-0.201	0.356
-543.266	-145.575	0.133	0.012
-542.252	-73.382	-0.290	-0.107
-541.237	-24.594	-0.231	-0.139
-540.223	-24.890	-0.261	0.157
-539.208	-128.351	-0.406	0.058
-538.193	-200.000	-0.014	-0.464
-537.179	22.463	0.175	0.145
-536.164	-117.176	0.071	-0.013
-535.150	-152.025	-0.130	-0.010
-534.135	221.968	0.115	0.188
-533.121	-200.000	-0.052	0.321
-532.106	-69.978	0.130	0.050
-531.091	-166.493	-0.106	0.004
-530.077	-43.149	-0.107	-0.055
-529.062	800.000	0.169	-0.487
-528.048	800.000	0.052	-0.216
-527.033	800.000	0.036	0.109
-526.018	484.628	-0.100	0.229
-525.004	256.760	-0.080	-0.139
-523.989	265.648	-0.097	-0.172
-522.975	188.153	-0.160	-0.243
-521.960	800.000	-0.017	-0.076
-520.945	-200.000	0.036	-0.362
-519.931	256.516	0.110	0.191
-518.916	800.000	0.019	0.059
-517.902	138.301	0.003	0.004
-516.887	16.884	0.186	-0.149
-515.872	5.484	0.082	-0.061
-514.858	-200.000	-0.160	-0.000
-513.843	-200.000	0.047	-0.242
-512.829	604.213	-0.127	-0.321
-511.814	-41.649	0.205	0.106
-510.799	-87.230	-0.343	0.106
-509.785	-98.204	-0.346	0.090
-508.770	675.973	0.043	-0.114
-507.756	-71.170	0.110	-0.042
-506.741	81.191	0.147	-0.160
-505.726	-138.765	-0.041	0.005
-504.712	-111.986	-0.394	-0.080
-503.697	800.000	-0.089	-0.254
-502.683	43.974	0.333	0.308
-501.668	19.835	-0.039	0.032
-500.653	267.043	-0.168	-0.297
-499.639	-200.000	-0.036	0.160
-498.624	-119.577	-0.570	-0.100
-497.610	191.727	0.176	0.268
-496.595	-131.521	-0.268	0.036
-495.581	800.000	-0.010	-0.040
-494.566	250.288	0.307	0.526
-493.551	-52.364	0.193	-0.090
-492.537	-71.121	-0.133	0.050
-491.522	800.000	-0.062	-0.183
-490.508	800.000	0.063	-0.259
-489.493	-37.512	-0.107	-0.058
-488.478	507.007	-0.145	-0.341
-487.464	517.004	0.211	-0.499
-486.449	583.921	0.049	0.121
-485.435	189.213	-0.077	0.117
-484.420	-134.031	-0.276	-0.035
-483.405	59.048	0.060	-0.060
-482.391	-116.248	-0.100	0.019
-481.376	41.455	0.035	0.032
-480.362	-77.493	-0.164	0.058
-479.347	319.961	0.126	-0.242
-478.332	-155.378	-0.419	-0.027
-477.318	392.433	-0.142	0.299
-476.303	-52.875	0.130	0.061
-475.289	-141.008	0.193	0.020
-474.274	800.000	-0.064	-0.193
-473.259	-150.002	-0.246	0.019
-472.245	318.951	0.116	-0.222
-471.230	-154.336	-0.261	0.018
-470.216	-60.519	-0.036	0.015
-469.201	73.299	0.141	-0.149
-468.186	-200.000	0.007	-0.177
-467.172	341.897	0.124	-0.246
-466.157	414.775	0.031	-0.067
-465.143	-113.147	0.214	0.043
-464.128	-103.009	-0.599	-0.143
-463.113	-200.000	0.012	0.129
-462.099	-143.208	-0.504	0.049
-461.084	52.687	0.267	-0.257
-460.070	75.898	-0.164	0.175
-459.055	-155.557	0.204	0.013
-458.040	598.537	-0.036	0.091
-457.026	-200.000	-0.004	-0.046
-456.011	369.334	-0.088	-0.181
-454.997	-12.956	-0.053	0.035
-453.982	-200.000	0.006	0.214
-452.968	-76.350	0.351	0.125
-451.953	-66.044	0.277	-0.112
-450.938	225.112	0.255	0.417
-449.924	-200.000	-0.002	0.014
-448.909	-71.216	-0.339	0.128
-447.895	-117.016	0.153	0.028
-446.880	87.054	0.177	0.197
-445.865	-200.000	-0.008	0.101
-444.851	-121.044	-0.160	-0.027
-443.836	-200.000	0.216	0.000
-442.822	325.040	-0.116	-0.224
-441.807	221.591	0.063	0.102
-440.792	800.000	-0.115	0.415
-439.778	-10.103	0.095	0.063
-438.763	628.421	-0.152	-0.388
-437.749	-45.451	0.301	0.150
-436.734	112.643	-0.061	-0.075
-435.719	-6.911	-0.271	-0.185
-434.705	594.306	-0.087	0.217
-433.690	-200.000	0.034	0.231
-432.676	-200.000	0.036	0.173
-431.661	348.613	0.093	0.185
-430.646	-89.961	-0.151	0.045
-429.632	-80.081	-0.062	0.021
-428.617	-200.000	0.037	0.205
-427.603	40.059	-0.331	0.300
-426.588	87.222	0.194	0.216
-425.573	800.000	0.088	0.298
-424.559	-90.018	0.240	-0.071
-423.544	-147.287	0.374	-0.032
-422.530	247.524	0.093	0.159
-421.515	-200.000	0.042	0.246
-420.500	-148.224	0.129	0.011
-419.486	-200.000	0.036	-0.243
-418.471	-63.394	0.086	-0.036
-417.457	94.114	-0.036	-0.042
-416.442	-200.000	0.005	0.431
-415.428	122.043	0.103	0.130
-414.413	-30.892	0.035	-0.020
-413.398	145.225	0.070	-0.094
-412.384	-63.892	0.152	0.063
-411.369	609.971	0.109	-0.274
-410.355	-200.000	0.019	-0.296
-409.340	144.989	-0.088	-0.119
-408.325	-155.669	-0.460	0.030
-407.311	-39.168	0.267	0.141
-406.296	4.800	0.187	-0.138
-405.282	800.000	0.046	-0.178
-404.267	-132.236	0.371	-0.048
-403.252	-195.298	0.240	0.002
-402.238	24.691	0.136	-0.114
-401.223	405.813	0.156	0.331
-400.209	800.000	-0.139	0.406
-399.194	234.868	-0.181	-0.300
-398.179	139.225	-0.102	-0.135
-397.165	800.000	-0.083	-0.309
-396.150	80.319	0.052	-0.057
-395.136	432.222	0.041	0.091
-394.121	-17.899	0.283	-0.179
-393.106	132.224	0.155	-0.202
-392.092	232.666	0.040	0.066
-391.077	-200.000	0.036	0.207
-390.063	800.000	-0.175	0.502
-389.048	5.235	0.122	-0.091
-388.033	-200.000	-0.039	-0.490
-387.019	-100.352	0.377	-0.094
-386.004	-43.266	-0.165	0.084
-384.990	-8.857	0.115	0.078
-383.975	-122.878	-0.084	-0.014
-382.960	749.331	0.006	-0.016
-381.946	-27.935	-0.267	-0.156
-380.931	-200.000	-0.037	0.345
-379.917	-133.602	0.061	0.008
-378.902	-170.883	0.133	-0.005
-377.888	102.984	0.173	-0.204
-376.873	92.825	0.197	0.223
-375.858	-69.263	0.298	-0.115
-374.844	-35.353	-0.186	0.102
-373.829	-31.257	0.086	0.049
-372.815	-200.000	-0.033	0.273
-371.800	-17.965	-0.216	0.136
-370.785	-35.438	-0.090	0.049
-369.771	-103.149	-0.111	0.026
-368.756	115.343	-0.232	0.285
-367.742	390.086	-0.237	-0.494
-366.727	125.001	0.192	0.244
-365.712	143.597	-0.196	0.262
-364.698	-98.672	0.240	-0.062
-363.683	676.219	0.082	0.213
-362.669	-200.000	-0.002	-0.074
-361.654	800.000	-0.066	0.246
-360.639	10.465	0.271	-0.207
-359.625	53.028	-0.074	-0.072
-358.610	88.396	-0.121	0.136
-357.596	-3.112	0.327	-0.229
-356.581	-76.525	-0.304	-0.107
-355.566	67.111	-0.181	0.186
-354.552	-159.531	-0.099	0.006
-353.537	125.315	0.188	0.238
-352.523	-10.943	0.131	-0.087
-351.508	46.594	-0.206	-0.192
-350.493	50.662	-0.356	0.338
-349.479	101.405	0.116	0.136
-348.464	53.137	0.254	0.245
-347.450	27.932	0.245	0.208
-346.435	-13.352	0.213	-0.139
-345.420	-200.000	-0.028	0.177
-344.406	800.000	0.086	-0.249
-343.391	94.111	-0.197	-0.225
-342.377	418.016	0.041	0.089
-341.362	-48.453	-0.226	-0.110
-340.348	-200.000	-0.006	0.102
-339.333	365.151	-0.165	0.334
-338.318	-31.885	-0.119	-0.067
-337.304	56.335	-0.054	0.053
-336.289	632.763	-0.149	0.379
-335.275	-200.000	-0.039	0.225
-334.260	-200.000	0.009	0.239
-333.245	800.000	0.034	0.097
-332.231	11.299	0.091	-0.070
-331.216	-40.074	-0.241	-0.126
-330.202	-112.286	0.279	0.056
-329.187	-121.761	0.193	-0.032
-328.172	-169.620	-0.182	-0.007
-327.158	-10.338	-0.307	0.205
-326.143	-4.769	0.045	0.031
-325.129	723.338	0.083	-0.222
-324.114	72.613	-0.041	-0.043
-323.099	-78.484	0.114	-0.039
-322.085	135.243	0.146	-0.190
-321.070	-75.083	-0.210	-0.075
-320.056	248.887	0.148	-0.251
-319.041	-200.000	-0.041	0.182
-318.026	-73.507	0.234	0.086
-317.012	800.000	-0.058	0.225
-315.997	70.505	-0.231	-0.240
-314.983	714.329	-0.078	-0.207
-313.968	10.231	-0.084	-0.064
-312.953	-72.578	-0.218	-0.081
-311.939	-198.146	0.408	0.002
-310.924	171.808	0.221	0.318
-309.910	-16.930	0.271	0.172
-308.895	-185.421	-0.400	-0.006
-307.880	183.889	-0.075	0.111
-306.866	240.112	-0.165	0.276
-305.851	205.316	0.124	0.193
-304.837	800.000	0.089	0.369
-303.822	6.062	0.029	-0.022
-302.807	347.323	-0.192	-0.379
-301.793	-172.034	0.113	-0.004
-300.778	208.826	0.074	0.116
-299.764	-144.317	-0.253	0.024
-298.749	22.497	-0.036	-0.030
-297.735	-200.000	0.050	-0.288
-296.720	-200.000	0.043	-0.491
-295.705	-55.141	0.163	0.074
-294.691	-4.636	0.146	0.101
-293.676	57.049	-0.267	-0.261
-292.662	800.000	0.053	0.213
-291.647	-89.922	-0.136	0.040
-290.632	-200.000	0.017	-0.209
-289.618	-89.078	0.066	-0.020
-288.603	273.278	0.104	0.184
-287.589	-200.000	-0.008	-0.068
-286.574	-200.000	0.003	0.109
-285.559	596.660	0.110	-0.274
-284.545	21.655	0.214	-0.175
-283.530	-132.077	-0.121	0.016
-282.516	-78.316	0.051	0.017
-281.501	132.803	0.253	0.328
-280.486	-170.118	0.182	0.006
-279.472	606.701	-0.091	-0.226
-278.457	-14.152	0.098	0.063
-277.443	-181.106	-0.176	-0.004
-276.428	-119.373	-0.410	-0.071
-275.413	-200.000	0.015	0.231
-274.399	-115.081	0.042	0.008
-273.384	-48.809	0.034	-0.016
-272.370	111.333	-0.131	0.159
-271.355	-105.341	0.107	0.024
-270.340	-200.000	0.014	0.183
-269.326	-200.000	0.077	-0.612
-268.311	-200.000	0.011	-0.326
-267.297	800.000	-0.087	0.291
-266.282	-10.317	-0.245	-0.163
-265.267	-90.450	0.171	0.050
-264.253	215.728	-0.126	0.201
-263.238	-5.696	0.263	0.180
-262.224	-14.731	0.201	0.130
-261.209	-140.359	-0.102	-0.011
-260.195	-107.230	-0.209	0.046
-259.180	118.924	0.046	-0.057
-258.165	-83.235	-0.112	-0.036
-257.151	-138.587	0.141	0.015
-256.136	-33.001	-0.217	-0.121
-255.122	-56.448	-0.296	-0.132
-254.107	144.280	0.070	0.094
-253.092	-23.867	-0.424	-0.254
-252.078	510.807	-0.168	-0.391
-251.063	-162.002	0.403	0.020
-250.049	-27.299	-0.398	-0.232
-249.034	5.792	-0.051	0.038
-248.019	-200.000	0.040	-0.203
-247.005	800.000	-0.092	0.324
-245.990	6.227	0.185	-0.137
-244.976	-26.924	0.240	-0.140
-243.961	-151.089	0.381	-0.029
-242.946	50.545	0.144	-0.137
-241.932	-58.126	0.193	0.084
-240.917	-164.703	-0.175	0.008
-239.903	-140.434	0.360	-0.038
-238.888	408.632	0.091	0.192
-237.873	-73.680	0.161	0.059
-236.859	-160.425	-0.162	-0.009
-235.844	-121.576	-0.412	0.068
-234.830	299.386	-0.167	0.308
-233.815	-66.388	0.021	-0.008
-232.800	-200.000	0.034	-0.394
-231.786	48.479	-0.113	-0.106
-230.771	200.834	-0.013	-0.020
-229.757	401.098	-0.048	0.100
-228.742	-107.057	0.202	0.045
-227.727	800.000	-0.049	0.147
-226.713	-42.260	0.210	-0.107
-225.698	86.793	0.262	0.289
-224.684	-126.014	-0.221	-0.033
-223.669	267.135	0.118	-0.206
-222.655	2.011	0.176	-0.127
-221.640	-200.000	0.029	0.291
-220.625	-65.915	0.234	-0.094
-219.611	-200.000	0.027	-0.131
-218.596	-200.000	0.012	0.061
-217.582	-24.610	-0.336	-0.200
-216.567	10.045	-0.107	0.081
-215.552	137.896	-0.073	0.095
-214.538	-125.749	-0.531	-0.080
-213.523	-76.644	-0.104	0.037
-212.509	-0.756	0.183	0.130
-211.494	32.870	-0.269	0.233
-210.479	32.870	-0.321	0.277
-209.465	376.337	0.033	0.068
-208.450	28.865	0.218	-0.185
-207.436	348.566	-0.046	0.092
-206.421	800.000	0.035	0.102
-205.406	-88.950	0.109	0.032
-204.392	-48.166	-0.290	0.140
-203.377	-74.701	0.243	-0.087
-202.363	467.587	-0.089	0.199
-201.348	137.793	0.307	0.401
-200.333	151.829	0.117	0.160
-199.319	-87.214	0.085	0.026
-198.304	-200.000	0.001	-0.092
-197.290	187.259	-0.132	0.197
-196.275	504.464	0.070	-0.161
-195.260	-36.534	-0.236	0.127
-194.246	-169.344	0.145	-0.005
-193.231	-129.621	-0.097	-0.013
-192.217	-120.342	0.209	0.035
-191.202	6.999	-0.252	0.188
-190.187	19.648	0.094	-0.076
-189.173	5.781	0.226	-0.167
-188.158	47.255	-0.137	0.127
-187.144	-200.000	0.037	0.246
-186.129	35.355	0.054	0.048
-185.114	-95.476	-0.190	0.051
-184.100	-126.195	0.316	0.047
-183.085	288.453	0.138	0.249
-182.071	82.447	0.190	-0.206
-181.056	102.282	-0.133	0.155
-180.042	-200.000	-0.037	-0.250
-179.027	-200.000	-0.014	0.152
-178.012	-200.000	0.009	-0.139
-176.998	-38.371	0.229	-0.121
-175.983	-106.489	-0.255	0.057
-174.969	165.794	-0.196	-0.277
-173.954	-69.953	-0.037	0.014
-172.939	48.432	0.311	-0.291
-171.925	743.458	0.095	-0.256
-170.910	305.541	0.117	0.217
-169.896	145.211	-0.089	0.118
-168.881	-77.745	-0.179	0.062
-167.866	-79.691	-0.175	-0.059
-166.852	71.920	-0.149	0.155
-165.837	-137.609	0.295	0.033
-164.823	-196.109	0.264	-0.002
-163.808	-200.000	-0.006	0.314
-162.793	307.722	-0.050	-0.093
-161.779	230.452	-0.078	0.127
-160.764	-100.457	-0.184	-0.045
-159.750	-81.626	0.306	0.100
-158.735	40.652	0.320	0.288
-157.720	377.992	-0.058	-0.118
-156.706	-59.391	0.241	0.103
-155.691	-177.387	-0.228	-0.006
-154.677	-97.827	-0.199	0.051
-153.662	-4.071	-0.051	-0.035
-152.647	-200.000	0.040	-0.257
-151.633	0.003	0.235	-0.167
-150.618	800.000	-0.056	0.160
-149.604	-129.196	0.290	-0.040
-148.589	-45.056	-0.099	0.049
-147.574	167.487	-0.148	0.210
-146.560	-28.290	0.388	-0.223
-145.545	-200.000	-0.009	0.149
-144.531	69.840	0.267	0.274
-143.516	-26.785	0.306	-0.178
-142.502	-162.339	0.225	-0.011
-141.487	-101.623	-0.337	0.081
-140.472	14.611	-0.063	-0.049
-139.458	-172.539	0.067	0.002
-138.443	-110.423	0.132	0.027
-137.429	166.108	-0.086	-0.121
-136.414	800.000	-0.031	-0.095
-135.399	286.949	0.125	-0.224
-134.385	-10.082	-0.059	-0.039
-133.370	294.309	0.102	-0.185
-132.356	1.700	0.108	-0.077
-131.341	-92.884	-0.112	-0.031
-130.326	-200.000	-0.032	0.347
-129.312	68.645	-0.189	0.193
-128.297	-47.717	0.261	-0.126
-127.283	393.361	-0.070	-0.144
-126.268	147.023	-0.038	-0.050
-125.253	-145.110	-0.217	0.020
-124.239	-200.000	0.016	0.118
-123.224	195.169	-0.129	-0.196
-122.210	-54.780	0.274	-0.123
-121.195	253.671	-0.131	0.224
-120.180	800.000	0.025	0.084
-119.166	-200.000	-0.007	0.255
-118.151	9.224	0.103	-0.077
-117.137	-33.222	0.204	-0.112
-116.122	-112.069	0.261	-0.052
-115.107	-200.000	-0.030	-0.375
-114.093	223.565	0.221	-0.354
-113.078	99.986	0.132	0.153
-112.064	12.164	0.126	-0.097
-111.049	-114.579	-0.064	0.012
-110.034	-35.024	-0.211	-0.115
-109.020	-26.427	-0.104	-0.061
-108.005	-109.289	-0.228	-0.048
-106.991	800.000	-0.020	0.068
-105.976	87.644	-0.119	-0.131
-104.962	-38.000	-0.173	-0.091
-103.947	142.521	0.200	0.265
-102.932	-38.978	-0.114	-0.060
-101.918	-12.966	-0.228	-0.148
-100.903	-200.000	-0.070	-0.308
-99.889	153.253	-0.204	-0.278
-98.874	-72.691	-0.294	0.108
-97.859	800.000	-0.025	-0.102
-96.845	280.765	0.146	0.261
-95.830	-7.293	-0.188	-0.127
-94.816	-144.169	0.210	-0.020
-93.801	100.713	-0.365	0.423
-92.786	79.042	0.275	0.293
-91.772	-101.125	-0.151	0.037
-90.757	141.711	0.157	-0.207
-89.743	161.422	-0.136	-0.190
-88.728	800.000	-0.047	-0.130
-87.713	-200.000	0.023	0.190
-86.699	-25.579	0.041	-0.024
-85.684	-200.000	0.035	0.358
-84.670	800.000	0.113	0.313
-83.655	-90.288	0.274	-0.079
-82.640	26.084	-0.162	0.134
-81.626	-143.224	0.105	0.010
-80.611	291.538	-0.015	0.027
-79.597	-200.000	-0.053	0.370
-78.582	27.118	0.194	-0.162
-77.567	-200.000	-0.058	0.258
-76.553	116.696	-0.303	0.370
-75.538	15.659	-0.141	0.110
-74.524	315.223	-0.162	0.304
-73.509	-14.104	0.197	0.126
-72.494	-200.000	0.015	-0.253
-71.480	123.893	-0.170	0.212
-70.465	-200.000	-0.049	-0.260
-69.451	230.924	-0.104	0.169
-68.436	88.150	-0.125	0.137
-67.422	800.000	-0.039	0.167
-66.407	60.581	-0.056	-0.055
-65.392	12.704	-0.227	-0.174
-64.378	-32.369	-0.267	-0.148
-63.363	-12.007	-0.263	0.171
-62.349	800.000	0.089	0.311
-61.334	79.574	-0.601	-0.641
-60.319	335.194	0.344	0.663
-59.305	-200.000	0.008	-0.706
-58.290	61.306	0.881	0.870
-57.276	347.283	0.759	1.485
-56.261	-200.000	83.651	500.759
-55.246	549.264	1384.677	3297.696
-54.232	177.551	2639.693	3821.930
-53.217	119.035	2293.308	2817.282
-52.203	48.111	1819.500	1690.411
-51.188	41.176	1624.282	1458.426
-50.173	38.780	1596.247	1415.918
-49.159	54.775	1637.424	1569.574
-48.144	58.970	1656.892	1618.813
-47.130	41.669	1618.982	1457.035
-46.115	38.493	1604.318	1420.767
-45.100	38.273	1600.782	1415.990
-44.086	38.157	1598.960	1413.484
-43.071	38.132	1596.901	1411.424
-42.057	38.101	1595.615	1410.011
-41.042	38.195	1593.449	1408.717
-40.027	38.128	1591.996	1406.890
-39.013	38.147	1590.540	1405.686
-37.998	38.114	1589.002	1404.038
-36.984	38.225	1587.519	1403.470
-35.969	38.230	1586.211	1402.291
-34.954	38.164	1585.068	1400.747
-33.940	38.188	1583.305	1399.309
-32.925	38.256	1581.409	1398.061
-31.911	38.214	1580.478	1396.886
-30.896	38.215	1579.256	1395.759
-29.881	38.233	1578.046	1394.761
-28.867	38.271	1576.655	1393.744
-27.852	38.218	1575.554	1392.339
-26.838	38.322	1573.552	1391.255
-25.823	38.288	1571.913	1389.511
-24.809	38.285	1570.106	1387.838
-23.794	38.170	1568.982	1385.973
-22.779	38.278	1567.727	1385.574
-21.765	38.265	1566.805	1384.615
-20.750	38.202	1565.208	1382.701
-19.736	38.314	1563.728	1382.128
-18.721	38.226	1563.022	1380.829
-17.706	38.154	1561.453	1378.883
-16.692	38.207	1560.420	1378.285
-15.677	38.116	1559.589	1376.857
-14.663	38.124	1558.619	1376.001
-13.648	38.141	1557.515	1375.092
-12.633	38.074	1556.640	1373.791
-11.619	38.126	1555.588	1373.176
-10.604	38.108	1554.496	1372.030
-9.590	38.154	1553.372	1371.306
-8.575	38.153	1552.731	1370.683
-7.560	38.138	1551.809	1369.709
-6.546	38.174	1551.239	1369.399
-5.531	38.117	1550.078	1367.921
-4.517	38.067	1549.086	1366.644
-3.502	38.092	1548.301	1366.070
-2.487	38.243	1546.419	1365.410
-1.473	38.111	1545.597	1363.707
-0.458	38.111	1544.159	1362.387
0.556	35.780	1534.157	1351.261
1.571	32.842	1504.852	1305.047
2.586	28.726	1437.764	1219.495
3.600	26.714	1349.772	1132.199
4.615	25.186	1301.708	1082.571
5.629	22.260	1244.421	1017.930
6.644	11.769	1151.144	885.075
7.659	1.877	1101.590	795.474
8.673	-0.091	1094.732	780.244
9.688	-0.324	1091.944	776.978
10.702	-0.266	1090.147	775.934
11.717	-0.329	1088.633	774.459
12.731	4.065	1094.740	801.515
13.746	14.181	1109.313	864.937
14.761	17.894	1112.954	887.028
15.775	15.122	1107.594	868.324
16.790	13.731	1105.100	859.094
17.804	13.360	1104.214	856.410
18.819	13.180	1102.762	854.274
19.834	13.061	1102.131	853.098
20.848	12.965	1101.562	852.085
21.863	12.803	1101.009	850.745
22.877	12.701	1100.386	849.663
23.892	12.718	1099.975	849.355
24.907	12.717	1099.014	848.533
25.921	12.765	1098.287	848.145
26.936	12.796	1097.259	847.439
27.950	12.886	1095.847	846.736
28.965	12.854	1094.649	845.566
29.980	12.782	1093.396	844.159
30.994	12.850	1091.531	842.993
32.009	12.751	1090.434	841.563
33.023	12.835	1089.833	841.454
34.038	12.742	1088.763	840.081
35.053	12.750	1087.750	839.262
36.067	12.912	1086.567	839.100
37.082	12.776	1086.240	838.083
38.096	12.787	1085.378	837.400
39.111	12.908	1084.277	837.089
40.126	12.952	1083.201	836.406
41.140	12.958	1081.761	835.250
42.155	12.914	1080.669	834.115
43.169	12.613	1080.124	832.097
44.184	12.751	1078.422	831.410
45.199	12.779	1077.120	830.472
46.213	12.843	1075.847	829.740
47.228	12.750	1074.935	828.498
48.242	12.755	1073.971	827.707
49.257	12.779	1072.833	826.874
50.271	12.725	1072.492	826.268
51.286	12.832	1070.881	825.491
52.301	12.748	1070.235	824.500
53.315	12.750	1069.109	823.568
54.330	12.712	1068.390	822.751
55.344	12.731	1067.224	821.876
56.359	12.805	1065.793	821.068
57.374	12.761	1065.675	820.683
58.388	12.763	1064.657	819.839
59.403	12.759	1063.813	819.096
60.417	12.887	1062.972	819.015
61.432	12.681	1062.366	817.453
62.447	12.750	1061.347	816.938
63.461	12.837	1060.610	816.731
64.476	12.763	1059.648	815.547
65.490	12.768	1058.739	814.800
66.505	12.865	1057.646	814.367
67.520	12.838	1056.314	813.137
68.534	12.943	1055.369	812.853
69.549	12.874	1054.871	812.061
70.563	12.779	1053.992	810.844
71.578	12.896	1053.624	811.064
72.593	12.822	1052.627	809.860
73.607	12.795	1051.238	808.589
74.622	12.774	1050.671	807.980
75.636	12.862	1049.634	807.539
76.651	12.939	1048.678	807.108
77.666	12.892	1047.667	806.030
78.680	12.808	1047.224	805.207
79.695	12.772	1046.487	804.397
80.709	12.897	1046.012	804.569
81.724	12.748	1045.232	803.168
82.739	12.892	1044.031	802.880
83.753	12.804	1043.621	802.063
84.768	12.853	1042.304	801.216
85.782	12.943	1041.469	800.941
86.797	12.924	1040.312	799.887
87.812	12.828	1040.259	799.313
88.826	12.920	1038.839	798.599
89.841	12.827	1038.090	797.499
90.855	12.885	1037.409	797.188
91.870	12.867	1036.100	796.025
92.884	13.028	1034.977	795.869
93.899	12.957	1034.480	795.074
94.914	12.875	1033.877	794.144
95.928	12.932	1033.065	793.723
96.943	13.036	1032.134	793.438
97.957	12.899	1031.107	791.922
98.972	13.007	1030.354	791.788
99.987	12.883	1029.435	790.421
101.001	12.817	1028.495	789.310
102.016	12.919	1027.872	789.252
103.030	13.139	1026.458	789.148
104.045	12.897	1025.588	787.256
105.060	12.768	1024.460	785.704
106.074	12.842	1023.424	785.193
107.089	12.830	1022.782	784.575
108.103	12.918	1021.989	784.312
109.118	13.010	1021.003	783.926
110.133	12.940	1019.886	782.667
111.147	12.910	1019.067	781.823
112.162	12.922	1018.141	781.103
113.176	12.939	1017.154	780.357
114.191	12.966	1016.009	779.539
115.206	12.933	1015.174	778.673
116.220	12.909	1014.292	777.811
117.235	12.836	1013.149	776.524
118.249	12.906	1012.463	776.261
119.264	12.944	1011.350	775.515
120.279	12.928	1010.074	774.391
121.293	12.880	1009.422	773.598
122.308	12.982	1008.862	773.581
123.322	12.953	1007.536	772.359
124.337	12.964	1006.491	771.543
125.352	12.943	1005.250	770.424
126.366	12.943	1003.633	769.114
127.381	12.860	1002.788	768.012
128.395	12.832	1001.472	766.806
129.410	13.030	1000.469	766.894
130.424	13.063	999.870	766.520
131.439	12.995	998.608	765.168
132.454	12.949	997.345	763.920
133.468	12.873	996.907	763.166
134.483	13.004	996.107	763.088
135.497	12.989	995.256	762.301
136.512	13.005	994.447	761.690
137.527	13.142	993.369	761.429
138.541	13.022	992.149	759.871
139.556	13.127	991.403	759.715
140.570	13.083	990.932	759.086
141.585	13.041	989.745	757.916
142.600	13.207	988.577	757.715
143.614	13.073	988.101	756.672
144.629	13.043	987.204	755.781
145.643	13.053	986.224	755.006
146.658	13.056	985.222	754.185
147.673	12.962	984.121	752.848
148.687	13.052	983.172	752.467
149.702	13.015	982.791	751.939
150.716	13.066	981.501	751.118
151.731	13.152	980.294	750.521
152.746	13.135	979.829	750.022
153.760	13.006	979.231	748.910
154.775	13.004	978.312	748.130
155.789	13.107	977.502	747.913
156.804	13.119	976.585	747.198
157.819	13.028	976.069	746.325
158.833	13.022	975.141	745.525
159.848	13.165	974.279	745.444
160.862	13.034	973.739	744.375
161.877	13.175	972.249	743.803
162.892	13.011	971.714	742.593
163.906	13.114	970.688	742.206
164.921	13.029	970.058	741.275
165.935	13.176	968.331	740.549
166.950	13.039	967.945	739.576
167.964	13.063	966.747	738.703
168.979	13.097	965.926	738.159
169.994	13.149	964.692	737.385
171.008	13.069	963.815	736.295
172.023	13.132	962.907	735.814
173.037	13.027	962.168	734.717
174.052	13.030	961.105	733.856
175.067	13.048	960.453	733.373
176.081	13.071	959.640	732.786
177.096	13.047	958.630	731.847
178.110	13.249	957.132	731.531
179.125	13.201	956.373	730.673
180.140	13.056	955.760	729.501
181.154	13.147	954.971	729.234
182.169	13.162	954.082	728.557
183.183	13.075	953.667	727.792
184.198	13.160	953.002	727.594
185.213	13.111	952.144	726.658
186.227	13.148	951.261	726.087
187.242	13.166	950.410	725.448
188.256	13.145	950.049	725.020
189.271	13.282	948.490	724.366
190.286	13.335	947.976	724.139
191.300	13.246	947.222	723.109
192.315	13.126	946.680	722.108
193.329	13.062	945.786	721.082
194.344	13.085	944.936	720.471
195.359	13.160	944.475	720.381
196.373	13.183	944.199	720.210
197.388	13.242	943.565	719.920
198.402	13.152	943.044	719.064
199.417	13.311	941.936	718.849
200.432	13.061	941.585	717.429
201.446	13.165	941.201	717.527
202.461	13.041	940.596	716.465
203.475	13.181	939.783	716.390
204.490	13.166	938.310	715.138
205.504	12.903	937.999	713.700
206.519	13.117	936.950	713.761
207.534	13.215	936.339	713.656
208.548	13.298	935.662	713.437
209.563	13.183	935.334	712.625
210.577	13.137	934.909	712.042
211.592	13.161	933.725	711.181
212.607	13.263	933.365	711.284
213.621	13.332	932.343	710.738
214.636	13.362	931.557	710.202
215.650	13.272	930.939	709.283
216.665	13.188	930.557	708.568
217.680	13.338	929.822	708.589
218.694	13.348	929.313	708.184
219.709	13.227	928.518	706.995
220.723	13.214	927.922	706.422
221.738	13.302	926.998	706.034
222.753	13.400	926.364	705.905
223.767	13.426	925.288	705.136
224.782	13.436	924.096	704.204
225.796	13.435	923.601	703.765
226.811	13.383	922.888	702.937
227.826	13.331	922.263	702.178
228.840	13.396	921.379	701.717
229.855	13.330	920.555	700.747
230.869	13.395	919.872	700.440
231.884	13.254	919.710	699.661
232.899	13.352	918.385	699.004
233.913	13.345	917.987	698.609
234.928	13.526	916.940	698.515
235.942	13.323	916.638	697.365
236.957	13.403	915.778	696.989
237.972	13.474	914.746	696.440
238.986	13.454	914.172	695.855
240.001	13.460	913.781	695.525
241.015	13.566	912.888	695.225
242.030	13.462	912.401	694.357
243.045	13.536	911.557	693.963
244.059	13.520	910.821	693.275
245.074	13.446	909.867	692.179
246.088	13.460	909.294	691.740
247.103	13.512	908.920	691.613
248.117	13.453	908.174	690.738
249.132	13.543	907.699	690.689
250.147	13.452	906.999	689.717
251.161	13.453	906.075	688.956
252.176	13.458	905.051	688.139
253.190	13.578	904.370	688.058
254.205	13.576	903.697	687.474
255.220	13.614	903.085	687.108
256.234	13.590	902.199	686.271
257.249	13.694	901.151	685.844
258.263	13.660	901.035	685.554
259.278	13.727	900.226	685.155
260.293	13.650	899.729	684.400
261.307	13.581	899.000	683.499
262.322	13.659	898.327	683.249
263.336	13.583	897.752	682.439
264.351	13.690	896.820	682.110
265.366	13.575	896.486	681.323
266.380	13.600	895.669	680.743
267.395	13.702	895.068	680.644
268.409	13.605	894.231	679.553
269.424	13.728	893.431	679.387
270.439	13.744	892.616	678.774
271.453	13.769	891.568	678.018
272.468	13.831	890.981	677.764
273.482	13.779	890.807	677.361
274.497	13.788	889.689	676.487
275.512	13.688	888.912	675.429
276.526	13.701	888.171	674.860
277.541	13.733	887.421	674.360
278.555	13.750	886.690	673.815
279.570	13.690	886.131	673.085
280.585	13.690	885.695	672.693
281.599	13.754	885.000	672.365
282.614	13.695	884.295	671.531
283.628	13.814	883.580	671.412
284.643	13.886	882.909	671.135
285.657	13.764	882.866	670.549
286.672	13.793	882.373	670.232
287.687	13.853	881.629	669.850
288.701	14.001	880.892	669.829
289.716	13.931	879.958	668.775
290.730	13.898	879.610	668.320
291.745	13.821	879.111	667.571
292.760	13.946	878.274	667.378
293.774	13.879	877.268	666.286
294.789	13.974	876.651	666.141
295.803	13.840	876.132	665.148
296.818	13.897	875.473	664.817
297.833	13.899	874.631	664.128
298.847	13.868	874.294	663.691
299.862	13.783	873.152	662.425
300.876	13.932	872.337	662.343
301.891	13.921	871.458	661.572
302.906	13.916	870.899	661.071
303.920	13.934	870.687	660.921
304.935	13.991	869.600	660.264
305.949	13.911	869.334	659.687
306.964	13.980	868.386	659.184
307.979	13.999	867.731	658.702
308.993	13.992	867.357	658.333
310.008	13.969	866.484	657.519
311.022	13.898	866.247	657.000
312.037	13.844	866.198	656.693
313.052	13.929	865.567	656.492
314.066	14.133	864.149	656.164
315.081	14.092	864.282	656.045
316.095	14.184	863.447	655.714
317.110	14.081	862.699	654.684
318.125	14.019	862.154	653.967
319.139	14.086	861.700	653.829
320.154	14.178	861.459	653.950
321.168	14.308	860.695	653.821
322.183	14.100	860.025	652.441
323.197	14.134	859.418	652.054
324.212	14.063	858.560	651.070
325.227	14.105	857.942	650.706
326.241	14.033	857.370	649.935
327.256	14.097	856.825	649.713
328.270	14.092	856.545	649.424
329.285	14.082	855.848	648.799
330.300	14.013	855.686	648.349
331.314	14.211	855.038	648.575
332.329	14.082	853.962	647.196
333.343	14.055	853.324	646.553
334.358	14.095	852.660	646.147
335.373	14.006	852.049	645.281
336.387	14.040	851.783	645.155
337.402	14.033	850.950	644.438
338.416	14.018	850.280	643.816
339.431	14.038	849.507	643.252
340.446	14.030	849.174	642.910
341.460	14.038	848.532	642.398
342.475	14.023	847.716	641.667
343.489	14.243	846.916	641.854
344.504	14.249	846.718	641.671
345.519	14.363	845.660	641.250
346.533	14.102	845.497	640.064
347.548	14.079	844.722	639.334
348.562	14.060	844.439	638.989
349.577	14.010	843.895	638.327
350.592	14.126	843.180	638.178
351.606	14.052	842.772	637.528
352.621	14.152	842.217	637.433
353.635	14.155	841.927	637.170
354.650	14.098	841.643	636.681
355.665	14.128	841.226	636.425
356.679	14.422	840.718	637.108
357.694	14.459	840.054	636.690
358.708	14.281	839.654	635.652
359.723	14.257	838.948	634.969
360.738	14.389	838.110	634.779
361.752	14.180	838.216	634.009
362.767	14.164	837.281	633.184
363.781	14.263	836.595	632.984
364.796	14.108	835.933	631.840
365.810	14.071	835.516	631.327
366.825	13.999	835.022	630.624
367.840	13.915	834.937	630.187
368.854	14.053	834.491	630.317
369.869	14.149	833.991	630.247
370.883	14.198	833.201	629.779
371.898	14.195	832.412	629.118
372.913	14.361	831.865	629.275
373.927	14.351	831.255	628.722
374.942	14.288	830.486	627.845
375.956	14.185	830.083	627.099
376.971	14.328	829.403	627.067
377.986	14.120	828.777	625.755
379.000	14.132	828.085	625.221
380.015	14.269	827.504	625.242
381.029	14.296	826.965	624.880
382.044	14.204	826.580	624.192
383.059	14.260	825.835	623.781
384.073	14.334	825.216	623.536
385.088	14.225	824.584	622.596
386.102	14.421	824.089	622.901
387.117	14.229	823.846	621.944
388.132	14.202	823.346	621.411
389.146	14.242	823.060	621.289
390.161	14.425	823.093	621.941
391.175	14.463	822.338	621.459
392.190	14.363	821.911	620.707
393.205	14.203	821.399	619.670
394.219	14.599	821.330	621.040
395.234	15.272	821.427	623.559
396.248	15.306	821.088	623.375
397.263	14.892	819.986	620.945
398.278	14.321	818.909	617.956
399.292	14.356	817.939	617.301
400.307	14.396	818.128	617.537
401.321	14.392	817.413	616.927
402.336	14.400	817.079	616.651
403.350	14.467	816.172	616.160
404.365	14.315	815.473	615.017
405.380	14.279	815.123	614.565
406.394	14.076	814.501	613.292
407.409	14.128	813.562	612.722
408.423	14.029	813.582	612.317
409.438	14.172	812.880	612.260
410.453	14.193	812.815	612.236
411.467	14.088	811.920	611.122
412.482	14.049	811.739	610.786
413.496	14.227	810.780	610.666
414.511	14.165	809.993	609.790
415.526	14.137	810.342	609.897
416.540	14.077	809.829	609.238
417.555	14.183	809.404	609.250
418.569	14.218	809.055	609.066
419.584	14.334	808.583	609.078
420.599	14.232	807.919	608.152
421.613	149.993	1354.676	1774.337
422.628	130.377	1434.357	1774.440
