DTS Sentinel unit serial number:	SN413079Multiplexer serial number:	ORYXHardware model number:	OX4-SRSoftware version number:	ORYX F/W v4.00 Oryx Data Collector v3.7.2.0data status	okinstallation	princeton_trtdifferential loss correction	single-endedforward channel	channel 3reverse channel	N/Adate	2019/09/12time	01:06:11forward acquisition time	60.00reverse acquisition time	0.00gamma	496.2192k internal	0.2319k external	0.2319temperature offset calibration	1.0071default loss term (dB/km)	0.3790temperature slope calibration	1.0000multiplexer offset coefficient	1.0000multiplexer slope coefficient	1.0000fibre end	0.00T internal ref (°C)	33.12T ext. ref 1 (°C)	2.09T ext. ref 2 (°C)	27.20length (m)	temperature (°C)	Stokes	anti-Stokes-747.200	-67.825	0.301	-0.119
-746.185	423.999	0.127	0.276
-745.171	-151.931	0.015	-0.001
-744.156	-22.884	-0.153	0.093
-743.142	-4.141	0.032	-0.023
-742.127	328.509	0.228	0.443
-741.112	-108.212	-0.254	0.055
-740.098	-200.000	0.015	0.183
-739.083	-3.218	0.432	0.305
-738.069	-148.431	0.121	0.010
-737.054	310.947	-0.162	0.306
-736.039	-4.071	-0.367	0.257
-735.025	800.000	0.035	-0.101
-734.010	67.851	-0.107	-0.110
-732.996	-200.000	-0.002	-0.092
-731.981	470.817	0.108	-0.245
-730.966	-106.801	-0.042	-0.009
-729.952	-29.956	0.217	0.125
-728.937	-137.641	-0.118	0.013
-727.923	-200.000	0.039	-0.231
-726.908	544.015	0.069	0.167
-725.894	115.191	0.265	0.327
-724.879	45.639	-0.149	0.139
-723.864	-200.000	-0.014	0.352
-722.850	-59.352	0.112	-0.049
-721.835	-36.913	0.046	-0.025
-720.821	-119.790	-0.323	0.056
-719.806	-200.000	0.021	0.115
-718.791	230.580	-0.015	-0.025
-717.777	800.000	0.056	0.228
-716.762	41.508	-0.246	0.225
-715.748	31.217	0.077	0.067
-714.733	-139.773	-0.160	-0.017
-713.718	-200.000	-0.001	0.027
-712.704	-87.995	-0.125	-0.038
-711.689	-13.916	0.160	-0.104
-710.675	53.364	-0.166	0.161
-709.660	164.449	-0.124	0.177
-708.645	-125.333	-0.310	0.048
-707.631	387.127	-0.046	-0.096
-706.616	350.265	0.128	0.256
-705.602	105.908	-0.170	-0.203
-704.587	-142.202	0.072	-0.007
-703.572	721.683	0.150	0.402
-702.558	-196.635	-0.403	-0.003
-701.543	342.677	0.084	0.165
-700.529	121.170	0.175	-0.220
-699.514	-191.826	-0.292	0.003
-698.499	-129.395	-0.409	0.057
-697.485	105.161	0.148	0.177
-696.470	41.065	0.097	-0.088
-695.456	-78.556	-0.092	-0.032
-694.441	-8.815	-0.251	0.170
-693.426	127.563	-0.217	-0.278
-692.412	-35.822	-0.222	-0.121
-691.397	-45.788	0.226	0.113
-690.383	-200.000	-0.007	0.268
-689.368	800.000	-0.083	-0.258
-688.354	-34.709	-0.290	-0.160
-687.339	-167.712	0.232	0.009
-686.324	304.138	0.177	-0.331
-685.310	-9.031	-0.122	0.082
-684.295	-169.669	-0.208	-0.008
-683.281	-59.355	0.174	-0.076
-682.266	33.138	-0.178	-0.156
-681.251	-85.277	0.389	-0.123
-680.237	0.718	-0.141	-0.101
-679.222	-43.058	-0.229	0.117
-678.208	512.801	0.184	0.431
-677.193	-10.566	-0.082	-0.055
-676.178	-26.862	0.098	0.058
-675.164	-123.953	0.306	-0.049
-674.149	-200.000	-0.037	0.291
-673.135	132.103	0.142	-0.185
-672.120	243.144	-0.173	-0.293
-671.105	-22.885	0.064	-0.039
-670.091	333.462	0.036	0.069
-669.076	-2.776	-0.255	0.180
-668.062	448.826	0.083	0.184
-667.047	211.365	0.166	0.264
-666.032	800.000	-0.052	-0.192
-665.018	6.174	0.450	0.337
-664.003	212.216	0.110	-0.174
-662.989	2.574	-0.234	0.171
-661.974	-200.000	-0.046	0.301
-660.959	-23.747	-0.087	-0.052
-659.945	-147.616	-0.110	0.009
-658.930	-157.412	0.444	0.027
-657.916	10.622	-0.228	-0.176
-656.901	161.120	0.270	-0.381
-655.886	254.884	-0.085	-0.146
-654.872	120.750	0.189	0.237
-653.857	-138.117	-0.096	0.011
-652.843	800.000	0.093	-0.272
-651.828	-200.000	0.012	-0.439
-650.814	-31.970	0.259	-0.146
-649.799	-131.469	-0.287	-0.038
-648.784	-84.518	-0.262	0.083
-647.770	70.861	0.380	-0.396
-646.755	-101.522	-0.257	-0.063
-645.741	261.814	0.152	-0.266
-644.726	148.459	-0.090	-0.122
-643.711	-68.939	-0.118	-0.046
-642.697	-176.988	-0.190	0.005
-641.682	-70.869	-0.394	0.150
-640.668	-39.489	-0.029	0.015
-639.653	-200.000	0.030	-0.222
-638.638	43.509	0.085	0.078
-637.624	800.000	-0.067	-0.227
-636.609	87.615	-0.245	-0.273
-635.595	-25.736	-0.417	0.247
-634.580	42.842	0.125	-0.115
-633.565	-13.379	0.110	0.072
-632.551	377.019	0.117	0.240
-631.536	14.036	0.301	-0.236
-630.522	-200.000	0.006	-0.061
-629.507	-2.916	-0.187	0.132
-628.492	-25.255	-0.113	-0.068
-627.478	-70.318	0.113	-0.043
-626.463	-200.000	0.005	0.217
-625.449	-108.724	-0.161	0.035
-624.434	63.847	0.198	-0.200
-623.419	395.474	0.089	0.187
-622.405	-51.757	-0.063	-0.029
-621.390	-152.481	0.264	-0.019
-620.376	800.000	-0.030	0.119
-619.361	800.000	-0.019	-0.067
-618.346	-107.830	0.157	0.034
-617.332	-146.835	0.124	0.011
-616.317	-30.048	0.243	0.139
-615.303	240.182	0.177	0.297
-614.288	211.254	0.030	0.047
-613.273	-200.000	0.025	-0.223
-612.259	-48.801	-0.049	0.024
-611.244	-22.030	0.353	-0.216
-610.230	-63.474	-0.217	0.090
-609.215	-200.000	-0.061	-0.407
-608.201	-200.000	-0.028	0.226
-607.186	687.523	0.175	-0.460
-606.171	31.422	-0.241	0.208
-605.157	-154.726	-0.159	-0.011
-604.142	-30.310	0.286	0.163
-603.128	55.213	0.106	-0.103
-602.113	-116.366	0.271	-0.050
-601.098	800.000	-0.090	-0.324
-600.084	800.000	-0.022	0.070
-599.069	388.419	0.149	-0.309
-598.055	480.719	0.104	0.237
-597.040	-30.674	0.244	0.139
-596.025	-47.677	-0.191	-0.093
-595.011	107.058	-0.252	0.301
-593.996	-151.649	-0.281	0.021
-592.982	800.000	-0.060	-0.205
-591.967	16.904	0.170	-0.135
-590.952	491.267	0.034	-0.079
-589.938	240.775	0.016	0.026
-588.923	-191.358	0.164	-0.002
-587.909	-142.007	0.179	0.018
-586.894	791.579	-0.052	0.144
-585.879	-200.000	0.013	0.194
-584.865	-64.415	-0.312	-0.128
-583.850	-54.350	-0.198	0.090
-582.836	146.601	-0.073	-0.098
-581.821	-137.567	-0.244	0.028
-580.806	-113.167	-0.576	-0.114
-579.792	-137.138	0.252	-0.029
-578.777	-38.338	-0.358	0.191
-577.763	37.598	-0.239	0.213
-576.748	-103.347	-0.386	-0.092
-575.733	-127.639	-0.098	0.014
-574.719	-47.619	-0.241	0.118
-573.704	-41.053	0.149	-0.077
-572.690	-200.000	0.016	0.286
-571.675	517.041	0.150	0.353
-570.661	800.000	-0.047	-0.169
-569.646	-102.296	-0.118	-0.028
-568.631	560.169	0.056	0.137
-567.617	218.981	-0.061	-0.097
-566.602	-200.000	-0.006	0.045
-565.588	-5.684	0.018	-0.013
-564.573	-200.000	-0.377	0.002
-563.558	1.457	-0.248	-0.179
-562.544	282.528	0.153	-0.276
-561.529	43.458	0.222	0.203
-560.515	800.000	0.073	-0.203
-559.500	3.893	-0.073	0.054
-558.485	-174.038	-0.133	-0.004
-557.471	49.199	-0.396	0.374
-556.456	-91.148	-0.287	0.083
-555.442	-200.000	0.007	-0.100
-554.427	800.000	0.072	-0.252
-553.412	529.094	-0.099	-0.234
-552.398	-89.791	-0.164	0.048
-551.383	-200.000	0.069	-0.367
-550.369	-68.064	-0.474	-0.186
-549.354	-149.636	-0.474	0.037
-548.339	-135.306	-0.176	0.021
-547.325	800.000	-0.048	0.142
-546.310	260.271	0.282	-0.489
-545.296	39.285	0.148	-0.133
-544.281	158.618	-0.218	0.303
-543.266	-200.000	0.056	0.334
-542.252	-69.866	0.257	0.098
-541.237	-28.145	-0.318	0.185
-540.223	-200.000	0.095	-0.589
-539.208	424.791	-0.083	0.179
-538.193	-200.000	-0.026	0.265
-537.179	82.665	-0.020	0.022
-536.164	-111.283	0.237	0.049
-535.150	-200.000	0.034	0.305
-534.135	108.787	-0.103	-0.124
-533.121	-200.000	-0.094	-0.488
-532.106	-200.000	-0.010	-0.314
-531.091	-121.107	0.291	0.049
-530.077	15.183	0.116	0.091
-529.062	-121.303	-0.055	0.009
-528.048	-80.834	-0.411	-0.137
-527.033	-200.000	-0.002	-0.375
-526.018	339.136	-0.220	-0.430
-525.004	-200.000	-0.032	0.191
-523.989	800.000	-0.109	0.360
-522.975	132.883	-0.127	0.164
-521.960	200.011	0.075	0.116
-520.945	-56.983	-0.097	0.043
-519.931	-153.410	0.362	0.025
-518.916	368.227	0.133	-0.270
-517.902	-107.908	-0.334	0.073
-516.887	583.357	-0.050	0.123
-515.872	7.195	0.066	-0.050
-514.858	73.497	0.065	0.068
-513.843	-39.495	0.081	0.043
-512.829	-107.501	0.086	0.019
-511.814	-32.252	0.191	-0.107
-510.799	25.754	-0.185	-0.155
-509.785	-1.465	0.256	-0.181
-508.770	-98.109	0.221	0.057
-507.756	138.670	-0.253	-0.333
-506.741	-131.981	0.257	0.034
-505.726	-200.000	0.001	0.019
-504.712	-200.000	-0.005	0.165
-503.697	-115.872	0.258	0.048
-502.683	-200.000	0.007	0.058
-501.668	-200.000	0.005	-0.092
-500.653	151.898	0.067	-0.092
-499.639	24.848	-0.220	-0.182
-498.624	-146.049	0.383	0.034
-497.610	64.222	-0.185	0.186
-496.595	-200.000	-0.002	-0.199
-495.581	800.000	0.160	0.451
-494.566	800.000	-0.033	-0.113
-493.551	-13.626	-0.187	0.121
-492.537	-156.210	0.173	0.011
-491.522	699.233	0.044	-0.116
-490.508	-53.404	0.355	0.163
-489.493	-200.000	0.014	0.287
-488.478	692.459	-0.048	0.125
-487.464	-200.000	0.009	0.063
-486.449	100.984	0.163	0.190
-485.435	-200.000	-0.032	0.238
-484.420	-200.000	0.007	0.114
-483.405	800.000	-0.042	-0.129
-482.391	68.441	0.156	0.160
-481.376	-200.000	0.023	-0.155
-480.362	560.801	0.051	-0.122
-479.347	306.343	-0.102	0.189
-478.332	-35.975	0.205	0.111
-477.318	800.000	-0.100	-0.327
-476.303	55.484	-0.151	-0.147
-475.289	356.579	-0.018	0.037
-474.274	-78.756	0.058	0.020
-473.259	800.000	-0.119	-0.487
-472.245	800.000	0.024	0.092
-471.230	-200.000	0.026	0.161
-470.216	-45.168	0.219	-0.109
-469.201	533.922	-0.019	-0.045
-468.186	-17.753	0.200	0.126
-467.172	-107.627	-0.210	0.046
-466.157	-200.000	-0.010	0.127
-465.143	20.895	0.039	-0.032
-464.128	109.849	0.268	-0.321
-463.113	81.184	0.141	-0.152
-462.099	223.089	0.184	-0.296
-461.084	92.339	-0.196	0.221
-460.070	171.535	0.187	-0.269
-459.055	-49.077	0.397	-0.190
-458.040	204.700	-0.217	0.336
-457.026	-132.223	-0.102	-0.013
-456.011	-96.308	-0.229	-0.061
-454.997	530.887	0.063	-0.149
-453.982	-200.000	-0.016	-0.144
-452.968	-150.172	0.423	0.033
-451.953	-37.324	-0.398	-0.212
-450.938	800.000	0.061	0.193
-449.924	-63.660	0.103	-0.042
-448.909	-35.550	0.105	0.057
-447.895	-12.487	0.201	-0.131
-446.880	-91.439	0.164	0.047
-445.865	-10.294	0.291	-0.193
-444.851	800.000	0.075	-0.269
-443.836	800.000	0.083	-0.255
-442.822	-200.000	-0.012	-0.127
-441.807	49.930	-0.139	-0.131
-440.792	-25.443	0.262	0.155
-439.778	-200.000	0.013	0.151
-438.763	51.093	-0.154	-0.146
-437.749	5.657	0.264	0.195
-436.734	800.000	0.076	0.212
-435.719	103.788	0.072	0.085
-434.705	-107.662	0.137	0.030
-433.690	-200.000	0.041	0.263
-432.676	-32.083	-0.111	-0.062
-431.661	460.460	-0.135	-0.300
-430.646	800.000	-0.127	0.444
-429.632	800.000	-0.066	0.207
-428.617	800.000	0.032	0.109
-427.603	-73.745	0.186	0.068
-426.588	800.000	-0.064	0.219
-425.573	6.192	-0.334	-0.248
-424.559	-66.385	0.289	-0.115
-423.544	-200.000	0.014	-0.270
-422.530	316.931	0.091	0.172
-421.515	-44.860	0.065	0.033
-420.500	-200.000	-0.001	-0.015
-419.486	-136.789	-0.289	0.033
-418.471	153.951	0.103	-0.141
-417.457	45.698	-0.121	0.112
-416.442	-70.486	-0.158	-0.060
-415.428	20.721	-0.183	0.148
-414.413	75.828	-0.182	-0.192
-413.398	-110.957	-0.165	0.034
-412.384	-15.738	-0.130	-0.083
-411.369	-200.000	0.078	-0.349
-410.355	-200.000	0.025	-0.152
-409.340	-104.127	-0.527	-0.122
-408.325	800.000	-0.030	0.107
-407.311	-200.000	-0.032	-0.300
-406.296	-126.718	-0.164	-0.024
-405.282	723.452	0.071	0.189
-404.267	-152.575	0.288	-0.021
-403.252	193.830	0.077	-0.117
-402.238	-96.762	-0.237	0.062
-401.223	-160.611	0.280	0.015
-400.209	103.405	0.197	0.231
-399.194	-37.513	0.143	-0.076
-398.179	-179.404	-0.313	-0.007
-397.165	-200.000	-0.068	0.356
-396.150	179.711	-0.073	-0.107
-395.136	-200.000	-0.002	0.395
-394.121	284.963	0.153	-0.275
-393.106	-200.000	-0.021	0.121
-392.092	152.862	-0.051	0.069
-391.077	-144.157	-0.251	-0.023
-390.063	800.000	0.076	-0.216
-389.048	302.584	0.148	-0.273
-388.033	-200.000	0.016	0.096
-387.019	800.000	0.035	-0.143
-386.004	-52.051	0.399	0.185
-384.990	693.222	0.067	-0.175
-383.975	592.620	-0.135	-0.334
-382.960	-130.273	0.153	0.021
-381.946	-193.657	0.197	-0.002
-380.931	-110.891	0.150	0.031
-379.917	299.300	0.067	0.123
-378.902	-44.619	0.200	0.100
-377.888	161.623	-0.051	-0.071
-376.873	256.981	-0.125	0.215
-375.858	-158.600	0.203	-0.012
-374.844	659.545	-0.114	0.293
-373.829	7.035	-0.276	0.205
-372.815	46.988	0.145	0.135
-371.800	-94.238	-0.060	0.016
-370.785	181.274	0.180	-0.264
-369.771	-35.154	-0.400	0.217
-368.756	-200.000	0.015	0.308
-367.742	133.745	-0.101	-0.131
-366.727	-30.167	-0.139	0.079
-365.712	-73.384	-0.262	0.096
-364.698	800.000	0.037	-0.149
-363.683	-86.427	0.231	0.071
-362.669	-153.800	-0.475	0.032
-361.654	-200.000	0.081	0.453
-360.639	-33.109	0.237	-0.131
-359.625	49.628	-0.038	-0.036
-358.610	402.125	-0.092	0.193
-357.596	72.971	-0.276	-0.288
-356.581	157.771	-0.173	-0.239
-355.566	266.970	-0.199	0.346
-354.552	800.000	0.086	-0.297
-353.537	-192.272	-0.193	-0.002
-352.523	-118.904	0.114	0.020
-351.508	-98.273	0.382	0.098
-350.493	-81.558	0.378	-0.124
-349.479	-6.658	0.241	-0.164
-348.464	-84.415	0.175	0.055
-347.450	-0.316	-0.250	-0.177
-346.435	540.155	-0.083	0.198
-345.420	-200.000	-0.025	0.211
-344.406	800.000	-0.021	0.081
-343.391	-107.869	-0.364	0.079
-342.377	130.040	-0.075	-0.095
-341.362	41.033	-0.048	-0.044
-340.348	-145.662	0.216	0.019
-339.333	-74.388	0.294	0.106
-338.318	-118.870	0.105	0.018
-337.304	-32.383	-0.330	0.183
-336.289	-200.000	-0.006	0.114
-335.275	800.000	-0.086	0.350
-334.260	-99.713	0.050	-0.013
-333.245	138.253	0.204	-0.266
-332.231	-55.824	0.096	0.043
-331.216	306.695	0.091	0.169
-330.202	404.653	0.073	0.153
-329.187	175.650	-0.089	-0.129
-328.172	-178.360	-0.144	0.003
-327.158	735.374	-0.040	-0.106
-326.143	324.980	0.017	-0.032
-325.129	-128.412	-0.079	0.011
-324.114	800.000	-0.014	0.044
-323.099	432.954	0.056	0.121
-322.085	-117.476	0.332	0.060
-321.070	111.026	-0.176	-0.210
-320.056	-9.587	0.344	-0.228
-319.041	96.345	-0.117	0.133
-318.026	47.525	-0.106	-0.098
-317.012	-200.000	-0.036	0.268
-315.997	190.049	0.250	-0.374
-314.983	196.947	0.205	0.310
-313.968	-200.000	-0.024	0.128
-312.953	-65.337	0.293	-0.117
-311.939	166.389	-0.217	-0.306
-310.924	-44.862	0.369	-0.183
-309.910	-76.008	-0.228	-0.080
-308.895	-43.066	0.242	0.122
-307.880	176.082	0.169	-0.244
-306.866	-147.426	-0.289	0.024
-305.851	599.374	-0.036	0.089
-304.837	-1.552	0.054	-0.038
-303.822	800.000	0.038	-0.154
-302.807	-114.987	0.093	-0.018
-301.793	330.449	-0.128	0.246
-300.778	-147.229	0.333	0.028
-299.764	234.749	-0.067	0.110
-298.749	127.757	0.050	0.063
-297.735	167.496	0.082	-0.115
-296.720	-143.280	-0.441	-0.042
-295.705	-33.901	-0.259	-0.142
-294.691	-109.537	0.314	0.066
-293.676	-180.193	0.159	0.003
-292.662	-200.000	0.055	-0.466
-291.647	-78.410	-0.158	-0.054
-290.632	-167.108	0.291	-0.012
-289.618	318.227	-0.150	0.283
-288.603	-56.190	0.122	0.054
-287.589	-200.000	-0.015	0.158
-286.574	-200.000	0.011	0.175
-285.559	-200.000	0.031	-0.208
-284.545	36.219	-0.196	0.172
-283.530	-200.000	0.011	0.206
-282.516	67.768	0.144	0.146
-281.501	-105.383	0.139	-0.031
-280.486	-110.824	-0.040	0.008
-279.472	800.000	0.082	-0.228
-278.457	-149.368	0.182	0.014
-277.443	-63.057	-0.493	-0.202
-276.428	297.477	-0.044	0.081
-275.413	-180.030	0.144	0.003
-274.399	800.000	-0.023	0.084
-273.384	583.906	-0.138	-0.337
-272.370	-122.607	-0.155	0.025
-271.355	-64.205	0.213	-0.086
-270.340	-200.000	-0.037	0.337
-269.326	-200.000	-0.003	0.114
-268.311	149.816	0.105	-0.141
-267.297	106.768	0.118	-0.139
-266.282	-64.299	0.245	0.099
-265.267	480.004	-0.138	0.311
-264.253	-200.000	0.002	0.236
-263.238	-36.014	0.065	-0.035
-262.224	800.000	-0.071	-0.221
-261.209	-40.161	-0.135	-0.070
-260.195	-62.014	-0.164	0.068
-259.180	-119.544	0.038	0.006
-258.165	800.000	0.017	-0.052
-257.151	-119.830	0.228	0.039
-256.136	-156.473	-0.496	0.031
-255.122	88.117	0.045	0.050
-254.107	252.310	0.126	0.213
-253.092	459.730	0.094	-0.209
-252.078	-57.772	0.222	-0.097
-251.063	17.482	-0.213	0.168
-250.049	155.989	0.214	0.292
-249.034	212.533	0.154	0.241
-248.019	800.000	0.057	0.171
-247.005	113.681	-0.196	-0.237
-245.990	601.122	-0.085	-0.210
-244.976	247.551	0.025	-0.042
-243.961	2.174	0.186	0.133
-242.946	-18.836	-0.302	-0.187
-241.932	-79.626	0.170	0.057
-240.917	-9.440	-0.307	0.204
-239.903	-200.000	0.039	-0.186
-238.888	213.409	0.213	-0.334
-237.873	2.849	-0.198	-0.143
-236.859	538.491	0.140	0.331
-235.844	-35.818	-0.330	0.177
-234.830	800.000	0.096	-0.395
-233.815	4.523	-0.111	-0.081
-232.800	-94.226	-0.243	0.066
-231.786	292.973	0.146	0.264
-230.771	150.733	0.107	0.144
-229.757	-54.812	-0.111	-0.050
-228.742	143.842	-0.167	-0.221
-227.727	197.159	-0.309	0.467
-226.713	-200.000	0.007	-0.249
-225.698	-179.857	0.117	0.002
-224.684	800.000	0.101	0.422
-223.669	-62.159	-0.184	0.076
-222.655	26.555	-0.169	-0.140
-221.640	775.083	-0.039	-0.107
-220.625	-132.726	0.088	-0.011
-219.611	-54.916	0.232	-0.104
-218.596	-62.053	-0.289	-0.119
-217.582	344.944	-0.078	0.152
-216.567	3.936	-0.178	-0.129
-215.552	-14.293	0.197	0.126
-214.538	-200.000	-0.004	-0.018
-213.523	-26.191	0.225	0.131
-212.509	-67.519	0.207	-0.080
-211.494	-102.114	0.229	-0.055
-210.479	800.000	-0.064	0.195
-209.465	339.806	-0.061	-0.118
-208.450	559.815	-0.151	-0.361
-207.436	198.682	0.142	0.215
-206.421	-58.613	0.433	0.186
-205.406	-39.656	0.089	-0.046
-204.392	64.716	0.213	0.212
-203.377	399.451	-0.102	0.211
-202.363	-200.000	0.002	0.066
-201.348	800.000	0.051	-0.212
-200.333	-75.487	-0.309	-0.109
-199.319	-180.101	-0.137	-0.003
-198.304	-200.000	-0.003	-0.213
-197.290	-106.183	-0.391	0.087
-196.275	121.220	-0.245	0.302
-195.260	144.413	0.195	-0.258
-194.246	-200.000	0.020	0.104
-193.231	39.607	-0.166	0.147
-192.217	800.000	-0.085	-0.255
-191.202	767.059	-0.125	0.337
-190.187	-200.000	-0.004	0.097
-189.173	492.473	0.150	-0.340
-188.158	-75.761	0.166	0.058
-187.144	-165.701	0.209	-0.009
-186.129	468.356	0.085	0.190
-185.114	103.463	-0.092	-0.107
-184.100	-30.340	-0.155	0.087
-183.085	-33.790	0.120	0.066
-182.071	-139.301	0.104	0.011
-181.056	-200.000	0.026	0.452
-180.042	164.137	0.100	-0.140
-179.027	630.264	0.107	0.268
-178.012	-200.000	0.031	-0.148
-176.998	-2.641	-0.188	-0.130
-175.983	-200.000	-0.024	-0.379
-174.969	-40.836	0.399	0.204
-173.954	-200.000	-0.001	-0.151
-172.939	-107.857	0.028	-0.006
-171.925	104.907	-0.065	0.076
-170.910	-63.148	0.271	-0.110
-169.896	800.000	0.043	0.134
-168.881	78.909	0.086	0.091
-167.866	-91.618	0.098	-0.028
-166.852	-100.104	0.276	-0.068
-165.837	-200.000	0.032	-0.263
-164.823	172.694	-0.099	0.141
-163.808	340.902	0.039	0.075
-162.793	-130.652	0.299	-0.040
-161.779	-136.705	-0.119	-0.014
-160.764	800.000	-0.058	-0.207
-159.750	800.000	0.118	0.352
-158.735	69.222	-0.058	0.059
-157.720	-37.468	-0.266	0.140
-156.706	-75.052	-0.173	-0.061
-155.691	-200.000	-0.036	0.170
-154.677	156.598	0.153	-0.209
-153.662	66.265	0.068	-0.068
-152.647	-130.903	0.182	-0.024
-151.633	-29.642	-0.346	0.195
-150.618	165.181	-0.169	0.235
-149.604	800.000	0.132	0.393
-148.589	-48.759	-0.036	-0.017
-147.574	-200.000	-0.056	-0.304
-146.560	-200.000	-0.060	0.403
-145.545	99.569	-0.052	0.059
-144.531	800.000	-0.070	-0.199
-143.516	-49.457	-0.072	0.034
-142.502	-200.000	0.058	0.280
-141.487	-4.817	0.154	-0.105
-140.472	-68.167	0.043	0.016
-139.458	353.901	-0.070	-0.136
-138.443	74.850	-0.230	-0.240
-137.429	-90.913	0.367	-0.104
-136.414	-24.422	-0.147	0.086
-135.399	459.978	0.166	-0.365
-134.385	245.083	-0.115	0.191
-133.370	800.000	-0.037	0.133
-132.356	698.243	0.065	-0.169
-131.341	-72.134	-0.127	0.047
-130.326	146.347	-0.155	-0.206
-129.312	754.408	0.070	0.186
-128.297	42.608	0.159	-0.143
-127.283	-149.780	0.378	-0.029
-126.268	-200.000	0.029	-0.240
-125.253	-200.000	-0.005	-0.076
-124.239	-148.021	0.171	0.014
-123.224	-200.000	-0.007	0.385
-122.210	-67.412	-0.109	0.042
-121.195	-200.000	0.020	-0.210
-120.180	-34.218	0.324	0.176
-119.166	-200.000	0.036	0.201
-118.151	-59.500	0.202	-0.086
-117.137	-200.000	-0.013	0.198
-116.122	-200.000	0.021	0.319
-115.107	-200.000	0.020	-0.102
-114.093	409.753	-0.075	-0.157
-113.078	601.696	-0.031	0.077
-112.064	-200.000	0.049	-0.514
-111.049	89.464	0.153	0.169
-110.034	349.904	-0.106	-0.207
-109.020	129.817	0.203	-0.257
-108.005	-200.000	0.025	-0.211
-106.991	128.034	0.060	0.075
-105.976	290.809	0.104	-0.187
-104.962	800.000	0.054	0.150
-103.947	49.822	0.171	-0.159
-102.932	54.638	-0.179	0.170
-101.918	-200.000	-0.072	0.401
-100.903	-200.000	-0.016	-0.222
-99.889	-200.000	-0.000	-0.044
-98.874	-3.880	0.142	0.097
-97.859	-200.000	-0.005	-0.311
-96.845	-67.200	0.576	-0.224
-95.830	137.963	-0.134	0.173
-94.816	178.562	-0.224	0.323
-93.801	-2.158	0.321	-0.222
-92.786	-66.047	0.192	-0.076
-91.772	-70.457	0.440	-0.164
-90.757	-200.000	-0.008	-0.167
-89.743	28.178	0.333	-0.278
-88.728	290.224	0.101	0.182
-87.713	716.849	0.035	-0.092
-86.699	-66.635	-0.173	-0.067
-85.684	-74.465	0.388	0.138
-84.670	-80.834	-0.128	0.042
-83.655	-200.000	-0.003	-0.136
-82.640	800.000	-0.054	-0.167
-81.626	461.766	-0.087	-0.192
-80.611	-133.796	-0.206	0.025
-79.597	-86.399	0.190	0.058
-78.582	-12.592	-0.050	0.032
-77.567	-128.998	0.125	0.017
-76.553	716.721	0.188	0.491
-75.538	-200.000	-0.013	-0.204
-74.524	22.029	-0.178	-0.143
-73.509	13.301	-0.177	0.136
-72.494	155.103	0.071	0.096
-71.480	-164.499	0.190	-0.009
-70.465	-132.501	-0.011	-0.001
-69.451	-92.309	0.141	0.039
-68.436	-161.020	-0.067	0.003
-67.422	485.576	0.088	0.197
-66.407	-112.064	-0.302	-0.060
-65.392	-36.234	0.162	0.086
-64.378	78.450	0.062	-0.065
-63.363	800.000	-0.052	-0.145
-62.349	58.838	-0.087	0.084
-61.334	80.870	-0.888	-0.944
-60.319	90.928	0.317	0.350
-59.305	800.000	-0.203	-0.705
-58.290	453.560	0.595	1.296
-57.276	800.000	0.632	2.039
-56.261	-200.000	96.284	572.407
-55.246	544.053	1381.556	3247.604
-54.232	159.449	2556.168	3501.975
-53.217	110.296	2162.822	2557.812
-52.203	43.358	1707.532	1535.816
-51.188	36.314	1520.908	1319.949
-50.173	33.919	1494.281	1280.669
-49.159	52.538	1542.784	1450.155
-48.144	54.351	1561.237	1479.869
-47.130	36.438	1520.024	1319.821
-46.115	33.337	1505.029	1285.728
-45.100	33.214	1502.204	1282.425
-44.086	33.195	1500.756	1281.009
-43.071	33.176	1498.096	1278.563
-42.057	33.140	1496.994	1277.325
-41.042	33.089	1495.779	1275.897
-40.027	33.173	1494.049	1274.933
-39.013	33.124	1492.710	1273.413
-37.998	33.022	1491.326	1271.496
-36.984	33.113	1490.489	1271.345
-35.969	33.106	1488.606	1269.637
-34.954	33.142	1487.385	1268.788
-33.940	33.050	1486.003	1266.945
-32.925	33.140	1484.704	1266.388
-31.911	33.120	1483.438	1265.127
-30.896	33.152	1482.219	1264.249
-29.881	33.164	1480.658	1262.945
-28.867	33.299	1478.699	1262.125
-27.852	33.137	1478.042	1260.434
-26.838	33.285	1475.987	1259.618
-25.823	33.185	1474.890	1257.964
-24.809	33.162	1473.249	1256.363
-23.794	33.111	1471.948	1254.868
-22.779	33.207	1470.243	1254.000
-21.765	33.184	1469.476	1253.141
-20.750	33.177	1468.343	1252.081
-19.736	33.178	1467.705	1251.497
-18.721	33.241	1466.420	1250.766
-17.706	33.053	1465.634	1248.800
-16.692	33.103	1464.361	1247.999
-15.677	33.141	1463.089	1247.115
-14.663	33.061	1462.400	1245.952
-13.648	33.058	1461.585	1245.188
-12.633	33.082	1460.213	1244.126
-11.619	33.013	1459.808	1243.279
-10.604	33.100	1458.603	1242.773
-9.590	33.015	1458.012	1241.664
-8.575	33.107	1456.851	1241.230
-7.560	33.144	1455.992	1240.692
-6.546	33.128	1455.036	1239.721
-5.531	33.197	1453.989	1239.233
-4.517	33.027	1453.298	1237.482
-3.502	33.070	1452.567	1237.093
-2.487	33.131	1451.013	1236.118
-1.473	33.014	1450.425	1234.802
-0.458	33.011	1448.692	1233.260
0.556	33.652	1438.955	1222.319
1.571	30.785	1415.158	1183.798
2.586	27.676	1360.922	1119.281
3.600	26.229	1283.016	1046.734
4.615	24.936	1235.440	1000.614
5.629	21.415	1177.627	934.913
6.644	11.482	1089.658	815.614
7.659	3.494	1047.299	745.359
8.673	2.271	1041.960	735.608
9.688	2.132	1038.647	732.536
10.702	1.982	1037.461	730.918
11.717	1.976	1035.397	729.371
12.731	5.811	1039.831	750.818
13.746	15.798	1054.168	809.366
14.761	23.406	1063.347	853.108
15.775	25.038	1064.756	862.024
16.790	25.259	1065.393	863.524
17.804	25.199	1064.068	862.087
18.819	25.101	1063.040	860.705
19.834	25.210	1062.258	860.522
20.848	25.322	1061.641	860.480
21.863	25.364	1061.665	860.626
22.877	25.284	1061.755	860.240
23.892	25.163	1060.899	858.890
24.907	25.210	1059.566	857.958
25.921	25.277	1058.940	857.698
26.936	25.336	1058.084	857.211
27.950	25.299	1057.576	856.547
28.965	25.129	1056.213	854.558
29.980	25.148	1054.251	852.982
30.994	25.039	1053.577	851.845
32.009	25.337	1052.491	852.305
33.023	25.291	1052.240	851.809
34.038	25.231	1050.685	850.191
35.053	25.102	1050.485	849.343
36.067	25.345	1049.174	849.355
37.082	25.231	1048.850	848.479
38.096	25.212	1048.533	848.061
39.111	25.356	1048.003	848.235
40.126	25.610	1046.503	848.145
41.140	25.504	1044.984	846.341
42.155	25.229	1043.955	844.136
43.169	24.908	1043.157	841.907
44.184	24.791	1041.833	840.217
45.199	24.906	1040.764	839.820
46.213	24.816	1039.791	838.536
47.228	24.811	1039.445	838.158
48.242	24.980	1038.364	838.002
49.257	25.233	1037.850	838.697
50.271	25.021	1037.455	837.316
51.286	25.224	1036.836	837.690
52.301	25.204	1035.848	836.724
53.315	25.283	1035.417	836.670
54.330	25.256	1034.175	835.468
55.344	25.219	1033.425	834.612
56.359	25.357	1032.248	834.230
57.374	25.150	1032.215	833.170
58.388	25.182	1030.243	831.650
59.403	25.148	1029.314	830.670
60.417	25.047	1029.586	830.347
61.432	24.858	1028.844	828.803
62.447	24.945	1027.915	828.382
63.461	24.997	1027.651	828.339
64.476	25.053	1026.495	827.589
65.490	24.976	1025.853	826.642
66.505	24.982	1024.348	825.387
67.520	24.992	1024.190	825.234
68.534	24.998	1023.784	824.858
69.549	24.982	1022.575	823.740
70.563	24.522	1021.222	820.462
71.578	24.504	1020.417	819.663
72.593	24.524	1019.929	819.289
73.607	24.437	1018.335	817.539
74.622	24.441	1017.396	816.727
75.636	24.698	1016.977	817.495
76.651	24.913	1016.092	817.694
77.666	24.895	1015.100	816.740
78.680	24.694	1014.152	814.989
79.695	24.649	1013.957	814.555
80.709	24.699	1013.176	814.085
81.724	24.966	1012.118	814.374
82.739	24.934	1011.523	813.682
83.753	24.895	1010.833	812.877
84.768	25.209	1010.276	813.783
85.782	25.463	1009.687	814.385
86.797	25.625	1008.936	814.440
87.812	25.631	1007.978	813.622
88.826	25.443	1006.908	811.839
89.841	25.427	1006.348	811.243
90.855	25.599	1005.636	811.374
91.870	25.487	1004.942	810.235
92.884	25.465	1003.818	809.160
93.899	25.409	1002.929	808.121
94.914	25.395	1002.235	807.424
95.928	25.407	1001.850	807.099
96.943	25.504	1000.815	806.628
97.957	25.091	999.952	804.010
98.972	24.938	998.257	801.889
99.987	24.850	997.399	800.738
101.001	24.764	997.049	800.000
102.016	25.304	995.837	801.370
103.030	25.346	995.210	800.979
104.045	25.115	994.649	799.427
105.060	25.068	993.210	797.989
106.074	24.912	991.799	796.092
107.089	24.820	991.784	795.602
108.103	25.108	991.449	796.544
109.118	25.383	989.927	796.468
110.133	24.963	989.004	793.795
111.147	24.947	987.750	792.647
112.162	24.867	986.584	791.288
113.176	24.665	985.704	789.620
114.191	24.819	985.364	789.958
115.206	24.898	984.555	789.585
116.220	24.727	982.735	787.304
117.235	24.420	982.210	785.461
118.249	24.584	981.694	785.701
119.264	24.618	981.269	785.443
120.279	24.617	979.757	784.158
121.293	24.599	979.187	783.555
122.308	24.621	978.630	783.135
123.322	24.784	977.348	782.754
124.337	24.776	976.271	781.786
125.352	24.535	975.562	780.097
126.366	24.125	973.473	776.570
127.381	23.783	972.583	774.303
128.395	24.375	972.581	776.809
129.410	25.029	972.504	779.529
130.424	25.217	971.307	779.313
131.439	25.119	970.660	778.300
132.454	25.207	969.090	777.355
133.468	25.162	968.495	776.616
134.483	25.058	967.846	775.577
135.497	25.100	967.446	775.369
136.512	25.396	966.707	775.987
137.527	25.335	966.142	775.199
138.541	25.416	965.191	774.716
139.556	25.366	964.696	774.038
140.570	25.322	963.956	773.184
141.585	25.389	962.910	772.566
142.600	25.528	962.101	772.446
143.614	25.445	961.353	771.422
144.629	25.499	960.777	771.123
145.643	25.803	959.868	771.624
146.658	25.665	958.925	770.208
147.673	25.446	957.614	768.151
148.687	25.372	956.793	767.108
149.702	25.337	955.534	765.884
150.716	25.063	954.981	764.206
151.731	25.161	953.916	763.702
152.746	25.276	952.699	763.148
153.760	25.440	952.455	763.581
154.775	25.658	951.372	763.571
155.789	25.668	951.085	763.316
156.804	25.556	950.008	761.910
157.819	25.577	948.911	761.053
158.833	25.652	947.868	760.464
159.848	25.696	947.763	760.500
160.862	25.752	946.894	759.972
161.877	25.538	946.061	758.334
162.892	25.516	945.384	757.629
163.906	25.545	944.391	756.888
164.921	25.520	943.508	756.008
165.935	25.480	942.306	754.812
166.950	25.529	941.384	754.211
167.964	25.591	940.261	753.505
168.979	25.546	939.458	752.606
169.994	25.477	938.025	751.105
171.008	25.343	937.340	749.930
172.023	25.597	936.675	750.393
173.037	25.735	936.277	750.582
174.052	25.446	935.256	748.492
175.067	25.238	934.317	746.809
176.081	25.230	933.171	745.795
177.096	25.437	932.703	746.216
178.110	25.419	931.565	745.162
179.125	25.115	930.744	743.180
180.140	24.797	929.839	741.074
181.154	25.019	928.785	741.087
182.169	25.023	928.529	740.835
183.183	25.307	928.120	741.615
184.198	25.531	927.560	742.029
185.213	25.604	927.040	741.849
186.227	25.397	926.522	740.515
187.242	25.508	926.097	740.566
188.256	25.662	925.075	740.317
189.271	25.498	924.496	739.112
190.286	25.716	923.522	739.166
191.300	25.460	923.133	737.737
192.315	24.813	921.813	733.964
193.329	24.241	919.667	729.850
194.344	23.689	918.917	726.931
195.359	24.355	919.022	729.674
196.373	25.312	919.404	733.825
197.388	25.469	918.999	734.078
198.402	25.314	918.229	732.768
199.417	25.302	917.898	732.391
200.432	25.473	917.455	732.669
201.446	25.298	916.844	731.401
202.461	25.014	916.023	729.526
203.475	25.121	915.205	729.244
204.490	24.727	913.450	726.181
205.504	23.600	911.703	720.158
206.519	23.881	912.115	721.563
207.534	24.810	912.094	725.248
208.548	25.155	911.348	725.987
209.563	25.333	911.374	726.665
210.577	25.306	910.475	725.774
211.592	25.114	909.768	724.371
212.607	25.537	909.864	726.094
213.621	25.627	909.416	726.036
214.636	25.629	908.375	725.146
215.650	25.660	907.913	724.837
216.665	25.489	907.729	723.937
217.680	25.636	907.212	724.053
218.694	25.720	906.248	723.559
219.709	25.277	905.804	721.360
220.723	25.103	904.258	719.365
221.738	25.321	903.744	719.767
222.753	25.424	903.332	719.788
223.767	25.330	902.746	718.881
224.782	25.554	901.517	718.737
225.796	25.746	901.193	719.180
226.811	25.749	900.957	718.941
227.826	25.370	899.624	716.302
228.840	24.520	898.383	711.862
229.855	24.385	897.751	710.763
230.869	24.754	897.283	711.798
231.884	24.309	896.295	709.182
232.899	24.387	895.798	709.037
233.913	25.175	896.061	712.313
234.928	25.402	895.686	712.852
235.942	25.251	895.284	711.870
236.957	25.297	894.167	711.102
237.972	24.991	893.250	709.096
238.986	24.899	892.371	707.974
240.001	25.126	892.147	708.632
241.015	25.065	891.539	707.846
242.030	25.221	890.757	707.773
243.045	25.369	890.239	707.884
244.059	25.289	890.069	707.371
245.074	25.513	889.372	707.636
246.088	25.555	888.713	707.217
247.103	25.224	887.651	705.006
248.117	25.239	886.894	704.404
249.132	25.677	886.958	706.111
250.147	26.033	886.841	707.350
251.161	26.223	886.339	707.631
252.176	26.344	886.121	707.869
253.190	26.343	885.798	707.544
254.205	26.309	885.100	706.792
255.220	26.514	884.700	707.213
256.234	26.640	883.893	706.995
257.249	26.474	883.098	705.649
258.263	26.220	882.910	704.446
259.278	26.324	882.148	704.181
260.293	26.263	881.654	703.489
261.307	26.505	881.371	704.139
262.322	26.375	880.386	702.785
263.336	26.223	879.354	701.308
264.351	25.658	878.534	698.401
265.366	24.679	876.259	692.741
266.380	24.204	875.837	690.506
267.395	25.109	876.086	694.147
268.409	25.888	876.017	697.042
269.424	25.839	875.267	696.194
270.439	26.071	874.811	696.666
271.453	26.100	874.338	696.343
272.468	25.992	873.886	695.502
273.482	26.386	873.440	696.604
274.497	26.487	873.064	696.634
275.512	26.156	871.958	694.417
276.526	25.785	870.191	691.523
277.541	25.964	869.881	691.902
278.555	26.096	870.684	692.986
279.570	25.910	869.878	691.572
280.585	25.776	868.809	690.143
281.599	25.963	868.439	690.505
282.614	26.062	867.866	690.370
283.628	25.497	866.644	687.176
284.643	25.224	865.789	685.395
285.657	25.688	865.657	686.999
286.672	25.542	865.124	685.961
287.687	25.201	863.818	683.564
288.701	25.436	863.724	684.325
289.716	25.838	863.544	685.654
290.730	25.475	862.645	683.496
291.745	25.374	861.577	682.206
292.760	25.185	861.144	681.086
293.774	25.204	860.322	680.447
294.789	26.103	861.053	684.376
295.803	26.778	860.857	686.718
296.818	26.583	860.628	685.736
297.833	26.825	859.911	686.019
298.847	26.522	858.887	683.998
299.862	26.246	858.059	682.235
300.876	26.259	857.678	681.921
301.891	26.666	857.117	682.951
302.906	26.677	857.117	682.930
303.920	26.137	855.893	679.863
304.935	26.290	854.870	679.566
305.949	26.545	854.896	680.483
306.964	26.691	854.556	680.704
307.979	26.545	853.247	679.053
308.993	26.327	853.167	678.110
310.008	26.748	852.931	679.440
311.022	26.823	852.786	679.546
312.037	26.709	852.136	678.539
313.052	26.377	851.467	676.708
314.066	26.206	850.570	675.294
315.081	25.727	848.672	671.938
316.095	24.798	847.803	667.727
317.110	25.314	848.062	669.798
318.125	26.121	848.682	673.239
319.139	25.917	847.548	671.519
320.154	24.793	845.259	665.468
321.168	24.313	844.616	663.119
322.183	25.063	844.711	665.925
323.197	25.851	845.476	669.395
324.212	26.373	844.792	670.734
325.227	26.270	844.594	670.134
326.241	26.430	844.153	670.318
327.256	26.432	843.251	669.549
328.270	26.130	842.981	668.160
329.285	26.245	842.081	667.811
330.300	26.141	841.155	666.632
331.314	25.935	840.275	665.116
332.329	25.902	840.093	664.794
333.343	26.337	839.971	666.241
334.358	26.630	839.422	666.827
335.373	26.471	839.337	666.114
336.387	26.627	838.580	666.026
337.402	26.777	838.241	666.252
338.416	26.927	837.774	666.370
339.431	26.869	837.517	665.897
340.446	26.840	837.008	665.325
341.460	27.157	836.253	665.827
342.475	27.075	835.555	664.914
343.489	26.875	834.829	663.543
344.504	26.933	834.057	663.084
345.519	27.216	834.137	664.124
346.533	27.490	833.554	664.600
347.548	27.401	833.461	664.143
348.562	27.321	833.318	663.676
349.577	27.357	832.154	662.825
350.592	27.112	831.680	661.494
351.606	27.302	831.105	661.669
352.621	27.312	830.772	661.384
353.635	27.164	829.823	660.033
354.650	27.031	830.006	659.635
355.665	26.756	828.699	657.543
356.679	25.654	827.088	652.213
357.694	25.632	826.539	651.642
358.708	26.366	826.345	654.089
359.723	26.291	825.539	653.122
360.738	26.421	825.647	653.619
361.752	26.851	825.803	655.239
362.767	27.049	825.346	655.535
363.781	27.256	825.067	656.000
364.796	27.655	824.634	657.036
365.810	27.584	824.778	656.836
366.825	27.793	824.085	656.978
367.840	27.818	823.874	656.843
368.854	27.685	822.976	655.591
369.869	27.209	822.198	653.203
370.883	26.952	821.270	651.487
371.898	26.934	821.220	651.323
372.913	27.004	820.481	650.931
373.927	26.969	819.882	650.272
374.942	27.179	819.180	650.410
375.956	27.360	818.556	650.503
376.971	27.389	818.211	650.276
377.986	27.477	817.647	650.084
379.000	27.612	817.400	650.313
380.015	27.657	816.856	649.983
381.029	27.497	816.095	648.748
382.044	27.517	815.424	648.229
383.059	27.803	814.646	648.569
384.073	27.636	814.298	647.641
385.088	27.667	813.785	647.286
386.102	27.700	813.647	647.238
387.117	27.490	812.892	645.836
388.132	27.427	812.489	645.235
389.146	27.111	811.622	643.370
390.161	26.644	810.451	640.733
391.175	26.799	810.166	640.999
392.190	27.264	810.018	642.468
393.205	27.284	809.605	642.153
394.219	26.236	807.943	637.087
395.234	24.662	805.728	629.743
396.248	23.953	804.763	626.437
397.263	25.174	805.467	631.229
398.278	26.820	807.229	638.353
399.292	27.243	807.030	639.626
400.307	27.033	806.082	638.084
401.321	26.743	806.191	637.093
402.336	26.953	805.411	637.157
403.350	27.202	805.653	638.168
404.365	27.746	805.571	639.953
405.380	28.006	805.360	640.640
406.394	28.194	805.223	641.133
407.409	28.559	804.362	641.669
408.423	28.375	804.036	640.708
409.438	28.125	803.680	639.496
410.453	28.269	803.082	639.465
411.467	28.389	802.480	639.348
412.482	28.357	801.989	638.787
413.496	28.226	801.458	637.853
414.511	28.361	801.577	638.361
415.526	28.281	801.066	637.618
416.540	28.419	800.160	637.322
417.555	28.363	799.987	636.933
418.569	27.971	798.990	634.719
419.584	28.047	798.320	634.397
420.599	28.036	798.075	634.107
421.613	110.524	1284.310	1454.069
422.628	95.275	1355.166	1454.189
