DTS Sentinel unit serial number:	SN413079Multiplexer serial number:	ORYXHardware model number:	OX4-SRSoftware version number:	ORYX F/W v4.00 Oryx Data Collector v3.7.2.0data status	okinstallation	princeton_trtdifferential loss correction	single-endedforward channel	channel 3reverse channel	N/Adate	2019/09/11time	22:26:10forward acquisition time	60.00reverse acquisition time	0.00gamma	496.2192k internal	0.2314k external	0.2314temperature offset calibration	1.0045default loss term (dB/km)	0.3790temperature slope calibration	1.0000multiplexer offset coefficient	1.0000multiplexer slope coefficient	1.0000fibre end	0.00T internal ref (°C)	35.12T ext. ref 1 (°C)	1.74T ext. ref 2 (°C)	29.45length (m)	temperature (°C)	Stokes	anti-Stokes-747.200	72.910	0.043	-0.045
-746.185	125.447	-0.091	-0.116
-745.171	138.696	0.151	0.201
-744.156	-200.000	0.038	0.196
-743.142	-50.458	0.103	-0.049
-742.127	43.151	-0.196	-0.182
-741.112	129.205	0.220	-0.284
-740.098	-84.454	-0.214	0.069
-739.083	-68.961	-0.357	0.140
-738.069	63.213	-0.085	-0.087
-737.054	800.000	0.074	0.228
-736.039	-200.000	-0.180	-0.000
-735.025	-26.494	-0.266	0.158
-734.010	29.583	-0.166	-0.143
-732.996	-26.632	-0.148	0.088
-731.981	-200.000	-0.034	-0.287
-730.966	-200.000	-0.021	-0.167
-729.952	577.732	-0.130	-0.323
-728.937	375.480	-0.043	0.088
-727.923	-75.531	0.241	-0.087
-726.908	-163.210	0.411	0.020
-725.894	-58.375	-0.473	-0.208
-724.879	-200.000	0.034	-0.183
-723.864	-34.030	-0.203	0.113
-722.850	-86.052	0.288	0.090
-721.835	-200.000	0.001	0.025
-720.821	800.000	0.030	0.099
-719.806	-160.318	-0.400	0.022
-718.791	-38.676	-0.102	0.055
-717.777	445.929	0.267	-0.594
-716.762	-102.606	-0.152	-0.037
-715.748	105.509	-0.273	-0.327
-714.733	56.784	0.129	-0.127
-713.718	134.541	0.084	-0.110
-712.704	-200.000	-0.006	-0.197
-711.689	800.000	0.077	0.268
-710.675	-152.484	-0.170	-0.012
-709.660	11.460	-0.278	-0.216
-708.645	800.000	0.019	-0.076
-707.631	-66.873	-0.317	-0.127
-706.616	485.735	0.034	-0.079
-705.602	-100.027	-0.312	0.079
-704.587	388.248	0.037	0.077
-703.572	-157.176	-0.268	0.017
-702.558	-63.806	-0.162	0.067
-701.543	-149.109	0.231	0.019
-700.529	800.000	0.102	0.320
-699.514	-200.000	0.030	0.230
-698.499	-133.571	0.251	0.032
-697.485	11.101	-0.318	0.246
-696.470	475.778	-0.073	0.167
-695.456	800.000	0.051	0.213
-694.441	-148.842	0.163	-0.013
-693.426	800.000	0.044	-0.171
-692.412	-44.736	-0.367	0.185
-691.397	-26.380	-0.083	-0.049
-690.383	6.250	0.174	0.131
-689.368	614.959	0.083	-0.210
-688.354	800.000	0.056	-0.157
-687.339	-69.916	-0.203	-0.078
-686.324	51.194	0.059	-0.057
-685.310	675.741	-0.124	-0.325
-684.295	800.000	-0.060	-0.196
-683.281	29.357	-0.066	0.056
-682.266	-131.506	-0.233	-0.031
-681.251	32.758	0.157	-0.137
-680.237	-158.876	-0.476	0.027
-679.222	7.506	-0.263	0.199
-678.208	-89.048	-0.151	-0.045
-677.193	-200.000	-0.044	-0.500
-676.178	-47.075	0.338	-0.167
-675.164	28.347	0.199	0.170
-674.149	-107.188	0.230	0.051
-673.135	2.968	0.235	0.172
-672.120	230.306	-0.225	-0.371
-671.105	-200.000	0.054	-0.306
-670.091	108.071	-0.277	0.334
-669.076	-92.906	-0.187	0.053
-668.062	-43.940	0.156	0.079
-667.047	-200.000	0.034	0.260
-666.032	-200.000	0.012	0.078
-665.018	800.000	0.051	0.153
-664.003	-122.665	0.478	0.078
-662.989	-54.252	-0.107	-0.049
-661.974	205.644	0.152	0.239
-660.959	-28.563	-0.159	-0.093
-659.945	27.315	-0.076	0.064
-658.930	-200.000	0.022	-0.144
-657.916	-200.000	-0.029	-0.388
-656.901	-200.000	-0.053	-0.448
-655.886	-200.000	0.013	-0.158
-654.872	-120.325	-0.212	0.037
-653.857	-64.346	-0.130	-0.053
-652.843	109.738	-0.166	-0.201
-651.828	-5.163	0.097	-0.067
-650.814	102.377	0.116	-0.137
-649.799	303.632	0.024	-0.046
-648.784	-200.000	0.011	0.365
-647.770	-20.022	0.055	-0.035
-646.755	-140.346	-0.292	-0.031
-645.741	-87.290	0.152	-0.047
-644.726	30.274	-0.320	0.276
-643.711	-200.000	0.033	-0.271
-642.697	-110.485	0.241	-0.051
-641.682	124.004	0.230	-0.292
-640.668	-80.705	-0.069	0.023
-639.653	0.044	-0.184	-0.132
-638.638	800.000	-0.086	-0.262
-637.624	44.656	-0.116	-0.107
-636.609	-122.423	-0.276	0.045
-635.595	-55.663	-0.092	-0.041
-634.580	-63.750	-0.435	0.180
-633.565	-22.944	-0.186	-0.113
-632.551	-163.197	-0.200	0.010
-631.536	-106.549	-0.299	-0.067
-630.522	-3.211	0.158	-0.111
-629.507	-200.000	0.048	-0.408
-628.492	-33.482	0.320	-0.179
-627.478	53.053	-0.127	0.123
-626.463	93.524	-0.166	-0.190
-625.449	-45.575	-0.133	-0.066
-624.434	-200.000	0.368	0.001
-623.419	150.193	-0.128	0.176
-622.405	78.240	-0.084	0.091
-621.390	-72.150	-0.138	0.052
-620.376	-92.304	-0.115	-0.033
-619.361	-200.000	0.003	0.434
-618.346	-74.663	-0.558	-0.202
-617.332	-200.000	-0.002	0.075
-616.317	357.384	0.099	0.200
-615.303	-136.620	-0.129	-0.015
-614.288	-67.205	-0.294	-0.117
-613.273	109.077	-0.037	-0.044
-612.259	-152.278	0.193	-0.014
-611.244	-139.686	-0.315	0.034
-610.230	88.862	0.183	0.205
-609.215	-110.737	0.169	-0.035
-608.201	-200.000	0.044	0.409
-607.186	277.192	-0.049	-0.087
-606.171	147.113	0.237	0.322
-605.157	63.198	0.304	0.307
-604.142	49.107	0.214	-0.203
-603.128	82.830	-0.266	-0.291
-602.113	800.000	-0.038	-0.111
-601.098	-200.000	0.013	-0.170
-600.084	-119.982	-0.137	0.024
-599.069	-164.023	0.215	0.010
-598.055	-67.491	0.228	0.090
-597.040	55.445	0.232	-0.226
-596.025	214.168	0.199	0.317
-595.011	286.604	0.183	0.334
-593.996	-200.000	0.016	0.264
-592.982	-121.044	0.296	-0.050
-591.967	-100.784	-0.366	-0.091
-590.952	-106.331	0.280	-0.063
-589.938	130.173	-0.110	-0.142
-588.923	-109.684	0.150	-0.032
-587.909	-104.890	-0.152	-0.035
-586.894	-66.971	0.225	0.089
-585.879	-106.734	-0.482	-0.108
-584.865	800.000	-0.058	0.204
-583.850	202.489	0.205	0.318
-582.836	14.134	-0.194	0.153
-581.821	-119.468	-0.044	0.008
-580.806	374.193	0.025	0.051
-579.792	-189.980	0.219	-0.002
-578.777	-200.000	-0.005	0.211
-577.763	-58.817	0.112	0.049
-576.748	-76.823	0.303	-0.107
-575.733	660.403	0.044	0.115
-574.719	-18.998	-0.322	0.202
-573.704	-89.625	-0.270	0.080
-572.690	-18.883	-0.056	-0.035
-571.675	-29.818	-0.160	0.092
-570.661	712.960	-0.088	-0.235
-569.646	-92.835	0.103	-0.029
-568.631	-200.000	-0.015	-0.149
-567.617	286.454	0.075	0.136
-566.602	391.254	0.068	0.142
-565.588	179.066	-0.238	-0.351
-564.573	319.141	-0.204	-0.390
-563.558	2.531	0.221	-0.161
-562.544	-47.326	0.230	-0.113
-561.529	152.466	0.084	-0.115
-560.515	-19.387	0.062	0.039
-559.500	155.880	0.111	-0.155
-558.485	240.431	0.139	0.233
-557.471	800.000	-0.031	0.117
-556.456	101.687	-0.024	0.028
-555.442	469.049	0.107	0.241
-554.427	239.264	-0.101	-0.170
-553.412	-1.261	-0.191	-0.136
-552.398	-154.901	-0.239	0.016
-551.383	-40.049	-0.267	-0.140
-550.369	-200.000	-0.021	0.204
-549.354	358.712	-0.061	0.124
-548.339	732.592	-0.046	0.123
-547.325	324.661	-0.037	-0.071
-546.310	250.563	-0.122	0.208
-545.296	287.257	0.172	0.313
-544.281	800.000	0.084	0.335
-543.266	-70.673	0.247	0.094
-542.252	-155.717	0.074	-0.005
-541.237	-45.222	-0.223	0.112
-540.223	-49.217	-0.273	0.131
-539.208	-200.000	0.061	-0.279
-538.193	-91.245	0.245	-0.071
-537.179	-133.029	0.372	0.048
-536.164	311.520	0.183	-0.346
-535.150	311.262	-0.104	-0.196
-534.135	96.850	0.082	-0.094
-533.121	8.114	-0.223	-0.168
-532.106	-87.051	-0.262	-0.080
-531.091	-6.912	0.149	0.101
-530.077	-126.855	0.315	-0.047
-529.062	110.824	0.115	0.139
-528.048	67.485	0.208	-0.213
-527.033	-200.000	-0.007	-0.346
-526.018	-5.415	0.114	0.078
-525.004	800.000	0.050	0.148
-523.989	-200.000	0.024	0.147
-522.975	-200.000	-0.024	-0.162
-521.960	-53.500	-0.173	-0.080
-520.945	-148.251	0.252	-0.021
-519.931	-100.162	-0.225	0.056
-518.916	280.816	0.018	-0.032
-517.902	19.768	0.071	-0.058
-516.887	453.674	-0.059	-0.130
-515.872	-75.319	0.054	-0.019
-514.858	800.000	0.064	-0.201
-513.843	91.728	-0.207	-0.233
-512.829	89.248	0.100	0.112
-511.814	-68.806	0.071	0.027
-510.799	-54.568	-0.260	0.118
-509.785	800.000	0.094	0.355
-508.770	562.276	0.097	-0.237
-507.756	-73.543	0.160	-0.059
-506.741	-147.767	-0.155	-0.013
-505.726	378.555	0.106	0.217
-504.712	-26.487	0.129	0.076
-503.697	-100.060	-0.269	0.067
-502.683	800.000	0.018	-0.067
-501.668	469.343	0.144	0.324
-500.653	24.601	-0.089	-0.074
-499.639	-69.868	-0.247	-0.094
-498.624	104.993	-0.053	-0.063
-497.610	-35.735	-0.174	0.095
-496.595	-160.524	0.142	0.008
-495.581	276.402	-0.071	-0.127
-494.566	800.000	0.032	-0.108
-493.551	-163.671	-0.584	-0.028
-492.537	466.185	-0.185	0.416
-491.522	12.262	0.377	0.291
-490.508	453.079	0.036	-0.080
-489.493	58.574	0.188	0.185
-488.478	132.171	0.115	-0.149
-487.464	-111.736	0.229	-0.047
-486.449	-179.979	-0.130	-0.003
-485.435	-11.632	-0.223	0.147
-484.420	78.629	0.146	-0.157
-483.405	-105.548	-0.370	0.084
-482.391	-10.199	-0.116	-0.078
-481.376	-166.185	-0.443	0.019
-480.362	305.508	-0.038	0.071
-479.347	-2.532	0.213	-0.149
-478.332	-90.174	0.094	-0.027
-477.318	-7.537	-0.116	-0.079
-476.303	-75.669	-0.027	0.010
-475.289	51.581	-0.273	0.260
-474.274	-106.182	-0.222	0.050
-473.259	130.196	0.206	-0.264
-472.245	-0.502	-0.065	0.046
-471.230	-200.000	0.021	0.111
-470.216	-200.000	-0.023	0.475
-469.201	-69.579	0.068	-0.026
-468.186	-200.000	0.029	0.149
-467.172	-107.831	-0.331	-0.072
-466.157	800.000	-0.034	0.113
-465.143	-82.180	0.313	0.102
-464.128	60.091	-0.116	-0.115
-463.113	613.016	-0.123	-0.308
-462.099	-200.000	0.031	-0.332
-461.084	9.898	0.077	0.058
-460.070	-51.349	-0.161	-0.075
-459.055	184.497	-0.026	0.039
-458.040	-200.000	-0.046	0.239
-457.026	-200.000	0.052	-0.422
-456.011	-1.016	0.285	0.202
-454.997	-52.400	-0.128	0.059
-453.982	170.102	-0.148	-0.213
-452.968	-108.395	-0.238	0.051
-451.953	107.172	0.264	0.315
-450.938	-200.000	-0.083	0.479
-449.924	117.028	-0.103	0.127
-448.909	-200.000	-0.040	-0.367
-447.895	-200.000	-0.003	0.238
-446.880	9.618	0.237	-0.180
-445.865	-115.631	0.080	0.015
-444.851	-80.556	-0.315	0.105
-443.836	-161.063	-0.219	0.011
-442.822	188.356	-0.128	0.191
-441.807	800.000	0.060	0.187
-440.792	-119.791	0.147	-0.025
-439.778	-111.887	0.038	0.008
-438.763	30.439	0.362	0.310
-437.749	518.049	-0.137	0.322
-436.734	622.013	0.105	-0.265
-435.719	59.935	0.158	0.157
-434.705	-200.000	-0.034	0.458
-433.690	-80.756	-0.267	0.089
-432.676	-200.000	0.015	-0.250
-431.661	63.508	0.178	-0.179
-430.646	57.591	-0.092	0.090
-429.632	270.487	0.055	-0.097
-428.617	800.000	0.023	0.071
-427.603	190.848	0.161	0.243
-426.588	-105.916	0.066	-0.015
-425.573	-70.578	0.137	-0.052
-424.559	-60.725	-0.370	-0.157
-423.544	-169.241	0.311	-0.012
-422.530	-168.761	0.109	0.004
-421.515	365.928	-0.071	-0.143
-420.500	-200.000	0.001	0.188
-419.486	-145.849	-0.153	-0.014
-418.471	-17.239	-0.103	0.065
-417.457	-171.058	0.076	0.003
-416.442	-66.267	-0.228	0.091
-415.428	800.000	-0.022	-0.095
-414.413	-200.000	-0.028	0.180
-413.398	30.466	0.225	0.193
-412.384	131.459	0.138	0.178
-411.369	-200.000	-0.003	0.109
-410.355	-49.320	0.058	0.028
-409.340	-193.126	-0.412	-0.004
-408.325	800.000	-0.072	-0.296
-407.311	-110.260	0.296	0.062
-406.296	-123.807	-0.132	0.021
-405.282	28.652	-0.232	0.196
-404.267	650.013	0.070	0.180
-403.252	-129.609	0.170	0.023
-402.238	-33.321	-0.081	-0.045
-401.223	101.896	-0.186	-0.217
-400.209	-200.000	0.035	0.190
-399.194	-42.511	-0.037	-0.019
-398.179	461.952	-0.106	-0.236
-397.165	-200.000	0.015	-0.171
-396.150	-1.083	-0.232	0.164
-395.136	47.552	0.046	-0.043
-394.121	461.706	-0.024	-0.054
-393.106	119.440	-0.308	-0.382
-392.092	247.101	-0.096	-0.162
-391.077	-200.000	0.047	0.328
-390.063	209.108	-0.081	-0.126
-389.048	204.795	-0.156	0.242
-388.033	675.717	-0.109	0.282
-387.019	189.108	0.120	0.180
-386.004	39.885	0.249	-0.224
-384.990	-122.270	-0.337	0.055
-383.975	50.599	0.130	0.123
-382.960	32.387	-0.137	0.118
-381.946	107.834	-0.245	-0.292
-380.931	-200.000	0.015	0.377
-379.917	62.052	0.326	0.325
-378.902	92.280	-0.125	0.141
-377.888	113.601	0.058	-0.070
-376.873	-57.293	-0.082	0.036
-375.858	-146.778	0.319	0.028
-374.844	-200.000	0.023	0.160
-373.829	66.248	-0.139	0.141
-372.815	408.612	0.042	0.088
-371.800	202.384	-0.021	0.032
-370.785	135.933	-0.144	0.187
-369.771	100.656	-0.108	0.125
-368.756	800.000	0.078	-0.221
-367.742	800.000	-0.043	-0.165
-366.727	800.000	0.040	0.155
-365.712	363.229	-0.049	-0.098
-364.698	-200.000	-0.013	-0.163
-363.683	188.523	0.166	-0.248
-362.669	-60.783	0.194	0.082
-361.654	-171.589	-0.144	-0.005
-360.639	-200.000	0.017	-0.104
-359.625	-128.408	-0.218	0.031
-358.610	484.878	-0.031	-0.071
-357.596	-147.195	0.204	-0.017
-356.581	-200.000	0.028	-0.228
-355.566	123.730	-0.077	0.096
-354.552	73.422	-0.262	0.273
-353.537	20.107	-0.126	-0.102
-352.523	42.817	-0.211	0.192
-351.508	33.252	-0.401	-0.347
-350.493	800.000	-0.014	0.049
-349.479	-155.083	-0.081	0.005
-348.464	133.545	-0.095	-0.123
-347.450	800.000	0.070	0.198
-346.435	-200.000	-0.018	-0.117
-345.420	423.298	-0.116	0.248
-344.406	-200.000	-0.005	-0.050
-343.391	-200.000	-0.003	-0.206
-342.377	56.830	-0.134	0.131
-341.362	-15.737	0.051	0.033
-340.348	-200.000	0.067	-0.348
-339.333	800.000	-0.023	0.092
-338.318	210.005	0.137	0.214
-337.304	189.673	-0.097	-0.145
-336.289	121.501	0.065	0.081
-335.275	-80.121	-0.303	-0.101
-334.260	-200.000	0.021	-0.147
-333.245	156.354	0.043	0.059
-332.231	800.000	-0.027	0.078
-331.216	-200.000	0.036	0.162
-330.202	219.990	-0.136	0.217
-329.187	276.303	-0.171	-0.303
-328.172	208.883	0.135	-0.211
-327.158	-139.896	-0.160	-0.017
-326.143	426.074	-0.134	-0.287
-325.129	343.599	0.120	0.234
-324.114	-33.373	-0.159	0.088
-323.099	-48.561	0.155	0.074
-322.085	70.798	0.163	0.168
-321.070	82.866	-0.092	-0.100
-320.056	-200.000	0.031	-0.138
-319.041	50.080	0.150	0.141
-318.026	-28.941	0.308	0.176
-317.012	62.980	0.171	-0.171
-315.997	-127.304	0.411	0.060
-314.983	46.137	-0.069	-0.064
-313.968	-106.189	0.663	-0.148
-312.953	709.018	0.044	0.115
-311.939	288.612	0.055	-0.098
-310.924	45.492	0.040	0.036
-309.910	-85.776	0.126	-0.039
-308.895	-200.000	-0.024	-0.420
-307.880	-83.471	0.198	-0.063
-306.866	-3.907	-0.180	-0.125
-305.851	-67.806	-0.232	-0.090
-304.837	-103.036	0.276	-0.065
-303.822	-200.000	0.017	-0.482
-302.807	-134.582	-0.350	0.043
-301.793	92.343	-0.078	-0.088
-300.778	-122.951	0.247	0.040
-299.764	233.574	0.145	0.238
-298.749	800.000	-0.095	0.307
-297.735	-70.704	-0.418	0.157
-296.720	78.953	-0.160	0.171
-295.705	-106.055	-0.189	0.042
-294.691	628.396	0.127	0.320
-293.676	-53.185	-0.261	-0.119
-292.662	103.210	0.111	0.130
-291.647	-20.900	0.270	0.165
-290.632	-30.387	0.258	-0.146
-289.618	-10.784	0.205	-0.135
-288.603	248.836	-0.064	-0.108
-287.589	800.000	-0.049	0.190
-286.574	-30.962	-0.067	-0.038
-285.559	16.767	-0.189	-0.149
-284.545	-110.295	0.143	0.030
-283.530	-200.000	0.025	-0.356
-282.516	6.180	-0.036	0.027
-281.501	-173.487	-0.051	0.002
-280.486	46.665	0.143	-0.133
-279.472	55.076	-0.227	0.219
-278.457	-9.354	0.137	0.091
-277.443	61.974	-0.346	-0.343
-276.428	232.955	0.129	-0.212
-275.413	41.593	0.135	-0.122
-274.399	800.000	0.031	-0.124
-273.384	-146.800	-0.054	0.005
-272.370	103.906	-0.085	-0.099
-271.355	-48.595	0.422	-0.202
-270.340	-81.131	-0.051	0.017
-269.326	-87.643	-0.067	-0.020
-268.311	293.107	0.199	-0.361
-267.297	35.913	0.205	0.180
-266.282	-123.979	0.480	-0.075
-265.267	-200.000	-0.012	-0.153
-264.253	267.207	-0.015	0.027
-263.238	-8.101	-0.244	-0.164
-262.224	-6.448	-0.202	0.137
-261.209	231.463	0.138	-0.226
-260.195	-68.409	-0.186	-0.072
-259.180	412.891	0.063	-0.133
-258.165	98.350	0.136	-0.156
-257.151	340.257	0.109	-0.212
-256.136	10.377	-0.049	0.037
-255.122	-162.366	0.202	0.010
-254.107	-140.441	0.153	0.016
-253.092	-106.873	0.301	-0.066
-252.078	-80.405	0.217	0.072
-251.063	134.665	0.091	0.117
-250.049	32.094	0.287	-0.246
-249.034	800.000	0.068	-0.268
-248.019	-200.000	0.074	-0.351
-247.005	3.276	0.179	-0.130
-245.990	-87.828	0.106	0.032
-244.976	-103.479	-0.165	-0.039
-243.961	-138.069	-0.142	0.016
-242.946	-200.000	0.015	-0.084
-241.932	-131.311	0.168	-0.022
-240.917	-127.566	0.076	0.011
-239.903	212.712	-0.076	-0.120
-238.888	-77.896	0.237	-0.081
-237.873	-146.065	-0.159	-0.014
-236.859	-10.099	0.150	0.099
-235.844	800.000	-0.024	0.070
-234.830	800.000	0.011	0.039
-233.815	800.000	0.074	-0.290
-232.800	659.001	-0.102	-0.261
-231.786	-3.003	0.318	-0.220
-230.771	-200.000	0.034	-0.185
-229.757	171.851	0.023	-0.032
-228.742	104.352	0.062	0.072
-227.727	800.000	0.097	0.329
-226.713	-13.201	0.103	0.066
-225.698	800.000	0.138	0.390
-224.684	-200.000	0.042	-0.388
-223.669	-200.000	-0.024	0.148
-222.655	12.056	-0.295	0.225
-221.640	-38.109	-0.089	-0.047
-220.625	53.036	0.150	-0.143
-219.611	60.889	0.205	0.202
-218.596	-185.291	-0.274	0.004
-217.582	-77.421	0.203	0.070
-216.567	-200.000	0.018	-0.102
-215.552	-24.475	-0.325	0.192
-214.538	-111.903	0.229	0.046
-213.523	260.873	0.015	-0.026
-212.509	-105.218	-0.219	0.050
-211.494	-200.000	0.004	0.130
-210.479	707.638	-0.069	0.180
-209.465	-130.771	0.180	-0.024
-208.450	-127.292	0.184	0.027
-207.436	19.725	0.242	-0.193
-206.421	800.000	-0.013	0.056
-205.406	-18.320	0.177	0.110
-204.392	125.906	0.139	0.175
-203.377	-55.604	0.009	-0.004
-202.363	-200.000	0.008	-0.152
-201.348	504.026	-0.049	-0.112
-200.333	431.451	-0.053	-0.114
-199.319	115.286	-0.108	0.131
-198.304	408.665	0.138	-0.290
-197.290	-106.426	-0.172	-0.038
-196.275	800.000	0.095	0.338
-195.260	326.556	0.097	-0.185
-194.246	800.000	0.025	-0.093
-193.231	85.208	0.106	0.116
-192.217	542.070	-0.055	-0.129
-191.202	-142.244	0.030	0.003
-190.187	34.773	0.156	-0.135
-189.173	-32.133	0.219	0.121
-188.158	800.000	-0.066	0.234
-187.144	252.995	0.062	0.106
-186.129	-93.977	0.198	-0.054
-185.114	800.000	-0.055	0.153
-184.100	501.774	0.028	0.063
-183.085	550.609	0.174	0.413
-182.071	31.129	0.264	-0.225
-181.056	467.331	-0.090	0.199
-180.042	-37.110	-0.174	-0.093
-179.027	130.375	0.281	-0.357
-178.012	-1.587	-0.312	0.218
-176.998	-137.385	0.277	-0.031
-175.983	184.694	-0.187	0.275
-174.969	-76.269	-0.198	0.069
-173.954	800.000	0.031	-0.115
-172.939	-200.000	-0.006	0.051
-171.925	-137.564	-0.359	0.040
-170.910	8.256	0.175	0.130
-169.896	94.152	0.236	-0.266
-168.881	-58.306	-0.255	0.110
-167.866	62.044	0.126	-0.124
-166.852	-186.399	-0.304	-0.004
-165.837	-93.948	-0.133	-0.036
-164.823	523.279	0.052	-0.122
-163.808	737.224	0.050	-0.132
-162.793	125.186	0.174	-0.217
-161.779	800.000	0.020	-0.068
-160.764	-200.000	0.042	-0.346
-159.750	719.154	0.150	0.395
-158.735	-22.748	-0.238	-0.143
-157.720	-200.000	0.009	-0.091
-156.706	-71.130	-0.225	-0.084
-155.691	-111.464	-0.152	-0.031
-154.677	-58.296	-0.070	-0.030
-153.662	-37.009	0.211	-0.112
-152.647	-91.890	-0.052	-0.015
-151.633	-22.554	-0.159	0.095
-150.618	513.628	0.026	-0.061
-149.604	-41.267	-0.374	0.191
-148.589	158.429	0.165	-0.227
-147.574	169.301	0.121	0.171
-146.560	414.425	-0.035	0.075
-145.545	-154.248	-0.332	-0.022
-144.531	-139.351	0.239	-0.025
-143.516	-55.262	-0.247	0.110
-142.502	-127.851	0.099	-0.014
-141.487	38.565	0.171	-0.151
-140.472	477.914	-0.132	-0.295
-139.458	-141.506	-0.068	-0.007
-138.443	78.062	-0.259	-0.274
-137.429	-13.723	0.211	-0.135
-136.414	697.209	0.063	-0.163
-135.399	-101.923	0.260	-0.062
-134.385	-200.000	-0.039	0.176
-133.370	-200.000	-0.006	0.343
-132.356	226.112	-0.161	0.258
-131.341	218.562	-0.114	-0.180
-130.326	286.004	-0.112	0.200
-129.312	24.071	0.216	0.176
-128.297	3.772	0.284	0.205
-127.283	-200.000	-0.017	-0.171
-126.268	-200.000	0.011	0.094
-125.253	35.955	-0.179	0.156
-124.239	-176.524	0.255	0.007
-123.224	-13.743	0.142	-0.091
-122.210	341.337	0.019	0.036
-121.195	-100.005	-0.461	0.114
-120.180	-187.124	0.283	0.004
-119.166	-49.224	0.141	0.067
-118.151	-190.672	0.236	0.002
-117.137	-200.000	0.004	0.220
-116.122	-40.346	0.341	-0.175
-115.107	-103.986	-0.228	-0.053
-114.093	46.894	0.135	0.124
-113.078	-18.492	-0.209	0.129
-112.064	62.447	0.222	-0.220
-111.049	-189.801	0.123	0.001
-110.034	-95.379	-0.231	-0.061
-109.020	76.311	-0.091	-0.095
-108.005	-140.264	-0.049	-0.005
-106.991	-99.625	-0.293	-0.073
-105.976	800.000	-0.024	0.094
-104.962	501.838	0.059	-0.134
-103.947	-200.000	-0.013	-0.272
-102.932	800.000	-0.065	-0.177
-101.918	-118.787	0.244	0.043
-100.903	800.000	-0.018	-0.069
-99.889	-148.638	0.202	0.016
-98.874	140.625	0.160	-0.208
-97.859	-177.239	0.289	0.007
-96.845	-23.146	-0.012	0.007
-95.830	86.339	0.065	-0.071
-94.816	-159.941	-0.100	0.005
-93.801	-98.840	-0.232	0.058
-92.786	21.160	-0.198	0.159
-91.772	-73.276	0.135	0.049
-90.757	156.501	0.166	0.227
-89.743	-8.222	-0.129	0.086
-88.728	-167.823	0.204	-0.008
-87.713	-59.389	-0.086	-0.036
-86.699	123.914	0.181	0.224
-85.684	54.824	-0.109	0.104
-84.670	-62.079	0.162	-0.067
-83.655	208.750	0.176	0.272
-82.640	800.000	0.022	0.092
-81.626	-128.078	0.048	-0.007
-80.611	-200.000	-0.009	-0.077
-79.597	-74.578	0.290	-0.103
-78.582	-55.193	-0.059	-0.026
-77.567	-200.000	-0.017	0.183
-76.553	-64.271	0.271	-0.109
-75.538	-85.615	0.123	-0.038
-74.524	338.094	0.134	0.258
-73.509	-200.000	-0.013	-0.097
-72.494	-127.038	-0.336	0.049
-71.480	47.498	0.276	0.254
-70.465	-32.646	-0.449	-0.247
-69.451	-65.853	0.255	0.101
-68.436	-200.000	-0.006	-0.390
-67.422	-126.214	-0.274	-0.041
-66.407	-200.000	-0.007	-0.099
-65.392	-125.291	0.058	-0.009
-64.378	74.798	0.082	0.085
-63.363	190.687	0.040	0.060
-62.349	-71.297	-0.247	0.092
-61.334	139.017	-0.648	-0.841
-60.319	391.851	0.358	0.735
-59.305	780.788	-0.365	-0.985
-58.290	197.350	0.456	0.688
-57.276	620.533	0.568	1.410
-56.261	-200.000	96.256	583.869
-55.246	568.991	1373.322	3294.783
-54.232	154.185	2578.965	3492.081
-53.217	115.558	2179.612	2629.581
-52.203	45.707	1717.968	1566.936
-51.188	38.354	1529.346	1344.529
-50.173	35.914	1501.846	1303.801
-49.159	55.691	1553.415	1485.226
-48.144	59.633	1572.185	1530.220
-47.130	38.644	1526.956	1344.208
-46.115	35.415	1510.821	1307.985
-45.100	35.254	1508.016	1304.409
-44.086	35.269	1505.886	1302.621
-43.071	35.060	1504.434	1299.888
-42.057	35.021	1502.968	1298.310
-41.042	35.130	1501.161	1297.432
-40.027	35.129	1499.557	1295.986
-39.013	35.088	1498.346	1294.615
-37.998	35.111	1496.942	1293.503
-36.984	35.027	1496.173	1292.225
-35.969	35.083	1494.864	1291.417
-34.954	35.065	1493.592	1290.144
-33.940	35.118	1491.661	1288.784
-32.925	35.133	1490.355	1287.702
-31.911	35.139	1489.311	1286.794
-30.896	35.202	1487.857	1285.911
-29.881	35.258	1486.714	1285.244
-28.867	35.241	1485.057	1283.644
-27.852	35.093	1483.647	1281.387
-26.838	35.208	1482.246	1280.896
-25.823	35.171	1480.866	1279.407
-24.809	35.185	1478.940	1277.786
-23.794	35.199	1477.793	1276.833
-22.779	35.102	1476.545	1275.059
-21.765	35.225	1475.452	1274.883
-20.750	35.280	1474.221	1274.138
-19.736	35.134	1473.458	1272.454
-18.721	35.147	1472.110	1271.326
-17.706	35.123	1470.883	1270.056
-16.692	35.086	1470.061	1269.055
-15.677	35.053	1469.036	1267.902
-14.663	35.109	1467.921	1267.254
-13.648	35.059	1467.225	1266.274
-12.633	35.130	1466.314	1265.908
-11.619	35.144	1465.256	1265.037
-10.604	35.172	1464.616	1264.618
-9.590	35.122	1463.253	1263.063
-8.575	35.068	1462.683	1262.161
-7.560	35.085	1461.835	1261.496
-6.546	35.051	1461.416	1260.861
-5.531	35.089	1459.988	1259.826
-4.517	35.147	1459.026	1259.329
-3.502	35.044	1458.212	1257.897
-2.487	35.058	1457.378	1257.220
-1.473	35.010	1456.256	1255.884
-0.458	35.126	1454.654	1255.217
0.556	35.152	1445.145	1243.475
1.571	32.271	1419.086	1202.543
2.586	28.849	1358.088	1129.759
3.600	27.288	1275.963	1052.330
4.615	25.841	1229.565	1005.900
5.629	21.931	1172.282	938.092
6.644	11.296	1084.504	814.891
7.659	3.176	1040.737	742.863
8.673	2.053	1034.902	733.237
9.688	1.735	1031.839	729.481
10.702	1.549	1030.719	727.736
11.717	1.615	1028.895	726.696
12.731	5.446	1032.698	747.658
13.746	15.510	1047.387	806.805
14.761	23.065	1057.155	850.752
15.775	24.592	1058.113	858.791
16.790	24.749	1057.852	859.261
17.804	24.744	1056.844	858.339
18.819	24.395	1056.267	856.120
19.834	24.539	1055.509	856.122
20.848	24.679	1054.982	856.289
21.863	24.696	1054.762	856.116
22.877	24.738	1054.226	855.807
23.892	24.720	1053.768	855.274
24.907	24.628	1052.766	853.942
25.921	24.725	1052.175	853.852
26.936	24.751	1051.242	853.145
27.950	24.515	1050.590	851.411
28.965	24.533	1049.619	850.635
29.980	24.496	1047.537	848.699
30.994	24.476	1046.355	847.573
32.009	24.651	1046.053	848.080
33.023	24.664	1045.423	847.560
34.038	24.563	1044.173	845.992
35.053	24.608	1043.140	845.295
36.067	24.710	1042.800	845.423
37.082	24.679	1042.197	844.715
38.096	24.586	1041.632	843.743
39.111	24.765	1041.324	844.263
40.126	24.933	1039.912	843.835
41.140	24.884	1038.483	842.373
42.155	24.535	1037.278	839.677
43.169	24.304	1036.179	837.627
44.184	24.240	1035.194	836.460
45.199	24.335	1033.834	835.730
46.213	24.249	1033.347	834.859
47.228	24.255	1032.380	834.032
48.242	24.377	1031.836	834.090
49.257	24.523	1030.896	833.939
50.271	24.644	1030.075	833.765
51.286	24.760	1029.655	833.892
52.301	24.838	1028.520	833.261
53.315	24.787	1028.099	832.609
54.330	24.651	1027.366	831.310
55.344	24.612	1026.410	830.284
56.359	24.572	1025.519	829.304
57.374	24.705	1025.023	829.444
58.388	24.580	1023.952	827.925
59.403	24.348	1023.339	826.281
60.417	24.415	1022.542	825.874
61.432	24.393	1021.166	824.591
62.447	24.322	1020.673	823.792
63.461	24.492	1020.152	824.083
64.476	24.363	1019.665	823.021
65.490	24.457	1018.594	822.516
66.505	24.239	1017.410	820.483
67.520	24.347	1016.807	820.421
68.534	24.330	1016.571	820.079
69.549	24.359	1015.333	819.141
70.563	24.082	1014.023	816.741
71.578	23.877	1013.517	815.322
72.593	24.027	1012.591	815.195
73.607	23.773	1011.692	813.237
74.622	23.686	1010.824	812.067
75.636	24.037	1009.980	812.922
76.651	24.248	1008.985	813.013
77.666	24.141	1008.080	811.720
78.680	24.043	1007.218	810.510
79.695	24.072	1006.607	810.079
80.709	24.226	1006.368	810.517
81.724	24.191	1005.827	809.846
82.739	24.297	1004.169	808.921
83.753	24.324	1003.756	808.640
84.768	24.455	1003.656	809.082
85.782	24.891	1002.683	810.201
86.797	25.068	1001.814	810.228
87.812	24.966	1001.569	809.495
88.826	24.812	1000.458	807.830
89.841	24.797	999.568	806.975
90.855	24.807	999.165	806.624
91.870	24.905	998.268	806.270
92.884	24.887	997.460	805.461
93.899	24.768	996.573	804.141
94.914	24.747	995.490	803.101
95.928	24.674	995.098	802.386
96.943	24.746	993.812	801.600
97.957	24.639	992.630	800.096
98.972	24.416	991.685	798.267
99.987	24.069	990.895	796.008
101.001	24.494	989.469	796.690
102.016	24.644	989.788	797.546
103.030	24.575	988.688	796.280
104.045	24.515	987.607	795.073
105.060	24.352	986.259	793.192
106.074	24.117	985.362	791.358
107.089	24.220	984.449	791.010
108.103	24.461	984.609	792.138
109.118	24.691	983.021	791.812
110.133	24.383	982.346	789.832
111.147	24.391	981.239	788.908
112.162	24.271	979.979	787.295
113.176	23.876	979.156	784.822
114.191	24.199	978.000	785.250
115.206	24.258	977.318	784.892
116.220	24.008	976.123	782.765
117.235	23.888	975.503	781.669
118.249	24.051	974.981	781.900
119.264	24.083	973.782	781.008
120.279	23.979	973.199	780.017
121.293	23.912	972.689	779.244
122.308	24.030	971.668	778.873
123.322	24.117	970.939	778.603
124.337	23.996	969.655	776.973
125.352	23.812	968.889	775.488
126.366	23.477	966.895	772.365
127.381	23.335	965.412	770.497
128.395	23.733	965.467	772.204
129.410	24.369	965.209	774.690
130.424	24.595	964.500	775.034
131.439	24.542	963.531	773.958
132.454	24.406	962.642	772.585
133.468	24.454	961.757	772.015
134.483	24.396	961.032	771.114
135.497	24.404	960.226	770.431
136.512	24.696	959.625	771.141
137.527	24.709	959.168	770.764
138.541	24.749	957.975	769.909
139.556	24.735	957.515	769.409
140.570	24.769	956.644	768.789
141.585	24.876	955.479	768.241
142.600	24.853	955.050	767.731
143.614	24.663	954.067	766.058
144.629	24.864	953.202	766.157
145.643	25.094	952.709	766.676
146.658	24.918	951.696	765.043
147.673	24.887	950.174	763.620
148.687	24.731	949.289	762.175
149.702	24.667	948.091	760.875
150.716	24.581	947.157	759.691
151.731	24.520	946.233	758.622
152.746	24.574	945.568	758.255
153.760	24.721	945.333	758.620
154.775	25.024	944.550	759.209
155.789	25.058	943.444	758.395
156.804	24.990	942.449	757.243
157.819	24.755	941.951	755.782
158.833	24.959	940.529	755.436
159.848	24.908	940.359	755.016
160.862	24.986	939.365	754.482
161.877	24.834	938.602	753.163
162.892	24.867	937.797	752.587
163.906	24.908	936.986	752.044
164.921	24.822	935.908	750.750
165.935	24.789	935.036	749.846
166.950	24.799	934.171	749.128
167.964	24.995	932.757	748.745
168.979	24.943	931.891	747.769
169.994	24.862	930.795	746.486
171.008	24.773	930.087	745.480
172.023	24.820	929.322	744.996
173.037	24.979	928.671	745.070
174.052	24.753	927.807	743.373
175.067	24.662	926.659	742.008
176.081	24.656	926.024	741.412
177.096	24.575	925.622	740.686
178.110	24.540	924.760	739.788
179.125	24.530	923.470	738.647
180.140	24.114	922.589	736.159
181.154	24.073	921.928	735.395
182.169	24.379	921.551	736.293
183.183	24.708	920.789	736.974
184.198	24.805	920.820	737.337
185.213	24.871	919.983	736.870
186.227	24.803	919.191	735.894
187.242	24.899	918.564	735.720
188.256	24.923	917.756	735.104
189.271	24.897	917.297	734.568
190.286	25.119	916.206	734.539
191.300	24.801	915.589	732.677
192.315	24.372	914.029	729.608
193.329	23.564	912.518	725.038
194.344	23.092	911.427	722.178
195.359	23.796	911.557	725.094
196.373	24.548	912.528	728.873
197.388	24.909	911.711	729.626
198.402	24.674	911.103	728.116
199.417	24.653	910.495	727.480
200.432	24.845	909.953	727.765
201.446	24.699	909.312	726.594
202.461	24.218	909.242	724.518
203.475	24.446	908.149	724.510
204.490	23.931	906.721	721.219
205.504	22.898	904.308	715.057
206.519	23.201	904.587	716.439
207.534	24.329	904.482	720.854
208.548	24.479	903.881	720.919
209.563	24.642	904.077	721.669
210.577	24.772	902.878	721.172
211.592	24.477	902.437	719.567
212.607	24.857	902.462	721.056
213.621	25.005	901.878	721.122
214.636	24.913	901.196	720.141
215.650	25.029	900.710	720.155
216.665	24.927	900.262	719.327
217.680	24.910	899.341	718.458
218.694	25.079	899.154	718.923
219.709	24.677	898.403	716.645
220.723	24.431	896.698	714.239
221.738	24.630	896.927	715.154
222.753	24.822	896.205	715.283
223.767	24.704	895.329	714.050
224.782	24.762	894.651	713.677
225.796	24.963	894.428	714.239
226.811	25.016	893.779	713.866
227.826	24.734	892.581	711.725
228.840	23.903	890.949	707.060
229.855	23.815	890.105	705.975
230.869	24.158	889.924	707.130
231.884	23.669	889.191	704.548
232.899	23.714	888.838	704.385
233.913	24.600	888.558	707.611
234.928	24.762	888.186	707.892
235.942	24.593	887.516	706.627
236.957	24.713	886.949	706.587
237.972	24.384	886.103	704.553
238.986	24.173	885.446	703.135
240.001	24.489	884.782	703.792
241.015	24.415	884.083	702.880
242.030	24.614	883.240	702.932
243.045	24.726	882.903	703.044
244.059	24.743	882.680	702.870
245.074	24.918	881.839	702.822
246.088	24.711	881.531	701.705
247.103	24.453	880.524	699.831
248.117	24.502	880.195	699.698
249.132	25.026	879.694	701.288
250.147	25.405	879.669	702.689
251.161	25.481	879.120	702.488
252.176	25.641	878.410	702.483
253.190	25.552	878.005	701.750
254.205	25.690	877.472	701.799
255.220	25.940	877.075	702.391
256.234	25.815	876.393	701.298
257.249	25.695	876.041	700.487
258.263	25.623	875.006	699.317
259.278	25.590	874.202	698.484
260.293	25.668	874.317	698.820
261.307	25.759	873.687	698.605
262.322	25.491	873.015	696.968
263.336	25.433	872.287	696.099
264.351	24.976	871.090	693.314
265.366	23.908	869.288	687.692
266.380	23.601	868.013	685.436
267.395	24.366	868.660	688.840
268.409	25.213	868.270	691.739
269.424	25.232	867.632	691.242
270.439	25.270	867.628	691.324
271.453	25.430	866.979	691.363
272.468	25.402	866.257	690.619
273.482	25.697	865.530	691.111
274.497	25.878	865.414	691.650
275.512	25.569	864.206	689.438
276.526	25.067	862.919	686.431
277.541	25.182	862.882	686.779
278.555	25.695	862.667	688.509
279.570	25.410	861.509	686.437
280.585	25.199	860.953	685.129
281.599	25.294	860.612	685.159
282.614	25.466	859.932	685.214
283.628	24.951	858.830	682.313
284.643	24.522	858.259	680.163
285.657	24.954	858.418	681.875
286.672	24.869	857.439	680.715
287.687	24.310	856.467	677.758
288.701	24.628	856.459	678.903
289.716	25.080	856.264	680.404
290.730	24.897	854.960	678.611
291.745	24.772	854.379	677.618
292.760	24.376	854.087	675.827
293.774	24.323	853.066	674.760
294.789	25.316	853.690	678.950
295.803	26.066	853.295	681.409
296.818	26.085	852.812	681.036
297.833	26.136	852.564	680.967
298.847	25.701	851.332	678.284
299.862	25.563	850.340	676.914
300.876	25.710	850.043	677.171
301.891	26.026	849.737	678.056
302.906	26.081	849.106	677.701
303.920	25.534	848.382	675.010
304.935	25.480	847.670	674.182
305.949	25.819	847.471	675.235
306.964	26.032	847.071	675.654
307.979	25.777	846.332	674.050
308.993	25.815	845.262	673.281
310.008	25.987	845.763	674.260
311.022	26.236	845.148	674.642
312.037	26.094	844.459	673.504
313.052	25.722	843.830	671.556
314.066	25.693	842.922	670.664
315.081	25.056	841.340	666.977
316.095	24.298	840.027	663.057
317.110	24.747	840.383	664.952
318.125	25.609	840.599	668.268
319.139	25.104	839.681	665.603
320.154	24.175	837.872	660.668
321.168	23.575	836.958	657.664
322.183	24.418	837.318	661.015
323.197	25.206	837.906	664.338
324.212	25.552	837.177	664.983
325.227	25.589	837.083	664.986
326.241	25.732	837.019	665.404
327.256	25.729	836.339	664.795
328.270	25.451	835.712	663.209
329.285	25.494	834.763	662.556
330.300	25.122	834.619	661.014
331.314	25.144	833.386	660.057
332.329	25.202	832.637	659.622
333.343	25.554	832.361	660.636
334.358	25.834	832.036	661.349
335.373	25.941	831.328	661.118
336.387	25.827	831.466	660.754
337.402	26.029	831.211	661.231
338.416	26.228	830.375	661.236
339.431	26.246	829.735	660.737
340.446	26.315	829.192	660.497
341.460	26.381	828.951	660.487
342.475	26.352	828.380	659.869
343.489	26.020	827.396	657.817
344.504	26.200	826.986	658.088
345.519	26.475	826.683	658.789
346.533	26.648	826.331	659.082
347.548	26.844	825.815	659.324
348.562	26.929	825.150	659.043
349.577	26.643	825.187	657.974
350.592	26.654	824.464	657.379
351.606	26.578	823.648	656.397
352.621	26.533	823.352	655.938
353.635	26.468	822.645	655.080
354.650	26.432	822.202	654.540
355.665	26.065	821.341	652.470
356.679	25.031	819.715	647.386
357.694	24.915	819.174	646.483
358.708	25.674	819.101	649.109
359.723	25.587	818.204	648.027
360.738	25.907	818.204	649.122
361.752	26.139	818.293	649.971
362.767	26.323	818.128	650.445
363.781	26.650	817.554	651.106
364.796	26.915	817.635	652.066
365.810	26.901	817.160	651.580
366.825	27.178	816.535	652.017
367.840	26.904	816.660	651.077
368.854	26.682	816.194	649.850
369.869	26.483	814.955	648.093
370.883	26.228	814.193	646.517
371.898	26.366	813.577	646.465
372.913	26.385	812.900	645.936
373.927	26.375	812.037	645.157
374.942	26.415	811.779	645.038
375.956	26.450	811.573	644.943
376.971	26.654	810.806	645.004
377.986	26.838	810.147	645.076
379.000	27.073	809.739	645.528
380.015	26.896	809.737	644.840
381.029	26.703	808.931	643.458
382.044	26.683	808.484	642.976
383.059	26.788	808.082	642.969
384.073	26.937	807.404	642.901
385.088	26.948	806.837	642.434
386.102	26.990	806.291	642.088
387.117	26.760	805.451	640.549
388.132	26.697	805.012	639.923
389.146	26.502	804.558	638.815
390.161	26.050	803.390	636.239
391.175	25.889	803.226	635.487
392.190	26.471	803.446	637.657
393.205	26.581	802.760	637.441
394.219	25.654	800.850	632.611
395.234	24.070	798.727	625.320
396.248	23.225	797.593	621.412
397.263	24.278	798.511	625.770
398.278	26.072	800.008	633.190
399.292	26.724	799.587	635.088
400.307	26.111	799.374	632.712
401.321	26.213	798.467	632.297
402.336	26.180	798.605	632.233
403.350	26.487	798.149	632.891
404.365	27.091	797.839	634.699
405.380	27.232	797.899	635.184
406.394	27.721	797.352	636.397
407.409	27.733	797.436	636.451
408.423	27.701	796.728	635.719
409.438	27.538	796.567	634.964
410.453	27.644	795.734	634.615
411.467	27.683	795.689	634.659
412.482	27.708	794.686	633.887
413.496	27.708	794.044	633.322
414.511	27.713	793.900	633.165
415.526	27.587	793.944	632.708
416.540	27.643	793.175	632.233
417.555	27.710	792.495	631.868
418.569	27.306	791.945	629.975
419.584	27.376	791.369	629.701
420.599	27.486	791.102	629.816
421.613	108.145	1279.386	1444.049
422.628	92.967	1350.503	1444.133
