DTS Sentinel unit serial number:	SN413079Multiplexer serial number:	ORYXHardware model number:	OX4-SRSoftware version number:	ORYX F/W v4.00 Oryx Data Collector v3.7.2.0data status	okinstallation	princeton_trtdifferential loss correction	single-endedforward channel	channel 3reverse channel	N/Adate	2019/09/11time	12:54:11forward acquisition time	60.00reverse acquisition time	0.00gamma	496.2192k internal	0.2294k external	0.2294temperature offset calibration	0.9936default loss term (dB/km)	0.3790temperature slope calibration	1.0000multiplexer offset coefficient	1.0000multiplexer slope coefficient	1.0000fibre end	0.00T internal ref (°C)	41.36T ext. ref 1 (°C)	0.23T ext. ref 2 (°C)	38.76length (m)	temperature (°C)	Stokes	anti-Stokes-747.200	-200.000	0.010	0.237
-746.185	800.000	-0.037	0.158
-745.171	545.995	-0.018	-0.044
-744.156	-200.000	-0.035	0.307
-743.142	800.000	-0.075	-0.223
-742.127	800.000	-0.080	0.243
-741.112	139.067	0.143	0.193
-740.098	-147.753	-0.161	0.014
-739.083	41.024	0.182	0.168
-738.069	314.479	-0.204	0.392
-737.054	-111.927	-0.253	-0.052
-736.039	268.596	0.109	0.196
-735.025	518.048	0.062	0.148
-734.010	55.892	-0.108	0.107
-732.996	-200.000	0.050	-0.249
-731.981	-16.625	-0.310	0.201
-730.966	-200.000	-0.011	0.080
-729.952	-34.014	0.298	-0.167
-728.937	375.035	0.067	0.139
-727.923	-95.818	-0.483	0.132
-726.908	80.188	0.073	0.080
-725.894	425.823	-0.162	-0.357
-724.879	-91.002	-0.161	0.047
-723.864	141.828	-0.097	0.131
-722.850	107.987	0.094	-0.114
-721.835	-200.000	0.031	0.187
-720.821	304.658	0.102	-0.194
-719.806	-95.334	0.107	0.029
-718.791	-109.931	0.218	-0.047
-717.777	-86.905	-0.203	0.063
-716.762	25.528	-0.279	-0.237
-715.748	-112.822	0.104	0.021
-714.733	306.007	0.100	-0.189
-713.718	121.596	0.163	-0.207
-712.704	54.303	-0.140	0.138
-711.689	51.677	-0.280	-0.272
-710.675	-200.000	0.007	-0.650
-709.660	800.000	0.020	-0.087
-708.645	181.789	-0.075	-0.112
-707.631	141.512	0.051	-0.069
-706.616	-200.000	-0.008	-0.412
-705.602	-59.706	-0.212	-0.093
-704.587	-200.000	-0.004	-0.346
-703.572	-80.377	-0.234	0.080
-702.558	-66.269	-0.095	0.039
-701.543	351.595	-0.080	0.161
-700.529	227.160	-0.187	0.310
-699.514	11.118	-0.116	0.090
-698.499	-105.086	-0.193	0.045
-697.485	-135.952	0.400	-0.048
-696.470	34.474	-0.241	0.215
-695.456	-200.000	0.029	-0.131
-694.441	800.000	0.067	-0.298
-693.426	-7.518	-0.112	0.077
-692.412	-200.000	0.020	-0.249
-691.397	-29.861	0.393	-0.229
-690.383	-144.699	-0.210	-0.020
-689.368	-130.543	-0.059	0.008
-688.354	-114.262	-0.054	-0.011
-687.339	313.023	0.166	0.318
-686.324	-200.000	0.050	-0.251
-685.310	-69.217	0.109	-0.043
-684.295	670.221	0.099	-0.262
-683.281	198.615	0.059	-0.093
-682.266	-38.171	-0.183	-0.099
-681.251	169.095	-0.160	-0.233
-680.237	800.000	-0.035	0.129
-679.222	-77.899	-0.152	-0.053
-678.208	-135.412	-0.447	-0.054
-677.193	-17.463	0.206	0.132
-676.178	-155.745	-0.226	0.015
-675.164	5.381	0.098	-0.074
-674.149	8.103	-0.155	-0.119
-673.135	-12.095	-0.136	-0.091
-672.120	283.384	-0.165	0.303
-671.105	-36.220	0.130	-0.072
-670.091	76.223	-0.137	-0.148
-669.076	-200.000	-0.061	0.448
-668.062	-60.344	-0.366	-0.159
-667.047	-105.112	-0.173	0.040
-666.032	-69.908	-0.139	0.054
-665.018	-200.000	-0.023	-0.136
-664.003	-131.776	-0.580	0.077
-662.989	43.156	0.135	0.125
-661.974	394.646	-0.118	0.250
-660.959	-200.000	-0.004	-0.160
-659.945	177.322	-0.237	-0.351
-658.930	800.000	0.037	0.121
-657.916	319.984	0.064	-0.123
-656.901	66.254	0.153	-0.158
-655.886	61.197	0.199	-0.201
-654.872	-151.258	-0.356	0.027
-653.857	-97.003	-0.111	-0.030
-652.843	-3.722	0.320	0.227
-651.828	5.136	-0.234	-0.175
-650.814	57.679	-0.253	0.252
-649.799	-36.505	0.235	-0.129
-648.784	-101.721	0.240	0.059
-647.770	591.360	-0.024	-0.061
-646.755	-200.000	-0.017	-0.226
-645.741	-83.000	-0.273	0.090
-644.726	193.620	-0.242	0.373
-643.711	-200.000	0.064	0.327
-642.697	22.969	-0.274	-0.229
-641.682	-186.271	-0.344	-0.005
-640.668	-110.744	0.230	0.048
-639.653	338.700	-0.063	0.125
-638.638	-123.060	0.031	0.005
-637.624	508.849	0.026	0.063
-636.609	-200.000	0.030	0.176
-635.595	-96.543	-0.282	0.076
-634.580	-47.969	0.133	0.066
-633.565	23.271	0.088	-0.074
-632.551	-124.390	0.228	0.036
-631.536	563.525	-0.066	0.162
-630.522	639.118	0.073	0.188
-629.507	-157.258	-0.080	-0.005
-628.492	-200.000	-0.009	0.386
-627.478	800.000	0.064	-0.228
-626.463	-56.763	-0.243	-0.109
-625.449	380.539	-0.145	0.302
-624.434	49.888	-0.148	-0.142
-623.419	323.654	-0.125	0.244
-622.405	-200.000	-0.009	0.151
-621.390	281.371	-0.074	-0.135
-620.376	-1.220	0.114	-0.082
-619.361	-200.000	0.019	-0.097
-618.346	-200.000	0.000	0.133
-617.332	-5.159	-0.263	0.184
-616.317	787.296	-0.056	-0.158
-615.303	12.399	0.106	0.084
-614.288	-200.000	0.033	0.418
-613.273	-88.372	0.092	0.028
-612.259	27.062	0.142	0.121
-611.244	18.871	-0.234	0.191
-610.230	-200.000	-0.024	-0.244
-609.215	242.867	-0.047	0.079
-608.201	-20.269	0.055	-0.034
-607.186	-60.040	0.270	0.117
-606.171	-118.497	0.140	0.025
-605.157	-200.000	-0.029	0.168
-604.142	77.843	0.279	-0.302
-603.128	800.000	-0.112	0.336
-602.113	-6.822	0.455	-0.315
-601.098	-125.377	-0.129	0.020
-600.084	-91.614	-0.221	-0.064
-599.069	-42.638	-0.152	-0.079
-598.055	87.671	0.073	0.082
-597.040	43.931	-0.123	0.114
-596.025	-120.432	-0.182	-0.031
-595.011	73.775	0.177	-0.189
-593.996	150.296	-0.103	-0.142
-592.982	-40.369	-0.044	0.023
-591.967	44.113	0.064	0.059
-590.952	-2.575	0.186	-0.132
-589.938	48.393	-0.163	-0.155
-588.923	-32.041	0.222	-0.126
-587.909	-79.125	-0.490	0.169
-586.894	-137.454	-0.040	-0.005
-585.879	674.206	0.062	0.163
-584.865	800.000	-0.068	0.269
-583.850	-200.000	0.029	0.385
-582.836	800.000	0.026	-0.088
-581.821	-200.000	0.023	0.111
-580.806	406.707	-0.122	-0.262
-579.792	-200.000	0.001	-0.319
-578.777	800.000	0.075	-0.220
-577.763	75.217	-0.132	0.142
-576.748	-173.994	0.247	0.007
-575.733	-25.601	0.225	0.135
-574.719	-200.000	-0.010	0.100
-573.704	87.583	0.080	-0.090
-572.690	-5.776	0.150	-0.105
-571.675	400.631	0.079	-0.169
-570.661	66.346	-0.254	-0.262
-569.646	60.831	-0.143	-0.144
-568.631	-93.210	-0.236	-0.067
-567.617	-200.000	-0.024	-0.259
-566.602	31.724	0.175	0.153
-565.588	105.298	0.195	0.234
-564.573	-143.377	-0.338	0.033
-563.558	-200.000	-0.027	-0.142
-562.544	-200.000	0.022	0.214
-561.529	-16.732	0.133	0.086
-560.515	-200.000	-0.002	-0.135
-559.500	-39.482	0.248	-0.132
-558.485	-77.869	-0.143	-0.050
-557.471	-129.200	-0.174	-0.025
-556.456	339.801	0.071	0.140
-555.442	100.103	0.293	0.344
-554.427	-16.543	-0.069	0.044
-553.412	-200.000	-0.076	-0.374
-552.398	-162.843	0.321	-0.016
-551.383	606.606	-0.052	0.133
-550.369	126.872	0.087	0.112
-549.354	-146.777	0.301	0.026
-548.339	800.000	-0.083	0.368
-547.325	319.744	-0.056	0.108
-546.310	-33.258	-0.248	0.139
-545.296	-101.226	-0.465	-0.115
-544.281	48.660	0.201	0.191
-543.266	800.000	0.104	0.434
-542.252	800.000	0.058	0.174
-541.237	-116.029	-0.136	0.026
-540.223	244.702	0.051	-0.087
-539.208	-38.818	-0.154	0.083
-538.193	800.000	-0.064	-0.251
-537.179	-13.861	-0.184	0.121
-536.164	252.810	-0.077	0.133
-535.150	261.373	-0.162	0.284
-534.135	18.867	-0.186	0.151
-533.121	-200.000	0.033	0.165
-532.106	183.280	-0.084	0.126
-531.091	-44.014	-0.281	0.143
-530.077	-200.000	-0.014	-0.155
-529.062	-68.879	-0.054	-0.021
-528.048	-164.193	0.213	-0.010
-527.033	-200.000	0.018	0.166
-526.018	43.982	0.413	0.384
-525.004	-106.338	-0.323	-0.073
-523.989	96.221	-0.176	-0.204
-522.975	-200.000	0.015	0.102
-521.960	-131.525	0.124	0.017
-520.945	-175.760	-0.153	-0.004
-519.931	-7.301	0.140	-0.096
-518.916	372.921	-0.068	0.140
-517.902	-85.553	-0.166	-0.052
-516.887	-200.000	-0.027	0.196
-515.872	-112.980	-0.138	-0.028
-514.858	-157.644	0.200	0.012
-513.843	-200.000	0.036	-0.322
-512.829	-58.958	0.112	-0.049
-511.814	-89.311	-0.171	0.051
-510.799	-84.531	0.107	0.034
-509.785	-15.443	-0.364	-0.236
-508.770	800.000	0.047	-0.152
-507.756	27.925	0.341	-0.291
-506.741	412.759	0.095	-0.204
-505.726	-66.543	0.219	-0.088
-504.712	339.492	0.106	-0.209
-503.697	800.000	0.124	-0.467
-502.683	-2.627	-0.248	-0.176
-501.668	-9.262	0.269	-0.182
-500.653	-200.000	0.055	-0.273
-499.639	-87.989	0.235	0.071
-498.624	-68.363	0.152	0.060
-497.610	-123.938	0.201	-0.032
-496.595	-200.000	-0.034	-0.255
-495.581	100.067	-0.066	-0.078
-494.566	191.023	0.036	-0.054
-493.551	-145.875	-0.386	-0.035
-492.537	-133.689	0.338	-0.043
-491.522	-123.364	0.193	-0.031
-490.508	-115.332	0.261	-0.050
-489.493	552.752	0.088	0.215
-488.478	6.444	-0.283	0.213
-487.464	-75.457	0.157	0.057
-486.449	231.823	0.085	-0.140
-485.435	71.910	0.195	0.206
-484.420	163.317	-0.111	0.158
-483.405	-17.995	0.258	-0.164
-482.391	398.048	0.009	0.019
-481.376	-145.459	-0.110	-0.010
-480.362	237.557	-0.203	0.342
-479.347	-137.340	0.254	0.029
-478.332	-94.296	0.354	-0.098
-477.318	144.575	-0.126	0.170
-476.303	-54.737	-0.262	0.120
-475.289	46.891	0.063	-0.060
-474.274	-59.942	-0.206	0.089
-473.259	302.732	-0.040	-0.075
-472.245	-200.000	-0.007	0.107
-471.230	26.748	0.182	0.154
-470.216	25.865	-0.136	-0.115
-469.201	17.145	-0.089	-0.072
-468.186	-58.620	-0.323	0.142
-467.172	-106.200	-0.145	0.033
-466.157	800.000	0.060	-0.264
-465.143	800.000	-0.023	0.071
-464.128	181.753	0.266	0.396
-463.113	-126.735	-0.166	0.025
-462.099	800.000	0.019	-0.058
-461.084	-66.422	0.202	0.081
-460.070	-200.000	-0.060	-0.426
-459.055	184.727	0.273	-0.409
-458.040	-139.229	0.245	-0.027
-457.026	521.113	0.125	-0.297
-456.011	383.190	-0.156	-0.326
-454.997	146.483	-0.210	0.286
-453.982	-1.551	-0.064	0.045
-452.968	-67.531	0.280	0.111
-451.953	-54.302	0.138	-0.063
-450.938	-200.000	0.005	-0.050
-449.924	54.423	-0.119	-0.116
-448.909	-40.580	0.168	0.088
-447.895	-60.802	-0.133	-0.057
-446.880	72.994	0.233	-0.247
-445.865	0.544	-0.211	-0.152
-444.851	-200.000	-0.109	-0.502
-443.836	367.821	0.078	-0.159
-442.822	-200.000	-0.017	-0.196
-441.807	-90.407	-0.278	-0.082
-440.792	800.000	-0.061	0.222
-439.778	49.745	0.165	0.157
-438.763	-134.057	0.214	-0.027
-437.749	-8.100	-0.167	0.114
-436.734	-143.257	-0.180	0.017
-435.719	550.354	0.049	-0.119
-434.705	87.558	0.236	-0.264
-433.690	-42.364	-0.063	-0.032
-432.676	53.740	0.076	-0.074
-431.661	151.776	0.151	-0.208
-430.646	109.626	-0.201	-0.243
-429.632	605.387	0.084	-0.211
-428.617	11.848	-0.302	-0.234
-427.603	-75.765	0.177	0.064
-426.588	562.698	-0.010	-0.023
-425.573	154.040	0.105	0.146
-424.559	-54.261	-0.417	0.191
-423.544	800.000	0.091	0.293
-422.530	800.000	0.037	-0.109
-421.515	40.865	-0.205	-0.187
-420.500	-200.000	-0.059	-0.349
-419.486	800.000	-0.100	-0.280
-418.471	-110.625	-0.087	-0.018
-417.457	383.293	-0.015	0.031
-416.442	-200.000	-0.015	-0.152
-415.428	-200.000	0.011	-0.220
-414.413	-13.319	0.252	-0.165
-413.398	553.179	-0.040	-0.098
-412.384	450.599	-0.042	0.094
-411.369	98.777	-0.306	-0.357
-410.355	124.550	0.252	-0.320
-409.340	30.270	0.284	-0.245
-408.325	-117.165	-0.042	0.008
-407.311	201.615	0.085	-0.132
-406.296	800.000	-0.040	-0.165
-405.282	34.975	0.156	-0.138
-404.267	-36.465	-0.273	0.148
-403.252	-200.000	-0.049	-0.274
-402.238	-21.793	-0.310	0.190
-401.223	780.513	0.048	-0.131
-400.209	121.006	-0.279	-0.350
-399.194	-98.475	-0.217	-0.056
-398.179	20.881	0.037	0.030
-397.165	-200.000	0.017	0.431
-396.150	-93.112	-0.173	-0.048
-395.136	-6.304	-0.194	0.133
-394.121	-142.282	0.294	0.029
-393.106	-134.893	-0.594	-0.072
-392.092	20.835	0.313	-0.256
-391.077	800.000	-0.038	0.124
-390.063	13.149	-0.388	0.303
-389.048	-23.185	-0.055	0.033
-388.033	67.459	0.184	-0.189
-387.019	87.636	0.213	0.238
-386.004	-0.917	0.241	-0.172
-384.990	-149.340	0.210	0.017
-383.975	-108.874	-0.388	0.084
-382.960	311.597	-0.090	-0.170
-381.946	-14.929	-0.239	-0.155
-380.931	-200.000	0.004	-0.021
-379.917	-54.400	0.327	-0.149
-378.902	36.350	-0.180	0.160
-377.888	-200.000	0.029	0.165
-376.873	542.920	0.114	0.274
-375.858	551.667	0.042	0.101
-374.844	64.972	0.043	-0.043
-373.829	216.018	0.097	-0.155
-372.815	-123.275	0.133	0.021
-371.800	19.761	0.204	0.165
-370.785	8.591	-0.227	0.172
-369.771	-152.738	-0.144	0.010
-368.756	-170.195	-0.195	0.007
-367.742	54.887	0.093	0.090
-366.727	-68.050	0.082	0.032
-365.712	68.760	0.192	-0.199
-364.698	-106.659	-0.200	0.045
-363.683	-200.000	-0.017	-0.145
-362.669	27.619	-0.143	0.121
-361.654	562.970	0.078	0.191
-360.639	43.589	-0.261	0.240
-359.625	296.303	0.069	0.128
-358.610	800.000	0.053	0.200
-357.596	-8.149	0.193	-0.131
-356.581	106.162	0.043	-0.051
-355.566	101.999	-0.122	0.144
-354.552	80.712	0.161	-0.175
-353.537	-76.313	-0.317	-0.113
-352.523	-91.291	-0.444	0.128
-351.508	-20.778	0.209	0.129
-350.493	369.558	0.186	0.379
-349.479	-149.235	-0.222	-0.018
-348.464	-71.568	-0.118	0.044
-347.450	6.784	-0.075	-0.056
-346.435	475.156	-0.118	-0.267
-345.420	6.213	-0.103	-0.077
-344.406	-118.497	-0.082	-0.015
-343.391	53.746	-0.092	0.089
-342.377	388.165	0.125	-0.261
-341.362	-152.874	-0.411	0.029
-340.348	146.318	-0.170	0.230
-339.333	-10.794	0.212	0.141
-338.318	-200.000	0.023	0.169
-337.304	19.681	0.210	-0.170
-336.289	-93.846	-0.218	0.060
-335.275	76.638	0.340	-0.362
-334.260	-200.000	0.318	-0.000
-333.245	-85.528	-0.136	0.042
-332.231	740.641	-0.136	0.368
-331.216	800.000	0.102	-0.302
-330.202	60.893	0.262	0.261
-329.187	14.238	-0.238	-0.186
-328.172	-29.232	0.129	-0.074
-327.158	97.367	0.151	0.174
-326.143	37.260	0.484	-0.431
-325.129	8.863	-0.152	-0.116
-324.114	-5.156	0.151	0.105
-323.099	-200.000	0.036	-0.199
-322.085	-200.000	-0.045	0.234
-321.070	-200.000	0.013	0.217
-320.056	-200.000	-0.027	-0.198
-319.041	66.755	-0.046	0.047
-318.026	47.131	-0.123	0.115
-317.012	134.727	-0.241	-0.315
-315.997	298.402	-0.160	-0.295
-314.983	-160.801	0.154	-0.008
-313.968	800.000	-0.041	0.119
-312.953	24.648	0.273	-0.227
-311.939	-45.327	0.284	-0.142
-310.924	503.809	0.089	0.206
-309.910	4.476	0.043	0.032
-308.895	-69.459	0.243	0.094
-307.880	-42.574	-0.264	-0.135
-306.866	-83.035	-0.065	-0.021
-305.851	-76.570	0.306	0.108
-304.837	-28.846	-0.238	0.137
-303.822	-27.254	-0.086	0.050
-302.807	166.645	0.137	-0.195
-301.793	-154.345	0.041	0.003
-300.778	50.616	-0.167	-0.159
-299.764	77.032	-0.124	0.133
-298.749	230.660	-0.205	-0.336
-297.735	-200.000	0.005	-0.280
-296.720	-135.702	0.204	-0.024
-295.705	82.478	-0.272	-0.297
-294.691	-135.369	-0.079	-0.010
-293.676	391.672	0.071	0.148
-292.662	55.211	0.228	0.222
-291.647	29.049	0.332	0.283
-290.632	-139.837	-0.211	-0.022
-289.618	-200.000	0.031	0.168
-288.603	-200.000	-0.024	0.327
-287.589	800.000	0.070	0.236
-286.574	-65.043	0.186	0.076
-285.559	-96.149	-0.267	-0.071
-284.545	-163.153	-0.165	0.008
-283.530	-48.317	0.152	0.073
-282.516	402.872	0.044	-0.092
-281.501	375.650	0.041	-0.083
-280.486	-22.984	0.024	0.015
-279.472	-17.852	0.264	0.166
-278.457	800.000	0.060	-0.209
-277.443	-89.336	-0.142	-0.042
-276.428	74.608	-0.067	0.070
-275.413	-158.341	-0.172	0.010
-274.399	800.000	0.017	-0.074
-273.384	-150.220	0.267	-0.021
-272.370	-200.000	-0.007	0.173
-271.355	401.617	-0.051	-0.107
-270.340	-55.484	0.042	-0.019
-269.326	-31.910	-0.120	0.067
-268.311	132.532	0.115	0.149
-267.297	251.400	0.088	0.151
-266.282	-128.595	0.155	0.022
-265.267	-198.403	0.261	-0.002
-264.253	303.311	-0.209	0.389
-263.238	-15.518	-0.102	0.066
-262.224	315.575	-0.079	0.150
-261.209	-154.015	-0.225	0.015
-260.195	-200.000	-0.056	0.337
-259.180	280.071	0.139	-0.249
-258.165	116.788	-0.093	0.114
-257.151	-92.245	0.302	0.085
-256.136	800.000	0.059	0.172
-255.122	28.235	-0.350	-0.297
-254.107	-19.083	-0.105	-0.066
-253.092	-164.202	0.076	0.004
-252.078	-200.000	-0.085	0.523
-251.063	-200.000	0.042	0.194
-250.049	-200.000	0.005	0.061
-249.034	-132.875	-0.051	0.006
-248.019	-83.352	-0.181	-0.058
-247.005	-138.270	-0.395	0.044
-245.990	-56.846	-0.159	-0.070
-244.976	25.723	0.147	-0.123
-243.961	-68.733	0.400	0.155
-242.946	-121.036	0.117	-0.020
-241.932	558.550	0.075	0.181
-240.917	-23.861	0.224	0.134
-239.903	-24.170	-0.062	-0.037
-238.888	-81.774	-0.070	-0.023
-237.873	236.468	0.136	0.226
-236.859	-76.363	0.493	0.174
-235.844	-200.000	0.018	-0.151
-234.830	124.563	0.233	0.294
-233.815	-52.641	-0.251	0.116
-232.800	-171.322	-0.243	-0.008
-231.786	800.000	-0.058	-0.162
-230.771	164.626	0.047	-0.066
-229.757	-9.060	0.113	-0.076
-228.742	186.481	0.033	-0.050
-227.727	-143.920	-0.146	-0.014
-226.713	-69.852	-0.144	-0.055
-225.698	-25.519	0.210	0.124
-224.684	-70.207	0.070	0.027
-223.669	-20.672	0.188	0.116
-222.655	452.193	0.033	-0.074
-221.640	-102.831	0.116	-0.028
-220.625	40.230	0.250	-0.226
-219.611	800.000	-0.028	0.101
-218.596	-200.000	-0.010	0.109
-217.582	-36.207	-0.239	-0.129
-216.567	-46.368	-0.375	0.185
-215.552	-6.144	0.144	0.099
-214.538	93.866	0.142	-0.162
-213.523	8.915	-0.198	0.150
-212.509	248.013	0.098	0.166
-211.494	-105.879	-0.272	0.061
-210.479	-42.225	0.234	-0.120
-209.465	195.846	-0.071	-0.109
-208.450	-113.493	-0.147	-0.029
-207.436	-200.000	0.038	0.303
-206.421	-180.597	0.351	0.007
-205.406	-113.700	0.241	0.047
-204.392	-200.000	0.090	-0.661
-203.377	49.272	0.160	0.150
-202.363	145.677	-0.019	-0.026
-201.348	350.110	-0.178	-0.353
-200.333	-200.000	0.006	0.209
-199.319	-38.016	-0.316	0.168
-198.304	-200.000	-0.009	-0.502
-197.290	-117.156	0.364	-0.066
-196.275	-98.214	0.142	0.037
-195.260	-36.660	-0.067	-0.036
-194.246	-123.206	-0.143	-0.023
-193.231	-71.142	0.188	0.071
-192.217	147.655	0.212	0.285
-191.202	282.292	0.106	0.190
-190.187	81.299	-0.461	-0.498
-189.173	-126.444	-0.083	-0.012
-188.158	-92.837	0.210	0.059
-187.144	-7.251	-0.309	0.210
-186.129	49.790	-0.102	-0.096
-185.114	-200.000	-0.034	0.243
-184.100	-200.000	-0.019	-0.198
-183.085	-135.933	-0.368	-0.043
-182.071	-94.423	-0.391	-0.107
-181.056	-200.000	0.184	0.001
-180.042	266.844	-0.023	-0.040
-179.027	-200.000	0.073	-0.359
-178.012	800.000	-0.053	-0.171
-176.998	-48.504	0.131	-0.063
-175.983	70.210	-0.144	-0.149
-174.969	179.512	-0.161	-0.236
-173.954	207.487	0.220	0.344
-172.939	-41.822	-0.116	-0.059
-171.925	-155.892	0.340	-0.022
-170.910	93.626	0.207	0.234
-169.896	-21.047	0.058	-0.036
-168.881	800.000	-0.053	-0.186
-167.866	16.754	-0.237	0.188
-166.852	-140.649	0.202	-0.021
-165.837	-49.532	-0.118	-0.056
-164.823	51.003	-0.059	0.056
-163.808	266.747	0.146	0.255
-162.793	0.460	0.272	0.195
-161.779	-200.000	-0.006	-0.214
-160.764	217.147	-0.214	0.341
-159.750	-71.537	0.247	-0.092
-158.735	256.701	-0.196	-0.336
-157.720	-37.983	-0.175	-0.093
-156.706	-200.000	0.049	0.227
-155.691	-118.134	0.017	-0.003
-154.677	286.152	0.050	-0.091
-153.662	-200.000	0.036	0.188
-152.647	-123.496	0.188	0.030
-151.633	56.924	0.147	0.143
-150.618	-30.511	0.385	0.218
-149.604	-157.233	0.208	-0.013
-148.589	130.548	-0.117	0.150
-147.574	77.274	0.198	-0.210
-146.560	231.029	-0.050	0.081
-145.545	-200.000	-0.008	0.139
-144.531	39.662	-0.189	0.169
-143.516	-97.927	-0.172	0.044
-142.502	-4.308	0.290	0.200
-141.487	272.863	0.151	-0.267
-140.472	-200.000	-0.015	0.333
-139.458	-148.691	0.341	0.028
-138.443	-106.769	0.298	-0.066
-137.429	-15.580	0.295	-0.188
-136.414	-41.668	-0.405	0.208
-135.399	264.650	-0.037	-0.064
-134.385	560.316	-0.081	-0.195
-133.370	40.660	-0.267	-0.240
-132.356	-62.839	-0.062	0.025
-131.341	527.057	0.004	-0.010
-130.326	-117.372	-0.159	0.029
-129.312	800.000	-0.085	0.246
-128.297	-200.000	0.023	-0.260
-127.283	-122.709	-0.157	-0.025
-126.268	-100.116	-0.225	0.056
-125.253	754.293	-0.042	-0.113
-124.239	82.633	-0.245	0.265
-123.224	-47.714	-0.041	-0.020
-122.210	-200.000	0.046	0.228
-121.195	47.881	0.142	0.133
-120.180	-132.875	0.209	-0.027
-119.166	37.949	0.108	-0.095
-118.151	-38.017	-0.304	0.161
-117.137	332.270	-0.198	-0.381
-116.122	-43.665	0.333	-0.168
-115.107	800.000	0.085	0.234
-114.093	-42.131	0.329	-0.168
-113.078	-102.337	-0.228	0.055
-112.064	-31.230	0.349	0.196
-111.049	800.000	-0.055	-0.183
-110.034	-200.000	-0.013	-0.082
-109.020	-165.845	0.186	0.008
-108.005	-131.268	0.199	0.026
-106.991	-70.877	-0.127	0.048
-105.976	-200.000	0.002	-0.237
-104.962	410.109	-0.104	-0.220
-103.947	-112.676	0.265	-0.053
-102.932	-38.308	0.108	-0.057
-101.918	-123.692	-0.285	0.045
-100.903	-57.056	-0.096	0.042
-99.889	19.039	0.193	0.154
-98.874	123.692	0.337	-0.422
-97.859	800.000	-0.067	0.248
-96.845	348.703	0.175	-0.345
-95.830	-200.000	0.001	0.068
-94.816	-53.982	-0.047	0.021
-93.801	-200.000	0.003	0.030
-92.786	93.171	0.154	0.173
-91.772	126.735	0.088	-0.111
-90.757	80.596	-0.250	-0.268
-89.743	-44.982	-0.218	-0.108
-88.728	-200.000	0.078	0.395
-87.713	-77.100	0.070	-0.024
-86.699	40.175	-0.190	0.171
-85.684	-75.695	0.246	-0.087
-84.670	36.028	0.197	0.173
-83.655	145.000	0.209	-0.278
-82.640	50.128	-0.075	-0.071
-81.626	-200.000	0.006	-0.232
-80.611	-142.589	-0.041	-0.004
-79.597	302.066	-0.126	0.233
-78.582	-17.136	-0.130	-0.082
-77.567	-200.000	0.052	-0.374
-76.553	197.810	0.115	-0.175
-75.538	800.000	0.028	-0.091
-74.524	125.161	-0.169	-0.212
-73.509	-149.738	0.315	0.025
-72.494	246.394	0.198	0.332
-71.480	-81.013	0.223	0.074
-70.465	203.026	0.159	0.245
-69.451	38.395	-0.072	0.064
-68.436	294.685	-0.173	0.315
-67.422	-200.000	0.062	0.327
-66.407	-106.479	0.240	0.053
-65.392	-200.000	-0.026	-0.153
-64.378	-115.447	0.089	-0.017
-63.363	800.000	-0.044	0.134
-62.349	382.442	-0.084	0.173
-61.334	-106.692	-1.006	-0.223
-60.319	-27.623	0.167	0.096
-59.305	-200.000	-0.005	-0.900
-58.290	86.539	0.497	0.546
-57.276	-200.000	0.219	1.285
-56.261	-200.000	75.213	520.402
-55.246	544.783	1311.326	3118.473
-54.232	144.873	2563.100	3411.302
-53.217	116.950	2263.732	2767.330
-52.203	52.338	1781.775	1692.031
-51.188	44.979	1576.436	1445.103
-50.173	42.177	1546.473	1398.071
-49.159	57.865	1583.802	1542.626
-48.144	63.974	1603.914	1605.167
-47.130	45.311	1566.733	1438.317
-46.115	41.751	1551.528	1399.432
-45.100	41.522	1548.281	1394.851
-44.086	41.538	1546.298	1393.120
-43.071	41.470	1544.431	1390.905
-42.057	41.394	1542.559	1388.635
-41.042	41.310	1541.275	1386.844
-40.027	41.398	1539.612	1385.900
-39.013	41.381	1538.266	1384.521
-37.998	41.326	1536.939	1382.886
-36.984	41.312	1536.116	1381.997
-35.969	41.410	1534.468	1381.139
-34.954	41.415	1533.082	1379.867
-33.940	41.388	1531.551	1378.247
-32.925	41.463	1529.836	1377.165
-31.911	41.427	1528.644	1375.791
-30.896	41.493	1526.729	1374.471
-29.881	41.487	1525.403	1373.182
-28.867	41.313	1524.856	1371.435
-27.852	41.329	1523.267	1370.060
-26.838	41.391	1521.477	1368.822
-25.823	41.455	1519.736	1367.638
-24.809	41.435	1518.570	1366.403
-23.794	41.399	1517.031	1364.717
-22.779	41.436	1515.462	1363.502
-21.765	41.388	1514.701	1362.438
-20.750	41.442	1513.341	1361.528
-19.736	41.381	1512.391	1360.199
-18.721	41.416	1510.739	1358.904
-17.706	41.311	1510.202	1357.651
-16.692	41.344	1507.950	1355.793
-15.677	41.316	1507.714	1355.339
-14.663	41.299	1506.502	1354.081
-13.648	41.306	1505.360	1353.046
-12.633	41.359	1504.162	1352.278
-11.619	41.217	1504.196	1351.289
-10.604	41.221	1502.856	1350.062
-9.590	41.274	1501.926	1349.528
-8.575	41.303	1501.288	1349.100
-7.560	41.263	1500.562	1348.119
-6.546	41.460	1499.035	1348.030
-5.531	41.310	1498.547	1346.524
-4.517	41.307	1497.581	1345.578
-3.502	41.178	1496.655	1343.825
-2.487	41.247	1495.329	1343.047
-1.473	41.226	1494.488	1342.096
-0.458	41.347	1493.245	1341.743
0.556	39.610	1484.533	1332.843
1.571	37.357	1457.462	1293.453
2.586	33.990	1394.765	1216.206
3.600	32.172	1310.858	1131.993
4.615	30.114	1262.239	1077.961
5.629	24.838	1202.145	997.234
6.644	11.882	1107.393	851.591
7.659	1.916	1058.369	764.072
8.673	0.412	1052.185	752.047
9.688	0.270	1048.947	748.957
10.702	0.180	1047.655	747.521
11.717	0.058	1046.215	745.826
12.731	4.334	1051.498	770.800
13.746	15.854	1068.482	841.042
14.761	22.944	1076.834	883.115
15.775	22.690	1075.604	880.761
16.790	22.375	1074.949	878.572
17.804	22.275	1073.661	876.946
18.819	22.151	1072.930	875.650
19.834	22.257	1072.163	875.475
20.848	22.227	1072.134	875.224
21.863	22.334	1071.521	875.182
22.877	22.302	1070.849	874.394
23.892	22.330	1070.411	874.097
24.907	22.211	1069.386	872.593
25.921	22.203	1069.143	872.278
26.936	22.202	1068.219	871.443
27.950	22.123	1066.981	869.963
28.965	22.150	1065.805	869.063
29.980	22.077	1063.873	867.051
30.994	22.028	1062.567	865.667
32.009	22.206	1061.994	866.002
33.023	22.374	1061.012	865.949
34.038	22.113	1059.900	863.681
35.053	22.009	1059.325	862.627
36.067	22.098	1058.699	862.478
37.082	22.153	1058.322	862.365
38.096	22.269	1057.418	862.120
39.111	22.313	1056.933	861.864
40.126	22.451	1055.697	861.453
41.140	22.406	1054.406	860.106
42.155	22.257	1052.643	857.863
43.169	21.835	1051.722	854.983
44.184	21.856	1050.664	854.150
45.199	21.820	1049.839	853.226
46.213	21.840	1048.925	852.504
47.228	21.752	1047.924	851.187
48.242	21.967	1047.231	851.596
49.257	22.133	1046.074	851.380
50.271	22.049	1045.820	850.693
51.286	22.218	1044.728	850.548
52.301	22.242	1044.428	850.342
53.315	22.284	1043.393	849.627
54.330	22.214	1042.459	848.453
55.344	22.246	1041.793	847.990
56.359	22.188	1040.845	846.868
57.374	22.183	1039.826	845.939
58.388	22.024	1039.032	844.455
59.403	21.952	1038.195	843.350
60.417	22.040	1037.679	843.283
61.432	21.807	1037.115	841.630
62.447	21.880	1035.886	840.910
63.461	21.928	1035.842	841.028
64.476	21.997	1034.736	840.386
65.490	22.118	1033.388	839.793
66.505	21.944	1032.544	838.205
67.520	21.904	1032.163	837.627
68.534	22.057	1031.447	837.703
69.549	21.903	1030.285	835.950
70.563	21.643	1028.944	833.555
71.578	21.445	1028.284	832.002
72.593	21.504	1027.036	831.198
73.607	21.402	1026.128	829.909
74.622	21.336	1025.471	828.989
75.636	21.622	1024.591	829.560
76.651	21.858	1023.932	830.069
77.666	21.783	1023.166	829.020
78.680	21.724	1022.003	827.726
79.695	21.593	1021.662	826.756
80.709	21.728	1020.963	826.755
81.724	21.857	1020.369	826.809
82.739	21.878	1019.247	825.928
83.753	21.784	1018.517	824.819
84.768	22.088	1018.299	826.003
85.782	22.410	1017.318	826.643
86.797	22.636	1016.449	826.926
87.812	22.563	1015.309	825.581
88.826	22.322	1014.459	823.692
89.841	22.270	1014.054	823.043
90.855	22.490	1013.274	823.366
91.870	22.485	1012.692	822.798
92.884	22.387	1011.678	821.446
93.899	22.332	1010.947	820.523
94.914	22.303	1009.515	819.151
95.928	22.386	1008.829	818.909
96.943	22.441	1008.041	818.454
97.957	21.993	1007.310	815.706
98.972	21.866	1005.704	813.744
99.987	21.762	1004.590	812.288
101.001	21.808	1004.193	812.109
102.016	22.118	1003.773	813.133
103.030	22.192	1002.894	812.692
104.045	22.097	1001.920	811.390
105.060	21.999	1000.271	809.532
106.074	21.806	999.600	808.028
107.089	21.778	998.885	807.248
108.103	22.022	998.660	808.118
109.118	22.204	997.617	808.040
110.133	21.959	996.045	805.569
111.147	21.965	994.974	804.662
112.162	21.811	994.033	803.122
113.176	21.646	992.677	801.202
114.191	21.712	992.409	801.214
115.206	21.789	991.328	800.624
116.220	21.593	989.894	798.500
117.235	21.458	988.930	797.040
118.249	21.600	988.597	797.347
119.264	21.543	987.979	796.518
120.279	21.582	986.686	795.582
121.293	21.631	986.010	795.188
122.308	21.681	985.084	794.599
123.322	21.620	984.431	793.727
124.337	21.615	983.698	793.039
125.352	21.554	982.179	791.471
126.366	21.265	980.509	788.749
127.381	20.888	979.194	785.923
128.395	21.384	979.111	788.021
129.410	21.970	979.165	790.638
130.424	22.297	977.930	791.040
131.439	22.052	977.144	789.232
132.454	22.138	976.269	788.844
133.468	22.084	975.387	787.821
134.483	22.044	974.332	786.716
135.497	22.168	973.279	786.351
136.512	22.264	973.253	786.693
137.527	22.519	972.046	786.783
138.541	22.454	971.342	785.855
139.556	22.317	971.179	785.043
140.570	22.332	970.490	784.484
141.585	22.440	968.992	783.683
142.600	22.488	968.643	783.545
143.614	22.267	967.739	781.762
144.629	22.574	966.530	782.081
145.643	22.673	965.898	781.940
146.658	22.719	964.685	781.092
147.673	22.435	963.803	779.050
148.687	22.178	963.100	777.276
149.702	22.251	961.648	776.359
150.716	22.138	960.598	774.946
151.731	22.045	959.716	773.755
152.746	22.060	959.380	773.483
153.760	22.373	958.469	774.055
154.775	22.490	957.739	773.911
155.789	22.528	956.942	773.366
156.804	22.521	955.945	772.460
157.819	22.480	954.616	771.140
158.833	22.470	954.109	770.620
159.848	22.551	953.800	770.653
160.862	22.621	952.794	770.079
161.877	22.475	951.625	768.430
162.892	22.416	950.756	767.403
163.906	22.553	949.745	767.113
164.921	22.493	948.809	766.031
165.935	22.404	947.896	764.837
166.950	22.510	946.785	764.336
167.964	22.495	945.861	763.457
168.979	22.398	944.925	762.211
169.994	22.378	943.521	760.925
171.008	22.197	942.899	759.577
172.023	22.344	942.270	759.636
173.037	22.615	941.508	760.123
174.052	22.410	940.334	758.226
175.067	22.219	939.385	756.570
176.081	22.246	938.307	755.753
177.096	22.218	937.718	755.090
178.110	22.432	936.864	755.253
179.125	22.023	936.146	752.855
180.140	21.783	934.632	750.542
181.154	21.842	934.143	750.339
182.169	21.831	933.969	750.082
183.183	22.111	933.225	750.615
184.198	22.489	932.857	751.866
185.213	22.315	931.939	750.321
186.227	22.416	931.311	750.177
187.242	22.512	931.148	750.390
188.256	22.537	930.089	749.577
189.271	22.481	929.247	748.593
190.286	22.560	928.412	748.189
191.300	22.491	927.380	746.997
192.315	21.937	926.433	743.822
193.329	21.231	924.984	739.605
194.344	20.740	924.050	736.713
195.359	21.325	923.973	739.061
196.373	22.154	924.123	742.624
197.388	22.565	923.968	744.169
198.402	22.287	923.134	742.259
199.417	22.234	922.799	741.699
200.432	22.224	922.618	741.445
201.446	22.257	921.331	740.484
202.461	21.956	920.401	738.404
203.475	21.947	920.248	738.178
204.490	21.623	918.821	735.607
205.504	20.524	916.669	729.211
206.519	20.788	916.776	730.339
207.534	21.692	917.072	734.303
208.548	22.072	916.042	735.004
209.563	22.312	915.933	735.853
210.577	22.334	915.495	735.529
211.592	22.077	914.395	733.510
212.607	22.446	914.211	734.835
213.621	22.648	913.502	735.043
214.636	22.406	913.172	733.702
215.650	22.470	912.568	733.419
216.665	22.537	911.785	733.006
217.680	22.401	911.577	732.208
218.694	22.513	911.000	732.146
219.709	22.212	910.266	730.241
220.723	21.984	908.673	727.952
221.738	22.053	908.658	728.161
222.753	22.261	908.733	729.020
223.767	22.229	907.697	727.992
224.782	22.320	906.751	727.547
225.796	22.576	906.099	728.014
226.811	22.610	905.685	727.760
227.826	22.309	904.129	725.203
228.840	21.468	902.787	720.597
229.855	21.394	901.790	719.436
230.869	21.774	901.809	720.950
231.884	21.461	900.830	718.818
232.899	21.406	900.282	718.091
233.913	22.087	900.917	721.329
234.928	22.378	900.230	721.910
235.942	22.219	899.677	720.752
236.957	22.170	898.918	719.879
237.972	21.933	898.357	718.395
238.986	21.852	897.250	717.116
240.001	22.113	896.351	717.401
241.015	21.972	896.045	716.515
242.030	22.097	895.533	716.553
243.045	22.283	894.805	716.663
244.059	22.231	894.583	716.211
245.074	22.441	894.001	716.537
246.088	22.333	893.293	715.467
247.103	22.133	892.114	713.648
248.117	22.154	891.571	713.236
249.132	22.686	891.432	715.219
250.147	22.843	891.709	716.013
251.161	23.034	890.777	715.978
252.176	23.295	890.328	716.609
253.190	23.315	889.769	716.176
254.205	23.215	889.262	715.302
255.220	23.407	888.876	715.703
256.234	23.335	888.465	715.017
257.249	23.173	888.007	713.932
258.263	23.209	886.793	713.036
259.278	23.166	885.954	712.127
260.293	23.212	885.767	712.097
261.307	23.372	885.080	712.127
262.322	23.331	884.163	711.161
263.336	23.199	883.360	709.923
264.351	22.684	882.294	706.941
265.366	21.550	880.285	700.732
266.380	21.174	879.213	698.313
267.395	21.982	879.782	701.934
268.409	22.725	879.765	704.826
269.424	22.800	879.350	704.734
270.439	22.929	878.569	704.559
271.453	23.013	878.222	704.555
272.468	22.899	877.805	703.704
273.482	23.056	877.461	703.988
274.497	23.308	877.037	704.588
275.512	23.106	875.736	702.678
276.526	22.644	873.877	699.293
277.541	22.728	873.741	699.456
278.555	23.163	873.569	700.981
279.570	23.079	872.667	699.863
280.585	22.752	872.127	698.073
281.599	22.771	871.607	697.669
282.614	23.032	871.350	698.436
283.628	22.501	870.113	695.285
284.643	22.007	869.572	692.841
285.657	22.639	869.235	695.004
286.672	22.590	868.121	693.860
287.687	22.000	867.333	690.847
288.701	22.232	867.688	691.983
289.716	22.697	867.292	693.436
290.730	22.466	866.110	691.520
291.745	22.225	865.502	690.028
292.760	22.113	864.621	688.826
293.774	22.039	863.637	687.691
294.789	22.967	864.175	691.695
295.803	23.438	864.865	694.028
296.818	23.658	863.854	694.016
297.833	23.797	863.258	694.019
298.847	23.517	862.397	692.172
299.862	23.002	861.534	689.410
300.876	23.224	861.279	690.011
301.891	23.498	860.672	690.531
302.906	23.605	860.196	690.503
303.920	23.241	858.815	687.920
304.935	23.177	858.258	687.164
305.949	23.443	858.062	687.978
306.964	23.500	857.657	687.815
307.979	23.326	856.721	686.330
308.993	23.223	856.791	685.924
310.008	23.493	856.791	686.911
311.022	23.683	856.069	687.005
312.037	23.592	854.860	685.622
313.052	23.182	854.542	683.723
314.066	23.191	853.778	683.089
315.081	22.727	852.228	680.000
316.095	21.956	850.717	675.765
317.110	22.375	850.736	677.334
318.125	23.182	851.470	680.964
319.139	22.901	850.579	679.113
320.154	21.793	848.476	673.122
321.168	21.274	847.795	670.528
322.183	21.931	847.969	673.131
323.197	22.806	848.435	676.795
324.212	23.141	847.641	677.384
325.227	23.139	847.511	677.214
326.241	23.424	847.004	677.840
327.256	23.228	846.637	676.735
328.270	23.166	845.973	675.911
329.285	23.005	845.392	674.769
330.300	22.882	844.439	673.483
331.314	22.576	843.603	671.589
332.329	22.893	842.805	672.102
333.343	23.283	842.807	673.525
334.358	23.401	842.471	673.645
335.373	23.379	841.554	672.771
336.387	23.507	840.974	672.731
337.402	23.680	841.026	673.373
338.416	23.973	840.708	674.168
339.431	23.802	840.147	673.012
340.446	23.814	839.745	672.675
341.460	23.986	838.946	672.624
342.475	24.082	838.325	672.429
343.489	23.822	837.737	670.916
344.504	23.720	837.319	670.137
345.519	24.070	836.713	670.914
346.533	24.424	836.457	671.982
347.548	24.378	836.072	671.440
348.562	24.405	835.605	671.108
349.577	24.284	834.606	669.791
350.592	24.236	834.240	669.258
351.606	23.968	834.252	668.202
352.621	24.148	833.412	668.145
353.635	24.037	832.842	667.214
354.650	24.069	832.071	666.654
355.665	23.649	831.432	664.513
356.679	22.769	829.499	659.622
357.694	22.513	829.364	658.498
358.708	23.347	828.851	661.149
359.723	23.125	828.517	659.995
360.738	23.384	828.371	660.784
361.752	23.811	828.130	662.125
362.767	23.882	827.809	662.075
363.781	24.020	828.105	662.767
364.796	24.391	828.018	664.020
365.810	24.556	827.091	663.832
366.825	24.647	827.009	664.044
367.840	24.342	826.903	662.769
368.854	24.466	825.787	662.276
369.869	24.129	824.771	660.154
370.883	23.948	824.007	658.813
371.898	24.064	823.528	658.802
372.913	23.924	822.915	657.734
373.927	23.822	822.424	656.908
374.942	24.027	822.019	657.283
375.956	24.148	821.229	657.038
376.971	24.244	820.793	656.987
377.986	24.465	820.139	657.218
379.000	24.519	820.195	657.404
380.015	24.568	819.617	657.064
381.029	24.315	818.950	655.541
382.044	24.259	817.970	654.490
383.059	24.321	817.773	654.503
384.073	24.619	817.079	654.982
385.088	24.548	816.533	654.228
386.102	24.590	815.882	653.800
387.117	24.343	815.368	652.427
388.132	24.252	814.658	651.471
389.146	24.050	814.445	650.502
390.161	23.433	813.133	647.145
391.175	23.589	812.759	647.361
392.190	23.975	812.775	648.723
393.205	24.185	812.751	649.412
394.219	23.366	810.655	644.701
395.234	21.809	808.388	637.187
396.248	20.876	807.190	632.803
397.263	21.892	808.309	637.315
398.278	23.700	809.213	644.541
399.292	24.200	809.524	646.544
400.307	23.803	808.726	644.412
401.321	23.780	808.252	643.893
402.336	23.761	807.950	643.527
403.350	24.056	807.704	644.342
404.365	24.564	807.631	646.066
405.380	24.896	807.611	647.193
406.394	24.977	807.221	647.115
407.409	25.287	806.779	647.821
408.423	25.361	805.995	647.402
409.438	25.127	805.462	646.073
410.453	25.151	805.198	645.892
411.467	25.325	804.647	646.019
412.482	25.247	804.179	645.304
413.496	25.219	803.719	644.780
414.511	25.353	803.211	644.795
415.526	25.196	803.018	644.021
416.540	25.224	802.602	643.729
417.555	25.155	802.151	643.062
418.569	24.788	801.642	641.281
419.584	24.842	800.904	640.829
420.599	24.966	800.585	640.960
421.613	91.668	1256.073	1363.235
422.628	78.400	1322.459	1363.344
