DTS Sentinel unit serial number:	SN413079Multiplexer serial number:	ORYXHardware model number:	OX4-SRSoftware version number:	ORYX F/W v4.00 Oryx Data Collector v3.7.2.0data status	okinstallation	princeton_trtdifferential loss correction	single-endedforward channel	channel 3reverse channel	N/Adate	2019/09/10time	17:10:11forward acquisition time	60.00reverse acquisition time	0.00gamma	496.2192k internal	0.2298k external	0.2298temperature offset calibration	0.9905default loss term (dB/km)	0.3790temperature slope calibration	1.0000multiplexer offset coefficient	1.0000multiplexer slope coefficient	1.0000fibre end	0.00T internal ref (°C)	37.62T ext. ref 1 (°C)	-0.38T ext. ref 2 (°C)	31.91length (m)	temperature (°C)	Stokes	anti-Stokes-747.200	-60.905	0.272	-0.118
-746.185	-19.865	-0.208	0.131
-745.171	-200.000	0.033	0.198
-744.156	-200.000	-0.100	0.521
-743.142	-200.000	-0.039	0.183
-742.127	-13.521	-0.261	0.172
-741.112	-200.000	0.014	0.078
-740.098	800.000	-0.066	-0.231
-739.083	-74.119	0.202	-0.075
-738.069	280.216	0.021	-0.039
-737.054	-146.394	-0.223	-0.020
-736.039	83.121	-0.235	-0.261
-735.025	-98.364	0.184	-0.048
-734.010	-120.545	-0.354	-0.061
-732.996	-167.287	-0.346	0.014
-731.981	-14.794	0.106	-0.069
-730.966	-200.000	-0.344	-0.000
-729.952	800.000	0.036	-0.158
-728.937	800.000	0.060	-0.224
-727.923	800.000	-0.187	-0.709
-726.908	43.584	0.101	-0.094
-725.894	-5.791	-0.281	-0.196
-724.879	-200.000	-0.084	-0.440
-723.864	-200.000	-0.048	-0.268
-722.850	-200.000	0.014	-0.168
-721.835	191.074	-0.080	-0.123
-720.821	800.000	0.068	0.219
-719.806	-200.000	0.044	0.230
-718.791	104.541	0.005	-0.006
-717.777	800.000	-0.050	0.176
-716.762	-161.057	-0.133	-0.007
-715.748	-111.191	-0.449	0.094
-714.733	119.489	-0.157	0.199
-713.718	-47.521	-0.076	0.038
-712.704	800.000	0.032	0.105
-711.689	211.456	0.215	0.344
-710.675	-122.183	0.481	-0.080
-709.660	800.000	0.049	-0.163
-708.645	169.188	-0.094	0.137
-707.631	-118.206	0.372	-0.068
-706.616	-200.000	-0.020	-0.143
-705.602	-164.584	-0.259	-0.012
-704.587	-104.966	0.158	0.037
-703.572	-200.000	0.045	0.230
-702.558	425.946	-0.070	-0.154
-701.543	-154.955	0.105	0.007
-700.529	-198.696	0.187	0.001
-699.514	-152.276	0.312	-0.023
-698.499	20.240	0.199	-0.163
-697.485	75.253	0.115	0.124
-696.470	-200.000	-0.061	-0.380
-695.456	276.292	-0.051	0.092
-694.441	170.590	0.017	0.025
-693.426	536.509	0.133	0.321
-692.412	706.047	-0.022	-0.060
-691.397	800.000	0.099	0.324
-690.383	-117.423	-0.453	-0.084
-689.368	800.000	-0.125	-0.401
-688.354	-121.329	-0.011	0.002
-687.339	-124.351	0.371	0.059
-686.324	-106.835	0.369	0.083
-685.310	-80.025	0.363	0.124
-684.295	800.000	-0.038	-0.115
-683.281	-132.385	-0.247	-0.032
-682.266	380.008	-0.192	0.401
-681.251	-200.000	0.060	0.299
-680.237	-127.973	-0.211	0.031
-679.222	-100.168	0.031	0.008
-678.208	243.899	0.098	0.167
-677.193	-22.693	0.072	-0.044
-676.178	129.778	-0.160	0.208
-675.164	-200.000	-0.007	-0.110
-674.149	426.398	-0.146	0.321
-673.135	1.784	0.125	-0.091
-672.120	-80.486	0.107	-0.036
-671.105	-200.000	-0.013	0.111
-670.091	-111.540	0.032	0.007
-669.076	72.719	-0.182	-0.193
-668.062	-64.875	-0.131	0.054
-667.047	-98.994	-0.173	0.045
-666.032	-200.000	-0.024	-0.119
-665.018	443.677	-0.056	-0.124
-664.003	102.760	0.307	0.366
-662.989	-200.000	0.053	0.255
-661.974	-65.845	-0.067	-0.027
-660.959	356.353	0.031	-0.062
-659.945	-34.973	-0.205	-0.114
-658.930	-200.000	-0.015	-0.119
-657.916	642.212	-0.040	0.104
-656.901	-23.064	0.153	0.093
-655.886	800.000	0.014	0.061
-654.872	174.858	-0.077	0.113
-653.857	44.815	0.199	0.187
-652.843	31.618	-0.038	-0.033
-651.828	-54.286	-0.441	0.204
-650.814	168.952	0.035	-0.051
-649.799	-55.327	0.195	0.089
-648.784	-102.227	-0.487	-0.119
-647.770	-200.000	-0.028	-0.140
-646.755	252.702	-0.150	0.261
-645.741	-185.999	-0.328	0.005
-644.726	-200.000	-0.049	-0.400
-643.711	-78.500	0.309	-0.107
-642.697	-102.204	-0.364	-0.089
-641.682	78.884	-0.171	0.186
-640.668	800.000	-0.078	0.254
-639.653	800.000	0.064	0.180
-638.638	-44.570	-0.064	-0.032
-637.624	208.869	-0.063	-0.099
-636.609	108.082	-0.096	0.116
-635.595	-97.820	-0.174	0.046
-634.580	180.405	-0.067	-0.099
-633.565	-200.000	0.038	-0.200
-632.551	800.000	-0.070	-0.255
-631.536	5.350	-0.289	0.216
-630.522	754.901	0.059	-0.163
-629.507	54.845	0.047	0.046
-628.492	91.434	0.075	-0.085
-627.478	229.155	-0.043	0.072
-626.463	133.776	-0.048	0.063
-625.449	-200.000	0.009	-0.127
-624.434	9.880	-0.325	-0.251
-623.419	144.763	-0.304	-0.412
-622.405	259.483	0.059	0.103
-621.390	-40.255	0.359	-0.190
-620.376	6.629	0.145	-0.109
-619.361	-200.000	-0.036	-0.286
-618.346	113.110	0.133	-0.164
-617.332	-7.389	-0.405	0.278
-616.317	45.354	-0.215	0.201
-615.303	83.504	0.089	0.098
-614.288	-52.533	-0.133	-0.063
-613.273	184.295	-0.070	-0.105
-612.259	-68.705	-0.241	0.095
-611.244	800.000	-0.045	0.188
-610.230	180.339	0.043	0.064
-609.215	-56.953	-0.128	0.057
-608.201	98.743	-0.102	0.119
-607.186	800.000	-0.027	0.087
-606.171	800.000	-0.056	0.217
-605.157	-80.918	-0.164	-0.055
-604.142	-108.698	-0.096	-0.021
-603.128	-187.390	0.367	-0.005
-602.113	137.351	-0.052	0.068
-601.098	284.916	0.052	0.095
-600.084	800.000	0.049	0.201
-599.069	-200.000	0.052	0.237
-598.055	443.549	-0.092	0.204
-597.040	488.453	-0.023	0.053
-596.025	-200.000	-0.015	-0.143
-595.011	-200.000	-0.006	0.231
-593.996	-103.646	-0.240	-0.057
-592.982	-67.901	-0.250	0.099
-591.967	64.908	-0.109	0.111
-590.952	545.429	-0.014	-0.035
-589.938	800.000	-0.060	-0.211
-588.923	-56.450	0.129	-0.058
-587.909	395.430	0.036	0.076
-586.894	176.312	-0.064	0.094
-585.879	191.965	-0.079	-0.120
-584.865	444.679	-0.094	-0.209
-583.850	-200.000	0.088	0.422
-582.836	26.742	0.211	0.179
-581.821	-70.185	-0.147	0.057
-580.806	-196.879	-0.361	0.002
-579.792	21.760	-0.156	-0.129
-578.777	-86.459	0.162	-0.051
-577.763	-59.296	-0.259	0.113
-576.748	-178.640	0.222	-0.005
-575.733	303.880	-0.097	-0.182
-574.719	3.917	-0.123	-0.091
-573.704	-80.712	0.254	0.086
-572.690	150.173	0.171	-0.236
-571.675	639.394	-0.117	0.302
-570.661	120.306	-0.056	-0.071
-569.646	-200.000	0.022	0.137
-568.631	318.656	0.100	0.191
-567.617	-129.990	-0.335	0.046
-566.602	337.094	-0.098	0.194
-565.588	-137.400	-0.146	-0.017
-564.573	326.711	0.125	-0.242
-563.558	-35.540	-0.163	0.090
-562.544	-44.691	-0.259	-0.131
-561.529	99.121	-0.174	-0.203
-560.515	587.630	0.121	0.301
-559.500	-200.000	0.016	0.193
-558.485	79.512	-0.008	0.008
-557.471	-25.216	-0.375	-0.225
-556.456	800.000	0.123	-0.493
-555.442	356.278	-0.176	0.355
-554.427	800.000	0.039	0.149
-553.412	-8.384	0.128	0.087
-552.398	-137.201	0.450	0.052
-551.383	-74.160	-0.217	-0.080
-550.369	447.778	0.067	0.150
-549.354	-100.301	0.275	0.069
-548.339	-66.322	0.203	0.082
-547.325	168.078	-0.078	0.112
-546.310	-104.124	0.298	0.070
-545.296	-31.863	-0.276	0.157
-544.281	-72.278	-0.133	-0.050
-543.266	29.188	-0.217	0.186
-542.252	800.000	0.030	0.129
-541.237	267.593	-0.139	-0.246
-540.223	-88.054	0.099	-0.030
-539.208	-51.117	-0.158	0.075
-538.193	28.803	0.165	0.141
-537.179	800.000	-0.083	-0.326
-536.164	486.119	-0.079	-0.183
-535.150	34.355	-0.124	-0.110
-534.135	90.657	-0.123	-0.140
-533.121	502.312	-0.035	-0.082
-532.106	9.014	-0.180	0.138
-531.091	379.724	0.139	-0.289
-530.077	-142.766	-0.599	0.059
-529.062	-137.257	0.098	-0.011
-528.048	-107.390	0.101	0.022
-527.033	-150.586	-0.123	0.010
-526.018	-156.675	0.168	-0.011
-525.004	-43.032	-0.297	-0.152
-523.989	37.975	-0.081	0.073
-522.975	182.985	-0.117	0.174
-521.960	-115.621	-0.150	-0.028
-520.945	-119.012	0.096	0.017
-519.931	-99.617	-0.394	-0.100
-518.916	-200.000	0.014	0.121
-517.902	-42.782	-0.045	0.023
-516.887	-100.060	-0.294	0.074
-515.872	-155.006	-0.241	0.016
-514.858	-200.000	-0.003	-0.342
-513.843	-98.190	0.257	-0.067
-512.829	-28.430	0.117	0.068
-511.814	136.469	0.181	-0.238
-510.799	170.218	0.090	-0.131
-509.785	-79.054	-0.365	0.125
-508.770	-200.000	-0.037	0.180
-507.756	-72.817	0.129	-0.048
-506.741	-200.000	0.002	0.136
-505.726	391.557	0.079	-0.165
-504.712	-34.756	0.200	-0.110
-503.697	-110.102	0.243	-0.051
-502.683	-1.394	-0.054	0.038
-501.668	-152.831	0.505	-0.036
-500.653	-62.151	-0.280	-0.118
-499.639	-200.000	0.009	-0.227
-498.624	-120.349	0.249	-0.043
-497.610	28.773	-0.028	-0.024
-496.595	-74.537	-0.126	-0.046
-495.581	-13.957	0.069	-0.045
-494.566	-57.849	0.073	-0.032
-493.551	-190.257	-0.269	0.003
-492.537	-200.000	0.007	-0.094
-491.522	-200.000	0.039	0.411
-490.508	-200.000	-0.005	0.245
-489.493	-131.144	-0.035	-0.005
-488.478	-74.372	0.084	-0.031
-487.464	320.942	0.074	-0.143
-486.449	791.471	0.061	-0.171
-485.435	-146.649	-0.363	0.032
-484.420	356.727	-0.107	-0.215
-483.405	-200.000	0.014	-0.184
-482.391	-112.931	-0.145	-0.029
-481.376	40.927	-0.282	-0.257
-480.362	224.459	0.184	-0.301
-479.347	-200.000	0.002	0.140
-478.332	54.892	-0.198	0.193
-477.318	800.000	0.099	0.300
-476.303	449.066	0.107	-0.239
-475.289	-65.858	-0.146	0.059
-474.274	800.000	-0.031	0.127
-473.259	-37.028	-0.141	-0.076
-472.245	322.636	-0.092	-0.177
-471.230	-96.743	0.120	0.032
-470.216	-14.087	-0.194	-0.126
-469.201	-48.431	0.232	0.113
-468.186	241.066	0.113	0.190
-467.172	362.091	-0.066	-0.134
-466.157	-165.221	0.189	-0.008
-465.143	-160.222	-0.320	-0.017
-464.128	367.201	-0.069	-0.141
-463.113	-18.262	0.122	0.077
-462.099	88.654	-0.118	0.132
-461.084	-200.000	-0.015	-0.082
-460.070	-26.808	0.081	0.048
-459.055	-200.000	-0.010	0.094
-458.040	100.796	0.136	0.159
-457.026	-35.669	0.165	-0.090
-456.011	800.000	-0.053	0.214
-454.997	172.753	-0.105	-0.153
-453.982	800.000	-0.054	0.178
-452.968	-67.663	0.406	-0.160
-451.953	-97.122	0.357	-0.094
-450.938	-117.939	-0.143	-0.026
-449.924	193.115	0.216	-0.330
-448.909	85.892	0.137	-0.152
-447.895	1.052	0.171	-0.123
-446.880	-63.076	-0.179	0.074
-445.865	10.635	0.269	0.207
-444.851	-66.201	-0.264	-0.106
-443.836	-10.074	-0.139	-0.093
-442.822	-200.000	-0.023	-0.193
-441.807	-97.674	0.316	-0.083
-440.792	-101.973	-0.144	-0.035
-439.778	-65.433	0.289	0.117
-438.763	-165.785	0.137	0.006
-437.749	481.504	0.063	-0.145
-436.734	-148.837	0.232	-0.019
-435.719	800.000	-0.118	-0.514
-434.705	-200.000	0.046	-0.244
-433.690	100.515	0.129	-0.150
-432.676	-23.984	-0.195	0.117
-431.661	800.000	-0.056	0.159
-430.646	-151.420	-0.299	0.022
-429.632	-200.000	0.035	0.270
-428.617	630.524	-0.117	-0.298
-427.603	115.810	-0.080	0.099
-426.588	-65.973	0.195	-0.078
-425.573	-92.621	-0.171	-0.048
-424.559	53.998	0.113	-0.109
-423.544	-124.832	-0.335	0.052
-422.530	13.261	-0.138	-0.108
-421.515	800.000	-0.081	0.239
-420.500	116.550	-0.271	-0.335
-419.486	-108.908	0.392	0.084
-418.471	-171.508	-0.054	0.002
-417.457	-5.764	0.291	-0.201
-416.442	142.933	0.132	-0.177
-415.428	394.049	0.122	0.256
-414.413	-2.227	0.129	-0.091
-413.398	47.721	0.112	-0.105
-412.384	-200.000	0.033	-0.348
-411.369	-44.348	-0.254	-0.128
-410.355	-168.405	0.273	0.011
-409.340	-110.648	-0.215	0.045
-408.325	57.316	0.064	0.063
-407.311	-146.218	0.068	-0.006
-406.296	80.365	0.068	0.074
-405.282	-14.194	0.156	-0.101
-404.267	25.071	-0.115	-0.096
-403.252	72.409	-0.114	-0.120
-402.238	-155.386	0.504	-0.033
-401.223	-127.106	0.307	0.045
-400.209	-135.090	-0.180	0.022
-399.194	6.290	-0.358	-0.268
-398.179	577.871	-0.105	-0.258
-397.165	112.774	0.161	0.196
-396.150	-2.586	0.366	0.258
-395.136	124.422	0.231	-0.293
-394.121	35.228	-0.195	0.172
-393.106	-18.773	-0.124	0.078
-392.092	-0.406	-0.402	0.287
-391.077	281.474	-0.087	-0.158
-390.063	3.833	-0.085	-0.063
-389.048	375.241	-0.134	-0.275
-388.033	800.000	0.065	0.217
-387.019	24.516	0.144	-0.120
-386.004	-102.165	-0.250	0.061
-384.990	-139.876	-0.282	0.030
-383.975	-74.684	-0.318	-0.115
-382.960	-200.000	-0.048	-0.228
-381.946	-200.000	-0.012	-0.068
-380.931	74.896	0.226	0.239
-379.917	-200.000	-0.022	0.336
-378.902	-138.859	0.361	-0.040
-377.888	-135.506	-0.145	0.017
-376.873	-79.865	-0.254	-0.086
-375.858	800.000	0.014	0.046
-374.844	-79.293	0.311	-0.106
-373.829	110.380	0.292	-0.352
-372.815	474.919	0.106	0.242
-371.800	-6.299	-0.163	-0.112
-370.785	342.059	0.168	0.330
-369.771	-194.083	-0.104	-0.001
-368.756	-11.332	0.261	0.173
-367.742	97.565	0.041	0.047
-366.727	346.624	-0.053	0.104
-365.712	-84.271	-0.184	0.059
-364.698	-200.000	-0.009	-0.197
-363.683	142.549	0.116	-0.156
-362.669	270.375	-0.228	0.402
-361.654	-200.000	-0.010	0.167
-360.639	96.112	0.293	-0.337
-359.625	-200.000	-0.029	-0.343
-358.610	-162.311	-0.182	0.009
-357.596	104.592	0.217	0.257
-356.581	-82.909	0.098	0.032
-355.566	-133.426	0.400	0.051
-354.552	-200.000	0.008	0.067
-353.537	-200.000	-0.026	0.309
-352.523	371.906	0.140	-0.286
-351.508	518.682	0.033	0.077
-350.493	335.902	-0.237	-0.462
-349.479	-128.188	-0.268	0.038
-348.464	25.950	0.234	-0.196
-347.450	631.856	-0.043	0.109
-346.435	-200.000	0.076	0.533
-345.420	-98.077	-0.373	-0.097
-344.406	123.067	0.162	-0.204
-343.391	379.320	-0.073	-0.150
-342.377	800.000	0.020	-0.076
-341.362	-53.104	-0.211	0.098
-340.348	-79.809	0.430	0.145
-339.333	-200.000	0.024	0.152
-338.318	-139.209	0.110	0.012
-337.304	176.291	-0.116	0.169
-336.289	13.086	0.244	-0.190
-335.275	476.264	-0.077	-0.174
-334.260	-11.510	-0.378	0.250
-333.245	-88.653	0.193	-0.058
-332.231	-200.000	-0.006	-0.154
-331.216	16.166	-0.123	0.097
-330.202	-200.000	0.013	-0.152
-329.187	-117.261	-0.376	0.069
-328.172	-30.330	0.177	0.101
-327.158	-200.000	-0.002	0.287
-326.143	-47.205	-0.159	0.078
-325.129	-200.000	-0.022	-0.224
-324.114	-1.001	-0.203	0.144
-323.099	-17.718	-0.310	0.195
-322.085	-200.000	0.007	-0.223
-321.070	-101.497	-0.177	-0.043
-320.056	-122.980	-0.199	-0.032
-319.041	103.178	0.147	-0.173
-318.026	-152.931	0.265	-0.019
-317.012	-100.440	0.132	-0.033
-315.997	800.000	-0.021	-0.074
-314.983	54.957	0.227	0.220
-313.968	-97.797	0.030	0.008
-312.953	-174.741	-0.265	-0.008
-311.939	-137.708	-0.027	-0.003
-310.924	457.213	0.205	0.457
-309.910	-200.000	-0.005	-0.133
-308.895	-200.000	0.002	0.219
-307.880	150.458	0.150	0.204
-306.866	351.819	-0.217	-0.432
-305.851	310.800	0.136	-0.255
-304.837	58.157	0.189	-0.185
-303.822	37.880	0.179	-0.160
-302.807	341.990	-0.217	-0.425
-301.793	371.441	-0.162	-0.329
-300.778	-77.723	-0.105	0.036
-299.764	185.475	-0.064	-0.095
-298.749	134.797	-0.247	-0.321
-297.735	-200.000	-0.047	0.307
-296.720	-200.000	-0.031	0.193
-295.705	800.000	-0.093	-0.281
-294.691	-60.530	0.289	-0.123
-293.676	-200.000	-0.052	-0.345
-292.662	-85.479	0.274	-0.086
-291.647	142.982	-0.151	0.202
-290.632	39.080	0.157	-0.141
-289.618	-43.328	-0.302	-0.153
-288.603	800.000	0.132	0.467
-287.589	-115.901	0.294	0.055
-286.574	-14.360	0.175	0.113
-285.559	242.340	0.068	0.115
-284.545	-133.168	-0.180	0.023
-283.530	-111.093	0.268	0.055
-282.516	-200.000	0.011	-0.139
-281.501	-78.010	-0.019	0.006
-280.486	378.250	0.024	-0.049
-279.472	-6.234	0.325	0.222
-278.457	800.000	0.049	-0.157
-277.443	45.916	0.100	0.093
-276.428	-47.292	0.266	0.130
-275.413	-41.175	0.294	-0.152
-274.399	293.030	-0.099	-0.182
-273.384	155.568	0.252	-0.348
-272.370	12.931	-0.113	0.088
-271.355	38.045	-0.096	-0.086
-270.340	800.000	0.072	0.230
-269.326	-102.272	0.035	-0.008
-268.311	2.867	-0.122	-0.089
-267.297	800.000	0.052	0.153
-266.282	730.919	-0.156	0.418
-265.267	800.000	0.034	-0.132
-264.253	-161.824	0.262	-0.013
-263.238	800.000	-0.160	-0.530
-262.224	-190.821	-0.124	-0.001
-261.209	-49.955	0.077	0.037
-260.195	-156.245	0.296	-0.019
-259.180	-58.408	0.235	-0.102
-258.165	-0.728	0.111	-0.079
-257.151	56.617	-0.238	0.232
-256.136	800.000	-0.078	0.238
-255.122	44.826	0.161	0.148
-254.107	-71.792	0.252	-0.094
-253.092	-200.000	0.009	0.283
-252.078	36.489	-0.190	0.168
-251.063	-200.000	0.033	0.168
-250.049	-26.752	-0.278	-0.163
-249.034	-108.730	0.190	0.041
-248.019	-97.565	-0.064	0.017
-247.005	-130.109	0.201	0.027
-245.990	264.993	0.055	0.097
-244.976	-180.365	-0.303	-0.006
-243.961	-97.573	0.197	-0.051
-242.946	-200.000	0.073	0.340
-241.932	-200.000	-0.018	-0.145
-240.917	800.000	-0.011	0.039
-239.903	694.841	-0.080	0.211
-238.888	-200.000	0.020	0.359
-237.873	800.000	0.034	0.118
-236.859	202.759	-0.181	0.280
-235.844	417.542	0.078	-0.167
-234.830	-200.000	0.001	-0.064
-233.815	-43.990	0.182	0.092
-232.800	-55.647	-0.231	0.103
-231.786	-200.000	-0.002	0.593
-230.771	99.137	-0.102	0.118
-229.757	181.474	0.141	-0.208
-228.742	800.000	-0.056	0.227
-227.727	800.000	-0.057	0.162
-226.713	520.921	0.062	0.145
-225.698	-75.958	0.130	0.046
-224.684	-136.673	-0.059	-0.007
-223.669	-32.681	-0.317	-0.177
-222.655	-200.000	0.012	0.167
-221.640	-79.923	0.299	0.100
-220.625	336.220	0.130	0.252
-219.611	-95.517	0.112	-0.030
-218.596	-36.532	0.062	-0.033
-217.582	-136.689	0.500	-0.058
-216.567	-200.000	-0.215	-0.001
-215.552	800.000	-0.053	-0.205
-214.538	37.483	-0.183	0.163
-213.523	-92.385	-0.190	-0.053
-212.509	32.518	0.350	0.302
-211.494	-38.145	-0.107	0.057
-210.479	-53.699	-0.119	-0.055
-209.465	9.753	0.096	0.073
-208.450	-96.146	0.098	0.026
-207.436	24.557	0.160	-0.132
-206.421	5.022	0.357	-0.262
-205.406	396.669	0.140	0.292
-204.392	-120.800	0.290	-0.049
-203.377	800.000	-0.068	-0.239
-202.363	-94.753	0.163	-0.044
-201.348	-171.394	0.048	-0.002
-200.333	-62.562	-0.063	-0.026
-199.319	206.976	0.180	0.280
-198.304	-89.307	0.117	0.034
-197.290	55.249	0.202	0.195
-196.275	25.514	0.197	-0.164
-195.260	-118.870	0.325	-0.057
-194.246	-200.000	-0.021	0.184
-193.231	800.000	-0.068	0.197
-192.217	595.649	-0.115	-0.283
-191.202	74.088	-0.102	-0.107
-190.187	-136.270	-0.320	-0.037
-189.173	-167.959	-0.346	0.014
-188.158	800.000	0.052	0.180
-187.144	58.879	0.188	0.185
-186.129	-187.098	-0.285	0.004
-185.114	-0.876	-0.087	0.061
-184.100	36.789	-0.230	0.203
-183.085	-63.986	-0.188	-0.077
-182.071	133.169	0.156	-0.201
-181.056	-118.872	-0.193	-0.034
-180.042	53.145	0.125	-0.119
-179.027	-22.315	-0.394	0.239
-178.012	404.560	0.154	0.323
-176.998	-200.000	0.001	0.222
-175.983	-200.000	-0.094	0.576
-174.969	-140.597	0.460	0.048
-173.954	-92.232	0.465	0.131
-172.939	-155.820	0.302	-0.019
-171.925	-133.891	0.235	-0.029
-170.910	123.768	-0.123	-0.155
-169.896	-117.961	0.136	0.024
-168.881	-11.027	0.105	-0.069
-167.866	-82.928	-0.320	-0.103
-166.852	14.370	0.306	-0.238
-165.837	-46.265	-0.135	0.066
-164.823	293.444	0.044	-0.080
-163.808	800.000	0.112	-0.341
-162.793	-0.787	-0.047	0.033
-161.779	-79.834	0.161	-0.054
-160.764	-21.290	-0.079	-0.048
-159.750	732.844	0.086	0.229
-158.735	83.453	0.225	0.244
-157.720	-8.127	0.273	0.184
-156.706	233.692	0.046	-0.076
-155.691	-200.000	0.046	-0.270
-154.677	127.369	-0.085	-0.108
-153.662	761.250	-0.085	-0.229
-152.647	-101.288	0.269	-0.066
-151.633	-200.000	0.201	-0.000
-150.618	367.759	0.157	0.317
-149.604	564.321	0.090	0.218
-148.589	-1.345	-0.109	0.077
-147.574	47.144	0.347	0.322
-146.560	396.118	-0.086	-0.180
-145.545	-200.000	0.031	-0.222
-144.531	-200.000	0.002	-0.321
-143.516	-5.894	-0.155	0.106
-142.502	-200.000	0.040	-0.302
-141.487	-26.317	-0.355	0.208
-140.472	-200.000	-0.007	-0.104
-139.458	25.753	-0.227	0.188
-138.443	476.098	-0.038	-0.085
-137.429	800.000	0.060	0.264
-136.414	-12.349	-0.126	-0.082
-135.399	-200.000	-0.015	-0.189
-134.385	-167.111	0.457	-0.019
-133.370	359.507	-0.118	0.235
-132.356	370.368	0.034	0.069
-131.341	-169.223	0.420	0.015
-130.326	-150.203	0.156	0.012
-129.312	-200.000	0.001	0.158
-128.297	57.825	-0.192	0.187
-127.283	121.265	-0.131	0.162
-126.268	-73.270	-0.342	-0.125
-125.253	338.868	-0.085	-0.165
-124.239	155.441	0.161	-0.221
-123.224	97.855	-0.114	0.130
-122.210	-200.000	0.083	0.403
-121.195	67.951	-0.070	0.071
-120.180	-22.782	-0.165	0.099
-119.166	425.225	-0.107	-0.228
-118.151	-105.816	0.127	-0.029
-117.137	27.221	0.025	0.021
-116.122	130.768	0.198	0.253
-115.107	-92.498	0.147	0.041
-114.093	-200.000	0.031	-0.182
-113.078	29.101	0.192	0.163
-112.064	86.009	-0.179	0.196
-111.049	-86.461	0.110	-0.034
-110.034	15.077	0.457	-0.357
-109.020	570.991	-0.132	-0.319
-108.005	11.448	-0.088	0.067
-106.991	-101.233	0.116	-0.028
-105.976	-127.080	0.060	0.009
-104.962	25.790	0.232	-0.192
-103.947	-88.079	-0.323	-0.096
-102.932	-200.000	0.029	-0.304
-101.918	58.458	0.194	-0.189
-100.903	-109.158	0.161	0.034
-99.889	86.666	-0.120	-0.131
-98.874	25.816	-0.174	-0.144
-97.859	-96.011	0.181	0.048
-96.845	161.082	0.197	-0.274
-95.830	174.565	0.051	0.073
-94.816	-200.000	-0.036	-0.304
-93.801	37.825	-0.164	-0.145
-92.786	85.983	-0.215	0.236
-91.772	-2.821	-0.189	-0.132
-90.757	-144.043	0.191	0.018
-89.743	-200.000	-0.021	0.152
-88.728	-64.350	0.132	0.053
-87.713	-129.031	-0.111	0.015
-86.699	-200.000	0.029	0.134
-85.684	51.946	-0.083	0.078
-84.670	-115.420	0.316	0.059
-83.655	-137.444	0.117	-0.013
-82.640	18.547	-0.045	-0.036
-81.626	-73.575	-0.207	-0.075
-80.611	-14.425	0.157	-0.100
-79.597	-68.979	0.152	0.058
-78.582	-182.746	0.167	0.003
-77.567	-12.814	-0.096	-0.062
-76.553	259.776	-0.075	0.129
-75.538	-200.000	-0.037	0.167
-74.524	-182.873	0.147	-0.003
-73.509	23.398	0.182	-0.149
-72.494	-35.492	0.209	-0.113
-71.480	31.343	0.074	0.063
-70.465	259.164	-0.092	-0.158
-69.451	-200.000	-0.039	-0.430
-68.436	-46.998	0.195	-0.094
-67.422	-34.702	0.028	-0.015
-66.407	-116.688	0.245	-0.045
-65.392	800.000	0.103	0.287
-64.378	-148.866	-0.370	-0.030
-63.363	-200.000	0.013	-0.119
-62.349	-200.000	-0.217	0.000
-61.334	119.911	-0.827	-1.020
-60.319	-31.330	0.312	0.175
-59.305	367.943	-0.197	-0.396
-58.290	800.000	0.278	0.813
-57.276	800.000	0.496	1.783
-56.261	-200.000	86.267	505.884
-55.246	547.686	1378.172	3277.809
-54.232	179.971	2628.231	3827.088
-53.217	117.747	2273.650	2781.014
-52.203	47.406	1800.345	1666.639
-51.188	40.634	1606.617	1438.374
-50.173	38.219	1578.819	1396.202
-49.159	54.675	1622.373	1554.150
-48.144	58.590	1641.933	1601.174
-47.130	41.059	1601.995	1437.081
-46.115	37.907	1586.934	1400.918
-45.100	37.748	1583.311	1396.520
-44.086	37.718	1581.486	1394.644
-43.071	37.717	1578.965	1392.358
-42.057	37.612	1577.885	1390.598
-41.042	37.604	1576.276	1389.068
-40.027	37.584	1574.903	1387.659
-39.013	37.537	1573.240	1385.803
-37.998	37.595	1571.902	1384.986
-36.984	37.605	1570.312	1383.596
-35.969	37.634	1569.384	1382.934
-34.954	37.542	1568.570	1381.506
-33.940	37.656	1566.183	1380.160
-32.925	37.610	1565.148	1378.866
-31.911	37.722	1563.447	1378.106
-30.896	37.743	1562.105	1377.019
-29.881	37.649	1561.299	1375.587
-28.867	37.658	1559.791	1374.267
-27.852	37.618	1558.358	1372.671
-26.838	37.662	1556.437	1371.233
-25.823	37.728	1554.556	1369.986
-24.809	37.640	1553.103	1368.034
-23.794	37.630	1551.708	1366.677
-22.779	37.627	1550.378	1365.427
-21.765	37.708	1549.542	1365.209
-20.750	37.649	1548.608	1363.915
-19.736	37.601	1547.294	1362.371
-18.721	37.667	1545.793	1361.458
-17.706	37.639	1544.717	1360.259
-16.692	37.659	1543.207	1359.014
-15.677	37.616	1542.338	1357.892
-14.663	37.651	1541.218	1357.102
-13.648	37.624	1540.425	1356.160
-12.633	37.594	1539.274	1354.884
-11.619	37.699	1537.827	1354.284
-10.604	37.499	1537.740	1352.765
-9.590	37.555	1536.502	1352.013
-8.575	37.584	1535.689	1351.442
-7.560	37.611	1534.628	1350.644
-6.546	37.739	1533.813	1350.761
-5.531	37.552	1533.172	1348.843
-4.517	37.563	1531.978	1347.820
-3.502	37.586	1531.195	1347.236
-2.487	37.554	1529.800	1345.735
-1.473	37.497	1529.038	1344.614
-0.458	37.488	1527.682	1343.308
0.556	35.134	1517.227	1332.525
1.571	32.329	1489.303	1288.697
2.586	28.405	1423.757	1206.109
3.600	26.423	1336.981	1120.235
4.615	24.768	1289.096	1070.124
5.629	20.647	1230.415	997.735
6.644	9.825	1137.867	864.899
7.659	1.158	1091.276	784.704
8.673	-0.264	1085.346	773.051
9.688	-0.382	1082.148	770.098
10.702	-0.409	1080.042	768.392
11.717	-0.465	1078.574	766.993
12.731	2.657	1082.609	785.813
13.746	12.063	1096.527	844.499
14.761	17.272	1102.470	875.911
15.775	16.061	1099.254	867.053
16.790	15.249	1097.856	861.698
17.804	15.017	1096.461	859.340
18.819	14.616	1095.897	856.762
19.834	14.693	1095.146	856.492
20.848	14.606	1094.558	855.513
21.863	14.701	1093.401	855.017
22.877	14.497	1093.541	854.007
23.892	14.502	1092.562	853.195
24.907	14.422	1091.492	851.874
25.921	14.441	1091.535	851.931
26.936	14.497	1090.304	851.181
27.950	14.444	1089.002	849.818
28.965	14.629	1087.541	849.542
29.980	14.414	1086.083	847.236
30.994	14.312	1084.740	845.597
32.009	14.482	1083.273	845.241
33.023	14.621	1082.260	845.076
34.038	14.306	1081.673	842.951
35.053	14.469	1080.284	842.618
36.067	14.571	1079.378	842.351
37.082	14.602	1078.739	841.934
38.096	14.679	1077.716	841.447
39.111	14.619	1077.004	840.515
40.126	14.643	1076.523	840.189
41.140	14.724	1074.418	838.879
42.155	14.498	1073.697	837.107
43.169	14.515	1072.425	836.123
44.184	14.462	1070.934	834.625
45.199	14.447	1070.067	833.797
46.213	14.503	1068.631	832.887
47.228	14.304	1067.709	831.101
48.242	14.378	1066.387	830.368
49.257	14.297	1065.361	829.093
50.271	14.361	1064.194	828.430
51.286	14.427	1063.603	828.224
52.301	14.447	1062.495	827.385
53.315	14.430	1061.671	826.586
54.330	14.566	1060.666	826.404
55.344	14.458	1060.141	825.388
56.359	14.495	1058.472	824.199
57.374	14.591	1058.036	824.259
58.388	14.456	1056.898	822.635
59.403	14.328	1056.012	821.243
60.417	14.435	1055.442	821.252
61.432	14.349	1054.101	819.713
62.447	14.449	1053.207	819.435
63.461	14.469	1052.733	819.093
64.476	14.533	1051.775	818.589
65.490	14.478	1050.705	817.418
66.505	14.420	1050.109	816.597
67.520	14.476	1048.696	815.698
68.534	14.521	1048.066	815.354
69.549	14.513	1047.167	814.549
70.563	14.237	1046.236	812.402
71.578	14.211	1045.534	811.659
72.593	14.397	1044.313	811.544
73.607	14.389	1043.249	810.607
74.622	14.352	1042.207	809.547
75.636	14.467	1041.902	809.795
76.651	14.443	1040.665	808.647
77.666	14.354	1039.978	807.609
78.680	14.329	1038.936	806.611
79.695	14.290	1038.598	806.088
80.709	14.460	1037.715	806.151
81.724	14.550	1036.808	805.812
82.739	14.406	1036.186	804.561
83.753	14.360	1035.146	803.458
84.768	14.525	1034.188	803.441
85.782	14.687	1033.485	803.605
86.797	14.560	1032.644	802.267
87.812	14.425	1031.845	800.925
88.826	14.418	1030.730	799.958
89.841	14.418	1029.488	798.922
90.855	14.513	1028.791	798.765
91.870	14.687	1027.641	798.633
92.884	14.538	1026.932	797.299
93.899	14.435	1026.075	796.074
94.914	14.498	1024.965	795.441
95.928	14.574	1024.210	795.148
96.943	14.538	1023.404	794.282
97.957	14.400	1022.227	792.638
98.972	14.237	1021.460	791.198
99.987	14.232	1020.146	790.088
101.001	14.147	1019.849	789.383
102.016	14.372	1018.549	789.377
103.030	14.423	1017.838	788.998
104.045	14.348	1016.583	787.598
105.060	14.225	1014.872	785.626
106.074	14.239	1013.517	784.570
107.089	14.062	1013.481	783.641
108.103	14.404	1012.825	784.674
109.118	14.516	1011.919	784.427
110.133	14.413	1010.772	782.988
111.147	14.534	1009.289	782.337
112.162	14.438	1008.415	781.138
113.176	14.297	1007.645	779.814
114.191	14.436	1006.603	779.590
115.206	14.569	1005.322	779.150
116.220	14.249	1004.266	776.768
117.235	14.159	1003.266	775.505
118.249	14.309	1002.671	775.678
119.264	14.330	1001.611	774.888
120.279	14.290	1000.989	774.149
121.293	14.364	999.954	773.624
122.308	14.368	999.486	773.211
123.322	14.382	998.087	772.129
124.337	14.466	997.222	771.779
125.352	14.414	995.731	770.316
126.366	14.135	993.896	767.541
127.381	13.851	992.721	765.258
128.395	14.180	991.726	765.936
129.410	14.368	991.431	766.505
130.424	14.549	989.999	766.164
131.439	14.570	988.808	765.268
132.454	14.513	987.938	764.266
133.468	14.422	986.915	762.990
134.483	14.455	986.214	762.531
135.497	14.514	985.594	762.255
136.512	14.736	984.723	762.528
137.527	14.675	983.864	761.516
138.541	14.685	982.955	760.795
139.556	14.732	982.169	760.331
140.570	14.665	981.420	759.378
141.585	14.488	980.494	757.792
142.600	14.506	979.595	757.109
143.614	14.504	978.606	756.268
144.629	14.535	977.898	755.796
145.643	14.713	977.021	755.856
146.658	14.553	976.466	754.636
147.673	14.637	974.848	753.698
148.687	14.513	974.224	752.594
149.702	14.564	973.279	752.025
150.716	14.515	971.868	750.649
151.731	14.530	971.085	750.045
152.746	14.634	969.971	749.583
153.760	14.715	969.876	749.806
154.775	14.830	968.650	749.309
155.789	14.894	968.125	749.123
156.804	14.536	967.733	747.150
157.819	14.681	966.080	746.458
158.833	14.716	964.975	745.695
159.848	14.656	964.927	745.323
160.862	14.756	963.820	744.849
161.877	14.583	963.068	743.427
162.892	14.572	962.319	742.735
163.906	14.672	961.387	742.397
164.921	14.827	960.396	742.252
165.935	14.687	958.727	740.275
166.950	14.771	958.242	740.208
167.964	14.828	956.953	739.400
168.979	14.820	955.975	738.542
169.994	14.771	954.874	737.411
171.008	14.488	954.116	735.515
172.023	14.599	953.291	735.303
173.037	14.687	952.487	735.004
174.052	14.394	951.456	732.856
175.067	14.384	949.909	731.555
176.081	14.379	949.596	731.225
177.096	14.616	948.806	731.593
178.110	14.684	947.854	731.092
179.125	14.634	947.088	730.217
180.140	14.402	946.149	728.414
181.154	14.478	945.062	727.845
182.169	14.479	944.735	727.531
183.183	14.504	944.028	727.035
184.198	14.622	943.165	726.820
185.213	14.885	942.259	727.198
186.227	14.726	941.474	725.839
187.242	14.779	940.972	725.617
188.256	14.900	940.027	725.352
189.271	14.741	939.314	724.046
190.286	14.664	938.576	723.081
191.300	14.689	937.858	722.573
192.315	14.525	936.520	720.768
193.329	14.250	935.397	718.651
194.344	13.959	934.751	716.838
195.359	14.249	934.768	718.039
196.373	14.549	934.394	718.980
197.388	14.650	933.764	718.867
198.402	14.598	932.598	717.681
199.417	14.428	932.474	716.791
200.432	14.503	931.422	716.242
201.446	14.386	930.426	714.911
202.461	14.182	930.368	713.928
203.475	14.263	929.154	713.279
204.490	13.906	928.417	711.122
205.504	13.484	927.205	708.326
206.519	13.828	926.460	709.163
207.534	14.311	926.430	711.140
208.548	14.403	925.717	710.924
209.563	14.560	925.615	711.455
210.577	14.705	924.546	711.185
211.592	14.496	923.965	709.784
212.607	14.638	923.435	709.922
213.621	14.592	922.667	709.070
214.636	14.740	922.058	709.167
215.650	14.746	921.286	708.537
216.665	14.750	920.469	707.864
217.680	14.770	920.196	707.676
218.694	14.839	919.650	707.484
219.709	14.589	918.297	705.325
220.723	14.510	917.475	704.300
221.738	14.611	917.260	704.499
222.753	14.847	916.064	704.513
223.767	14.685	915.886	703.628
224.782	14.911	914.468	703.430
225.796	14.851	913.719	702.537
226.811	14.881	912.971	702.028
227.826	14.738	911.573	700.288
228.840	14.285	911.020	697.906
229.855	14.121	910.732	696.936
230.869	14.480	909.908	697.747
231.884	14.268	909.186	696.243
232.899	14.197	908.589	695.426
233.913	14.666	908.260	697.074
234.928	14.775	907.591	696.954
235.942	14.965	906.730	697.021
236.957	14.904	905.970	696.123
237.972	14.893	905.079	695.332
238.986	14.688	904.679	694.111
240.001	14.806	903.791	693.858
241.015	14.941	903.058	693.794
242.030	14.818	902.204	692.564
243.045	15.048	901.783	693.134
244.059	14.958	901.209	692.259
245.074	15.153	900.347	692.343
246.088	15.147	899.655	691.722
247.103	14.697	898.638	689.022
248.117	14.654	897.505	687.917
249.132	14.955	897.144	688.820
250.147	14.959	896.837	688.541
251.161	14.920	895.833	687.547
252.176	15.091	895.147	687.663
253.190	15.140	894.418	687.243
254.205	15.178	893.467	686.608
255.220	15.340	892.996	686.848
256.234	15.415	891.765	686.147
257.249	15.229	892.044	685.540
258.263	15.089	891.267	684.307
259.278	15.276	890.202	684.193
260.293	15.355	889.616	684.006
261.307	15.285	889.345	683.449
262.322	15.162	888.390	682.154
263.336	15.103	887.413	681.105
264.351	14.889	885.964	679.066
265.366	14.338	884.691	675.792
266.380	13.980	883.719	673.541
267.395	14.441	883.844	675.445
268.409	14.748	883.953	676.712
269.424	14.938	883.020	676.708
270.439	15.098	882.178	676.646
271.453	15.264	881.157	676.476
272.468	15.304	880.891	676.371
273.482	15.380	880.068	675.985
274.497	15.431	879.556	675.740
275.512	15.409	877.975	674.375
276.526	15.057	876.709	671.929
277.541	15.018	876.602	671.632
278.555	15.199	876.173	671.971
279.570	14.943	875.224	670.158
280.585	14.872	874.136	668.980
281.599	15.040	874.054	669.534
282.614	15.165	873.240	669.349
283.628	15.038	872.764	668.416
284.643	14.769	871.881	666.609
285.657	15.089	871.709	667.694
286.672	15.055	870.829	666.824
287.687	14.695	869.367	664.216
288.701	14.810	869.550	664.755
289.716	14.949	869.123	664.920
290.730	14.754	868.268	663.434
291.745	14.744	867.463	662.719
292.760	14.696	866.043	661.388
293.774	14.675	865.592	660.903
294.789	15.110	865.873	662.781
295.803	15.542	865.244	663.948
296.818	15.603	864.442	663.514
297.833	15.705	864.391	663.817
298.847	15.665	863.006	662.540
299.862	15.347	862.517	660.853
300.876	15.540	861.793	661.000
301.891	15.489	861.142	660.240
302.906	15.530	859.968	659.441
303.920	15.261	859.206	657.742
304.935	15.094	858.568	656.542
305.949	15.401	858.104	657.334
306.964	15.460	857.565	657.093
307.979	15.422	857.348	656.721
308.993	15.457	856.933	656.480
310.008	15.776	856.050	656.990
311.022	15.765	855.523	656.486
312.037	15.675	855.063	655.724
313.052	15.571	854.357	654.721
314.066	15.534	853.715	654.026
315.081	15.211	852.484	651.768
316.095	14.978	851.006	649.678
317.110	15.169	851.444	650.696
318.125	15.605	851.318	652.236
319.139	15.380	850.343	650.558
320.154	14.948	849.389	648.098
321.168	14.733	848.691	646.675
322.183	14.961	848.721	647.524
323.197	15.370	848.507	648.886
324.212	15.706	847.849	649.622
325.227	15.753	847.423	649.420
326.241	15.852	847.108	649.502
327.256	15.810	846.506	648.821
328.270	15.843	845.778	648.333
329.285	15.720	845.240	647.391
330.300	15.701	844.473	646.670
331.314	15.532	843.657	645.343
332.329	15.724	842.826	645.384
333.343	15.770	842.526	645.272
334.358	15.806	841.961	644.923
335.373	15.818	841.690	644.705
336.387	15.842	840.963	644.183
337.402	15.928	839.912	643.647
338.416	15.994	839.372	643.429
339.431	15.872	838.879	642.530
340.446	15.801	837.808	641.383
341.460	15.985	837.461	641.759
342.475	15.825	837.024	640.759
343.489	15.853	835.833	639.897
344.504	15.749	835.261	639.007
345.519	15.881	835.205	639.410
346.533	16.012	834.739	639.492
347.548	16.057	834.525	639.445
348.562	16.013	834.208	638.979
349.577	15.963	833.861	638.464
350.592	16.020	833.530	638.372
351.606	16.111	832.567	637.921
352.621	16.196	832.058	637.797
353.635	16.131	831.813	637.307
354.650	16.188	831.017	636.857
355.665	15.936	830.099	635.145
356.679	15.437	829.084	632.432
357.694	15.442	828.338	631.826
358.708	15.593	828.025	632.100
359.723	15.564	827.475	631.515
360.738	15.844	827.152	632.264
361.752	16.166	827.006	633.308
362.767	16.271	826.427	633.200
363.781	16.350	826.102	633.191
364.796	16.255	825.793	632.543
365.810	16.473	824.893	632.613
366.825	16.326	824.830	631.960
367.840	16.393	824.424	631.842
368.854	16.229	823.706	630.626
369.869	15.976	823.222	629.254
370.883	16.120	822.442	629.138
371.898	16.166	821.792	628.756
372.913	16.099	820.901	627.769
373.927	15.879	820.200	626.359
374.942	16.145	819.929	627.086
375.956	16.290	819.493	627.238
376.971	16.375	818.901	627.045
377.986	16.193	818.081	625.683
379.000	16.310	818.022	626.018
380.015	16.460	817.168	625.866
381.029	16.319	816.837	625.034
382.044	16.238	816.160	624.160
383.059	16.323	815.424	623.857
384.073	16.169	814.902	622.833
385.088	16.332	814.325	622.939
386.102	16.603	814.152	623.752
387.117	16.524	813.647	623.019
388.132	16.431	813.325	622.374
389.146	16.410	812.234	621.407
390.161	16.156	811.484	619.845
391.175	16.013	811.044	618.928
392.190	16.014	810.619	618.552
393.205	16.204	810.431	619.054
394.219	15.978	809.317	617.318
395.234	15.444	808.291	614.525
396.248	15.303	807.538	613.386
397.263	15.637	807.537	614.549
398.278	16.196	807.780	616.724
399.292	16.633	807.786	618.272
400.307	16.528	807.421	617.554
401.321	16.614	806.952	617.453
402.336	16.533	806.655	616.876
403.350	16.571	806.008	616.466
404.365	16.715	805.690	616.695
405.380	16.551	805.486	615.885
406.394	16.618	804.725	615.493
407.409	16.866	803.982	615.772
408.423	16.640	803.714	614.691
409.438	16.597	803.088	614.000
410.453	16.676	802.608	613.868
411.467	16.804	802.466	614.169
412.482	16.890	801.936	614.019
413.496	16.970	801.714	614.083
414.511	16.941	801.100	613.453
415.526	16.983	800.462	613.065
416.540	16.872	800.244	612.440
417.555	16.924	799.341	611.884
418.569	16.609	798.688	610.195
419.584	16.537	798.162	609.478
420.599	16.744	797.549	609.701
421.613	150.580	1355.933	1779.766
422.628	130.539	1437.306	1779.860
