DTS Sentinel unit serial number:	SN413079Multiplexer serial number:	ORYXHardware model number:	OX4-SRSoftware version number:	ORYX F/W v4.00 Oryx Data Collector v3.7.2.0data status	okinstallation	princeton_trtdifferential loss correction	single-endedforward channel	channel 3reverse channel	N/Adate	2019/09/11time	21:06:11forward acquisition time	60.00reverse acquisition time	0.00gamma	496.2192k internal	0.2308k external	0.2308temperature offset calibration	1.0033default loss term (dB/km)	0.3790temperature slope calibration	1.0000multiplexer offset coefficient	1.0000multiplexer slope coefficient	1.0000fibre end	0.00T internal ref (°C)	36.55T ext. ref 1 (°C)	1.56T ext. ref 2 (°C)	30.67length (m)	temperature (°C)	Stokes	anti-Stokes-747.200	85.225	-0.136	0.152
-746.185	88.780	0.085	-0.096
-745.171	-38.532	-0.110	0.059
-744.156	-121.747	-0.188	-0.032
-743.142	-146.616	-0.305	0.027
-742.127	159.638	0.091	0.129
-741.112	-200.000	-0.141	-0.001
-740.098	-200.000	-0.009	0.296
-739.083	-131.399	-0.157	-0.021
-738.069	-200.000	-0.004	0.209
-737.054	33.667	0.170	0.150
-736.039	-45.211	-0.250	0.126
-735.025	-200.000	0.003	0.279
-734.010	11.334	-0.328	-0.255
-732.996	-110.130	-0.534	-0.113
-731.981	157.000	0.123	-0.172
-730.966	-141.370	-0.470	0.048
-729.952	78.991	-0.245	0.267
-728.937	-200.000	0.005	-0.598
-727.923	-60.405	-0.113	-0.049
-726.908	-28.729	-0.313	-0.183
-725.894	630.732	0.067	-0.172
-724.879	-64.649	-0.321	-0.132
-723.864	356.267	0.088	-0.177
-722.850	-78.883	0.385	-0.133
-721.835	-102.907	0.121	-0.029
-720.821	800.000	0.031	0.127
-719.806	-200.000	-0.035	0.159
-718.791	-33.564	0.198	0.111
-717.777	80.375	0.146	-0.159
-716.762	-200.000	-0.034	-0.199
-715.748	710.770	-0.081	-0.218
-714.733	-40.958	-0.194	0.102
-713.718	800.000	-0.018	-0.054
-712.704	-200.000	-0.055	-0.279
-711.689	61.572	0.184	-0.186
-710.675	-132.382	-0.243	-0.032
-709.660	-200.000	-0.019	-0.099
-708.645	-110.603	0.182	-0.038
-707.631	-200.000	-0.016	0.123
-706.616	800.000	0.048	0.192
-705.602	-200.000	0.016	0.214
-704.587	800.000	0.085	-0.302
-703.572	24.148	-0.378	0.317
-702.558	-171.383	-0.146	0.005
-701.543	-51.144	0.236	0.112
-700.529	35.766	-0.166	0.149
-699.514	384.622	0.249	0.521
-698.499	800.000	-0.043	-0.162
-697.485	-104.704	-0.504	-0.118
-696.470	-20.237	-0.130	0.081
-695.456	34.170	-0.207	0.183
-694.441	149.784	0.120	0.165
-693.426	115.919	0.044	0.055
-692.412	-200.000	0.016	0.108
-691.397	19.116	-0.212	-0.173
-690.383	-59.864	0.150	0.065
-689.368	127.113	-0.107	-0.137
-688.354	-188.959	-0.115	-0.001
-687.339	-116.898	0.049	-0.009
-686.324	-200.000	-0.011	-0.279
-685.310	800.000	0.102	-0.312
-684.295	60.890	-0.219	-0.221
-683.281	-124.960	-0.321	0.050
-682.266	-12.369	-0.273	-0.181
-681.251	-200.000	0.001	0.037
-680.237	-3.216	-0.180	-0.127
-679.222	327.966	0.103	0.201
-678.208	-19.659	-0.246	-0.154
-677.193	-200.000	0.024	-0.297
-676.178	-178.825	0.228	0.005
-675.164	-15.523	-0.109	-0.070
-674.149	428.334	-0.115	-0.252
-673.135	-127.058	-0.097	-0.014
-672.120	88.902	0.167	-0.188
-671.105	68.518	-0.095	0.099
-670.091	-200.000	-0.001	-0.138
-669.076	-5.398	0.127	0.088
-668.062	28.268	-0.087	-0.074
-667.047	-200.000	-0.031	0.230
-666.032	-200.000	0.048	0.355
-665.018	-200.000	-0.020	0.090
-664.003	-200.000	0.009	-0.120
-662.989	358.852	-0.167	-0.339
-661.974	-99.473	-0.425	-0.108
-660.959	262.026	-0.020	0.035
-659.945	-42.922	-0.105	0.054
-658.930	-47.428	-0.307	-0.151
-657.916	-96.240	-0.219	0.059
-656.901	-104.123	0.209	-0.049
-655.886	-146.896	-0.215	-0.019
-654.872	-189.600	0.084	-0.001
-653.857	177.330	0.041	-0.060
-652.843	36.001	0.129	0.115
-651.828	-62.318	-0.049	-0.021
-650.814	-76.808	-0.263	-0.093
-649.799	800.000	-0.017	-0.070
-648.784	-53.091	0.092	-0.043
-647.770	5.261	-0.273	0.204
-646.755	137.968	0.044	0.058
-645.741	5.349	0.048	0.036
-644.726	12.595	-0.301	0.235
-643.711	-119.850	0.246	0.043
-642.697	-82.628	-0.206	0.068
-641.682	-79.893	-0.422	-0.144
-640.668	117.762	-0.151	-0.188
-639.653	-200.000	0.010	0.061
-638.638	800.000	0.030	-0.118
-637.624	116.648	-0.175	0.218
-636.609	21.191	0.323	-0.265
-635.595	800.000	-0.046	-0.137
-634.580	-158.881	-0.369	0.021
-633.565	-65.930	0.158	0.064
-632.551	265.035	0.131	0.231
-631.536	287.789	0.105	0.192
-630.522	325.115	0.064	-0.124
-629.507	-90.237	0.085	0.025
-628.492	-18.067	0.195	0.124
-627.478	9.933	-0.229	0.176
-626.463	-200.000	0.004	0.072
-625.449	182.434	0.100	0.149
-624.434	187.907	0.099	0.149
-623.419	800.000	0.010	-0.034
-622.405	-200.000	-0.061	-0.272
-621.390	-91.746	-0.158	-0.045
-620.376	-83.086	0.128	0.042
-619.361	-86.265	0.423	0.132
-618.346	-137.530	0.175	0.020
-617.332	-200.000	-0.036	0.186
-616.317	173.290	-0.214	0.312
-615.303	-200.000	0.061	0.485
-614.288	-8.705	0.055	0.037
-613.273	301.514	0.239	0.447
-612.259	-200.000	0.068	-0.514
-611.244	-200.000	-0.097	0.508
-610.230	-15.932	0.244	-0.157
-609.215	190.852	0.090	0.137
-608.201	-171.023	0.171	-0.006
-607.186	-200.000	-0.024	0.228
-606.171	-85.649	0.160	-0.050
-605.157	-152.550	-0.477	-0.034
-604.142	-177.941	-0.211	0.005
-603.128	150.134	-0.074	-0.102
-602.113	800.000	-0.069	-0.247
-601.098	-200.000	-0.021	-0.113
-600.084	550.890	-0.060	-0.146
-599.069	344.792	-0.033	0.065
-598.055	-200.000	0.008	-0.089
-597.040	125.619	-0.034	-0.043
-596.025	-129.989	-0.136	-0.019
-595.011	21.178	-0.109	0.089
-593.996	-144.613	-0.422	-0.039
-592.982	-137.224	-0.037	0.004
-591.967	800.000	-0.026	0.074
-590.952	569.882	0.093	0.229
-589.938	-14.879	0.311	0.202
-588.923	-55.144	-0.104	-0.047
-587.909	-200.000	-0.019	-0.174
-586.894	6.149	0.150	-0.112
-585.879	288.911	-0.042	-0.077
-584.865	-200.000	0.017	0.111
-583.850	800.000	-0.086	-0.272
-582.836	239.900	-0.071	0.119
-581.821	17.189	-0.144	0.115
-580.806	-200.000	-0.001	-0.311
-579.792	800.000	0.059	-0.169
-578.777	218.782	-0.095	-0.153
-577.763	4.202	0.115	-0.085
-576.748	800.000	0.043	-0.128
-575.733	58.070	0.308	-0.305
-574.719	24.718	-0.161	0.135
-573.704	49.286	0.057	0.054
-572.690	-200.000	0.009	0.045
-571.675	800.000	-0.047	0.194
-570.661	97.404	0.175	0.202
-569.646	-200.000	-0.040	0.458
-568.631	398.097	0.053	-0.113
-567.617	183.664	0.068	-0.102
-566.602	-17.294	-0.259	-0.165
-565.588	310.711	-0.081	-0.153
-564.573	-126.157	0.224	0.034
-563.558	-200.000	-0.006	-0.106
-562.544	-198.502	0.090	0.001
-561.529	446.906	0.082	-0.182
-560.515	12.760	-0.168	0.131
-559.500	8.064	0.029	-0.022
-558.485	73.529	-0.258	0.273
-557.471	53.073	-0.104	0.100
-556.456	-74.283	-0.176	0.064
-555.442	-83.536	0.090	-0.029
-554.427	-200.000	-0.003	-0.168
-553.412	800.000	0.027	-0.118
-552.398	-133.065	-0.324	0.041
-551.383	800.000	0.070	0.204
-550.369	-99.479	-0.156	0.040
-549.354	800.000	0.142	-0.471
-548.339	-36.350	-0.441	-0.240
-547.325	308.887	0.040	-0.075
-546.310	-200.000	0.012	-0.307
-545.296	-200.000	-0.084	-0.564
-544.281	800.000	-0.089	-0.271
-543.266	-92.513	-0.191	-0.054
-542.252	-200.000	-0.017	-0.189
-541.237	-200.000	-0.003	0.504
-540.223	800.000	0.076	-0.266
-539.208	-115.595	0.225	0.043
-538.193	-180.862	-0.207	0.004
-537.179	-112.245	0.234	0.047
-536.164	30.862	-0.138	0.119
-535.150	478.920	0.030	0.069
-534.135	-23.316	-0.293	0.178
-533.121	298.354	0.037	-0.068
-532.106	-200.000	-0.046	0.423
-531.091	-30.680	-0.273	-0.156
-530.077	-22.116	-0.075	-0.046
-529.062	13.977	-0.233	-0.183
-528.048	800.000	-0.069	-0.207
-527.033	331.846	-0.094	0.183
-526.018	-200.000	-0.022	0.271
-525.004	-40.691	-0.152	-0.080
-523.989	-70.447	-0.180	-0.069
-522.975	327.992	-0.103	-0.200
-521.960	800.000	-0.072	-0.272
-520.945	-200.000	-0.033	-0.154
-519.931	-200.000	-0.004	-0.177
-518.916	-200.000	0.044	-0.301
-517.902	-87.445	-0.138	-0.042
-516.887	-84.497	-0.102	-0.032
-515.872	-12.535	-0.246	0.162
-514.858	-79.597	-0.185	0.063
-513.843	-83.967	0.349	-0.112
-512.829	407.927	0.042	0.089
-511.814	-59.930	0.222	-0.096
-510.799	5.427	-0.141	0.105
-509.785	800.000	-0.106	0.322
-508.770	-200.000	0.012	0.085
-507.756	40.876	-0.161	-0.146
-506.741	-148.073	0.156	-0.013
-505.726	20.515	0.254	-0.207
-504.712	238.015	-0.051	-0.085
-503.697	-200.000	0.000	0.082
-502.683	-113.191	-0.385	0.076
-501.668	-200.000	-0.015	-0.170
-500.653	155.191	-0.231	-0.320
-499.639	-175.774	-0.146	-0.004
-498.624	-200.000	-0.024	0.139
-497.610	218.814	0.163	0.262
-496.595	253.120	0.035	-0.060
-495.581	-121.242	-0.162	0.027
-494.566	-46.071	0.202	-0.100
-493.551	800.000	-0.055	-0.180
-492.537	-167.991	-0.126	0.005
-491.522	79.171	-0.155	0.167
-490.508	25.062	-0.136	-0.114
-489.493	160.717	0.170	-0.240
-488.478	384.294	-0.121	0.252
-487.464	-65.272	-0.212	-0.086
-486.449	-8.036	0.189	0.128
-485.435	70.518	-0.084	0.087
-484.420	-78.465	0.199	-0.069
-483.405	800.000	-0.155	0.431
-482.391	347.972	0.091	-0.180
-481.376	29.194	-0.102	-0.087
-480.362	-200.000	0.040	-0.305
-479.347	-114.633	0.222	-0.043
-478.332	256.337	-0.115	0.199
-477.318	-151.710	0.283	-0.021
-476.303	-84.596	0.272	0.086
-475.289	-104.688	-0.371	0.086
-474.274	120.411	-0.106	0.132
-473.259	654.092	0.036	0.092
-472.245	-70.967	-0.187	-0.071
-471.230	274.015	0.021	0.038
-470.216	-162.060	-0.315	-0.016
-469.201	14.087	-0.248	0.194
-468.186	-200.000	0.005	0.195
-467.172	-55.233	0.242	-0.109
-466.157	35.973	-0.083	-0.074
-465.143	800.000	0.128	-0.403
-464.128	-107.421	-0.103	-0.023
-463.113	198.749	0.057	0.088
-462.099	-138.868	-0.429	0.047
-461.084	7.413	0.243	-0.183
-460.070	-95.680	-0.314	-0.084
-459.055	800.000	0.061	-0.191
-458.040	-38.758	-0.174	-0.092
-457.026	-67.440	0.460	-0.182
-456.011	-200.000	0.008	0.109
-454.997	77.427	0.094	0.100
-453.982	-200.000	-0.029	0.148
-452.968	192.366	-0.143	0.218
-451.953	211.533	-0.139	-0.220
-450.938	727.747	0.107	0.286
-449.924	-3.577	0.054	0.038
-448.909	-31.407	0.098	0.055
-447.895	800.000	0.036	0.107
-446.880	-67.160	0.331	0.131
-445.865	33.848	-0.204	-0.178
-444.851	-200.000	-0.041	0.221
-443.836	444.041	-0.077	-0.169
-442.822	-73.454	-0.419	-0.154
-441.807	46.658	-0.240	0.224
-440.792	61.301	0.189	-0.189
-439.778	-132.341	-0.284	0.037
-438.763	21.803	-0.342	-0.280
-437.749	-14.832	0.188	0.121
-436.734	-135.470	0.205	0.025
-435.719	178.810	-0.091	-0.134
-434.705	19.270	0.139	-0.112
-433.690	44.610	0.215	-0.199
-432.676	-200.000	0.023	-0.138
-431.661	-72.779	-0.183	0.068
-430.646	303.320	-0.181	-0.337
-429.632	-46.751	-0.426	0.209
-428.617	191.465	-0.221	0.334
-427.603	-200.000	0.048	-0.347
-426.588	83.099	0.312	-0.341
-425.573	138.467	0.157	0.207
-424.559	800.000	-0.137	0.386
-423.544	-200.000	0.027	-0.160
-422.530	-32.232	-0.121	0.068
-421.515	-8.020	-0.111	0.075
-420.500	-135.950	0.129	-0.015
-419.486	-50.105	-0.389	-0.185
-418.471	187.389	0.050	0.075
-417.457	-200.000	0.001	0.051
-416.442	283.359	0.091	0.164
-415.428	-105.281	-0.148	-0.034
-414.413	-126.282	0.303	-0.045
-413.398	265.970	-0.140	-0.244
-412.384	-142.598	-0.328	-0.032
-411.369	-35.105	0.219	-0.120
-410.355	-81.882	0.102	0.034
-409.340	-200.000	0.011	0.446
-408.325	147.801	0.070	0.094
-407.311	-186.318	0.250	0.004
-406.296	-62.772	-0.128	0.053
-405.282	212.038	0.082	-0.130
-404.267	800.000	-0.045	-0.136
-403.252	-200.000	-0.012	-0.081
-402.238	-200.000	-0.004	0.176
-401.223	155.554	0.007	-0.009
-400.209	-109.471	-0.454	0.096
-399.194	406.849	-0.049	0.104
-398.179	-81.211	0.141	-0.047
-397.165	478.418	-0.063	0.143
-396.150	-200.000	0.075	0.369
-395.136	-200.000	-0.010	-0.146
-394.121	388.785	-0.193	0.401
-393.106	22.287	-0.121	-0.099
-392.092	362.857	0.102	-0.205
-391.077	-71.306	0.261	0.098
-390.063	800.000	0.108	-0.388
-389.048	-108.293	0.326	-0.071
-388.033	800.000	-0.075	-0.226
-387.019	-200.000	-0.037	-0.295
-386.004	149.354	-0.070	-0.095
-384.990	-30.279	0.147	-0.084
-383.975	131.946	-0.110	0.142
-382.960	-200.000	-0.010	0.129
-381.946	33.497	0.266	0.232
-380.931	176.074	0.089	0.130
-379.917	-200.000	0.035	-0.156
-378.902	-200.000	-0.000	-0.242
-377.888	-200.000	-0.031	-0.262
-376.873	42.512	0.111	-0.102
-375.858	567.083	-0.207	-0.504
-374.844	57.550	-0.104	-0.102
-373.829	253.242	-0.077	-0.132
-372.815	164.858	0.144	0.204
-371.800	59.777	0.176	0.174
-370.785	800.000	0.029	0.089
-369.771	216.332	-0.054	-0.086
-368.756	78.841	-0.176	0.188
-367.742	-56.809	0.190	0.084
-366.727	131.188	-0.269	0.346
-365.712	358.870	0.031	0.061
-364.698	674.098	0.114	0.296
-363.683	-200.000	-0.033	-0.359
-362.669	-97.714	0.188	-0.049
-361.654	-62.616	0.205	0.085
-360.639	7.723	0.191	-0.143
-359.625	426.668	-0.098	-0.212
-358.610	-33.984	0.345	-0.190
-357.596	238.158	0.122	-0.203
-356.581	120.735	0.178	0.221
-355.566	-200.000	-0.009	-0.164
-354.552	251.889	-0.055	0.093
-353.537	-129.482	0.343	-0.048
-352.523	209.818	0.120	0.188
-351.508	-36.550	0.246	0.133
-350.493	-164.547	-0.164	0.007
-349.479	-164.751	0.245	0.011
-348.464	-65.586	0.239	-0.096
-347.450	-39.747	0.326	-0.171
-346.435	-163.020	0.247	-0.012
-345.420	-147.132	-0.270	0.023
-344.406	-200.000	-0.018	-0.288
-343.391	-200.000	0.039	-0.205
-342.377	-200.000	-0.001	-0.078
-341.362	149.193	0.067	-0.091
-340.348	687.012	0.149	0.389
-339.333	-15.775	0.213	0.136
-338.318	-156.727	-0.075	0.005
-337.304	-48.313	-0.158	0.076
-336.289	-28.838	0.332	-0.191
-335.275	-134.252	-0.317	-0.039
-334.260	215.541	-0.065	-0.103
-333.245	522.693	0.095	-0.223
-332.231	384.695	0.102	0.211
-331.216	-100.329	0.215	-0.053
-330.202	-200.000	0.032	0.294
-329.187	277.455	-0.113	0.201
-328.172	417.252	-0.069	0.147
-327.158	56.899	-0.215	0.210
-326.143	5.808	0.188	-0.139
-325.129	30.598	0.065	0.055
-324.114	120.909	-0.038	-0.047
-323.099	-52.901	0.207	-0.095
-322.085	-181.695	0.288	0.006
-321.070	-200.000	-0.008	-0.115
-320.056	800.000	0.086	-0.372
-319.041	-110.742	-0.111	0.023
-318.026	417.769	-0.092	0.196
-317.012	-107.643	0.032	-0.007
-315.997	-200.000	-0.001	0.094
-314.983	197.286	0.103	-0.157
-313.968	342.383	-0.151	-0.295
-312.953	154.439	0.085	-0.117
-311.939	800.000	-0.047	-0.155
-310.924	37.533	-0.081	0.072
-309.910	164.938	0.148	0.209
-308.895	-154.123	-0.299	-0.020
-307.880	-200.000	-0.052	0.228
-306.866	10.837	-0.098	0.075
-305.851	70.621	0.190	0.197
-304.837	-118.825	0.203	-0.036
-303.822	-170.377	-0.032	-0.001
-302.807	-200.000	-0.006	0.307
-301.793	800.000	0.087	0.326
-300.778	-200.000	0.047	0.211
-299.764	-110.201	-0.099	0.021
-298.749	153.998	-0.070	-0.096
-297.735	-4.552	0.142	0.098
-296.720	-200.000	0.042	0.269
-295.705	231.512	0.068	0.111
-294.691	71.944	-0.098	0.102
-293.676	-14.172	-0.128	0.082
-292.662	-5.736	-0.127	0.087
-291.647	1.396	0.183	-0.131
-290.632	126.976	-0.113	0.143
-289.618	128.642	0.110	0.139
-288.603	76.747	0.075	-0.079
-287.589	-108.124	-0.286	-0.062
-286.574	-130.184	0.423	0.058
-285.559	-132.302	0.135	-0.017
-284.545	-43.567	-0.203	-0.102
-283.530	118.056	0.063	0.077
-282.516	55.996	0.090	-0.088
-281.501	-103.053	-0.176	0.042
-280.486	800.000	-0.015	0.046
-279.472	493.909	-0.009	-0.021
-278.457	-71.167	0.107	-0.040
-277.443	-200.000	-0.000	0.170
-276.428	-142.024	-0.119	0.012
-275.413	317.136	0.091	-0.171
-274.399	134.668	-0.169	0.219
-273.384	-200.000	-0.000	0.127
-272.370	-200.000	0.003	-0.154
-271.355	-200.000	0.022	-0.127
-270.340	515.439	-0.015	0.034
-269.326	201.031	0.070	-0.107
-268.311	64.477	0.077	0.077
-267.297	41.862	-0.290	0.262
-266.282	-96.819	0.081	-0.021
-265.267	-133.716	-0.071	0.009
-264.253	66.135	-0.059	-0.060
-263.238	-200.000	-0.007	-0.274
-262.224	21.205	0.081	-0.066
-261.209	-42.829	0.170	0.086
-260.195	-64.079	0.100	0.041
-259.180	-200.000	-0.039	0.226
-258.165	-70.649	0.416	0.157
-257.151	130.030	-0.112	0.143
-256.136	197.639	0.208	0.317
-255.122	256.909	0.067	0.115
-254.107	800.000	0.102	0.295
-253.092	-22.114	-0.164	0.099
-252.078	-200.000	0.000	-0.364
-251.063	-200.000	0.013	0.170
-250.049	125.177	0.152	-0.191
-249.034	338.864	-0.081	-0.158
-248.019	4.201	-0.165	0.120
-247.005	-60.147	-0.128	-0.054
-245.990	-98.072	0.208	-0.053
-244.976	51.877	-0.060	0.057
-243.961	311.535	-0.145	-0.271
-242.946	800.000	0.052	0.212
-241.932	316.819	0.042	0.078
-240.917	56.542	0.290	-0.281
-239.903	-22.905	-0.161	0.097
-238.888	20.247	0.113	0.091
-237.873	568.138	-0.088	-0.213
-236.859	6.322	0.156	-0.116
-235.844	96.795	0.134	-0.153
-234.830	800.000	-0.104	0.385
-233.815	-123.419	0.112	0.018
-232.800	800.000	0.065	-0.192
-231.786	3.838	-0.155	0.113
-230.771	-63.975	-0.245	-0.100
-229.757	-38.112	0.151	-0.080
-228.742	-138.781	-0.298	0.032
-227.727	351.271	-0.092	-0.182
-226.713	-47.086	-0.106	-0.052
-225.698	284.044	0.082	-0.147
-224.684	-200.000	0.019	-0.235
-223.669	15.976	0.050	0.039
-222.655	118.317	-0.150	0.184
-221.640	800.000	0.102	-0.363
-220.625	800.000	0.020	0.061
-219.611	243.864	0.080	0.133
-218.596	-21.968	-0.151	0.091
-217.582	-200.000	-0.038	0.240
-216.567	33.427	-0.040	-0.035
-215.552	-200.000	-0.023	0.108
-214.538	244.982	-0.110	0.185
-213.523	-104.580	0.104	-0.024
-212.509	-200.000	0.039	0.414
-211.494	-11.650	-0.088	-0.057
-210.479	-10.625	0.250	-0.165
-209.465	12.120	0.049	-0.038
-208.450	253.693	0.191	0.324
-207.436	224.215	0.203	0.327
-206.421	-135.211	0.103	0.012
-205.406	445.154	0.042	0.091
-204.392	-94.891	0.319	0.086
-203.377	27.418	0.053	-0.044
-202.363	790.143	-0.044	-0.121
-201.348	108.423	0.021	-0.025
-200.333	-14.296	0.143	0.092
-199.319	-200.000	-0.012	-0.306
-198.304	-200.000	-0.039	0.327
-197.290	-76.681	0.184	0.064
-196.275	359.256	-0.136	-0.271
-195.260	800.000	-0.018	-0.060
-194.246	414.720	-0.039	0.082
-193.231	-200.000	-0.019	0.172
-192.217	-64.537	-0.271	-0.110
-191.202	-8.038	-0.191	-0.128
-190.187	6.938	0.158	-0.117
-189.173	396.191	0.068	-0.142
-188.158	41.677	0.270	0.243
-187.144	691.116	-0.032	-0.084
-186.129	-112.846	0.267	0.053
-185.114	-200.000	-0.003	-0.042
-184.100	146.020	0.046	0.061
-183.085	800.000	0.003	-0.010
-182.071	-132.203	-0.269	-0.035
-181.056	-147.294	0.219	-0.018
-180.042	-74.488	0.193	-0.069
-179.027	788.326	0.020	-0.056
-178.012	-122.965	0.148	0.024
-176.998	26.880	-0.224	0.186
-175.983	135.369	-0.062	0.080
-174.969	-81.449	0.189	-0.062
-173.954	-17.741	-0.088	0.055
-172.939	17.134	0.198	0.156
-171.925	59.820	-0.126	0.124
-170.910	-200.000	0.070	-0.331
-169.896	800.000	0.065	-0.184
-168.881	121.514	-0.096	-0.119
-167.866	349.808	-0.081	0.160
-166.852	52.115	-0.236	-0.223
-165.837	-100.702	0.176	0.043
-164.823	-147.962	0.198	-0.016
-163.808	62.778	0.234	-0.232
-162.793	729.160	-0.123	-0.326
-161.779	-200.000	0.026	-0.449
-160.764	-144.950	-0.141	-0.013
-159.750	139.004	0.023	-0.030
-158.735	42.845	0.279	-0.253
-157.720	-191.757	0.172	0.002
-156.706	125.528	-0.036	-0.045
-155.691	-21.592	0.141	-0.086
-154.677	-200.000	-0.060	0.523
-153.662	-200.000	-0.054	0.239
-152.647	-96.037	-0.093	-0.025
-151.633	281.744	-0.124	0.220
-150.618	-122.711	0.041	0.007
-149.604	-115.498	0.332	0.062
-148.589	-43.606	0.110	-0.055
-147.574	602.629	-0.094	0.233
-146.560	-200.000	0.052	-0.286
-145.545	723.657	-0.132	-0.348
-144.531	106.372	0.116	0.137
-143.516	-200.000	-0.029	0.227
-142.502	59.761	0.253	-0.248
-141.487	-113.047	0.129	-0.025
-140.472	-63.418	0.084	-0.034
-139.458	669.869	0.069	0.177
-138.443	147.797	0.041	0.055
-137.429	-200.000	0.001	0.093
-136.414	-200.000	0.003	-0.114
-135.399	382.471	-0.092	0.187
-134.385	-200.000	0.006	0.235
-133.370	-174.569	0.212	-0.006
-132.356	-123.566	-0.242	-0.038
-131.341	-79.561	0.303	-0.102
-130.326	149.814	-0.169	0.228
-129.312	129.586	0.113	0.143
-128.297	-83.873	0.069	0.022
-127.283	-200.000	0.021	-0.112
-126.268	-200.000	-0.011	0.124
-125.253	-82.277	-0.256	-0.083
-124.239	-7.283	0.434	-0.292
-123.224	-186.786	-0.327	-0.005
-122.210	107.428	0.109	-0.129
-121.195	-87.061	0.474	0.143
-120.180	83.851	0.114	0.124
-119.166	-69.414	-0.106	0.040
-118.151	243.607	-0.086	-0.143
-117.137	163.448	0.207	0.289
-116.122	-81.127	-0.174	-0.057
-115.107	-22.156	0.178	-0.107
-114.093	182.673	-0.281	-0.412
-113.078	-60.037	0.138	0.058
-112.064	-200.000	0.021	0.165
-111.049	19.815	0.372	-0.297
-110.034	-37.269	0.306	-0.162
-109.020	-63.187	0.350	0.143
-108.005	-200.000	0.027	0.270
-106.991	156.078	0.076	-0.104
-105.976	-81.191	0.420	-0.138
-104.962	-186.577	-0.109	0.002
-103.947	55.682	-0.147	0.141
-102.932	189.255	0.153	0.227
-101.918	800.000	0.022	0.070
-100.903	63.339	0.133	-0.132
-99.889	258.558	-0.173	-0.295
-98.874	-14.472	-0.074	0.047
-97.859	6.067	0.114	-0.084
-96.845	587.378	0.151	-0.368
-95.830	226.759	0.072	-0.116
-94.816	59.354	-0.079	-0.077
-93.801	-1.102	0.300	0.210
-92.786	125.081	-0.126	0.157
-91.772	-200.000	0.037	-0.311
-90.757	-57.123	0.256	-0.112
-89.743	150.897	-0.034	0.045
-88.728	-130.350	-0.123	-0.017
-87.713	800.000	-0.078	0.276
-86.699	259.305	-0.187	0.319
-85.684	-200.000	0.036	0.482
-84.670	-64.889	-0.116	-0.046
-83.655	43.950	-0.193	-0.175
-82.640	-97.689	0.059	-0.015
-81.626	-118.706	0.124	0.022
-80.611	-31.345	0.156	0.087
-79.597	-200.000	0.002	-0.048
-78.582	129.002	-0.084	0.106
-77.567	-200.000	0.024	0.105
-76.553	54.030	0.275	-0.262
-75.538	92.984	0.168	-0.188
-74.524	6.304	0.326	-0.240
-73.509	-117.844	-0.201	0.036
-72.494	-200.000	-0.032	0.192
-71.480	48.492	-0.139	0.129
-70.465	-145.474	-0.124	-0.011
-69.451	-82.037	-0.378	0.122
-68.436	-77.123	-0.074	-0.026
-67.422	-77.433	-0.233	0.080
-66.407	-200.000	0.068	-0.379
-65.392	-55.011	-0.337	0.150
-64.378	800.000	0.081	0.235
-63.363	-18.135	-0.294	-0.182
-62.349	582.737	-0.085	-0.207
-61.334	240.807	-0.591	-0.975
-60.319	-200.000	-0.008	0.320
-59.305	476.302	-0.453	-1.014
-58.290	145.506	0.686	0.909
-57.276	800.000	0.401	1.524
-56.261	-200.000	90.972	538.324
-55.246	524.042	1366.420	3179.575
-54.232	152.194	2577.751	3480.791
-53.217	115.439	2194.470	2653.544
-52.203	46.968	1730.995	1592.776
-51.188	39.701	1539.881	1366.755
-50.173	37.213	1512.433	1325.376
-49.159	55.226	1560.901	1493.179
-48.144	59.376	1580.619	1540.765
-47.130	40.096	1536.829	1366.560
-46.115	36.731	1521.981	1330.224
-45.100	36.645	1518.207	1326.279
-44.086	36.623	1516.237	1324.357
-43.071	36.546	1514.373	1322.150
-42.057	36.419	1513.046	1320.073
-41.042	36.557	1511.688	1319.775
-40.027	36.474	1510.316	1317.958
-39.013	36.473	1508.739	1316.526
-37.998	36.448	1507.766	1315.451
-36.984	36.503	1506.257	1314.460
-35.969	36.504	1504.981	1313.301
-34.954	36.513	1503.326	1311.862
-33.940	36.497	1501.800	1310.372
-32.925	36.521	1500.839	1309.646
-31.911	36.575	1498.868	1308.239
-30.896	36.609	1497.233	1306.990
-29.881	36.693	1496.405	1306.781
-28.867	36.625	1495.154	1305.176
-27.852	36.571	1494.051	1303.801
-26.838	36.643	1492.184	1302.605
-25.823	36.665	1490.602	1301.319
-24.809	36.614	1488.897	1299.438
-23.794	36.622	1487.404	1298.137
-22.779	36.553	1486.871	1297.156
-21.765	36.576	1485.535	1296.094
-20.750	36.579	1484.417	1295.085
-19.736	36.652	1483.092	1294.363
-18.721	36.592	1481.861	1292.842
-17.706	36.608	1480.410	1291.626
-16.692	36.636	1479.555	1291.019
-15.677	36.470	1478.851	1289.243
-14.663	36.494	1478.100	1288.698
-13.648	36.570	1476.414	1287.682
-12.633	36.539	1475.781	1286.872
-11.619	36.408	1475.205	1285.447
-10.604	36.565	1473.742	1285.167
-9.590	36.526	1473.006	1284.215
-8.575	36.548	1471.997	1283.434
-7.560	36.554	1471.990	1283.416
-6.546	36.448	1471.107	1281.891
-5.531	36.439	1469.993	1280.811
-4.517	36.448	1469.079	1280.020
-3.502	36.618	1467.794	1279.974
-2.487	36.477	1466.834	1278.153
-1.473	36.456	1465.888	1277.145
-0.458	36.410	1464.533	1275.608
0.556	36.354	1454.937	1264.584
1.571	33.311	1428.546	1221.932
2.586	29.497	1366.724	1145.335
3.600	27.591	1283.144	1064.085
4.615	26.089	1235.756	1016.243
5.629	21.914	1178.013	946.210
6.644	11.377	1088.869	821.726
7.659	3.005	1044.908	747.875
8.673	1.768	1039.382	737.862
9.688	1.681	1035.998	734.976
10.702	1.473	1034.260	732.675
11.717	1.309	1033.162	731.040
12.731	5.141	1037.063	752.235
13.746	15.291	1051.652	812.142
14.761	22.852	1061.527	856.517
15.775	24.434	1062.036	864.524
16.790	24.426	1061.755	864.180
17.804	24.205	1061.441	862.774
18.819	24.122	1060.160	861.257
19.834	24.284	1059.488	861.419
20.848	24.535	1059.008	862.164
21.863	24.432	1058.695	861.335
22.877	24.388	1058.681	861.034
23.892	24.492	1057.543	860.536
24.907	24.285	1056.861	858.906
25.921	24.401	1056.171	858.828
26.936	24.431	1054.840	857.815
27.950	24.387	1054.102	856.928
28.965	24.271	1053.186	855.551
29.980	24.227	1051.690	854.049
30.994	24.146	1050.565	852.671
32.009	24.401	1049.666	853.088
33.023	24.541	1048.945	853.093
34.038	24.258	1048.360	851.189
35.053	24.265	1046.999	850.045
36.067	24.327	1046.724	850.042
37.082	24.487	1045.616	849.829
38.096	24.406	1045.281	849.093
39.111	24.511	1044.725	849.067
40.126	24.657	1043.955	849.061
41.140	24.601	1042.403	847.458
42.155	24.421	1040.715	845.159
43.169	23.994	1039.986	842.470
44.184	24.002	1038.880	841.534
45.199	24.065	1037.565	840.696
46.213	24.087	1036.626	839.963
47.228	23.937	1036.035	838.703
48.242	24.113	1034.932	838.565
49.257	24.227	1034.667	838.814
50.271	24.287	1033.933	838.426
51.286	24.516	1033.160	838.800
52.301	24.445	1032.471	837.832
53.315	24.481	1031.249	836.936
54.330	24.504	1030.711	836.533
55.344	24.243	1030.337	834.933
56.359	24.248	1029.367	834.098
57.374	24.341	1028.053	833.391
58.388	24.235	1027.146	832.091
59.403	24.040	1026.848	830.865
60.417	24.152	1025.934	830.573
61.432	23.945	1025.098	828.857
62.447	23.991	1024.487	828.505
63.461	24.265	1023.750	829.110
64.476	24.248	1023.073	828.407
65.490	24.198	1021.987	827.223
66.505	24.048	1021.309	825.905
67.520	24.097	1020.351	825.288
68.534	24.143	1019.726	824.920
69.549	24.151	1018.559	823.938
70.563	23.727	1017.691	821.204
71.578	23.527	1017.253	819.857
72.593	23.646	1016.325	819.584
73.607	23.610	1014.557	817.919
74.622	23.549	1013.864	817.010
75.636	23.935	1013.215	818.187
76.651	23.986	1012.650	817.897
77.666	23.888	1011.534	816.473
78.680	23.787	1010.561	815.150
79.695	23.738	1010.460	814.771
80.709	23.820	1010.004	814.710
81.724	24.069	1008.742	814.757
82.739	24.009	1007.894	813.728
83.753	23.956	1007.562	813.145
84.768	24.203	1007.094	813.821
85.782	24.503	1006.418	814.571
86.797	24.642	1005.757	814.600
87.812	24.534	1004.853	813.302
88.826	24.523	1003.640	812.198
89.841	24.609	1002.791	811.831
90.855	24.578	1002.442	811.338
91.870	24.671	1001.701	811.088
92.884	24.600	1000.507	809.726
93.899	24.473	999.832	808.532
94.914	24.367	998.606	806.991
95.928	24.441	997.975	806.742
96.943	24.492	996.809	805.959
97.957	24.196	995.765	803.710
98.972	23.919	995.266	801.987
99.987	23.941	993.348	800.468
101.001	23.990	993.374	800.640
102.016	24.340	992.755	801.645
103.030	24.296	991.896	800.683
104.045	24.172	990.695	799.085
105.060	24.179	989.599	798.163
106.074	23.907	988.736	796.180
107.089	23.972	987.570	795.460
108.103	24.305	987.241	796.614
109.118	24.384	986.492	796.288
110.133	24.135	985.780	794.534
111.147	24.058	984.379	792.994
112.162	23.922	983.488	791.597
113.176	23.819	982.158	789.999
114.191	23.850	981.260	789.346
115.206	23.928	980.790	789.242
116.220	23.628	979.605	786.890
117.235	23.540	978.805	785.788
118.249	23.717	977.824	785.715
119.264	23.825	977.237	785.649
120.279	23.735	976.741	784.784
121.293	23.611	976.110	783.660
122.308	23.758	975.202	783.510
123.322	23.729	974.928	783.095
124.337	23.789	973.100	781.822
125.352	23.676	972.311	780.623
126.366	23.351	970.161	777.401
127.381	22.933	969.276	774.790
128.395	23.426	969.159	776.787
129.410	24.120	968.883	779.535
130.424	24.250	967.961	779.296
131.439	24.085	967.490	778.125
132.454	24.178	966.172	777.403
133.468	24.220	964.969	776.550
134.483	24.292	964.303	776.259
135.497	24.199	964.023	775.560
136.512	24.510	963.132	776.123
137.527	24.563	962.382	775.680
138.541	24.515	961.338	774.564
139.556	24.517	960.745	774.028
140.570	24.341	960.275	772.816
141.585	24.438	959.072	772.200
142.600	24.683	958.595	772.807
143.614	24.508	957.483	771.087
144.629	24.529	957.056	770.766
145.643	24.714	956.299	770.885
146.658	24.700	955.276	769.932
147.673	24.588	953.573	768.007
148.687	24.505	952.539	766.754
149.702	24.346	951.591	765.238
150.716	24.224	950.869	764.069
151.731	24.209	949.382	762.741
152.746	24.296	949.026	762.762
153.760	24.488	948.288	762.922
154.775	24.504	947.706	762.452
155.789	24.666	947.061	762.557
156.804	24.585	945.928	761.234
157.819	24.614	944.861	760.431
158.833	24.638	944.154	759.894
159.848	24.568	943.860	759.294
160.862	24.738	942.839	759.127
161.877	24.625	941.605	757.586
162.892	24.490	940.971	756.440
163.906	24.642	940.003	756.236
164.921	24.555	939.444	755.353
165.935	24.582	937.838	754.108
166.950	24.589	936.976	753.380
167.964	24.683	935.910	752.852
168.979	24.708	934.888	752.066
169.994	24.581	933.846	750.631
171.008	24.440	932.564	748.942
172.023	24.421	932.298	748.580
173.037	24.656	931.673	748.995
174.052	24.568	930.584	747.686
175.067	24.339	929.522	745.809
176.081	24.305	928.908	745.108
177.096	24.447	927.598	744.584
178.110	24.433	927.034	744.008
179.125	24.194	925.973	742.096
180.140	23.900	924.942	739.980
181.154	24.096	924.173	740.117
182.169	24.057	924.053	739.790
183.183	24.377	923.628	740.715
184.198	24.618	923.231	741.329
185.213	24.541	922.735	740.548
186.227	24.381	921.720	739.004
187.242	24.524	921.271	739.171
188.256	24.593	920.445	738.729
189.271	24.623	919.595	738.106
190.286	24.677	919.093	737.861
191.300	24.631	918.315	736.981
192.315	24.159	916.568	733.570
193.329	23.370	915.326	729.266
194.344	22.923	913.929	726.251
195.359	23.367	914.850	728.743
196.373	24.279	914.770	732.366
197.388	24.557	914.786	733.455
198.402	24.443	913.709	732.058
199.417	24.419	913.594	731.804
200.432	24.475	912.831	731.355
201.446	24.232	912.114	729.721
202.461	24.046	911.051	728.047
203.475	24.237	910.364	728.215
204.490	23.785	909.086	725.283
205.504	22.690	906.904	719.017
206.519	22.965	907.339	720.421
207.534	23.859	907.734	724.311
208.548	24.035	906.782	724.206
209.563	24.278	907.054	725.346
210.577	24.485	906.310	725.530
211.592	24.194	904.907	723.160
212.607	24.563	905.162	724.797
213.621	24.764	904.541	725.052
214.636	24.649	903.447	723.646
215.650	24.805	903.103	723.935
216.665	24.675	902.553	722.905
217.680	24.749	901.889	722.611
218.694	24.638	901.945	722.142
219.709	24.427	900.886	720.379
220.723	24.165	899.836	718.417
221.738	24.286	899.357	718.460
222.753	24.559	898.610	718.897
223.767	24.441	898.236	718.060
224.782	24.475	897.387	717.454
225.796	24.650	897.169	717.920
226.811	24.723	896.596	717.695
227.826	24.434	894.984	715.179
228.840	23.747	893.309	711.030
229.855	23.534	893.141	709.981
230.869	23.854	892.992	711.078
231.884	23.470	891.462	708.265
232.899	23.503	891.162	708.094
233.913	24.247	891.688	711.422
234.928	24.566	891.170	712.220
235.942	24.381	890.095	710.558
236.957	24.427	889.677	710.347
237.972	24.112	888.913	708.418
238.986	24.059	888.188	707.567
240.001	24.120	887.626	707.300
241.015	24.027	887.080	706.434
242.030	24.236	886.176	706.482
243.045	24.365	885.609	706.476
244.059	24.387	885.595	706.488
245.074	24.597	885.067	706.836
246.088	24.634	884.051	706.110
247.103	24.164	883.558	703.795
248.117	24.237	883.046	703.613
249.132	24.763	882.535	705.220
250.147	25.219	882.646	707.044
251.161	25.115	882.267	706.270
252.176	25.421	881.679	706.939
253.190	25.304	881.034	705.899
254.205	25.355	880.618	705.703
255.220	25.487	880.200	705.826
256.234	25.641	879.335	705.673
257.249	25.396	878.992	704.376
258.263	25.168	878.288	702.854
259.278	25.275	877.428	702.522
260.293	25.266	877.357	702.369
261.307	25.445	876.777	702.540
262.322	25.315	876.011	701.357
263.336	25.318	874.888	700.411
264.351	24.824	873.524	697.330
265.366	23.786	871.782	691.838
266.380	23.241	871.076	689.098
267.395	24.141	871.438	692.827
268.409	24.871	871.618	695.744
269.424	24.769	870.910	694.724
270.439	24.960	870.710	695.245
271.453	25.064	870.272	695.237
272.468	25.179	869.301	694.845
273.482	25.406	868.709	695.187
274.497	25.348	868.460	694.700
275.512	25.251	867.364	693.388
276.526	24.587	866.052	689.717
277.541	24.779	865.504	689.958
278.555	25.175	865.392	691.335
279.570	24.991	864.994	690.248
280.585	24.778	864.213	688.743
281.599	24.977	863.478	688.864
282.614	25.030	863.049	688.664
283.628	24.619	861.941	686.139
284.643	24.331	861.331	684.490
285.657	24.694	861.248	685.754
286.672	24.677	860.497	685.031
287.687	24.092	859.358	681.825
288.701	24.419	859.529	683.151
289.716	24.852	858.955	684.290
290.730	24.476	858.217	682.207
291.745	24.359	857.522	681.146
292.760	24.193	856.200	679.403
293.774	24.171	855.987	679.090
294.789	24.820	856.678	682.055
295.803	25.714	856.322	685.115
296.818	25.627	855.859	684.354
297.833	25.746	855.517	684.471
298.847	25.348	854.306	681.930
299.862	25.123	853.464	680.345
300.876	25.206	852.907	680.153
301.891	25.578	852.819	681.432
302.906	25.713	852.209	681.397
303.920	25.320	851.180	679.027
304.935	25.219	850.232	677.832
305.949	25.617	850.214	679.258
306.964	25.786	849.239	679.058
307.979	25.427	848.848	677.331
308.993	25.239	848.471	676.263
310.008	25.731	848.014	677.688
311.022	25.853	847.680	677.823
312.037	25.546	846.911	675.995
313.052	25.322	846.600	674.843
314.066	25.360	845.553	674.094
315.081	24.657	844.235	670.345
316.095	24.161	842.611	667.139
317.110	24.529	842.962	668.739
318.125	25.112	843.617	671.383
319.139	24.866	842.402	669.434
320.154	23.685	840.687	663.602
321.168	23.367	839.462	661.391
322.183	23.999	840.136	664.222
323.197	24.929	840.495	667.919
324.212	25.181	840.338	668.674
325.227	25.229	840.056	668.569
326.241	25.489	839.183	668.785
327.256	25.542	838.415	668.309
328.270	25.229	838.096	666.833
329.285	25.118	837.302	665.731
330.300	25.032	836.390	664.628
331.314	24.809	835.832	663.296
332.329	24.843	834.951	662.666
333.343	25.266	834.937	664.162
334.358	25.715	834.434	665.364
335.373	25.584	833.731	664.260
336.387	25.485	833.515	663.664
337.402	25.641	833.491	664.163
338.416	25.981	832.751	664.767
339.431	26.073	832.158	664.573
340.446	25.991	831.448	663.646
341.460	26.246	831.289	664.397
342.475	26.065	830.819	663.299
343.489	25.907	830.024	662.025
344.504	25.815	829.685	661.360
345.519	26.292	829.065	662.556
346.533	26.413	828.779	662.712
347.548	26.487	828.277	662.524
348.562	26.298	828.290	661.782
349.577	26.384	827.302	661.248
350.592	26.270	826.863	660.423
351.606	26.240	826.316	659.817
352.621	26.271	825.701	659.381
353.635	26.234	825.246	658.826
354.650	26.111	824.726	657.903
355.665	25.785	823.888	655.987
356.679	24.725	822.186	650.720
357.694	24.618	821.510	649.738
358.708	25.271	821.432	651.994
359.723	25.168	820.849	651.098
360.738	25.518	820.369	651.931
361.752	25.896	820.726	653.526
362.767	26.160	820.012	653.858
363.781	26.398	819.942	654.604
364.796	26.679	819.840	655.483
365.810	26.693	819.527	655.223
366.825	26.776	819.305	655.289
367.840	26.742	818.998	654.864
368.854	26.576	818.139	653.518
369.869	26.248	817.030	651.392
370.883	25.834	816.699	649.578
371.898	26.140	816.279	650.290
372.913	26.190	815.143	649.508
373.927	26.129	814.341	648.591
374.942	26.193	814.384	648.799
375.956	26.267	813.846	648.576
376.971	26.341	813.443	648.463
377.986	26.467	812.827	648.368
379.000	26.587	812.780	648.701
380.015	26.630	812.214	648.347
381.029	26.466	811.142	646.846
382.044	26.323	810.627	645.869
383.059	26.661	810.135	646.628
384.073	26.747	809.857	646.654
385.088	26.642	809.356	645.822
386.102	26.521	809.013	645.062
387.117	26.379	808.073	643.748
388.132	26.382	807.062	642.898
389.146	26.100	806.470	641.366
390.161	25.702	805.646	639.240
391.175	25.706	805.234	638.873
392.190	26.158	805.609	640.716
393.205	26.383	805.045	641.011
394.219	25.363	803.259	635.921
395.234	23.804	800.865	628.462
396.248	23.058	799.685	624.844
397.263	24.028	800.504	628.858
398.278	25.660	801.938	635.702
399.292	26.305	801.828	637.834
400.307	25.895	801.223	635.851
401.321	25.782	801.337	635.486
402.336	25.995	800.839	635.788
403.350	26.270	800.382	636.337
404.365	26.849	800.008	638.019
405.380	27.004	800.144	638.616
406.394	27.255	800.216	639.501
407.409	27.374	799.746	639.486
408.423	27.354	798.913	638.691
409.438	27.286	798.643	638.184
410.453	27.272	798.269	637.778
411.467	27.411	797.808	637.841
412.482	27.426	796.929	637.132
413.496	27.279	796.385	636.129
414.511	27.462	796.000	636.403
415.526	27.518	795.684	636.290
416.540	27.417	795.518	635.747
417.555	27.253	794.591	634.380
418.569	27.042	794.171	633.252
419.584	27.087	793.362	632.707
420.599	27.018	793.306	632.369
421.613	105.669	1275.298	1432.726
422.628	90.822	1345.530	1432.852
