DTS Sentinel unit serial number:	SN413079Multiplexer serial number:	ORYXHardware model number:	OX4-SRSoftware version number:	ORYX F/W v4.00 Oryx Data Collector v3.7.2.0data status	okinstallation	princeton_trtdifferential loss correction	single-endedforward channel	channel 3reverse channel	N/Adate	2019/09/11time	14:38:11forward acquisition time	60.00reverse acquisition time	0.00gamma	496.2192k internal	0.2291k external	0.2291temperature offset calibration	0.9984default loss term (dB/km)	0.3790temperature slope calibration	1.0000multiplexer offset coefficient	1.0000multiplexer slope coefficient	1.0000fibre end	0.00T internal ref (°C)	42.31T ext. ref 1 (°C)	0.92T ext. ref 2 (°C)	37.50length (m)	temperature (°C)	Stokes	anti-Stokes-747.200	-159.888	0.303	0.017
-746.185	800.000	-0.032	0.139
-745.171	520.489	-0.075	-0.179
-744.156	56.128	-0.267	0.265
-743.142	-200.000	-0.003	-0.021
-742.127	-200.000	-0.025	0.226
-741.112	-200.000	0.036	0.213
-740.098	-54.956	-0.213	0.098
-739.083	295.256	0.145	-0.272
-738.069	800.000	-0.027	-0.085
-737.054	-200.000	0.036	0.169
-736.039	-200.000	-0.046	-0.328
-735.025	800.000	-0.041	-0.159
-734.010	-200.000	-0.040	0.230
-732.996	20.065	-0.149	-0.123
-731.981	55.299	-0.273	-0.270
-730.966	-200.000	0.045	-0.410
-729.952	-7.094	0.267	0.185
-728.937	-200.000	0.016	0.243
-727.923	674.126	-0.019	0.051
-726.908	-90.145	0.203	0.060
-725.894	294.970	-0.205	-0.383
-724.879	800.000	-0.087	-0.335
-723.864	-200.000	-0.024	-0.369
-722.850	-68.196	-0.066	-0.026
-721.835	-200.000	-0.013	0.146
-720.821	41.719	-0.135	-0.125
-719.806	800.000	0.096	-0.361
-718.791	-129.744	-0.315	-0.044
-717.777	20.763	-0.176	0.146
-716.762	-200.000	0.005	-0.260
-715.748	406.515	0.015	0.033
-714.733	-147.230	0.365	-0.032
-713.718	-120.446	0.178	-0.031
-712.704	-200.000	0.022	-0.223
-711.689	800.000	0.086	0.264
-710.675	-148.678	-0.051	0.004
-709.660	-23.905	-0.188	-0.115
-708.645	-200.000	0.004	-0.086
-707.631	33.662	-0.137	-0.122
-706.616	391.833	-0.137	0.291
-705.602	-123.350	-0.179	0.029
-704.587	-72.999	-0.260	-0.098
-703.572	-200.000	0.071	0.483
-702.558	521.565	0.089	0.215
-701.543	453.336	0.121	-0.275
-700.529	800.000	0.090	0.393
-699.514	414.142	0.046	-0.099
-698.499	800.000	-0.042	-0.184
-697.485	-101.954	-0.200	0.049
-696.470	-200.000	-0.003	0.245
-695.456	206.178	-0.058	-0.093
-694.441	-200.000	0.001	0.141
-693.426	-13.670	-0.111	0.073
-692.412	-200.000	0.025	-0.276
-691.397	-200.000	0.041	-0.224
-690.383	245.991	0.060	0.103
-689.368	72.227	-0.214	0.227
-688.354	-185.096	-0.161	-0.003
-687.339	50.254	-0.159	0.153
-686.324	15.122	-0.203	-0.162
-685.310	36.733	-0.276	0.249
-684.295	65.145	0.317	-0.328
-683.281	-23.060	-0.245	0.151
-682.266	358.713	-0.129	-0.263
-681.251	-200.000	0.076	-0.417
-680.237	293.673	0.059	-0.109
-679.222	-200.000	-0.005	0.345
-678.208	-65.834	0.389	-0.159
-677.193	-37.633	-0.139	0.075
-676.178	-200.000	-0.021	-0.382
-675.164	291.446	0.064	0.118
-674.149	-200.000	-0.021	0.387
-673.135	194.412	-0.039	0.061
-672.120	-200.000	-0.017	-0.252
-671.105	-68.093	-0.133	0.053
-670.091	-91.777	0.155	0.045
-669.076	-200.000	-0.042	0.328
-668.062	125.041	0.060	0.077
-667.047	2.247	-0.143	0.105
-666.032	-84.114	0.136	-0.044
-665.018	-59.962	0.266	0.116
-664.003	268.206	-0.056	0.100
-662.989	-144.236	-0.254	0.024
-661.974	-161.825	0.376	0.020
-660.959	-200.000	0.036	-0.214
-659.945	500.407	-0.061	0.145
-658.930	800.000	-0.152	-0.434
-657.916	-168.080	0.285	-0.011
-656.901	15.523	-0.114	0.092
-655.886	-200.000	-0.032	-0.203
-654.872	-168.321	0.056	-0.002
-653.857	-121.395	0.400	-0.068
-652.843	201.037	0.126	0.198
-651.828	688.750	0.031	0.083
-650.814	-200.000	0.007	0.166
-649.799	-58.244	0.111	-0.049
-648.784	-8.768	-0.273	-0.187
-647.770	297.541	0.108	0.203
-646.755	-54.885	0.112	-0.051
-645.741	-70.505	0.216	0.084
-644.726	735.320	-0.016	0.045
-643.711	128.280	-0.085	-0.111
-642.697	54.714	-0.168	-0.166
-641.682	800.000	0.028	0.113
-640.668	55.451	-0.153	-0.152
-639.653	-65.463	-0.160	0.065
-638.638	-32.442	-0.282	0.161
-637.624	-53.185	-0.335	0.157
-636.609	-200.000	0.087	-0.390
-635.595	800.000	-0.098	-0.287
-634.580	-200.000	0.010	0.058
-633.565	439.150	-0.150	0.334
-632.551	121.035	-0.277	-0.352
-631.536	-67.285	-0.183	0.073
-630.522	693.319	0.162	-0.433
-629.507	651.425	-0.137	0.359
-628.492	122.389	0.030	0.039
-627.478	628.352	0.077	0.198
-626.463	20.272	-0.113	0.093
-625.449	-72.297	0.245	-0.093
-624.434	-153.866	-0.104	0.007
-623.419	111.939	0.105	-0.129
-622.405	-131.043	0.225	-0.031
-621.390	48.179	0.111	-0.106
-620.376	-147.773	0.111	-0.009
-619.361	-85.486	0.171	-0.054
-618.346	800.000	0.069	-0.288
-617.332	-200.000	0.061	0.367
-616.317	-141.232	-0.341	-0.035
-615.303	800.000	0.054	-0.163
-614.288	-200.000	-0.059	0.297
-613.273	59.502	0.242	0.243
-612.259	281.782	-0.122	0.223
-611.244	-200.000	0.043	0.217
-610.230	339.584	0.072	0.144
-609.215	590.266	0.048	-0.120
-608.201	36.268	0.268	-0.241
-607.186	-157.246	-0.241	-0.015
-606.171	800.000	0.061	-0.177
-605.157	-87.400	0.119	-0.037
-604.142	17.835	-0.071	-0.057
-603.128	-78.246	0.029	0.010
-602.113	347.612	0.096	-0.194
-601.098	-118.463	0.202	-0.036
-600.084	14.274	-0.140	0.111
-599.069	185.772	0.092	-0.140
-598.055	-200.000	0.024	-0.539
-597.040	-12.554	0.108	0.072
-596.025	563.721	-0.115	-0.284
-595.011	-117.872	-0.212	-0.039
-593.996	-181.242	0.389	-0.008
-592.982	49.774	0.187	-0.180
-591.967	6.594	-0.104	-0.079
-590.952	51.974	0.175	-0.170
-589.938	-77.039	-0.135	0.048
-588.923	452.207	-0.061	-0.137
-587.909	-174.822	0.290	0.008
-586.894	193.221	-0.247	0.380
-585.879	-97.199	0.226	0.060
-584.865	-108.831	-0.363	0.079
-583.850	-47.384	-0.049	-0.024
-582.836	-200.000	-0.256	0.001
-581.821	-108.032	0.103	0.023
-580.806	-200.000	-0.001	-0.332
-579.792	-77.153	-0.304	-0.108
-578.777	-200.000	-0.023	-0.341
-577.763	-101.805	-0.082	-0.020
-576.748	-200.000	-0.026	0.292
-575.733	651.487	0.127	-0.331
-574.719	800.000	-0.053	0.166
-573.704	-200.000	-0.010	0.129
-572.690	-200.000	-0.064	0.368
-571.675	-107.017	-0.324	0.073
-570.661	446.175	-0.199	0.444
-569.646	800.000	-0.077	0.236
-568.631	800.000	0.067	0.256
-567.617	48.187	0.167	0.159
-566.602	-60.884	-0.200	-0.086
-565.588	800.000	-0.154	-0.437
-564.573	800.000	-0.021	-0.093
-563.558	800.000	-0.096	-0.411
-562.544	597.838	0.044	-0.110
-561.529	-72.917	0.271	0.101
-560.515	329.353	0.166	0.324
-559.500	800.000	-0.078	0.228
-558.485	800.000	0.046	-0.157
-557.471	773.754	0.023	0.064
-556.456	52.240	-0.233	0.226
-555.442	-138.167	-0.222	-0.025
-554.427	562.066	-0.172	-0.423
-553.412	39.705	0.360	-0.328
-552.398	104.854	0.186	-0.223
-551.383	297.623	0.033	-0.062
-550.369	-200.000	-0.020	-0.151
-549.354	139.789	-0.062	-0.084
-548.339	-45.569	0.071	0.036
-547.325	-101.993	0.480	0.118
-546.310	800.000	-0.089	-0.287
-545.296	0.191	-0.242	0.175
-544.281	17.175	0.238	0.192
-543.266	401.326	-0.007	-0.016
-542.252	-98.478	-0.073	-0.019
-541.237	164.388	-0.157	0.225
-540.223	240.540	-0.139	-0.236
-539.208	-135.325	-0.160	-0.019
-538.193	235.706	-0.099	0.166
-537.179	37.905	-0.113	0.102
-536.164	-158.256	-0.133	-0.008
-535.150	-35.170	-0.345	0.191
-534.135	30.035	-0.135	-0.117
-533.121	36.281	0.171	-0.153
-532.106	372.574	0.113	-0.234
-531.091	164.233	0.051	-0.073
-530.077	-47.317	-0.161	-0.080
-529.062	499.098	0.069	0.162
-528.048	42.991	-0.147	-0.136
-527.033	-174.251	-0.181	-0.005
-526.018	104.518	0.118	0.142
-525.004	23.341	0.242	0.202
-523.989	237.028	-0.142	0.238
-522.975	-200.000	0.025	-0.341
-521.960	-118.557	-0.162	0.029
-520.945	-200.000	0.009	0.255
-519.931	-55.870	-0.227	-0.103
-518.916	-103.041	-0.360	-0.087
-517.902	527.824	0.035	0.084
-516.887	93.969	-0.175	0.202
-515.872	-123.386	0.249	-0.040
-514.858	308.551	0.029	-0.056
-513.843	780.463	0.131	-0.363
-512.829	800.000	0.141	-0.395
-511.814	-70.903	0.379	0.145
-510.799	-125.641	0.089	-0.014
-509.785	357.049	-0.050	-0.101
-508.770	23.987	0.084	-0.070
-507.756	800.000	0.092	-0.265
-506.741	91.637	-0.167	0.191
-505.726	229.590	-0.059	0.097
-504.712	800.000	-0.096	0.333
-503.697	197.371	-0.084	0.131
-502.683	-82.469	-0.229	-0.075
-501.668	-51.853	-0.145	0.068
-500.653	310.369	0.082	-0.156
-499.639	-19.095	-0.292	0.184
-498.624	-139.042	0.174	-0.019
-497.610	-136.146	-0.135	-0.016
-496.595	421.699	0.202	0.440
-495.581	32.571	-0.171	0.150
-494.566	800.000	0.027	-0.090
-493.551	-200.000	-0.076	-0.394
-492.537	-92.290	0.263	-0.075
-491.522	-200.000	-0.027	-0.219
-490.508	267.831	-0.178	0.316
-489.493	-200.000	-0.049	-0.232
-488.478	-106.516	0.269	-0.061
-487.464	-50.534	-0.425	-0.203
-486.449	-50.149	0.326	0.156
-485.435	-71.088	0.176	0.067
-484.420	-200.000	-0.029	0.374
-483.405	128.101	-0.159	0.205
-482.391	268.096	-0.039	-0.068
-481.376	19.746	0.202	-0.165
-480.362	334.434	-0.101	-0.197
-479.347	459.358	-0.202	0.456
-478.332	80.715	0.224	0.245
-477.318	555.470	-0.113	0.276
-476.303	427.271	-0.171	-0.374
-475.289	-200.000	-0.030	-0.343
-474.274	-7.963	-0.201	0.137
-473.259	-11.932	0.033	0.022
-472.245	-97.220	-0.068	-0.018
-471.230	-200.000	0.006	-0.273
-470.216	120.014	0.241	0.303
-469.201	-119.003	0.249	0.044
-468.186	497.389	-0.027	0.062
-467.172	91.120	-0.216	0.245
-466.157	1.953	0.154	-0.112
-465.143	-200.000	-0.015	0.129
-464.128	-200.000	-0.056	0.296
-463.113	-200.000	-0.022	-0.165
-462.099	800.000	0.044	-0.186
-461.084	-36.346	0.102	-0.056
-460.070	-200.000	0.021	-0.355
-459.055	-85.111	0.389	-0.123
-458.040	302.725	-0.069	0.129
-457.026	-200.000	-0.003	-0.120
-456.011	800.000	-0.028	0.090
-454.997	216.002	-0.108	0.174
-453.982	-14.855	-0.077	0.050
-452.968	-200.000	-0.032	0.159
-451.953	-138.485	0.257	-0.029
-450.938	143.047	0.185	-0.249
-449.924	647.992	-0.052	-0.135
-448.909	-160.867	-0.160	0.009
-447.895	-200.000	-0.002	-0.147
-446.880	800.000	0.045	-0.196
-445.865	585.351	-0.062	0.155
-444.851	-41.909	0.233	0.121
-443.836	-62.659	-0.207	0.087
-442.822	-54.705	-0.230	-0.105
-441.807	2.971	-0.227	-0.167
-440.792	-200.000	-0.013	0.264
-439.778	7.659	-0.259	0.196
-438.763	800.000	-0.085	0.289
-437.749	88.931	-0.236	0.266
-436.734	-104.967	-0.292	0.068
-435.719	209.729	0.129	0.204
-434.705	-127.621	-0.113	-0.017
-433.690	-9.591	-0.184	-0.124
-432.676	30.249	-0.084	0.072
-431.661	-79.735	-0.039	0.013
-430.646	80.536	-0.094	0.102
-429.632	-31.736	0.231	0.131
-428.617	-200.000	-0.011	0.170
-427.603	-119.214	0.242	-0.043
-426.588	-200.000	0.002	0.103
-425.573	800.000	0.053	-0.190
-424.559	-200.000	0.029	-0.135
-423.544	-19.112	0.188	0.118
-422.530	-89.120	0.184	-0.055
-421.515	609.915	-0.060	0.151
-420.500	470.592	-0.079	-0.180
-419.486	-120.416	-0.125	0.022
-418.471	-48.998	0.276	-0.134
-417.457	5.717	-0.209	0.156
-416.442	-78.866	-0.319	0.110
-415.428	-200.000	0.008	-0.184
-414.413	-200.000	-0.000	0.178
-413.398	26.343	0.155	0.131
-412.384	-200.000	-0.028	-0.197
-411.369	-91.186	0.274	0.079
-410.355	-200.000	-0.058	-0.314
-409.340	-122.610	0.090	0.015
-408.325	108.615	-0.066	-0.080
-407.311	130.762	-0.090	0.117
-406.296	-89.428	0.495	0.147
-405.282	573.327	0.098	0.241
-404.267	6.389	0.119	-0.089
-403.252	63.223	0.082	-0.083
-402.238	800.000	0.027	-0.097
-401.223	261.487	0.116	-0.202
-400.209	111.728	-0.213	0.259
-399.194	800.000	0.066	0.209
-398.179	52.355	0.189	-0.183
-397.165	13.519	0.113	0.088
-396.150	93.097	-0.135	0.154
-395.136	-11.660	0.110	0.073
-394.121	-112.534	-0.056	-0.011
-393.106	-16.931	0.269	-0.172
-392.092	-111.291	0.047	0.010
-391.077	-158.508	-0.074	0.004
-390.063	66.378	0.126	0.129
-389.048	9.009	-0.231	0.176
-388.033	-112.407	0.366	-0.074
-387.019	-106.239	0.080	-0.018
-386.004	62.141	-0.080	0.080
-384.990	800.000	-0.046	-0.130
-383.975	22.515	0.094	-0.077
-382.960	-143.549	0.248	-0.024
-381.946	73.485	-0.202	0.214
-380.931	-24.519	-0.061	0.037
-379.917	650.333	-0.041	-0.106
-378.902	142.474	0.078	-0.105
-377.888	-84.732	0.146	0.047
-376.873	-68.672	-0.020	0.008
-375.858	64.901	-0.151	-0.154
-374.844	-170.544	0.169	0.006
-373.829	26.879	0.016	-0.014
-372.815	178.934	0.020	0.030
-371.800	4.691	-0.103	-0.076
-370.785	800.000	-0.062	-0.215
-369.771	-69.001	0.122	-0.047
-368.756	-200.000	0.035	-0.215
-367.742	503.679	0.079	0.184
-366.727	505.284	0.162	-0.379
-365.712	-26.782	-0.349	-0.206
-364.698	800.000	-0.080	0.315
-363.683	599.827	0.101	0.252
-362.669	6.258	0.172	0.129
-361.654	-200.000	0.050	-0.228
-360.639	755.678	0.076	-0.207
-359.625	-151.473	-0.183	0.014
-358.610	-108.519	-0.052	-0.011
-357.596	57.957	0.223	0.220
-356.581	497.218	-0.226	0.525
-355.566	-48.695	-0.413	0.200
-354.552	174.596	-0.191	0.279
-353.537	-86.761	0.122	-0.038
-352.523	-110.643	0.139	0.029
-351.508	442.924	-0.079	0.174
-350.493	-60.811	0.127	0.054
-349.479	-200.000	0.051	0.332
-348.464	511.096	-0.061	-0.144
-347.450	177.842	-0.202	-0.296
-346.435	350.198	0.081	-0.162
-345.420	292.314	0.097	0.179
-344.406	-200.000	-0.002	0.270
-343.391	72.135	0.072	-0.075
-342.377	-49.095	-0.017	0.008
-341.362	-143.786	0.177	0.017
-340.348	16.405	-0.248	-0.197
-339.333	640.281	0.123	-0.316
-338.318	-200.000	-0.003	0.409
-337.304	-200.000	-0.011	0.053
-336.289	-74.581	-0.230	0.084
-335.275	135.221	-0.103	-0.134
-334.260	649.717	-0.022	-0.056
-333.245	163.929	-0.058	0.083
-332.231	-200.000	-0.017	0.228
-331.216	-184.539	0.297	0.005
-330.202	-96.958	0.406	0.107
-329.187	278.931	-0.165	0.297
-328.172	-200.000	-0.032	0.196
-327.158	69.059	-0.073	-0.076
-326.143	800.000	-0.061	-0.200
-325.129	-200.000	0.014	0.142
-324.114	54.051	-0.110	0.107
-323.099	-173.481	-0.158	-0.005
-322.085	-100.382	-0.151	0.038
-321.070	265.454	0.069	0.122
-320.056	800.000	0.078	-0.248
-319.041	800.000	-0.052	0.172
-318.026	-77.212	-0.091	0.032
-317.012	800.000	0.010	-0.027
-315.997	74.599	0.118	0.125
-314.983	285.449	0.019	-0.035
-313.968	-200.000	0.015	-0.344
-312.953	-84.932	-0.296	-0.094
-311.939	703.294	-0.110	0.291
-310.924	634.337	0.099	0.253
-309.910	549.284	-0.077	0.185
-308.895	-79.817	0.232	-0.079
-307.880	77.351	0.034	0.036
-306.866	124.351	0.289	-0.366
-305.851	800.000	0.082	0.237
-304.837	-91.079	0.251	0.073
-303.822	-154.572	0.316	-0.021
-302.807	-139.420	-0.111	0.012
-301.793	662.859	-0.125	0.324
-300.778	-200.000	0.047	-0.287
-299.764	188.707	0.149	-0.225
-298.749	-0.890	0.184	0.131
-297.735	-9.611	0.073	0.049
-296.720	244.066	0.079	0.134
-295.705	144.953	-0.109	-0.146
-294.691	30.927	-0.115	-0.099
-293.676	-110.080	-0.164	-0.034
-292.662	-200.000	-0.033	-0.205
-291.647	800.000	0.107	-0.398
-290.632	111.111	0.106	-0.129
-289.618	-200.000	0.011	-0.135
-288.603	-69.615	0.310	-0.120
-287.589	203.169	-0.141	0.220
-286.574	800.000	0.097	-0.347
-285.559	-81.651	-0.149	-0.049
-284.545	701.046	0.093	-0.247
-283.530	621.630	0.103	-0.262
-282.516	-53.834	0.148	-0.068
-281.501	-118.257	-0.184	-0.033
-280.486	8.205	-0.312	0.235
-279.472	-200.000	0.006	-0.230
-278.457	-200.000	0.005	-0.108
-277.443	-200.000	-0.026	-0.429
-276.428	37.791	-0.214	0.191
-275.413	-98.878	0.410	0.105
-274.399	-151.879	0.083	-0.006
-273.384	162.701	-0.088	0.124
-272.370	301.512	0.132	0.246
-271.355	-200.000	0.060	0.314
-270.340	-48.586	0.259	0.125
-269.326	-13.004	0.096	0.063
-268.311	-61.385	-0.060	-0.025
-267.297	-67.933	0.285	0.112
-266.282	-200.000	-0.022	-0.166
-265.267	489.618	0.027	0.061
-264.253	-132.475	-0.197	-0.026
-263.238	800.000	0.033	-0.110
-262.224	121.143	0.187	0.234
-261.209	-165.438	-0.206	-0.009
-260.195	359.740	0.011	-0.021
-259.180	11.520	0.202	0.156
-258.165	-142.086	0.190	0.019
-257.151	51.821	-0.228	0.218
-256.136	-16.697	-0.046	0.029
-255.122	5.499	-0.116	-0.086
-254.107	-104.694	-0.089	-0.021
-253.092	-20.660	-0.096	0.059
-252.078	-200.000	-0.052	-0.316
-251.063	51.860	0.033	0.032
-250.049	54.819	-0.206	-0.200
-249.034	-145.903	-0.060	0.005
-248.019	-79.346	-0.353	0.120
-247.005	800.000	-0.054	-0.151
-245.990	-200.000	0.028	-0.226
-244.976	800.000	-0.061	-0.230
-243.961	-200.000	-0.041	-0.381
-242.946	-99.632	-0.088	0.022
-241.932	-65.039	0.172	0.070
-240.917	381.645	-0.049	-0.102
-239.903	43.068	0.360	-0.330
-238.888	557.787	-0.053	-0.127
-237.873	451.167	-0.131	-0.290
-236.859	-142.477	-0.138	-0.014
-235.844	-56.673	0.268	0.119
-234.830	-78.475	-0.272	-0.093
-233.815	-180.019	-0.053	0.001
-232.800	800.000	-0.061	-0.257
-231.786	2.018	0.175	-0.127
-230.771	205.885	0.164	0.257
-229.757	-92.963	-0.237	-0.066
-228.742	-200.000	-0.023	0.265
-227.727	-200.000	-0.027	-0.162
-226.713	800.000	0.077	0.221
-225.698	800.000	0.014	0.048
-224.684	302.878	-0.093	0.173
-223.669	-130.444	-0.172	0.023
-222.655	800.000	-0.017	-0.073
-221.640	-130.824	0.298	0.040
-220.625	255.034	0.070	-0.121
-219.611	-38.799	0.217	0.115
-218.596	-103.812	0.268	0.063
-217.582	140.809	0.067	-0.089
-216.567	234.382	-0.166	0.274
-215.552	-81.817	-0.197	-0.065
-214.538	-200.000	0.023	0.141
-213.523	-200.000	0.001	0.045
-212.509	-21.694	0.175	-0.107
-211.494	-158.412	-0.527	0.031
-210.479	-200.000	-0.013	-0.213
-209.465	-62.357	0.238	0.099
-208.450	-200.000	0.289	-0.001
-207.436	-128.876	0.426	0.060
-206.421	41.727	0.136	-0.124
-205.406	71.791	0.125	-0.131
-204.392	800.000	-0.118	0.337
-203.377	-118.608	0.402	0.071
-202.363	-121.839	0.196	-0.032
-201.348	-72.984	0.149	-0.055
-200.333	-75.182	0.123	0.044
-199.319	72.711	0.033	0.035
-198.304	-30.601	-0.284	-0.161
-197.290	-11.170	0.218	0.144
-196.275	-11.864	0.231	0.152
-195.260	194.706	0.067	-0.102
-194.246	341.899	-0.094	0.184
-193.231	372.455	0.076	-0.156
-192.217	-30.441	0.176	0.100
-191.202	-200.000	-0.053	0.463
-190.187	-11.034	0.183	0.121
-189.173	-62.835	-0.122	-0.051
-188.158	-200.000	-0.021	0.151
-187.144	19.505	-0.127	0.103
-186.129	-24.587	-0.274	0.164
-185.114	336.658	0.149	-0.289
-184.100	-144.626	-0.257	-0.024
-183.085	-3.229	-0.235	-0.164
-182.071	-147.768	-0.216	-0.018
-181.056	800.000	-0.038	0.124
-180.042	-22.122	-0.157	0.095
-179.027	76.591	-0.050	0.053
-178.012	800.000	0.053	0.153
-176.998	800.000	0.043	0.150
-175.983	800.000	0.119	-0.398
-174.969	-38.494	0.331	-0.175
-173.954	353.168	0.102	-0.202
-172.939	-48.522	0.027	-0.013
-171.925	-72.234	-0.350	-0.130
-170.910	313.088	-0.017	0.033
-169.896	-89.362	0.144	0.042
-168.881	-200.000	-0.021	0.178
-167.866	545.351	0.044	-0.105
-166.852	73.591	-0.208	-0.219
-165.837	67.863	-0.055	0.056
-164.823	11.179	-0.136	0.104
-163.808	126.217	-0.230	-0.291
-162.793	39.414	-0.190	0.170
-161.779	-90.039	0.351	0.103
-160.764	621.954	0.105	0.265
-159.750	5.829	0.165	-0.122
-158.735	575.340	-0.049	0.120
-157.720	-5.005	-0.091	-0.063
-156.706	394.706	-0.117	0.245
-155.691	-46.472	0.211	-0.104
-154.677	124.146	-0.076	-0.095
-153.662	151.050	-0.258	-0.352
-152.647	-84.738	0.218	0.069
-151.633	-140.342	-0.128	0.013
-150.618	122.545	-0.215	-0.269
-149.604	210.106	-0.063	0.099
-148.589	-200.000	0.033	-0.179
-147.574	-198.689	-0.026	-0.000
-146.560	-107.959	-0.228	-0.050
-145.545	-120.165	0.136	0.023
-144.531	275.134	0.152	0.270
-143.516	320.746	-0.071	-0.134
-142.502	-58.492	0.325	0.141
-141.487	-200.000	-0.012	-0.163
-140.472	-89.304	0.248	-0.073
-139.458	2.351	-0.196	0.142
-138.443	-46.003	0.064	0.032
-137.429	-132.056	-0.158	-0.021
-136.414	347.277	0.152	-0.299
-135.399	-71.082	0.210	-0.079
-134.385	-200.000	-0.028	0.207
-133.370	-130.485	-0.278	-0.038
-132.356	323.541	-0.054	0.103
-131.341	-200.000	0.023	0.108
-130.326	167.873	-0.126	0.180
-129.312	-120.490	0.295	0.050
-128.297	-0.420	0.079	-0.056
-127.283	135.970	0.065	0.084
-126.268	172.387	-0.032	0.046
-125.253	-38.104	-0.248	-0.132
-124.239	-58.673	-0.215	-0.093
-123.224	186.839	0.156	-0.232
-122.210	-187.669	0.116	-0.002
-121.195	-116.734	0.088	-0.016
-120.180	-200.000	-0.012	0.181
-119.166	-93.369	0.063	0.017
-118.151	-200.000	0.002	0.013
-117.137	131.031	0.108	0.139
-116.122	214.283	-0.161	0.255
-115.107	340.781	0.084	0.164
-114.093	120.383	0.120	0.149
-113.078	162.327	-0.034	0.048
-112.064	26.983	-0.167	0.140
-111.049	269.080	-0.060	0.105
-110.034	-27.125	-0.121	-0.071
-109.020	-12.013	0.228	0.149
-108.005	-122.684	0.215	-0.035
-106.991	59.299	-0.176	0.173
-105.976	172.146	0.149	0.214
-104.962	111.198	0.218	0.262
-103.947	-15.133	0.127	0.081
-102.932	-82.857	-0.107	-0.034
-101.918	800.000	-0.034	0.138
-100.903	295.339	0.093	-0.170
-99.889	28.787	0.150	-0.127
-98.874	-200.000	0.033	0.156
-97.859	70.586	0.157	-0.163
-96.845	-110.858	0.147	-0.030
-95.830	800.000	0.059	0.170
-94.816	271.133	0.132	-0.232
-93.801	-144.233	-0.403	-0.038
-92.786	203.405	0.213	-0.329
-91.772	-105.756	-0.088	-0.020
-90.757	-153.858	0.315	-0.021
-89.743	-131.340	0.090	0.012
-88.728	-62.592	0.382	0.158
-87.713	-119.533	-0.287	-0.050
-86.699	126.435	-0.084	-0.106
-85.684	143.346	-0.188	0.249
-84.670	-33.816	0.061	-0.034
-83.655	-57.308	-0.214	-0.094
-82.640	-140.459	0.077	0.008
-81.626	-200.000	0.048	0.434
-80.611	791.000	-0.014	-0.039
-79.597	-110.987	-0.075	0.015
-78.582	155.459	0.084	-0.115
-77.567	92.743	0.089	-0.100
-76.553	-192.282	-0.282	-0.003
-75.538	136.964	0.034	-0.044
-74.524	264.489	-0.080	-0.139
-73.509	106.656	-0.239	0.283
-72.494	-200.000	-0.004	-0.071
-71.480	-200.000	-0.012	-0.244
-70.465	-84.904	0.230	-0.072
-69.451	549.935	-0.128	0.305
-68.436	-17.012	0.206	0.130
-67.422	-186.253	-0.191	0.003
-66.407	-103.678	-0.344	0.080
-65.392	133.713	-0.079	0.101
-64.378	-54.341	-0.180	-0.081
-63.363	-172.758	0.063	-0.002
-62.349	-110.503	0.347	-0.072
-61.334	513.044	-0.337	-0.783
-60.319	-200.000	0.035	0.380
-59.305	-200.000	-0.045	-0.700
-58.290	98.309	0.798	0.916
-57.276	583.014	0.761	1.863
-56.261	-200.000	74.993	534.721
-55.246	564.018	1301.857	3143.818
-54.232	146.272	2535.541	3392.768
-53.217	120.030	2245.165	2776.014
-52.203	53.755	1761.801	1686.524
-51.188	46.032	1556.398	1436.107
-50.173	43.046	1526.699	1388.123
-49.159	58.770	1562.826	1530.572
-48.144	65.416	1582.316	1595.749
-47.130	46.266	1545.694	1427.633
-46.115	42.521	1531.224	1388.385
-45.100	42.415	1527.717	1384.420
-44.086	42.451	1525.106	1382.243
-43.071	42.258	1523.809	1379.687
-42.057	42.297	1521.642	1377.936
-41.042	42.310	1520.501	1376.939
-40.027	42.269	1518.907	1375.159
-39.013	42.246	1517.800	1373.949
-37.998	42.308	1516.675	1373.297
-36.984	42.306	1515.255	1371.944
-35.969	42.233	1514.405	1370.623
-34.954	42.368	1512.449	1369.716
-33.940	42.393	1510.598	1368.160
-32.925	42.400	1509.187	1366.874
-31.911	42.443	1507.808	1365.862
-30.896	42.392	1506.751	1364.507
-29.881	42.358	1505.756	1363.320
-28.867	42.387	1504.491	1362.314
-27.852	42.386	1502.835	1360.756
-26.838	42.282	1501.446	1358.738
-25.823	42.328	1499.836	1357.540
-24.809	42.476	1497.928	1356.758
-23.794	42.303	1496.942	1354.646
-22.779	42.444	1495.409	1354.156
-21.765	42.422	1494.289	1352.936
-20.750	42.324	1493.221	1351.257
-19.736	42.397	1491.588	1350.219
-18.721	42.436	1490.506	1349.448
-17.706	42.398	1489.029	1347.801
-16.692	42.244	1488.089	1345.863
-15.677	42.281	1487.281	1345.325
-14.663	42.230	1486.155	1343.909
-13.648	42.186	1485.627	1343.088
-12.633	42.185	1484.333	1341.855
-11.619	42.304	1483.454	1341.805
-10.604	42.278	1482.842	1341.023
-9.590	42.154	1481.978	1339.360
-8.575	42.179	1480.896	1338.499
-7.560	42.239	1480.258	1338.269
-6.546	42.282	1479.415	1337.742
-5.531	42.270	1478.666	1336.928
-4.517	42.215	1477.491	1335.444
-3.502	42.290	1476.774	1335.246
-2.487	42.171	1475.676	1333.407
-1.473	42.226	1474.421	1332.584
-0.458	42.258	1473.144	1331.594
0.556	41.458	1464.443	1322.560
1.571	39.081	1437.667	1282.766
2.586	35.602	1375.977	1205.823
3.600	33.676	1293.371	1121.956
4.615	31.683	1245.039	1068.578
5.629	26.104	1185.316	986.822
6.644	12.975	1091.527	842.086
7.659	2.779	1043.452	754.963
8.673	1.191	1037.039	742.483
9.688	0.894	1034.392	739.073
10.702	0.807	1032.216	737.032
11.717	0.789	1031.299	736.222
12.731	4.896	1036.577	759.989
13.746	16.333	1052.770	828.178
14.761	23.529	1060.741	869.794
15.775	23.603	1060.283	869.706
16.790	23.386	1059.518	867.938
17.804	23.230	1058.786	866.500
18.819	23.048	1057.790	864.718
19.834	23.060	1057.268	864.273
20.848	23.145	1056.585	864.055
21.863	23.192	1056.363	864.025
22.877	23.231	1056.124	863.941
23.892	23.150	1055.552	863.002
24.907	23.064	1054.574	861.709
25.921	23.093	1053.741	861.090
26.936	23.105	1053.300	860.711
27.950	23.158	1052.353	860.120
28.965	23.098	1051.147	858.766
29.980	22.941	1049.426	856.523
30.994	22.995	1047.746	855.340
32.009	23.219	1047.035	855.769
33.023	23.337	1046.387	855.733
34.038	23.047	1045.474	853.508
35.053	23.036	1044.445	852.542
36.067	23.144	1043.898	852.539
37.082	23.383	1042.760	852.684
38.096	23.178	1042.841	851.691
39.111	23.296	1042.191	851.652
40.126	23.570	1040.924	851.853
41.140	23.279	1040.428	849.980
42.155	23.098	1038.653	847.586
43.169	22.746	1037.280	844.707
44.184	22.817	1036.042	843.963
45.199	22.978	1034.921	843.742
46.213	22.828	1034.622	842.706
47.228	22.799	1033.265	841.389
48.242	22.963	1032.778	841.700
49.257	23.079	1031.817	841.394
50.271	23.160	1031.004	841.041
51.286	23.271	1030.483	841.072
52.301	23.229	1029.623	840.096
53.315	23.175	1029.289	839.491
54.330	23.207	1028.452	838.886
55.344	23.093	1027.565	837.548
56.359	23.107	1026.611	836.763
57.374	23.158	1025.600	836.104
58.388	22.879	1024.904	834.146
59.403	22.883	1024.030	833.380
60.417	22.985	1022.993	832.942
61.432	22.718	1022.832	831.479
62.447	22.712	1022.001	830.702
63.461	22.880	1021.326	830.874
64.476	23.038	1020.395	830.782
65.490	22.988	1019.624	829.849
66.505	23.006	1018.096	828.616
67.520	22.884	1017.593	827.559
68.534	22.973	1016.886	827.329
69.549	22.854	1015.802	825.820
70.563	22.512	1014.464	823.059
71.578	22.441	1014.157	822.406
72.593	22.492	1013.189	821.786
73.607	22.345	1011.852	819.945
74.622	22.416	1011.108	819.599
75.636	22.607	1010.622	820.021
76.651	22.678	1010.063	819.826
77.666	22.715	1008.767	818.870
78.680	22.603	1008.033	817.685
79.695	22.577	1007.607	817.145
80.709	22.790	1007.069	817.626
81.724	22.866	1006.561	817.491
82.739	22.824	1005.193	816.113
83.753	22.726	1004.832	815.294
84.768	23.073	1004.179	816.297
85.782	23.196	1003.670	816.377
86.797	23.484	1003.017	817.103
87.812	23.422	1001.900	815.836
88.826	23.267	1001.234	814.505
89.841	23.264	1000.347	813.699
90.855	23.321	999.490	813.190
91.870	23.333	998.641	812.485
92.884	23.353	997.804	811.824
93.899	23.313	997.057	810.962
94.914	23.275	995.681	809.593
95.928	23.300	995.121	809.182
96.943	23.407	994.329	808.955
97.957	23.081	993.305	806.565
98.972	22.797	992.204	804.303
99.987	22.717	991.071	802.951
101.001	22.747	990.207	802.314
102.016	23.077	989.866	803.467
103.030	23.197	988.882	803.145
104.045	22.890	988.285	801.195
105.060	22.849	987.002	799.901
106.074	22.680	986.344	798.530
107.089	22.859	984.759	797.986
108.103	23.012	985.064	798.852
109.118	23.146	984.138	798.638
110.133	23.012	982.440	796.585
111.147	22.931	981.713	795.560
112.162	22.929	980.502	794.499
113.176	22.618	979.447	792.175
114.191	22.823	978.826	792.523
115.206	22.835	978.137	791.951
116.220	22.647	976.907	790.040
117.235	22.351	975.918	787.847
118.249	22.512	975.026	787.778
119.264	22.507	974.877	787.567
120.279	22.488	973.701	786.460
121.293	22.386	973.179	785.513
122.308	22.452	972.338	785.061
123.322	22.538	971.335	784.563
124.337	22.658	970.230	784.134
125.352	22.529	969.025	782.520
126.366	22.013	967.702	779.091
127.381	21.755	966.094	776.584
128.395	22.264	965.739	778.486
129.410	23.000	965.408	781.405
130.424	22.983	964.942	780.884
131.439	23.078	963.773	780.289
132.454	23.178	962.816	779.883
133.468	23.081	962.326	778.992
134.483	23.139	961.339	778.377
135.497	23.107	960.882	777.797
136.512	23.288	960.395	778.129
137.527	23.364	959.924	778.013
138.541	23.295	959.085	776.963
139.556	23.413	957.975	776.511
140.570	23.395	957.167	775.709
141.585	23.311	956.553	774.774
142.600	23.531	955.569	774.873
143.614	23.460	954.388	773.535
144.629	23.442	954.618	773.574
145.643	23.725	953.406	773.759
146.658	23.720	952.149	772.646
147.673	23.276	951.381	770.024
148.687	23.344	950.134	769.242
149.702	23.367	949.139	768.470
150.716	22.982	948.320	766.070
151.731	23.075	947.355	765.623
152.746	23.059	946.712	764.970
153.760	23.238	946.188	765.250
154.775	23.391	945.202	765.046
155.789	23.524	944.300	764.823
156.804	23.579	943.283	764.170
157.819	23.449	942.423	762.846
158.833	23.409	941.708	762.026
159.848	23.646	940.904	762.326
160.862	23.645	940.243	761.719
161.877	23.481	939.194	760.096
162.892	23.372	938.512	759.012
163.906	23.400	937.607	758.334
164.921	23.484	936.464	757.701
165.935	23.417	935.692	756.722
166.950	23.514	934.649	756.224
167.964	23.382	933.926	755.011
168.979	23.466	932.414	754.078
169.994	23.575	931.053	753.374
171.008	23.251	930.600	751.565
172.023	23.433	930.226	751.971
173.037	23.686	929.064	752.036
174.052	23.347	927.849	749.552
175.067	23.044	927.169	747.657
176.081	23.092	926.272	747.071
177.096	23.189	925.604	746.874
178.110	23.306	925.029	746.839
179.125	23.131	923.780	745.025
180.140	22.873	922.448	742.799
181.154	22.852	921.930	742.230
182.169	22.948	921.668	742.355
183.183	22.895	921.761	742.141
184.198	23.381	920.850	743.383
185.213	23.373	920.212	742.769
186.227	23.325	919.106	741.609
187.242	23.431	918.653	741.620
188.256	23.385	918.499	741.238
189.271	23.443	917.015	740.216
190.286	23.511	916.853	740.306
191.300	23.400	915.731	738.873
192.315	22.924	914.552	735.871
193.329	22.295	912.699	731.702
194.344	21.754	911.957	728.791
195.359	22.224	912.090	730.790
196.373	23.269	912.251	735.196
197.388	23.450	911.940	735.631
198.402	23.289	911.713	734.711
199.417	23.210	910.487	733.333
200.432	23.310	910.262	733.500
201.446	23.319	908.893	732.372
202.461	22.980	908.501	730.588
203.475	22.974	908.382	730.404
204.490	22.554	906.853	727.376
205.504	21.437	904.740	721.015
206.519	21.826	904.443	722.318
207.534	22.770	904.821	726.442
208.548	22.827	904.643	726.469
209.563	23.193	904.447	727.752
210.577	23.290	903.373	727.221
211.592	23.006	902.798	725.529
212.607	23.404	902.514	726.871
213.621	23.514	901.841	726.714
214.636	23.420	901.169	725.723
215.650	23.402	900.803	725.291
216.665	23.494	899.855	724.840
217.680	23.435	899.617	724.343
218.694	23.576	898.851	724.239
219.709	23.222	898.202	722.209
220.723	22.952	897.022	720.094
221.738	23.004	897.246	720.424
222.753	23.279	896.307	720.725
223.767	23.183	895.727	719.802
224.782	23.358	894.847	719.743
225.796	23.410	894.475	719.590
226.811	23.689	893.673	720.013
227.826	23.279	892.374	717.243
228.840	22.467	890.878	712.696
229.855	22.346	890.348	711.715
230.869	22.769	889.954	713.051
231.884	22.413	889.016	710.795
232.899	22.319	888.588	710.013
233.913	23.133	888.971	713.540
234.928	23.351	888.368	713.871
235.942	23.296	887.524	712.911
236.957	23.161	887.199	712.043
237.972	22.875	886.380	710.174
238.986	22.789	885.399	708.976
240.001	23.100	884.867	709.736
241.015	23.038	884.492	709.126
242.030	23.087	883.512	708.472
243.045	23.274	882.991	708.741
244.059	23.233	882.658	708.249
245.074	23.398	882.331	708.583
246.088	23.479	881.384	708.082
247.103	23.001	880.313	705.253
248.117	22.884	880.032	704.498
249.132	23.620	879.892	707.257
250.147	23.801	879.585	707.669
251.161	23.895	879.426	707.854
252.176	24.139	878.754	708.221
253.190	24.155	877.809	707.459
254.205	24.184	877.644	707.377
255.220	24.373	877.107	707.633
256.234	24.260	876.811	706.883
257.249	24.161	876.176	705.914
258.263	24.132	875.013	704.803
259.278	24.070	874.351	703.963
260.293	24.058	874.557	704.018
261.307	24.237	873.617	703.904
262.322	24.187	872.956	703.112
263.336	24.098	872.166	702.064
264.351	23.632	871.130	699.331
265.366	22.549	869.192	693.456
266.380	21.920	868.168	690.104
267.395	22.922	868.357	694.131
268.409	23.622	868.594	697.011
269.424	23.649	867.843	696.450
270.439	23.792	867.436	696.624
271.453	24.053	866.623	696.930
272.468	23.835	866.461	695.885
273.482	24.104	865.812	696.354
274.497	24.321	865.227	696.670
275.512	24.081	864.490	695.079
276.526	23.453	863.067	691.425
277.541	23.655	862.673	691.835
278.555	24.131	862.177	693.230
279.570	23.800	861.776	691.558
280.585	23.652	860.814	690.151
281.599	23.696	860.611	690.099
282.614	23.961	859.921	690.513
283.628	23.567	858.725	687.964
284.643	23.155	857.997	685.721
285.657	23.472	858.241	687.085
286.672	23.458	857.303	686.219
287.687	22.895	856.272	683.155
288.701	23.075	856.559	684.022
289.716	23.574	856.121	685.540
290.730	23.304	855.153	683.661
291.745	23.263	854.069	682.578
292.760	23.277	852.670	681.452
293.774	22.871	852.833	679.958
294.789	23.749	853.619	683.907
295.803	24.399	853.501	686.253
296.818	24.582	852.776	686.313
297.833	24.722	852.394	686.483
298.847	24.331	851.183	683.947
299.862	24.100	849.947	682.008
300.876	24.121	849.801	681.910
301.891	24.405	849.646	682.812
302.906	24.564	848.968	682.818
303.920	24.171	847.848	680.353
304.935	23.834	847.451	678.690
305.949	24.288	847.377	680.304
306.964	24.479	846.932	680.613
307.979	24.348	845.722	679.082
308.993	24.236	845.160	678.144
310.008	24.508	844.993	678.985
311.022	24.675	844.454	679.128
312.037	24.562	844.089	678.342
313.052	24.329	843.451	676.889
314.066	24.264	842.716	675.989
315.081	23.630	841.192	672.309
316.095	22.657	840.083	667.678
317.110	23.291	840.220	670.129
318.125	24.039	840.849	673.404
319.139	23.886	839.277	671.506
320.154	22.707	837.730	665.764
321.168	22.169	836.736	662.887
322.183	22.808	837.155	665.570
323.197	23.702	837.348	669.033
324.212	23.973	837.189	669.868
325.227	24.029	836.813	669.719
326.241	24.452	836.048	670.634
327.256	24.189	835.660	669.276
328.270	24.142	835.073	668.570
329.285	23.949	834.539	667.360
330.300	23.977	833.777	666.798
331.314	23.486	833.004	664.282
332.329	23.700	832.482	664.608
333.343	24.111	831.884	665.607
334.358	24.433	831.865	666.736
335.373	24.396	831.364	666.140
336.387	24.319	830.737	665.291
337.402	24.753	829.837	666.128
338.416	24.809	829.701	666.169
339.431	24.945	828.900	665.972
340.446	24.828	828.519	665.170
341.460	25.026	828.515	665.845
342.475	24.955	827.949	665.067
343.489	24.659	827.050	663.188
344.504	24.729	826.482	662.935
345.519	24.842	826.511	663.318
346.533	25.415	825.631	664.674
347.548	25.253	825.479	663.894
348.562	25.234	825.036	663.409
349.577	25.077	824.531	662.362
350.592	25.255	823.902	662.457
351.606	25.077	823.317	661.270
352.621	25.030	822.998	660.781
353.635	25.022	822.594	660.369
354.650	25.036	821.882	659.791
355.665	24.721	820.880	657.771
356.679	23.705	819.112	652.564
357.694	23.434	818.452	650.984
358.708	24.153	818.661	653.733
359.723	24.122	817.782	652.859
360.738	24.293	817.647	653.322
361.752	24.732	817.588	654.823
362.767	24.677	817.890	654.806
363.781	24.991	817.516	655.599
364.796	25.364	817.183	656.639
365.810	25.453	816.625	656.455
366.825	25.568	816.472	656.694
367.840	25.471	816.355	656.188
368.854	25.262	815.522	654.700
369.869	24.974	814.623	652.871
370.883	24.859	813.536	651.521
371.898	24.758	813.256	650.875
372.913	24.828	812.294	650.299
373.927	24.810	811.623	649.639
374.942	24.951	811.449	649.954
375.956	24.967	810.977	649.579
376.971	25.316	809.865	649.893
377.986	25.181	810.021	649.473
379.000	25.470	809.339	649.912
380.015	25.512	809.313	649.988
381.029	25.385	808.231	648.603
382.044	25.149	807.940	647.460
383.059	25.344	807.272	647.570
384.073	25.392	807.117	647.561
385.088	25.455	806.489	647.226
386.102	25.466	805.886	646.726
387.117	25.298	805.004	645.356
388.132	25.292	804.145	644.589
389.146	25.284	803.556	644.031
390.161	24.517	803.113	640.867
391.175	24.476	802.646	640.290
392.190	24.927	802.600	641.815
393.205	25.336	801.619	642.435
394.219	24.206	800.474	637.423
395.234	22.578	798.725	630.159
396.248	21.772	797.342	626.133
397.263	22.886	797.796	630.412
398.278	24.573	799.328	637.594
399.292	25.134	799.024	639.296
400.307	24.860	798.397	637.762
401.321	24.721	798.358	637.180
402.336	24.894	797.589	637.123
403.350	25.039	797.537	637.542
404.365	25.570	797.573	639.405
405.380	25.902	797.199	640.228
406.394	25.985	797.209	640.473
407.409	26.239	796.656	640.874
408.423	26.076	796.406	640.039
409.438	26.013	795.851	639.310
410.453	26.104	795.495	639.291
411.467	26.250	795.025	639.375
412.482	26.191	794.364	638.579
413.496	26.232	793.609	638.057
414.511	26.392	793.826	638.743
415.526	26.249	793.263	637.728
416.540	26.145	792.754	636.893
417.555	26.258	791.990	636.622
418.569	25.873	791.377	634.717
419.584	25.841	790.880	634.152
420.599	25.866	790.349	633.755
421.613	89.992	1251.086	1344.688
422.628	76.651	1318.258	1344.817
