DTS Sentinel unit serial number:	SN413079Multiplexer serial number:	ORYXHardware model number:	OX4-SRSoftware version number:	ORYX F/W v4.00 Oryx Data Collector v3.7.2.0data status	okinstallation	princeton_trtdifferential loss correction	single-endedforward channel	channel 3reverse channel	N/Adate	2019/09/11time	23:58:11forward acquisition time	60.00reverse acquisition time	0.00gamma	496.2192k internal	0.2319k external	0.2319temperature offset calibration	1.0060default loss term (dB/km)	0.3790temperature slope calibration	1.0000multiplexer offset coefficient	1.0000multiplexer slope coefficient	1.0000fibre end	0.00T internal ref (°C)	33.77T ext. ref 1 (°C)	2.00T ext. ref 2 (°C)	28.32length (m)	temperature (°C)	Stokes	anti-Stokes-747.200	376.226	0.161	-0.333
-746.185	-62.633	0.134	0.056
-745.171	11.520	-0.273	0.211
-744.156	-58.194	0.185	-0.081
-743.142	-200.000	0.004	0.304
-742.127	82.387	0.310	0.341
-741.112	219.526	-0.073	-0.118
-740.098	43.790	0.318	0.295
-739.083	-200.000	-0.005	0.196
-738.069	-22.992	0.132	0.080
-737.054	-200.000	-0.019	0.137
-736.039	115.134	0.025	0.031
-735.025	-115.555	0.152	-0.029
-734.010	68.828	0.086	-0.089
-732.996	800.000	-0.085	-0.330
-731.981	800.000	0.004	0.012
-730.966	-43.067	0.069	-0.035
-729.952	195.033	-0.204	-0.313
-728.937	709.590	-0.124	-0.332
-727.923	800.000	-0.051	0.188
-726.908	-129.309	-0.112	0.016
-725.894	800.000	0.024	0.087
-724.879	-131.538	-0.506	0.067
-723.864	35.127	0.054	-0.048
-722.850	-200.000	-0.016	-0.402
-721.835	800.000	-0.036	0.109
-720.821	-21.122	-0.187	-0.115
-719.806	-80.699	0.289	-0.097
-718.791	108.945	0.092	0.112
-717.777	-200.000	-0.015	-0.167
-716.762	800.000	0.083	-0.292
-715.748	2.795	0.321	-0.235
-714.733	-87.102	-0.225	-0.069
-713.718	-108.069	0.289	-0.063
-712.704	102.871	-0.129	0.152
-711.689	127.785	0.297	0.382
-710.675	12.792	-0.087	-0.068
-709.660	175.007	-0.082	-0.120
-708.645	800.000	0.029	0.099
-707.631	88.806	0.100	0.113
-706.616	112.830	-0.176	0.216
-705.602	-200.000	0.018	0.261
-704.587	42.230	-0.145	-0.133
-703.572	-46.162	-0.383	-0.191
-702.558	286.510	0.110	0.200
-701.543	31.388	0.357	0.310
-700.529	481.783	0.076	-0.174
-699.514	84.375	0.138	-0.152
-698.499	-200.000	0.048	-0.226
-697.485	21.559	0.074	-0.061
-696.470	421.498	-0.170	-0.367
-695.456	-79.361	-0.234	-0.080
-694.441	-200.000	0.024	0.175
-693.426	544.648	0.125	-0.302
-692.412	-47.177	0.335	0.165
-691.397	-200.000	-0.031	0.229
-690.383	-58.353	0.221	-0.097
-689.368	-200.000	-0.016	0.119
-688.354	-59.204	0.366	-0.159
-687.339	-155.305	0.328	-0.022
-686.324	-11.391	-0.174	0.115
-685.310	-99.059	-0.395	-0.101
-684.295	800.000	0.020	-0.065
-683.281	-132.364	-0.044	0.006
-682.266	-200.000	-0.009	0.175
-681.251	-108.257	-0.157	-0.034
-680.237	-45.672	0.088	0.044
-679.222	584.305	-0.046	-0.115
-678.208	-200.000	-0.017	0.128
-677.193	157.962	0.126	0.176
-676.178	800.000	-0.015	-0.064
-675.164	5.942	-0.168	0.125
-674.149	388.090	-0.158	0.329
-673.135	-84.229	0.264	0.084
-672.120	179.374	-0.051	-0.075
-671.105	43.017	0.189	-0.174
-670.091	-200.000	0.013	0.092
-669.076	-70.902	0.139	-0.053
-668.062	63.227	-0.120	-0.121
-667.047	686.584	0.104	0.274
-666.032	549.873	0.082	0.199
-665.018	-86.655	0.094	0.029
-664.003	9.686	-0.135	0.104
-662.989	32.551	0.208	0.182
-661.974	251.259	0.147	-0.253
-660.959	249.938	0.149	-0.255
-659.945	800.000	-0.040	-0.172
-658.930	-77.922	0.189	0.066
-657.916	800.000	-0.068	-0.227
-656.901	156.959	0.149	-0.208
-655.886	800.000	-0.076	0.253
-654.872	-200.000	0.017	-0.076
-653.857	800.000	-0.037	0.157
-652.843	79.523	0.225	0.243
-651.828	-158.830	-0.170	0.010
-650.814	-200.000	-0.018	0.112
-649.799	-37.237	0.194	0.104
-648.784	24.209	-0.260	-0.216
-647.770	800.000	-0.080	-0.250
-646.755	233.781	0.043	0.071
-645.741	61.374	-0.146	-0.147
-644.726	-78.416	0.251	-0.087
-643.711	-102.746	-0.257	0.062
-642.697	14.909	-0.048	-0.038
-641.682	-43.673	-0.220	-0.112
-640.668	104.710	0.063	0.075
-639.653	-36.135	-0.309	-0.168
-638.638	-93.501	0.101	-0.028
-637.624	-137.234	-0.044	-0.005
-636.609	107.920	-0.070	-0.084
-635.595	-3.705	-0.137	0.096
-634.580	800.000	0.029	-0.091
-633.565	32.197	-0.204	0.177
-632.551	-162.613	-0.276	-0.014
-631.536	387.639	-0.191	-0.398
-630.522	210.696	0.044	-0.070
-629.507	431.524	0.051	-0.111
-628.492	800.000	-0.047	0.165
-627.478	66.718	-0.275	0.281
-626.463	800.000	-0.060	-0.219
-625.449	-200.000	-0.010	-0.113
-624.434	-200.000	0.020	0.122
-623.419	-65.734	-0.224	0.090
-622.405	-136.366	0.128	0.015
-621.390	283.607	-0.117	-0.212
-620.376	328.977	-0.018	-0.035
-619.361	-83.679	0.181	-0.058
-618.346	-34.471	-0.128	-0.071
-617.332	-200.000	-0.002	0.231
-616.317	800.000	0.044	0.194
-615.303	-62.053	0.124	0.052
-614.288	-87.247	0.194	-0.059
-613.273	-64.823	0.184	0.075
-612.259	301.067	-0.110	0.204
-611.244	201.572	0.165	-0.256
-610.230	-55.738	-0.054	0.024
-609.215	65.989	0.156	0.159
-608.201	-9.441	0.266	-0.179
-607.186	54.040	-0.032	-0.031
-606.171	355.253	-0.126	0.252
-605.157	591.621	0.066	0.164
-604.142	-93.058	0.135	0.038
-603.128	-200.000	-0.023	0.205
-602.113	172.948	-0.152	0.221
-601.098	176.008	-0.024	-0.036
-600.084	18.607	-0.212	0.171
-599.069	359.050	-0.041	-0.082
-598.055	-108.855	-0.299	-0.064
-597.040	-123.292	0.074	0.012
-596.025	-25.769	0.124	-0.073
-595.011	-81.282	0.253	-0.084
-593.996	-114.800	0.167	-0.032
-592.982	125.818	-0.047	-0.059
-591.967	-200.000	0.050	-0.259
-590.952	200.955	-0.125	-0.194
-589.938	76.769	0.144	-0.154
-588.923	800.000	0.121	0.405
-587.909	-200.000	0.025	0.593
-586.894	-134.673	-0.097	-0.012
-585.879	44.611	0.135	-0.125
-584.865	-64.454	0.284	0.116
-583.850	-131.741	0.094	0.012
-582.836	-200.000	0.013	-0.378
-581.821	-200.000	-0.040	0.292
-580.806	-78.425	-0.067	0.023
-579.792	-43.164	0.335	0.171
-578.777	47.813	-0.157	0.147
-577.763	-155.186	-0.203	0.013
-576.748	77.134	0.224	-0.239
-575.733	38.916	-0.110	0.098
-574.719	-77.624	-0.308	-0.107
-573.704	50.341	-0.198	-0.188
-572.690	235.460	0.030	0.050
-571.675	-56.575	-0.258	-0.115
-570.661	-95.972	0.296	0.079
-569.646	134.062	-0.139	0.182
-568.631	-49.269	-0.351	0.168
-567.617	-200.000	0.036	-0.275
-566.602	176.014	0.180	-0.262
-565.588	-200.000	-0.049	-0.339
-564.573	419.645	-0.170	-0.366
-563.558	-200.000	0.019	0.218
-562.544	-200.000	0.007	-0.203
-561.529	-113.754	0.012	0.002
-560.515	-145.834	-0.465	-0.042
-559.500	-118.081	-0.306	-0.055
-558.485	96.034	-0.107	0.122
-557.471	-200.000	0.016	0.148
-556.456	203.737	0.047	-0.073
-555.442	-17.400	0.188	-0.119
-554.427	43.021	0.127	-0.117
-553.412	-200.000	0.022	0.141
-552.398	-42.315	0.065	0.033
-551.383	130.628	-0.121	0.155
-550.369	-95.068	0.017	-0.005
-549.354	800.000	-0.081	-0.235
-548.339	25.915	-0.197	-0.165
-547.325	32.991	-0.335	-0.292
-546.310	-73.703	-0.116	0.042
-545.296	-48.419	0.199	0.096
-544.281	-200.000	0.039	-0.285
-543.266	-147.964	-0.371	0.031
-542.252	223.652	0.189	0.306
-541.237	353.897	0.131	-0.262
-540.223	-200.000	0.008	-0.103
-539.208	-15.678	0.137	-0.088
-538.193	221.948	-0.176	0.284
-537.179	800.000	0.099	-0.320
-536.164	111.658	0.056	0.068
-535.150	-145.379	-0.325	-0.029
-534.135	-121.573	0.070	-0.012
-533.121	-57.631	0.036	-0.016
-532.106	-200.000	0.040	-0.400
-531.091	800.000	-0.087	0.247
-530.077	-104.360	-0.413	-0.096
-529.062	493.107	-0.088	0.202
-528.048	122.910	0.019	0.024
-527.033	302.310	0.042	0.078
-526.018	-45.881	-0.106	0.053
-525.004	40.714	-0.151	0.137
-523.989	-200.000	-0.013	0.307
-522.975	119.148	0.052	-0.064
-521.960	-20.856	0.285	0.176
-520.945	429.479	0.171	-0.370
-519.931	-99.846	0.311	0.078
-518.916	10.143	0.172	-0.131
-517.902	78.219	-0.217	-0.232
-516.887	-144.128	-0.128	0.012
-515.872	-200.000	0.011	0.088
-514.858	-74.231	0.197	0.071
-513.843	-54.179	-0.201	0.091
-512.829	800.000	0.030	-0.114
-511.814	-200.000	-0.076	-0.355
-510.799	800.000	-0.063	-0.246
-509.785	800.000	-0.021	0.087
-508.770	-200.000	0.023	0.163
-507.756	-200.000	0.000	0.081
-506.741	-103.473	0.167	0.039
-505.726	105.838	-0.182	-0.216
-504.712	281.519	0.056	-0.100
-503.697	183.890	-0.140	-0.207
-502.683	-200.000	-0.013	0.329
-501.668	68.092	0.114	-0.117
-500.653	-118.571	0.272	-0.048
-499.639	-35.344	0.351	0.192
-498.624	-71.327	0.224	0.084
-497.610	72.505	-0.195	-0.203
-496.595	-121.136	0.191	-0.032
-495.581	-2.135	0.091	0.064
-494.566	489.889	0.118	-0.270
-493.551	-144.891	-0.146	-0.013
-492.537	105.055	-0.167	-0.197
-491.522	-161.036	0.288	-0.015
-490.508	-66.961	0.234	0.093
-489.493	212.926	0.032	-0.050
-488.478	-20.025	0.168	0.104
-487.464	-200.000	0.019	-0.186
-486.449	-167.663	0.365	0.015
-485.435	37.908	0.196	-0.175
-484.420	342.212	-0.063	0.124
-483.405	191.571	0.120	0.181
-482.391	-200.000	-0.013	0.101
-481.376	682.612	0.158	0.413
-480.362	800.000	0.068	-0.188
-479.347	52.195	-0.154	-0.147
-478.332	130.027	0.138	-0.176
-477.318	3.895	-0.102	-0.074
-476.303	-151.959	0.194	0.014
-475.289	4.457	0.234	0.172
-474.274	69.822	-0.247	0.255
-473.259	-44.571	-0.325	-0.163
-472.245	-76.156	0.224	0.079
-471.230	629.724	0.081	0.206
-470.216	-200.000	-0.070	-0.344
-469.201	125.281	-0.075	-0.094
-468.186	388.446	0.058	0.120
-467.172	221.707	-0.088	0.142
-466.157	-97.912	-0.286	-0.074
-465.143	800.000	0.011	0.045
-464.128	63.137	-0.210	0.210
-463.113	-174.887	0.481	0.014
-462.099	-200.000	-0.024	-0.199
-461.084	136.452	0.119	0.156
-460.070	-146.065	0.064	-0.006
-459.055	-200.000	-0.010	-0.121
-458.040	-128.362	-0.043	-0.006
-457.026	-99.629	0.365	0.092
-456.011	800.000	-0.056	0.201
-454.997	800.000	0.135	-0.460
-453.982	800.000	-0.116	-0.337
-452.968	-200.000	0.009	-0.162
-451.953	15.372	-0.259	0.203
-450.938	-96.158	0.128	-0.034
-449.924	-126.203	0.137	-0.020
-448.909	402.653	-0.132	-0.279
-447.895	787.245	-0.058	0.158
-446.880	-52.537	-0.218	0.101
-445.865	19.639	-0.145	0.116
-444.851	-31.556	-0.087	-0.049
-443.836	205.317	0.047	0.073
-442.822	800.000	-0.024	-0.086
-441.807	-83.072	-0.216	0.070
-440.792	-95.603	0.347	-0.093
-439.778	800.000	-0.077	0.282
-438.763	-200.000	-0.002	-0.103
-437.749	421.817	0.054	0.116
-436.734	60.015	-0.060	0.059
-435.719	-200.000	-0.025	-0.262
-434.705	800.000	0.041	-0.132
-433.690	800.000	0.088	-0.299
-432.676	22.003	-0.104	-0.085
-431.661	-74.472	-0.169	0.061
-430.646	800.000	-0.080	-0.229
-429.632	222.927	0.171	-0.276
-428.617	39.441	0.075	0.067
-427.603	351.802	-0.021	-0.042
-426.588	-17.881	-0.264	-0.166
-425.573	-7.443	-0.097	-0.066
-424.559	800.000	0.049	0.167
-423.544	91.256	0.193	-0.216
-422.530	60.674	0.305	-0.302
-421.515	-200.000	-0.002	-0.012
-420.500	-51.025	-0.208	-0.097
-419.486	284.377	0.133	-0.239
-418.471	19.529	-0.114	-0.092
-417.457	-200.000	0.007	-0.105
-416.442	-116.664	-0.108	0.020
-415.428	224.494	-0.200	0.323
-414.413	20.226	-0.241	0.195
-413.398	-44.843	0.156	0.078
-412.384	33.056	0.203	-0.176
-411.369	45.033	0.102	0.094
-410.355	85.424	-0.106	0.116
-409.340	-200.000	-0.007	0.188
-408.325	-200.000	-0.056	0.275
-407.311	-107.972	-0.268	-0.058
-406.296	30.137	-0.063	0.054
-405.282	249.088	0.138	-0.233
-404.267	114.451	-0.073	-0.089
-403.252	800.000	0.086	-0.260
-402.238	-131.722	-0.033	0.004
-401.223	313.017	0.120	0.225
-400.209	292.572	-0.074	0.134
-399.194	152.749	0.126	-0.172
-398.179	800.000	-0.041	-0.137
-397.165	-120.853	0.274	-0.046
-396.150	-90.572	-0.117	-0.034
-395.136	-168.163	-0.245	0.009
-394.121	-69.459	-0.236	-0.090
-393.106	21.679	-0.208	0.169
-392.092	-26.213	0.171	-0.100
-391.077	91.473	-0.222	-0.248
-390.063	433.363	-0.061	0.132
-389.048	800.000	-0.035	-0.148
-388.033	69.752	-0.240	0.246
-387.019	26.135	0.298	0.248
-386.004	534.497	0.064	0.151
-384.990	-191.433	-0.164	-0.002
-383.975	329.649	0.030	-0.057
-382.960	98.280	0.141	-0.162
-381.946	-120.141	0.065	-0.011
-380.931	9.977	-0.159	-0.120
-379.917	800.000	-0.001	-0.005
-378.902	119.086	0.153	0.189
-377.888	-72.578	0.138	0.051
-376.873	800.000	0.015	0.048
-375.858	37.462	0.202	-0.178
-374.844	-104.028	0.241	-0.056
-373.829	800.000	-0.103	-0.413
-372.815	695.224	0.146	-0.383
-371.800	-200.000	-0.030	-0.141
-370.785	31.378	-0.112	-0.096
-369.771	-127.416	0.156	-0.023
-368.756	-122.410	-0.246	0.040
-367.742	-169.630	0.278	-0.010
-366.727	376.732	0.070	0.143
-365.712	-123.636	-0.126	0.020
-364.698	165.532	-0.144	0.203
-363.683	-62.285	-0.163	0.068
-362.669	26.561	0.106	0.088
-361.654	-15.644	-0.184	0.117
-360.639	-57.303	-0.100	-0.044
-359.625	9.057	-0.204	0.153
-358.610	54.316	-0.023	0.022
-357.596	226.904	0.098	-0.158
-356.581	143.911	0.079	-0.104
-355.566	-200.000	0.060	-0.341
-354.552	-24.919	-0.218	-0.129
-353.537	-200.000	-0.022	0.213
-352.523	-76.376	-0.466	0.163
-351.508	33.610	0.164	-0.142
-350.493	-200.000	0.009	-0.079
-349.479	494.244	-0.085	0.195
-348.464	32.596	0.142	0.123
-347.450	80.964	0.152	0.164
-346.435	-190.718	-0.264	0.003
-345.420	365.367	-0.135	-0.270
-344.406	-200.000	-0.037	-0.245
-343.391	800.000	0.040	0.173
-342.377	427.091	0.084	-0.181
-341.362	-75.214	0.070	-0.025
-340.348	-200.000	-0.053	-0.259
-339.333	-12.184	0.225	0.147
-338.318	-126.672	-0.185	-0.027
-337.304	20.592	0.054	-0.044
-336.289	-66.069	-0.303	-0.120
-335.275	136.888	-0.039	0.051
-334.260	-200.000	-0.008	-0.131
-333.245	-200.000	-0.037	-0.304
-332.231	-0.786	0.360	-0.254
-331.216	-32.984	0.111	-0.061
-330.202	75.379	-0.165	-0.173
-329.187	118.033	0.078	-0.095
-328.172	-126.935	-0.203	0.030
-327.158	-114.082	-0.266	0.051
-326.143	-41.863	0.105	0.054
-325.129	-200.000	-0.017	0.123
-324.114	800.000	-0.068	0.240
-323.099	-22.354	-0.143	0.087
-322.085	-82.632	-0.138	0.045
-321.070	48.717	0.358	0.334
-320.056	780.142	-0.052	-0.143
-319.041	29.078	-0.298	0.252
-318.026	-130.694	0.284	0.038
-317.012	-87.231	0.156	0.047
-315.997	-81.754	0.295	-0.096
-314.983	286.137	0.036	-0.065
-313.968	298.184	0.026	-0.047
-312.953	29.758	-0.051	-0.044
-311.939	-200.000	-0.029	-0.196
-310.924	800.000	0.028	0.122
-309.910	-50.528	0.247	-0.116
-308.895	167.248	0.114	-0.161
-307.880	-69.978	-0.216	0.082
-306.866	192.276	0.182	-0.273
-305.851	-105.590	0.429	-0.097
-304.837	375.245	-0.224	0.453
-303.822	-200.000	0.029	0.285
-302.807	-115.101	0.124	-0.023
-301.793	1.909	-0.170	-0.122
-300.778	591.281	-0.045	0.110
-299.764	-200.000	0.017	0.123
-298.749	-200.000	0.048	-0.227
-297.735	800.000	0.128	0.401
-296.720	1.921	-0.301	0.216
-295.705	-2.380	-0.252	-0.175
-294.691	-200.000	0.003	-0.142
-293.676	32.787	-0.384	0.330
-292.662	160.946	-0.051	0.071
-291.647	800.000	0.096	0.290
-290.632	89.281	0.220	-0.244
-289.618	-114.054	-0.485	-0.093
-288.603	800.000	0.069	0.217
-287.589	219.077	0.045	0.071
-286.574	-71.887	-0.072	0.027
-285.559	107.438	-0.147	-0.173
-284.545	-141.256	-0.201	0.020
-283.530	-127.594	0.244	-0.035
-282.516	-73.718	0.154	0.056
-281.501	-24.259	-0.196	-0.116
-280.486	-12.517	0.094	-0.061
-279.472	58.079	-0.173	0.169
-278.457	800.000	0.076	0.323
-277.443	-1.062	-0.094	-0.066
-276.428	800.000	-0.062	0.269
-275.413	-71.216	0.326	0.121
-274.399	256.134	0.202	0.345
-273.384	118.688	0.232	0.285
-272.370	-153.705	-0.408	0.028
-271.355	297.542	0.058	0.106
-270.340	-143.431	0.217	0.021
-269.326	-45.773	0.228	0.112
-268.311	-27.792	-0.232	-0.133
-267.297	800.000	0.034	-0.095
-266.282	44.565	-0.151	-0.138
-265.267	83.606	-0.066	-0.072
-264.253	109.818	-0.180	-0.214
-263.238	85.603	0.185	0.202
-262.224	-125.036	0.305	0.047
-261.209	800.000	-0.053	0.212
-260.195	-200.000	-0.028	-0.338
-259.180	163.020	0.161	-0.225
-258.165	38.679	0.394	-0.349
-257.151	-200.000	0.018	-0.130
-256.136	-84.890	-0.266	-0.083
-255.122	-136.749	0.212	-0.024
-254.107	-200.000	-0.008	0.074
-253.092	191.156	0.300	-0.449
-252.078	-115.407	-0.265	0.050
-251.063	488.007	0.044	0.100
-250.049	411.108	0.118	0.248
-249.034	262.201	0.043	-0.075
-248.019	305.642	-0.115	0.212
-247.005	266.814	0.231	0.401
-245.990	-200.000	-0.011	0.534
-244.976	-18.109	0.194	0.121
-243.961	-75.916	0.279	0.098
-242.946	-143.419	-0.293	-0.028
-241.932	79.127	0.198	0.211
-240.917	800.000	-0.136	-0.455
-239.903	-102.416	-0.086	0.020
-238.888	-24.791	-0.112	0.066
-237.873	-42.084	0.256	0.130
-236.859	311.251	-0.124	0.230
-235.844	-200.000	0.007	-0.144
-234.830	-85.191	0.193	0.060
-233.815	-200.000	0.015	0.408
-232.800	800.000	-0.137	0.375
-231.786	40.026	0.308	-0.274
-230.771	-200.000	-0.116	-0.581
-229.757	21.341	-0.153	-0.123
-228.742	170.579	0.297	0.422
-227.727	-43.220	0.225	0.113
-226.713	13.412	-0.272	0.209
-225.698	-38.039	-0.287	0.151
-224.684	93.369	0.037	-0.041
-223.669	109.512	0.109	0.130
-222.655	-200.000	-0.014	-0.225
-221.640	-43.340	0.213	-0.107
-220.625	-52.630	0.151	0.069
-219.611	-200.000	-0.002	0.117
-218.596	124.431	-0.136	0.170
-217.582	-3.144	0.237	-0.163
-216.567	670.407	0.037	0.094
-215.552	-200.000	-0.004	0.174
-214.538	800.000	0.013	-0.050
-213.523	685.906	-0.099	-0.257
-212.509	699.349	-0.039	-0.101
-211.494	-79.751	0.216	-0.072
-210.479	800.000	-0.020	-0.076
-209.465	-66.515	0.363	0.143
-208.450	-73.999	0.432	-0.155
-207.436	-23.162	0.079	-0.047
-206.421	-200.000	0.020	0.322
-205.406	-200.000	-0.014	-0.128
-204.392	-200.000	0.021	-0.170
-203.377	-200.000	0.369	0.001
-202.363	-195.553	-0.365	0.003
-201.348	800.000	-0.046	0.147
-200.333	666.001	-0.020	-0.052
-199.319	209.311	-0.033	0.052
-198.304	223.467	-0.256	-0.408
-197.290	800.000	-0.066	0.204
-196.275	-169.227	-0.137	0.005
-195.260	-150.783	0.081	0.006
-194.246	92.907	-0.090	0.100
-193.231	-70.867	-0.251	-0.094
-192.217	101.845	0.279	-0.323
-191.202	800.000	-0.042	-0.162
-190.187	-109.765	0.120	-0.025
-189.173	-200.000	0.003	0.226
-188.158	-200.000	0.000	0.146
-187.144	147.043	-0.081	0.107
-186.129	217.263	0.093	0.147
-185.114	-200.000	0.039	0.244
-184.100	-146.807	0.215	0.018
-183.085	800.000	0.097	0.334
-182.071	639.060	0.081	0.204
-181.056	-107.272	0.188	-0.041
-180.042	556.529	-0.034	0.081
-179.027	-200.000	0.016	0.298
-178.012	-89.909	0.238	0.069
-176.998	390.596	-0.134	0.276
-175.983	110.585	0.230	0.273
-174.969	-97.864	0.228	-0.058
-173.954	66.407	-0.101	0.102
-172.939	-94.357	-0.229	-0.062
-171.925	-66.246	-0.383	0.151
-170.910	121.016	-0.282	-0.347
-169.896	-187.524	-0.122	0.002
-168.881	-100.533	-0.527	-0.129
-167.866	-102.143	0.260	0.062
-166.852	-145.036	-0.157	0.014
-165.837	800.000	0.073	0.285
-164.823	173.056	-0.087	0.124
-163.808	40.440	-0.079	0.070
-162.793	588.803	0.103	0.250
-161.779	484.316	-0.035	0.080
-160.764	98.831	-0.196	-0.224
-159.750	287.061	-0.161	0.288
-158.735	-200.000	-0.014	0.141
-157.720	-50.729	-0.080	0.037
-156.706	-21.505	0.232	0.140
-155.691	-123.306	0.134	-0.021
-154.677	-6.636	0.203	-0.137
-153.662	-139.621	-0.178	-0.019
-152.647	-187.666	0.274	0.004
-151.633	539.884	-0.043	-0.101
-150.618	778.849	-0.082	-0.223
-149.604	-47.988	-0.106	0.051
-148.589	3.984	0.193	-0.139
-147.574	-100.748	0.186	-0.045
-146.560	-70.765	-0.251	0.093
-145.545	800.000	0.095	-0.283
-144.531	-160.794	0.159	0.008
-143.516	249.016	0.122	0.204
-142.502	365.330	-0.141	0.280
-141.487	574.602	-0.109	0.262
-140.472	133.443	0.182	-0.233
-139.458	331.812	0.138	-0.262
-138.443	800.000	-0.088	0.246
-137.429	79.935	-0.122	0.129
-136.414	-154.624	0.205	0.014
-135.399	-130.546	-0.159	-0.021
-134.385	-200.000	0.061	-0.439
-133.370	-200.000	0.011	-0.274
-132.356	-174.562	-0.205	-0.006
-131.341	-81.791	0.146	-0.047
-130.326	-200.000	0.029	0.146
-129.312	-21.256	-0.193	-0.117
-128.297	-47.163	0.124	0.060
-127.283	129.439	0.075	0.094
-126.268	-43.556	-0.147	-0.073
-125.253	-59.945	-0.142	-0.060
-124.239	67.045	0.141	0.142
-123.224	110.994	0.184	-0.219
-122.210	224.438	0.060	-0.096
-121.195	196.498	-0.073	-0.110
-120.180	530.061	0.146	0.341
-119.166	-200.000	-0.036	0.335
-118.151	220.428	0.089	0.141
-117.137	47.785	-0.245	0.226
-116.122	27.061	-0.307	0.254
-115.107	7.659	-0.126	-0.093
-114.093	100.450	0.239	-0.273
-113.078	127.146	0.165	0.207
-112.064	-200.000	-0.022	0.104
-111.049	89.628	-0.102	0.112
-110.034	-48.564	0.150	-0.071
-109.020	0.129	-0.138	-0.097
-108.005	800.000	0.106	0.389
-106.991	-200.000	-0.005	0.021
-105.976	-200.000	0.028	0.257
-104.962	-200.000	-0.018	0.171
-103.947	12.435	0.248	0.189
-102.932	97.539	0.040	-0.046
-101.918	-200.000	-0.004	-0.221
-100.903	-118.452	0.292	-0.051
-99.889	-200.000	0.018	-0.103
-98.874	-200.000	0.090	-0.439
-97.859	800.000	-0.021	-0.084
-96.845	49.396	0.198	-0.184
-95.830	-185.629	0.050	0.001
-94.816	107.226	-0.227	0.266
-93.801	-7.570	-0.312	0.208
-92.786	234.629	0.364	-0.592
-91.772	-13.983	0.105	-0.067
-90.757	233.199	-0.095	-0.154
-89.743	114.763	-0.139	0.167
-88.728	-88.366	-0.052	-0.015
-87.713	-142.373	-0.278	0.027
-86.699	91.016	0.075	0.083
-85.684	-35.900	-0.164	0.087
-84.670	-175.135	-0.064	0.002
-83.655	-113.615	-0.286	-0.055
-82.640	-90.261	0.474	-0.136
-81.626	48.049	0.178	0.164
-80.611	-102.413	0.396	-0.093
-79.597	800.000	-0.039	0.124
-78.582	560.457	-0.096	0.228
-77.567	-26.609	-0.146	0.084
-76.553	-200.000	-0.003	-0.057
-75.538	-200.000	0.031	-0.241
-74.524	800.000	0.057	-0.180
-73.509	8.545	-0.078	-0.058
-72.494	-97.734	0.322	-0.082
-71.480	157.499	0.097	-0.132
-70.465	-30.958	0.250	0.139
-69.451	202.371	-0.117	-0.178
-68.436	-58.291	-0.064	0.027
-67.422	110.800	0.163	-0.193
-66.407	201.503	-0.169	0.257
-65.392	-200.000	0.014	-0.105
-64.378	-57.991	-0.092	0.039
-63.363	-200.000	0.028	-0.267
-62.349	800.000	0.171	0.564
-61.334	85.381	-0.818	-0.885
-60.319	111.694	0.148	0.176
-59.305	800.000	-0.326	-1.045
-58.290	103.792	0.690	0.799
-57.276	571.448	0.543	1.301
-56.261	-200.000	96.770	586.710
-55.246	549.392	1386.442	3273.013
-54.232	155.967	2576.240	3497.907
-53.217	112.219	2170.860	2584.787
-52.203	44.037	1710.814	1544.432
-51.188	37.054	1523.789	1327.945
-50.173	34.595	1497.178	1288.132
-49.159	54.577	1546.803	1468.251
-48.144	56.470	1565.467	1498.890
-47.130	37.277	1522.970	1328.548
-46.115	34.095	1507.948	1293.794
-45.100	33.942	1504.378	1289.642
-44.086	33.873	1502.854	1287.814
-43.071	33.767	1501.064	1285.511
-42.057	33.798	1499.318	1284.175
-41.042	33.812	1497.887	1282.994
-40.027	33.773	1496.852	1281.790
-39.013	33.740	1495.197	1280.101
-37.998	33.762	1493.960	1279.143
-36.984	33.730	1492.634	1277.741
-35.969	33.785	1491.442	1277.038
-34.954	33.734	1489.943	1275.363
-33.940	33.820	1488.553	1274.698
-32.925	33.845	1487.579	1273.978
-31.911	33.783	1486.128	1272.275
-30.896	33.821	1484.830	1271.366
-29.881	33.780	1483.963	1270.298
-28.867	33.981	1481.853	1269.780
-27.852	33.837	1480.424	1267.545
-26.838	33.770	1479.080	1265.902
-25.823	33.820	1477.788	1265.078
-24.809	33.849	1475.742	1263.465
-23.794	33.817	1474.341	1262.004
-22.779	33.808	1472.957	1260.713
-21.765	33.825	1471.998	1259.953
-20.750	33.814	1471.248	1259.190
-19.736	33.744	1470.217	1257.792
-18.721	33.758	1468.907	1256.717
-17.706	33.696	1468.051	1255.522
-16.692	33.742	1467.294	1255.127
-15.677	33.674	1466.146	1253.645
-14.663	33.763	1464.971	1253.179
-13.648	33.748	1464.356	1252.509
-12.633	33.692	1463.307	1251.188
-11.619	33.633	1462.769	1250.289
-10.604	33.736	1461.564	1249.888
-9.590	33.602	1460.784	1248.290
-8.575	33.753	1460.231	1248.763
-7.560	33.814	1459.059	1248.108
-6.546	33.822	1458.064	1247.267
-5.531	33.774	1457.411	1246.340
-4.517	33.698	1456.049	1244.628
-3.502	33.733	1455.315	1244.180
-2.487	33.777	1453.860	1243.174
-1.473	33.646	1453.371	1241.850
-0.458	33.683	1452.546	1241.335
0.556	34.170	1442.117	1230.038
1.571	31.142	1417.630	1189.776
2.586	27.797	1359.776	1120.617
3.600	26.194	1279.695	1045.261
4.615	25.044	1233.117	1000.710
5.629	21.584	1175.956	935.777
6.644	11.521	1088.194	815.835
7.659	3.382	1045.082	744.262
8.673	2.122	1039.796	734.373
9.688	2.123	1036.021	731.649
10.702	1.828	1034.971	729.430
11.717	1.928	1032.795	728.309
12.731	5.679	1037.162	749.291
13.746	15.703	1051.955	808.320
14.761	23.308	1061.400	852.247
15.775	24.869	1062.910	860.899
16.790	25.227	1061.900	861.724
17.804	24.941	1061.508	859.956
18.819	24.787	1060.779	858.552
19.834	24.904	1060.245	858.602
20.848	24.866	1059.973	858.126
21.863	25.059	1059.235	858.375
22.877	25.175	1058.921	858.603
23.892	25.070	1058.206	857.442
24.907	24.925	1057.519	856.118
25.921	24.945	1056.899	855.634
26.936	25.049	1056.013	855.340
27.950	24.975	1054.799	853.929
28.965	25.015	1053.405	852.914
29.980	24.857	1051.896	850.864
30.994	24.885	1050.930	850.141
32.009	25.099	1049.818	850.184
33.023	25.071	1049.751	849.920
34.038	25.007	1048.543	848.562
35.053	24.860	1047.773	847.170
36.067	24.977	1047.582	847.496
37.082	24.913	1046.614	846.332
38.096	25.043	1045.623	846.070
39.111	25.186	1044.928	846.111
40.126	25.358	1044.011	846.101
41.140	25.286	1043.315	845.124
42.155	24.867	1041.890	841.923
43.169	24.734	1040.698	840.264
44.184	24.562	1039.376	838.315
45.199	24.676	1038.594	838.140
46.213	24.576	1037.630	836.823
47.228	24.488	1037.155	835.954
48.242	24.825	1036.071	836.580
49.257	24.751	1035.706	835.865
50.271	24.934	1034.911	836.007
51.286	25.062	1034.083	835.857
52.301	25.056	1033.078	834.945
53.315	25.031	1032.822	834.548
54.330	25.086	1031.874	833.965
55.344	24.899	1031.367	832.609
56.359	24.971	1030.009	831.776
57.374	24.957	1029.901	831.550
58.388	24.828	1028.541	829.781
59.403	24.783	1028.175	829.204
60.417	24.858	1026.972	828.506
61.432	24.672	1026.253	826.994
62.447	24.640	1025.541	826.199
63.461	24.758	1025.177	826.376
64.476	24.762	1024.499	825.777
65.490	24.887	1023.471	825.452
66.505	24.680	1022.519	823.657
67.520	24.634	1021.539	822.582
68.534	24.769	1021.034	822.721
69.549	24.624	1019.887	821.058
70.563	24.313	1018.410	818.370
71.578	24.335	1017.734	817.858
72.593	24.337	1017.158	817.330
73.607	24.209	1015.985	815.729
74.622	24.188	1014.814	814.623
75.636	24.488	1014.720	815.843
76.651	24.671	1013.989	816.021
77.666	24.406	1012.950	813.906
78.680	24.378	1011.939	812.893
79.695	24.415	1011.384	812.543
80.709	24.554	1010.879	812.697
81.724	24.689	1010.036	812.561
82.739	24.594	1009.145	811.343
83.753	24.594	1008.233	810.536
84.768	24.993	1007.324	811.542
85.782	25.139	1007.785	812.503
86.797	25.308	1006.932	812.506
87.812	25.293	1005.991	811.610
88.826	25.105	1005.034	809.915
89.841	25.209	1004.084	809.548
90.855	25.287	1003.182	809.100
91.870	25.247	1002.675	808.441
92.884	25.199	1001.734	807.395
93.899	25.215	1000.349	806.278
94.914	25.008	999.836	804.862
95.928	25.247	998.861	805.081
96.943	25.334	997.804	804.548
97.957	24.994	997.106	802.388
98.972	24.642	996.252	800.055
99.987	24.488	994.860	798.182
101.001	24.742	994.055	798.599
102.016	24.962	994.070	799.523
103.030	25.048	993.109	799.060
104.045	24.878	991.612	797.029
105.060	24.755	991.076	795.982
106.074	24.610	989.774	794.218
107.089	24.633	988.795	793.465
108.103	25.028	988.399	794.831
109.118	25.092	987.756	794.527
110.133	24.730	986.584	791.911
111.147	24.630	985.835	790.797
112.162	24.546	984.605	789.368
113.176	24.359	983.460	787.557
114.191	24.552	982.800	787.807
115.206	24.573	981.867	787.085
116.220	24.352	980.500	784.945
117.235	24.271	979.890	784.033
118.249	24.447	979.064	784.077
119.264	24.428	978.653	783.592
120.279	24.450	977.527	782.721
121.293	24.440	976.585	781.850
122.308	24.498	976.151	781.688
123.322	24.408	975.655	780.828
124.337	24.340	974.654	779.660
125.352	24.348	972.640	778.017
126.366	23.899	971.381	774.984
127.381	23.720	970.043	773.071
128.395	24.048	970.499	774.792
129.410	24.763	970.010	777.442
130.424	24.826	969.150	776.958
131.439	24.825	968.174	776.102
132.454	24.641	967.628	774.800
133.468	24.857	966.712	774.931
134.483	24.940	965.876	774.553
135.497	24.891	965.014	773.579
136.512	25.083	964.169	773.663
137.527	25.151	963.655	773.477
138.541	25.019	962.735	772.101
139.556	25.190	961.978	772.159
140.570	25.077	961.481	771.208
141.585	25.114	960.422	770.448
142.600	25.282	960.025	770.785
143.614	25.104	958.958	769.095
144.629	25.231	958.123	768.901
145.643	25.425	958.025	769.587
146.658	25.329	956.930	768.227
147.673	25.260	955.448	766.674
148.687	25.142	953.970	764.916
149.702	24.941	953.409	763.542
150.716	24.820	952.109	761.921
151.731	24.863	951.599	761.629
152.746	24.963	950.479	761.090
153.760	25.076	950.237	761.306
154.775	25.362	949.212	761.632
155.789	25.297	948.666	760.853
156.804	25.355	947.771	760.311
157.819	25.217	946.758	758.849
158.833	25.214	945.884	758.069
159.848	25.420	945.145	758.279
160.862	25.511	944.400	757.996
161.877	25.326	943.257	756.231
162.892	25.300	942.263	755.260
163.906	25.268	941.993	754.842
164.921	25.275	940.678	753.753
165.935	25.200	939.421	752.363
166.950	25.403	938.546	752.445
167.964	25.283	937.810	751.288
168.979	25.270	937.237	750.709
169.994	25.133	935.828	748.940
171.008	25.088	934.871	747.918
172.023	25.302	934.329	748.312
173.037	25.488	933.457	748.322
174.052	25.083	932.693	745.959
175.067	24.942	931.871	744.649
176.081	25.073	930.435	743.979
177.096	24.996	929.830	743.111
178.110	25.030	929.074	742.580
179.125	24.890	928.101	741.158
180.140	24.568	927.522	739.296
181.154	24.686	926.694	739.062
182.169	24.818	925.602	738.668
183.183	24.983	925.714	739.374
184.198	25.230	925.302	739.999
185.213	25.362	924.511	739.845
186.227	25.041	923.916	737.979
187.242	25.068	923.234	737.482
188.256	25.246	922.625	737.664
189.271	25.300	921.998	737.317
190.286	25.430	921.020	737.004
191.300	25.432	919.724	735.908
192.315	24.734	918.585	732.075
193.329	23.957	917.367	727.865
194.344	23.597	916.112	725.331
195.359	24.117	916.758	727.907
196.373	24.957	916.935	731.412
197.388	25.312	916.821	732.707
198.402	25.109	916.070	731.215
199.417	25.209	915.230	730.886
200.432	25.128	914.948	730.268
201.446	25.054	914.263	729.355
202.461	24.784	913.346	727.462
203.475	24.821	912.937	727.222
204.490	24.399	911.353	724.181
205.504	23.322	908.881	717.793
206.519	23.602	909.419	719.287
207.534	24.644	909.410	723.440
208.548	24.613	909.296	723.156
209.563	25.006	908.962	724.416
210.577	25.053	908.346	724.053
211.592	24.864	907.147	722.272
212.607	25.182	907.411	723.700
213.621	25.389	906.795	723.979
214.636	25.264	905.970	722.754
215.650	25.396	905.594	722.919
216.665	25.274	904.856	721.777
217.680	25.270	904.782	721.637
218.694	25.578	904.115	722.278
219.709	24.930	903.447	719.079
220.723	24.733	901.648	716.795
221.738	24.876	901.858	717.472
222.753	25.030	901.426	717.681
223.767	25.069	900.564	717.088
224.782	25.216	899.376	716.665
225.796	25.284	899.314	716.826
226.811	25.498	898.661	717.093
227.826	25.340	896.695	714.834
228.840	24.259	895.749	709.714
229.855	24.144	895.341	708.870
230.869	24.516	895.219	710.190
231.884	24.153	893.955	707.684
232.899	24.166	893.445	707.269
233.913	24.986	893.366	710.397
234.928	25.124	893.475	710.968
235.942	24.944	892.515	709.430
236.957	25.073	891.926	709.408
237.972	24.769	890.642	707.123
238.986	24.582	890.177	705.952
240.001	24.778	889.724	706.306
241.015	24.748	889.072	705.605
242.030	24.874	888.450	705.547
243.045	24.968	888.024	705.518
244.059	25.092	887.491	705.517
245.074	25.224	887.042	705.617
246.088	25.206	886.255	704.857
247.103	24.835	885.469	702.717
248.117	24.782	885.303	702.314
249.132	25.528	884.950	704.897
250.147	25.856	884.562	705.809
251.161	25.932	883.777	705.420
252.176	26.217	883.567	706.304
253.190	25.929	882.984	704.651
254.205	26.022	882.523	704.585
255.220	26.247	882.156	705.106
256.234	26.213	881.488	704.375
257.249	26.027	881.092	703.274
258.263	25.930	880.153	702.083
259.278	25.878	879.414	701.228
260.293	26.084	879.076	701.700
261.307	26.206	878.515	701.665
262.322	26.049	878.205	700.742
263.336	25.932	877.380	699.569
264.351	25.407	876.045	696.410
265.366	24.270	873.834	690.189
266.380	23.914	873.168	688.228
267.395	24.935	873.310	692.227
268.409	25.644	873.632	695.161
269.424	25.427	873.098	693.836
270.439	25.708	872.677	694.526
271.453	25.714	872.191	694.100
272.468	25.942	871.127	694.069
273.482	26.063	870.798	694.210
274.497	26.113	870.519	694.120
275.512	25.810	869.311	691.932
276.526	25.440	867.805	689.253
277.541	25.591	867.588	689.599
278.555	25.991	867.517	691.013
279.570	25.740	867.100	689.660
280.585	25.715	865.644	688.344
281.599	25.656	865.771	688.158
282.614	25.902	864.903	688.348
283.628	25.485	863.658	685.704
284.643	24.922	863.427	683.315
285.657	25.428	863.191	684.995
286.672	25.224	862.477	683.593
287.687	24.778	861.417	680.993
288.701	25.013	861.856	682.173
289.716	25.500	861.150	683.407
290.730	25.219	860.312	681.614
291.745	25.135	859.146	680.310
292.760	25.052	858.310	679.274
293.774	24.828	857.775	677.943
294.789	25.827	858.354	682.126
295.803	26.350	858.842	684.432
296.818	26.422	858.223	684.151
297.833	26.623	857.277	684.099
298.847	26.137	856.584	681.649
299.862	25.822	855.351	679.419
300.876	25.976	855.041	679.694
301.891	26.229	854.758	680.363
302.906	26.464	853.801	680.426
303.920	26.010	853.096	678.096
304.935	25.884	852.769	677.301
305.949	26.371	852.232	678.642
306.964	26.218	851.995	677.822
307.979	26.087	851.316	676.731
308.993	26.062	850.571	675.984
310.008	26.331	850.484	676.862
311.022	26.494	850.133	677.135
312.037	26.490	849.188	676.304
313.052	26.227	848.485	674.703
314.066	26.023	847.904	673.423
315.081	25.384	846.459	669.832
316.095	24.697	845.212	666.227
317.110	25.091	845.398	667.781
318.125	26.040	845.860	671.623
319.139	25.736	844.505	669.359
320.154	24.626	842.674	663.728
321.168	23.987	842.020	660.780
322.183	24.671	842.376	663.543
323.197	25.634	842.816	667.405
324.212	25.829	842.304	667.662
325.227	26.099	842.185	668.509
326.241	26.192	841.428	668.194
327.256	26.180	840.910	667.679
328.270	25.930	840.509	666.378
329.285	25.968	839.720	665.832
330.300	25.697	839.138	664.314
331.314	25.494	838.225	662.781
332.329	25.628	837.883	662.946
333.343	25.971	837.374	663.750
334.358	26.253	836.827	664.295
335.373	26.313	836.464	664.168
336.387	26.301	835.999	663.694
337.402	26.486	835.577	663.982
338.416	26.652	835.166	664.204
339.431	26.744	834.761	664.159
340.446	26.857	833.739	663.701
341.460	26.921	833.611	663.776
342.475	26.934	833.173	663.413
343.489	26.581	832.114	661.223
344.504	26.774	831.580	661.444
345.519	26.892	831.556	661.799
346.533	27.176	831.352	662.615
347.548	27.174	831.040	662.297
348.562	27.090	830.235	661.293
349.577	27.165	829.806	661.165
350.592	27.007	829.001	659.891
351.606	26.924	828.999	659.529
352.621	27.034	828.050	659.117
353.635	26.905	827.512	658.160
354.650	26.733	827.048	657.112
355.665	26.494	826.223	655.529
356.679	25.465	824.497	650.381
357.694	25.382	824.146	649.748
358.708	26.104	824.107	652.267
359.723	25.949	823.594	651.246
360.738	26.087	823.205	651.379
361.752	26.545	823.498	653.206
362.767	26.639	822.730	652.877
363.781	26.977	822.590	653.926
364.796	27.325	822.325	654.912
365.810	27.280	822.150	654.552
366.825	27.494	821.394	654.662
367.840	27.438	821.435	654.435
368.854	27.238	820.809	653.159
369.869	26.932	820.052	651.401
370.883	26.718	819.420	650.074
371.898	26.753	818.505	649.415
372.913	26.742	818.130	649.023
373.927	26.543	817.807	647.996
374.942	26.886	816.771	648.342
375.956	27.027	816.196	648.334
376.971	27.125	815.796	648.309
377.986	27.227	815.547	648.415
379.000	27.336	814.992	648.304
380.015	27.361	814.642	648.058
381.029	27.257	813.523	646.742
382.044	27.286	812.875	646.271
383.059	27.435	812.487	646.436
384.073	27.419	812.215	646.105
385.088	27.414	811.672	645.597
386.102	27.239	811.516	644.798
387.117	27.174	810.491	643.695
388.132	27.184	809.751	643.087
389.146	26.866	809.245	641.503
390.161	26.376	808.506	639.127
391.175	26.455	807.829	638.814
392.190	26.967	808.259	640.907
393.205	27.028	807.522	640.480
394.219	25.992	806.421	635.899
395.234	24.412	803.715	628.155
396.248	23.690	802.368	624.507
397.263	24.675	803.584	628.864
398.278	26.645	804.492	636.449
399.292	26.932	804.756	637.612
400.307	26.653	804.001	635.979
401.321	26.720	803.084	635.430
402.336	26.773	802.990	635.486
403.350	27.011	803.260	636.479
404.365	27.515	802.820	637.837
405.380	27.785	803.092	638.943
406.394	27.828	802.812	638.813
407.409	28.115	802.170	639.248
408.423	28.074	801.356	638.401
409.438	28.028	800.976	637.882
410.453	27.937	800.971	637.503
411.467	28.245	800.288	637.977
412.482	28.038	799.666	636.704
413.496	27.997	799.005	635.979
414.511	28.135	798.874	636.296
415.526	28.172	798.356	635.957
416.540	28.088	797.855	635.212
417.555	28.081	797.254	634.651
418.569	27.716	797.070	633.181
419.584	27.734	796.505	632.740
420.599	27.779	795.863	632.328
421.613	109.628	1282.772	1449.930
422.628	94.406	1353.750	1450.044
