DTS Sentinel unit serial number:	SN413079Multiplexer serial number:	ORYXHardware model number:	OX4-SRSoftware version number:	ORYX F/W v4.00 Oryx Data Collector v3.7.2.0data status	okinstallation	princeton_trtdifferential loss correction	single-endedforward channel	channel 3reverse channel	N/Adate	2019/09/11time	01:22:11forward acquisition time	60.00reverse acquisition time	0.00gamma	496.2192k internal	0.2331k external	0.2331temperature offset calibration	0.9915default loss term (dB/km)	0.3790temperature slope calibration	1.0000multiplexer offset coefficient	1.0000multiplexer slope coefficient	1.0000fibre end	0.00T internal ref (°C)	29.12T ext. ref 1 (°C)	-0.30T ext. ref 2 (°C)	23.23length (m)	temperature (°C)	Stokes	anti-Stokes-747.200	800.000	0.108	-0.344
-746.185	800.000	-0.053	0.174
-745.171	-119.209	-0.307	0.054
-744.156	-200.000	0.106	0.477
-743.142	-200.000	0.005	0.188
-742.127	-200.000	-0.041	0.254
-741.112	768.186	0.145	0.397
-740.098	800.000	-0.140	0.514
-739.083	28.903	-0.426	-0.363
-738.069	-11.882	0.296	0.195
-737.054	-183.547	0.090	0.002
-736.039	-200.000	-0.006	-0.339
-735.025	-24.112	0.283	-0.170
-734.010	36.271	-0.319	-0.283
-732.996	-16.331	-0.111	-0.071
-731.981	-200.000	-0.011	-0.249
-730.966	335.031	-0.126	-0.245
-729.952	-144.460	-0.222	0.021
-728.937	0.738	-0.106	-0.076
-727.923	-200.000	-0.018	0.084
-726.908	649.109	-0.106	0.273
-725.894	232.231	-0.082	-0.136
-724.879	-167.810	-0.196	-0.008
-723.864	-109.669	-0.077	0.016
-722.850	-46.788	-0.306	-0.151
-721.835	-200.000	0.014	-0.063
-720.821	-200.000	0.031	0.427
-719.806	-45.972	-0.261	0.129
-718.791	-106.400	-0.203	0.046
-717.777	177.711	-0.052	-0.076
-716.762	12.037	-0.198	-0.153
-715.748	167.985	-0.047	-0.067
-714.733	-200.000	0.049	-0.267
-713.718	-200.000	0.016	0.142
-712.704	-200.000	-0.001	-0.231
-711.689	480.339	0.063	-0.144
-710.675	35.729	0.123	-0.109
-709.660	-87.656	-0.291	-0.088
-708.645	-200.000	-0.010	0.057
-707.631	-200.000	0.038	-0.178
-706.616	208.578	-0.181	0.284
-705.602	-23.815	-0.102	0.062
-704.587	609.430	0.129	0.325
-703.572	-8.051	-0.120	-0.081
-702.558	232.645	-0.133	-0.220
-701.543	-86.405	0.155	-0.048
-700.529	-165.114	0.158	0.007
-699.514	138.936	-0.100	-0.133
-698.499	-200.000	0.026	0.199
-697.485	-122.346	0.077	-0.013
-696.470	-60.334	-0.190	0.081
-695.456	68.224	0.116	0.120
-694.441	-41.522	-0.301	0.156
-693.426	-200.000	0.021	0.214
-692.412	-67.322	-0.142	-0.056
-691.397	253.578	-0.024	-0.041
-690.383	-3.381	0.251	-0.175
-689.368	38.788	0.251	-0.225
-688.354	149.086	-0.235	0.319
-687.339	-200.000	-0.039	-0.208
-686.324	99.029	0.205	0.237
-685.310	-51.793	-0.150	0.070
-684.295	84.936	0.163	0.180
-683.281	288.597	-0.050	0.091
-682.266	48.258	-0.131	-0.123
-681.251	128.272	0.173	0.222
-680.237	-99.165	0.091	-0.023
-679.222	-106.242	-0.194	0.044
-678.208	297.163	-0.188	0.347
-677.193	5.370	-0.176	0.130
-676.178	446.242	0.087	0.192
-675.164	800.000	0.077	-0.267
-674.149	-55.209	0.174	0.078
-673.135	-200.000	-0.035	-0.389
-672.120	-200.000	0.058	-0.267
-671.105	-87.289	-0.220	0.067
-670.091	800.000	0.087	0.254
-669.076	213.662	0.069	-0.109
-668.062	423.576	-0.187	-0.404
-667.047	-148.972	-0.286	-0.023
-666.032	-25.751	-0.279	0.165
-665.018	68.453	-0.081	-0.084
-664.003	379.790	0.069	-0.143
-662.989	60.529	0.218	0.217
-661.974	216.926	0.078	-0.124
-660.959	-39.380	0.237	-0.125
-659.945	67.827	-0.091	-0.093
-658.930	800.000	0.057	-0.192
-657.916	9.618	-0.359	-0.273
-656.901	114.594	0.167	-0.204
-655.886	1.982	-0.157	-0.113
-654.872	27.368	0.028	-0.024
-653.857	-200.000	-0.012	-0.122
-652.843	-59.020	-0.246	0.107
-651.828	-200.000	0.018	0.139
-650.814	-147.277	0.114	0.010
-649.799	425.068	-0.056	-0.121
-648.784	-18.237	0.290	-0.182
-647.770	800.000	0.114	-0.468
-646.755	800.000	0.097	0.312
-645.741	101.841	0.071	-0.083
-644.726	-160.838	0.403	-0.021
-643.711	-65.769	0.264	-0.106
-642.697	-3.260	0.070	0.049
-641.682	63.683	-0.015	-0.015
-640.668	-200.000	0.002	-0.170
-639.653	-109.332	-0.416	-0.088
-638.638	52.489	-0.175	0.167
-637.624	69.828	0.197	0.204
-636.609	-144.576	0.345	0.032
-635.595	-86.708	-0.292	-0.090
-634.580	-183.217	0.166	-0.003
-633.565	-200.000	-0.002	0.345
-632.551	18.209	-0.258	-0.206
-631.536	-200.000	0.022	-0.151
-630.522	-194.192	0.132	0.001
-629.507	800.000	-0.042	-0.138
-628.492	391.587	-0.074	0.153
-627.478	5.554	-0.111	0.082
-626.463	-36.421	-0.147	-0.079
-625.449	13.525	0.220	-0.171
-624.434	437.876	-0.077	0.167
-623.419	-101.061	-0.255	-0.063
-622.405	-200.000	-0.032	-0.386
-621.390	-79.684	-0.204	-0.069
-620.376	49.461	0.207	-0.195
-619.361	109.670	-0.255	-0.306
-618.346	24.337	0.145	0.120
-617.332	-6.366	0.160	-0.109
-616.317	-200.000	-0.014	-0.169
-615.303	66.662	0.138	0.141
-614.288	-200.000	-0.032	0.158
-613.273	800.000	0.048	0.202
-612.259	278.802	0.107	-0.191
-611.244	-200.000	0.049	-0.270
-610.230	-7.990	-0.210	-0.142
-609.215	-85.728	-0.378	-0.117
-608.201	6.518	-0.228	-0.170
-607.186	800.000	-0.077	-0.232
-606.171	252.502	-0.202	0.345
-605.157	311.249	0.043	-0.081
-604.142	800.000	0.057	0.177
-603.128	-42.397	-0.064	-0.033
-602.113	-200.000	-0.017	0.318
-601.098	-43.216	0.367	0.186
-600.084	-110.343	-0.148	-0.031
-599.069	37.929	0.114	0.101
-598.055	8.861	-0.075	-0.057
-597.040	84.543	-0.131	-0.143
-596.025	-193.942	-0.155	-0.001
-595.011	-200.000	0.007	0.137
-593.996	-34.476	-0.266	0.146
-592.982	105.254	0.217	0.256
-591.967	-200.000	0.020	-0.099
-590.952	-15.604	0.116	0.074
-589.938	-62.735	-0.405	-0.168
-588.923	-124.463	-0.226	-0.035
-587.909	-125.774	0.034	0.005
-586.894	236.659	-0.142	0.236
-585.879	-111.050	-0.053	-0.011
-584.865	-167.757	-0.227	0.009
-583.850	-145.966	-0.507	-0.045
-582.836	104.407	-0.236	0.278
-581.821	-200.000	0.016	-0.182
-580.806	598.085	0.137	0.339
-579.792	162.921	0.084	-0.118
-578.777	800.000	-0.039	0.113
-577.763	-165.896	-0.091	0.004
-576.748	-12.510	0.351	-0.229
-575.733	-71.631	-0.080	0.030
-574.719	-134.604	0.285	-0.035
-573.704	239.452	-0.094	-0.156
-572.690	-130.900	-0.075	0.010
-571.675	-46.970	0.237	-0.116
-570.661	-200.000	0.299	-0.001
-569.646	-200.000	0.007	0.229
-568.631	-13.494	0.225	0.146
-567.617	-0.055	-0.240	-0.171
-566.602	104.571	0.216	-0.254
-565.588	-52.381	0.225	0.104
-564.573	-200.000	-0.006	-0.160
-563.558	210.041	-0.141	0.221
-562.544	-200.000	-0.001	-0.240
-561.529	9.057	0.201	-0.152
-560.515	-141.962	0.208	-0.021
-559.500	-95.409	-0.383	-0.103
-558.485	86.603	-0.122	-0.134
-557.471	62.538	0.181	-0.181
-556.456	458.898	-0.137	-0.305
-555.442	-91.764	-0.378	-0.107
-554.427	-200.000	0.008	0.340
-553.412	-82.315	-0.067	0.022
-552.398	-118.310	-0.420	-0.075
-551.383	800.000	-0.082	-0.232
-550.369	-11.679	0.304	0.200
-549.354	160.528	0.133	0.186
-548.339	800.000	0.009	-0.035
-547.325	11.329	-0.137	-0.105
-546.310	-86.352	0.328	0.101
-545.296	74.014	0.023	0.024
-544.281	-44.533	0.133	-0.067
-543.266	-59.996	-0.243	-0.104
-542.252	800.000	-0.072	0.233
-541.237	165.446	0.176	-0.249
-540.223	245.429	0.170	-0.285
-539.208	-200.000	0.005	-0.044
-538.193	-200.000	-0.016	0.130
-537.179	-200.000	0.038	-0.210
-536.164	57.081	-0.130	-0.127
-535.150	344.106	-0.185	0.362
-534.135	-76.818	-0.393	-0.137
-533.121	710.416	-0.071	0.187
-532.106	-86.863	-0.335	-0.102
-531.091	3.201	0.193	-0.140
-530.077	-196.865	0.124	-0.001
-529.062	212.424	-0.089	0.140
-528.048	-116.319	-0.117	0.022
-527.033	800.000	-0.053	0.186
-526.018	-200.000	-0.022	-0.115
-525.004	-67.801	-0.162	0.063
-523.989	178.914	-0.044	-0.064
-522.975	800.000	0.057	-0.242
-521.960	-200.000	0.040	-0.310
-520.945	-23.245	-0.230	0.138
-519.931	66.532	-0.029	0.029
-518.916	-54.918	0.345	-0.155
-517.902	172.493	0.203	0.291
-516.887	16.416	-0.110	-0.087
-515.872	-158.376	0.122	-0.007
-514.858	-144.733	-0.288	-0.026
-513.843	42.167	0.089	0.081
-512.829	233.598	-0.003	-0.005
-511.814	800.000	-0.046	0.179
-510.799	-79.129	0.151	0.051
-509.785	-200.000	-0.017	-0.277
-508.770	-13.769	-0.284	0.183
-507.756	-139.338	-0.172	-0.018
-506.741	-141.414	0.032	-0.003
-505.726	36.692	0.237	-0.209
-504.712	800.000	0.033	-0.134
-503.697	260.870	-0.051	-0.089
-502.683	33.795	-0.306	-0.265
-501.668	148.456	0.071	-0.096
-500.653	-99.784	0.058	0.015
-499.639	-200.000	0.005	0.075
-498.624	-49.471	0.185	0.088
-497.610	-62.317	0.277	-0.115
-496.595	-70.590	0.285	0.107
-495.581	-27.542	0.093	-0.054
-494.566	-200.000	0.021	-0.136
-493.551	167.119	0.103	-0.146
-492.537	-64.997	0.398	-0.160
-491.522	-68.954	0.046	-0.018
-490.508	800.000	-0.019	0.060
-489.493	-103.285	0.076	-0.018
-488.478	-97.444	0.219	-0.057
-487.464	429.714	-0.111	0.240
-486.449	-122.269	0.062	-0.010
-485.435	800.000	0.072	-0.289
-484.420	649.843	-0.082	-0.208
-483.405	-200.000	0.061	0.455
-482.391	-200.000	0.051	0.455
-481.376	-131.554	-0.262	0.034
-480.362	-200.000	-0.016	-0.115
-479.347	252.901	0.065	0.111
-478.332	201.527	-0.076	-0.117
-477.318	-41.832	-0.126	0.065
-476.303	139.327	0.104	-0.136
-475.289	-22.711	0.272	-0.163
-474.274	800.000	0.056	0.195
-473.259	-200.000	-0.012	-0.176
-472.245	10.013	-0.292	0.221
-471.230	-68.062	0.249	0.097
-470.216	82.381	0.230	0.248
-469.201	42.979	-0.142	-0.129
-468.186	-200.000	-0.038	0.271
-467.172	150.580	-0.209	0.283
-466.157	-200.000	-0.021	-0.109
-465.143	10.778	-0.205	-0.155
-464.128	-7.278	-0.098	-0.066
-463.113	800.000	0.091	-0.306
-462.099	84.548	0.020	-0.021
-461.084	-70.070	-0.143	-0.054
-460.070	-90.294	-0.093	0.027
-459.055	-184.503	-0.235	0.004
-458.040	-46.056	-0.145	-0.071
-457.026	327.637	-0.114	-0.218
-456.011	-200.000	0.015	-0.233
-454.997	89.168	-0.095	-0.106
-453.982	-97.293	-0.141	-0.036
-452.968	-133.620	-0.209	0.026
-451.953	-200.000	-0.018	0.173
-450.938	312.553	0.071	-0.133
-449.924	800.000	-0.061	-0.174
-448.909	-131.820	0.306	-0.040
-447.895	43.541	-0.171	0.155
-446.880	-64.503	0.053	0.022
-445.865	255.616	-0.106	-0.181
-444.851	472.518	-0.195	-0.437
-443.836	-137.755	0.087	-0.010
-442.822	-200.000	0.025	0.194
-441.807	-158.319	0.452	0.026
-440.792	-134.591	0.014	0.002
-439.778	-7.974	-0.265	0.178
-438.763	-200.000	-0.081	-0.360
-437.749	82.739	-0.174	-0.188
-436.734	-41.336	0.283	0.145
-435.719	379.125	0.033	-0.067
-434.705	11.830	-0.078	0.060
-433.690	-93.543	0.308	0.085
-432.676	333.034	-0.068	0.131
-431.661	-101.942	-0.151	-0.036
-430.646	-64.000	-0.204	0.083
-429.632	-58.288	-0.088	-0.038
-428.617	465.676	0.175	0.389
-427.603	17.118	0.119	0.094
-426.588	230.212	0.016	-0.026
-425.573	177.956	-0.168	-0.243
-424.559	-15.418	0.247	0.157
-423.544	333.227	-0.093	-0.179
-422.530	-200.000	0.005	0.215
-421.515	-93.790	-0.173	-0.047
-420.500	-95.548	0.033	-0.009
-419.486	-193.696	0.470	-0.004
-418.471	-145.056	0.157	-0.014
-417.457	83.363	-0.066	-0.071
-416.442	-10.190	-0.156	-0.103
-415.428	-200.000	0.008	0.315
-414.413	800.000	-0.028	0.083
-413.398	23.640	-0.160	-0.131
-412.384	-56.572	0.212	-0.093
-411.369	-95.221	-0.285	-0.076
-410.355	403.829	-0.155	-0.323
-409.340	-127.700	0.245	0.035
-408.325	-200.000	0.008	-0.119
-407.311	59.687	-0.181	-0.177
-406.296	-52.045	-0.260	0.120
-405.282	-80.475	-0.195	0.065
-404.267	800.000	-0.033	0.102
-403.252	-200.000	0.018	-0.187
-402.238	-73.001	-0.256	0.093
-401.223	80.295	-0.347	-0.371
-400.209	84.409	-0.145	0.157
-399.194	260.453	0.073	0.125
-398.179	533.160	-0.102	0.239
-397.165	-66.064	0.125	0.049
-396.150	717.950	-0.146	0.384
-395.136	800.000	-0.069	0.295
-394.121	800.000	-0.050	0.205
-393.106	7.512	0.138	-0.103
-392.092	201.189	0.127	0.194
-391.077	-200.000	0.013	0.099
-390.063	267.536	0.112	0.194
-389.048	318.896	0.100	0.188
-388.033	174.658	-0.193	0.278
-387.019	88.330	-0.027	-0.030
-386.004	-200.000	-0.008	0.168
-384.990	800.000	0.054	0.197
-383.975	-169.858	-0.236	0.008
-382.960	-117.603	0.379	-0.068
-381.946	15.759	0.290	-0.226
-380.931	-200.000	-0.040	-0.201
-379.917	-15.588	0.122	-0.078
-378.902	-135.300	-0.163	-0.019
-377.888	-71.514	-0.102	0.038
-376.873	-129.664	0.141	-0.019
-375.858	-76.408	0.172	-0.060
-374.844	-200.000	0.043	-0.455
-373.829	-200.000	0.020	-0.193
-372.815	461.561	0.045	0.100
-371.800	500.427	0.147	0.337
-370.785	-161.878	-0.138	-0.007
-369.771	-111.714	0.359	0.072
-368.756	103.616	-0.152	0.177
-367.742	-200.000	0.028	0.233
-366.727	51.510	-0.248	-0.234
-365.712	115.799	-0.037	-0.045
-364.698	31.102	0.158	-0.134
-363.683	253.438	-0.079	-0.134
-362.669	800.000	-0.060	-0.237
-361.654	32.257	-0.228	0.195
-360.639	-2.196	0.353	-0.246
-359.625	-104.590	0.189	0.043
-358.610	800.000	-0.043	0.147
-357.596	-147.010	-0.118	0.010
-356.581	19.213	-0.310	0.247
-355.566	482.694	0.125	0.281
-354.552	54.726	-0.099	-0.095
-353.537	607.365	0.107	0.265
-352.523	194.069	-0.054	-0.081
-351.508	-128.989	0.265	-0.037
-350.493	728.598	-0.129	0.342
-349.479	677.601	0.092	-0.238
-348.464	132.547	0.168	0.215
-347.450	-200.000	0.001	0.067
-346.435	-200.000	-0.020	-0.158
-345.420	40.056	0.166	-0.148
-344.406	-117.466	-0.088	0.016
-343.391	-51.222	-0.181	-0.084
-342.377	-132.374	0.107	0.014
-341.362	74.273	0.170	0.177
-340.348	168.355	-0.164	-0.231
-339.333	-22.022	-0.264	-0.159
-338.318	-106.111	-0.196	0.044
-337.304	-26.608	0.108	-0.063
-336.289	336.704	-0.093	0.179
-335.275	-10.385	0.416	0.273
-334.260	73.018	-0.086	0.089
-333.245	-200.000	0.007	0.054
-332.231	89.140	0.105	-0.116
-331.216	-127.649	0.094	-0.013
-330.202	-154.371	-0.399	-0.027
-329.187	-181.026	0.272	-0.005
-328.172	261.693	0.030	-0.052
-327.158	-200.000	-0.034	-0.171
-326.143	-143.588	0.290	0.027
-325.129	-200.000	0.049	0.320
-324.114	-89.154	0.298	-0.087
-323.099	800.000	-0.019	0.083
-322.085	-131.987	-0.191	0.025
-321.070	47.267	-0.215	-0.198
-320.056	33.296	-0.134	-0.115
-319.041	-200.000	-0.052	-0.230
-318.026	-26.905	0.293	0.169
-317.012	-200.000	-0.005	0.189
-315.997	-84.756	0.267	-0.083
-314.983	800.000	-0.008	0.030
-313.968	61.984	-0.146	-0.144
-312.953	-91.323	-0.212	0.060
-311.939	800.000	-0.043	-0.156
-310.924	-59.702	0.324	-0.137
-309.910	452.296	0.161	-0.352
-308.895	-200.000	-0.058	0.320
-307.880	300.348	-0.097	0.178
-306.866	-122.397	0.216	-0.035
-305.851	-40.195	-0.323	0.166
-304.837	-24.230	-0.103	-0.061
-303.822	-151.281	0.463	0.034
-302.807	134.656	0.101	0.129
-301.793	-200.000	0.031	0.435
-300.778	335.951	-0.176	0.337
-299.764	216.567	0.045	0.070
-298.749	-126.758	0.173	0.025
-297.735	-200.000	0.025	0.503
-296.720	153.917	-0.162	-0.219
-295.705	73.636	-0.287	-0.298
-294.691	-200.000	0.016	-0.181
-293.676	-117.715	0.247	-0.044
-292.662	372.890	-0.106	0.213
-291.647	-2.161	0.063	0.044
-290.632	-131.723	-0.138	-0.018
-289.618	-93.936	-0.133	-0.036
-288.603	-168.241	-0.227	-0.009
-287.589	-200.000	-0.005	-0.122
-286.574	19.901	-0.147	-0.117
-285.559	396.598	0.093	0.193
-284.545	-108.144	-0.330	-0.071
-283.530	800.000	0.059	-0.190
-282.516	-67.437	-0.150	-0.058
-281.501	-200.000	-0.018	-0.465
-280.486	35.687	-0.160	0.139
-279.472	800.000	0.084	0.359
-278.457	-200.000	0.040	0.349
-277.443	-200.000	-0.036	0.271
-276.428	-113.590	0.080	0.015
-275.413	800.000	0.051	0.207
-274.399	-73.960	-0.135	-0.048
-273.384	639.839	0.065	-0.163
-272.370	-26.475	0.208	0.121
-271.355	320.588	-0.035	0.066
-270.340	401.079	0.141	-0.293
-269.326	-82.544	-0.008	-0.002
-268.311	-200.000	-0.014	-0.118
-267.297	-80.835	0.244	0.080
-266.282	800.000	-0.007	0.018
-265.267	-167.604	-0.254	0.010
-264.253	-18.883	-0.108	0.066
-263.238	146.695	0.090	-0.120
-262.224	565.368	-0.039	-0.093
-261.209	149.412	-0.120	0.161
-260.195	85.336	-0.081	-0.088
-259.180	682.970	0.073	0.187
-258.165	-121.277	-0.131	0.022
-257.151	796.985	0.173	0.471
-256.136	-200.000	-0.007	-0.192
-255.122	398.391	-0.101	0.209
-254.107	93.789	-0.125	-0.139
-253.092	800.000	-0.014	0.043
-252.078	62.956	-0.080	-0.079
-251.063	-163.166	0.268	-0.013
-250.049	205.554	0.136	-0.209
-249.034	105.518	0.077	-0.089
-248.019	54.779	-0.316	-0.301
-247.005	-200.000	0.003	0.203
-245.990	210.062	0.106	-0.164
-244.976	408.501	-0.142	-0.297
-243.961	89.029	-0.114	0.125
-242.946	-112.137	-0.264	0.052
-241.932	-145.671	0.065	0.006
-240.917	-164.545	-0.264	-0.012
-239.903	-49.227	-0.223	-0.105
-238.888	800.000	-0.063	-0.174
-237.873	-112.102	-0.240	-0.048
-236.859	137.613	-0.234	0.303
-235.844	116.677	-0.171	0.207
-234.830	-200.000	0.014	-0.297
-233.815	-49.165	-0.336	0.159
-232.800	191.262	0.117	0.173
-231.786	-30.699	-0.437	-0.244
-230.771	800.000	-0.083	0.348
-229.757	491.277	0.097	-0.220
-228.742	-200.000	0.006	0.068
-227.727	800.000	-0.086	0.260
-226.713	-135.556	-0.112	-0.013
-225.698	800.000	-0.047	0.134
-224.684	-184.727	0.514	-0.008
-223.669	260.130	-0.081	0.138
-222.655	51.150	-0.141	-0.132
-221.640	-87.456	-0.049	-0.015
-220.625	162.006	-0.198	-0.274
-219.611	-54.775	0.106	-0.047
-218.596	239.283	0.099	-0.163
-217.582	330.055	-0.080	-0.151
-216.567	122.570	0.291	0.358
-215.552	-5.872	-0.154	0.104
-214.538	-97.528	-0.269	-0.069
-213.523	-11.928	0.249	0.161
-212.509	458.141	0.053	-0.116
-211.494	276.415	0.082	-0.144
-210.479	-77.118	0.291	0.100
-209.465	-22.056	0.180	-0.108
-208.450	543.443	0.110	0.260
-207.436	-200.000	-0.003	0.029
-206.421	226.913	0.077	0.123
-205.406	12.943	0.223	-0.170
-204.392	177.114	0.040	-0.057
-203.377	16.246	0.040	0.031
-202.363	420.305	0.161	-0.340
-201.348	249.367	-0.054	0.089
-200.333	-70.205	0.412	-0.154
-199.319	-192.210	0.197	-0.002
-198.304	-6.728	0.186	-0.125
-197.290	-131.335	-0.063	0.008
-196.275	375.909	-0.038	-0.077
-195.260	112.857	0.078	0.093
-194.246	-72.377	0.191	0.070
-193.231	-148.676	-0.036	-0.003
-192.217	-97.696	0.247	-0.063
-191.202	-126.833	0.239	-0.035
-190.187	-36.592	0.135	0.071
-189.173	269.926	-0.197	0.341
-188.158	-200.000	-0.017	0.324
-187.144	129.689	0.409	-0.514
-186.129	-102.668	0.351	-0.082
-185.114	192.095	-0.041	0.060
-184.100	-27.520	-0.131	0.075
-183.085	800.000	0.045	-0.173
-182.071	-92.583	0.269	0.074
-181.056	-100.715	-0.150	0.036
-180.042	230.022	0.171	0.274
-179.027	-117.781	0.259	0.046
-178.012	105.124	0.018	-0.021
-176.998	-144.134	-0.379	-0.035
-175.983	281.354	-0.126	-0.222
-174.969	-200.000	-0.020	0.323
-173.954	-157.729	0.029	0.002
-172.939	146.869	0.291	0.385
-171.925	-102.754	0.187	0.044
-170.910	800.000	0.172	-0.531
-169.896	-39.407	0.022	0.011
-168.881	-45.036	0.080	0.039
-167.866	-195.495	-0.252	0.002
-166.852	122.651	0.206	0.253
-165.837	-111.274	0.364	0.073
-164.823	-128.578	-0.154	0.021
-163.808	66.544	-0.316	-0.316
-162.793	28.713	0.241	-0.200
-161.779	249.882	-0.024	0.040
-160.764	284.053	-0.085	0.151
-159.750	274.791	0.097	0.169
-158.735	37.500	0.036	0.031
-157.720	-107.078	0.121	0.026
-156.706	-200.000	-0.018	0.198
-155.691	-200.000	-0.096	0.498
-154.677	-200.000	-0.004	0.064
-153.662	800.000	0.053	-0.199
-152.647	-42.702	0.218	-0.109
-151.633	-200.000	0.032	0.206
-150.618	-200.000	0.022	0.238
-149.604	800.000	0.109	-0.394
-148.589	-60.813	0.099	0.041
-147.574	36.877	0.165	-0.143
-146.560	28.643	0.283	0.235
-145.545	-125.490	-0.323	-0.048
-144.531	-36.719	-0.236	0.125
-143.516	800.000	0.069	0.195
-142.502	-122.606	-0.186	-0.030
-141.487	-130.948	0.378	-0.050
-140.472	-132.137	0.338	-0.043
-139.458	45.679	-0.086	-0.078
-138.443	-161.843	-0.180	0.009
-137.429	5.858	-0.166	-0.120
-136.414	40.043	-0.150	0.132
-135.399	-71.529	-0.036	-0.013
-134.385	-1.802	0.268	-0.186
-133.370	13.160	0.237	-0.180
-132.356	67.298	-0.043	-0.043
-131.341	-103.637	-0.272	0.063
-130.326	-45.591	0.170	-0.083
-129.312	-58.415	-0.095	0.041
-128.297	800.000	0.065	0.232
-127.283	154.669	-0.120	0.162
-126.268	-61.869	-0.133	-0.055
-125.253	-200.000	-0.011	0.065
-124.239	768.215	-0.008	-0.022
-123.224	-43.518	0.062	-0.031
-122.210	-25.365	-0.111	0.065
-121.195	-200.000	0.022	0.101
-120.180	166.004	0.026	0.036
-119.166	-147.463	0.439	0.036
-118.151	-200.000	0.028	0.286
-117.137	-69.048	0.150	0.057
-116.122	74.812	-0.100	0.104
-115.107	-89.139	0.205	0.059
-114.093	347.523	-0.063	-0.123
-113.078	-10.382	0.291	-0.189
-112.064	-109.255	-0.212	-0.044
-111.049	-121.560	-0.185	-0.030
-110.034	297.467	0.059	-0.106
-109.020	-48.003	-0.178	-0.085
-108.005	-35.911	-0.172	-0.091
-106.991	235.825	-0.121	-0.197
-105.976	122.831	0.211	-0.259
-104.962	-170.958	-0.287	-0.010
-103.947	-143.089	-0.216	0.020
-102.932	800.000	-0.093	-0.286
-101.918	-15.501	0.118	-0.074
-100.903	33.944	0.494	-0.422
-99.889	-200.000	-0.026	0.136
-98.874	800.000	-0.097	0.329
-97.859	-200.000	-0.074	0.323
-96.845	106.099	0.047	0.055
-95.830	-200.000	-0.002	0.279
-94.816	-105.219	0.321	-0.072
-93.801	-137.386	0.210	0.023
-92.786	-4.747	0.173	0.117
-91.772	78.009	-0.259	-0.271
-90.757	-200.000	0.021	0.231
-89.743	123.018	-0.153	0.188
-88.728	-58.504	0.106	-0.045
-87.713	-200.000	0.025	-0.127
-86.699	-0.055	0.083	0.058
-85.684	-200.000	0.009	-0.184
-84.670	-39.387	-0.167	0.086
-83.655	-106.595	0.308	-0.067
-82.640	160.597	-0.150	0.206
-81.626	511.398	0.139	-0.317
-80.611	-200.000	0.015	0.192
-79.597	-200.000	-0.004	0.162
-78.582	61.117	-0.373	-0.363
-77.567	800.000	-0.038	0.109
-76.553	-111.029	0.276	-0.055
-75.538	-46.913	0.207	-0.099
-74.524	-193.190	-0.081	-0.001
-73.509	123.923	-0.108	-0.133
-72.494	25.285	0.027	0.022
-71.480	97.726	-0.061	0.068
-70.465	449.561	0.082	0.178
-69.451	-1.322	-0.203	0.141
-68.436	83.040	-0.179	0.191
-67.422	13.774	-0.090	-0.069
-66.407	-153.509	0.195	0.013
-65.392	1.517	-0.268	0.189
-64.378	-47.754	0.081	0.038
-63.363	48.712	-0.379	0.348
-62.349	-154.425	-0.171	-0.011
-61.334	36.118	-0.952	-0.822
-60.319	189.895	0.462	0.679
-59.305	220.721	-0.462	-0.726
-58.290	276.042	0.612	1.065
-57.276	800.000	0.588	1.783
-56.261	-200.000	107.327	627.738
-55.246	523.266	1515.782	3489.161
-54.232	176.133	2704.472	3846.617
-53.217	110.856	2182.893	2573.200
-52.203	39.727	1705.862	1498.939
-51.188	32.302	1519.090	1284.293
-50.173	29.958	1492.224	1245.781
-49.159	50.719	1549.659	1436.822
-48.144	50.783	1565.551	1451.935
-47.130	32.420	1520.701	1286.258
-46.115	29.384	1506.227	1253.367
-45.100	29.151	1503.236	1249.252
-44.086	29.257	1500.233	1247.426
-43.071	29.140	1498.257	1244.938
-42.057	29.098	1496.678	1243.293
-41.042	29.120	1495.325	1242.271
-40.027	29.181	1493.594	1241.195
-39.013	29.125	1492.643	1239.979
-37.998	29.021	1491.221	1238.050
-36.984	29.049	1490.243	1237.371
-35.969	29.028	1488.687	1235.893
-34.954	28.951	1487.480	1234.323
-33.940	29.031	1486.104	1233.667
-32.925	29.121	1484.574	1232.955
-31.911	29.139	1483.006	1231.726
-30.896	29.170	1482.240	1231.242
-29.881	29.222	1480.751	1230.309
-28.867	29.196	1479.909	1229.387
-27.852	29.126	1478.364	1227.588
-26.838	29.211	1476.647	1226.680
-25.823	29.194	1475.305	1225.398
-24.809	29.201	1473.440	1223.850
-23.794	29.240	1472.202	1223.030
-22.779	29.212	1471.071	1221.860
-21.765	29.251	1469.794	1221.009
-20.750	29.217	1468.754	1219.873
-19.736	29.138	1468.026	1218.692
-18.721	29.118	1466.924	1217.598
-17.706	29.150	1466.078	1217.057
-16.692	29.049	1464.680	1215.182
-15.677	29.120	1463.482	1214.611
-14.663	29.073	1462.768	1213.658
-13.648	29.085	1461.938	1213.000
-12.633	29.183	1460.583	1212.474
-11.619	29.148	1459.946	1211.669
-10.604	29.075	1459.234	1210.547
-9.590	29.137	1458.016	1209.895
-8.575	29.152	1457.283	1209.339
-7.560	29.124	1456.367	1208.349
-6.546	29.195	1454.938	1207.577
-5.531	29.041	1455.055	1206.620
-4.517	28.918	1454.451	1205.265
-3.502	29.032	1452.956	1204.726
-2.487	29.116	1451.384	1203.920
-1.473	28.987	1451.067	1202.770
-0.458	29.215	1449.058	1202.545
0.556	26.927	1439.728	1191.845
1.571	23.971	1415.235	1152.351
2.586	20.667	1355.874	1083.381
3.600	19.443	1274.014	1010.713
4.615	18.270	1229.626	968.777
5.629	15.773	1174.297	911.593
6.644	7.605	1090.592	805.279
7.659	0.837	1050.259	742.303
8.673	-0.092	1044.777	733.824
9.688	-0.334	1042.101	730.704
10.702	-0.376	1040.015	728.971
11.717	-0.407	1038.261	727.526
12.731	2.446	1041.100	743.319
13.746	11.329	1053.325	795.471
14.761	18.328	1062.526	836.667
15.775	20.099	1064.379	846.715
16.790	20.259	1063.794	846.958
17.804	20.057	1063.120	845.357
18.819	19.987	1062.163	844.184
19.834	19.933	1061.802	843.557
20.848	20.210	1060.702	843.955
21.863	20.198	1060.971	844.037
22.877	20.103	1060.698	843.282
23.892	20.143	1059.980	842.831
24.907	20.133	1058.712	841.703
25.921	20.093	1058.096	840.941
26.936	20.058	1057.314	840.077
27.950	20.023	1056.489	839.179
28.965	20.050	1055.014	838.062
29.980	19.964	1053.026	835.996
30.994	19.890	1052.041	834.780
32.009	20.092	1051.342	835.126
33.023	20.200	1050.096	834.580
34.038	19.977	1049.281	832.789
35.053	20.009	1048.485	832.237
36.067	20.129	1047.694	832.113
37.082	20.152	1047.259	831.805
38.096	20.219	1046.276	831.268
39.111	20.369	1045.432	831.243
40.126	20.544	1044.098	830.945
41.140	20.393	1043.250	829.477
42.155	20.103	1041.949	826.985
43.169	19.830	1040.541	824.493
44.184	19.898	1039.519	823.932
45.199	19.925	1038.593	823.255
46.213	19.881	1037.344	821.982
47.228	19.750	1036.506	820.628
48.242	19.800	1035.712	820.159
49.257	19.937	1035.087	820.243
50.271	20.021	1034.061	819.757
51.286	20.013	1033.462	819.171
52.301	20.163	1032.752	819.245
53.315	20.234	1031.265	818.328
54.330	20.161	1030.156	817.032
55.344	20.079	1029.552	816.091
56.359	20.134	1028.882	815.749
57.374	20.234	1027.535	815.077
58.388	20.019	1026.763	813.384
59.403	19.965	1026.083	812.522
60.417	19.970	1025.335	811.879
61.432	19.813	1024.483	810.396
62.447	19.789	1023.983	809.818
63.461	19.881	1023.619	809.890
64.476	19.935	1022.334	809.053
65.490	20.050	1021.372	808.755
66.505	19.932	1020.211	807.215
67.520	19.881	1019.552	806.385
68.534	20.019	1018.682	806.266
69.549	19.850	1017.956	804.836
70.563	19.542	1016.632	802.289
71.578	19.529	1015.869	801.554
72.593	19.545	1015.278	801.089
73.607	19.508	1013.659	799.569
74.622	19.424	1013.037	798.621
75.636	19.719	1012.234	799.281
76.651	19.820	1011.560	799.144
77.666	19.845	1010.257	798.160
78.680	19.633	1009.653	796.635
79.695	19.580	1009.009	795.814
80.709	19.748	1008.555	796.159
81.724	19.897	1007.793	796.172
82.739	19.799	1006.414	794.560
83.753	19.728	1006.100	793.916
84.768	20.109	1005.257	794.931
85.782	20.282	1004.484	795.039
86.797	20.400	1003.895	795.046
87.812	20.492	1002.558	794.337
88.826	20.236	1001.948	792.612
89.841	20.259	1001.116	791.988
90.855	20.437	1000.149	791.963
91.870	20.533	999.580	791.883
92.884	20.355	998.630	790.248
93.899	20.140	998.017	788.715
94.914	20.216	996.754	787.993
95.928	20.246	996.310	787.709
96.943	20.413	995.090	787.430
97.957	20.048	993.958	784.814
98.972	19.834	992.881	782.925
99.987	19.683	991.659	781.209
101.001	19.755	991.150	781.063
102.016	19.956	990.689	781.539
103.030	20.105	989.718	781.377
104.045	20.063	988.109	779.846
105.060	19.888	986.994	778.110
106.074	19.810	985.697	776.669
107.089	19.876	984.780	776.174
108.103	20.162	984.909	777.491
109.118	20.128	983.748	776.355
110.133	19.991	982.548	774.725
111.147	20.000	981.884	774.175
112.162	19.894	980.425	772.482
113.176	19.716	979.003	770.502
114.191	19.809	978.411	770.379
115.206	19.891	977.241	769.756
116.220	19.537	976.029	767.161
117.235	19.426	975.361	766.074
118.249	19.612	974.880	766.455
119.264	19.633	973.589	765.465
120.279	19.648	972.527	764.628
121.293	19.533	972.079	763.701
122.308	19.720	971.484	763.989
123.322	19.784	970.497	763.429
124.337	19.841	969.356	762.718
125.352	19.544	968.059	760.321
126.366	19.092	966.542	757.073
127.381	18.831	965.030	754.675
128.395	19.414	964.661	756.881
129.410	20.099	963.876	759.200
130.424	20.213	963.233	759.122
131.439	20.120	962.230	757.861
132.454	20.103	961.204	756.910
133.468	20.102	960.575	756.341
134.483	20.020	959.807	755.316
135.497	20.093	959.013	754.941
136.512	20.235	958.485	755.076
137.527	20.324	957.670	754.754
138.541	20.390	956.768	754.265
139.556	20.289	956.130	753.253
140.570	20.429	954.853	752.792
141.585	20.278	954.440	751.745
142.600	20.394	953.565	751.491
143.614	20.265	952.848	750.300
144.629	20.495	951.807	750.410
145.643	20.503	951.550	750.172
146.658	20.383	950.550	748.800
147.673	20.445	948.856	747.665
148.687	20.286	947.787	746.076
149.702	20.168	946.897	744.801
150.716	20.218	946.088	744.312
151.731	20.110	944.819	742.786
152.746	20.200	944.723	743.034
153.760	20.353	943.754	742.860
154.775	20.404	943.290	742.645
155.789	20.677	941.922	742.667
156.804	20.506	940.817	741.003
157.819	20.506	940.034	740.323
158.833	20.424	939.450	739.444
159.848	20.548	938.702	739.320
160.862	20.661	937.433	738.735
161.877	20.360	936.475	736.635
162.892	20.417	936.056	736.484
163.906	20.661	934.681	736.368
164.921	20.614	934.170	735.701
165.935	20.491	933.094	734.270
166.950	20.430	932.162	733.215
167.964	20.401	931.352	732.389
168.979	20.369	930.072	731.185
169.994	20.440	928.500	730.183
171.008	20.283	927.458	728.638
172.023	20.486	926.615	728.764
173.037	20.526	926.007	728.388
174.052	20.399	924.966	726.974
175.067	20.172	924.135	725.308
176.081	20.125	923.444	724.504
177.096	20.356	922.445	724.622
178.110	20.407	921.378	723.932
179.125	20.101	920.603	721.985
180.140	19.894	919.007	719.808
181.154	19.971	918.803	719.905
182.169	19.984	918.569	719.711
183.183	20.268	917.805	720.229
184.198	20.445	917.489	720.652
185.213	20.506	916.168	719.802
186.227	20.352	915.961	718.939
187.242	20.556	915.172	719.098
188.256	20.436	914.797	718.247
189.271	20.452	913.950	717.584
190.286	20.413	913.163	716.738
191.300	20.348	912.239	715.685
192.315	20.070	910.387	713.022
193.329	19.256	909.554	708.959
194.344	18.990	908.450	706.942
195.359	19.477	908.895	709.230
196.373	20.230	908.871	712.242
197.388	20.420	908.945	713.017
198.402	20.331	907.996	711.844
199.417	20.310	907.027	710.936
200.432	20.235	906.783	710.372
201.446	20.177	905.896	709.380
202.461	19.764	905.444	707.275
203.475	19.871	904.852	707.183
204.490	19.356	903.644	704.077
205.504	18.275	901.204	697.709
206.519	18.919	900.994	700.109
207.534	19.918	901.396	704.424
208.548	20.051	900.802	704.441
209.563	20.319	900.725	705.408
210.577	20.311	899.845	704.622
211.592	20.084	899.104	703.057
212.607	20.535	898.805	704.591
213.621	20.518	898.605	704.303
214.636	20.446	897.545	703.121
215.650	20.520	897.327	703.184
216.665	20.534	896.381	702.440
217.680	20.471	896.189	701.970
218.694	20.459	895.506	701.324
219.709	20.140	894.625	699.289
220.723	19.955	893.277	697.425
221.738	20.102	893.099	697.819
222.753	20.367	892.489	698.346
223.767	20.240	891.725	697.174
224.782	20.162	891.198	696.390
225.796	20.613	890.057	697.244
226.811	20.660	889.766	697.144
227.826	20.046	889.093	694.094
228.840	19.535	887.297	690.587
229.855	19.412	886.648	689.528
230.869	19.702	886.508	690.520
231.884	19.418	885.399	688.459
232.899	19.365	885.164	688.006
233.913	20.193	885.170	691.249
234.928	20.408	884.585	691.590
235.942	20.244	884.035	690.447
236.957	20.295	883.191	689.927
237.972	20.064	881.966	687.992
238.986	19.987	881.307	687.112
240.001	20.069	881.038	687.167
241.015	19.996	880.165	686.138
242.030	20.103	879.560	686.026
243.045	20.220	879.307	686.231
244.059	20.435	878.633	686.498
245.074	20.578	877.970	686.483
246.088	20.484	877.538	685.713
247.103	20.075	876.239	683.025
248.117	20.247	875.482	683.052
249.132	20.607	875.716	684.589
250.147	20.934	875.563	685.699
251.161	20.874	874.843	684.835
252.176	21.119	874.392	685.387
253.190	21.126	873.626	684.751
254.205	21.333	872.787	684.844
255.220	21.345	872.609	684.691
256.234	21.392	871.806	684.185
257.249	21.197	871.501	683.124
258.263	21.050	870.664	681.830
259.278	21.054	869.881	681.172
260.293	21.097	869.786	681.207
261.307	21.229	868.936	680.994
262.322	21.102	868.273	679.922
263.336	21.040	867.416	678.949
264.351	20.396	865.864	675.168
265.366	19.439	863.833	669.814
266.380	19.027	863.048	667.546
267.395	20.002	863.346	671.502
268.409	20.841	863.600	674.892
269.424	20.739	863.187	674.113
270.439	20.809	862.733	673.971
271.453	20.981	861.815	673.857
272.468	21.095	861.078	673.663
273.482	21.239	860.945	674.053
274.497	21.271	860.471	673.749
275.512	21.125	859.264	672.179
276.526	20.485	857.805	668.518
277.541	20.773	857.336	669.199
278.555	20.947	857.547	669.975
279.570	20.835	856.365	668.564
280.585	20.827	855.386	667.710
281.599	20.841	855.358	667.680
282.614	20.796	854.907	667.098
283.628	20.468	853.498	664.685
284.643	20.142	852.905	662.918
285.657	20.655	852.392	664.419
286.672	20.374	852.081	663.046
287.687	19.899	851.184	660.476
288.701	20.342	850.836	661.838
289.716	20.753	850.558	663.129
290.730	20.302	849.890	660.832
291.745	20.055	849.141	659.250
292.760	19.973	848.144	658.109
293.774	19.978	847.707	657.730
294.789	20.888	848.044	661.387
295.803	21.432	847.979	663.344
296.818	21.615	847.181	663.352
297.833	21.791	846.697	663.583
298.847	21.316	845.862	661.074
299.862	21.103	844.632	659.247
300.876	21.164	844.558	659.361
301.891	21.489	844.211	660.259
302.906	21.532	843.482	659.795
303.920	21.043	842.418	657.062
304.935	21.010	841.529	656.187
305.949	21.452	841.284	657.598
306.964	21.464	840.603	657.052
307.979	21.344	840.113	656.161
308.993	21.118	840.008	655.171
310.008	21.448	839.701	656.114
311.022	21.722	839.425	656.868
312.037	21.576	838.246	655.340
313.052	21.297	837.525	653.677
314.066	21.070	837.271	652.572
315.081	20.739	835.222	649.679
316.095	19.901	834.290	645.774
317.110	20.411	834.595	647.853
318.125	21.313	834.641	651.195
319.139	20.832	833.792	648.685
320.154	19.847	831.652	643.301
321.168	19.356	831.070	640.969
322.183	20.017	831.365	643.598
323.197	20.945	831.411	647.023
324.212	21.000	831.327	647.105
325.227	21.315	830.657	647.692
326.241	21.544	830.437	648.314
327.256	21.441	829.603	647.222
328.270	21.071	829.524	645.736
329.285	21.067	828.374	644.768
330.300	21.004	827.809	644.036
331.314	20.779	827.100	642.599
332.329	20.782	826.759	642.287
333.343	21.123	826.172	643.031
334.358	21.487	825.549	643.832
335.373	21.416	825.386	643.386
336.387	21.476	824.425	642.798
337.402	21.582	823.981	642.785
338.416	22.026	823.333	643.853
339.431	21.702	823.121	642.443
340.446	21.766	822.441	642.087
341.460	22.118	822.142	643.087
342.475	22.013	821.384	642.053
343.489	21.730	820.453	640.236
344.504	21.663	820.236	639.764
345.519	21.933	819.906	640.434
346.533	21.962	819.743	640.358
347.548	22.123	819.075	640.365
348.562	22.312	818.293	640.383
349.577	22.196	818.126	639.775
350.592	22.172	817.755	639.341
351.606	22.266	816.743	638.837
352.621	22.153	816.633	638.284
353.635	22.159	816.063	637.802
354.650	22.099	815.283	636.918
355.665	21.523	814.318	634.022
356.679	20.711	812.926	629.944
357.694	20.599	811.986	628.755
358.708	21.205	812.356	631.177
359.723	21.154	811.619	630.363
360.738	21.362	811.277	630.794
361.752	21.847	811.519	632.675
362.767	21.920	811.182	632.623
363.781	22.081	810.746	632.804
364.796	22.286	810.575	633.354
365.810	22.504	810.304	633.869
366.825	22.503	809.733	633.363
367.840	22.352	809.733	632.764
368.854	22.375	808.593	631.900
369.869	22.015	807.933	630.037
370.883	21.728	807.427	628.557
371.898	21.937	806.874	628.821
372.913	21.862	806.355	628.091
373.927	21.863	805.263	627.191
374.942	21.966	805.227	627.474
375.956	22.085	804.578	627.339
376.971	22.155	803.960	627.051
377.986	22.269	803.546	627.078
379.000	22.351	803.038	626.918
380.015	22.425	802.496	626.703
381.029	22.411	801.819	626.071
382.044	22.421	801.011	625.419
383.059	22.431	800.900	625.315
384.073	22.375	800.545	624.781
385.088	22.298	800.255	624.228
386.102	22.359	799.471	623.777
387.117	22.414	798.017	622.782
388.132	22.225	798.075	622.103
389.146	22.120	797.212	621.002
390.161	21.416	796.830	618.163
391.175	21.555	796.320	618.204
392.190	21.917	796.462	619.539
393.205	22.153	795.703	619.725
394.219	21.263	794.048	615.248
395.234	19.687	791.830	607.934
396.248	19.082	790.936	605.069
397.263	20.147	791.770	609.399
398.278	21.824	793.190	616.337
399.292	22.184	793.065	617.451
400.307	21.846	792.299	615.613
401.321	21.976	791.412	615.327
402.336	21.889	791.448	614.994
403.350	22.120	791.717	615.959
404.365	22.569	791.057	616.964
405.380	23.029	790.398	618.004
406.394	23.234	790.394	618.661
407.409	23.305	790.027	618.569
408.423	23.071	789.573	617.340
409.438	23.198	788.508	616.898
410.453	23.033	788.243	616.061
411.467	23.109	788.324	616.335
412.482	23.101	787.790	615.834
413.496	23.003	787.369	615.109
414.511	23.196	786.864	615.330
415.526	23.228	786.168	614.841
416.540	23.108	786.195	614.394
417.555	23.074	785.384	613.589
418.569	22.627	785.229	611.860
419.584	22.824	784.216	611.700
420.599	22.818	783.799	611.301
421.613	157.996	1364.579	1800.131
422.628	136.628	1449.185	1800.222
