DTS Sentinel unit serial number:	SN413079Multiplexer serial number:	ORYXHardware model number:	OX4-SRSoftware version number:	ORYX F/W v4.00 Oryx Data Collector v3.7.2.0data status	okinstallation	princeton_trtdifferential loss correction	single-endedforward channel	channel 3reverse channel	N/Adate	2019/09/10time	23:30:11forward acquisition time	60.00reverse acquisition time	0.00gamma	496.2192k internal	0.2330k external	0.2330temperature offset calibration	0.9923default loss term (dB/km)	0.3790temperature slope calibration	1.0000multiplexer offset coefficient	1.0000multiplexer slope coefficient	1.0000fibre end	0.00T internal ref (°C)	29.69T ext. ref 1 (°C)	-0.31T ext. ref 2 (°C)	23.08length (m)	temperature (°C)	Stokes	anti-Stokes-747.200	-200.000	0.025	0.121
-746.185	-98.387	-0.165	0.043
-745.171	392.339	-0.032	0.067
-744.156	-113.682	0.026	-0.005
-743.142	-32.240	-0.133	-0.075
-742.127	-200.000	0.043	-0.195
-741.112	800.000	0.094	-0.268
-740.098	-80.657	-0.163	0.055
-739.083	210.980	0.088	0.139
-738.069	-128.171	-0.514	-0.074
-737.054	-200.000	0.001	-0.017
-736.039	-177.490	-0.283	-0.007
-735.025	268.706	0.202	0.357
-734.010	800.000	-0.095	-0.360
-732.996	-45.526	-0.241	-0.120
-731.981	-200.000	-0.037	-0.236
-730.966	-148.038	-0.213	0.018
-729.952	-37.235	-0.356	-0.191
-728.937	-38.737	-0.115	0.061
-727.923	800.000	0.092	0.267
-726.908	800.000	-0.015	0.065
-725.894	-99.782	-0.169	-0.043
-724.879	-28.779	-0.161	0.093
-723.864	35.249	-0.244	-0.215
-722.850	169.744	-0.081	-0.117
-721.835	800.000	0.032	-0.108
-720.821	22.544	-0.079	-0.065
-719.806	-99.326	-0.341	0.086
-718.791	-114.165	-0.465	0.090
-717.777	87.740	0.053	-0.059
-716.762	-84.109	-0.105	0.033
-715.748	-79.824	0.232	0.079
-714.733	13.139	0.136	0.106
-713.718	50.832	-0.152	0.145
-712.704	-54.056	0.084	-0.038
-711.689	-161.818	-0.276	0.014
-710.675	-200.000	0.001	0.113
-709.660	-43.595	-0.263	-0.133
-708.645	-200.000	-0.007	0.314
-707.631	30.638	-0.122	0.105
-706.616	31.632	-0.067	-0.058
-705.602	800.000	-0.033	0.139
-704.587	-43.245	-0.177	-0.090
-703.572	-78.447	0.080	-0.027
-702.558	73.167	-0.091	-0.095
-701.543	-18.596	-0.269	-0.169
-700.529	-60.114	0.172	0.074
-699.514	-18.602	0.227	0.142
-698.499	2.347	0.089	-0.065
-697.485	176.131	0.209	-0.304
-696.470	-43.324	-0.089	-0.045
-695.456	432.874	0.082	-0.178
-694.441	-23.238	-0.168	0.102
-693.426	124.304	0.040	-0.051
-692.412	-58.018	-0.064	0.028
-691.397	-131.978	-0.364	-0.048
-690.383	-96.996	-0.102	-0.027
-689.368	411.915	0.111	-0.236
-688.354	-144.040	-0.296	0.028
-687.339	120.872	-0.117	0.147
-686.324	-132.415	0.311	-0.040
-685.310	-133.973	-0.254	0.032
-684.295	-12.615	-0.034	-0.023
-683.281	696.072	-0.068	0.179
-682.266	-67.346	0.128	0.051
-681.251	-39.987	-0.294	-0.154
-680.237	287.979	-0.120	0.218
-679.222	-200.000	0.020	0.239
-678.208	-18.029	-0.113	-0.071
-677.193	484.587	0.115	-0.264
-676.178	-173.739	-0.125	0.004
-675.164	-200.000	-0.029	-0.272
-674.149	239.550	0.053	0.088
-673.135	-200.000	-0.007	-0.138
-672.120	-200.000	0.011	0.051
-671.105	22.769	-0.045	-0.037
-670.091	-148.401	0.288	0.024
-669.076	-200.000	-0.047	-0.416
-668.062	-40.183	-0.180	0.094
-667.047	-114.269	-0.129	0.025
-666.032	578.275	-0.046	-0.112
-665.018	-200.000	0.009	-0.055
-664.003	-72.016	0.575	0.214
-662.989	605.288	-0.039	0.096
-661.974	107.320	-0.182	0.218
-660.959	183.678	0.139	0.206
-659.945	-139.957	-0.107	0.011
-658.930	120.128	-0.119	0.148
-657.916	-98.427	-0.159	-0.041
-656.901	293.813	0.099	-0.181
-655.886	385.602	0.060	-0.123
-654.872	236.830	0.139	0.230
-653.857	-9.048	-0.139	0.093
-652.843	6.140	0.111	-0.082
-651.828	275.915	0.090	-0.160
-650.814	-30.316	-0.246	-0.140
-649.799	15.542	-0.215	-0.169
-648.784	-39.933	0.448	-0.235
-647.770	-200.000	-0.041	-0.325
-646.755	-93.056	0.395	-0.110
-645.741	515.006	-0.134	0.313
-644.726	-200.000	-0.051	-0.275
-643.711	307.725	-0.131	-0.244
-642.697	-200.000	0.067	-0.440
-641.682	-74.045	0.233	-0.085
-640.668	-200.000	0.017	-0.167
-639.653	-162.517	-0.182	-0.009
-638.638	-0.668	0.112	-0.080
-637.624	-200.000	0.101	-0.454
-636.609	-108.067	-0.260	-0.057
-635.595	154.398	0.046	-0.063
-634.580	28.385	0.254	-0.215
-633.565	359.311	-0.215	0.431
-632.551	38.400	-0.074	-0.066
-631.536	47.176	0.167	-0.156
-630.522	-200.000	-0.037	0.257
-629.507	14.021	-0.218	0.170
-628.492	-200.000	0.022	0.201
-627.478	-200.000	-0.042	0.391
-626.463	-127.825	-0.064	-0.009
-625.449	186.009	-0.180	-0.269
-624.434	19.017	0.144	0.116
-623.419	-135.051	-0.068	-0.008
-622.405	800.000	-0.056	0.191
-621.390	-200.000	-0.011	-0.233
-620.376	-193.075	-0.514	0.005
-619.361	-200.000	-0.057	-0.290
-618.346	-118.915	0.084	0.015
-617.332	-200.000	-0.025	-0.266
-616.317	-111.625	0.200	0.041
-615.303	209.713	-0.181	-0.285
-614.288	-200.000	0.002	-0.292
-613.273	151.604	-0.181	-0.247
-612.259	-200.000	-0.025	-0.233
-611.244	-79.399	-0.292	-0.099
-610.230	-34.171	0.172	0.095
-609.215	-113.699	-0.103	0.020
-608.201	249.378	0.051	0.087
-607.186	-12.662	0.054	0.035
-606.171	427.270	-0.063	-0.135
-605.157	422.474	0.077	0.165
-604.142	19.956	-0.250	-0.201
-603.128	-145.437	-0.457	-0.041
-602.113	8.949	-0.193	-0.145
-601.098	-77.565	0.136	0.047
-600.084	-154.414	-0.073	0.005
-599.069	250.580	0.171	-0.291
-598.055	32.169	0.364	-0.314
-597.040	-71.484	0.077	0.029
-596.025	19.228	-0.083	-0.067
-595.011	-55.637	-0.118	-0.053
-593.996	23.380	0.293	0.241
-592.982	-143.536	0.092	0.009
-591.967	-28.827	-0.244	-0.140
-590.952	-200.000	-0.008	0.183
-589.938	-18.987	0.114	-0.071
-588.923	33.039	-0.158	-0.137
-587.909	85.767	-0.209	0.230
-586.894	-137.683	0.162	-0.018
-585.879	800.000	-0.091	0.293
-584.865	571.586	-0.030	-0.072
-583.850	-62.040	-0.226	-0.094
-582.836	42.234	-0.169	-0.154
-581.821	-39.435	0.099	0.052
-580.806	50.942	-0.179	-0.170
-579.792	328.699	0.138	0.265
-578.777	-71.493	-0.377	0.141
-577.763	141.648	0.173	0.230
-576.748	254.965	0.096	0.164
-575.733	-200.000	0.017	-0.431
-574.719	606.927	-0.153	-0.383
-573.704	-67.508	-0.319	-0.125
-572.690	172.562	-0.182	0.262
-571.675	-53.282	0.425	-0.195
-570.661	376.611	-0.102	-0.208
-569.646	56.776	0.170	-0.166
-568.631	104.394	-0.053	0.063
-567.617	269.996	-0.176	0.309
-566.602	-157.615	0.109	-0.006
-565.588	-141.369	-0.123	0.012
-564.573	-64.126	0.280	-0.114
-563.558	166.268	-0.162	0.230
-562.544	-20.286	0.154	0.095
-561.529	-42.119	0.209	-0.107
-560.515	230.346	0.120	-0.196
-559.500	17.161	-0.185	0.147
-558.485	-26.975	0.330	-0.192
-557.471	149.670	-0.191	-0.258
-556.456	-65.249	0.253	0.102
-555.442	47.944	-0.010	0.010
-554.427	768.332	0.031	-0.085
-553.412	107.057	-0.122	0.145
-552.398	800.000	-0.107	-0.327
-551.383	-53.107	-0.039	0.018
-550.369	173.645	0.132	0.191
-549.354	800.000	-0.050	-0.154
-548.339	-118.787	-0.126	-0.022
-547.325	108.523	-0.176	-0.210
-546.310	336.277	-0.025	-0.049
-545.296	163.473	-0.164	0.231
-544.281	-200.000	-0.067	0.379
-543.266	328.571	0.165	0.317
-542.252	-137.286	-0.154	-0.017
-541.237	5.988	0.165	-0.122
-540.223	-143.942	0.421	-0.040
-539.208	-106.551	-0.052	-0.012
-538.193	276.985	0.111	-0.197
-537.179	48.684	-0.169	-0.158
-536.164	-200.000	0.040	-0.181
-535.150	-24.479	0.096	-0.057
-534.135	-60.515	0.111	0.047
-533.121	60.913	0.099	-0.098
-532.106	-180.038	0.302	0.006
-531.091	-29.024	0.163	0.093
-530.077	169.334	-0.094	-0.133
-529.062	800.000	-0.099	-0.367
-528.048	800.000	0.001	0.005
-527.033	-200.000	-0.062	-0.545
-526.018	5.112	-0.027	0.020
-525.004	-32.540	0.170	0.094
-523.989	49.861	-0.211	-0.199
-522.975	-11.993	0.253	-0.165
-521.960	-13.373	0.093	0.060
-520.945	-40.155	-0.068	0.036
-519.931	-156.321	0.180	-0.011
-518.916	252.334	0.077	0.131
-517.902	423.692	0.023	-0.050
-516.887	-64.356	-0.234	0.095
-515.872	-45.493	-0.186	0.092
-514.858	-200.000	0.010	-0.125
-513.843	800.000	-0.033	-0.095
-512.829	90.440	0.203	-0.227
-511.814	-69.837	0.235	0.089
-510.799	212.892	0.154	0.242
-509.785	85.346	-0.138	0.151
-508.770	-47.749	0.231	-0.112
-507.756	383.123	0.146	-0.299
-506.741	-200.000	-0.081	0.480
-505.726	58.277	-0.240	-0.235
-504.712	-1.957	0.050	0.035
-503.697	-28.742	-0.062	-0.036
-502.683	27.005	-0.137	0.114
-501.668	-108.951	0.154	-0.033
-500.653	573.648	-0.050	-0.122
-499.639	172.381	-0.092	0.132
-498.624	-173.005	-0.183	-0.006
-497.610	554.466	0.151	-0.362
-496.595	12.575	-0.138	0.106
-495.581	800.000	0.026	-0.080
-494.566	-37.303	-0.134	-0.072
-493.551	-93.688	0.279	0.077
-492.537	-187.171	-0.272	0.004
-491.522	601.823	-0.099	-0.246
-490.508	14.117	-0.410	-0.318
-489.493	-117.866	0.130	0.023
-488.478	72.002	0.038	0.040
-487.464	800.000	0.056	-0.174
-486.449	54.527	-0.107	-0.103
-485.435	-200.000	-0.001	0.282
-484.420	-71.478	-0.098	0.036
-483.405	-200.000	-0.009	-0.147
-482.391	180.796	-0.081	0.119
-481.376	408.663	-0.195	-0.410
-480.362	-200.000	-0.011	-0.203
-479.347	-68.770	-0.386	-0.149
-478.332	-90.892	-0.179	0.051
-477.318	-200.000	-0.020	-0.162
-476.303	-154.488	0.151	0.010
-475.289	418.289	0.114	0.242
-474.274	462.096	0.061	0.137
-473.259	189.874	0.132	0.197
-472.245	800.000	0.075	0.251
-471.230	735.407	-0.041	-0.109
-470.216	411.997	-0.098	-0.206
-469.201	100.938	0.065	-0.075
-468.186	-134.148	-0.131	0.016
-467.172	-129.428	-0.299	-0.041
-466.157	-94.488	0.382	0.104
-465.143	328.914	-0.234	-0.449
-464.128	-43.918	-0.208	0.104
-463.113	239.233	0.170	0.282
-462.099	800.000	-0.102	0.404
-461.084	-50.422	-0.258	-0.121
-460.070	-57.490	0.125	0.055
-459.055	149.304	-0.210	-0.283
-458.040	384.221	0.198	-0.405
-457.026	-134.747	0.107	0.013
-456.011	800.000	-0.056	-0.222
-454.997	-97.582	0.457	0.118
-453.982	44.737	0.218	0.200
-452.968	-102.991	-0.132	-0.031
-451.953	375.944	0.026	-0.053
-450.938	-200.000	-0.026	0.159
-449.924	-153.227	-0.414	-0.029
-448.909	800.000	-0.029	0.101
-447.895	-54.944	-0.275	0.124
-446.880	-47.823	0.247	-0.119
-445.865	-85.135	0.062	0.019
-444.851	-200.000	-0.009	-0.124
-443.836	82.203	0.138	0.149
-442.822	59.198	0.352	-0.344
-441.807	-26.546	0.049	0.028
-440.792	-106.661	-0.268	0.059
-439.778	-46.474	0.123	0.060
-438.763	-110.016	0.085	-0.018
-437.749	0.428	0.146	-0.104
-436.734	-41.716	-0.360	0.184
-435.719	69.202	0.154	-0.157
-434.705	-71.426	-0.161	0.060
-433.690	133.671	-0.082	-0.106
-432.676	800.000	0.081	0.313
-431.661	26.677	-0.183	-0.152
-430.646	128.075	-0.227	-0.287
-429.632	800.000	0.109	-0.347
-428.617	714.053	-0.115	0.303
-427.603	365.589	0.014	-0.028
-426.588	-60.935	-0.282	0.119
-425.573	-76.376	-0.184	-0.064
-424.559	800.000	0.046	0.201
-423.544	545.427	-0.086	-0.203
-422.530	-200.000	-0.008	0.170
-421.515	3.679	0.076	0.055
-420.500	-106.705	0.266	0.059
-419.486	670.972	0.025	0.064
-418.471	-54.841	-0.346	-0.155
-417.457	800.000	0.012	-0.033
-416.442	77.902	0.155	-0.165
-415.428	800.000	-0.024	0.092
-414.413	-200.000	0.010	0.131
-413.398	-200.000	0.021	-0.198
-412.384	515.761	-0.077	0.178
-411.369	153.146	0.141	-0.192
-410.355	-133.273	0.331	-0.041
-409.340	579.645	-0.021	-0.051
-408.325	-10.906	0.055	-0.036
-407.311	-67.484	-0.377	-0.147
-406.296	800.000	0.019	-0.079
-405.282	149.681	0.086	0.116
-404.267	-24.828	0.072	0.042
-403.252	51.194	-0.154	0.145
-402.238	800.000	0.047	0.153
-401.223	84.573	-0.033	0.036
-400.209	-52.922	-0.118	0.054
-399.194	800.000	0.032	-0.104
-398.179	68.171	-0.295	0.300
-397.165	14.472	0.139	-0.108
-396.150	-200.000	0.007	-0.053
-395.136	-63.073	-0.062	-0.026
-394.121	195.595	-0.152	0.230
-393.106	-104.689	-0.175	-0.040
-392.092	-81.682	0.295	0.096
-391.077	-71.045	0.225	-0.084
-390.063	3.670	0.217	-0.157
-389.048	99.407	-0.109	-0.126
-388.033	-12.509	-0.423	0.274
-387.019	-81.401	-0.124	0.040
-386.004	128.885	-0.086	0.108
-384.990	22.073	-0.160	-0.129
-383.975	65.246	-0.147	0.148
-382.960	296.596	0.112	-0.204
-381.946	67.871	-0.244	0.248
-380.931	-200.000	0.039	0.369
-379.917	101.860	-0.093	-0.108
-378.902	-200.000	-0.009	-0.237
-377.888	-200.000	-0.029	0.248
-376.873	-200.000	0.026	-0.173
-375.858	26.703	-0.131	-0.109
-374.844	-143.130	0.150	0.014
-373.829	94.937	0.029	0.032
-372.815	-71.784	0.024	-0.009
-371.800	-106.250	-0.084	-0.019
-370.785	-119.609	-0.204	0.035
-369.771	264.958	-0.016	-0.028
-368.756	160.976	0.099	0.137
-367.742	800.000	0.067	-0.278
-366.727	163.689	0.054	0.076
-365.712	-74.427	0.118	0.042
-364.698	465.772	0.026	0.057
-363.683	80.650	-0.124	0.132
-362.669	-200.000	-0.021	-0.236
-361.654	-200.000	-0.009	-0.210
-360.639	-29.355	0.502	0.285
-359.625	-153.730	-0.249	0.017
-358.610	107.445	0.083	-0.098
-357.596	99.893	0.121	0.139
-356.581	-200.000	-0.011	-0.143
-355.566	595.885	-0.086	-0.210
-354.552	-104.575	-0.073	-0.017
-353.537	800.000	0.075	-0.211
-352.523	-118.679	0.333	-0.058
-351.508	-200.000	0.030	0.133
-350.493	-123.358	0.081	0.013
-349.479	-42.741	-0.142	-0.072
-348.464	-155.787	-0.237	-0.015
-347.450	-108.505	0.346	0.074
-346.435	679.751	0.071	0.184
-345.420	-81.664	0.196	0.064
-344.406	267.027	0.128	0.222
-343.391	800.000	-0.052	0.145
-342.377	-169.085	0.277	0.010
-341.362	193.273	-0.169	0.253
-340.348	178.789	0.091	0.131
-339.333	-39.288	-0.194	0.101
-338.318	-200.000	0.029	0.136
-337.304	5.057	0.026	-0.019
-336.289	122.002	0.114	0.141
-335.275	254.579	0.078	-0.133
-334.260	-200.000	-0.004	-0.076
-333.245	24.674	0.130	0.106
-332.231	-82.493	-0.100	0.032
-331.216	328.134	0.176	0.334
-330.202	-200.000	0.012	-0.333
-329.187	396.922	-0.162	0.335
-328.172	800.000	-0.142	0.492
-327.158	-200.000	0.065	-0.424
-326.143	800.000	0.073	0.199
-325.129	140.806	-0.145	-0.189
-324.114	47.216	0.052	0.048
-323.099	-200.000	0.070	0.327
-322.085	38.715	-0.287	0.253
-321.070	-112.961	-0.024	0.005
-320.056	-157.726	-0.199	-0.012
-319.041	800.000	0.105	-0.341
-318.026	-129.900	0.242	0.033
-317.012	-200.000	0.010	0.271
-315.997	-200.000	0.009	0.065
-314.983	-168.227	0.187	0.007
-313.968	-40.896	-0.051	0.026
-312.953	492.124	-0.123	0.280
-311.939	747.308	0.155	0.413
-310.924	4.241	-0.072	-0.052
-309.910	-200.000	0.019	-0.304
-308.895	152.945	-0.110	0.149
-307.880	89.816	-0.063	0.069
-306.866	60.008	0.192	-0.187
-305.851	-35.849	-0.331	0.177
-304.837	-164.897	-0.088	0.004
-303.822	108.364	-0.236	0.278
-302.807	-158.618	-0.285	0.016
-301.793	-200.000	0.011	0.323
-300.778	104.993	0.215	0.251
-299.764	-163.037	-0.164	0.008
-298.749	160.284	0.233	-0.322
-297.735	104.129	-0.276	0.321
-296.720	80.680	-0.096	-0.103
-295.705	224.169	-0.059	-0.094
-294.691	434.103	-0.041	0.088
-293.676	-200.000	0.013	0.219
-292.662	-16.897	0.123	-0.077
-291.647	256.380	-0.137	-0.232
-290.632	663.771	0.050	0.127
-289.618	3.905	0.135	0.098
-288.603	27.205	0.259	-0.215
-287.589	-73.006	0.381	-0.139
-286.574	-20.356	-0.198	-0.121
-285.559	-144.469	0.058	0.005
-284.545	800.000	0.053	0.211
-283.530	-128.991	0.173	0.024
-282.516	118.839	-0.120	0.147
-281.501	-200.000	-0.038	-0.194
-280.486	-200.000	0.010	-0.085
-279.472	131.914	-0.058	-0.074
-278.457	-175.355	0.259	0.007
-277.443	-200.000	0.008	-0.172
-276.428	248.010	0.123	0.205
-275.413	121.356	0.082	-0.101
-274.399	-200.000	0.043	-0.197
-273.384	-105.243	-0.301	-0.068
-272.370	105.090	0.064	0.075
-271.355	-58.093	0.058	0.025
-270.340	27.631	0.023	0.019
-269.326	764.415	0.074	0.199
-268.311	-51.954	-0.152	0.070
-267.297	-200.000	-0.005	-0.113
-266.282	-147.573	0.179	0.015
-265.267	-85.747	-0.322	0.099
-264.253	283.278	-0.141	0.251
-263.238	90.053	0.116	0.128
-262.224	800.000	0.059	-0.196
-261.209	800.000	-0.037	0.118
-260.195	-166.985	0.124	-0.005
-259.180	57.984	-0.070	-0.068
-258.165	40.037	-0.184	-0.164
-257.151	-200.000	0.016	0.170
-256.136	-40.907	0.103	-0.053
-255.122	-42.342	-0.131	0.066
-254.107	-131.948	0.066	0.008
-253.092	-147.845	0.449	0.037
-252.078	800.000	-0.181	0.513
-251.063	15.344	0.142	0.110
-250.049	137.291	0.038	0.049
-249.034	-49.374	-0.197	0.093
-248.019	-200.000	0.027	0.398
-247.005	-147.742	-0.206	-0.017
-245.990	701.178	0.052	0.135
-244.976	50.995	-0.154	-0.144
-243.961	-44.098	0.186	-0.092
-242.946	800.000	0.093	-0.268
-241.932	-200.000	-0.016	0.352
-240.917	-135.351	0.245	0.029
-239.903	-57.572	-0.074	0.032
-238.888	97.780	0.243	-0.275
-237.873	-139.448	-0.158	-0.017
-236.859	211.469	-0.159	0.247
-235.844	-19.442	-0.204	-0.125
-234.830	-86.078	0.231	0.070
-233.815	521.031	0.047	-0.108
-232.800	-200.000	0.009	-0.227
-231.786	107.353	0.068	0.080
-230.771	55.373	0.368	0.351
-229.757	-147.571	0.371	-0.031
-228.742	-21.962	0.271	-0.162
-227.727	168.338	0.143	0.201
-226.713	800.000	-0.078	0.216
-225.698	800.000	0.022	-0.072
-224.684	-8.602	-0.235	0.156
-223.669	66.753	0.071	0.071
-222.655	87.497	-0.183	0.200
-221.640	-45.563	0.427	-0.208
-220.625	-115.822	0.138	-0.025
-219.611	-57.188	0.125	0.054
-218.596	-200.000	-0.007	0.095
-217.582	-66.336	0.109	0.043
-216.567	-142.135	-0.470	-0.046
-215.552	184.885	0.185	0.270
-214.538	800.000	-0.079	0.286
-213.523	-57.637	-0.069	-0.030
-212.509	-136.477	0.436	0.050
-211.494	260.706	-0.044	0.076
-210.479	-110.387	0.342	-0.070
-209.465	498.507	0.053	-0.119
-208.450	-137.416	-0.351	-0.039
-207.436	-200.000	-0.051	0.344
-206.421	120.601	-0.040	0.050
-205.406	144.881	0.201	0.264
-204.392	-79.021	-0.229	-0.077
-203.377	35.949	0.301	-0.261
-202.363	-200.000	-0.072	0.319
-201.348	800.000	-0.002	-0.006
-200.333	-157.394	-0.215	0.013
-199.319	-31.791	0.057	-0.031
-198.304	-200.000	0.003	0.031
-197.290	-200.000	0.033	0.221
-196.275	-173.344	0.094	0.003
-195.260	64.158	0.090	0.090
-194.246	-90.625	-0.150	0.043
-193.231	-200.000	-0.081	-0.380
-192.217	-121.920	-0.270	-0.044
-191.202	-200.000	0.059	0.345
-190.187	-93.296	0.172	-0.047
-189.173	-24.056	-0.371	-0.218
-188.158	-200.000	0.095	-0.477
-187.144	715.709	0.095	-0.248
-186.129	214.719	0.122	0.190
-185.114	800.000	-0.066	0.275
-184.100	-200.000	-0.026	-0.160
-183.085	-124.971	0.144	0.022
-182.071	-200.000	-0.016	0.140
-181.056	-112.161	0.078	-0.015
-180.042	133.662	0.032	0.041
-179.027	56.454	0.075	-0.072
-178.012	524.479	-0.065	0.150
-176.998	227.424	0.079	-0.126
-175.983	-104.537	0.123	-0.028
-174.969	9.087	0.099	-0.073
-173.954	318.029	0.161	0.299
-172.939	-200.000	0.022	0.454
-171.925	-48.977	0.126	0.059
-170.910	-129.202	0.514	0.071
-169.896	-200.000	0.039	0.272
-168.881	78.832	0.244	-0.257
-167.866	61.118	-0.116	0.113
-166.852	452.740	-0.071	-0.154
-165.837	-36.869	0.272	-0.144
-164.823	-161.531	-0.247	0.012
-163.808	800.000	0.046	-0.144
-162.793	38.016	0.134	0.118
-161.779	-66.331	0.206	-0.081
-160.764	61.643	-0.189	0.185
-159.750	800.000	0.045	-0.134
-158.735	229.565	0.034	-0.055
-157.720	158.322	-0.287	-0.392
-156.706	-200.000	0.055	0.282
-155.691	262.459	-0.043	0.073
-154.677	-94.625	-0.252	0.068
-153.662	-120.369	-0.081	-0.014
-152.647	-118.996	-0.367	0.063
-151.633	800.000	0.076	0.238
-150.618	-71.141	0.211	0.078
-149.604	-88.397	-0.364	0.107
-148.589	18.291	0.138	-0.108
-147.574	-200.000	0.026	-0.139
-146.560	-200.000	0.003	0.127
-145.545	-59.989	0.167	0.070
-144.531	10.469	0.164	-0.123
-143.516	-32.112	-0.188	-0.103
-142.502	-200.000	0.056	0.248
-141.487	-138.177	-0.193	0.021
-140.472	-6.253	0.126	-0.084
-139.458	37.951	0.099	0.087
-138.443	-200.000	-0.039	-0.277
-137.429	-154.777	0.294	0.019
-136.414	137.962	0.108	0.140
-135.399	800.000	-0.020	-0.060
-134.385	-92.872	0.151	0.042
-133.370	-200.000	-0.013	-0.217
-132.356	-20.834	0.114	0.069
-131.341	155.843	-0.192	0.260
-130.326	-200.000	0.043	-0.271
-129.312	-86.551	0.119	0.036
-128.297	171.326	0.083	-0.117
-127.283	-200.000	-0.003	-0.362
-126.268	-54.733	0.157	0.070
-125.253	-200.000	0.028	-0.130
-124.239	424.273	0.210	0.443
-123.224	94.033	0.044	0.048
-122.210	-178.636	-0.159	0.004
-121.195	15.651	0.099	-0.076
-120.180	32.578	-0.190	-0.161
-119.166	-121.203	0.257	0.042
-118.151	-12.454	-0.342	0.219
-117.137	76.297	0.182	0.190
-116.122	-159.458	0.274	0.015
-115.107	-42.132	-0.324	0.163
-114.093	-200.000	0.019	0.157
-113.078	800.000	-0.094	-0.342
-112.064	285.765	0.126	-0.223
-111.049	800.000	-0.036	0.111
-110.034	-200.000	0.356	0.001
-109.020	-21.356	-0.167	0.100
-108.005	-10.796	0.262	0.170
-106.991	800.000	-0.022	0.061
-105.976	-58.767	0.160	0.068
-104.962	800.000	-0.111	-0.435
-103.947	256.274	-0.225	0.379
-102.932	128.793	0.185	-0.232
-101.918	-113.995	-0.432	0.082
-100.903	-200.000	0.025	-0.485
-99.889	-200.000	-0.034	-0.169
-98.874	-37.259	0.071	-0.037
-97.859	-75.433	-0.394	-0.138
-96.845	-119.868	0.544	-0.092
-95.830	-85.449	-0.233	0.071
-94.816	-94.746	-0.148	-0.039
-93.801	-155.729	-0.068	-0.004
-92.786	7.340	0.094	-0.069
-91.772	-29.057	-0.195	0.110
-90.757	322.070	-0.144	-0.269
-89.743	-97.995	0.308	-0.078
-88.728	355.862	0.088	-0.172
-87.713	293.531	0.062	-0.111
-86.699	20.366	-0.209	0.165
-85.684	-128.295	-0.182	0.025
-84.670	-31.454	-0.379	-0.209
-83.655	10.909	0.061	-0.046
-82.640	147.757	0.203	0.268
-81.626	464.630	-0.183	0.401
-80.611	-63.435	0.178	0.072
-79.597	-200.000	0.033	0.225
-78.582	-200.000	-0.008	0.093
-77.567	-200.000	-0.012	0.087
-76.553	560.228	-0.118	0.278
-75.538	-70.622	-0.249	-0.092
-74.524	101.465	0.213	-0.243
-73.509	-101.042	0.176	0.042
-72.494	-82.357	0.419	0.133
-71.480	122.600	-0.122	0.149
-70.465	2.931	0.172	0.123
-69.451	800.000	-0.068	0.257
-68.436	-143.113	0.320	0.030
-67.422	-57.590	-0.091	-0.039
-66.407	-87.996	0.221	-0.065
-65.392	386.837	0.053	-0.107
-64.378	-7.555	-0.242	0.161
-63.363	800.000	0.087	0.275
-62.349	-54.393	0.312	0.139
-61.334	82.098	-0.872	-0.926
-60.319	-3.478	0.845	0.576
-59.305	-200.000	-0.205	-0.923
-58.290	205.302	0.701	1.067
-57.276	311.255	0.706	1.296
-56.261	-200.000	105.614	620.723
-55.246	520.522	1499.712	3446.023
-54.232	177.872	2691.052	3845.286
-53.217	112.021	2175.433	2575.401
-52.203	40.387	1697.367	1497.017
-51.188	32.820	1508.529	1279.351
-50.173	30.481	1481.251	1240.569
-49.159	51.974	1537.585	1434.617
-48.144	52.177	1554.110	1451.355
-47.130	33.026	1509.720	1281.558
-46.115	29.989	1495.017	1248.585
-45.100	29.864	1491.380	1244.654
-44.086	29.731	1489.466	1242.117
-43.071	29.635	1487.718	1239.964
-42.057	29.630	1485.929	1238.390
-41.042	29.737	1484.110	1237.541
-40.027	29.692	1483.053	1236.311
-39.013	29.644	1481.653	1234.774
-37.998	29.602	1480.598	1233.565
-36.984	29.656	1478.952	1232.508
-35.969	29.651	1477.348	1231.086
-34.954	29.632	1476.252	1230.000
-33.940	29.636	1474.672	1228.663
-32.925	29.601	1473.737	1227.601
-31.911	29.705	1472.150	1226.917
-30.896	29.799	1470.935	1226.479
-29.881	29.774	1469.494	1225.067
-28.867	29.820	1468.181	1224.224
-27.852	29.797	1466.678	1222.775
-26.838	29.747	1465.547	1221.452
-25.823	29.777	1464.068	1220.366
-24.809	29.752	1462.359	1218.732
-23.794	29.753	1461.054	1217.602
-22.779	29.819	1459.665	1216.830
-21.765	29.696	1459.119	1215.518
-20.750	29.774	1457.847	1214.924
-19.736	29.639	1457.024	1213.304
-18.721	29.744	1455.468	1212.644
-17.706	29.669	1454.888	1211.620
-16.692	29.638	1453.999	1210.630
-15.677	29.667	1452.457	1209.487
-14.663	29.731	1451.201	1208.812
-13.648	29.677	1450.665	1207.965
-12.633	29.786	1449.064	1207.299
-11.619	29.656	1448.651	1206.056
-10.604	29.590	1448.297	1205.285
-9.590	29.595	1447.608	1204.694
-8.575	29.668	1446.537	1204.230
-7.560	29.623	1445.146	1202.732
-6.546	29.692	1444.428	1202.537
-5.531	29.590	1443.967	1201.439
-4.517	29.660	1443.067	1201.097
-3.502	29.587	1442.114	1199.786
-2.487	29.594	1440.919	1198.788
-1.473	29.602	1439.639	1197.725
-0.458	29.575	1438.263	1196.361
0.556	27.367	1429.413	1185.623
1.571	24.277	1403.630	1144.337
2.586	20.807	1343.520	1073.872
3.600	19.292	1261.984	999.829
4.615	18.089	1218.358	958.438
5.629	15.712	1163.369	902.360
6.644	7.565	1080.705	797.404
7.659	0.824	1040.781	735.199
8.673	-0.140	1035.574	726.792
9.688	-0.226	1032.244	723.976
10.702	-0.485	1030.992	721.785
11.717	-0.369	1028.524	720.554
12.731	2.630	1031.536	737.036
13.746	11.129	1044.054	787.137
14.761	18.185	1052.634	827.800
15.775	19.737	1053.946	836.276
16.790	19.901	1053.423	836.577
17.804	19.676	1052.987	835.071
18.819	19.538	1052.168	833.681
19.834	19.654	1051.309	833.485
20.848	19.732	1051.212	833.711
21.863	19.789	1050.949	833.705
22.877	19.624	1050.399	832.402
23.892	19.756	1049.012	831.864
24.907	19.645	1048.529	830.871
25.921	19.642	1048.068	830.417
26.936	19.738	1047.204	830.123
27.950	19.734	1045.603	828.761
28.965	19.679	1044.861	827.836
29.980	19.542	1043.069	825.687
30.994	19.424	1041.858	824.093
32.009	19.803	1040.948	825.109
33.023	19.738	1040.097	824.052
34.038	19.598	1038.649	822.163
35.053	19.536	1038.253	821.481
36.067	19.774	1037.743	822.139
37.082	19.592	1037.211	820.780
38.096	19.771	1035.951	820.557
39.111	19.871	1035.585	820.671
40.126	19.968	1034.377	820.099
41.140	19.868	1033.298	818.700
42.155	19.699	1031.648	816.520
43.169	19.341	1030.362	813.739
44.184	19.447	1029.237	813.279
45.199	19.482	1028.077	812.458
46.213	19.500	1026.890	811.532
47.228	19.410	1026.116	810.424
48.242	19.426	1025.101	809.628
49.257	19.553	1024.224	809.456
50.271	19.579	1023.418	808.870
51.286	19.705	1022.597	808.741
52.301	19.664	1021.836	807.877
53.315	19.771	1020.849	807.522
54.330	19.685	1020.372	806.673
55.344	19.627	1019.235	805.431
56.359	19.668	1018.011	804.583
57.374	19.752	1016.901	804.027
58.388	19.399	1016.499	801.998
59.403	19.536	1015.644	801.890
60.417	19.576	1015.019	801.507
61.432	19.497	1013.878	800.172
62.447	19.294	1013.468	798.837
63.461	19.443	1013.275	799.304
64.476	19.727	1011.654	799.266
65.490	19.503	1011.064	797.696
66.505	19.430	1009.930	796.393
67.520	19.428	1009.245	795.774
68.534	19.684	1008.401	796.215
69.549	19.525	1007.126	794.408
70.563	19.142	1006.540	792.112
71.578	19.230	1005.376	791.532
72.593	19.189	1004.581	790.647
73.607	19.065	1003.564	789.210
74.622	19.149	1002.245	788.488
75.636	19.251	1001.766	788.504
76.651	19.387	1001.182	788.601
77.666	19.305	999.951	787.186
78.680	19.210	998.977	785.915
79.695	19.298	998.014	785.488
80.709	19.395	997.736	785.645
81.724	19.386	996.861	784.844
82.739	19.451	995.970	784.367
83.753	19.285	995.925	783.509
84.768	19.659	994.205	783.784
85.782	19.849	994.127	784.513
86.797	20.092	992.790	784.489
87.812	19.933	992.165	783.207
88.826	19.883	990.892	781.905
89.841	19.657	990.756	780.709
90.855	19.815	990.144	780.873
91.870	19.967	989.383	780.889
92.884	19.890	988.160	779.507
93.899	19.839	987.153	778.414
94.914	19.777	985.760	776.966
95.928	19.904	985.046	776.906
96.943	19.927	984.454	776.474
97.957	19.732	983.317	774.633
98.972	19.453	982.354	772.557
99.987	19.277	980.846	770.516
101.001	19.342	980.625	770.565
102.016	19.631	980.590	771.760
103.030	19.771	979.272	771.280
104.045	19.534	977.991	769.146
105.060	19.498	976.317	767.603
106.074	19.437	975.193	766.381
107.089	19.387	974.897	765.856
108.103	19.732	974.628	767.108
109.118	19.873	973.711	766.945
110.133	19.605	972.516	764.751
111.147	19.503	971.445	763.390
112.162	19.468	970.260	762.237
113.176	19.247	969.186	760.349
114.191	19.251	968.385	759.672
115.206	19.409	967.599	759.683
116.220	19.209	965.886	757.391
117.235	19.089	964.867	755.999
118.249	19.174	964.477	755.999
119.264	19.237	963.496	755.441
120.279	19.179	962.459	754.306
121.293	19.191	961.640	753.652
122.308	19.246	960.824	753.186
123.322	19.380	959.979	753.042
124.337	19.167	959.431	751.617
125.352	19.165	957.962	750.389
126.366	18.874	955.988	747.510
127.381	18.525	954.356	744.654
128.395	18.996	954.088	746.424
129.410	19.671	953.765	749.030
130.424	19.662	953.242	748.515
131.439	19.609	952.048	747.282
132.454	19.645	950.660	746.281
133.468	19.626	950.126	745.714
134.483	19.437	949.570	744.395
135.497	19.642	948.445	744.334
136.512	19.858	947.896	744.765
137.527	19.876	947.396	744.381
138.541	19.857	946.039	743.169
139.556	19.715	946.029	742.487
140.570	19.890	944.728	742.150
141.585	20.039	943.466	741.733
142.600	19.881	943.228	740.801
143.614	19.863	941.917	739.630
144.629	19.965	941.314	739.526
145.643	20.158	940.442	739.601
146.658	19.958	939.229	737.728
147.673	19.777	938.393	736.237
148.687	19.750	937.137	735.072
149.702	19.804	936.090	734.415
150.716	19.586	935.060	732.614
151.731	19.691	933.989	732.159
152.746	19.799	933.448	732.123
153.760	19.937	932.588	731.970
154.775	19.992	932.069	731.731
155.789	20.130	931.188	731.555
156.804	19.882	930.312	729.757
157.819	20.023	928.931	729.203
158.833	19.978	928.397	728.531
159.848	19.986	927.777	728.014
160.862	20.215	926.554	727.951
161.877	20.056	925.584	726.458
162.892	19.922	924.884	725.283
163.906	20.115	923.953	725.297
164.921	20.039	923.538	724.589
165.935	20.134	921.911	723.643
166.950	19.943	921.024	722.087
167.964	20.142	919.995	722.045
168.979	20.094	919.031	721.025
169.994	19.914	918.483	719.782
171.008	19.800	917.249	718.278
172.023	20.125	916.288	718.811
173.037	20.190	915.597	718.476
174.052	19.981	914.431	716.632
175.067	19.754	913.650	715.018
176.081	19.854	912.338	714.339
177.096	19.859	912.287	714.256
178.110	19.849	911.007	713.150
179.125	19.586	910.240	711.405
180.140	19.441	909.003	709.778
181.154	19.318	908.619	708.908
182.169	19.592	907.725	709.272
183.183	19.743	907.882	709.953
184.198	20.056	907.012	710.494
185.213	19.941	906.222	709.344
186.227	20.056	905.467	709.160
187.242	20.076	904.937	708.761
188.256	20.020	904.204	707.896
189.271	20.020	903.406	707.209
190.286	20.209	902.367	707.107
191.300	20.091	901.920	706.211
192.315	19.523	900.510	702.734
193.329	18.831	899.191	698.829
194.344	18.557	898.233	696.907
195.359	19.009	898.948	699.241
196.373	19.840	898.979	702.578
197.388	20.079	898.474	703.092
198.402	19.938	897.646	701.809
199.417	19.717	896.762	700.161
200.432	19.816	896.536	700.321
201.446	19.727	895.952	699.443
202.461	19.548	894.471	697.504
203.475	19.610	894.036	697.354
204.490	19.095	892.659	694.140
205.504	18.063	890.685	688.392
206.519	18.563	890.366	690.096
207.534	19.524	891.011	694.402
208.548	19.663	890.412	694.431
209.563	19.866	890.228	695.041
210.577	19.945	889.860	695.009
211.592	19.661	888.912	693.068
212.607	19.900	888.815	693.890
213.621	19.861	888.732	693.607
214.636	19.973	887.826	693.288
215.650	20.089	886.898	692.965
216.665	20.001	886.542	692.275
217.680	19.996	886.164	691.901
218.694	20.160	884.848	691.464
219.709	19.971	883.841	689.865
220.723	19.480	883.325	687.446
221.738	19.641	883.130	687.874
222.753	19.975	882.244	688.450
223.767	19.890	881.530	687.493
224.782	19.993	880.573	687.097
225.796	20.024	880.589	687.171
226.811	20.267	879.747	687.416
227.826	19.784	878.710	684.633
228.840	19.093	876.739	680.306
229.855	19.226	876.060	680.245
230.869	19.328	876.140	680.651
231.884	18.886	874.919	677.899
232.899	18.967	874.663	677.959
233.913	19.739	874.678	680.954
234.928	19.997	874.318	681.626
235.942	20.023	873.244	680.834
236.957	19.996	872.631	680.187
237.972	19.610	872.268	678.327
238.986	19.549	870.915	676.977
240.001	19.681	870.399	677.035
241.015	19.704	869.979	676.736
242.030	19.803	869.188	676.451
243.045	19.858	868.590	676.140
244.059	19.857	868.007	675.623
245.074	20.132	867.537	676.268
246.088	20.088	866.866	675.515
247.103	19.606	865.944	672.859
248.117	19.725	865.494	672.913
249.132	20.180	865.352	674.514
250.147	20.439	865.014	675.195
251.161	20.488	864.023	674.554
252.176	20.723	863.807	675.239
253.190	20.703	862.949	674.431
254.205	20.758	862.522	674.249
255.220	20.886	862.192	674.428
256.234	20.731	861.437	673.176
257.249	20.730	860.736	672.566
258.263	20.683	859.832	671.617
259.278	20.555	859.607	670.891
260.293	20.738	858.964	671.035
261.307	20.909	858.042	670.913
262.322	20.775	857.083	669.589
263.336	20.463	856.687	668.021
264.351	20.251	855.159	665.955
265.366	18.987	853.382	659.667
266.380	18.604	853.088	657.913
267.395	19.472	853.170	661.247
268.409	20.369	853.209	664.653
269.424	20.271	852.670	663.802
270.439	20.401	852.020	663.733
271.453	20.597	851.159	663.752
272.468	20.566	850.357	662.949
273.482	20.897	850.022	663.890
274.497	20.937	849.407	663.502
275.512	20.700	848.393	661.751
276.526	19.994	847.447	658.272
277.541	20.271	846.788	658.754
278.555	20.571	846.562	659.659
279.570	20.513	845.368	658.451
280.585	20.175	844.776	656.651
281.599	20.394	844.082	656.883
282.614	20.334	844.263	656.737
283.628	19.886	843.120	654.096
284.643	19.765	841.579	652.388
285.657	20.178	842.036	654.243
286.672	20.000	841.127	652.809
287.687	19.595	840.156	650.472
288.701	19.887	840.046	651.430
289.716	20.191	839.717	652.257
290.730	19.981	838.607	650.551
291.745	19.834	837.761	649.286
292.760	19.669	837.023	648.038
293.774	19.515	836.898	647.305
294.789	20.504	837.108	651.116
295.803	21.130	837.100	653.399
296.818	21.095	836.200	652.508
297.833	21.186	835.959	652.602
298.847	20.979	834.474	650.611
299.862	20.646	833.829	648.809
300.876	20.838	833.669	649.342
301.891	21.105	833.081	649.822
302.906	21.065	832.499	649.164
303.920	20.648	831.505	646.779
304.935	20.455	830.956	645.577
305.949	20.950	830.355	646.891
306.964	21.054	829.773	646.766
307.979	20.842	829.503	645.714
308.993	20.872	828.646	645.100
310.008	21.160	828.534	646.021
311.022	21.304	827.942	646.036
312.037	21.063	827.544	644.777
313.052	20.937	826.651	643.558
314.066	20.812	825.857	642.422
315.081	20.204	824.576	639.131
316.095	19.597	823.540	636.035
317.110	20.097	823.680	637.928
318.125	20.826	823.984	640.792
319.139	20.466	822.809	638.498
320.154	19.376	821.214	633.204
321.168	18.930	820.213	630.738
322.183	19.654	820.626	633.657
323.197	20.345	821.005	636.427
324.212	20.674	820.583	637.249
325.227	20.841	820.042	637.386
326.241	20.964	819.725	637.532
327.256	20.789	818.883	636.181
328.270	20.937	818.076	636.038
329.285	20.689	817.506	634.636
330.300	20.607	816.887	633.800
331.314	20.518	816.043	632.763
332.329	20.274	815.965	631.760
333.343	20.781	815.139	632.907
334.358	21.057	814.904	633.671
335.373	20.984	814.382	632.943
336.387	21.012	814.187	632.838
337.402	21.273	813.769	633.405
338.416	21.509	812.670	633.346
339.431	21.448	812.166	632.676
340.446	21.315	811.546	631.660
341.460	21.518	811.271	632.121
342.475	21.358	810.514	630.897
343.489	21.299	809.527	629.863
344.504	21.389	809.043	629.754
345.519	21.612	808.904	630.391
346.533	21.815	809.028	631.164
347.548	21.635	808.547	630.086
348.562	21.824	808.132	630.386
349.577	21.787	807.724	629.880
350.592	21.804	806.891	629.236
351.606	21.733	806.406	628.545
352.621	21.759	806.021	628.282
353.635	21.654	805.151	627.172
354.650	21.558	805.022	626.673
355.665	21.205	803.862	624.455
356.679	20.144	802.398	619.470
357.694	20.159	801.799	619.008
358.708	20.788	801.873	621.254
359.723	20.634	801.330	620.229
360.738	21.053	800.854	621.299
361.752	21.349	800.581	622.086
362.767	21.417	800.215	621.989
363.781	21.611	800.615	622.934
364.796	21.951	800.342	623.877
365.810	21.961	800.055	623.632
366.825	22.053	799.432	623.418
367.840	22.014	799.073	622.946
368.854	21.867	798.460	621.891
369.869	21.507	797.214	619.592
370.883	21.369	796.640	618.601
371.898	21.608	796.336	619.158
372.913	21.416	795.632	617.878
373.927	21.400	794.720	617.059
374.942	21.406	794.649	616.967
375.956	21.580	794.132	617.127
376.971	21.721	793.715	617.242
377.986	21.724	793.066	616.695
379.000	21.907	792.415	616.778
380.015	22.014	792.080	616.839
381.029	21.683	791.549	615.209
382.044	21.826	791.009	615.237
383.059	22.045	790.510	615.562
384.073	22.071	789.674	614.948
385.088	22.014	789.190	614.316
386.102	21.983	788.878	613.910
387.117	21.822	788.301	612.845
388.132	21.690	787.833	611.963
389.146	21.734	786.812	611.273
390.161	21.041	786.288	608.393
391.175	21.162	785.716	608.319
392.190	21.513	786.100	609.787
393.205	21.794	785.151	609.975
394.219	20.595	783.715	604.639
395.234	19.201	781.677	598.173
396.248	18.669	780.641	595.484
397.263	19.806	781.430	599.979
398.278	21.575	782.433	606.833
399.292	22.022	782.050	608.031
400.307	21.427	781.849	605.760
401.321	21.409	781.542	605.407
402.336	21.391	781.080	604.934
403.350	21.831	780.867	606.238
404.365	22.259	780.349	607.257
405.380	22.490	780.388	608.034
406.394	22.498	780.402	608.016
407.409	22.842	779.650	608.564
408.423	22.596	779.247	607.347
409.438	22.504	778.921	606.722
410.453	22.800	777.979	606.953
411.467	22.838	777.763	606.863
412.482	22.580	777.419	605.653
413.496	22.583	776.681	605.034
414.511	22.700	776.388	605.155
415.526	22.709	776.131	604.933
416.540	22.714	775.886	604.704
417.555	22.573	775.006	603.481
418.569	22.262	774.340	601.848
419.584	22.233	774.034	601.456
420.599	22.457	773.253	601.563
421.613	158.839	1361.181	1798.847
422.628	137.083	1446.853	1798.902
