DTS Sentinel unit serial number:	SN413079Multiplexer serial number:	ORYXHardware model number:	OX4-SRSoftware version number:	ORYX F/W v4.00 Oryx Data Collector v3.7.2.0data status	okinstallation	princeton_trtdifferential loss correction	single-endedforward channel	channel 3reverse channel	N/Adate	2019/09/12time	00:26:11forward acquisition time	60.00reverse acquisition time	0.00gamma	496.2192k internal	0.2318k external	0.2318temperature offset calibration	1.0070default loss term (dB/km)	0.3790temperature slope calibration	1.0000multiplexer offset coefficient	1.0000multiplexer slope coefficient	1.0000fibre end	0.00T internal ref (°C)	33.44T ext. ref 1 (°C)	2.04T ext. ref 2 (°C)	27.53length (m)	temperature (°C)	Stokes	anti-Stokes-747.200	160.783	0.037	-0.052
-746.185	185.434	0.242	0.363
-745.171	16.540	0.182	-0.146
-744.156	-82.475	-0.383	0.126
-743.142	733.169	0.057	0.154
-742.127	-200.000	0.018	0.497
-741.112	404.414	0.192	-0.410
-740.098	431.886	0.105	0.231
-739.083	-75.990	0.124	0.044
-738.069	473.011	-0.022	0.051
-737.054	33.438	-0.020	-0.017
-736.039	278.572	-0.127	-0.230
-735.025	-200.000	-0.025	0.219
-734.010	88.243	-0.152	0.171
-732.996	38.680	-0.153	-0.138
-731.981	-200.000	-0.011	-0.083
-730.966	800.000	0.077	0.232
-729.952	293.238	-0.032	-0.059
-728.937	-200.000	0.019	-0.118
-727.923	800.000	0.076	-0.232
-726.908	-40.989	-0.238	0.124
-725.894	800.000	-0.019	0.063
-724.879	151.970	0.133	-0.184
-723.864	217.763	-0.046	0.074
-722.850	-200.000	0.008	0.215
-721.835	-66.324	0.147	0.059
-720.821	800.000	-0.067	-0.188
-719.806	428.675	0.172	-0.376
-718.791	-35.087	-0.148	-0.081
-717.777	800.000	-0.087	-0.246
-716.762	-200.000	-0.107	0.480
-715.748	-22.381	-0.196	-0.120
-714.733	-200.000	-0.238	-0.000
-713.718	800.000	0.083	-0.297
-712.704	-92.766	-0.133	-0.038
-711.689	83.288	0.040	-0.044
-710.675	-77.896	-0.471	0.164
-709.660	76.359	-0.065	0.069
-708.645	-200.000	-0.018	-0.213
-707.631	-117.561	0.267	0.049
-706.616	-200.000	0.002	0.126
-705.602	221.913	0.079	0.129
-704.587	387.452	-0.164	-0.342
-703.572	-153.917	-0.270	-0.019
-702.558	126.147	0.102	0.130
-701.543	-21.864	0.158	0.097
-700.529	-126.943	0.462	-0.069
-699.514	-105.684	0.247	-0.057
-698.499	-148.765	-0.443	-0.036
-697.485	-200.000	0.033	0.240
-696.470	-19.534	-0.448	-0.280
-695.456	800.000	0.051	-0.145
-694.441	-102.089	-0.063	0.015
-693.426	-136.140	-0.202	-0.024
-692.412	-111.450	0.365	0.075
-691.397	800.000	-0.056	-0.229
-690.383	-200.000	0.009	-0.115
-689.368	-200.000	0.011	0.062
-688.354	139.767	0.009	0.011
-687.339	-200.000	-0.010	-0.110
-686.324	-200.000	0.062	-0.288
-685.310	109.104	-0.173	0.209
-684.295	-200.000	-0.006	0.271
-683.281	800.000	-0.056	0.180
-682.266	-157.623	0.259	0.016
-681.251	-200.000	-0.011	0.133
-680.237	-75.323	-0.318	-0.115
-679.222	-200.000	0.086	-0.451
-678.208	800.000	-0.022	0.074
-677.193	-60.108	0.203	-0.087
-676.178	-32.888	0.169	-0.095
-675.164	-119.064	-0.085	0.015
-674.149	-146.742	0.074	-0.006
-673.135	-181.592	0.411	-0.008
-672.120	370.973	-0.106	-0.217
-671.105	-29.534	0.254	-0.146
-670.091	77.766	0.264	0.284
-669.076	-8.194	-0.161	-0.109
-668.062	326.234	0.145	-0.279
-667.047	203.013	-0.234	-0.365
-666.032	-108.199	-0.085	-0.019
-665.018	-74.908	0.092	-0.033
-664.003	-200.000	-0.027	0.287
-662.989	-200.000	0.005	-0.189
-661.974	-56.088	-0.160	-0.072
-660.959	-200.000	0.014	-0.101
-659.945	-128.502	-0.158	0.023
-658.930	-10.355	-0.270	0.181
-657.916	184.862	0.026	0.039
-656.901	-54.829	0.149	-0.068
-655.886	-86.912	-0.245	0.075
-654.872	127.971	-0.068	0.087
-653.857	120.962	0.141	-0.176
-652.843	-200.000	0.044	-0.306
-651.828	-200.000	0.003	0.091
-650.814	-64.779	0.391	0.160
-649.799	180.674	0.022	-0.033
-648.784	579.229	-0.094	0.232
-647.770	209.515	0.084	0.132
-646.755	-56.532	-0.435	0.195
-645.741	307.578	-0.034	-0.064
-644.726	271.860	-0.104	-0.185
-643.711	151.677	0.241	0.331
-642.697	-200.000	0.006	-0.134
-641.682	800.000	-0.075	-0.317
-640.668	-98.982	-0.254	-0.065
-639.653	34.279	-0.149	0.131
-638.638	-37.608	0.170	-0.091
-637.624	250.918	-0.054	0.092
-636.609	800.000	0.076	-0.260
-635.595	-200.000	-0.021	-0.184
-634.580	-127.006	-0.107	0.016
-633.565	161.482	0.079	0.111
-632.551	-1.072	0.360	0.256
-631.536	317.885	0.054	-0.104
-630.522	-62.785	-0.192	-0.080
-629.507	-38.177	0.347	0.185
-628.492	-200.000	0.072	0.489
-627.478	-4.192	-0.127	0.089
-626.463	-153.594	-0.097	-0.007
-625.449	-200.000	0.027	-0.133
-624.434	-200.000	-0.033	-0.346
-623.419	800.000	0.046	-0.182
-622.405	-29.217	-0.196	0.113
-621.390	-135.255	0.561	0.068
-620.376	-200.000	-0.031	-0.351
-619.361	28.037	-0.097	-0.082
-618.346	-184.887	0.263	-0.004
-617.332	154.984	0.082	-0.114
-616.317	353.222	0.047	0.093
-615.303	-108.300	-0.390	-0.085
-614.288	-107.487	0.488	-0.108
-613.273	800.000	0.039	-0.161
-612.259	-98.915	-0.157	-0.040
-611.244	-29.919	0.193	0.111
-610.230	800.000	-0.049	-0.164
-609.215	-101.673	-0.254	0.062
-608.201	-17.422	-0.286	-0.181
-607.186	-147.692	0.071	0.006
-606.171	-149.027	0.159	0.013
-605.157	-66.968	0.189	0.075
-604.142	744.443	0.038	0.103
-603.128	-200.000	0.043	0.243
-602.113	-112.504	-0.214	-0.043
-601.098	-200.000	0.015	-0.238
-600.084	64.871	-0.217	-0.221
-599.069	350.555	-0.024	-0.048
-598.055	-158.724	-0.140	-0.008
-597.040	388.111	-0.026	-0.054
-596.025	-31.526	0.110	-0.062
-595.011	56.377	0.122	0.119
-593.996	-200.000	0.034	0.167
-592.982	800.000	-0.024	0.078
-591.967	132.422	-0.359	-0.466
-590.952	-171.110	-0.036	0.001
-589.938	10.327	0.195	0.150
-588.923	-49.359	0.201	-0.096
-587.909	-25.376	-0.119	-0.071
-586.894	31.657	-0.152	-0.132
-585.879	-42.303	-0.439	-0.226
-584.865	-200.000	-0.004	0.151
-583.850	-172.124	-0.182	0.006
-582.836	-39.373	0.140	-0.074
-581.821	412.550	-0.042	-0.089
-580.806	-200.000	-0.075	0.338
-579.792	-105.671	0.137	0.031
-578.777	277.925	-0.081	-0.144
-577.763	800.000	-0.041	-0.153
-576.748	138.657	0.040	0.053
-575.733	-120.355	-0.062	0.011
-574.719	-40.550	-0.088	-0.046
-573.704	129.649	-0.154	0.199
-572.690	87.833	-0.078	0.086
-571.675	-162.185	-0.038	0.002
-570.661	-200.000	0.004	-0.044
-569.646	-200.000	-0.004	-0.056
-568.631	-200.000	-0.028	-0.145
-567.617	-200.000	-0.045	-0.245
-566.602	-200.000	0.006	-0.052
-565.588	800.000	-0.020	-0.072
-564.573	-39.558	0.235	0.124
-563.558	36.671	0.324	0.288
-562.544	800.000	-0.100	-0.349
-561.529	-176.173	-0.038	0.001
-560.515	47.561	-0.201	-0.188
-559.500	57.818	-0.045	0.044
-558.485	148.698	-0.120	0.163
-557.471	83.757	0.255	-0.279
-556.456	-200.000	-0.125	0.000
-555.442	16.059	-0.192	-0.152
-554.427	-156.592	0.175	0.011
-553.412	-200.000	0.000	-0.452
-552.398	-200.000	-0.001	0.184
-551.383	-56.374	0.242	-0.108
-550.369	254.912	-0.064	0.110
-549.354	249.519	-0.129	0.219
-548.339	273.900	0.076	-0.136
-547.325	800.000	-0.056	-0.165
-546.310	-200.000	-0.040	-0.198
-545.296	-123.465	-0.551	-0.088
-544.281	345.044	0.055	0.108
-543.266	-200.000	-0.053	-0.237
-542.252	-93.086	0.207	-0.058
-541.237	-124.317	0.180	-0.028
-540.223	133.531	0.348	0.452
-539.208	800.000	-0.141	-0.591
-538.193	-92.686	-0.116	0.033
-537.179	-8.956	-0.061	-0.041
-536.164	716.765	-0.153	0.409
-535.150	-75.090	0.184	0.066
-534.135	56.936	-0.191	-0.187
-533.121	800.000	0.094	-0.291
-532.106	107.644	-0.247	0.295
-531.091	-90.442	-0.070	-0.020
-530.077	200.953	0.021	-0.032
-529.062	-200.000	-0.039	-0.204
-528.048	800.000	-0.096	-0.316
-527.033	-95.173	0.295	-0.080
-526.018	-132.551	0.329	-0.042
-525.004	279.274	0.112	0.200
-523.989	146.768	-0.239	-0.322
-522.975	97.277	-0.019	0.022
-521.960	183.345	0.178	-0.264
-520.945	-80.683	0.132	0.044
-519.931	116.685	0.202	0.249
-518.916	505.021	-0.089	0.207
-517.902	225.607	0.089	0.144
-516.887	197.546	0.159	-0.244
-515.872	269.902	0.088	-0.156
-514.858	-200.000	-0.002	-0.136
-513.843	-13.655	-0.112	0.073
-512.829	-23.749	-0.173	-0.104
-511.814	-200.000	0.014	-0.214
-510.799	535.529	0.130	0.309
-509.785	-200.000	0.001	0.347
-508.770	-30.810	-0.118	0.067
-507.756	423.001	0.139	-0.300
-506.741	17.987	-0.393	-0.314
-505.726	-189.027	0.140	0.002
-504.712	-200.000	-0.012	-0.191
-503.697	267.340	0.027	-0.048
-502.683	-83.582	-0.187	-0.060
-501.668	636.815	-0.121	0.307
-500.653	135.328	0.101	-0.132
-499.639	-136.022	-0.336	-0.040
-498.624	147.567	0.245	0.330
-497.610	-157.643	-0.259	0.015
-496.595	113.934	0.082	0.100
-495.581	-156.030	-0.095	-0.006
-494.566	800.000	0.067	-0.275
-493.551	800.000	0.079	-0.243
-492.537	127.830	0.174	0.221
-491.522	84.975	0.151	-0.166
-490.508	-200.000	0.014	0.082
-489.493	98.790	0.282	0.326
-488.478	-200.000	-0.007	0.067
-487.464	-105.069	-0.217	-0.050
-486.449	-51.224	0.110	-0.052
-485.435	-100.119	0.283	0.071
-484.420	-17.996	0.325	0.204
-483.405	800.000	-0.051	-0.161
-482.391	-200.000	-0.032	-0.171
-481.376	-60.043	-0.207	-0.088
-480.362	9.014	0.130	-0.098
-479.347	-22.385	-0.224	0.136
-478.332	-114.692	-0.034	-0.006
-477.318	800.000	-0.025	0.072
-476.303	-119.448	0.135	0.023
-475.289	800.000	0.031	-0.112
-474.274	-22.458	-0.193	-0.117
-473.259	-172.159	-0.229	-0.007
-472.245	1.788	-0.280	-0.202
-471.230	-200.000	-0.057	0.362
-470.216	130.950	-0.031	-0.040
-469.201	-118.107	-0.156	0.028
-468.186	-97.093	-0.076	-0.020
-467.172	-61.222	0.279	0.118
-466.157	-120.294	0.050	0.009
-465.143	-168.598	-0.173	0.007
-464.128	-200.000	0.028	-0.200
-463.113	-94.979	0.030	0.008
-462.099	-200.000	-0.019	-0.104
-461.084	56.094	-0.211	0.205
-460.070	-101.689	-0.292	0.071
-459.055	800.000	-0.041	0.153
-458.040	612.302	0.053	-0.133
-457.026	800.000	-0.080	-0.293
-456.011	-84.564	-0.289	-0.091
-454.997	170.008	-0.094	-0.135
-453.982	3.658	-0.164	-0.120
-452.968	-60.549	0.124	-0.052
-451.953	74.942	0.181	0.190
-450.938	-68.553	-0.197	-0.076
-449.924	-61.399	-0.214	-0.090
-448.909	319.803	-0.086	-0.163
-447.895	-200.000	-0.020	0.094
-446.880	370.718	-0.097	-0.196
-445.865	541.717	0.046	-0.109
-444.851	543.503	-0.085	-0.203
-443.836	800.000	0.120	-0.379
-442.822	800.000	-0.044	0.136
-441.807	648.165	0.051	-0.131
-440.792	176.072	0.140	0.204
-439.778	-49.608	-0.113	-0.054
-438.763	-136.439	-0.198	-0.023
-437.749	153.025	0.118	-0.162
-436.734	-68.963	-0.220	-0.085
-435.719	-2.001	0.268	0.188
-434.705	160.045	-0.117	-0.163
-433.690	800.000	0.050	-0.185
-432.676	383.819	-0.046	0.094
-431.661	30.005	0.163	0.139
-430.646	390.057	0.064	0.133
-429.632	-64.007	-0.162	0.066
-428.617	-81.313	-0.187	-0.062
-427.603	308.998	-0.117	-0.219
-426.588	-200.000	0.025	-0.170
-425.573	25.720	0.071	0.059
-424.559	-137.745	-0.099	-0.011
-423.544	-200.000	-0.203	-0.001
-422.530	-55.013	0.131	-0.059
-421.515	-141.649	-0.283	0.028
-420.500	-0.161	0.206	0.147
-419.486	-84.523	0.204	0.064
-418.471	800.000	0.032	0.096
-417.457	66.533	0.024	0.024
-416.442	369.954	0.092	-0.187
-415.428	6.422	0.339	-0.252
-414.413	-115.471	0.243	-0.046
-413.398	190.856	-0.145	-0.219
-412.384	164.804	0.108	-0.152
-411.369	-126.054	-0.276	0.041
-410.355	-200.000	-0.005	0.152
-409.340	508.814	0.046	0.106
-408.325	82.216	0.278	0.301
-407.311	682.535	0.129	0.336
-406.296	800.000	-0.022	0.071
-405.282	-16.255	-0.152	0.096
-404.267	800.000	-0.051	0.181
-403.252	-95.920	0.204	0.054
-402.238	37.463	0.092	-0.081
-401.223	112.983	-0.121	0.146
-400.209	150.720	0.151	0.205
-399.194	163.793	0.281	-0.395
-398.179	-38.624	0.109	0.058
-397.165	238.809	0.132	0.220
-396.150	-37.205	0.094	0.050
-395.136	78.773	0.027	0.029
-394.121	287.690	-0.056	0.101
-393.106	800.000	0.005	-0.016
-392.092	129.158	0.088	0.112
-391.077	61.016	-0.010	-0.010
-390.063	-200.000	0.030	0.310
-389.048	27.708	0.085	0.072
-388.033	-200.000	-0.045	-0.203
-387.019	120.090	0.087	-0.107
-386.004	-200.000	0.004	-0.030
-384.990	-104.862	-0.255	-0.058
-383.975	-8.578	-0.302	0.203
-382.960	-26.864	-0.407	0.237
-381.946	530.867	0.123	0.290
-380.931	-200.000	0.037	-0.315
-379.917	48.413	-0.194	-0.182
-378.902	800.000	-0.159	0.448
-377.888	-98.023	-0.204	-0.052
-376.873	-142.131	-0.287	0.028
-375.858	-200.000	-0.013	0.061
-374.844	199.386	-0.106	-0.161
-373.829	28.557	-0.306	0.258
-372.815	550.026	-0.102	-0.243
-371.800	345.070	0.145	0.284
-370.785	-93.411	-0.364	-0.101
-369.771	-108.809	0.033	-0.007
-368.756	354.494	0.163	0.323
-367.742	163.027	0.089	-0.125
-366.727	-200.000	0.009	0.241
-365.712	800.000	-0.081	-0.293
-364.698	800.000	0.071	0.239
-363.683	-158.041	-0.244	0.014
-362.669	-195.154	-0.281	-0.002
-361.654	9.993	0.166	-0.125
-360.639	800.000	0.050	0.144
-359.625	-7.825	0.093	-0.063
-358.610	-18.475	-0.142	-0.089
-357.596	36.854	-0.123	-0.108
-356.581	82.407	0.143	-0.155
-355.566	288.438	0.028	-0.051
-354.552	800.000	0.053	0.160
-353.537	-189.240	-0.285	-0.003
-352.523	256.973	0.053	-0.090
-351.508	-148.501	0.208	0.017
-350.493	45.238	-0.294	0.270
-349.479	379.543	-0.097	-0.199
-348.464	-200.000	-0.014	0.103
-347.450	276.854	0.062	0.110
-346.435	76.547	0.183	0.193
-345.420	-200.000	-0.005	-0.079
-344.406	-200.000	0.023	0.104
-343.391	-10.734	0.216	-0.142
-342.377	-2.796	0.190	0.133
-341.362	113.436	0.063	-0.077
-340.348	-57.028	0.118	-0.052
-339.333	36.482	0.326	-0.287
-338.318	72.106	-0.132	0.137
-337.304	-64.741	-0.258	-0.104
-336.289	0.424	0.106	0.075
-335.275	-200.000	0.024	0.257
-334.260	-200.000	0.011	-0.134
-333.245	733.513	-0.058	-0.154
-332.231	800.000	0.047	0.164
-331.216	-102.697	0.139	0.033
-330.202	117.623	0.197	-0.242
-329.187	94.283	0.140	0.158
-328.172	69.083	-0.194	0.199
-327.158	-200.000	-0.010	0.463
-326.143	800.000	0.095	-0.339
-325.129	-200.000	0.045	0.333
-324.114	-200.000	0.025	-0.116
-323.099	-17.306	0.253	0.159
-322.085	-56.752	0.269	0.118
-321.070	-172.017	-0.328	0.011
-320.056	-185.668	0.017	0.000
-319.041	405.913	0.032	-0.068
-318.026	800.000	-0.050	0.196
-317.012	-86.431	-0.177	0.054
-315.997	-200.000	-0.043	-0.281
-314.983	-63.080	0.201	-0.082
-313.968	800.000	0.031	0.121
-312.953	-153.806	-0.260	0.018
-311.939	269.479	0.114	0.199
-310.924	329.784	-0.103	0.196
-309.910	-90.328	0.039	0.011
-308.895	-124.027	0.136	-0.021
-307.880	-200.000	-0.006	-0.149
-306.866	450.638	-0.120	-0.263
-305.851	-77.164	0.137	-0.047
-304.837	-74.674	-0.124	0.044
-303.822	508.070	-0.090	-0.209
-302.807	800.000	0.065	-0.239
-301.793	-200.000	-0.016	-0.270
-300.778	10.055	0.292	-0.221
-299.764	41.790	0.141	0.127
-298.749	-200.000	-0.001	-0.194
-297.735	756.205	0.041	0.110
-296.720	800.000	0.042	0.147
-295.705	47.272	-0.147	0.136
-294.691	-10.698	-0.265	-0.174
-293.676	193.012	0.206	0.309
-292.662	62.675	0.104	0.104
-291.647	502.282	-0.098	0.226
-290.632	177.717	0.110	-0.159
-289.618	247.057	-0.130	0.218
-288.603	-75.372	-0.205	-0.073
-287.589	-92.208	-0.223	0.063
-286.574	800.000	0.102	-0.305
-285.559	-24.108	0.251	-0.149
-284.545	-200.000	-0.015	-0.155
-283.530	200.716	-0.260	-0.397
-282.516	447.277	0.069	0.150
-281.501	207.803	-0.175	-0.271
-280.486	189.783	0.056	-0.084
-279.472	106.237	-0.097	-0.115
-278.457	177.510	0.158	-0.229
-277.443	-122.492	0.264	0.043
-276.428	386.214	-0.062	-0.126
-275.413	56.141	-0.129	-0.125
-274.399	-2.414	-0.194	0.135
-273.384	297.764	0.044	-0.081
-272.370	138.827	0.116	-0.152
-271.355	239.344	0.179	0.296
-270.340	74.832	0.232	0.243
-269.326	-200.000	0.007	-0.151
-268.311	20.979	0.047	-0.038
-267.297	-133.015	0.144	-0.018
-266.282	782.612	0.173	0.471
-265.267	-200.000	-0.015	0.188
-264.253	69.837	0.118	-0.121
-263.238	-174.903	0.302	0.008
-262.224	73.995	-0.138	-0.143
-261.209	800.000	-0.050	0.141
-260.195	800.000	0.050	0.155
-259.180	800.000	-0.054	0.231
-258.165	29.118	0.172	-0.145
-257.151	254.391	-0.168	0.286
-256.136	-26.266	-0.181	0.105
-255.122	374.870	-0.090	0.182
-254.107	-200.000	0.028	-0.156
-253.092	0.938	0.199	0.142
-252.078	-65.821	0.233	-0.092
-251.063	-119.740	0.500	-0.086
-250.049	246.017	-0.174	0.291
-249.034	102.955	0.046	-0.053
-248.019	50.834	0.295	-0.278
-247.005	296.240	0.240	0.436
-245.990	328.170	0.145	-0.276
-244.976	-0.508	-0.175	-0.123
-243.961	-200.000	-0.040	0.723
-242.946	-136.154	-0.276	-0.032
-241.932	-130.325	-0.104	-0.014
-240.917	-67.241	0.286	0.112
-239.903	-200.000	-0.001	0.110
-238.888	-200.000	0.022	-0.250
-237.873	-200.000	-0.018	-0.137
-236.859	47.428	0.014	-0.013
-235.844	-69.494	-0.331	-0.126
-234.830	125.752	0.089	-0.112
-233.815	-139.598	0.372	0.039
-232.800	48.618	0.112	-0.104
-231.786	160.508	0.216	-0.299
-230.771	-13.003	-0.309	0.200
-229.757	-11.224	-0.146	0.095
-228.742	-200.000	-0.022	0.117
-227.727	-200.000	-0.026	0.121
-226.713	-36.311	0.082	0.044
-225.698	-40.259	0.306	0.158
-224.684	-200.000	-0.029	0.138
-223.669	800.000	-0.096	-0.403
-222.655	555.545	-0.081	0.194
-221.640	-200.000	-0.020	0.271
-220.625	800.000	0.037	0.128
-219.611	39.045	0.297	0.263
-218.596	-42.209	-0.204	0.104
-217.582	800.000	0.038	-0.140
-216.567	-72.083	-0.166	0.061
-215.552	107.475	-0.068	0.081
-214.538	-200.000	0.004	0.262
-213.523	-102.285	0.074	0.018
-212.509	140.987	-0.198	-0.259
-211.494	-200.000	-0.018	-0.135
-210.479	-200.000	0.044	0.255
-209.465	800.000	0.094	0.271
-208.450	78.312	-0.107	0.113
-207.436	167.566	-0.167	0.236
-206.421	-101.548	0.381	-0.092
-205.406	-88.091	-0.260	-0.077
-204.392	-6.448	-0.352	0.238
-203.377	800.000	0.100	-0.322
-202.363	186.610	-0.055	-0.081
-201.348	-35.519	-0.185	-0.100
-200.333	-141.657	0.072	-0.007
-199.319	158.646	-0.136	-0.187
-198.304	3.531	0.136	-0.098
-197.290	34.234	0.109	0.094
-196.275	800.000	-0.033	0.115
-195.260	141.853	0.028	0.037
-194.246	-125.961	0.167	0.025
-193.231	-90.745	0.150	0.043
-192.217	-105.070	0.158	0.036
-191.202	800.000	-0.039	-0.146
-190.187	-142.236	0.108	-0.011
-189.173	-70.958	0.120	0.045
-188.158	-76.793	0.130	0.045
-187.144	800.000	-0.092	-0.280
-186.129	-97.968	-0.186	0.047
-185.114	-64.947	-0.179	0.071
-184.100	-132.616	0.174	-0.022
-183.085	-66.579	-0.184	-0.072
-182.071	-200.000	0.021	0.477
-181.056	318.910	0.051	-0.095
-180.042	344.710	-0.078	0.152
-179.027	-106.938	-0.204	-0.045
-178.012	38.816	0.379	-0.335
-176.998	342.124	-0.064	-0.125
-175.983	224.470	0.130	0.209
-174.969	-23.528	-0.185	-0.110
-173.954	-91.197	0.313	-0.089
-172.939	473.668	-0.085	0.190
-171.925	-13.346	0.215	-0.138
-170.910	-119.958	-0.123	0.021
-169.896	-200.000	0.042	0.186
-168.881	210.855	-0.122	0.189
-167.866	87.491	0.303	0.332
-166.852	-79.559	0.365	0.122
-165.837	246.681	-0.090	-0.150
-164.823	-13.382	-0.126	0.081
-163.808	304.103	0.181	0.332
-162.793	568.721	0.092	-0.221
-161.779	-28.184	-0.311	0.178
-160.764	93.460	-0.239	0.267
-159.750	30.734	0.211	0.178
-158.735	-40.902	-0.222	0.114
-157.720	-114.881	0.273	-0.051
-156.706	-106.370	0.202	-0.045
-155.691	-147.859	0.128	-0.011
-154.677	617.949	0.047	-0.116
-153.662	-86.013	0.164	0.050
-152.647	60.504	-0.108	-0.105
-151.633	-90.354	-0.569	0.163
-150.618	-153.722	0.012	-0.001
-149.604	800.000	0.093	-0.376
-148.589	-82.517	-0.220	0.071
-147.574	-96.527	-0.122	-0.032
-146.560	-129.310	0.220	0.030
-145.545	13.532	-0.050	0.038
-144.531	328.967	-0.165	0.313
-143.516	-14.049	0.090	0.058
-142.502	154.264	-0.150	-0.203
-141.487	106.332	-0.181	-0.212
-140.472	-104.870	0.167	-0.038
-139.458	-100.104	0.505	-0.124
-138.443	-10.012	-0.207	0.136
-137.429	310.540	-0.048	-0.089
-136.414	-105.524	0.204	-0.046
-135.399	198.299	-0.045	-0.067
-134.385	-159.559	0.436	0.024
-133.370	-40.359	-0.009	-0.005
-132.356	800.000	0.073	-0.232
-131.341	-25.257	-0.142	0.083
-130.326	20.218	-0.055	-0.044
-129.312	342.420	-0.108	-0.209
-128.297	-9.753	0.193	0.127
-127.283	-200.000	0.025	0.253
-126.268	615.895	-0.064	0.158
-125.253	113.828	0.031	0.038
-124.239	205.509	0.164	0.252
-123.224	800.000	-0.067	0.252
-122.210	-128.588	0.054	-0.008
-121.195	34.234	0.026	-0.022
-120.180	133.110	0.112	0.143
-119.166	-155.377	-0.131	0.008
-118.151	-82.388	0.219	-0.070
-117.137	800.000	-0.048	0.180
-116.122	-56.121	0.143	-0.063
-115.107	-200.000	-0.030	0.268
-114.093	277.029	0.128	-0.225
-113.078	-200.000	0.030	-0.135
-112.064	330.149	-0.160	0.304
-111.049	-62.053	0.027	-0.011
-110.034	-200.000	-0.023	0.329
-109.020	623.942	0.007	0.019
-108.005	-153.503	-0.234	-0.016
-106.991	-35.093	0.262	0.141
-105.976	800.000	0.125	0.412
-104.962	-173.651	0.328	-0.010
-103.947	-175.691	-0.113	0.003
-102.932	-160.077	-0.317	0.017
-101.918	188.464	-0.132	-0.195
-100.903	-200.000	-0.023	0.175
-99.889	-200.000	0.013	-0.409
-98.874	128.827	0.219	0.275
-97.859	-120.945	0.189	0.031
-96.845	287.656	0.038	0.068
-95.830	-128.686	0.315	0.044
-94.816	-52.353	0.335	-0.153
-93.801	-98.626	-0.105	-0.027
-92.786	48.861	-0.028	0.026
-91.772	525.270	-0.099	-0.229
-90.757	171.302	0.197	-0.278
-89.743	-107.328	0.143	0.031
-88.728	-156.710	0.128	0.008
-87.713	436.869	-0.096	-0.207
-86.699	104.468	-0.199	0.232
-85.684	91.218	0.144	0.159
-84.670	-77.780	0.158	0.054
-83.655	-2.127	0.151	-0.105
-82.640	484.034	0.169	0.380
-81.626	800.000	-0.092	0.341
-80.611	-200.000	0.014	0.066
-79.597	-200.000	0.042	0.372
-78.582	-6.245	0.034	-0.023
-77.567	84.206	-0.027	-0.029
-76.553	72.169	0.142	0.146
-75.538	-200.000	0.049	-0.597
-74.524	88.139	-0.112	0.122
-73.509	322.319	0.142	0.267
-72.494	800.000	0.031	0.100
-71.480	-200.000	-0.038	0.165
-70.465	48.278	-0.283	-0.261
-69.451	49.104	-0.189	0.175
-68.436	-40.561	0.215	0.110
-67.422	133.073	0.205	-0.261
-66.407	-3.958	-0.352	0.241
-65.392	170.268	0.131	-0.184
-64.378	748.173	-0.058	0.154
-63.363	800.000	-0.087	0.281
-62.349	-102.060	0.134	-0.032
-61.334	-21.644	-1.067	-0.641
-60.319	348.479	0.432	0.840
-59.305	800.000	-0.335	-1.065
-58.290	504.424	0.418	0.954
-57.276	385.962	0.764	1.554
-56.261	-200.000	96.723	580.043
-55.246	544.879	1388.752	3268.561
-54.232	156.806	2571.842	3500.877
-53.217	111.098	2167.863	2572.322
-52.203	43.615	1709.545	1540.542
-51.188	36.658	1522.613	1324.610
-50.173	34.272	1496.443	1285.712
-49.159	53.473	1545.326	1459.804
-48.144	55.275	1563.657	1489.428
-47.130	36.737	1522.110	1324.503
-46.115	33.669	1506.913	1290.398
-45.100	33.523	1503.543	1286.470
-44.086	33.492	1501.577	1284.526
-43.071	33.426	1499.724	1282.442
-42.057	33.437	1498.072	1281.052
-41.042	33.461	1497.066	1280.310
-40.027	33.458	1495.850	1279.198
-39.013	33.451	1494.098	1277.602
-37.998	33.471	1492.676	1276.465
-36.984	33.429	1492.327	1275.837
-35.969	33.379	1490.888	1274.220
-34.954	33.446	1488.828	1272.860
-33.940	33.384	1487.803	1271.514
-32.925	33.438	1486.416	1270.640
-31.911	33.570	1485.010	1270.276
-30.896	33.474	1484.215	1268.899
-29.881	33.557	1482.449	1267.893
-28.867	33.513	1480.889	1266.214
-27.852	33.529	1479.368	1264.972
-26.838	33.498	1478.276	1263.777
-25.823	33.513	1476.416	1262.241
-24.809	33.444	1475.101	1260.606
-23.794	33.388	1473.805	1259.076
-22.779	33.400	1472.695	1258.158
-21.765	33.513	1471.311	1257.675
-20.750	33.448	1470.638	1256.621
-19.736	33.509	1469.208	1255.749
-18.721	33.452	1468.606	1254.810
-17.706	33.463	1466.895	1253.372
-16.692	33.431	1466.154	1252.475
-15.677	33.447	1465.286	1251.789
-14.663	33.434	1464.359	1250.863
-13.648	33.415	1463.322	1249.801
-12.633	33.357	1462.529	1248.692
-11.619	33.490	1461.336	1248.500
-10.604	33.346	1460.726	1246.982
-9.590	33.390	1459.547	1246.215
-8.575	33.379	1458.751	1245.417
-7.560	33.407	1458.056	1244.960
-6.546	33.390	1457.242	1244.102
-5.531	33.350	1456.390	1243.059
-4.517	33.395	1455.282	1242.364
-3.502	33.435	1454.080	1241.549
-2.487	33.359	1453.144	1240.201
-1.473	33.239	1452.305	1238.649
-0.458	33.335	1450.992	1238.111
0.556	33.880	1441.661	1226.963
1.571	30.969	1417.563	1187.830
2.586	28.012	1361.667	1122.758
3.600	26.515	1283.222	1049.310
4.615	25.236	1235.997	1003.456
5.629	21.781	1178.099	937.916
6.644	11.595	1090.358	817.283
7.659	3.440	1047.551	745.809
8.673	2.281	1042.006	736.213
9.688	2.071	1038.820	732.889
10.702	1.877	1037.034	730.638
11.717	1.942	1035.137	729.543
12.731	5.826	1040.396	751.833
13.746	16.014	1054.354	811.124
14.761	23.412	1063.736	854.057
15.775	24.912	1065.075	862.289
16.790	25.375	1064.381	863.880
17.804	25.142	1063.776	862.191
18.819	25.058	1063.076	861.142
19.834	25.103	1062.250	860.616
20.848	25.052	1062.081	860.155
21.863	25.249	1061.306	860.398
22.877	25.224	1061.278	860.177
23.892	25.211	1060.601	859.492
24.907	25.108	1059.851	858.316
25.921	25.147	1059.192	857.891
26.936	25.115	1057.990	856.689
27.950	25.054	1056.995	855.516
28.965	25.125	1055.932	854.918
29.980	25.003	1054.576	853.167
30.994	24.944	1053.541	851.971
32.009	25.112	1052.746	852.050
33.023	25.217	1052.176	852.012
34.038	25.160	1050.359	850.198
35.053	25.012	1050.221	849.310
36.067	25.247	1049.150	849.478
37.082	25.185	1048.698	848.744
38.096	25.201	1047.818	848.033
39.111	25.304	1047.255	847.991
40.126	25.500	1046.286	848.054
41.140	25.407	1045.412	846.833
42.155	25.149	1043.610	844.081
43.169	24.744	1042.844	841.483
44.184	24.821	1041.963	841.062
45.199	24.805	1040.760	839.941
46.213	24.752	1040.185	839.152
47.228	24.658	1039.135	837.794
48.242	24.948	1038.357	838.447
49.257	24.994	1037.783	838.128
50.271	25.060	1037.110	837.815
51.286	25.164	1036.588	837.806
52.301	25.175	1036.103	837.391
53.315	25.285	1034.797	836.776
54.330	25.209	1034.043	835.739
55.344	25.007	1033.134	833.990
56.359	25.183	1032.446	834.179
57.374	25.219	1031.625	833.608
58.388	25.038	1030.613	831.877
59.403	25.025	1029.743	831.041
60.417	25.039	1029.264	830.647
61.432	24.791	1028.486	828.795
62.447	24.811	1027.674	828.161
63.461	24.945	1027.456	828.532
64.476	25.060	1026.189	827.966
65.490	24.958	1025.963	827.240
66.505	24.839	1024.900	825.759
67.520	24.850	1023.856	824.898
68.534	24.938	1023.527	824.967
69.549	24.732	1022.106	822.801
70.563	24.496	1021.103	820.833
71.578	24.531	1020.243	820.229
72.593	24.570	1019.431	819.685
73.607	24.308	1018.589	817.734
74.622	24.270	1017.694	816.769
75.636	24.581	1017.209	817.732
76.651	24.746	1016.344	817.718
77.666	24.701	1015.499	816.760
78.680	24.486	1014.859	815.193
79.695	24.606	1014.008	814.982
80.709	24.615	1013.946	814.900
81.724	24.810	1012.885	814.866
82.739	24.808	1011.662	813.800
83.753	24.766	1011.155	813.131
84.768	25.105	1010.375	813.971
85.782	25.283	1010.140	814.516
86.797	25.531	1009.383	814.959
87.812	25.409	1008.559	813.668
88.826	25.332	1007.241	812.186
89.841	25.349	1006.493	811.587
90.855	25.428	1006.262	811.684
91.870	25.452	1005.239	810.898
92.884	25.461	1004.333	810.136
93.899	25.274	1003.194	808.304
94.914	25.256	1002.598	807.669
95.928	25.239	1002.073	807.097
96.943	25.391	1000.648	806.561
97.957	25.232	999.582	804.918
98.972	24.883	998.638	802.521
99.987	24.702	997.362	800.614
101.001	24.738	997.259	800.624
102.016	25.077	996.626	801.562
103.030	25.060	995.637	800.619
104.045	25.036	994.612	799.618
105.060	24.894	993.368	797.912
106.074	24.761	992.052	796.192
107.089	24.828	991.583	796.046
108.103	25.219	991.209	797.410
109.118	25.289	990.053	796.722
110.133	24.990	989.454	794.843
111.147	25.018	987.769	793.542
112.162	24.735	987.577	792.065
113.176	24.561	986.485	790.350
114.191	24.789	985.750	790.697
115.206	24.934	984.778	790.487
116.220	24.550	983.973	788.082
117.235	24.520	982.304	786.541
118.249	24.703	981.952	786.994
119.264	24.502	981.553	785.723
120.279	24.525	980.767	785.124
121.293	24.499	979.766	784.140
122.308	24.608	979.369	784.228
123.322	24.716	978.276	783.757
124.337	24.618	977.159	782.365
125.352	24.510	975.752	780.697
126.366	24.171	974.298	777.984
127.381	23.873	972.977	775.563
128.395	24.307	972.969	777.380
129.410	24.863	972.951	779.717
130.424	25.098	972.418	780.245
131.439	25.084	971.234	779.165
132.454	25.006	970.305	778.015
133.468	25.111	969.310	777.602
134.483	25.025	968.301	776.351
135.497	25.060	967.606	775.877
136.512	25.288	967.176	776.449
137.527	25.449	966.069	776.188
138.541	25.215	966.018	775.068
139.556	25.234	965.319	774.518
140.570	25.406	964.227	774.316
141.585	25.439	962.921	773.340
142.600	25.423	962.791	773.098
143.614	25.342	961.815	771.900
144.629	25.396	961.003	771.412
145.643	25.659	960.447	772.024
146.658	25.548	959.018	770.332
147.673	25.421	957.778	768.727
148.687	25.279	956.753	767.227
149.702	25.099	955.925	765.725
150.716	25.153	954.557	764.793
151.731	25.072	953.948	763.894
152.746	25.222	952.932	763.650
153.760	25.158	952.995	763.360
154.775	25.511	951.703	763.759
155.789	25.551	950.884	763.203
156.804	25.336	950.542	761.950
157.819	25.555	948.920	761.511
158.833	25.339	948.694	760.346
159.848	25.606	947.780	760.677
160.862	25.654	947.280	760.411
161.877	25.572	946.032	758.995
162.892	25.408	945.177	757.548
163.906	25.365	944.530	756.781
164.921	25.434	943.621	756.280
165.935	25.472	942.067	755.127
166.950	25.472	940.868	754.099
167.964	25.487	940.552	753.841
168.979	25.321	939.398	752.154
169.994	25.326	938.307	751.236
171.008	25.286	936.873	749.854
172.023	25.323	936.647	749.758
173.037	25.571	936.126	750.310
174.052	25.466	934.464	748.476
175.067	25.306	933.450	746.932
176.081	25.225	932.825	746.031
177.096	25.220	932.272	745.500
178.110	25.378	931.313	745.323
179.125	24.928	930.606	742.823
180.140	24.877	928.764	741.079
181.154	24.833	928.676	740.758
182.169	24.940	928.226	740.778
183.183	25.227	928.077	741.778
184.198	25.408	927.856	742.285
185.213	25.449	926.664	741.435
186.227	25.241	926.654	740.505
187.242	25.349	926.266	740.573
188.256	25.367	925.155	739.695
189.271	25.656	924.001	739.894
190.286	25.647	923.311	739.241
191.300	25.529	922.451	738.002
192.315	24.855	921.468	734.384
193.329	24.016	919.729	729.495
194.344	23.819	918.346	727.527
195.359	24.304	918.951	729.929
196.373	25.214	919.117	733.720
197.388	25.309	919.070	734.007
198.402	25.332	918.196	733.338
199.417	25.329	917.966	733.075
200.432	25.363	917.175	732.517
201.446	25.199	916.409	731.174
202.461	25.001	915.193	729.332
203.475	25.001	915.069	729.171
204.490	24.588	913.709	726.342
205.504	23.529	911.634	720.333
206.519	24.002	911.334	721.950
207.534	24.664	912.091	725.172
208.548	24.883	911.322	725.382
209.563	25.187	911.375	726.592
210.577	25.330	910.356	726.294
211.592	25.160	909.249	724.659
212.607	25.293	909.927	725.675
213.621	25.589	908.742	725.862
214.636	25.580	907.877	725.069
215.650	25.680	907.278	724.931
216.665	25.535	906.762	723.869
217.680	25.530	906.570	723.631
218.694	25.648	906.171	723.724
219.709	25.248	905.195	721.275
220.723	24.982	903.979	719.172
221.738	25.179	903.884	719.825
222.753	25.336	903.277	719.906
223.767	25.319	902.316	719.010
224.782	25.268	901.771	718.307
225.796	25.466	901.325	718.682
226.811	25.604	900.666	718.643
227.826	25.344	899.120	716.310
228.840	24.450	898.121	711.884
229.855	24.359	897.258	710.776
230.869	24.683	896.997	711.794
231.884	24.346	895.838	709.472
232.899	24.245	895.703	708.900
233.913	25.285	895.578	712.874
234.928	25.477	894.943	713.065
235.942	25.167	894.754	711.622
236.957	25.245	893.694	711.026
237.972	24.821	893.175	708.870
238.986	24.776	892.304	707.939
240.001	25.015	891.806	708.427
241.015	24.951	891.039	707.501
242.030	25.089	890.801	707.796
243.045	25.288	889.843	707.754
244.059	25.236	889.497	707.212
245.074	25.461	889.291	707.872
246.088	25.370	888.458	706.791
247.103	24.999	887.228	704.291
248.117	25.143	886.658	704.339
249.132	25.517	887.005	706.022
250.147	26.042	886.742	707.813
251.161	25.974	886.199	707.049
252.176	26.348	885.781	708.118
253.190	26.158	885.299	706.925
254.205	26.107	884.806	706.270
255.220	26.318	884.500	706.789
256.234	26.346	883.459	706.003
257.249	26.460	882.507	705.626
258.263	26.149	882.066	703.999
259.278	26.160	881.634	703.636
260.293	26.265	881.117	703.569
261.307	26.269	880.613	703.119
262.322	26.159	879.919	702.075
263.336	26.040	879.431	701.162
264.351	25.669	877.629	698.225
265.366	24.534	875.658	692.197
266.380	24.122	874.925	689.960
267.395	25.084	875.076	693.742
268.409	25.701	875.741	696.598
269.424	25.828	874.274	695.861
270.439	25.858	874.410	696.022
271.453	26.089	873.527	696.150
272.468	26.070	872.888	695.508
273.482	26.041	872.537	695.054
274.497	26.303	872.238	695.760
275.512	26.161	871.062	694.215
276.526	25.469	870.128	690.753
277.541	25.615	869.761	690.961
278.555	26.244	869.016	692.720
279.570	25.859	868.644	690.887
280.585	25.724	868.149	689.916
281.599	25.777	867.651	689.662
282.614	26.100	866.905	690.243
283.628	25.516	865.677	686.973
284.643	25.169	864.941	685.003
285.657	25.514	865.431	686.648
286.672	25.613	863.909	685.758
287.687	24.955	863.369	682.760
288.701	25.305	863.343	684.011
289.716	25.724	863.041	685.308
290.730	25.345	862.042	683.015
291.745	25.300	861.141	682.069
292.760	25.197	860.130	680.817
293.774	25.066	859.735	679.947
294.789	25.861	860.413	683.441
295.803	26.604	860.267	686.079
296.818	26.499	860.138	685.519
297.833	26.619	859.289	685.233
298.847	26.468	858.445	683.929
299.862	26.164	857.159	681.697
300.876	26.131	857.088	681.454
301.891	26.438	856.961	682.452
302.906	26.542	856.102	682.102
303.920	26.239	855.162	680.151
304.935	26.110	854.339	678.950
305.949	26.435	854.183	679.988
306.964	26.580	853.855	680.211
307.979	26.244	853.091	678.282
308.993	26.230	852.655	677.824
310.008	26.643	852.206	678.953
311.022	26.735	851.684	678.825
312.037	26.742	850.932	678.189
313.052	26.213	850.732	675.993
314.066	26.203	849.708	675.079
315.081	25.456	848.162	671.005
316.095	24.775	846.955	667.451
317.110	25.322	847.027	669.487
318.125	26.165	847.848	673.223
319.139	25.851	846.233	670.711
320.154	24.508	845.101	664.760
321.168	24.193	843.892	662.578
322.183	24.834	844.163	665.113
323.197	25.740	844.720	668.863
324.212	25.996	844.440	669.531
325.227	26.257	843.963	670.064
326.241	26.340	843.689	670.094
327.256	26.332	842.978	669.439
328.270	26.195	841.993	668.092
329.285	26.088	841.622	667.343
330.300	25.882	840.431	665.577
331.314	25.764	839.791	664.580
332.329	25.651	839.449	663.830
333.343	26.078	839.242	665.182
334.358	26.409	838.899	666.071
335.373	26.381	837.994	665.190
336.387	26.420	837.814	665.135
337.402	26.776	837.518	666.148
338.416	26.967	836.844	666.254
339.431	26.857	836.332	665.386
340.446	26.843	835.800	664.850
341.460	27.206	835.316	665.736
342.475	27.051	834.718	664.632
343.489	26.852	834.096	663.350
344.504	26.848	833.693	662.959
345.519	27.107	833.301	663.534
346.533	27.285	832.928	663.828
347.548	27.091	833.079	663.182
348.562	27.288	832.401	663.301
349.577	27.253	831.721	662.571
350.592	27.187	831.107	661.786
351.606	27.069	830.655	660.936
352.621	27.178	830.347	661.029
353.635	26.946	830.082	659.916
354.650	26.996	828.920	659.117
355.665	26.581	828.096	656.898
356.679	25.586	826.372	651.869
357.694	25.482	825.930	651.083
358.708	26.183	825.730	653.405
359.723	26.273	824.906	653.022
360.738	26.462	824.771	653.541
361.752	26.731	824.839	654.509
362.767	26.811	824.554	654.514
363.781	27.167	824.724	655.877
364.796	27.539	824.037	656.612
365.810	27.567	823.925	656.566
366.825	27.497	823.517	655.931
367.840	27.493	823.365	655.737
368.854	27.453	822.526	654.865
369.869	27.156	821.611	653.013
370.883	26.921	820.719	651.401
371.898	27.001	820.349	651.339
372.913	26.909	819.683	650.422
373.927	26.868	818.893	649.592
374.942	27.162	818.354	650.159
375.956	27.188	817.742	649.705
376.971	27.277	817.462	649.743
377.986	27.400	816.920	649.696
379.000	27.510	816.725	649.877
380.015	27.682	816.134	649.960
381.029	27.380	815.963	648.690
382.044	27.378	814.878	647.763
383.059	27.549	814.390	647.925
384.073	27.558	814.023	647.611
385.088	27.608	813.399	647.232
386.102	27.535	813.090	646.669
387.117	27.313	812.357	645.244
388.132	27.218	811.555	644.214
389.146	26.966	810.964	642.792
390.161	26.590	809.986	640.634
391.175	26.454	809.943	640.058
392.190	27.208	809.915	642.647
393.205	27.212	809.213	642.049
394.219	26.066	807.593	636.664
395.234	24.591	805.246	629.564
396.248	23.753	804.190	625.734
397.263	25.027	804.864	630.689
398.278	26.685	806.592	637.829
399.292	27.213	806.306	639.404
400.307	26.903	805.590	637.693
401.321	26.711	805.346	636.766
402.336	26.891	804.997	637.067
403.350	27.386	804.319	638.208
404.365	27.684	804.547	639.378
405.380	27.973	804.464	640.271
406.394	28.130	804.498	640.791
407.409	28.252	804.165	640.896
408.423	28.180	803.279	639.880
409.438	28.135	802.596	639.124
410.453	28.317	802.287	639.454
411.467	28.359	801.873	639.216
412.482	28.407	801.134	638.738
413.496	28.231	800.702	637.722
414.511	28.340	800.735	638.071
415.526	28.282	800.441	637.579
416.540	28.210	799.943	636.876
417.555	28.156	799.472	636.256
418.569	28.009	798.372	634.814
419.584	27.833	797.801	633.694
420.599	27.954	797.335	633.688
421.613	110.359	1283.108	1452.933
422.628	95.124	1353.887	1453.051
