DTS Sentinel unit serial number:	SN413079Multiplexer serial number:	ORYXHardware model number:	OX4-SRSoftware version number:	ORYX F/W v4.00 Oryx Data Collector v3.7.2.0data status	okinstallation	princeton_trtdifferential loss correction	single-endedforward channel	channel 3reverse channel	N/Adate	2019/09/10time	23:18:10forward acquisition time	60.00reverse acquisition time	0.00gamma	496.2192k internal	0.2331k external	0.2331temperature offset calibration	0.9924default loss term (dB/km)	0.3790temperature slope calibration	1.0000multiplexer offset coefficient	1.0000multiplexer slope coefficient	1.0000fibre end	0.00T internal ref (°C)	29.84T ext. ref 1 (°C)	-0.29T ext. ref 2 (°C)	23.46length (m)	temperature (°C)	Stokes	anti-Stokes-747.200	-200.000	0.004	-0.286
-746.185	1.619	0.156	-0.113
-745.171	-188.094	0.089	-0.001
-744.156	-110.376	-0.184	0.039
-743.142	582.420	0.107	-0.264
-742.127	-57.732	-0.246	-0.108
-741.112	-182.261	-0.211	-0.004
-740.098	63.732	-0.285	-0.288
-739.083	216.484	0.062	-0.099
-738.069	50.176	-0.191	0.182
-737.054	70.071	0.205	0.213
-736.039	235.780	-0.105	-0.174
-735.025	-83.050	0.255	-0.083
-734.010	-74.166	-0.213	0.078
-732.996	491.209	0.070	-0.161
-731.981	57.010	-0.270	-0.264
-730.966	169.193	0.102	0.146
-729.952	-23.524	0.170	0.103
-728.937	5.809	0.221	0.165
-727.923	515.595	0.116	0.273
-726.908	800.000	-0.031	-0.128
-725.894	-68.426	-0.247	0.096
-724.879	-87.447	-0.234	0.071
-723.864	38.489	-0.134	-0.120
-722.850	60.238	0.256	-0.255
-721.835	-23.308	-0.362	0.219
-720.821	-200.000	0.005	-0.306
-719.806	-77.866	-0.368	-0.128
-718.791	-53.388	-0.127	0.059
-717.777	132.326	-0.072	-0.093
-716.762	-100.907	0.101	-0.025
-715.748	-83.484	-0.294	0.095
-714.733	-6.821	-0.338	-0.231
-713.718	800.000	0.075	0.237
-712.704	-81.056	-0.172	0.057
-711.689	-59.704	-0.224	-0.097
-710.675	-38.595	-0.403	-0.214
-709.660	-51.732	-0.314	-0.147
-708.645	200.342	-0.269	-0.416
-707.631	-84.039	-0.209	-0.067
-706.616	-126.124	0.144	-0.022
-705.602	500.992	-0.170	0.394
-704.587	6.773	0.277	0.207
-703.572	-3.409	0.366	0.256
-702.558	136.595	-0.184	0.242
-701.543	56.502	-0.249	-0.243
-700.529	-193.746	0.283	0.002
-699.514	24.060	-0.175	-0.145
-698.499	31.582	0.063	-0.055
-697.485	-131.538	-0.218	0.029
-696.470	100.139	-0.167	0.195
-695.456	-100.837	-0.264	-0.065
-694.441	44.329	0.147	-0.136
-693.426	-200.000	0.015	-0.258
-692.412	-63.937	0.088	-0.036
-691.397	749.225	0.071	0.194
-690.383	-50.994	0.079	0.037
-689.368	-147.349	0.143	0.012
-688.354	138.569	-0.290	0.382
-687.339	58.250	-0.136	-0.133
-686.324	-17.985	-0.346	0.218
-685.310	48.502	-0.208	-0.196
-684.295	-156.588	0.203	0.013
-683.281	-200.000	0.045	0.345
-682.266	-60.031	-0.168	-0.072
-681.251	800.000	0.053	-0.158
-680.237	366.904	-0.078	-0.159
-679.222	-32.634	0.251	-0.140
-678.208	-200.000	-0.028	0.128
-677.193	-125.748	0.157	0.024
-676.178	38.230	0.055	0.050
-675.164	-106.347	0.036	-0.008
-674.149	-101.500	-0.288	-0.070
-673.135	-106.489	-0.275	0.062
-672.120	-155.892	-0.235	0.015
-671.105	-82.921	0.175	0.057
-670.091	800.000	0.089	-0.380
-669.076	-106.785	-0.268	-0.060
-668.062	800.000	-0.051	-0.176
-667.047	-200.000	-0.019	0.160
-666.032	38.073	-0.200	0.178
-665.018	47.957	0.232	-0.218
-664.003	-200.000	0.025	0.331
-662.989	-61.780	-0.382	0.161
-661.974	-108.579	-0.282	-0.061
-660.959	355.533	0.066	-0.133
-659.945	277.607	-0.174	-0.311
-658.930	201.034	0.042	-0.065
-657.916	37.916	-0.319	-0.285
-656.901	-138.589	0.156	0.017
-655.886	-200.000	0.009	0.151
-654.872	313.531	0.092	-0.174
-653.857	44.161	0.141	-0.130
-652.843	729.361	0.187	-0.501
-651.828	-200.000	-0.015	-0.184
-650.814	-85.394	0.343	0.107
-649.799	93.121	-0.203	-0.230
-648.784	-94.405	-0.221	0.061
-647.770	800.000	0.061	0.194
-646.755	630.347	-0.170	-0.431
-645.741	-200.000	-0.031	-0.301
-644.726	399.579	-0.140	-0.295
-643.711	-200.000	-0.003	-0.058
-642.697	246.314	0.136	-0.230
-641.682	127.880	-0.200	-0.255
-640.668	-80.004	0.306	0.103
-639.653	-54.810	0.185	-0.084
-638.638	-36.345	-0.256	0.138
-637.624	800.000	-0.048	0.154
-636.609	-78.621	-0.213	0.073
-635.595	-41.399	0.159	0.082
-634.580	53.097	-0.074	0.071
-633.565	213.708	-0.239	-0.379
-632.551	103.310	-0.101	0.119
-631.536	-89.255	-0.151	-0.045
-630.522	-200.000	-0.002	0.119
-629.507	-136.840	0.318	0.037
-628.492	-200.000	0.006	0.218
-627.478	44.583	-0.118	0.108
-626.463	123.637	-0.156	0.196
-625.449	-131.711	0.219	-0.029
-624.434	-99.028	-0.213	-0.054
-623.419	-125.468	-0.154	0.023
-622.405	-13.445	-0.088	-0.057
-621.390	-75.812	-0.241	0.085
-620.376	-32.067	-0.158	-0.089
-619.361	-36.345	0.479	-0.259
-618.346	-94.878	-0.153	0.042
-617.332	800.000	0.104	-0.293
-616.317	-94.374	-0.335	-0.092
-615.303	-200.000	-0.042	0.309
-614.288	-38.807	0.242	0.128
-613.273	-89.142	-0.066	-0.019
-612.259	-35.937	-0.183	0.099
-611.244	93.696	-0.066	-0.075
-610.230	121.787	-0.027	0.033
-609.215	2.781	0.219	0.159
-608.201	246.873	-0.138	0.233
-607.186	45.609	0.236	0.218
-606.171	-134.521	-0.146	0.018
-605.157	217.609	0.050	-0.080
-604.142	-200.000	0.037	-0.416
-603.128	-23.837	-0.221	-0.133
-602.113	-200.000	0.052	-0.387
-601.098	800.000	0.111	-0.320
-600.084	-200.000	0.071	0.483
-599.069	-56.266	-0.133	0.059
-598.055	136.532	0.080	0.104
-597.040	-45.200	0.199	0.099
-596.025	6.917	-0.111	0.083
-595.011	800.000	0.023	0.094
-593.996	800.000	0.120	0.362
-592.982	82.176	0.057	-0.062
-591.967	-200.000	-0.033	0.230
-590.952	-91.609	0.334	0.095
-589.938	-200.000	0.013	-0.212
-588.923	-41.840	0.128	-0.066
-587.909	-76.335	-0.044	0.016
-586.894	383.584	-0.078	-0.160
-585.879	-73.941	0.197	0.071
-584.865	800.000	-0.057	0.224
-583.850	-200.000	-0.014	-0.114
-582.836	-200.000	0.019	0.155
-581.821	295.632	-0.083	-0.152
-580.806	-155.968	0.360	0.023
-579.792	800.000	-0.047	-0.174
-578.777	800.000	-0.037	-0.159
-577.763	123.353	0.302	-0.379
-576.748	86.487	-0.088	-0.097
-575.733	-12.009	0.299	-0.196
-574.719	459.688	0.058	-0.130
-573.704	-8.450	-0.209	0.140
-572.690	-76.858	-0.385	-0.135
-571.675	-200.000	-0.023	0.322
-570.661	416.180	-0.063	0.134
-569.646	-159.207	-0.074	-0.004
-568.631	-42.982	0.222	-0.113
-567.617	-200.000	0.019	-0.202
-566.602	-27.601	-0.249	-0.145
-565.588	158.533	-0.087	0.121
-564.573	646.093	0.036	0.092
-563.558	800.000	0.018	-0.054
-562.544	91.750	-0.128	-0.144
-561.529	-200.000	0.082	-0.414
-560.515	-70.700	-0.122	0.046
-559.500	-89.528	-0.127	0.037
-558.485	213.382	0.146	-0.231
-557.471	36.794	-0.369	-0.326
-556.456	435.163	0.199	-0.432
-555.442	-107.381	0.379	0.083
-554.427	78.503	-0.135	0.144
-553.412	-54.285	-0.083	0.038
-552.398	-200.000	-0.010	0.234
-551.383	-200.000	-0.026	-0.142
-550.369	-168.113	-0.068	-0.003
-549.354	-38.685	-0.316	0.166
-548.339	-200.000	0.004	0.211
-547.325	571.282	-0.119	0.290
-546.310	-102.936	0.219	0.052
-545.296	-200.000	-0.010	0.131
-544.281	-114.811	-0.286	-0.055
-543.266	788.272	0.035	-0.095
-542.252	187.824	-0.137	-0.205
-541.237	102.824	-0.102	-0.119
-540.223	-38.357	0.201	0.106
-539.208	87.834	0.153	0.170
-538.193	146.987	0.248	-0.333
-537.179	-87.116	-0.039	0.012
-536.164	-59.156	0.326	0.140
-535.150	800.000	-0.054	-0.228
-534.135	152.142	0.130	-0.177
-533.121	239.854	0.085	-0.141
-532.106	-120.762	0.193	0.033
-531.091	185.650	0.209	0.310
-530.077	34.164	-0.247	0.215
-529.062	-46.756	0.019	-0.009
-528.048	-40.609	0.090	0.047
-527.033	621.224	-0.139	0.350
-526.018	1.102	-0.298	0.213
-525.004	75.672	-0.095	0.101
-523.989	4.640	0.026	-0.019
-522.975	-200.000	-0.003	0.234
-521.960	-100.548	0.077	-0.019
-520.945	26.388	0.182	0.152
-519.931	238.009	0.196	-0.324
-518.916	-181.686	-0.370	0.007
-517.902	800.000	0.075	0.310
-516.887	-79.303	0.100	0.034
-515.872	800.000	0.085	0.243
-514.858	-161.422	0.337	-0.017
-513.843	-200.000	-0.072	0.442
-512.829	-63.096	-0.081	0.033
-511.814	-200.000	0.090	-0.486
-510.799	-117.766	-0.089	-0.016
-509.785	-200.000	-0.066	0.388
-508.770	-200.000	0.021	-0.106
-507.756	131.056	0.150	0.192
-506.741	255.601	0.021	-0.035
-505.726	283.464	0.140	-0.251
-504.712	800.000	-0.017	0.058
-503.697	157.516	-0.096	0.132
-502.683	47.722	-0.060	0.056
-501.668	-60.302	-0.374	-0.159
-500.653	-200.000	-0.039	-0.352
-499.639	184.647	-0.127	0.188
-498.624	800.000	-0.102	-0.340
-497.610	54.249	0.251	0.241
-496.595	-157.054	0.254	0.015
-495.581	175.133	0.153	0.222
-494.566	104.109	0.156	-0.183
-493.551	-4.278	-0.214	0.148
-492.537	482.169	-0.032	-0.073
-491.522	793.271	0.166	-0.456
-490.508	363.192	0.175	-0.350
-489.493	56.617	-0.118	-0.115
-488.478	609.067	0.146	-0.364
-487.464	-83.183	0.344	0.110
-486.449	-62.984	-0.074	-0.031
-485.435	63.171	-0.197	-0.197
-484.420	189.967	0.145	-0.217
-483.405	262.761	0.093	-0.161
-482.391	-2.881	0.035	0.024
-481.376	-59.598	-0.184	0.079
-480.362	-29.665	0.227	-0.129
-479.347	-200.000	-0.013	0.180
-478.332	-200.000	-0.043	-0.186
-477.318	-19.070	0.352	0.218
-476.303	-32.773	-0.110	0.061
-475.289	-144.802	0.301	-0.028
-474.274	-110.298	-0.175	0.036
-473.259	-200.000	-0.055	-0.279
-472.245	-13.221	-0.070	0.045
-471.230	-200.000	0.032	-0.250
-470.216	29.517	0.220	-0.187
-469.201	-200.000	0.013	-0.099
-468.186	648.341	0.024	-0.061
-467.172	800.000	0.073	0.208
-466.157	79.533	-0.297	-0.318
-465.143	800.000	0.075	0.287
-464.128	147.330	-0.060	0.081
-463.113	800.000	0.045	-0.170
-462.099	223.565	0.149	0.239
-461.084	-122.840	0.417	-0.067
-460.070	-200.000	0.016	-0.228
-459.055	-200.000	-0.065	-0.295
-458.040	-200.000	0.003	-0.043
-457.026	-100.325	0.158	0.039
-456.011	304.373	0.118	0.217
-454.997	-135.616	0.256	0.030
-453.982	-67.033	-0.069	0.027
-452.968	-17.105	-0.172	0.108
-451.953	-200.000	-0.002	0.177
-450.938	-49.605	-0.060	-0.029
-449.924	-105.644	0.168	-0.038
-448.909	-163.774	-0.156	0.007
-447.895	95.013	0.273	0.310
-446.880	-104.263	0.262	0.060
-445.865	35.070	0.183	0.159
-444.851	326.044	0.142	0.270
-443.836	-97.608	-0.092	0.024
-442.822	27.308	0.192	-0.160
-441.807	-80.193	0.133	-0.044
-440.792	-106.490	-0.372	0.083
-439.778	-38.029	-0.113	-0.060
-438.763	179.183	-0.106	-0.154
-437.749	45.866	0.070	-0.064
-436.734	-6.518	0.248	0.168
-435.719	-84.899	-0.225	0.070
-434.705	76.703	-0.112	0.118
-433.690	-56.062	0.224	0.099
-432.676	-51.789	-0.302	0.140
-431.661	-121.762	-0.181	-0.030
-430.646	543.468	-0.007	0.017
-429.632	-200.000	0.012	-0.061
-428.617	71.007	-0.178	0.184
-427.603	6.300	0.194	0.143
-426.588	800.000	-0.060	-0.196
-425.573	167.112	-0.155	-0.218
-424.559	800.000	0.037	-0.114
-423.544	39.103	0.042	0.038
-422.530	-82.955	0.343	-0.110
-421.515	-14.440	0.036	0.023
-420.500	62.647	-0.131	0.130
-419.486	109.770	-0.174	-0.207
-418.471	800.000	0.071	0.212
-417.457	-200.000	0.041	-0.200
-416.442	44.767	0.015	0.014
-415.428	-102.780	0.328	-0.078
-414.413	281.200	0.074	-0.131
-413.398	-200.000	-0.021	0.218
-412.384	-200.000	-0.006	0.079
-411.369	800.000	0.027	0.083
-410.355	800.000	-0.051	-0.149
-409.340	3.239	0.085	0.061
-408.325	-128.249	0.183	-0.026
-407.311	-95.501	0.264	0.070
-406.296	-92.404	-0.236	0.066
-405.282	783.953	-0.053	-0.143
-404.267	-200.000	0.052	0.245
-403.252	-200.000	0.008	-0.159
-402.238	-125.533	-0.300	-0.045
-401.223	-11.291	0.132	0.086
-400.209	18.740	0.226	-0.179
-399.194	173.065	-0.138	0.197
-398.179	800.000	-0.074	0.227
-397.165	800.000	0.105	-0.315
-396.150	-148.557	0.011	-0.001
-395.136	-95.443	0.168	-0.045
-394.121	800.000	-0.042	0.133
-393.106	-100.005	-0.080	0.020
-392.092	-116.431	0.144	0.026
-391.077	281.624	0.135	0.240
-390.063	62.686	-0.054	0.054
-389.048	33.477	0.153	-0.132
-388.033	71.405	-0.090	0.092
-387.019	-85.720	0.181	0.056
-386.004	-59.934	-0.131	-0.055
-384.990	-200.000	0.018	0.102
-383.975	-200.000	-0.004	-0.272
-382.960	-200.000	-0.051	-0.349
-381.946	307.165	-0.061	-0.113
-380.931	-200.000	0.012	0.252
-379.917	-100.021	0.218	0.054
-378.902	-200.000	-0.017	-0.425
-377.888	542.242	-0.136	-0.321
-376.873	-112.784	0.318	0.063
-375.858	-135.896	0.143	-0.017
-374.844	-200.000	0.020	0.219
-373.829	800.000	0.073	0.300
-372.815	444.069	-0.049	0.108
-371.800	131.682	0.014	-0.018
-370.785	-62.375	0.284	0.117
-369.771	-145.154	-0.219	0.020
-368.756	63.901	0.183	0.183
-367.742	328.843	-0.025	0.047
-366.727	-200.000	-0.014	0.076
-365.712	47.510	-0.078	0.072
-364.698	-1.280	-0.184	-0.129
-363.683	-64.726	0.195	-0.078
-362.669	-124.018	-0.249	-0.039
-361.654	-110.264	-0.362	0.075
-360.639	-67.120	0.214	0.083
-359.625	-200.000	-0.057	0.532
-358.610	-66.018	-0.276	0.109
-357.596	-14.391	0.199	0.127
-356.581	88.858	-0.256	-0.283
-355.566	-200.000	-0.045	0.214
-354.552	-200.000	-0.037	0.323
-353.537	121.365	-0.055	-0.068
-352.523	-94.408	0.141	-0.038
-351.508	90.027	-0.060	0.066
-350.493	156.028	-0.100	0.137
-349.479	76.274	0.079	0.082
-348.464	184.617	0.091	-0.134
-347.450	428.444	-0.179	0.382
-346.435	-29.699	0.409	-0.231
-345.420	-85.774	0.089	-0.027
-344.406	695.439	-0.063	-0.164
-343.391	20.912	-0.232	0.186
-342.377	-114.820	-0.220	-0.042
-341.362	-8.289	-0.317	-0.212
-340.348	-67.812	-0.214	-0.083
-339.333	800.000	-0.162	0.449
-338.318	70.672	0.031	0.032
-337.304	113.840	0.170	0.204
-336.289	9.044	0.219	-0.164
-335.275	-73.406	-0.373	0.135
-334.260	-2.294	0.203	-0.141
-333.245	-33.488	-0.247	-0.135
-332.231	-200.000	-0.034	-0.391
-331.216	254.370	0.111	-0.188
-330.202	800.000	-0.046	-0.143
-329.187	-98.214	-0.263	-0.067
-328.172	-200.000	0.001	-0.071
-327.158	-102.600	-0.427	0.101
-326.143	-148.964	0.288	0.023
-325.129	-94.403	-0.097	0.026
-324.114	-134.929	-0.291	0.035
-323.099	-200.000	-0.020	0.195
-322.085	156.997	-0.149	0.204
-321.070	13.745	-0.054	0.041
-320.056	-200.000	0.006	0.081
-319.041	24.047	-0.087	0.071
-318.026	606.977	-0.093	-0.229
-317.012	-89.575	0.248	0.072
-315.997	-126.057	-0.285	-0.042
-314.983	-18.954	-0.008	0.005
-313.968	800.000	0.033	0.108
-312.953	800.000	0.015	-0.057
-311.939	15.831	-0.202	0.158
-310.924	16.940	-0.144	0.113
-309.910	72.247	-0.183	-0.188
-308.895	800.000	-0.101	0.287
-307.880	800.000	0.036	-0.139
-306.866	-200.000	0.011	-0.188
-305.851	739.593	0.010	0.028
-304.837	-62.307	0.182	0.075
-303.822	-34.067	0.049	0.027
-302.807	800.000	-0.047	0.132
-301.793	-200.000	-0.028	-0.268
-300.778	487.963	0.095	-0.215
-299.764	-200.000	0.074	-0.338
-298.749	-200.000	0.008	-0.132
-297.735	-106.314	-0.216	0.048
-296.720	-94.389	-0.201	0.054
-295.705	255.713	0.089	0.151
-294.691	632.982	0.068	0.171
-293.676	86.876	-0.287	0.313
-292.662	800.000	-0.103	-0.302
-291.647	-128.792	0.166	-0.023
-290.632	-20.490	0.175	0.106
-289.618	208.424	0.141	0.218
-288.603	-66.256	-0.097	0.038
-287.589	377.278	-0.175	0.354
-286.574	427.074	-0.027	0.058
-285.559	-126.438	-0.311	0.046
-284.545	-7.763	0.298	-0.199
-283.530	170.430	0.149	0.210
-282.516	563.660	-0.101	0.243
-281.501	-200.000	0.039	-0.214
-280.486	-32.698	0.206	-0.113
-279.472	-200.000	0.323	0.000
-278.457	191.751	0.156	0.232
-277.443	-200.000	-0.074	-0.351
-276.428	29.958	-0.168	0.142
-275.413	199.761	0.053	0.081
-274.399	-200.000	-0.065	0.316
-273.384	-67.312	-0.151	0.059
-272.370	-55.809	-0.318	-0.141
-271.355	126.615	0.098	0.122
-270.340	800.000	-0.017	0.048
-269.326	-200.000	-0.034	-0.293
-268.311	28.086	-0.158	-0.132
-267.297	-200.000	-0.041	0.196
-266.282	800.000	0.047	0.195
-265.267	800.000	-0.113	0.355
-264.253	477.539	0.065	0.146
-263.238	-200.000	0.010	-0.115
-262.224	-72.179	-0.208	-0.076
-261.209	800.000	0.034	0.097
-260.195	-71.041	-0.221	-0.082
-259.180	311.327	-0.039	-0.073
-258.165	-200.000	0.030	-0.264
-257.151	800.000	-0.037	-0.115
-256.136	127.555	0.145	-0.182
-255.122	-30.536	-0.284	0.159
-254.107	-130.692	0.236	-0.031
-253.092	264.917	-0.120	-0.206
-252.078	61.283	-0.280	0.274
-251.063	-5.816	0.092	-0.062
-250.049	16.406	0.207	-0.161
-249.034	-127.510	0.569	0.082
-248.019	-102.984	-0.188	0.044
-247.005	12.092	-0.069	0.053
-245.990	263.326	0.125	-0.214
-244.976	496.448	-0.065	0.148
-243.961	-200.000	-0.021	-0.185
-242.946	800.000	-0.106	-0.400
-241.932	-55.539	0.376	-0.166
-240.917	-200.000	-0.004	0.020
-239.903	69.723	-0.124	0.126
-238.888	-93.602	0.153	0.042
-237.873	500.918	0.163	0.370
-236.859	-33.889	-0.116	0.063
-235.844	800.000	0.040	-0.158
-234.830	800.000	0.088	0.354
-233.815	-125.154	-0.470	-0.071
-232.800	-138.061	-0.288	-0.032
-231.786	-200.000	-0.005	-0.144
-230.771	-79.733	0.137	-0.046
-229.757	673.880	0.158	-0.404
-228.742	-100.666	-0.414	0.101
-227.727	-167.752	-0.136	-0.005
-226.713	-88.370	0.281	-0.083
-225.698	-65.447	-0.349	-0.138
-224.684	2.721	-0.168	0.120
-223.669	149.376	0.112	-0.149
-222.655	-62.972	0.302	-0.123
-221.640	-121.682	0.147	0.024
-220.625	-200.000	0.028	-0.278
-219.611	-200.000	0.025	0.243
-218.596	328.631	-0.121	0.229
-217.582	-200.000	-0.016	-0.380
-216.567	-200.000	0.001	0.048
-215.552	77.356	-0.100	-0.105
-214.538	-67.514	-0.290	0.112
-213.523	-200.000	-0.016	0.309
-212.509	114.039	0.281	0.337
-211.494	-200.000	0.021	0.295
-210.479	278.252	0.089	0.156
-209.465	178.320	-0.141	-0.203
-208.450	124.992	-0.177	-0.220
-207.436	-70.092	0.077	0.029
-206.421	377.710	0.075	0.152
-205.406	436.695	-0.095	-0.204
-204.392	254.385	-0.188	-0.317
-203.377	-200.000	0.037	0.250
-202.363	-52.086	0.164	-0.075
-201.348	32.915	-0.155	0.133
-200.333	-54.256	-0.168	-0.075
-199.319	681.809	-0.079	-0.202
-198.304	-181.794	-0.212	0.004
-197.290	83.560	0.156	-0.167
-196.275	560.873	-0.020	0.049
-195.260	80.742	-0.145	-0.154
-194.246	231.731	0.149	0.241
-193.231	-69.460	0.183	0.069
-192.217	800.000	-0.097	0.321
-191.202	-200.000	-0.009	0.180
-190.187	-49.748	-0.143	-0.067
-189.173	18.706	0.163	-0.129
-188.158	93.023	0.062	-0.069
-187.144	-145.246	-0.302	-0.027
-186.129	-114.695	0.269	-0.051
-185.114	209.139	-0.054	-0.083
-184.100	-21.671	-0.167	0.100
-183.085	-73.332	-0.171	0.062
-182.071	0.641	0.095	0.067
-181.056	68.522	0.291	-0.294
-180.042	11.606	-0.198	0.149
-179.027	800.000	-0.070	-0.194
-178.012	-51.384	-0.182	-0.084
-176.998	800.000	-0.088	-0.245
-175.983	65.032	0.256	0.254
-174.969	-141.343	0.118	-0.012
-173.954	77.521	0.353	0.370
-172.939	5.695	0.321	-0.233
-171.925	-104.440	0.199	-0.045
-170.910	245.618	0.064	-0.106
-169.896	432.098	0.084	0.179
-168.881	-8.816	0.113	-0.074
-167.866	20.688	0.191	0.152
-166.852	431.477	-0.069	-0.148
-165.837	800.000	0.034	-0.094
-164.823	147.895	0.246	0.327
-163.808	-143.217	0.307	0.029
-162.793	70.920	-0.223	-0.228
-161.779	291.225	-0.133	-0.239
-160.764	128.105	0.312	0.391
-159.750	800.000	-0.015	-0.055
-158.735	49.747	-0.071	0.065
-157.720	-200.000	-0.007	-0.215
-156.706	489.709	0.002	0.004
-155.691	800.000	0.115	0.333
-154.677	-200.000	-0.028	-0.253
-153.662	78.767	-0.108	0.113
-152.647	-31.969	-0.160	-0.088
-151.633	-200.000	0.019	0.175
-150.618	286.243	0.038	-0.067
-149.604	163.497	-0.086	-0.119
-148.589	-22.410	0.099	-0.059
-147.574	103.380	-0.162	-0.187
-146.560	41.603	-0.109	0.097
-145.545	-31.040	-0.172	0.095
-144.531	-84.839	0.235	0.073
-143.516	-15.710	0.132	-0.083
-142.502	207.995	-0.178	0.273
-141.487	239.909	-0.154	0.251
-140.472	392.514	0.119	0.244
-139.458	667.189	-0.038	-0.097
-138.443	120.484	0.241	0.294
-137.429	-200.000	-0.021	0.157
-136.414	-74.146	0.214	-0.076
-135.399	-200.000	-0.032	0.401
-134.385	248.428	0.139	0.231
-133.370	800.000	0.021	-0.060
-132.356	379.386	-0.126	-0.253
-131.341	-114.373	0.103	-0.020
-130.326	-200.000	-0.040	-0.241
-129.312	121.417	-0.147	-0.180
-128.297	-200.000	0.027	-0.174
-127.283	800.000	-0.021	0.068
-126.268	800.000	-0.063	0.236
-125.253	-9.786	0.105	-0.069
-124.239	15.080	-0.196	-0.151
-123.224	83.912	-0.145	0.156
-122.210	340.297	0.133	0.255
-121.195	166.201	0.258	-0.358
-120.180	84.822	-0.263	-0.283
-119.166	-43.391	0.329	-0.163
-118.151	-184.039	0.097	-0.002
-117.137	120.072	0.083	-0.101
-116.122	59.531	0.200	0.193
-115.107	-102.174	0.384	0.091
-114.093	161.208	-0.048	-0.066
-113.078	800.000	-0.039	-0.120
-112.064	111.591	-0.095	-0.112
-111.049	-200.000	0.172	0.000
-110.034	160.728	0.101	-0.138
-109.020	45.222	-0.290	0.262
-108.005	230.599	0.136	-0.218
-106.991	800.000	0.073	0.255
-105.976	113.396	0.131	0.156
-104.962	217.464	0.070	0.109
-103.947	-92.983	-0.207	-0.057
-102.932	-104.090	0.237	0.054
-101.918	80.095	-0.136	-0.143
-100.903	-16.098	-0.228	-0.143
-99.889	-84.217	-0.129	0.040
-98.874	-196.178	-0.065	-0.000
-97.859	-200.000	-0.005	0.161
-96.845	302.937	0.131	0.238
-95.830	-77.874	0.297	-0.101
-94.816	55.705	0.165	0.157
-93.801	197.696	-0.185	0.278
-92.786	95.332	0.192	-0.215
-91.772	-64.998	-0.202	-0.080
-90.757	-200.000	-0.017	0.075
-89.743	-102.228	0.016	-0.004
-88.728	-16.044	0.211	0.132
-87.713	800.000	0.066	0.206
-86.699	85.200	-0.081	0.088
-85.684	512.550	0.117	-0.268
-84.670	-122.785	0.341	0.054
-83.655	-39.317	-0.088	-0.045
-82.640	-171.252	-0.045	-0.001
-81.626	-150.059	-0.303	-0.023
-80.611	676.201	0.107	-0.273
-79.597	800.000	0.054	0.179
-78.582	410.257	-0.105	0.218
-77.567	503.036	0.083	-0.187
-76.553	-200.000	0.026	0.510
-75.538	-99.248	-0.205	-0.051
-74.524	-200.000	0.033	0.356
-73.509	250.563	0.200	-0.334
-72.494	-161.578	0.295	-0.015
-71.480	508.368	0.035	0.080
-70.465	116.627	0.122	0.146
-69.451	-200.000	-0.026	-0.284
-68.436	153.265	0.029	-0.039
-67.422	9.219	0.219	-0.162
-66.407	-14.744	0.098	0.061
-65.392	242.959	-0.180	0.296
-64.378	800.000	0.093	-0.285
-63.363	-200.000	0.031	0.371
-62.349	-120.461	0.419	0.070
-61.334	86.244	-0.957	-1.033
-60.319	711.098	0.211	0.546
-59.305	800.000	-0.214	-0.711
-58.290	141.694	0.849	1.103
-57.276	495.674	0.805	1.812
-56.261	-200.000	105.155	614.265
-55.246	516.943	1495.521	3425.794
-54.232	178.454	2687.969	3845.342
-53.217	111.929	2175.182	2573.658
-52.203	40.439	1696.199	1496.002
-51.188	32.909	1506.437	1277.853
-50.173	30.601	1479.518	1239.605
-49.159	51.272	1535.115	1427.219
-48.144	51.894	1551.909	1447.003
-47.130	33.157	1507.718	1280.412
-46.115	30.154	1492.842	1247.557
-45.100	29.937	1489.317	1243.109
-44.086	29.822	1487.597	1240.848
-43.071	29.806	1484.786	1238.352
-42.057	29.746	1483.422	1236.763
-41.042	29.714	1482.595	1235.811
-40.027	29.787	1480.870	1234.809
-39.013	29.785	1479.446	1233.557
-37.998	29.788	1477.939	1232.276
-36.984	29.733	1477.407	1231.418
-35.969	29.804	1475.215	1230.010
-34.954	29.714	1474.132	1228.463
-33.940	29.763	1472.959	1227.764
-32.925	29.825	1471.308	1226.744
-31.911	29.880	1469.962	1225.943
-30.896	29.935	1468.716	1225.218
-29.881	29.903	1467.475	1223.922
-28.867	30.048	1465.625	1223.286
-27.852	29.925	1464.794	1221.730
-26.838	29.906	1463.220	1220.244
-25.823	29.912	1461.799	1219.056
-24.809	29.985	1460.035	1218.013
-23.794	29.826	1458.732	1215.835
-22.779	29.898	1457.466	1215.205
-21.765	29.955	1456.940	1215.091
-20.750	29.974	1455.424	1213.901
-19.736	29.938	1454.382	1212.750
-18.721	29.923	1452.982	1211.433
-17.706	29.783	1452.491	1210.063
-16.692	29.825	1451.268	1209.272
-15.677	29.838	1450.339	1208.536
-14.663	29.875	1449.269	1207.834
-13.648	29.847	1448.418	1206.893
-12.633	29.794	1447.689	1205.895
-11.619	29.792	1446.861	1205.145
-10.604	29.795	1445.997	1204.392
-9.590	29.823	1444.854	1203.575
-8.575	29.838	1443.965	1202.887
-7.560	29.828	1443.051	1202.010
-6.546	29.745	1442.289	1200.792
-5.531	29.718	1441.596	1199.994
-4.517	29.658	1440.785	1198.880
-3.502	29.750	1439.529	1198.385
-2.487	29.813	1438.684	1198.039
-1.473	29.813	1437.422	1196.944
-0.458	29.819	1436.158	1195.882
0.556	27.639	1426.517	1184.642
1.571	24.605	1401.050	1143.997
2.586	21.107	1341.132	1073.496
3.600	19.461	1259.966	998.917
4.615	18.319	1215.597	957.275
5.629	15.780	1161.083	900.688
6.644	7.732	1077.814	795.878
7.659	0.826	1038.460	733.356
8.673	-0.058	1032.657	724.927
9.688	-0.217	1029.535	721.907
10.702	-0.389	1028.382	720.210
11.717	-0.504	1026.303	718.137
12.731	2.489	1029.492	734.685
13.746	11.192	1041.426	785.233
14.761	18.149	1049.974	825.296
15.775	19.657	1051.583	833.770
16.790	19.748	1051.433	834.016
17.804	19.697	1050.171	832.698
18.819	19.403	1049.431	830.620
19.834	19.642	1048.736	831.148
20.848	19.640	1048.555	830.921
21.863	19.641	1047.590	830.085
22.877	19.669	1047.637	830.187
23.892	19.605	1046.789	829.133
24.907	19.546	1045.918	828.088
25.921	19.622	1045.391	827.960
26.936	19.674	1044.498	827.431
27.950	19.689	1043.069	826.297
28.965	19.579	1042.158	824.976
29.980	19.554	1040.522	823.487
30.994	19.545	1039.146	822.285
32.009	19.732	1037.979	822.178
33.023	19.779	1037.739	822.137
34.038	19.537	1036.214	819.709
35.053	19.476	1035.664	818.910
36.067	19.744	1034.897	819.500
37.082	19.712	1034.409	818.893
38.096	19.764	1033.098	818.028
39.111	19.979	1032.842	818.770
40.126	20.071	1031.732	818.252
41.140	19.958	1030.604	816.750
42.155	19.716	1028.905	814.191
43.169	19.373	1027.860	811.678
44.184	19.319	1026.741	810.472
45.199	19.428	1025.502	809.932
46.213	19.298	1024.660	808.583
47.228	19.350	1023.141	807.558
48.242	19.468	1022.548	807.573
49.257	19.599	1021.767	807.495
50.271	19.641	1020.737	806.805
51.286	19.646	1020.211	806.342
52.301	19.662	1019.199	805.547
53.315	19.808	1018.183	805.352
54.330	19.808	1017.478	804.722
55.344	19.681	1016.617	803.380
56.359	19.809	1015.704	803.182
57.374	19.669	1015.203	802.066
58.388	19.436	1014.058	800.010
59.403	19.603	1013.264	800.084
60.417	19.553	1012.716	799.353
61.432	19.421	1011.908	798.031
62.447	19.363	1010.878	796.880
63.461	19.634	1010.137	797.476
64.476	19.640	1009.390	796.843
65.490	19.517	1008.980	795.884
66.505	19.433	1007.569	794.313
67.520	19.547	1006.750	794.122
68.534	19.585	1006.060	793.682
69.549	19.536	1004.979	792.535
70.563	19.271	1003.598	790.158
71.578	19.082	1003.109	788.840
72.593	19.250	1001.944	788.621
73.607	19.024	1000.692	786.531
74.622	19.044	999.869	785.909
75.636	19.205	999.567	786.335
76.651	19.389	998.504	786.268
77.666	19.320	997.413	785.027
78.680	19.254	996.177	783.686
79.695	19.255	995.854	783.365
80.709	19.322	995.418	783.256
81.724	19.384	994.810	782.993
82.739	19.394	993.660	782.061
83.753	19.322	992.792	780.985
84.768	19.594	992.116	781.615
85.782	19.841	991.596	782.252
86.797	19.930	990.958	782.083
87.812	20.006	989.713	781.372
88.826	19.777	988.897	779.629
89.841	19.825	988.517	779.475
90.855	19.848	987.571	778.763
91.870	19.745	986.966	777.755
92.884	19.817	985.896	777.166
93.899	19.877	984.563	776.318
94.914	19.777	983.770	775.174
95.928	19.813	983.247	774.852
96.943	19.785	982.146	773.794
97.957	19.568	981.048	771.890
98.972	19.328	980.035	769.953
99.987	19.101	978.774	767.882
101.001	19.141	978.592	767.850
102.016	19.543	977.666	768.846
103.030	19.734	976.628	768.811
104.045	19.526	975.830	767.189
105.060	19.332	974.622	765.309
106.074	19.248	973.064	763.646
107.089	19.202	973.109	763.410
108.103	19.700	972.355	764.958
109.118	19.863	971.180	764.685
110.133	19.575	969.660	762.151
111.147	19.494	969.046	761.245
112.162	19.570	967.587	760.363
113.176	19.224	966.958	758.279
114.191	19.356	966.198	758.196
115.206	19.428	964.876	757.409
116.220	19.067	963.990	755.062
117.235	19.049	963.123	754.237
118.249	19.237	962.292	754.342
119.264	19.289	961.418	753.821
120.279	19.211	960.514	752.701
121.293	19.234	959.734	752.127
122.308	19.284	959.212	751.869
123.322	19.149	958.662	750.779
124.337	19.279	957.220	750.152
125.352	19.217	955.541	748.498
126.366	18.843	953.987	745.594
127.381	18.682	952.155	743.399
128.395	19.075	952.376	745.207
129.410	19.607	951.949	747.110
130.424	19.721	950.872	746.691
131.439	19.709	950.002	745.888
132.454	19.658	948.828	744.682
133.468	19.628	947.920	743.776
134.483	19.526	947.255	742.750
135.497	19.696	946.645	742.935
136.512	19.777	946.331	742.969
137.527	19.865	945.351	742.516
138.541	19.895	944.114	741.605
139.556	19.900	943.744	741.269
140.570	19.971	942.816	740.777
141.585	19.882	941.683	739.443
142.600	19.862	941.224	738.931
143.614	19.786	940.327	737.838
144.629	19.905	939.598	737.709
145.643	19.995	938.960	737.525
146.658	19.967	937.604	736.278
147.673	19.880	936.535	735.004
148.687	19.809	935.396	733.743
149.702	19.732	934.313	732.501
150.716	19.617	933.512	731.320
151.731	19.676	932.261	730.528
152.746	19.845	931.499	730.580
153.760	19.938	931.407	730.834
154.775	20.066	930.310	730.448
155.789	20.086	929.499	729.833
156.804	20.072	928.306	728.771
157.819	19.945	927.423	727.479
158.833	19.922	926.636	726.701
159.848	20.009	925.974	726.483
160.862	20.128	925.399	726.466
161.877	19.994	924.301	724.977
162.892	19.984	923.409	724.172
163.906	20.015	922.859	723.805
164.921	20.111	922.060	723.517
165.935	20.003	920.472	721.757
166.950	19.988	919.682	721.014
167.964	20.015	918.765	720.342
168.979	20.072	917.656	719.646
169.994	19.949	916.689	718.314
171.008	19.903	915.429	717.071
172.023	20.028	915.098	717.266
173.037	20.194	913.499	716.638
174.052	19.989	913.168	715.466
175.067	19.708	911.941	713.280
176.081	19.887	910.803	713.067
177.096	19.862	910.308	712.514
178.110	19.930	909.383	712.006
179.125	19.700	908.523	710.324
180.140	19.563	907.129	708.608
181.154	19.571	906.289	707.924
182.169	19.643	906.353	708.204
183.183	19.823	905.799	708.447
184.198	20.080	905.002	708.811
185.213	19.890	904.696	707.735
186.227	19.890	904.142	707.238
187.242	19.941	903.697	707.033
188.256	20.029	902.784	706.617
189.271	20.019	901.789	705.736
190.286	20.240	900.965	705.927
191.300	20.007	899.935	704.112
192.315	19.636	898.873	701.712
193.329	18.974	897.455	697.856
194.344	18.536	896.441	695.230
195.359	18.981	896.877	697.312
196.373	19.954	896.981	701.275
197.388	20.082	896.561	701.400
198.402	19.891	895.469	699.714
199.417	19.632	895.184	698.380
200.432	19.868	894.498	698.736
201.446	19.526	894.345	697.177
202.461	19.533	893.114	696.181
203.475	19.576	892.503	695.816
204.490	19.085	891.119	692.702
205.504	17.976	889.392	686.842
206.519	18.623	889.038	689.104
207.534	19.524	889.091	692.703
208.548	19.612	888.665	692.664
209.563	19.811	889.164	693.791
210.577	19.780	888.207	692.856
211.592	19.709	887.060	691.617
212.607	19.849	887.095	692.143
213.621	20.132	886.482	692.735
214.636	20.111	885.489	691.813
215.650	20.229	884.563	691.501
216.665	20.112	884.279	690.750
217.680	20.033	884.009	690.161
218.694	20.194	883.369	690.244
219.709	19.823	882.258	687.841
220.723	19.512	881.391	685.868
221.738	19.645	881.013	686.042
222.753	19.867	880.343	686.337
223.767	19.817	879.630	685.522
224.782	20.014	878.730	685.540
225.796	20.102	877.931	685.206
226.811	20.072	878.161	685.205
227.826	19.890	876.518	683.145
228.840	19.140	874.950	678.907
229.855	19.032	874.449	678.032
230.869	19.281	874.030	678.628
231.884	18.817	873.692	676.480
232.899	18.862	873.109	676.143
233.913	19.734	873.027	679.451
234.928	19.911	872.479	679.657
235.942	19.860	871.941	678.976
236.957	19.923	871.145	678.546
237.972	19.696	870.250	676.899
238.986	19.552	869.345	675.572
240.001	19.849	868.476	675.999
241.015	19.792	868.115	675.433
242.030	19.720	868.189	675.151
243.045	19.906	866.910	674.821
244.059	20.100	866.378	675.104
245.074	20.282	865.731	675.248
246.088	20.095	865.022	673.907
247.103	19.636	864.460	671.628
248.117	19.710	863.502	671.112
249.132	20.196	863.575	672.995
250.147	20.527	863.025	673.791
251.161	20.516	862.743	673.465
252.176	20.669	862.080	673.484
253.190	20.590	861.316	672.521
254.205	20.776	860.620	672.637
255.220	20.909	860.433	672.944
256.234	20.890	859.440	672.036
257.249	20.842	858.762	671.262
258.263	20.760	858.035	670.318
259.278	20.693	857.532	669.607
260.293	20.677	857.460	669.429
261.307	20.889	856.662	669.563
262.322	20.760	856.058	668.534
263.336	20.579	854.944	666.913
264.351	20.094	853.556	663.912
265.366	18.971	851.604	658.040
266.380	18.709	850.760	656.330
267.395	19.394	851.495	659.458
268.409	20.329	851.029	662.610
269.424	20.310	850.648	662.182
270.439	20.401	850.177	662.106
271.453	20.566	849.320	662.008
272.468	20.550	848.736	661.432
273.482	20.752	848.480	661.943
274.497	20.898	847.485	661.660
275.512	20.620	846.749	659.972
276.526	20.208	845.016	657.006
277.541	20.309	844.902	657.241
278.555	20.748	844.500	658.529
279.570	20.489	843.707	656.874
280.585	20.236	843.049	655.349
281.599	20.274	842.313	654.861
282.614	20.452	841.712	655.009
283.628	20.105	840.976	653.070
284.643	19.691	840.497	651.082
285.657	20.271	840.135	652.925
286.672	20.092	839.373	651.601
287.687	19.638	838.388	649.076
288.701	20.077	837.901	650.290
289.716	20.323	837.804	651.079
290.730	20.006	836.821	649.068
291.745	19.878	836.115	647.984
292.760	19.814	834.965	646.799
293.774	19.597	834.566	645.621
294.789	20.364	835.345	649.032
295.803	20.952	835.518	651.307
296.818	21.092	834.793	651.209
297.833	21.293	834.014	651.292
298.847	21.061	832.952	649.543
299.862	20.735	831.773	647.354
300.876	20.851	831.761	647.716
301.891	21.160	831.140	648.325
302.906	21.125	830.798	647.869
303.920	20.711	829.455	645.230
304.935	20.744	828.646	644.667
305.949	20.879	828.711	645.162
306.964	21.034	827.924	645.064
307.979	20.917	827.251	644.051
308.993	20.851	827.222	643.725
310.008	21.204	826.314	644.264
311.022	21.327	826.335	644.680
312.037	21.131	825.661	643.375
313.052	20.881	824.922	641.820
314.066	20.698	824.234	640.554
315.081	20.257	822.721	637.699
316.095	19.647	821.116	634.164
317.110	20.113	821.502	636.117
318.125	20.940	821.888	639.393
319.139	20.429	821.048	636.810
320.154	19.409	819.851	632.090
321.168	19.082	818.420	629.734
322.183	19.652	818.826	632.078
323.197	20.428	819.145	635.105
324.212	20.831	818.477	636.004
325.227	20.749	818.580	635.727
326.241	20.756	818.551	635.675
327.256	20.945	817.080	635.163
328.270	20.895	816.316	634.333
329.285	20.768	815.830	633.435
330.300	20.660	815.465	632.704
331.314	20.471	814.269	631.034
332.329	20.506	813.799	630.740
333.343	20.850	813.175	631.448
334.358	21.054	812.782	631.827
335.373	20.970	812.496	631.244
336.387	21.122	811.788	631.187
337.402	21.203	811.721	631.373
338.416	21.305	811.423	631.453
339.431	21.393	810.553	631.039
340.446	21.358	809.885	630.337
341.460	21.520	809.567	630.616
342.475	21.620	808.653	630.211
343.489	21.360	807.989	628.700
344.504	21.194	807.772	627.880
345.519	21.422	807.621	628.527
346.533	21.840	807.126	629.586
347.548	21.814	806.421	628.887
348.562	21.831	805.998	628.562
349.577	21.707	805.999	628.063
350.592	21.806	805.153	627.704
351.606	21.853	804.731	627.488
352.621	21.844	804.048	626.867
353.635	21.652	803.534	625.723
354.650	21.643	802.920	625.160
355.665	21.253	802.225	623.172
356.679	20.201	800.348	617.911
357.694	20.099	800.459	617.579
358.708	20.833	799.744	619.584
359.723	20.816	799.170	619.026
360.738	20.953	799.103	619.405
361.752	21.463	798.940	621.038
362.767	21.564	798.506	621.004
363.781	21.893	798.555	622.153
364.796	22.150	798.070	622.630
365.810	22.111	797.626	622.091
366.825	21.949	797.656	621.484
367.840	22.082	797.248	621.584
368.854	22.021	796.237	620.524
369.869	21.512	795.549	618.135
370.883	21.442	794.870	617.304
371.898	21.650	794.114	617.396
372.913	21.502	793.486	616.331
373.927	21.415	792.904	615.519
374.942	21.528	792.417	615.487
375.956	21.820	791.790	615.971
376.971	21.821	791.417	615.627
377.986	21.852	790.885	615.270
379.000	21.950	790.703	615.418
380.015	21.918	790.238	614.888
381.029	21.855	789.551	614.079
382.044	21.677	789.233	613.154
383.059	22.000	788.529	613.683
384.073	22.013	788.116	613.353
385.088	22.034	787.414	612.824
386.102	22.122	786.802	612.599
387.117	22.089	786.115	611.898
388.132	21.887	785.776	610.875
389.146	21.791	785.060	609.931
390.161	21.088	784.462	606.967
391.175	21.144	784.071	606.804
392.190	21.781	783.915	608.843
393.205	21.644	783.423	607.932
394.219	20.938	781.461	603.910
395.234	19.202	779.980	596.704
396.248	18.733	779.086	594.347
397.263	19.879	779.487	598.565
398.278	21.451	780.725	604.904
399.292	21.989	780.309	606.386
400.307	21.513	780.077	604.510
401.321	21.573	779.176	603.966
402.336	21.674	779.237	604.306
403.350	21.887	778.957	604.770
404.365	22.149	779.321	605.904
405.380	22.542	778.756	606.764
406.394	22.613	778.846	607.023
407.409	22.706	778.371	606.919
408.423	22.701	777.263	605.985
409.438	22.632	776.747	605.292
410.453	22.657	776.495	605.129
411.467	22.782	776.231	605.298
412.482	22.987	775.355	605.263
413.496	22.557	775.135	603.568
414.511	22.795	774.837	604.095
415.526	22.753	774.262	603.451
416.540	22.745	773.906	603.093
417.555	22.802	773.187	602.674
418.569	22.516	772.573	601.165
419.584	22.381	772.019	600.220
420.599	22.467	771.712	600.220
421.613	158.886	1361.512	1798.986
422.628	137.081	1447.430	1799.086
