DTS Sentinel unit serial number:	SN413079Multiplexer serial number:	ORYXHardware model number:	OX4-SRSoftware version number:	ORYX F/W v4.00 Oryx Data Collector v3.7.2.0data status	okinstallation	princeton_trtdifferential loss correction	single-endedforward channel	channel 3reverse channel	N/Adate	2019/09/11time	09:38:10forward acquisition time	60.00reverse acquisition time	0.00gamma	496.2192k internal	0.2304k external	0.2304temperature offset calibration	0.9941default loss term (dB/km)	0.3790temperature slope calibration	1.0000multiplexer offset coefficient	1.0000multiplexer slope coefficient	1.0000fibre end	0.00T internal ref (°C)	34.81T ext. ref 1 (°C)	0.10T ext. ref 2 (°C)	31.42length (m)	temperature (°C)	Stokes	anti-Stokes-747.200	152.830	-0.131	0.182
-746.185	-200.000	0.001	0.306
-745.171	-68.308	0.248	0.098
-744.156	-200.000	0.032	0.260
-743.142	204.801	-0.200	-0.316
-742.127	-24.134	-0.120	0.073
-741.112	-158.299	0.041	-0.002
-740.098	800.000	-0.040	-0.155
-739.083	44.899	-0.146	0.137
-738.069	-101.636	-0.229	-0.057
-737.054	225.590	-0.091	0.151
-736.039	21.945	-0.134	0.111
-735.025	-28.561	0.184	-0.108
-734.010	-149.947	-0.345	0.027
-732.996	90.052	-0.311	0.353
-731.981	337.463	-0.120	0.237
-730.966	-200.000	-0.026	-0.309
-729.952	92.818	-0.139	-0.160
-728.937	141.378	0.125	-0.169
-727.923	-81.914	-0.159	0.053
-726.908	-200.000	-0.019	-0.134
-725.894	-152.204	-0.290	0.021
-724.879	-94.755	-0.154	0.042
-723.864	287.253	-0.130	-0.239
-722.850	137.501	-0.103	-0.137
-721.835	-48.999	-0.243	-0.118
-720.821	-154.777	0.074	0.005
-719.806	-71.361	-0.250	-0.095
-718.791	466.531	-0.070	-0.159
-717.777	27.574	0.023	0.019
-716.762	15.983	-0.142	-0.113
-715.748	-200.000	0.009	0.112
-714.733	95.384	0.199	-0.231
-713.718	604.904	0.037	-0.095
-712.704	-200.000	0.090	-0.426
-711.689	800.000	0.106	-0.333
-710.675	358.167	0.025	-0.050
-709.660	352.256	0.060	-0.120
-708.645	-99.881	-0.184	-0.047
-707.631	4.176	0.254	0.189
-706.616	800.000	0.070	-0.217
-705.602	125.983	0.177	0.228
-704.587	-128.617	0.057	0.008
-703.572	-52.352	0.284	0.134
-702.558	-200.000	-0.010	0.195
-701.543	25.316	0.249	-0.211
-700.529	425.248	0.129	0.282
-699.514	80.667	0.194	-0.213
-698.499	-200.000	-0.091	-0.443
-697.485	16.466	-0.171	0.137
-696.470	-200.000	0.049	0.279
-695.456	-122.601	0.119	0.020
-694.441	-200.000	-0.013	0.271
-693.426	-200.000	-0.019	0.261
-692.412	-102.696	-0.453	-0.110
-691.397	-200.000	-0.045	-0.300
-690.383	-107.953	-0.022	-0.005
-689.368	176.645	-0.173	-0.256
-688.354	-135.476	-0.141	0.017
-687.339	-110.529	-0.041	0.009
-686.324	-58.904	-0.442	-0.194
-685.310	233.531	-0.109	0.182
-684.295	24.679	0.130	-0.109
-683.281	-125.410	-0.139	0.021
-682.266	169.281	-0.156	-0.226
-681.251	-12.018	0.185	0.123
-680.237	-172.220	-0.307	-0.010
-679.222	-200.000	0.018	-0.156
-678.208	800.000	0.059	-0.177
-677.193	-200.000	-0.035	0.217
-676.178	-200.000	0.000	0.036
-675.164	-29.251	-0.148	-0.086
-674.149	-11.430	0.165	-0.110
-673.135	18.654	0.154	-0.125
-672.120	800.000	-0.046	-0.180
-671.105	91.281	0.032	0.036
-670.091	-33.470	-0.074	-0.041
-669.076	97.120	0.104	0.122
-668.062	-98.903	-0.088	-0.023
-667.047	148.604	-0.099	-0.136
-666.032	-137.325	0.160	-0.018
-665.018	-200.000	-0.000	0.139
-664.003	-85.919	0.078	-0.024
-662.989	-94.064	-0.145	-0.040
-661.974	-200.000	0.012	0.311
-660.959	3.571	0.253	0.188
-659.945	5.154	-0.257	-0.192
-658.930	129.967	-0.006	0.008
-657.916	-200.000	-0.015	-0.213
-656.901	-32.449	-0.315	-0.178
-655.886	222.257	-0.110	-0.180
-654.872	53.770	-0.100	0.097
-653.857	-200.000	-0.017	-0.094
-652.843	186.950	0.214	0.324
-651.828	-200.000	-0.015	0.306
-650.814	-200.000	0.006	-0.083
-649.799	-200.000	0.003	-0.170
-648.784	800.000	0.041	-0.161
-647.770	800.000	0.084	-0.366
-646.755	-46.020	-0.088	-0.044
-645.741	-200.000	0.015	-0.412
-644.726	-11.654	0.024	0.016
-643.711	-2.974	-0.273	0.194
-642.697	-200.000	0.002	-0.261
-641.682	63.522	0.173	-0.176
-640.668	31.032	-0.084	-0.073
-639.653	-200.000	0.001	-0.007
-638.638	-200.000	-0.010	-0.203
-637.624	129.453	-0.111	-0.143
-636.609	-200.000	0.025	0.189
-635.595	216.551	-0.037	0.059
-634.580	146.379	0.114	0.156
-633.565	265.892	-0.055	0.097
-632.551	-67.429	0.089	-0.035
-631.536	-1.062	-0.267	-0.191
-630.522	-173.413	-0.145	0.004
-629.507	-82.780	0.205	-0.067
-628.492	-200.000	-0.021	0.173
-627.478	-160.285	-0.156	0.009
-626.463	-14.300	0.208	0.136
-625.449	132.634	0.153	-0.200
-624.434	-51.937	0.183	-0.086
-623.419	-200.000	0.002	0.060
-622.405	407.651	-0.173	-0.370
-621.390	-200.000	-0.027	-0.186
-620.376	181.190	0.094	0.139
-619.361	39.763	0.120	-0.109
-618.346	168.779	0.112	0.162
-617.332	800.000	-0.075	-0.299
-616.317	-86.784	0.484	0.150
-615.303	87.690	0.172	-0.193
-614.288	-63.411	-0.225	0.094
-613.273	485.414	-0.098	0.227
-612.259	-200.000	0.001	-0.281
-611.244	-55.009	0.350	-0.160
-610.230	-72.937	0.133	0.050
-609.215	800.000	0.045	-0.184
-608.201	-9.507	-0.253	0.171
-607.186	-200.000	0.022	-0.277
-606.171	-53.840	-0.258	-0.119
-605.157	800.000	-0.145	-0.599
-604.142	-184.170	-0.460	-0.008
-603.128	66.015	0.242	0.249
-602.113	21.425	0.371	-0.305
-601.098	-104.207	-0.152	0.036
-600.084	221.955	0.261	-0.426
-599.069	4.173	0.149	-0.110
-598.055	28.257	0.449	-0.384
-597.040	-131.161	-0.078	0.010
-596.025	800.000	0.076	-0.244
-595.011	87.039	-0.103	-0.115
-593.996	-163.164	0.359	0.017
-592.982	-137.194	0.203	0.023
-591.967	-73.473	0.172	0.063
-590.952	286.261	-0.155	-0.283
-589.938	-164.576	-0.245	0.011
-588.923	205.859	-0.101	0.159
-587.909	746.102	-0.086	0.234
-586.894	291.418	0.071	0.131
-585.879	105.552	0.008	0.010
-584.865	251.622	0.111	0.190
-583.850	-140.609	0.503	-0.053
-582.836	-33.207	-0.275	0.154
-581.821	-69.504	-0.292	-0.113
-580.806	-73.145	0.205	0.076
-579.792	523.569	-0.114	-0.272
-578.777	800.000	0.067	-0.237
-577.763	-200.000	0.022	0.247
-576.748	417.556	-0.083	-0.179
-575.733	-46.164	-0.196	0.097
-574.719	-87.810	-0.055	-0.017
-573.704	-97.123	-0.206	-0.054
-572.690	-192.296	-0.163	-0.002
-571.675	-47.054	-0.167	0.082
-570.661	-8.718	-0.219	0.149
-569.646	-153.435	0.224	-0.016
-568.631	-39.661	-0.208	-0.110
-567.617	107.904	-0.097	0.117
-566.602	139.008	0.115	-0.153
-565.588	-78.846	-0.232	-0.080
-564.573	-190.130	0.323	0.004
-563.558	391.165	-0.039	0.081
-562.544	82.262	0.106	-0.116
-561.529	91.481	-0.012	-0.014
-560.515	-200.000	0.027	0.329
-559.500	-52.413	0.009	0.004
-558.485	194.849	0.097	0.149
-557.471	137.605	0.227	-0.300
-556.456	-200.000	-0.088	-0.489
-555.442	306.611	-0.114	-0.215
-554.427	800.000	0.008	0.033
-553.412	-106.584	-0.271	0.061
-552.398	121.767	-0.142	-0.180
-551.383	-200.000	-0.021	0.140
-550.369	-117.647	0.322	-0.059
-549.354	195.632	-0.079	0.121
-548.339	-142.014	-0.350	0.035
-547.325	-75.908	0.242	0.087
-546.310	800.000	-0.072	0.256
-545.296	-200.000	0.048	0.323
-544.281	200.133	-0.029	0.045
-543.266	800.000	0.058	0.212
-542.252	-4.720	0.368	0.256
-541.237	-43.044	-0.206	-0.105
-540.223	-200.000	0.052	0.322
-539.208	-115.302	-0.044	-0.008
-538.193	-99.143	0.062	-0.016
-537.179	-18.934	0.288	-0.181
-536.164	-59.714	-0.294	-0.127
-535.150	43.513	-0.070	-0.064
-534.135	-111.297	-0.118	0.024
-533.121	-200.000	-0.052	-0.301
-532.106	-200.000	-0.015	0.087
-531.091	800.000	0.105	0.328
-530.077	-63.577	0.106	-0.044
-529.062	800.000	-0.040	0.163
-528.048	6.574	-0.244	-0.183
-527.033	800.000	-0.024	0.086
-526.018	-68.404	0.121	-0.048
-525.004	139.346	-0.066	0.088
-523.989	-190.193	0.140	-0.002
-522.975	800.000	0.052	-0.178
-521.960	43.770	0.216	0.199
-520.945	95.880	-0.107	-0.123
-519.931	-200.000	0.039	-0.363
-518.916	-200.000	0.005	-0.073
-517.902	-115.995	0.392	0.074
-516.887	218.685	-0.219	0.352
-515.872	-200.000	-0.056	0.304
-514.858	-24.014	0.005	-0.003
-513.843	595.176	0.116	0.289
-512.829	-16.020	0.120	0.077
-511.814	800.000	0.042	0.150
-510.799	-105.861	0.104	0.024
-509.785	20.947	-0.172	-0.141
-508.770	3.212	-0.360	-0.264
-507.756	395.070	0.082	0.171
-506.741	-200.000	-0.016	-0.074
-505.726	-20.712	-0.026	-0.016
-504.712	-49.833	0.148	-0.071
-503.697	17.103	0.025	-0.020
-502.683	-46.412	0.325	0.161
-501.668	-150.451	-0.256	0.020
-500.653	-193.268	0.252	-0.002
-499.639	-111.064	0.274	-0.057
-498.624	265.195	-0.161	0.284
-497.610	18.590	0.255	0.205
-496.595	-128.685	-0.080	0.011
-495.581	244.499	-0.049	-0.082
-494.566	-15.756	-0.107	-0.069
-493.551	-106.031	0.254	-0.058
-492.537	32.728	0.292	0.254
-491.522	-67.178	0.143	-0.057
-490.508	-83.678	-0.402	0.129
-489.493	68.881	0.167	-0.173
-488.478	-67.310	0.147	-0.058
-487.464	-200.000	-0.343	-0.001
-486.449	113.203	0.025	0.030
-485.435	-120.376	0.131	0.022
-484.420	-200.000	0.012	-0.191
-483.405	-166.198	-0.249	-0.011
-482.391	26.810	-0.328	0.277
-481.376	-2.596	0.172	-0.121
-480.362	-200.000	-0.013	-0.149
-479.347	-69.300	0.161	-0.062
-478.332	156.131	0.109	0.152
-477.318	167.842	-0.057	0.081
-476.303	-80.398	0.211	-0.071
-475.289	11.382	0.142	0.110
-474.274	-87.606	-0.262	0.080
-473.259	235.700	0.121	0.201
-472.245	178.992	-0.145	0.214
-471.230	4.927	0.096	-0.071
-470.216	-51.723	-0.196	-0.092
-469.201	-200.000	0.005	-0.212
-468.186	474.476	-0.105	-0.238
-467.172	137.189	0.221	0.291
-466.157	585.365	-0.091	-0.224
-465.143	-30.419	0.201	-0.115
-464.128	-60.325	0.225	0.096
-463.113	-200.000	-0.008	0.186
-462.099	-200.000	0.009	-0.045
-461.084	308.508	0.085	0.161
-460.070	-79.887	0.107	-0.036
-459.055	162.521	-0.030	-0.042
-458.040	209.427	-0.136	0.214
-457.026	-69.795	-0.260	-0.100
-456.011	29.596	0.136	0.116
-454.997	-83.176	-0.226	0.073
-453.982	-200.000	0.022	0.221
-452.968	-0.047	-0.183	0.131
-451.953	15.676	-0.113	0.090
-450.938	-168.045	-0.111	0.004
-449.924	12.284	0.040	-0.031
-448.909	15.831	0.238	0.188
-447.895	183.907	-0.065	0.097
-446.880	-56.866	-0.100	-0.044
-445.865	-200.000	0.029	0.175
-444.851	-200.000	-0.056	0.370
-443.836	-16.853	0.123	-0.078
-442.822	-200.000	-0.020	0.328
-441.807	418.738	0.134	0.289
-440.792	7.683	-0.311	0.234
-439.778	800.000	0.032	0.110
-438.763	41.995	0.246	-0.225
-437.749	-158.061	0.103	0.006
-436.734	-83.416	0.146	-0.047
-435.719	-200.000	-0.010	0.078
-434.705	800.000	0.059	0.247
-433.690	99.916	0.236	0.275
-432.676	-55.743	0.184	0.083
-431.661	800.000	-0.070	-0.259
-430.646	-176.632	-0.061	-0.002
-429.632	-97.432	-0.231	0.060
-428.617	-78.583	0.231	-0.080
-427.603	-108.704	-0.394	-0.085
-426.588	-76.483	0.029	-0.010
-425.573	800.000	0.085	-0.261
-424.559	-200.000	0.033	0.266
-423.544	294.256	0.137	0.252
-422.530	244.507	0.115	0.194
-421.515	800.000	-0.076	-0.225
-420.500	-9.299	0.126	-0.085
-419.486	-149.611	-0.187	0.015
-418.471	-171.514	-0.220	-0.007
-417.457	-34.809	-0.186	0.102
-416.442	178.020	-0.224	-0.328
-415.428	-131.011	-0.188	0.025
-414.413	21.062	-0.152	-0.124
-413.398	257.169	-0.113	-0.195
-412.384	-27.299	0.206	-0.120
-411.369	-200.000	-0.021	-0.129
-410.355	273.739	0.054	0.096
-409.340	486.545	0.103	0.237
-408.325	-34.328	-0.253	0.140
-407.311	-200.000	-0.018	-0.142
-406.296	-110.637	0.370	0.077
-405.282	-200.000	-0.009	0.090
-404.267	-29.344	-0.398	0.229
-403.252	234.275	0.167	-0.277
-402.238	-200.000	0.022	-0.222
-401.223	-23.185	-0.058	-0.035
-400.209	-9.172	-0.425	-0.285
-399.194	-31.041	-0.094	0.053
-398.179	800.000	0.086	0.337
-397.165	-23.405	0.229	-0.138
-396.150	51.956	-0.099	0.094
-395.136	800.000	-0.079	0.342
-394.121	144.854	0.107	0.144
-393.106	202.957	0.055	-0.085
-392.092	-27.980	0.209	0.122
-391.077	-173.833	-0.384	-0.011
-390.063	-37.580	-0.251	-0.134
-389.048	80.251	0.232	-0.251
-388.033	-62.611	0.412	0.172
-387.019	1.123	0.412	-0.297
-386.004	-31.063	0.096	-0.055
-384.990	25.524	0.070	-0.059
-383.975	-82.907	-0.090	0.029
-382.960	210.304	-0.044	-0.069
-381.946	114.459	-0.125	0.153
-380.931	-73.723	-0.293	-0.107
-379.917	509.257	-0.074	0.172
-378.902	-19.825	0.061	0.038
-377.888	800.000	-0.128	0.383
-376.873	-200.000	0.037	-0.185
-375.858	261.028	-0.061	0.106
-374.844	-102.597	0.233	-0.056
-373.829	381.310	-0.201	0.414
-372.815	-124.755	0.347	0.054
-371.800	-22.663	0.042	0.025
-370.785	3.740	0.256	0.188
-369.771	800.000	0.015	0.056
-368.756	6.827	0.120	0.090
-367.742	-61.502	-0.108	0.046
-366.727	32.999	-0.120	-0.105
-365.712	81.743	0.069	-0.075
-364.698	13.948	0.059	-0.046
-363.683	-84.606	-0.052	0.016
-362.669	800.000	-0.076	-0.233
-361.654	-64.990	0.203	0.082
-360.639	469.246	0.156	-0.352
-359.625	-93.592	-0.042	-0.012
-358.610	17.444	-0.177	-0.141
-357.596	321.623	-0.173	-0.330
-356.581	-110.992	-0.292	0.060
-355.566	-48.884	0.041	-0.020
-354.552	800.000	0.090	-0.260
-353.537	408.521	-0.063	0.134
-352.523	-66.171	-0.142	-0.057
-351.508	-200.000	-0.001	-0.058
-350.493	54.696	0.041	0.039
-349.479	-200.000	0.001	-0.265
-348.464	-165.507	-0.255	-0.011
-347.450	622.773	-0.055	-0.140
-346.435	225.431	-0.062	-0.101
-345.420	-200.000	0.016	-0.214
-344.406	-62.709	0.353	-0.147
-343.391	3.937	0.118	-0.087
-342.377	720.691	0.058	0.155
-341.362	120.097	-0.140	-0.174
-340.348	-57.271	-0.113	0.050
-339.333	16.654	0.070	0.055
-338.318	41.969	-0.116	0.106
-337.304	-200.000	0.002	0.031
-336.289	-14.426	0.062	0.040
-335.275	-200.000	-0.019	0.162
-334.260	131.650	-0.131	-0.169
-333.245	-44.267	-0.148	0.074
-332.231	59.015	-0.115	0.114
-331.216	800.000	0.055	-0.162
-330.202	800.000	0.111	0.327
-329.187	129.943	-0.112	0.144
-328.172	65.427	-0.224	0.227
-327.158	800.000	-0.067	0.255
-326.143	-51.791	0.152	-0.071
-325.129	-200.000	-0.004	0.022
-324.114	374.005	0.027	0.055
-323.099	351.519	-0.222	0.441
-322.085	-103.284	-0.048	-0.011
-321.070	187.759	0.166	0.248
-320.056	70.910	0.290	-0.301
-319.041	233.865	0.127	0.210
-318.026	135.379	0.197	0.257
-317.012	165.641	-0.074	-0.105
-315.997	-200.000	-0.001	-0.251
-314.983	-82.283	-0.139	-0.045
-313.968	-32.849	-0.124	-0.069
-312.953	31.864	-0.226	-0.195
-311.939	27.040	0.155	-0.130
-310.924	-17.911	0.363	0.228
-309.910	800.000	0.058	0.211
-308.895	-87.638	-0.102	0.031
-307.880	-43.645	0.230	0.116
-306.866	20.195	-0.170	0.137
-305.851	-200.000	-0.060	0.265
-304.837	198.731	-0.019	-0.029
-303.822	34.339	0.104	0.091
-302.807	-5.217	0.161	0.111
-301.793	-179.405	-0.248	0.005
-300.778	-200.000	0.001	0.188
-299.764	-11.391	-0.244	0.161
-298.749	800.000	0.039	-0.147
-297.735	7.306	-0.292	-0.218
-296.720	-200.000	-0.043	0.224
-295.705	38.512	0.252	0.225
-294.691	-16.261	-0.143	-0.091
-293.676	233.001	-0.106	-0.174
-292.662	123.678	0.402	-0.504
-291.647	200.673	0.253	-0.389
-290.632	265.690	-0.128	0.224
-289.618	110.457	-0.014	-0.017
-288.603	-140.395	0.156	-0.016
-287.589	-91.648	-0.144	0.041
-286.574	-200.000	0.023	0.223
-285.559	323.073	0.033	-0.063
-284.545	800.000	-0.058	-0.243
-283.530	10.189	0.164	-0.125
-282.516	-24.259	-0.088	0.052
-281.501	102.911	-0.089	-0.105
-280.486	-136.830	-0.181	0.021
-279.472	261.786	0.113	-0.196
-278.457	147.098	-0.259	-0.348
-277.443	515.616	0.084	-0.196
-276.428	128.809	-0.213	-0.272
-275.413	-97.843	0.286	0.074
-274.399	-200.000	-0.030	0.190
-273.384	-200.000	-0.040	0.289
-272.370	108.982	-0.009	0.011
-271.355	175.679	-0.160	-0.232
-270.340	39.610	-0.067	0.060
-269.326	800.000	-0.030	0.097
-268.311	-38.633	0.158	0.083
-267.297	-44.714	-0.061	-0.030
-266.282	-78.257	0.386	0.133
-265.267	-200.000	0.015	0.335
-264.253	17.884	-0.292	0.232
-263.238	374.778	0.100	-0.204
-262.224	800.000	-0.033	0.109
-261.209	-41.023	-0.253	0.131
-260.195	-200.000	0.021	-0.150
-259.180	-183.521	-0.422	-0.007
-258.165	-146.769	-0.147	0.013
-257.151	-90.996	-0.047	0.014
-256.136	800.000	-0.016	-0.057
-255.122	69.420	-0.104	0.107
-254.107	-88.125	-0.378	-0.113
-253.092	-200.000	-0.036	-0.206
-252.078	-72.735	-0.234	0.086
-251.063	58.200	0.176	0.173
-250.049	97.721	-0.261	0.300
-249.034	-200.000	0.008	0.278
-248.019	-102.908	-0.297	-0.071
-247.005	55.790	-0.102	-0.099
-245.990	800.000	0.114	-0.373
-244.976	409.677	0.074	0.157
-243.961	-142.835	0.213	-0.021
-242.946	54.657	-0.125	0.120
-241.932	800.000	0.021	0.063
-240.917	7.483	-0.273	0.204
-239.903	-200.000	-0.045	0.202
-238.888	249.146	0.055	0.094
-237.873	358.229	0.089	0.177
-236.859	208.302	-0.039	-0.061
-235.844	-115.943	-0.215	-0.040
-234.830	97.708	0.082	-0.094
-233.815	364.549	0.103	0.208
-232.800	280.151	-0.026	0.046
-231.786	767.985	-0.081	-0.221
-230.771	800.000	0.043	-0.137
-229.757	-78.209	0.235	-0.080
-228.742	-200.000	-0.017	-0.159
-227.727	-53.930	-0.262	-0.119
-226.713	-200.000	-0.065	0.357
-225.698	-160.731	0.136	0.007
-224.684	47.773	-0.100	-0.093
-223.669	-88.770	0.170	0.050
-222.655	72.952	0.270	0.281
-221.640	-77.462	0.291	-0.101
-220.625	51.626	-0.188	0.178
-219.611	-200.000	-0.021	-0.151
-218.596	-200.000	0.005	0.191
-217.582	390.194	-0.106	-0.219
-216.567	-200.000	0.074	-0.343
-215.552	49.411	-0.185	-0.174
-214.538	-162.981	0.138	0.007
-213.523	-200.000	-0.126	0.000
-212.509	800.000	-0.042	-0.125
-211.494	444.504	-0.112	0.246
-210.479	184.006	0.079	-0.116
-209.465	-123.871	0.166	0.026
-208.450	52.727	0.031	-0.030
-207.436	-200.000	0.001	-0.072
-206.421	-200.000	0.030	0.517
-205.406	368.088	0.139	-0.280
-204.392	800.000	-0.042	-0.117
-203.377	-200.000	-0.006	-0.270
-202.363	800.000	-0.073	-0.263
-201.348	9.171	0.155	0.116
-200.333	-70.040	-0.201	0.076
-199.319	-12.762	-0.058	-0.038
-198.304	11.731	-0.083	-0.064
-197.290	-200.000	-0.003	-0.130
-196.275	-200.000	0.069	-0.320
-195.260	226.215	-0.067	0.109
-194.246	-93.309	0.164	-0.045
-193.231	410.136	-0.101	0.214
-192.217	-200.000	0.037	0.248
-191.202	-118.895	-0.053	-0.009
-190.187	134.632	-0.049	0.063
-189.173	-43.510	-0.375	0.189
-188.158	49.918	0.108	0.102
-187.144	-71.185	-0.056	-0.021
-186.129	117.393	-0.079	0.097
-185.114	105.612	0.149	0.176
-184.100	-115.154	-0.328	-0.062
-183.085	3.111	-0.274	-0.198
-182.071	-185.758	0.247	0.004
-181.056	-146.116	0.254	0.022
-180.042	11.604	0.036	0.028
-179.027	-200.000	-0.024	-0.537
-178.012	-110.984	0.279	0.057
-176.998	800.000	0.053	0.204
-175.983	268.257	0.085	-0.149
-174.969	613.467	-0.028	0.070
-173.954	800.000	0.054	-0.169
-172.939	-99.067	0.297	0.075
-171.925	12.537	0.147	0.113
-170.910	-76.277	0.072	0.025
-169.896	123.571	-0.094	0.117
-168.881	148.240	0.150	-0.202
-167.866	592.628	-0.072	0.177
-166.852	169.487	-0.152	-0.216
-165.837	800.000	-0.177	0.506
-164.823	-33.151	0.092	0.051
-163.808	89.896	-0.057	0.063
-162.793	-200.000	-0.026	0.150
-161.779	-200.000	0.040	-0.187
-160.764	-135.911	0.265	0.031
-159.750	-56.483	0.198	-0.087
-158.735	202.510	-0.106	-0.163
-157.720	204.572	-0.125	-0.193
-156.706	-159.830	0.349	-0.019
-155.691	35.163	-0.026	0.022
-154.677	-200.000	0.024	-0.257
-153.662	-136.497	-0.207	-0.024
-152.647	800.000	0.040	-0.174
-151.633	-124.191	0.227	0.035
-150.618	-115.553	0.226	0.042
-149.604	-10.833	0.329	0.216
-148.589	-55.904	0.345	0.153
-147.574	115.732	-0.106	-0.129
-146.560	-200.000	0.022	-0.310
-145.545	275.104	0.096	0.170
-144.531	800.000	0.021	-0.060
-143.516	53.301	-0.237	-0.226
-142.502	125.539	0.141	0.177
-141.487	175.899	-0.067	0.097
-140.472	800.000	0.066	-0.222
-139.458	-112.239	-0.280	-0.056
-138.443	138.613	-0.177	-0.231
-137.429	-62.535	0.054	-0.022
-136.414	-200.000	0.013	-0.320
-135.399	320.541	0.053	-0.100
-134.385	350.187	0.124	0.243
-133.370	29.094	0.371	0.313
-132.356	88.557	0.109	0.120
-131.341	128.245	0.186	0.235
-130.326	50.405	0.244	-0.230
-129.312	275.130	-0.145	0.256
-128.297	14.176	-0.195	0.151
-127.283	-143.713	0.441	-0.042
-126.268	-164.561	-0.080	0.004
-125.253	800.000	0.007	-0.032
-124.239	530.217	-0.201	0.471
-123.224	18.349	-0.206	0.164
-122.210	-26.332	0.028	0.016
-121.195	112.766	0.240	-0.288
-120.180	-124.380	0.192	-0.030
-119.166	-149.357	-0.244	-0.019
-118.151	167.577	0.146	0.207
-117.137	-9.054	0.173	-0.115
-116.122	348.340	0.164	0.321
-115.107	553.487	0.147	0.351
-114.093	173.016	0.169	-0.242
-113.078	443.833	0.035	-0.076
-112.064	40.140	-0.259	-0.231
-111.049	-200.000	-0.037	-0.203
-110.034	102.063	-0.163	0.190
-109.020	-200.000	-0.042	-0.255
-108.005	-5.300	-0.221	-0.151
-106.991	-200.000	-0.006	-0.239
-105.976	-137.125	0.252	-0.029
-104.962	45.199	0.076	0.069
-103.947	-200.000	0.017	0.153
-102.932	-48.576	0.300	-0.143
-101.918	5.962	0.147	-0.108
-100.903	-104.415	0.304	0.070
-99.889	-23.628	-0.108	-0.064
-98.874	220.606	0.191	0.305
-97.859	-200.000	-0.013	-0.145
-96.845	-119.870	0.359	-0.061
-95.830	23.602	0.299	0.244
-94.816	-80.430	-0.378	0.125
-93.801	-175.852	-0.299	0.008
-92.786	800.000	0.064	-0.192
-91.772	165.776	0.051	0.072
-90.757	-124.440	0.282	0.044
-89.743	-96.326	-0.170	0.045
-88.728	-16.710	-0.295	0.185
-87.713	216.812	0.250	0.394
-86.699	-200.000	0.022	-0.191
-85.684	143.718	0.074	0.098
-84.670	269.796	0.073	0.127
-83.655	41.416	0.262	0.235
-82.640	-22.340	-0.318	-0.191
-81.626	-83.135	0.432	-0.138
-80.611	637.575	-0.058	0.145
-79.597	800.000	0.094	-0.279
-78.582	-200.000	0.005	0.041
-77.567	-98.714	-0.330	-0.083
-76.553	800.000	0.035	-0.110
-75.538	200.754	0.084	0.128
-74.524	46.041	0.103	-0.095
-73.509	-118.800	0.064	-0.011
-72.494	29.277	0.089	-0.075
-71.480	31.562	0.313	0.267
-70.465	-200.000	-0.039	0.205
-69.451	-200.000	-0.027	0.225
-68.436	243.405	0.096	-0.159
-67.422	-150.642	-0.183	0.014
-66.407	-15.574	-0.123	-0.078
-65.392	-158.230	0.473	-0.027
-64.378	-70.967	0.116	0.043
-63.363	424.295	-0.153	0.326
-62.349	41.220	-0.080	0.072
-61.334	112.994	-0.697	-0.838
-60.319	800.000	0.212	0.585
-59.305	800.000	-0.248	-0.685
-58.290	230.944	0.491	0.796
-57.276	664.138	0.620	1.586
-56.261	-200.000	93.249	517.453
-55.246	563.990	1370.862	3291.402
-54.232	184.713	2612.281	3838.341
-53.217	115.731	2226.070	2698.696
-52.203	44.843	1757.477	1603.062
-51.188	37.937	1565.465	1379.251
-50.173	35.458	1537.971	1337.722
-49.159	52.318	1588.402	1501.528
-48.144	55.744	1606.579	1542.969
-47.130	38.162	1562.597	1378.092
-46.115	35.060	1546.536	1342.166
-45.100	34.886	1543.550	1338.304
-44.086	34.871	1541.506	1336.377
-43.071	34.763	1539.711	1334.009
-42.057	34.713	1537.955	1332.089
-41.042	34.682	1536.714	1330.743
-40.027	34.758	1535.011	1329.749
-39.013	34.824	1533.929	1329.212
-37.998	34.763	1532.389	1327.406
-36.984	34.746	1531.160	1326.170
-35.969	34.867	1529.524	1325.541
-34.954	34.864	1528.136	1324.261
-33.940	34.789	1527.026	1322.730
-32.925	34.847	1525.172	1321.467
-31.911	34.813	1524.125	1320.277
-30.896	34.943	1522.726	1319.911
-29.881	34.940	1521.039	1318.376
-28.867	34.895	1520.252	1317.326
-27.852	34.826	1518.650	1315.412
-26.838	34.889	1516.944	1314.319
-25.823	34.850	1515.931	1313.119
-24.809	34.854	1513.968	1311.393
-23.794	34.844	1512.444	1309.956
-22.779	34.854	1511.726	1309.351
-21.765	34.829	1510.770	1308.295
-20.750	34.815	1509.018	1306.633
-19.736	34.899	1507.612	1305.934
-18.721	34.875	1506.902	1305.104
-17.706	34.859	1505.787	1303.983
-16.692	34.764	1504.583	1302.235
-15.677	34.861	1503.291	1301.727
-14.663	34.808	1502.372	1300.522
-13.648	34.750	1501.665	1299.462
-12.633	34.746	1500.500	1298.376
-11.619	34.717	1499.873	1297.582
-10.604	34.821	1498.299	1296.877
-9.590	34.836	1497.553	1296.281
-8.575	34.749	1497.095	1295.241
-7.560	34.686	1496.549	1294.291
-6.546	34.728	1495.300	1293.445
-5.531	34.704	1495.187	1293.133
-4.517	34.765	1493.478	1292.020
-3.502	34.727	1492.829	1291.148
-2.487	34.819	1491.338	1290.430
-1.473	34.772	1490.612	1289.435
-0.458	34.747	1489.190	1287.984
0.556	33.113	1479.570	1278.174
1.571	30.522	1452.830	1237.731
2.586	27.443	1390.016	1164.460
3.600	26.006	1306.651	1085.879
4.615	24.478	1259.258	1037.531
5.629	20.043	1199.961	963.965
6.644	9.199	1109.288	834.968
7.659	1.283	1065.755	762.480
8.673	0.280	1060.110	753.362
9.688	0.115	1057.359	750.518
10.702	0.009	1055.274	748.442
11.717	-0.004	1053.670	747.175
12.731	3.622	1058.050	768.286
13.746	13.706	1073.243	829.943
14.761	20.763	1082.173	872.261
15.775	21.986	1082.528	878.595
16.790	22.092	1081.851	878.495
17.804	21.840	1081.030	876.494
18.819	21.726	1080.444	875.370
19.834	21.824	1079.735	875.208
20.848	21.897	1079.363	875.193
21.863	21.916	1079.432	875.268
22.877	21.906	1078.883	874.691
23.892	21.711	1078.051	872.972
24.907	21.778	1077.040	872.408
25.921	21.886	1076.513	872.440
26.936	21.784	1075.862	871.331
27.950	21.850	1074.164	870.204
28.965	21.774	1073.059	868.855
29.980	21.719	1071.529	867.267
30.994	21.634	1070.293	865.769
32.009	21.845	1069.715	866.267
33.023	21.932	1069.179	866.189
34.038	21.720	1068.012	864.122
35.053	21.753	1066.734	863.170
36.067	21.851	1066.555	863.432
37.082	21.750	1065.529	862.030
38.096	21.975	1065.036	862.660
39.111	22.075	1064.516	862.656
40.126	22.167	1063.655	862.333
41.140	21.986	1062.321	860.288
42.155	21.806	1060.246	857.647
43.169	21.530	1059.911	855.954
44.184	21.472	1058.397	854.369
45.199	21.470	1057.653	853.686
46.213	21.479	1056.211	852.490
47.228	21.458	1055.624	851.840
48.242	21.623	1054.086	851.325
49.257	21.651	1053.812	851.165
50.271	21.807	1053.089	851.263
51.286	21.908	1052.224	850.976
52.301	21.891	1051.174	849.969
53.315	21.848	1051.291	849.779
54.330	21.882	1049.904	848.750
55.344	21.813	1049.320	847.869
56.359	21.838	1048.446	847.211
57.374	21.750	1047.685	846.093
58.388	21.721	1046.661	845.054
59.403	21.761	1045.426	844.174
60.417	21.591	1045.319	843.193
61.432	21.486	1044.151	841.672
62.447	21.431	1043.821	841.064
63.461	21.668	1042.598	841.145
64.476	21.657	1042.138	840.647
65.490	21.658	1041.344	839.938
66.505	21.554	1040.094	838.357
67.520	21.696	1039.027	838.101
68.534	21.677	1038.942	837.865
69.549	21.413	1037.936	835.722
70.563	21.283	1036.689	834.023
71.578	21.191	1035.744	832.747
72.593	21.138	1035.055	831.866
73.607	21.099	1033.508	830.367
74.622	20.984	1032.875	829.235
75.636	21.310	1032.421	830.350
76.651	21.383	1031.326	829.741
77.666	21.331	1030.770	828.971
78.680	21.297	1029.420	827.653
79.695	21.281	1029.216	827.339
80.709	21.405	1028.272	827.095
81.724	21.530	1027.202	826.754
82.739	21.449	1026.592	825.804
83.753	21.386	1026.179	825.100
84.768	21.695	1025.279	825.763
85.782	21.926	1024.920	826.489
86.797	22.163	1023.901	826.707
87.812	22.099	1022.932	825.551
88.826	22.012	1022.043	824.353
89.841	21.952	1021.575	823.622
90.855	22.179	1020.067	823.395
91.870	22.073	1019.778	822.595
92.884	22.135	1018.847	822.058
93.899	21.953	1018.167	820.590
94.914	21.866	1016.582	818.833
95.928	21.982	1016.240	819.027
96.943	22.203	1014.854	818.866
97.957	21.642	1014.361	815.782
98.972	21.592	1012.789	814.212
99.987	21.596	1011.423	813.064
101.001	21.530	1011.278	812.568
102.016	21.787	1010.400	812.981
103.030	21.753	1009.860	812.315
104.045	21.661	1008.855	811.013
105.060	21.630	1007.583	809.774
106.074	21.424	1005.918	807.412
107.089	21.426	1004.998	806.611
108.103	21.868	1004.863	808.471
109.118	22.024	1004.280	808.650
110.133	21.590	1002.794	805.384
111.147	21.572	1001.727	804.371
112.162	21.488	1000.764	803.143
113.176	21.194	999.699	800.872
114.191	21.483	998.290	800.995
115.206	21.457	997.483	800.155
116.220	21.165	996.543	797.998
117.235	21.002	995.846	796.621
118.249	21.333	994.409	796.914
119.264	21.324	993.631	796.177
120.279	21.168	993.581	795.355
121.293	21.154	992.627	794.457
122.308	21.216	992.018	794.182
123.322	21.313	990.796	793.576
124.337	21.414	989.569	792.978
125.352	21.097	988.398	790.538
126.366	20.756	987.064	787.858
127.381	20.660	985.113	785.797
128.395	20.891	985.340	786.952
129.410	21.687	985.166	790.337
130.424	21.724	984.383	789.804
131.439	21.883	983.216	789.514
132.454	21.641	982.593	787.853
133.468	21.641	981.411	786.834
134.483	21.674	980.759	786.393
135.497	21.593	980.098	785.427
136.512	21.915	979.486	786.313
137.527	21.946	978.422	785.527
138.541	21.955	977.719	784.935
139.556	22.108	976.731	784.754
140.570	21.943	976.480	783.749
141.585	21.882	975.720	782.794
142.600	22.113	974.446	782.735
143.614	21.946	973.711	781.330
144.629	22.069	972.825	781.096
145.643	22.337	972.386	781.867
146.658	22.171	971.070	780.002
147.673	21.943	969.502	777.664
148.687	21.806	968.617	776.281
149.702	21.783	967.879	775.516
150.716	21.783	966.606	774.430
151.731	21.680	965.710	773.186
152.746	21.838	964.858	773.133
153.760	22.022	964.129	773.293
154.775	22.018	963.520	772.719
155.789	22.199	962.629	772.728
156.804	22.109	962.036	771.789
157.819	22.055	960.566	770.307
158.833	22.040	959.721	769.493
159.848	22.189	959.332	769.765
160.862	22.278	958.449	769.378
161.877	22.106	957.448	767.757
162.892	22.057	956.476	766.695
163.906	22.094	955.568	766.061
164.921	22.147	954.676	765.509
165.935	22.055	953.397	764.014
166.950	22.157	952.619	763.769
167.964	22.266	951.564	763.325
168.979	22.069	950.702	761.714
169.994	21.933	949.717	760.270
171.008	21.785	948.976	758.967
172.023	22.021	948.099	759.218
173.037	22.230	946.981	759.157
174.052	21.966	945.992	757.161
175.067	21.834	944.833	755.595
176.081	21.788	944.103	754.749
177.096	21.850	943.783	754.694
178.110	21.756	942.670	753.330
179.125	21.558	942.048	751.916
180.140	21.419	940.386	749.927
181.154	21.414	939.637	749.243
182.169	21.572	939.129	749.450
183.183	21.847	939.029	750.477
184.198	22.114	938.159	750.858
185.213	21.988	937.610	749.816
186.227	21.994	936.857	749.172
187.242	22.020	936.622	749.027
188.256	21.964	935.880	748.131
189.271	22.060	934.701	747.532
190.286	22.313	933.542	747.615
191.300	22.154	933.229	746.621
192.315	21.436	931.846	742.400
193.329	20.839	930.149	738.455
194.344	20.476	928.840	735.810
195.359	21.015	929.444	738.509
196.373	21.817	929.511	741.893
197.388	21.987	929.273	742.355
198.402	22.098	928.380	742.046
199.417	22.021	927.641	741.061
200.432	21.918	927.883	740.756
201.446	21.791	926.890	739.363
202.461	21.501	926.075	737.425
203.475	21.638	925.623	737.575
204.490	21.289	923.869	734.646
205.504	20.171	921.607	728.090
206.519	20.457	921.779	729.364
207.534	21.420	922.336	733.781
208.548	21.497	921.486	733.363
209.563	21.845	921.612	734.856
210.577	21.972	920.582	734.501
211.592	21.625	919.725	732.303
212.607	22.021	920.045	734.149
213.621	22.266	919.015	734.286
214.636	22.098	918.407	733.034
215.650	22.103	918.066	732.718
216.665	22.154	917.044	732.051
217.680	22.170	916.790	731.850
218.694	22.167	916.267	731.355
219.709	21.822	915.419	729.178
220.723	21.508	914.264	726.890
221.738	21.698	913.836	727.273
222.753	21.907	913.433	727.756
223.767	21.920	912.484	726.987
224.782	22.041	911.922	726.976
225.796	22.100	911.056	726.467
226.811	22.299	910.413	726.711
227.826	21.926	909.232	724.167
228.840	21.086	907.843	719.533
229.855	20.953	907.585	718.717
230.869	21.215	907.185	719.415
231.884	21.015	906.131	717.694
232.899	21.043	905.284	717.075
233.913	21.892	905.659	720.796
234.928	21.965	905.160	720.637
235.942	21.855	904.537	719.625
236.957	22.053	903.199	719.309
237.972	21.631	902.445	716.917
238.986	21.571	901.736	716.044
240.001	21.652	901.242	715.922
241.015	21.659	901.188	715.842
242.030	21.753	900.558	715.662
243.045	21.918	899.593	715.508
244.059	21.917	899.396	715.280
245.074	21.972	899.104	715.211
246.088	22.091	897.951	714.714
247.103	21.690	897.266	712.474
248.117	21.728	896.516	711.970
249.132	22.273	896.600	714.189
250.147	22.538	896.295	714.956
251.161	22.631	895.519	714.653
252.176	22.727	895.283	714.791
253.190	22.807	894.276	714.244
254.205	22.653	894.293	713.574
255.220	23.074	893.348	714.459
256.234	23.002	892.677	713.565
257.249	22.906	892.122	712.673
258.263	22.660	891.364	711.014
259.278	22.750	890.678	710.765
260.293	22.892	890.449	711.089
261.307	23.001	889.636	710.819
262.322	22.865	888.990	709.692
263.336	22.711	888.396	708.535
264.351	22.180	886.835	705.097
265.366	21.048	885.090	699.114
266.380	20.633	884.101	696.611
267.395	21.640	884.220	700.675
268.409	22.410	884.281	703.740
269.424	22.371	883.790	703.130
270.439	22.636	883.062	703.547
271.453	22.609	882.835	703.195
272.468	22.726	881.697	702.692
273.482	22.816	881.693	702.986
274.497	22.999	881.105	703.182
275.512	22.647	880.348	701.115
276.526	22.202	878.602	697.897
277.541	22.447	878.126	698.433
278.555	22.722	878.302	699.601
279.570	22.596	877.537	698.431
280.585	22.264	876.581	696.291
281.599	22.364	876.068	696.218
282.614	22.593	875.554	696.655
283.628	22.086	874.595	693.827
284.643	21.664	873.599	691.309
285.657	22.278	873.336	693.461
286.672	22.049	873.103	692.313
287.687	21.565	871.830	689.337
288.701	21.964	871.599	690.665
289.716	22.354	871.523	692.076
290.730	21.964	870.727	689.853
291.745	22.002	869.699	689.125
292.760	21.699	868.736	687.115
293.774	21.581	868.282	686.231
294.789	22.581	868.728	690.440
295.803	23.045	869.145	692.529
296.818	23.103	868.183	691.928
297.833	23.268	867.838	692.239
298.847	22.941	866.811	690.079
299.862	22.816	865.539	688.518
300.876	22.762	865.699	688.375
301.891	23.143	864.667	688.979
302.906	23.260	864.196	688.996
303.920	22.783	862.827	685.992
304.935	22.510	862.557	684.656
305.949	23.004	862.147	686.188
306.964	23.220	861.701	686.610
307.979	22.937	861.214	685.062
308.993	22.846	860.413	684.014
310.008	23.133	860.381	685.039
311.022	23.421	860.147	685.908
312.037	23.118	859.287	683.987
313.052	22.930	858.436	682.524
314.066	22.820	857.928	681.634
315.081	22.291	856.359	678.288
316.095	21.467	854.866	673.873
317.110	21.936	855.416	676.054
318.125	22.959	855.346	679.877
319.139	22.480	854.325	677.164
320.154	21.304	852.635	671.249
321.168	20.927	851.660	668.978
322.183	21.334	852.123	670.845
323.197	22.212	852.906	674.773
324.212	22.637	851.922	675.562
325.227	22.896	851.494	676.156
326.241	22.907	851.459	676.110
327.256	22.981	850.413	675.502
328.270	22.723	849.981	674.114
329.285	22.599	849.069	672.856
330.300	22.555	848.253	671.985
331.314	22.345	847.559	670.572
332.329	22.485	847.342	670.877
333.343	22.817	846.885	671.720
334.358	23.047	846.380	672.133
335.373	23.073	845.861	671.760
336.387	23.135	845.042	671.286
337.402	23.242	844.986	671.588
338.416	23.482	844.300	671.894
339.431	23.514	843.740	671.510
340.446	23.362	843.221	670.462
341.460	23.675	842.716	671.185
342.475	23.596	842.170	670.392
343.489	23.357	841.435	668.846
344.504	23.374	840.817	668.358
345.519	23.569	840.670	668.918
346.533	23.847	840.267	669.586
347.548	23.816	839.907	669.123
348.562	23.900	839.177	668.797
349.577	23.713	838.614	667.585
350.592	23.711	838.269	667.244
351.606	23.638	837.822	666.555
352.621	23.705	837.332	666.358
353.635	23.692	836.586	665.659
354.650	23.667	835.760	664.847
355.665	23.194	834.983	662.401
356.679	22.264	833.233	657.481
357.694	22.151	832.852	656.699
358.708	22.881	832.457	659.052
359.723	22.613	832.352	657.911
360.738	22.911	831.860	658.576
361.752	23.278	832.009	660.003
362.767	23.435	831.531	660.150
363.781	23.755	831.116	660.952
364.796	24.026	831.291	662.045
365.810	24.024	831.008	661.750
366.825	24.100	830.425	661.510
367.840	24.283	830.069	661.848
368.854	24.121	829.024	660.357
369.869	23.649	828.578	658.192
370.883	23.313	827.778	656.254
371.898	23.639	827.091	656.860
372.913	23.492	826.310	655.637
373.927	23.406	825.680	654.760
374.942	23.602	824.777	654.712
375.956	23.688	824.775	654.968
376.971	23.691	824.394	654.619
377.986	23.932	823.799	654.975
379.000	24.102	823.342	655.179
380.015	24.127	822.861	654.830
381.029	24.002	822.309	653.874
382.044	24.007	821.754	653.395
383.059	24.190	820.887	653.316
384.073	23.989	820.904	652.536
385.088	24.138	820.089	652.378
386.102	24.148	819.426	651.828
387.117	23.938	818.909	650.592
388.132	23.818	818.207	649.536
389.146	23.684	817.414	648.360
390.161	23.147	816.609	645.707
391.175	23.133	816.135	645.223
392.190	23.759	816.584	647.804
393.205	23.663	816.200	647.094
394.219	22.805	813.565	641.829
395.234	21.362	811.460	634.872
396.248	20.374	810.608	630.564
397.263	21.554	811.446	635.448
398.278	23.366	812.800	643.035
399.292	23.959	812.680	645.034
400.307	23.445	812.231	642.756
401.321	23.338	811.474	641.714
402.336	23.608	810.946	642.217
403.350	23.855	811.090	643.166
404.365	24.176	811.076	644.258
405.380	24.475	810.737	645.015
406.394	24.684	810.692	645.676
407.409	24.803	810.275	645.715
408.423	24.752	809.779	645.079
409.438	24.782	808.802	644.352
410.453	24.747	808.707	644.093
411.467	24.798	807.967	643.631
412.482	24.860	807.422	643.363
413.496	24.775	806.746	642.463
414.511	24.702	807.143	642.460
415.526	24.743	806.905	642.358
416.540	24.783	806.097	641.805
417.555	24.781	805.443	641.217
418.569	24.533	804.662	639.653
419.584	24.446	804.077	638.819
420.599	24.547	803.787	638.895
421.613	152.791	1364.547	1791.408
422.628	132.588	1446.258	1791.516
