DTS Sentinel unit serial number:	SN413079Multiplexer serial number:	ORYXHardware model number:	OX4-SRSoftware version number:	ORYX F/W v4.00 Oryx Data Collector v3.7.2.0data status	okinstallation	princeton_trtdifferential loss correction	single-endedforward channel	channel 3reverse channel	N/Adate	2019/09/11time	06:14:11forward acquisition time	60.00reverse acquisition time	0.00gamma	496.2192k internal	0.2331k external	0.2331temperature offset calibration	0.9902default loss term (dB/km)	0.3790temperature slope calibration	1.0000multiplexer offset coefficient	1.0000multiplexer slope coefficient	1.0000fibre end	0.00T internal ref (°C)	29.50T ext. ref 1 (°C)	-0.22T ext. ref 2 (°C)	23.77length (m)	temperature (°C)	Stokes	anti-Stokes-747.200	80.326	0.024	0.026
-746.185	800.000	-0.112	0.462
-745.171	-200.000	-0.001	-0.329
-744.156	45.056	-0.035	0.032
-743.142	800.000	-0.078	0.287
-742.127	41.744	-0.109	-0.100
-741.112	-94.261	0.452	-0.124
-740.098	-61.597	-0.258	0.109
-739.083	19.802	0.174	0.141
-738.069	-172.911	0.184	-0.006
-737.054	-146.912	0.183	0.016
-736.039	-200.000	-0.047	0.276
-735.025	-200.000	-0.018	-0.113
-734.010	-59.370	-0.210	-0.091
-732.996	66.225	-0.291	0.297
-731.981	12.067	0.081	-0.062
-730.966	89.370	0.086	-0.097
-729.952	-200.000	0.056	-0.267
-728.937	-72.688	0.545	-0.202
-727.923	166.938	0.185	-0.264
-726.908	-12.343	-0.340	-0.224
-725.894	-200.000	-0.035	-0.244
-724.879	476.707	0.128	-0.290
-723.864	-70.954	-0.055	-0.021
-722.850	-84.642	-0.145	0.046
-721.835	170.012	0.119	-0.171
-720.821	-49.229	-0.213	0.102
-719.806	800.000	-0.084	0.254
-718.791	774.832	0.048	-0.132
-717.777	-76.638	0.134	-0.047
-716.762	550.857	0.045	0.108
-715.748	666.297	-0.072	-0.187
-714.733	699.909	-0.036	0.096
-713.718	-200.000	-0.057	-0.286
-712.704	-200.000	0.061	-0.290
-711.689	312.471	0.092	-0.173
-710.675	-200.000	-0.148	-0.001
-709.660	359.449	-0.172	-0.346
-708.645	800.000	-0.028	-0.085
-707.631	-190.846	-0.247	-0.003
-706.616	-200.000	-0.064	0.295
-705.602	-107.875	-0.122	0.027
-704.587	-150.895	0.360	-0.027
-703.572	193.814	-0.180	0.274
-702.558	22.823	0.051	0.042
-701.543	-161.049	-0.227	-0.012
-700.529	248.714	0.055	0.094
-699.514	568.108	-0.064	-0.156
-698.499	-108.075	-0.109	-0.024
-697.485	-0.519	-0.428	-0.305
-696.470	106.339	0.073	0.087
-695.456	-76.585	0.132	-0.047
-694.441	-7.856	-0.123	0.083
-693.426	-200.000	-0.003	0.022
-692.412	-200.000	-0.053	-0.422
-691.397	-200.000	0.022	-0.333
-690.383	-123.692	-0.299	0.048
-689.368	-123.760	-0.106	0.017
-688.354	-119.648	0.323	0.056
-687.339	408.382	0.093	-0.198
-686.324	380.696	0.088	-0.181
-685.310	38.864	-0.298	-0.267
-684.295	107.502	0.035	-0.041
-683.281	89.176	-0.096	0.108
-682.266	-67.862	0.309	-0.121
-681.251	-143.708	0.233	-0.022
-680.237	-131.854	-0.141	0.018
-679.222	86.752	-0.135	-0.149
-678.208	-85.957	0.051	-0.016
-677.193	7.704	0.067	-0.050
-676.178	461.334	0.130	0.291
-675.164	-50.917	0.052	0.025
-674.149	-76.808	0.119	-0.042
-673.135	9.752	-0.228	0.174
-672.120	126.643	0.053	0.067
-671.105	-34.360	0.123	-0.068
-670.091	455.235	0.130	-0.288
-669.076	515.621	0.101	-0.236
-668.062	49.520	0.114	-0.108
-667.047	373.473	0.167	-0.342
-666.032	60.373	-0.125	-0.124
-665.018	593.856	-0.025	0.062
-664.003	800.000	0.034	-0.130
-662.989	-200.000	-0.072	-0.357
-661.974	-17.378	0.146	-0.092
-660.959	-20.841	-0.319	0.196
-659.945	181.973	0.138	-0.204
-658.930	-71.092	0.305	0.115
-657.916	485.558	-0.043	0.098
-656.901	-200.000	0.000	0.220
-655.886	-65.382	0.116	0.047
-654.872	36.967	0.368	-0.327
-653.857	254.679	-0.081	-0.138
-652.843	14.191	0.168	-0.131
-651.828	-115.013	0.107	-0.020
-650.814	159.693	-0.177	0.248
-649.799	560.018	0.092	-0.223
-648.784	100.549	0.048	0.055
-647.770	-200.000	0.002	0.267
-646.755	-144.530	-0.133	0.012
-645.741	-130.558	-0.433	-0.059
-644.726	127.117	0.140	-0.178
-643.711	-200.000	-0.027	0.192
-642.697	-200.000	0.023	0.150
-641.682	17.987	0.124	-0.099
-640.668	40.467	-0.253	-0.228
-639.653	123.145	-0.081	0.102
-638.638	-92.227	-0.144	0.041
-637.624	321.641	-0.122	0.233
-636.609	436.043	-0.141	0.307
-635.595	-73.072	-0.280	0.103
-634.580	-200.000	0.014	0.062
-633.565	-165.976	-0.314	0.013
-632.551	78.098	0.107	0.114
-631.536	-61.817	0.161	0.068
-630.522	781.283	-0.078	0.215
-629.507	800.000	-0.016	0.059
-628.492	-75.091	-0.204	-0.073
-627.478	-167.355	-0.186	0.008
-626.463	-171.435	0.256	-0.009
-625.449	228.210	0.224	-0.366
-624.434	6.324	0.216	0.161
-623.419	-83.338	-0.238	0.076
-622.405	101.752	-0.187	-0.218
-621.390	-140.461	-0.386	-0.040
-620.376	-74.978	0.084	-0.030
-619.361	189.278	0.116	-0.174
-618.346	800.000	-0.027	0.082
-617.332	308.033	0.094	-0.176
-616.317	171.744	0.181	-0.261
-615.303	-49.956	-0.319	-0.152
-614.288	38.103	0.157	0.140
-613.273	739.875	0.034	0.092
-612.259	188.561	-0.095	0.142
-611.244	70.228	0.090	0.093
-610.230	-167.585	-0.181	-0.007
-609.215	247.830	-0.057	0.097
-608.201	-56.677	-0.024	-0.010
-607.186	-64.214	-0.083	-0.034
-606.171	196.146	0.040	0.062
-605.157	-83.771	-0.225	-0.072
-604.142	130.113	-0.319	-0.409
-603.128	116.810	0.118	-0.145
-602.113	-200.000	0.000	-0.069
-601.098	-200.000	0.029	0.250
-600.084	344.352	-0.092	0.180
-599.069	34.494	0.199	-0.174
-598.055	800.000	0.088	0.273
-597.040	352.774	-0.106	-0.210
-596.025	51.036	0.125	0.119
-595.011	-22.184	-0.073	-0.044
-593.996	-53.560	0.129	0.059
-592.982	-200.000	0.052	0.317
-591.967	176.542	0.041	-0.060
-590.952	-200.000	0.029	0.320
-589.938	-67.994	-0.225	-0.088
-588.923	-68.492	0.046	0.018
-587.909	255.305	-0.089	0.153
-586.894	45.802	0.114	-0.105
-585.879	-200.000	0.016	0.116
-584.865	103.196	0.091	0.107
-583.850	-162.828	-0.220	0.011
-582.836	51.209	0.164	0.156
-581.821	67.417	0.222	-0.226
-580.806	-200.000	0.032	0.158
-579.792	793.529	0.118	-0.324
-578.777	-118.787	0.102	0.018
-577.763	-111.541	-0.277	-0.056
-576.748	-18.396	-0.197	-0.123
-575.733	-200.000	-0.015	0.194
-574.719	44.860	-0.074	-0.068
-573.704	647.408	-0.103	-0.263
-572.690	-42.443	-0.060	0.031
-571.675	-18.184	-0.247	0.154
-570.661	272.405	0.071	-0.124
-569.646	367.280	-0.076	0.153
-568.631	430.832	0.097	0.211
-567.617	-19.648	-0.134	-0.083
-566.602	163.674	0.125	0.176
-565.588	-145.961	-0.163	0.014
-564.573	800.000	-0.063	0.218
-563.558	-185.558	-0.397	-0.006
-562.544	191.033	0.139	0.209
-561.529	592.796	-0.111	0.274
-560.515	-71.746	0.091	-0.034
-559.500	-71.340	-0.302	0.113
-558.485	280.778	0.054	0.096
-557.471	126.401	-0.209	0.264
-556.456	-101.998	0.189	0.045
-555.442	800.000	0.050	-0.205
-554.427	-82.221	-0.128	0.042
-553.412	154.436	0.241	-0.331
-552.398	19.558	0.193	-0.155
-551.383	800.000	0.023	0.080
-550.369	248.070	-0.127	-0.214
-549.354	-156.057	0.301	0.019
-548.339	-42.045	-0.066	0.034
-547.325	112.192	-0.114	-0.137
-546.310	-51.703	-0.211	0.098
-545.296	-200.000	-0.063	-0.430
-544.281	225.935	-0.137	0.222
-543.266	-144.658	0.110	0.010
-542.252	-113.631	-0.197	0.038
-541.237	10.205	-0.265	-0.201
-540.223	800.000	-0.074	0.319
-539.208	225.640	0.085	0.137
-538.193	116.686	0.111	-0.136
-537.179	-200.000	0.019	0.149
-536.164	311.935	0.096	0.180
-535.150	534.718	0.033	-0.077
-534.135	-200.000	0.043	0.213
-533.121	-89.369	0.181	-0.053
-532.106	-87.455	-0.309	0.093
-531.091	-200.000	0.012	0.082
-530.077	-41.104	-0.042	-0.021
-529.062	-11.815	0.152	-0.100
-528.048	325.228	0.057	-0.109
-527.033	-91.192	0.209	0.060
-526.018	203.096	-0.152	-0.234
-525.004	-200.000	0.028	-0.195
-523.989	-188.057	0.236	-0.003
-522.975	-67.182	-0.235	0.092
-521.960	800.000	-0.113	0.318
-520.945	-24.222	0.365	0.217
-519.931	157.140	0.125	0.172
-518.916	-200.000	0.372	-0.001
-517.902	-84.683	0.152	0.048
-516.887	124.968	-0.076	0.095
-515.872	325.921	0.133	-0.254
-514.858	800.000	0.022	-0.087
-513.843	230.004	-0.053	-0.086
-512.829	-133.606	-0.276	-0.035
-511.814	-151.897	-0.350	-0.026
-510.799	57.698	0.246	-0.240
-509.785	-76.945	0.170	0.059
-508.770	-149.751	-0.098	-0.008
-507.756	558.720	-0.098	-0.237
-506.741	327.802	-0.064	-0.122
-505.726	-109.118	0.035	0.007
-504.712	800.000	-0.095	-0.275
-503.697	-28.884	-0.158	0.090
-502.683	102.443	0.053	0.061
-501.668	-23.130	-0.210	0.126
-500.653	-200.000	-0.028	0.431
-499.639	378.828	-0.052	0.106
-498.624	9.745	-0.161	0.121
-497.610	45.821	-0.274	0.253
-496.595	-200.000	0.051	0.474
-495.581	800.000	-0.087	0.345
-494.566	-200.000	-0.013	-0.073
-493.551	-200.000	0.008	0.076
-492.537	9.154	0.158	-0.119
-491.522	800.000	0.015	-0.050
-490.508	27.001	-0.139	0.116
-489.493	-104.725	0.222	-0.051
-488.478	287.501	-0.129	0.233
-487.464	340.379	0.102	0.199
-486.449	479.610	0.029	-0.065
-485.435	146.922	0.057	0.076
-484.420	10.599	0.049	0.037
-483.405	-44.516	0.113	0.056
-482.391	-96.442	0.119	0.031
-481.376	-166.109	0.163	0.007
-480.362	257.533	0.075	0.128
-479.347	800.000	-0.051	-0.169
-478.332	-119.384	0.306	0.053
-477.318	-104.464	0.174	-0.040
-476.303	245.779	0.111	0.186
-475.289	422.656	0.057	-0.123
-474.274	-97.892	-0.329	0.085
-473.259	-127.548	-0.263	0.038
-472.245	-39.158	0.135	-0.071
-471.230	-147.641	0.176	0.015
-470.216	236.896	0.065	0.107
-469.201	217.745	0.111	0.177
-468.186	-200.000	0.002	0.274
-467.172	-200.000	0.022	0.133
-466.157	-200.000	0.023	0.141
-465.143	-200.000	0.025	0.237
-464.128	-103.902	-0.082	-0.019
-463.113	23.786	-0.129	-0.106
-462.099	-75.155	-0.072	-0.025
-461.084	19.531	0.220	-0.176
-460.070	157.670	0.126	0.174
-459.055	-200.000	-0.048	-0.374
-458.040	800.000	0.068	-0.195
-457.026	35.706	-0.137	0.120
-456.011	-61.578	-0.274	0.115
-454.997	-125.305	-0.185	0.028
-453.982	-200.000	-0.028	0.191
-452.968	-107.582	0.151	-0.033
-451.953	-22.024	0.184	-0.111
-450.938	800.000	-0.019	-0.070
-449.924	19.839	0.210	-0.168
-448.909	-200.000	0.056	-0.290
-447.895	17.531	0.234	0.185
-446.880	16.587	-0.200	-0.157
-445.865	121.560	0.104	-0.130
-444.851	-200.000	0.000	0.206
-443.836	-3.113	0.333	-0.231
-442.822	122.996	-0.227	-0.282
-441.807	-63.979	0.299	0.122
-440.792	242.718	-0.049	0.081
-439.778	299.153	-0.225	0.413
-438.763	414.107	0.055	-0.117
-437.749	-86.082	-0.366	0.112
-436.734	-98.925	-0.252	0.064
-435.719	-200.000	-0.004	0.218
-434.705	-160.167	0.191	-0.010
-433.690	800.000	0.036	-0.147
-432.676	712.435	-0.073	-0.193
-431.661	-24.875	-0.220	-0.130
-430.646	81.530	0.208	0.224
-429.632	-88.118	0.153	-0.045
-428.617	0.863	-0.158	-0.113
-427.603	-200.000	0.058	-0.327
-426.588	151.084	0.192	-0.259
-425.573	654.677	0.126	0.323
-424.559	-135.623	-0.272	-0.032
-423.544	166.540	-0.110	-0.155
-422.530	-133.812	0.200	0.025
-421.515	800.000	0.108	-0.355
-420.500	66.980	-0.193	-0.195
-419.486	-200.000	0.028	-0.338
-418.471	-23.021	-0.207	-0.124
-417.457	-124.178	-0.066	-0.010
-416.442	60.563	-0.072	0.070
-415.428	-200.000	0.032	0.156
-414.413	-200.000	0.070	-0.392
-413.398	8.172	0.249	-0.186
-412.384	-146.318	0.033	-0.003
-411.369	-23.996	-0.200	0.119
-410.355	89.395	-0.292	-0.324
-409.340	74.421	0.145	-0.151
-408.325	-26.569	0.274	-0.159
-407.311	499.897	0.077	0.175
-406.296	77.296	0.250	0.264
-405.282	800.000	0.088	0.311
-404.267	-85.386	-0.097	0.030
-403.252	565.769	-0.075	0.181
-402.238	-93.297	0.330	-0.091
-401.223	-152.936	0.075	-0.005
-400.209	-189.868	-0.163	-0.002
-399.194	-26.480	-0.126	-0.073
-398.179	-151.987	0.196	0.014
-397.165	-160.487	0.258	-0.014
-396.150	-73.725	0.343	-0.124
-395.136	-56.276	0.110	-0.049
-394.121	-9.159	-0.286	-0.190
-393.106	-200.000	0.023	-0.172
-392.092	-44.132	0.309	-0.154
-391.077	-138.804	-0.157	-0.017
-390.063	-47.563	-0.304	-0.147
-389.048	-151.317	0.093	0.007
-388.033	-11.480	0.057	0.037
-387.019	-94.948	-0.269	0.072
-386.004	-117.058	-0.104	-0.019
-384.990	-200.000	0.003	0.078
-383.975	251.967	0.218	-0.368
-382.960	227.522	-0.088	-0.143
-381.946	404.602	0.080	0.167
-380.931	463.121	0.160	-0.353
-379.917	-200.000	-0.046	0.262
-378.902	800.000	-0.064	0.238
-377.888	-54.187	0.288	0.130
-376.873	40.092	-0.168	-0.150
-375.858	-132.218	-0.203	-0.026
-374.844	101.934	0.115	-0.133
-373.829	-200.000	-0.030	-0.291
-372.815	101.876	-0.263	0.304
-371.800	800.000	-0.013	0.040
-370.785	96.997	-0.161	0.183
-369.771	-195.610	0.172	-0.001
-368.756	-200.000	0.045	0.325
-367.742	186.999	0.057	-0.084
-366.727	57.519	0.097	0.094
-365.712	-8.831	-0.004	-0.003
-364.698	-116.490	0.388	0.071
-363.683	-41.555	-0.292	0.149
-362.669	-200.000	-0.026	-0.380
-361.654	-155.960	0.119	0.008
-360.639	-200.000	0.006	-0.116
-359.625	-187.591	-0.221	0.003
-358.610	20.913	0.230	0.185
-357.596	-7.750	-0.168	0.113
-356.581	-200.000	-0.014	-0.154
-355.566	33.678	-0.158	0.136
-354.552	-120.204	0.104	0.018
-353.537	43.415	0.142	0.129
-352.523	33.813	-0.188	0.162
-351.508	551.200	-0.087	0.208
-350.493	-200.000	0.005	-0.136
-349.479	442.856	-0.131	0.284
-348.464	800.000	0.030	0.101
-347.450	-12.442	0.232	0.150
-346.435	15.740	0.083	0.065
-345.420	361.296	0.046	-0.091
-344.406	-200.000	0.035	-0.278
-343.391	533.705	0.039	0.091
-342.377	-99.450	0.126	-0.031
-341.362	-114.853	-0.177	-0.033
-340.348	-200.000	-0.001	0.091
-339.333	14.868	0.176	0.136
-338.318	800.000	-0.070	0.235
-337.304	-200.000	0.060	0.370
-336.289	-57.669	-0.309	-0.134
-335.275	-65.888	0.276	0.109
-334.260	710.222	-0.068	-0.178
-333.245	-200.000	0.009	-0.053
-332.231	540.494	-0.043	0.102
-331.216	-11.203	0.092	0.060
-330.202	571.533	-0.113	0.272
-329.187	-70.892	-0.301	-0.112
-328.172	-200.000	0.030	-0.329
-327.158	800.000	0.070	-0.214
-326.143	-200.000	0.031	-0.165
-325.129	-111.514	0.151	0.030
-324.114	90.476	-0.153	0.170
-323.099	123.822	0.051	0.064
-322.085	534.834	-0.049	0.115
-321.070	35.351	0.198	0.172
-320.056	117.398	-0.237	0.289
-319.041	800.000	-0.053	0.165
-318.026	248.928	-0.078	0.130
-317.012	-44.512	-0.111	-0.055
-315.997	-11.268	-0.074	-0.048
-314.983	-124.381	0.436	-0.067
-313.968	-88.154	0.405	0.120
-312.953	108.264	-0.223	0.263
-311.939	342.917	0.056	-0.109
-310.924	-86.355	-0.323	0.098
-309.910	7.284	-0.209	0.154
-308.895	-200.000	-0.038	-0.260
-307.880	622.605	-0.052	-0.129
-306.866	122.835	-0.134	-0.166
-305.851	-120.762	0.220	0.037
-304.837	305.545	-0.147	-0.270
-303.822	-41.875	0.327	-0.166
-302.807	12.620	0.063	-0.048
-301.793	-43.710	-0.157	-0.078
-300.778	55.040	-0.287	-0.274
-299.764	-166.744	-0.162	-0.007
-298.749	5.348	-0.317	0.231
-297.735	-87.628	-0.292	0.087
-296.720	488.609	0.160	-0.361
-295.705	-48.822	0.360	0.171
-294.691	50.134	-0.060	-0.056
-293.676	-158.226	0.092	-0.005
-292.662	-66.254	0.103	-0.040
-291.647	-76.151	0.291	-0.102
-290.632	-94.999	0.168	0.045
-289.618	800.000	0.042	0.173
-288.603	-98.358	0.106	-0.027
-287.589	-149.120	-0.337	0.027
-286.574	145.592	0.191	-0.253
-285.559	-41.035	-0.118	0.060
-284.545	-200.000	-0.059	0.353
-283.530	42.350	-0.195	0.175
-282.516	285.866	-0.067	-0.119
-281.501	231.588	-0.006	-0.009
-280.486	-58.421	0.372	0.160
-279.472	-200.000	0.003	0.189
-278.457	117.904	-0.061	-0.074
-277.443	-28.714	-0.310	0.176
-276.428	-77.884	0.193	-0.066
-275.413	31.598	0.239	0.203
-274.399	800.000	-0.045	-0.159
-273.384	800.000	0.052	-0.194
-272.370	-112.805	-0.108	-0.021
-271.355	-175.350	-0.195	-0.005
-270.340	16.808	0.206	-0.161
-269.326	345.703	-0.153	-0.297
-268.311	38.459	0.286	-0.252
-267.297	-65.962	-0.242	-0.096
-266.282	-64.577	0.100	-0.040
-265.267	800.000	0.104	-0.333
-264.253	-80.914	-0.166	0.054
-263.238	615.725	-0.049	0.122
-262.224	150.648	-0.170	0.228
-261.209	-116.035	0.221	0.041
-260.195	800.000	-0.052	-0.150
-259.180	45.471	0.111	-0.101
-258.165	72.235	0.055	-0.056
-257.151	-79.561	-0.317	-0.106
-256.136	-118.619	-0.093	-0.016
-255.122	800.000	-0.041	-0.149
-254.107	58.506	-0.071	-0.069
-253.092	800.000	-0.038	-0.106
-252.078	-54.881	-0.147	0.065
-251.063	-200.000	-0.042	-0.255
-250.049	40.938	0.246	0.219
-249.034	23.647	0.121	-0.098
-248.019	4.020	0.128	-0.093
-247.005	800.000	-0.070	-0.257
-245.990	-81.007	0.377	0.123
-244.976	-66.082	-0.374	-0.147
-243.961	-108.651	0.340	0.072
-242.946	-179.588	0.257	0.006
-241.932	-109.571	-0.173	-0.036
-240.917	192.628	0.122	0.181
-239.903	-200.000	0.003	0.033
-238.888	-61.213	0.084	-0.035
-237.873	402.108	0.185	-0.383
-236.859	-143.333	0.257	-0.024
-235.844	-98.259	0.108	0.027
-234.830	-59.156	0.260	0.111
-233.815	2.161	0.037	-0.026
-232.800	800.000	-0.096	0.356
-231.786	783.497	-0.091	0.245
-230.771	-64.272	0.036	-0.015
-229.757	-200.000	-0.025	-0.168
-228.742	8.039	0.077	0.057
-227.727	-124.617	0.097	0.015
-226.713	-52.197	-0.173	-0.079
-225.698	-200.000	0.061	-0.325
-224.684	-200.000	-0.019	-0.112
-223.669	-53.636	0.184	0.083
-222.655	-25.329	0.185	0.108
-221.640	-152.930	0.152	-0.011
-220.625	800.000	0.106	-0.301
-219.611	21.551	0.315	0.253
-218.596	800.000	-0.046	-0.151
-217.582	11.941	-0.309	0.234
-216.567	-200.000	-0.012	0.191
-215.552	108.511	-0.168	0.197
-214.538	-200.000	-0.038	0.263
-213.523	-112.122	-0.154	-0.030
-212.509	-22.826	0.263	0.157
-211.494	-104.402	-0.132	0.030
-210.479	221.839	0.054	-0.085
-209.465	-88.198	0.127	-0.037
-208.450	43.089	0.160	-0.144
-207.436	-200.000	0.019	0.088
-206.421	91.807	0.117	-0.130
-205.406	-72.272	0.157	-0.057
-204.392	-31.661	0.076	-0.042
-203.377	324.338	-0.079	-0.149
-202.363	-141.052	-0.180	0.018
-201.348	33.363	0.100	-0.085
-200.333	-101.392	-0.071	-0.017
-199.319	800.000	0.012	-0.040
-198.304	-108.454	0.156	0.033
-197.290	655.536	0.035	0.088
-196.275	232.550	-0.014	-0.023
-195.260	-6.817	0.110	0.074
-194.246	115.456	0.084	-0.102
-193.231	-28.435	-0.191	0.109
-192.217	-57.404	-0.163	0.070
-191.202	108.264	-0.080	-0.094
-190.187	-120.286	-0.048	-0.008
-189.173	302.545	-0.031	0.056
-188.158	202.205	-0.191	-0.290
-187.144	314.463	-0.060	0.111
-186.129	550.149	-0.153	-0.361
-185.114	-200.000	-0.007	0.122
-184.100	-200.000	-0.009	0.173
-183.085	-34.376	0.165	-0.089
-182.071	222.104	0.194	-0.308
-181.056	-72.954	-0.189	0.068
-180.042	-71.198	0.194	0.072
-179.027	309.903	-0.121	0.222
-178.012	38.483	-0.150	0.132
-176.998	-200.000	-0.005	-0.091
-175.983	-46.835	-0.201	-0.097
-174.969	-73.947	-0.459	-0.164
-173.954	-166.928	0.339	0.014
-172.939	35.515	0.258	0.223
-171.925	224.691	0.144	-0.230
-170.910	184.071	0.233	-0.339
-169.896	-200.000	0.002	-0.031
-168.881	141.081	-0.242	0.315
-167.866	-13.722	-0.145	0.093
-166.852	110.630	-0.077	-0.091
-165.837	102.056	-0.182	-0.210
-164.823	71.171	-0.125	-0.128
-163.808	-64.204	-0.151	-0.060
-162.793	35.465	0.262	-0.227
-161.779	-59.534	0.282	-0.119
-160.764	-93.132	-0.203	0.056
-159.750	142.571	-0.107	-0.140
-158.735	724.610	-0.123	-0.322
-157.720	-25.717	0.168	0.097
-156.706	68.277	0.205	-0.206
-155.691	-200.000	0.009	-0.167
-154.677	151.686	-0.072	0.097
-153.662	103.355	-0.214	0.247
-152.647	16.446	0.397	-0.308
-151.633	-100.094	0.088	-0.021
-150.618	14.505	-0.144	0.111
-149.604	741.063	-0.035	0.092
-148.589	65.738	0.258	0.257
-147.574	336.746	-0.026	0.049
-146.560	596.046	0.121	0.294
-145.545	-200.000	-0.081	0.419
-144.531	37.386	0.179	0.156
-143.516	38.246	-0.070	0.062
-142.502	-132.881	0.464	0.058
-141.487	231.864	0.126	0.203
-140.472	744.121	-0.012	0.033
-139.458	-39.623	0.234	-0.121
-138.443	-200.000	0.004	0.078
-137.429	-32.236	0.201	-0.110
-136.414	-6.874	0.159	-0.106
-135.399	384.251	-0.087	0.177
-134.385	29.501	0.148	-0.123
-133.370	153.502	-0.123	0.166
-132.356	14.508	0.019	0.015
-131.341	-200.000	-0.004	-0.194
-130.326	-200.000	-0.038	-0.252
-129.312	-98.940	0.490	0.122
-128.297	-87.266	0.152	0.045
-127.283	-18.537	0.178	0.109
-126.268	339.037	-0.067	-0.129
-125.253	-12.238	0.260	0.167
-124.239	-37.443	0.149	-0.078
-123.224	-61.363	-0.152	0.063
-122.210	-42.543	-0.093	-0.047
-121.195	-178.759	-0.157	-0.004
-120.180	40.562	-0.113	0.100
-119.166	26.514	0.091	0.075
-118.151	194.581	0.081	0.121
-117.137	289.738	0.137	-0.243
-116.122	19.224	0.118	-0.093
-115.107	-62.221	0.277	-0.113
-114.093	-123.505	0.367	-0.057
-113.078	800.000	0.034	-0.102
-112.064	422.950	-0.081	-0.172
-111.049	-155.530	-0.146	0.009
-110.034	166.621	0.029	-0.041
-109.020	482.306	0.037	-0.083
-108.005	-86.372	0.168	0.051
-106.991	-112.509	0.483	-0.095
-105.976	22.579	-0.082	-0.066
-104.962	179.642	0.172	-0.247
-103.947	-143.343	0.272	-0.026
-102.932	-200.000	0.105	-0.532
-101.918	-43.064	0.273	0.136
-100.903	47.684	-0.333	-0.305
-99.889	-175.624	0.093	0.002
-98.874	10.271	-0.052	-0.039
-97.859	-113.154	0.284	0.055
-96.845	800.000	0.063	-0.173
-95.830	91.625	0.050	0.055
-94.816	24.618	-0.175	-0.142
-93.801	-200.000	0.019	0.264
-92.786	-83.010	0.227	0.072
-91.772	800.000	-0.030	0.097
-90.757	222.823	-0.151	0.239
-89.743	5.753	-0.115	0.084
-88.728	100.787	0.160	0.183
-87.713	-139.218	0.290	0.031
-86.699	72.018	0.141	0.144
-85.684	800.000	-0.034	0.138
-84.670	220.054	-0.175	-0.275
-83.655	-60.626	-0.174	0.072
-82.640	631.287	0.131	0.325
-81.626	420.813	-0.029	-0.061
-80.611	-71.780	-0.130	0.047
-79.597	-200.000	0.012	0.570
-78.582	-116.301	0.504	-0.092
-77.567	-96.500	0.140	-0.036
-76.553	148.678	0.086	0.113
-75.538	-93.778	-0.113	-0.030
-74.524	800.000	0.033	0.123
-73.509	89.247	-0.193	0.211
-72.494	800.000	-0.026	-0.074
-71.480	91.939	-0.128	-0.141
-70.465	-200.000	0.065	0.382
-69.451	800.000	0.074	0.249
-68.436	-200.000	-0.008	-0.108
-67.422	-132.369	0.194	0.025
-66.407	-5.945	0.302	-0.203
-65.392	72.804	-0.167	-0.171
-64.378	-69.347	-0.421	-0.158
-63.363	-199.674	-0.136	0.001
-62.349	357.446	-0.044	-0.085
-61.334	17.359	-1.153	-0.897
-60.319	186.612	0.329	0.481
-59.305	800.000	-0.325	-1.019
-58.290	239.965	0.596	0.973
-57.276	334.756	0.713	1.353
-56.261	-200.000	106.456	609.455
-55.246	500.682	1507.958	3409.346
-54.232	176.241	2701.461	3844.191
-53.217	110.663	2187.336	2577.323
-52.203	40.176	1704.622	1501.587
-51.188	32.637	1513.895	1282.460
-50.173	30.362	1486.970	1244.368
-49.159	51.232	1543.184	1434.597
-48.144	51.544	1559.918	1452.231
-47.130	32.908	1515.307	1285.299
-46.115	29.763	1500.439	1251.390
-45.100	29.598	1497.383	1247.676
-44.086	29.482	1495.415	1245.206
-43.071	29.549	1492.407	1243.101
-42.057	29.456	1491.036	1241.284
-41.042	29.524	1489.698	1240.582
-40.027	29.591	1488.375	1239.879
-39.013	29.496	1487.060	1238.099
-37.998	29.466	1485.786	1236.786
-36.984	29.436	1484.824	1235.733
-35.969	29.539	1482.944	1234.808
-34.954	29.477	1481.689	1233.302
-33.940	29.374	1480.445	1231.529
-32.925	29.489	1478.355	1230.510
-31.911	29.544	1477.744	1230.321
-30.896	29.491	1476.403	1228.798
-29.881	29.529	1475.092	1227.916
-28.867	29.603	1473.684	1227.188
-27.852	29.535	1472.444	1225.654
-26.838	29.482	1470.928	1223.988
-25.823	29.630	1468.943	1223.268
-24.809	29.536	1467.867	1221.703
-23.794	29.585	1466.201	1220.594
-22.779	29.699	1464.477	1219.862
-21.765	29.519	1464.056	1218.274
-20.750	29.553	1463.183	1217.727
-19.736	29.539	1461.548	1216.222
-18.721	29.467	1460.800	1215.075
-17.706	29.444	1459.634	1213.907
-16.692	29.534	1458.592	1213.583
-15.677	29.527	1457.984	1212.985
-14.663	29.471	1456.772	1211.560
-13.648	29.434	1455.622	1210.311
-12.633	29.483	1454.475	1209.636
-11.619	29.504	1453.859	1209.210
-10.604	29.505	1453.353	1208.750
-9.590	29.527	1452.293	1207.964
-8.575	29.470	1451.424	1206.821
-7.560	29.509	1450.223	1206.025
-6.546	29.428	1450.081	1205.329
-5.531	29.417	1449.673	1204.875
-4.517	29.543	1448.261	1204.471
-3.502	29.481	1446.984	1202.962
-2.487	29.466	1445.779	1201.811
-1.473	29.357	1444.981	1200.395
-0.458	29.558	1443.135	1200.120
0.556	27.001	1434.005	1189.385
1.571	24.252	1409.269	1151.045
2.586	20.996	1351.864	1083.853
3.600	19.612	1271.650	1011.357
4.615	18.491	1226.421	968.966
5.629	16.260	1171.823	913.685
6.644	8.236	1088.162	807.892
7.659	1.097	1047.913	743.037
8.673	-0.109	1042.298	733.108
9.688	-0.174	1038.630	730.150
10.702	-0.309	1037.101	728.355
11.717	-0.288	1035.317	727.136
12.731	3.049	1039.170	745.990
13.746	11.711	1051.714	797.318
14.761	18.609	1060.000	837.314
15.775	20.521	1062.569	848.613
16.790	20.839	1062.301	849.877
17.804	20.817	1061.140	848.768
18.819	20.603	1060.322	846.996
19.834	20.760	1059.647	847.141
20.848	20.865	1059.409	847.387
21.863	20.866	1058.841	846.863
22.877	20.819	1058.734	846.475
23.892	20.826	1057.987	845.835
24.907	20.773	1056.747	844.513
25.921	20.754	1056.782	844.378
26.936	20.779	1055.323	843.255
27.950	20.831	1054.311	842.627
28.965	20.722	1052.896	840.894
29.980	20.676	1051.388	839.392
30.994	20.534	1050.149	837.643
32.009	20.766	1049.411	838.098
33.023	20.933	1048.148	837.819
34.038	20.676	1047.389	835.900
35.053	20.566	1046.130	834.298
36.067	20.766	1045.984	835.067
37.082	20.780	1044.988	834.264
38.096	20.793	1044.269	833.680
39.111	20.909	1043.604	833.630
40.126	21.149	1042.418	833.753
41.140	21.032	1041.289	832.216
42.155	20.673	1039.543	829.038
43.169	20.512	1038.367	827.261
44.184	20.452	1037.559	826.261
45.199	20.603	1036.343	825.936
46.213	20.515	1035.201	824.536
47.228	20.466	1034.026	823.296
48.242	20.600	1033.874	823.733
49.257	20.667	1033.045	823.320
50.271	20.735	1032.523	823.150
51.286	20.977	1031.516	823.418
52.301	20.758	1030.839	821.770
53.315	20.812	1030.128	821.388
54.330	20.868	1029.136	820.786
55.344	20.802	1028.340	819.769
56.359	20.695	1027.468	818.496
57.374	20.757	1027.085	818.412
58.388	20.763	1025.507	817.112
59.403	20.669	1024.693	815.949
60.417	20.521	1024.295	814.867
61.432	20.420	1023.127	813.392
62.447	20.440	1022.798	813.151
63.461	20.655	1021.698	813.210
64.476	20.654	1021.175	812.718
65.490	20.557	1020.389	811.567
66.505	20.485	1019.344	810.328
67.520	20.489	1018.485	809.591
68.534	20.554	1018.179	809.580
69.549	20.475	1016.835	808.073
70.563	20.222	1015.432	805.712
71.578	20.213	1014.479	804.841
72.593	20.215	1013.884	804.308
73.607	20.044	1012.610	802.436
74.622	20.184	1011.445	802.087
75.636	20.409	1011.041	802.737
76.651	20.484	1010.198	802.342
77.666	20.379	1009.521	801.248
78.680	20.246	1008.651	799.874
79.695	20.319	1008.214	799.792
80.709	20.295	1007.411	798.976
81.724	20.477	1006.294	798.857
82.739	20.316	1005.811	797.662
83.753	20.363	1004.952	797.126
84.768	20.740	1004.385	798.335
85.782	20.939	1003.828	798.734
86.797	21.126	1002.446	798.419
87.812	20.972	1001.975	797.269
88.826	20.902	1001.019	796.120
89.841	20.862	1000.150	795.173
90.855	20.977	999.721	795.287
91.870	21.031	999.083	794.956
92.884	21.061	998.018	794.176
93.899	20.779	997.288	792.239
94.914	20.871	995.736	791.353
95.928	21.050	994.946	791.471
96.943	20.897	994.461	790.318
97.957	20.611	992.837	787.663
98.972	20.483	992.045	786.387
99.987	20.249	991.128	784.533
101.001	20.414	990.421	784.646
102.016	20.699	989.602	785.215
103.030	20.793	988.503	784.698
104.045	20.662	987.721	783.420
105.060	20.527	986.106	781.461
106.074	20.395	984.607	779.610
107.089	20.381	984.698	779.552
108.103	20.843	984.356	781.287
109.118	20.846	983.445	780.505
110.133	20.465	982.293	777.817
111.147	20.528	981.558	777.449
112.162	20.527	980.089	776.210
113.176	20.307	978.952	774.261
114.191	20.393	977.939	773.776
115.206	20.489	977.091	773.462
116.220	20.181	976.357	771.445
117.235	20.004	975.492	769.907
118.249	20.024	975.118	769.630
119.264	20.168	974.240	769.506
120.279	20.144	973.147	768.471
121.293	20.148	972.431	767.855
122.308	20.263	971.432	767.508
123.322	20.226	971.040	766.968
124.337	20.236	969.314	765.580
125.352	20.179	968.244	764.416
126.366	19.793	966.635	761.377
127.381	19.469	965.505	758.995
128.395	19.891	965.293	760.619
129.410	20.537	964.727	762.938
130.424	20.849	963.807	763.514
131.439	20.851	962.838	762.685
132.454	20.693	962.051	761.305
133.468	20.850	960.886	761.001
134.483	20.807	959.958	760.011
135.497	20.695	959.743	759.285
136.512	20.904	958.609	759.229
137.527	20.878	958.313	758.816
138.541	20.868	957.524	758.080
139.556	21.043	956.319	757.823
140.570	20.995	955.578	756.960
141.585	21.013	954.551	756.157
142.600	20.995	953.838	755.445
143.614	20.918	953.264	754.591
144.629	21.056	952.482	754.503
145.643	21.299	951.852	754.986
146.658	21.242	950.442	753.557
147.673	21.018	949.486	751.764
148.687	20.920	948.206	750.264
149.702	20.747	947.766	749.107
150.716	20.760	946.426	748.034
151.731	20.734	945.098	746.806
152.746	20.866	944.608	746.922
153.760	21.059	944.247	747.396
154.775	21.113	943.303	746.814
155.789	21.133	942.500	746.198
156.804	21.155	941.477	745.414
157.819	21.106	940.404	744.292
158.833	21.133	939.185	743.377
159.848	21.161	938.872	743.183
160.862	21.297	938.458	743.368
161.877	20.988	937.664	741.356
162.892	21.218	936.399	741.268
163.906	21.229	935.612	740.627
164.921	21.023	935.325	739.463
165.935	21.253	933.268	738.743
166.950	21.203	932.344	737.732
167.964	21.165	931.860	737.126
168.979	21.030	930.736	735.603
169.994	20.985	929.556	734.414
171.008	20.856	929.184	733.510
172.023	20.998	928.473	733.483
173.037	21.170	927.507	733.378
174.052	20.991	926.486	731.754
175.067	20.710	925.092	729.412
176.081	20.840	924.366	729.319
177.096	20.816	923.926	728.806
178.110	20.817	923.232	728.198
179.125	20.642	921.724	726.213
180.140	20.637	920.428	725.108
181.154	20.580	919.691	724.225
182.169	20.662	919.839	724.622
183.183	20.746	919.457	724.604
184.198	21.211	918.786	725.945
185.213	21.063	918.121	724.740
186.227	20.922	917.298	723.443
187.242	20.934	917.452	723.549
188.256	21.020	916.360	722.981
189.271	21.090	915.373	722.430
190.286	21.242	914.856	722.587
191.300	21.089	913.882	721.119
192.315	20.578	912.426	717.799
193.329	19.788	911.290	713.584
194.344	19.559	909.895	711.482
195.359	20.073	910.298	713.852
196.373	20.858	910.500	717.183
197.388	21.063	910.266	717.777
198.402	20.927	909.717	716.724
199.417	20.792	909.338	715.805
200.432	21.028	908.246	715.850
201.446	20.965	907.611	715.027
202.461	20.562	906.777	712.658
203.475	20.585	906.083	712.142
204.490	20.165	905.047	709.547
205.504	19.075	902.809	703.278
206.519	19.571	902.745	705.191
207.534	20.525	903.264	709.430
208.548	20.598	902.747	709.259
209.563	20.890	902.464	710.166
210.577	20.940	901.508	709.554
211.592	20.630	900.974	707.807
212.607	20.959	900.839	708.979
213.621	21.091	900.523	709.204
214.636	21.061	899.207	707.984
215.650	21.117	898.896	707.903
216.665	21.052	898.323	707.126
217.680	21.035	897.908	706.665
218.694	21.219	897.275	706.850
219.709	20.821	896.324	704.431
220.723	20.588	894.863	702.277
221.738	20.713	894.652	702.553
222.753	21.089	893.997	703.494
223.767	20.931	893.161	702.141
224.782	20.884	892.677	701.506
225.796	21.041	892.451	701.898
226.811	21.301	891.286	701.966
227.826	20.863	890.015	699.146
228.840	20.011	889.290	695.096
229.855	19.975	888.278	694.097
230.869	20.280	888.081	695.107
231.884	19.977	886.629	692.695
232.899	20.044	886.314	692.654
233.913	20.928	886.305	696.122
234.928	20.929	886.422	696.153
235.942	20.824	885.592	695.021
236.957	20.947	884.617	694.685
237.972	20.535	884.252	692.695
238.986	20.662	883.181	692.302
240.001	20.814	882.644	692.422
241.015	20.699	881.496	691.003
242.030	20.734	881.516	691.098
243.045	20.918	880.766	691.180
244.059	20.944	880.448	690.972
245.074	21.019	880.024	690.875
246.088	21.080	878.924	690.193
247.103	20.795	878.068	688.330
248.117	20.808	877.683	688.021
249.132	21.243	877.682	689.678
250.147	21.540	877.927	690.982
251.161	21.612	877.020	690.491
252.176	21.674	876.300	690.107
253.190	21.776	875.666	689.946
254.205	21.813	875.424	689.839
255.220	22.028	874.497	689.896
256.234	21.905	874.181	689.102
257.249	21.892	873.416	688.385
258.263	21.649	872.857	686.933
259.278	21.750	872.055	686.636
260.293	21.990	871.409	687.004
261.307	21.883	871.071	686.259
262.322	21.823	870.338	685.389
263.336	21.798	869.194	684.326
264.351	21.102	868.276	680.829
265.366	20.049	866.344	675.154
266.380	19.589	865.381	672.551
267.395	20.551	866.011	676.728
268.409	21.332	866.057	679.744
269.424	21.333	865.181	679.000
270.439	21.391	865.050	679.062
271.453	21.569	864.248	679.062
272.468	21.580	863.538	678.487
273.482	21.725	863.118	678.660
274.497	21.913	862.719	679.013
275.512	21.839	861.469	677.685
276.526	21.131	859.981	673.721
277.541	21.339	859.919	674.414
278.555	21.632	859.741	675.346
279.570	21.635	858.751	674.522
280.585	21.414	857.710	672.793
281.599	21.391	857.472	672.459
282.614	21.492	857.141	672.529
283.628	20.983	856.326	669.874
284.643	20.776	855.250	668.179
285.657	21.233	855.070	669.732
286.672	20.936	854.723	668.264
287.687	20.705	853.065	666.021
288.701	20.861	853.551	666.941
289.716	21.329	852.802	668.085
290.730	21.002	852.199	666.303
291.745	20.937	851.440	665.404
292.760	20.840	850.379	664.148
293.774	20.796	849.391	663.150
294.789	21.475	850.252	666.351
295.803	22.211	850.431	669.234
296.818	22.185	849.651	668.460
297.833	22.261	849.319	668.431
298.847	22.063	847.792	666.417
299.862	21.636	847.165	664.246
300.876	21.932	846.516	664.801
301.891	22.117	846.560	665.477
302.906	22.197	845.596	664.964
303.920	21.808	844.810	662.818
304.935	21.629	844.187	661.593
305.949	21.917	844.134	662.579
306.964	22.071	843.757	662.807
307.979	22.013	842.627	661.643
308.993	21.978	842.262	661.165
310.008	22.376	841.726	662.184
311.022	22.388	841.489	661.982
312.037	22.228	840.808	660.790
313.052	21.909	840.701	659.447
314.066	21.871	839.521	658.319
315.081	21.224	838.122	654.739
316.095	20.397	837.408	651.024
317.110	21.057	837.309	653.364
318.125	21.894	837.104	656.278
319.139	21.400	836.105	653.590
320.154	20.361	834.471	648.379
321.168	19.872	833.694	645.892
322.183	20.449	834.323	648.477
323.197	21.412	834.061	651.806
324.212	21.725	834.205	653.030
325.227	21.848	833.725	653.054
326.241	21.866	833.306	652.733
327.256	21.854	832.439	651.953
328.270	21.757	831.967	651.165
329.285	21.684	831.337	650.342
330.300	21.600	830.254	649.129
331.314	21.477	829.662	648.150
332.329	21.612	828.880	647.983
333.343	21.848	828.415	648.436
334.358	22.125	828.271	649.287
335.373	22.051	827.866	648.641
336.387	22.217	827.130	648.617
337.402	22.215	826.810	648.301
338.416	22.540	826.418	649.135
339.431	22.301	826.188	648.018
340.446	22.670	825.091	648.458
341.460	22.687	824.742	648.188
342.475	22.547	824.692	647.576
343.489	22.258	824.039	645.943
344.504	22.365	823.345	645.737
345.519	22.515	822.877	645.860
346.533	22.725	822.393	646.193
347.548	22.685	822.200	645.838
348.562	22.865	821.486	645.880
349.577	23.014	820.805	645.832
350.592	22.809	820.679	644.928
351.606	22.709	820.111	644.057
352.621	22.680	819.416	643.347
353.635	22.771	818.861	643.187
354.650	22.552	818.598	642.127
355.665	22.282	817.321	640.085
356.679	21.268	815.794	635.148
357.694	21.098	815.706	634.405
358.708	21.775	815.537	636.678
359.723	21.736	814.437	635.621
360.738	22.126	814.414	636.960
361.752	22.438	814.186	637.856
362.767	22.501	813.924	637.822
363.781	22.806	813.770	638.751
364.796	23.059	813.772	639.611
365.810	23.022	813.645	639.319
366.825	23.080	813.373	639.261
367.840	23.245	812.309	638.961
368.854	23.054	811.802	637.817
369.869	22.579	811.012	635.427
370.883	22.561	810.167	634.646
371.898	22.547	809.970	634.386
372.913	22.628	809.030	633.883
373.927	22.500	808.446	632.911
374.942	22.751	807.734	633.196
375.956	22.738	807.552	632.951
376.971	22.906	806.727	632.853
377.986	22.867	806.672	632.613
379.000	23.020	806.060	632.626
380.015	23.153	805.681	632.748
381.029	23.017	804.931	631.618
382.044	22.902	804.584	630.877
383.059	23.110	804.095	631.181
384.073	23.066	803.288	630.332
385.088	23.227	802.915	630.561
386.102	23.138	802.553	629.902
387.117	22.966	801.627	628.507
388.132	22.888	800.653	627.412
389.146	22.789	800.077	626.552
390.161	22.344	799.411	624.398
391.175	22.328	799.264	624.170
392.190	22.730	799.022	625.350
393.205	22.669	799.025	625.081
394.219	21.788	797.087	620.393
395.234	20.216	794.809	613.013
396.248	19.584	793.908	610.033
397.263	20.569	794.823	614.164
398.278	22.439	796.005	621.633
399.292	22.820	795.936	622.867
400.307	22.573	794.893	621.126
401.321	22.348	794.957	620.328
402.336	22.528	794.424	620.490
403.350	22.792	794.289	621.261
404.365	23.185	794.397	622.671
405.380	23.506	794.291	623.664
406.394	23.829	793.690	624.271
407.409	23.821	793.334	623.907
408.423	23.754	792.784	623.185
409.438	23.801	792.182	622.822
410.453	23.711	792.080	622.371
411.467	23.932	791.513	622.643
412.482	23.912	790.768	621.934
413.496	23.570	790.617	620.561
414.511	23.632	790.155	620.363
415.526	23.839	789.687	620.662
416.540	23.738	789.257	619.918
417.555	23.743	788.595	619.362
418.569	23.486	788.036	617.971
419.584	23.357	787.780	617.265
420.599	23.495	786.854	616.966
421.613	156.825	1365.195	1798.020
422.628	135.653	1449.449	1798.070
