DTS Sentinel unit serial number:	SN413079Multiplexer serial number:	ORYXHardware model number:	OX4-SRSoftware version number:	ORYX F/W v4.00 Oryx Data Collector v3.7.2.0data status	okinstallation	princeton_trtdifferential loss correction	single-endedforward channel	channel 3reverse channel	N/Adate	2019/09/10time	19:02:11forward acquisition time	60.00reverse acquisition time	0.00gamma	496.2192k internal	0.2313k external	0.2313temperature offset calibration	0.9916default loss term (dB/km)	0.3790temperature slope calibration	1.0000multiplexer offset coefficient	1.0000multiplexer slope coefficient	1.0000fibre end	0.00T internal ref (°C)	34.50T ext. ref 1 (°C)	-0.34T ext. ref 2 (°C)	26.71length (m)	temperature (°C)	Stokes	anti-Stokes-747.200	-10.522	0.069	-0.046
-746.185	-200.000	0.007	0.131
-745.171	11.883	-0.169	0.131
-744.156	336.233	-0.073	0.144
-743.142	116.389	0.159	-0.198
-742.127	800.000	0.075	0.228
-741.112	-42.209	0.414	0.215
-740.098	84.371	0.153	0.170
-739.083	-49.667	-0.254	-0.122
-738.069	168.064	0.096	0.138
-737.054	153.228	0.079	0.110
-736.039	-135.141	-0.121	-0.015
-735.025	28.208	0.314	0.269
-734.010	-193.592	-0.315	-0.003
-732.996	800.000	-0.028	-0.093
-731.981	-40.318	-0.132	-0.069
-730.966	-162.768	-0.216	0.011
-729.952	-42.131	-0.045	-0.023
-728.937	-7.899	-0.195	-0.133
-727.923	-84.625	0.112	0.036
-726.908	-52.329	0.124	0.058
-725.894	-33.003	-0.181	-0.102
-724.879	82.397	-0.058	0.064
-723.864	50.445	-0.121	0.115
-722.850	-115.615	-0.326	-0.062
-721.835	-200.000	-0.017	0.358
-720.821	800.000	-0.059	0.258
-719.806	-102.541	0.117	-0.028
-718.791	-199.255	0.078	-0.000
-717.777	295.589	0.083	0.154
-716.762	129.344	0.090	0.117
-715.748	-138.236	-0.051	-0.006
-714.733	-86.422	0.193	-0.060
-713.718	170.127	0.036	0.052
-712.704	-200.000	0.022	0.296
-711.689	-83.844	0.230	0.074
-710.675	74.544	0.126	-0.134
-709.660	599.353	0.025	-0.062
-708.645	-128.793	0.380	-0.054
-707.631	-33.514	0.098	0.055
-706.616	-23.033	-0.115	-0.070
-705.602	-46.254	-0.132	0.066
-704.587	291.912	0.122	0.224
-703.572	-125.020	0.224	0.035
-702.558	-13.319	-0.262	0.172
-701.543	290.766	0.070	-0.128
-700.529	-145.302	-0.091	-0.008
-699.514	-128.461	-0.429	-0.062
-698.499	-23.820	0.186	0.113
-697.485	-44.048	-0.247	-0.126
-696.470	-200.000	0.034	0.243
-695.456	-65.724	0.197	0.080
-694.441	800.000	0.029	0.092
-693.426	6.425	0.039	-0.029
-692.412	-200.000	-0.016	0.174
-691.397	136.750	0.286	0.378
-690.383	-96.008	0.145	-0.039
-689.368	210.677	-0.117	-0.186
-688.354	510.355	-0.050	-0.119
-687.339	800.000	-0.029	-0.094
-686.324	-34.343	-0.175	0.097
-685.310	-86.316	0.359	0.112
-684.295	-24.292	-0.327	0.197
-683.281	-147.792	-0.134	0.011
-682.266	328.587	-0.077	0.149
-681.251	-200.000	0.017	0.122
-680.237	-43.011	-0.308	-0.158
-679.222	-65.361	0.166	-0.068
-678.208	490.368	0.012	-0.027
-677.193	-63.364	-0.509	-0.212
-676.178	450.279	-0.074	-0.165
-675.164	-200.000	-0.034	0.202
-674.149	-118.987	-0.291	-0.052
-673.135	-200.000	-0.004	-0.094
-672.120	-9.232	-0.048	0.032
-671.105	-117.913	0.296	-0.054
-670.091	489.086	-0.101	-0.233
-669.076	-156.814	-0.058	-0.004
-668.062	-3.504	0.285	-0.201
-667.047	-128.152	0.180	-0.026
-666.032	-60.047	0.310	-0.134
-665.018	159.094	-0.184	0.259
-664.003	128.698	0.202	0.260
-662.989	800.000	0.030	0.107
-661.974	87.893	0.334	0.374
-660.959	98.053	0.104	-0.122
-659.945	-5.789	0.322	0.223
-658.930	-112.860	-0.130	-0.026
-657.916	-67.702	-0.260	-0.103
-656.901	148.112	0.171	0.233
-655.886	-70.965	-0.396	-0.150
-654.872	-200.000	-0.033	0.150
-653.857	-200.000	0.013	-0.287
-652.843	-175.202	0.115	0.003
-651.828	-117.710	-0.244	-0.044
-650.814	800.000	0.056	-0.180
-649.799	66.585	-0.073	-0.075
-648.784	-50.516	-0.286	0.136
-647.770	-22.897	-0.117	-0.072
-646.755	400.813	-0.027	-0.058
-645.741	142.785	0.214	0.287
-644.726	-133.167	-0.158	0.020
-643.711	-92.337	-0.139	-0.039
-642.697	-72.507	0.158	-0.059
-641.682	-110.138	0.124	-0.026
-640.668	-101.480	-0.141	-0.035
-639.653	191.910	0.063	0.097
-638.638	-104.570	-0.496	-0.116
-637.624	66.168	-0.229	0.235
-636.609	230.365	0.270	0.446
-635.595	11.115	0.040	-0.031
-634.580	-154.254	0.456	0.031
-633.565	-143.279	0.079	-0.008
-632.551	779.632	-0.112	0.309
-631.536	409.574	0.098	0.210
-630.522	-200.000	-0.004	-0.050
-629.507	86.635	-0.213	-0.238
-628.492	800.000	-0.050	0.164
-627.478	-99.596	0.027	-0.007
-626.463	452.986	-0.088	-0.198
-625.449	204.791	0.070	-0.110
-624.434	-200.000	-0.039	0.358
-623.419	-200.000	-0.061	0.326
-622.405	304.980	0.088	-0.164
-621.390	113.667	0.094	0.115
-620.376	79.963	-0.196	0.213
-619.361	-34.376	0.161	0.089
-618.346	-51.901	-0.185	0.087
-617.332	-134.924	-0.212	0.026
-616.317	3.042	0.037	0.027
-615.303	-62.692	-0.137	-0.057
-614.288	-51.259	0.309	0.146
-613.273	-74.172	-0.190	0.069
-612.259	-200.000	0.022	-0.165
-611.244	-200.000	0.011	-0.073
-610.230	-183.310	0.113	-0.002
-609.215	25.718	-0.203	-0.170
-608.201	58.044	0.158	-0.156
-607.186	800.000	-0.190	0.628
-606.171	118.576	-0.175	0.218
-605.157	-11.781	0.303	-0.200
-604.142	800.000	0.016	-0.067
-603.128	800.000	-0.085	-0.359
-602.113	22.370	0.207	-0.170
-601.098	112.548	-0.175	0.214
-600.084	800.000	-0.045	0.133
-599.069	41.857	-0.288	0.263
-598.055	-10.575	-0.561	-0.374
-597.040	581.608	-0.155	0.382
-596.025	-16.886	0.084	0.053
-595.011	351.411	0.080	0.160
-593.996	-65.050	-0.399	-0.162
-592.982	-67.798	0.100	0.039
-591.967	-200.000	0.324	0.001
-590.952	34.066	-0.173	0.152
-589.938	-77.080	-0.331	-0.116
-588.923	356.925	0.108	0.217
-587.909	-26.658	-0.228	-0.134
-586.894	305.979	0.151	-0.283
-585.879	288.270	0.212	-0.386
-584.865	251.189	-0.187	0.321
-583.850	-200.000	0.069	0.403
-582.836	-76.330	-0.292	-0.104
-581.821	-69.024	0.126	-0.049
-580.806	-107.269	0.060	0.013
-579.792	-8.848	-0.133	0.090
-578.777	70.585	-0.098	0.102
-577.763	259.708	-0.039	-0.067
-576.748	-89.000	0.131	0.039
-575.733	-200.000	-0.020	-0.329
-574.719	-146.542	-0.223	-0.020
-573.704	77.827	-0.369	-0.396
-572.690	132.318	-0.155	-0.201
-571.675	64.677	0.150	-0.152
-570.661	-133.029	0.025	-0.003
-569.646	131.284	-0.282	0.364
-568.631	103.390	-0.202	-0.238
-567.617	146.008	-0.164	-0.221
-566.602	111.591	0.229	0.279
-565.588	-200.000	-0.026	-0.401
-564.573	440.034	0.130	-0.286
-563.558	-77.955	0.132	-0.046
-562.544	-9.722	-0.134	-0.090
-561.529	-94.442	-0.262	0.072
-560.515	800.000	-0.023	-0.088
-559.500	-40.476	0.154	-0.081
-558.485	420.025	-0.097	0.208
-557.471	-106.042	-0.030	0.007
-556.456	72.645	-0.220	-0.231
-555.442	51.107	0.327	-0.313
-554.427	-200.000	-0.010	-0.278
-553.412	-96.335	-0.058	0.015
-552.398	191.920	-0.145	-0.220
-551.383	-3.549	-0.122	-0.085
-550.369	-43.120	0.116	0.059
-549.354	-61.548	0.192	-0.081
-548.339	-127.196	0.094	-0.014
-547.325	-200.000	0.007	-0.214
-546.310	160.793	-0.105	-0.147
-545.296	157.760	0.080	0.111
-544.281	-51.496	0.282	0.133
-543.266	-153.438	-0.377	-0.026
-542.252	169.515	-0.182	-0.262
-541.237	-200.000	-0.006	0.411
-540.223	385.761	-0.042	0.088
-539.208	-200.000	-0.004	0.152
-538.193	-200.000	-0.020	0.267
-537.179	-200.000	0.004	0.294
-536.164	-94.037	-0.131	-0.036
-535.150	-150.398	0.078	0.006
-534.135	-60.034	-0.151	0.065
-533.121	-200.000	-0.032	-0.200
-532.106	-200.000	0.091	-0.439
-531.091	337.893	0.089	-0.174
-530.077	159.065	0.081	-0.113
-529.062	800.000	0.073	0.292
-528.048	-200.000	-0.051	0.278
-527.033	121.942	0.098	0.123
-526.018	795.182	0.066	-0.183
-525.004	-140.402	0.064	-0.007
-523.989	-105.637	-0.131	0.030
-522.975	-92.940	0.400	-0.112
-521.960	162.674	0.132	0.186
-520.945	-11.640	0.154	-0.101
-519.931	-5.312	0.206	0.142
-518.916	725.873	-0.029	-0.079
-517.902	800.000	-0.069	-0.202
-516.887	98.576	-0.185	0.215
-515.872	160.269	-0.153	0.215
-514.858	86.089	0.134	0.148
-513.843	-72.192	0.372	-0.139
-512.829	-72.600	0.324	-0.120
-511.814	69.376	-0.102	-0.106
-510.799	-61.500	-0.200	0.084
-509.785	-85.169	-0.225	-0.071
-508.770	-166.241	-0.187	-0.008
-507.756	-151.400	0.139	0.010
-506.741	25.437	0.160	0.134
-505.726	-199.411	0.146	0.001
-504.712	19.170	-0.030	0.024
-503.697	47.842	0.157	0.147
-502.683	-126.214	-0.388	0.058
-501.668	-40.598	-0.220	-0.114
-500.653	-13.934	-0.240	-0.155
-499.639	800.000	0.143	0.433
-498.624	-200.000	-0.025	-0.247
-497.610	202.888	-0.104	-0.162
-496.595	121.314	0.175	0.218
-495.581	-46.110	0.167	-0.082
-494.566	178.229	-0.133	0.196
-493.551	800.000	-0.033	-0.120
-492.537	800.000	0.048	-0.192
-491.522	-200.000	0.012	-0.207
-490.508	64.516	-0.059	-0.060
-489.493	-131.104	0.403	0.054
-488.478	311.632	-0.170	-0.319
-487.464	-37.159	-0.148	-0.080
-486.449	-83.613	0.058	0.019
-485.435	620.961	0.079	0.199
-484.420	-80.560	0.088	-0.030
-483.405	800.000	-0.107	-0.328
-482.391	-172.069	-0.144	0.005
-481.376	-89.897	-0.335	-0.098
-480.362	-46.299	0.209	-0.103
-479.347	800.000	-0.061	-0.210
-478.332	124.452	0.150	-0.190
-477.318	-21.097	0.066	-0.040
-476.303	-154.603	-0.136	-0.009
-475.289	-200.000	0.055	0.265
-474.274	-11.383	0.242	-0.160
-473.259	-33.725	-0.014	0.008
-472.245	-84.246	0.111	0.035
-471.230	-200.000	-0.010	-0.299
-470.216	55.126	0.101	0.098
-469.201	-127.466	0.190	0.028
-468.186	337.477	0.030	0.059
-467.172	-138.375	-0.211	0.023
-466.157	-36.278	-0.388	0.210
-465.143	800.000	0.106	0.360
-464.128	-107.166	-0.257	-0.057
-463.113	-4.934	0.250	-0.173
-462.099	800.000	-0.090	-0.311
-461.084	30.606	0.158	-0.136
-460.070	26.563	0.216	0.181
-459.055	92.855	0.096	0.108
-458.040	-109.572	-0.305	-0.064
-457.026	371.901	0.084	-0.172
-456.011	500.844	0.008	-0.018
-454.997	-62.407	-0.145	-0.061
-453.982	88.197	-0.263	-0.293
-452.968	271.114	-0.094	0.167
-451.953	-82.782	-0.300	0.097
-450.938	-200.000	-0.016	0.248
-449.924	438.539	-0.037	-0.082
-448.909	289.618	-0.103	-0.187
-447.895	800.000	0.005	0.021
-446.880	-73.175	-0.359	0.132
-445.865	-58.622	0.014	0.006
-444.851	-50.751	0.408	-0.192
-443.836	-51.006	-0.239	0.113
-442.822	-28.316	-0.260	0.151
-441.807	-200.000	-0.007	-0.092
-440.792	-92.886	-0.193	-0.054
-439.778	800.000	-0.074	-0.305
-438.763	317.509	0.097	-0.184
-437.749	390.288	-0.094	0.194
-436.734	340.947	0.149	0.291
-435.719	800.000	0.038	0.115
-434.705	697.234	0.034	-0.089
-433.690	-200.000	0.012	0.176
-432.676	-55.378	0.287	-0.129
-431.661	81.899	0.278	-0.301
-430.646	201.574	0.095	-0.147
-429.632	94.857	-0.067	-0.076
-428.617	68.166	-0.224	-0.230
-427.603	-200.000	-0.033	-0.270
-426.588	-87.041	0.364	0.111
-425.573	55.636	-0.130	0.126
-424.559	128.683	-0.158	-0.201
-423.544	800.000	0.056	-0.244
-422.530	-200.000	-0.009	0.293
-421.515	124.389	-0.110	-0.138
-420.500	-44.529	0.173	0.087
-419.486	208.394	0.193	0.301
-418.471	318.741	-0.083	0.157
-417.457	-103.178	0.429	-0.102
-416.442	800.000	0.047	-0.131
-415.428	-200.000	-0.010	-0.147
-414.413	177.436	-0.149	-0.218
-413.398	-40.849	0.265	-0.137
-412.384	-70.969	0.417	-0.157
-411.369	2.041	-0.161	0.116
-410.355	-122.630	0.202	-0.033
-409.340	-37.313	0.176	-0.094
-408.325	347.636	-0.067	-0.132
-407.311	-140.551	0.102	-0.011
-406.296	157.152	-0.042	-0.059
-405.282	6.963	0.064	-0.047
-404.267	-130.353	-0.167	0.023
-403.252	194.728	0.102	-0.154
-402.238	-78.180	-0.316	-0.109
-401.223	460.548	0.048	0.107
-400.209	-200.000	0.103	-0.000
-399.194	-149.375	-0.129	-0.010
-398.179	130.223	-0.248	-0.318
-397.165	66.323	0.166	-0.168
-396.150	-47.498	-0.084	-0.041
-395.136	571.236	0.114	0.278
-394.121	800.000	-0.051	-0.187
-393.106	800.000	-0.042	0.158
-392.092	297.337	0.114	0.210
-391.077	264.910	0.097	-0.170
-390.063	-200.000	0.013	0.212
-389.048	-118.899	0.108	-0.019
-388.033	59.258	0.116	-0.114
-387.019	-95.846	0.163	0.044
-386.004	800.000	0.067	0.291
-384.990	124.203	0.072	-0.090
-383.975	268.742	0.197	-0.346
-382.960	-117.358	0.234	-0.042
-381.946	351.930	-0.049	0.096
-380.931	18.029	0.118	-0.094
-379.917	-200.000	-0.044	0.301
-378.902	-71.048	-0.141	0.053
-377.888	-200.000	0.004	0.210
-376.873	-200.000	0.150	0.000
-375.858	800.000	-0.084	0.288
-374.844	-200.000	-0.042	0.212
-373.829	-200.000	0.044	-0.216
-372.815	95.970	0.162	0.185
-371.800	-200.000	0.041	0.189
-370.785	-200.000	0.009	-0.080
-369.771	-11.004	-0.328	-0.216
-368.756	31.248	-0.180	0.155
-367.742	-200.000	0.010	-0.054
-366.727	148.320	0.052	0.070
-365.712	-19.268	0.176	-0.109
-364.698	188.572	-0.070	-0.104
-363.683	-145.004	0.293	0.027
-362.669	-200.000	-0.043	-0.224
-361.654	376.926	-0.167	-0.340
-360.639	-74.513	-0.010	-0.004
-359.625	-147.293	0.233	0.020
-358.610	-200.000	-0.086	0.420
-357.596	297.342	-0.080	-0.147
-356.581	-103.201	-0.319	-0.075
-355.566	800.000	0.185	-0.580
-354.552	800.000	-0.043	-0.160
-353.537	800.000	0.062	-0.186
-352.523	-200.000	0.010	-0.305
-351.508	66.203	-0.116	0.118
-350.493	474.419	-0.069	0.155
-349.479	154.330	0.111	-0.153
-348.464	-174.992	-0.205	0.006
-347.450	121.375	-0.177	-0.221
-346.435	-128.137	0.339	0.048
-345.420	128.825	-0.120	0.153
-344.406	-135.518	-0.179	0.021
-343.391	228.691	0.075	-0.123
-342.377	-200.000	-0.015	-0.180
-341.362	-200.000	0.072	0.325
-340.348	-200.000	0.074	0.340
-339.333	-74.516	-0.254	-0.091
-338.318	143.721	-0.176	0.234
-337.304	2.286	0.238	0.172
-336.289	233.241	-0.261	0.428
-335.275	-58.407	-0.150	0.065
-334.260	177.884	-0.181	-0.263
-333.245	222.801	0.004	0.007
-332.231	42.586	0.123	-0.111
-331.216	-200.000	0.007	-0.162
-330.202	92.368	0.155	-0.174
-329.187	299.008	-0.085	0.156
-328.172	-153.660	0.299	0.021
-327.158	269.615	-0.047	0.083
-326.143	199.563	0.158	0.242
-325.129	-200.000	0.013	-0.245
-324.114	-117.252	-0.480	0.087
-323.099	487.638	0.113	-0.257
-322.085	-84.280	0.224	-0.071
-321.070	-200.000	0.059	-0.267
-320.056	-200.000	-0.005	0.256
-319.041	569.365	-0.149	-0.361
-318.026	54.769	0.125	-0.120
-317.012	344.658	-0.129	0.253
-315.997	800.000	0.077	-0.325
-314.983	188.890	-0.148	0.221
-313.968	29.210	-0.062	0.052
-312.953	-175.384	0.314	-0.009
-311.939	-85.528	-0.159	-0.049
-310.924	176.025	-0.235	-0.340
-309.910	56.371	-0.139	0.135
-308.895	-91.783	0.296	0.084
-307.880	-124.533	-0.270	-0.042
-306.866	-25.305	0.308	0.182
-305.851	-200.000	-0.023	0.356
-304.837	-145.014	-0.045	-0.004
-303.822	-27.913	-0.087	0.050
-302.807	236.599	0.006	-0.010
-301.793	66.835	-0.231	-0.234
-300.778	-122.864	0.204	0.033
-299.764	-73.612	0.316	-0.115
-298.749	34.179	0.168	-0.146
-297.735	-78.090	-0.169	0.058
-296.720	132.169	0.094	-0.120
-295.705	-25.734	0.322	0.189
-294.691	-135.819	-0.203	-0.024
-293.676	129.815	-0.207	0.263
-292.662	124.071	-0.138	0.172
-291.647	-79.615	-0.267	0.090
-290.632	-166.342	0.188	0.008
-289.618	-44.895	-0.114	0.057
-288.603	-26.419	0.016	0.009
-287.589	800.000	0.103	0.399
-286.574	45.558	0.226	-0.208
-285.559	222.932	0.026	-0.042
-284.545	-200.000	-0.015	0.083
-283.530	-200.000	-0.002	-0.035
-282.516	399.722	-0.012	-0.026
-281.501	90.781	0.196	-0.218
-280.486	-73.794	-0.026	-0.009
-279.472	-19.967	0.201	-0.123
-278.457	-87.366	0.073	-0.022
-277.443	112.146	-0.219	0.264
-276.428	-84.411	0.125	0.039
-275.413	800.000	-0.018	-0.051
-274.399	20.282	-0.130	0.104
-273.384	-120.260	-0.113	0.019
-272.370	109.055	0.124	0.148
-271.355	800.000	0.054	0.207
-270.340	218.681	0.217	0.345
-269.326	-200.000	0.052	-0.288
-268.311	-29.598	-0.304	-0.173
-267.297	137.282	-0.176	-0.229
-266.282	-161.988	0.254	0.013
-265.267	-32.731	0.208	-0.115
-264.253	-185.125	-0.164	0.003
-263.238	73.139	0.093	0.096
-262.224	-8.286	-0.147	0.098
-261.209	235.155	-0.078	-0.128
-260.195	-70.702	-0.063	-0.024
-259.180	241.523	-0.146	0.243
-258.165	199.856	-0.048	0.073
-257.151	238.756	0.080	0.132
-256.136	-78.284	0.340	0.116
-255.122	136.517	0.025	-0.033
-254.107	-67.022	-0.054	0.021
-253.092	220.519	0.154	0.246
-252.078	401.537	0.086	0.180
-251.063	460.890	-0.077	0.170
-250.049	800.000	-0.085	0.267
-249.034	11.334	-0.214	0.163
-248.019	-167.744	0.057	0.002
-247.005	28.589	0.108	0.091
-245.990	81.224	0.078	-0.084
-244.976	225.966	0.020	-0.033
-243.961	33.416	0.141	0.121
-242.946	-200.000	0.007	0.061
-241.932	644.851	0.073	-0.186
-240.917	26.951	-0.239	0.199
-239.903	-17.716	0.007	0.004
-238.888	-200.000	0.026	-0.121
-237.873	-13.384	-0.120	-0.078
-236.859	-31.018	0.187	-0.105
-235.844	17.092	-0.074	-0.059
-234.830	800.000	-0.037	0.122
-233.815	800.000	0.042	0.167
-232.800	-30.069	0.220	-0.124
-231.786	94.200	-0.138	-0.156
-230.771	52.334	0.226	-0.214
-229.757	97.013	0.105	-0.120
-228.742	800.000	0.121	0.493
-227.727	-37.756	0.181	0.096
-226.713	-200.000	0.034	0.243
-225.698	-35.762	-0.083	0.045
-224.684	-58.729	-0.155	0.067
-223.669	800.000	-0.071	0.205
-222.655	228.190	-0.146	0.236
-221.640	6.025	-0.086	-0.063
-220.625	145.802	-0.133	-0.177
-219.611	-123.679	0.141	0.022
-218.596	528.183	0.054	-0.126
-217.582	17.894	-0.240	-0.190
-216.567	-200.000	0.013	0.198
-215.552	-200.000	0.010	0.129
-214.538	-41.705	-0.194	-0.099
-213.523	223.020	0.146	0.233
-212.509	28.117	0.228	0.191
-211.494	267.848	0.045	0.078
-210.479	617.763	-0.098	0.245
-209.465	1.656	-0.130	-0.093
-208.450	-67.857	-0.169	-0.065
-207.436	-200.000	-0.029	0.191
-206.421	-41.052	0.192	-0.099
-205.406	126.562	0.205	-0.258
-204.392	254.993	0.195	0.331
-203.377	262.616	-0.061	0.105
-202.363	800.000	0.037	0.133
-201.348	800.000	-0.056	0.212
-200.333	-159.094	-0.218	0.012
-199.319	-149.464	-0.177	0.014
-198.304	257.801	-0.115	0.196
-197.290	50.248	-0.038	0.036
-196.275	29.723	-0.225	0.190
-195.260	59.968	0.088	0.086
-194.246	-200.000	-0.018	-0.108
-193.231	196.295	0.183	0.276
-192.217	800.000	0.099	0.289
-191.202	800.000	-0.064	-0.197
-190.187	748.052	-0.063	-0.168
-189.173	304.255	-0.094	-0.173
-188.158	154.774	0.074	0.101
-187.144	800.000	-0.077	0.260
-186.129	-148.220	0.602	0.049
-185.114	-80.733	0.336	0.111
-184.100	-111.864	0.448	-0.090
-183.085	-85.618	-0.413	-0.127
-182.071	213.974	0.221	-0.347
-181.056	-200.000	0.010	0.054
-180.042	-82.947	-0.140	0.045
-179.027	-85.899	0.251	-0.077
-178.012	276.738	-0.199	-0.351
-176.998	354.339	-0.037	0.074
-175.983	394.845	-0.079	-0.164
-174.969	306.082	-0.124	0.228
-173.954	-200.000	0.031	0.170
-172.939	-2.491	0.062	0.043
-171.925	-145.125	0.108	-0.010
-170.910	100.974	-0.188	-0.217
-169.896	-11.574	0.206	-0.135
-168.881	-200.000	-0.005	-0.125
-167.866	-103.984	-0.260	-0.060
-166.852	-200.000	-0.007	0.077
-165.837	52.244	0.344	-0.325
-164.823	724.580	0.018	0.048
-163.808	-187.298	0.148	-0.002
-162.793	108.224	0.090	0.106
-161.779	-97.197	0.142	0.037
-160.764	800.000	-0.037	0.146
-159.750	800.000	-0.040	-0.116
-158.735	158.232	-0.071	-0.098
-157.720	113.233	-0.110	-0.132
-156.706	-100.176	0.107	0.026
-155.691	-124.897	0.422	0.064
-154.677	625.826	0.039	-0.097
-153.662	-200.000	0.013	-0.313
-152.647	800.000	-0.046	0.190
-151.633	-80.644	0.151	-0.050
-150.618	168.746	0.109	-0.153
-149.604	800.000	0.059	-0.189
-148.589	16.706	-0.203	0.159
-147.574	-114.273	-0.215	0.041
-146.560	800.000	0.107	-0.333
-145.545	-121.517	-0.272	0.045
-144.531	-200.000	0.031	-0.273
-143.516	88.700	-0.048	0.053
-142.502	590.807	-0.177	-0.433
-141.487	153.743	0.186	-0.253
-140.472	-200.000	0.084	0.000
-139.458	-200.000	-0.024	0.232
-138.443	122.542	-0.337	0.418
-137.429	145.867	0.136	0.180
-136.414	403.729	0.099	-0.206
-135.399	63.836	0.173	0.172
-134.385	615.826	0.154	-0.382
-133.370	-19.971	0.091	-0.056
-132.356	51.047	0.294	0.276
-131.341	124.135	-0.191	-0.237
-130.326	26.065	0.149	-0.123
-129.312	-200.000	-0.037	-0.256
-128.297	109.295	-0.114	-0.135
-127.283	-200.000	-0.003	0.177
-126.268	-200.000	0.031	-0.161
-125.253	427.521	-0.031	-0.065
-124.239	138.823	0.185	0.240
-123.224	268.525	-0.127	0.220
-122.210	-34.287	-0.390	0.212
-121.195	56.223	0.034	0.032
-120.180	112.270	-0.112	0.134
-119.166	-200.000	-0.022	0.107
-118.151	-100.004	-0.340	-0.084
-117.137	56.558	0.237	-0.228
-116.122	-89.783	0.257	0.074
-115.107	-200.000	-0.007	0.145
-114.093	571.985	-0.007	0.018
-113.078	-36.566	0.211	-0.112
-112.064	-200.000	0.053	-0.317
-111.049	550.401	-0.068	0.161
-110.034	-12.452	0.211	0.136
-109.020	25.621	0.070	0.058
-108.005	53.021	-0.092	0.087
-106.991	800.000	0.092	0.274
-105.976	257.472	-0.140	0.237
-104.962	36.483	0.258	0.225
-103.947	23.678	-0.273	-0.223
-102.932	-68.188	-0.194	0.075
-101.918	800.000	0.071	-0.281
-100.903	-113.919	0.149	-0.029
-99.889	137.941	-0.094	0.122
-98.874	128.197	-0.148	0.186
-97.859	207.824	-0.075	0.116
-96.845	-63.100	-0.088	-0.036
-95.830	-170.591	0.316	0.011
-94.816	466.998	0.105	-0.233
-93.801	778.875	-0.088	0.238
-92.786	456.194	-0.120	-0.264
-91.772	394.786	0.099	-0.204
-90.757	484.769	-0.076	-0.172
-89.743	-200.000	-0.025	-0.180
-88.728	65.608	0.176	-0.176
-87.713	-73.731	-0.342	0.123
-86.699	-200.000	-0.042	-0.184
-85.684	-5.690	-0.182	0.123
-84.670	-34.575	-0.266	-0.144
-83.655	800.000	0.098	0.298
-82.640	22.211	0.208	0.168
-81.626	-71.480	-0.036	-0.013
-80.611	-200.000	-0.010	0.275
-79.597	137.680	0.181	0.235
-78.582	57.496	-0.213	0.206
-77.567	426.653	-0.074	-0.158
-76.553	800.000	0.050	0.180
-75.538	-139.980	0.370	0.039
-74.524	201.459	0.186	-0.283
-73.509	-200.000	0.043	0.208
-72.494	408.850	0.076	-0.160
-71.480	800.000	0.055	-0.153
-70.465	-200.000	0.010	0.266
-69.451	-95.102	0.214	-0.057
-68.436	303.214	-0.036	-0.065
-67.422	76.615	-0.155	-0.163
-66.407	8.112	0.203	0.150
-65.392	38.236	-0.254	0.224
-64.378	-200.000	0.028	-0.329
-63.363	-126.210	-0.310	-0.046
-62.349	-113.999	0.212	-0.041
-61.334	111.074	-0.732	-0.871
-60.319	235.189	0.123	0.201
-59.305	-200.000	-0.159	-0.911
-58.290	421.366	0.439	0.930
-57.276	800.000	0.609	1.780
-56.261	-200.000	102.229	598.177
-55.246	601.298	1429.074	3504.293
-54.232	181.235	2646.094	3839.740
-53.217	118.740	2205.772	2689.095
-52.203	44.822	1734.089	1574.936
-51.188	37.633	1543.675	1352.240
-50.173	35.225	1515.897	1311.396
-49.159	54.299	1569.624	1491.255
-48.144	57.347	1587.847	1529.735
-47.130	37.905	1540.899	1351.474
-46.115	34.698	1525.540	1315.904
-45.100	34.582	1522.538	1312.461
-44.086	34.598	1520.589	1310.840
-43.071	34.518	1518.269	1308.236
-42.057	34.462	1517.100	1306.793
-41.042	34.476	1515.660	1305.601
-40.027	34.505	1514.352	1304.616
-39.013	34.467	1512.917	1303.069
-37.998	34.509	1511.373	1301.980
-36.984	34.479	1510.510	1300.975
-35.969	34.460	1509.063	1299.551
-34.954	34.424	1507.886	1298.238
-33.940	34.461	1506.080	1296.888
-32.925	34.442	1504.841	1295.638
-31.911	34.512	1503.558	1294.956
-30.896	34.523	1502.222	1293.832
-29.881	34.660	1500.727	1293.421
-28.867	34.575	1499.115	1291.405
-27.852	34.559	1498.341	1290.577
-26.838	34.566	1496.419	1288.920
-25.823	34.472	1494.897	1286.919
-24.809	34.515	1493.218	1285.717
-23.794	34.517	1492.165	1284.772
-22.779	34.531	1490.907	1283.732
-21.765	34.560	1489.827	1282.944
-20.750	34.624	1488.244	1281.959
-19.736	34.560	1487.222	1280.602
-18.721	34.545	1486.179	1279.548
-17.706	34.476	1485.669	1278.599
-16.692	34.486	1484.484	1277.590
-15.677	34.478	1483.002	1276.216
-14.663	34.506	1482.380	1275.815
-13.648	34.497	1481.078	1274.582
-12.633	34.456	1480.360	1273.643
-11.619	34.485	1479.442	1272.995
-10.604	34.467	1478.309	1271.851
-9.590	34.527	1477.376	1271.395
-8.575	34.405	1477.044	1270.244
-7.560	34.552	1476.092	1270.354
-6.546	34.514	1475.031	1269.142
-5.531	34.439	1474.596	1268.216
-4.517	34.435	1473.124	1266.871
-3.502	34.432	1472.718	1266.454
-2.487	34.465	1471.348	1265.444
-1.473	34.467	1470.559	1264.731
-0.458	34.471	1468.531	1262.964
0.556	31.924	1458.991	1250.302
1.571	28.335	1431.596	1203.191
2.586	24.106	1367.665	1122.756
3.600	22.270	1284.167	1043.240
4.615	20.962	1238.661	998.695
5.629	18.042	1182.994	937.726
6.644	8.713	1097.250	821.988
7.659	1.175	1054.010	752.241
8.673	-0.210	1048.954	741.729
9.688	-0.228	1045.348	739.022
10.702	-0.471	1044.305	737.024
11.717	-0.430	1042.223	735.692
12.731	2.553	1045.383	752.526
13.746	11.521	1058.414	806.284
14.761	17.739	1065.895	842.737
15.775	18.121	1064.773	843.661
16.790	17.822	1064.594	841.969
17.804	17.442	1063.473	839.134
18.819	17.234	1062.571	837.323
19.834	17.351	1061.565	837.033
20.848	17.470	1061.291	837.327
21.863	17.345	1060.738	836.201
22.877	17.420	1060.258	836.117
23.892	17.278	1059.844	835.018
24.907	17.358	1058.536	834.307
25.921	17.208	1058.218	833.246
26.936	17.327	1057.889	833.500
27.950	17.452	1056.063	832.599
28.965	17.387	1054.749	831.172
29.980	17.263	1053.089	829.184
30.994	17.227	1051.597	827.758
32.009	17.432	1050.820	828.075
33.023	17.480	1050.315	827.835
34.038	17.308	1048.570	825.553
35.053	17.331	1047.696	824.903
36.067	17.487	1046.969	825.012
37.082	17.428	1046.693	824.435
38.096	17.487	1045.449	823.668
39.111	17.590	1044.802	823.584
40.126	17.762	1043.546	823.351
41.140	17.675	1041.977	821.621
42.155	17.445	1040.755	819.480
43.169	17.214	1039.302	817.149
44.184	17.199	1038.611	816.464
45.199	17.305	1037.340	815.901
46.213	17.181	1035.878	814.082
47.228	17.108	1035.100	813.050
48.242	17.128	1033.923	812.150
49.257	17.235	1032.592	811.544
50.271	17.338	1031.684	811.249
51.286	17.411	1030.813	810.843
52.301	17.342	1030.156	809.923
53.315	17.336	1029.320	809.168
54.330	17.441	1028.023	808.575
55.344	17.273	1027.541	807.326
56.359	17.428	1026.415	807.104
57.374	17.363	1025.826	806.265
58.388	17.307	1024.370	804.784
59.403	17.253	1023.463	803.744
60.417	17.367	1022.780	803.676
61.432	17.199	1021.535	801.830
62.447	17.290	1021.027	801.793
63.461	17.227	1020.673	801.144
64.476	17.320	1019.955	800.948
65.490	17.133	1018.930	799.191
66.505	17.207	1018.035	798.768
67.520	17.181	1017.071	797.820
68.534	17.202	1016.476	797.380
69.549	17.272	1015.010	796.488
70.563	16.981	1013.863	794.153
71.578	16.942	1013.433	793.568
72.593	17.021	1012.627	793.235
73.607	16.910	1011.290	791.598
74.622	16.788	1010.659	790.465
75.636	17.087	1009.911	791.203
76.651	17.343	1008.973	791.592
77.666	17.064	1008.142	789.572
78.680	17.039	1007.203	788.649
79.695	17.134	1006.032	788.104
80.709	17.090	1006.527	788.219
81.724	17.213	1005.140	787.630
82.739	17.238	1003.999	786.785
83.753	17.220	1003.334	786.111
84.768	17.338	1002.271	785.754
85.782	17.524	1001.935	786.277
86.797	17.702	1000.858	786.184
87.812	17.505	999.820	784.392
88.826	17.453	998.919	783.377
89.841	17.454	998.155	782.712
90.855	17.538	997.365	782.409
91.870	17.603	996.449	781.922
92.884	17.531	995.812	781.021
93.899	17.496	994.783	779.985
94.914	17.408	993.807	778.749
95.928	17.541	993.046	778.690
96.943	17.553	992.378	778.153
97.957	17.434	991.354	776.740
98.972	17.186	989.607	774.170
99.987	16.876	989.150	772.334
101.001	16.935	988.429	771.970
102.016	17.292	987.699	772.956
103.030	17.397	986.610	772.510
104.045	17.354	984.889	770.903
105.060	16.979	984.138	768.547
106.074	16.902	982.642	766.963
107.089	16.926	982.187	766.647
108.103	17.437	981.763	768.557
109.118	17.483	980.735	767.892
110.133	17.428	979.661	766.733
111.147	17.479	978.684	766.129
112.162	17.302	977.706	764.504
113.176	17.094	976.826	762.811
114.191	17.231	975.850	762.598
115.206	17.289	974.426	761.678
116.220	17.051	973.183	759.573
117.235	17.047	972.314	758.808
118.249	17.095	971.464	758.295
119.264	17.146	970.543	757.737
120.279	17.046	970.085	756.862
121.293	17.019	969.324	756.086
122.308	17.135	968.515	755.903
123.322	17.157	967.889	755.446
124.337	17.212	966.695	754.689
125.352	16.953	965.612	752.630
126.366	16.838	963.080	750.081
127.381	16.411	961.663	747.024
128.395	16.933	961.191	748.896
129.410	17.383	960.543	750.310
130.424	17.567	960.016	750.642
131.439	17.598	958.604	749.607
132.454	17.392	957.753	747.970
133.468	17.505	957.051	747.855
134.483	17.309	956.334	746.364
135.497	17.446	955.456	746.218
136.512	17.613	954.947	746.485
137.527	17.580	954.257	745.734
138.541	17.606	953.180	744.940
139.556	17.640	952.042	744.136
140.570	17.449	951.566	742.863
141.585	17.705	950.295	742.921
142.600	17.751	949.492	742.429
143.614	17.541	948.477	740.654
144.629	17.596	948.091	740.525
145.643	17.736	947.481	740.592
146.658	17.680	945.926	739.071
147.673	17.467	945.466	737.722
148.687	17.512	944.296	736.937
149.702	17.547	942.665	735.752
150.716	17.508	942.062	735.047
151.731	17.456	940.921	733.868
152.746	17.563	940.245	733.737
153.760	17.794	939.855	734.360
154.775	17.791	939.104	733.694
155.789	17.954	938.429	733.802
156.804	17.855	936.942	732.150
157.819	17.769	935.910	730.914
158.833	17.726	935.193	730.105
159.848	17.802	934.672	729.957
160.862	17.821	933.756	729.259
161.877	17.718	932.825	728.029
162.892	17.629	931.857	726.830
163.906	17.774	931.474	727.081
164.921	17.764	930.560	726.262
165.935	17.799	929.545	725.556
166.950	17.847	928.155	724.608
167.964	17.741	927.369	723.483
168.979	17.650	926.350	722.238
169.994	17.625	925.945	721.750
171.008	17.578	924.314	720.219
172.023	17.748	923.444	720.196
173.037	17.808	922.636	719.753
174.052	17.443	921.603	717.344
175.067	17.340	920.616	716.082
176.081	17.445	919.919	715.918
177.096	17.628	919.109	715.993
178.110	17.627	918.222	715.234
179.125	17.565	916.891	713.873
180.140	17.429	915.836	712.418
181.154	17.377	915.276	711.705
182.169	17.410	914.425	711.119
183.183	17.563	914.116	711.454
184.198	17.754	913.460	711.675
185.213	17.797	912.879	711.339
186.227	17.542	912.374	709.823
187.242	17.782	911.678	710.216
188.256	17.852	910.852	709.803
189.271	17.754	910.047	708.704
190.286	17.893	908.995	708.397
191.300	17.668	908.489	707.010
192.315	17.368	907.019	704.558
193.329	16.744	905.995	701.118
194.344	16.516	904.679	699.097
195.359	17.046	904.741	701.272
196.373	17.631	904.898	703.751
197.388	17.844	904.522	704.276
198.402	17.768	903.467	703.078
199.417	17.552	902.759	701.573
200.432	17.553	902.333	701.187
201.446	17.268	901.894	699.610
202.461	17.070	900.945	697.997
203.475	17.179	900.374	697.941
204.490	16.754	899.301	695.304
205.504	15.898	897.313	690.199
206.519	16.405	897.001	691.971
207.534	17.121	897.447	695.189
208.548	17.237	896.885	695.167
209.563	17.563	896.579	696.199
210.577	17.637	895.928	695.934
211.592	17.489	894.930	694.495
212.607	17.581	895.047	694.898
213.621	17.755	893.833	694.606
214.636	17.608	893.280	693.515
215.650	17.769	892.762	693.705
216.665	17.677	891.996	692.674
217.680	17.884	891.286	692.901
218.694	17.837	891.110	692.516
219.709	17.513	889.573	689.946
220.723	17.223	888.662	688.004
221.738	17.554	888.326	689.022
222.753	17.698	887.876	689.194
223.767	17.705	886.603	688.173
224.782	17.714	886.250	687.876
225.796	17.842	885.482	687.733
226.811	18.052	884.774	687.969
227.826	17.570	883.780	685.197
228.840	16.879	882.485	681.355
229.855	16.918	881.819	680.939
230.869	17.157	881.168	681.332
231.884	16.777	880.214	679.012
232.899	16.819	879.397	678.489
233.913	17.463	879.553	681.130
234.928	17.896	879.074	682.431
235.942	17.912	878.268	681.806
236.957	17.943	877.461	681.243
237.972	17.717	876.906	679.851
238.986	17.584	875.927	678.503
240.001	17.635	875.355	678.202
241.015	17.727	874.305	677.695
242.030	17.559	874.177	676.868
243.045	17.612	873.463	676.468
244.059	17.554	872.969	675.792
245.074	17.856	872.525	676.586
246.088	17.874	871.616	675.895
247.103	17.483	870.512	673.430
248.117	17.465	869.664	672.643
249.132	17.971	869.476	674.438
250.147	18.192	868.528	674.515
251.161	18.124	867.985	673.764
252.176	18.359	867.335	674.125
253.190	18.293	866.894	673.465
254.205	18.368	866.037	673.032
255.220	18.491	865.947	673.388
256.234	18.535	865.300	672.997
257.249	18.328	864.867	671.788
258.263	18.277	864.059	670.900
259.278	18.458	863.428	671.061
260.293	18.437	862.763	670.405
261.307	18.458	862.056	669.879
262.322	18.337	861.591	668.983
263.336	18.409	860.191	668.119
264.351	17.837	859.299	665.136
265.366	16.805	857.293	659.509
266.380	16.334	856.403	656.935
267.395	17.175	856.614	660.309
268.409	18.033	856.590	663.565
269.424	17.984	855.894	662.778
270.439	18.400	855.314	663.884
271.453	18.293	854.778	662.993
272.468	18.236	854.257	662.310
273.482	18.392	854.043	662.688
274.497	18.658	853.108	662.933
275.512	18.479	851.999	661.321
276.526	17.949	850.412	657.993
277.541	17.848	850.410	657.541
278.555	18.473	849.713	659.352
279.570	18.161	848.741	657.337
280.585	17.886	847.878	655.555
281.599	18.142	847.288	656.023
282.614	18.198	847.225	656.131
283.628	17.918	845.812	653.907
284.643	17.703	845.093	652.470
285.657	18.007	845.064	653.555
286.672	17.881	844.276	652.405
287.687	17.397	843.257	649.711
288.701	17.754	843.285	651.040
289.716	18.092	842.643	651.774
290.730	17.810	841.797	649.988
291.745	17.772	841.051	649.211
292.760	17.523	840.097	647.470
293.774	17.368	839.391	646.281
294.789	18.166	839.906	649.650
295.803	18.685	839.439	651.203
296.818	18.761	839.081	651.157
297.833	19.018	838.404	651.545
298.847	18.671	837.370	649.372
299.862	18.506	836.379	647.921
300.876	18.656	835.933	648.085
301.891	18.823	835.442	648.277
302.906	18.851	834.660	647.719
303.920	18.330	833.478	644.784
304.935	18.243	832.878	643.934
305.949	18.543	832.910	645.031
306.964	18.769	832.007	645.124
307.979	18.543	831.578	643.887
308.993	18.564	831.414	643.780
310.008	18.952	830.637	644.579
311.022	18.934	830.448	644.305
312.037	18.777	829.532	642.948
313.052	18.750	828.972	642.358
314.066	18.666	828.318	641.480
315.081	18.308	826.761	638.884
316.095	17.498	825.499	634.832
317.110	18.026	825.821	636.991
318.125	18.684	825.859	639.419
319.139	18.127	825.335	636.881
320.154	17.355	823.724	632.711
321.168	17.073	822.728	630.840
322.183	17.551	822.917	632.707
323.197	18.357	823.139	635.817
324.212	18.536	822.671	636.061
325.227	18.682	822.283	636.245
326.241	18.843	821.627	636.280
327.256	18.804	820.818	635.453
328.270	18.590	820.583	634.424
329.285	18.569	819.612	633.537
330.300	18.532	819.327	633.123
331.314	18.356	818.475	631.761
332.329	18.463	817.654	631.465
333.343	18.796	816.853	632.016
334.358	18.856	816.852	632.180
335.373	18.873	816.160	631.652
336.387	18.972	815.499	631.447
337.402	19.122	815.021	631.574
338.416	19.334	814.372	631.792
339.431	18.991	814.154	630.308
340.446	19.143	813.136	630.023
341.460	19.136	812.823	629.697
342.475	19.167	812.297	629.348
343.489	18.868	811.415	627.515
344.504	18.940	810.834	627.276
345.519	19.170	810.450	627.759
346.533	19.272	810.717	628.285
347.548	19.209	810.441	627.786
348.562	19.541	809.249	628.012
349.577	19.521	808.802	627.539
350.592	19.531	808.188	627.042
351.606	19.598	807.718	626.866
352.621	19.542	807.427	626.383
353.635	19.467	806.798	625.566
354.650	19.338	806.184	624.569
355.665	19.082	805.439	623.010
356.679	18.179	804.061	618.622
357.694	18.120	803.109	617.624
358.708	18.579	803.357	619.417
359.723	18.548	802.844	618.856
360.738	18.769	802.442	619.288
361.752	19.327	802.054	620.944
362.767	19.309	801.872	620.682
363.781	19.487	801.419	620.915
364.796	19.604	801.464	621.319
365.810	19.642	801.012	621.048
366.825	19.676	800.760	620.921
367.840	19.628	800.236	620.288
368.854	19.722	799.257	619.810
369.869	19.305	798.623	617.771
370.883	19.202	797.959	616.833
371.898	19.233	797.794	616.762
372.913	19.083	796.806	615.408
373.927	19.066	796.078	614.732
374.942	19.300	795.401	614.986
375.956	19.519	795.086	615.470
376.971	19.564	794.355	615.010
377.986	19.536	793.995	614.579
379.000	19.669	793.426	614.557
380.015	19.732	792.722	614.180
381.029	19.525	792.399	613.140
382.044	19.567	792.082	612.990
383.059	19.944	791.052	613.473
384.073	19.653	790.760	612.164
385.088	19.696	790.459	612.029
386.102	19.738	789.952	611.731
387.117	19.702	789.463	611.168
388.132	19.656	788.759	610.407
389.146	19.542	788.375	609.654
390.161	19.134	787.075	607.156
391.175	19.069	786.758	606.630
392.190	19.329	786.766	607.498
393.205	19.447	786.516	607.667
394.219	18.721	784.847	603.773
395.234	17.550	782.766	598.009
396.248	16.860	782.384	595.242
397.263	17.797	782.910	598.880
398.278	19.272	783.913	604.776
399.292	19.692	783.974	606.241
400.307	19.431	783.183	604.660
401.321	19.497	782.609	604.394
402.336	19.439	782.602	604.134
403.350	19.745	782.581	605.137
404.365	19.895	781.933	605.105
405.380	20.133	781.536	605.577
406.394	20.217	781.372	605.690
407.409	20.559	780.558	606.198
408.423	20.366	780.366	605.321
409.438	20.228	779.693	604.267
410.453	20.130	778.891	603.250
411.467	20.327	778.951	603.928
412.482	20.342	778.267	603.395
413.496	20.309	777.629	602.732
414.511	20.273	777.757	602.653
415.526	20.272	777.181	602.152
416.540	20.199	777.000	601.706
417.555	20.381	776.468	601.872
418.569	20.054	775.481	599.919
419.584	20.017	774.808	599.216
420.599	20.164	774.186	599.190
421.613	155.183	1358.913	1792.562
422.628	133.869	1444.119	1792.669
