DTS Sentinel unit serial number:	SN413079Multiplexer serial number:	ORYXHardware model number:	OX4-SRSoftware version number:	ORYX F/W v4.00 Oryx Data Collector v3.7.2.0data status	okinstallation	princeton_trtdifferential loss correction	single-endedforward channel	channel 3reverse channel	N/Adate	2019/09/12time	01:02:11forward acquisition time	60.00reverse acquisition time	0.00gamma	496.2192k internal	0.2319k external	0.2319temperature offset calibration	1.0068default loss term (dB/km)	0.3790temperature slope calibration	1.0000multiplexer offset coefficient	1.0000multiplexer slope coefficient	1.0000fibre end	0.00T internal ref (°C)	33.17T ext. ref 1 (°C)	2.06T ext. ref 2 (°C)	26.91length (m)	temperature (°C)	Stokes	anti-Stokes-747.200	-156.232	-0.027	0.002
-746.185	-17.704	0.335	0.213
-745.171	62.090	-0.229	0.231
-744.156	376.641	-0.075	0.155
-743.142	-139.369	0.177	-0.019
-742.127	-200.000	-0.063	0.363
-741.112	-27.383	-0.044	0.026
-740.098	86.975	-0.365	0.408
-739.083	800.000	0.036	0.103
-738.069	-174.950	-0.262	0.007
-737.054	9.193	-0.278	-0.212
-736.039	-72.798	-0.268	0.100
-735.025	-76.655	0.583	0.207
-734.010	124.346	-0.195	-0.248
-732.996	-111.847	0.225	-0.046
-731.981	-161.751	0.081	0.004
-730.966	279.563	0.026	0.047
-729.952	-200.000	-0.005	0.069
-728.937	2.570	-0.123	-0.090
-727.923	27.350	-0.078	0.067
-726.908	-15.984	-0.199	-0.128
-725.894	-20.383	-0.152	-0.094
-724.879	109.618	-0.086	0.104
-723.864	268.176	0.085	0.151
-722.850	800.000	-0.086	0.264
-721.835	19.314	0.332	-0.270
-720.821	643.062	-0.083	-0.213
-719.806	-149.264	-0.125	0.010
-718.791	-200.000	-0.021	-0.219
-717.777	609.775	-0.093	0.236
-716.762	-32.093	-0.243	0.137
-715.748	800.000	0.052	0.198
-714.733	272.660	-0.182	-0.325
-713.718	-10.831	0.046	-0.031
-712.704	-200.000	0.014	0.155
-711.689	-168.918	0.153	0.006
-710.675	596.181	0.038	-0.094
-709.660	206.981	0.022	0.034
-708.645	38.301	-0.141	0.127
-707.631	-200.000	-0.010	-0.065
-706.616	-84.629	0.469	0.149
-705.602	74.171	-0.205	0.217
-704.587	800.000	-0.022	-0.071
-703.572	-76.608	0.201	0.071
-702.558	-50.978	0.218	0.103
-701.543	-32.071	0.330	-0.186
-700.529	-22.916	0.252	-0.153
-699.514	-67.610	-0.318	0.126
-698.499	-200.000	0.009	0.269
-697.485	-27.302	0.141	-0.083
-696.470	44.054	-0.156	0.145
-695.456	-200.000	-0.065	0.368
-694.441	-200.000	-0.022	0.221
-693.426	800.000	-0.068	-0.232
-692.412	-84.256	-0.353	-0.113
-691.397	800.000	0.089	0.334
-690.383	66.216	-0.092	-0.094
-689.368	145.313	-0.133	0.180
-688.354	-76.012	0.167	-0.059
-687.339	-61.052	0.282	-0.120
-686.324	-97.721	-0.042	-0.011
-685.310	137.522	-0.267	0.353
-684.295	-88.418	0.085	0.026
-683.281	42.516	-0.131	0.121
-682.266	-200.000	0.206	-0.001
-681.251	129.178	0.125	-0.162
-680.237	800.000	-0.012	-0.048
-679.222	800.000	0.167	0.540
-678.208	106.698	0.192	-0.230
-677.193	52.621	0.112	0.108
-676.178	-30.025	-0.039	-0.022
-675.164	800.000	0.108	0.393
-674.149	-200.000	-0.010	-0.068
-673.135	293.610	0.155	-0.286
-672.120	-200.000	-0.009	-0.405
-671.105	-200.000	0.013	-0.105
-670.091	-82.976	0.295	0.096
-669.076	-50.438	-0.151	-0.072
-668.062	-200.000	-0.044	-0.301
-667.047	800.000	-0.041	-0.115
-666.032	-200.000	-0.105	-0.477
-665.018	-200.000	0.019	0.172
-664.003	336.592	0.151	-0.296
-662.989	-53.186	0.095	-0.044
-661.974	-102.772	-0.295	0.071
-660.959	316.927	-0.127	-0.243
-659.945	-200.000	0.000	-0.102
-658.930	-200.000	0.069	-0.357
-657.916	-200.000	0.043	0.238
-656.901	227.551	-0.122	-0.201
-655.886	-37.770	-0.158	-0.085
-654.872	-84.640	0.209	0.066
-653.857	800.000	0.054	0.197
-652.843	-94.922	0.336	0.092
-651.828	310.634	-0.150	-0.283
-650.814	-102.842	-0.398	0.095
-649.799	-195.714	0.233	-0.002
-648.784	-99.834	0.270	-0.068
-647.770	157.250	0.266	-0.371
-646.755	800.000	-0.039	-0.122
-645.741	-33.538	-0.173	0.096
-644.726	-52.582	-0.201	0.093
-643.711	7.585	0.141	-0.106
-642.697	-56.571	0.634	-0.283
-641.682	73.695	-0.097	-0.102
-640.668	-97.645	-0.491	-0.128
-639.653	-60.713	-0.186	-0.079
-638.638	800.000	-0.044	-0.136
-637.624	285.191	0.121	0.219
-636.609	119.203	0.127	-0.158
-635.595	372.684	-0.087	0.179
-634.580	-129.467	0.151	0.021
-633.565	-200.000	0.001	-0.083
-632.551	274.268	-0.121	0.215
-631.536	-74.374	0.220	-0.080
-630.522	-200.000	-0.018	0.137
-629.507	-200.000	0.028	0.243
-628.492	-86.506	-0.136	-0.042
-627.478	171.213	-0.143	-0.206
-626.463	-163.654	0.075	0.004
-625.449	31.032	0.127	0.110
-624.434	800.000	-0.105	0.298
-623.419	-3.899	0.112	-0.078
-622.405	-200.000	0.030	-0.352
-621.390	104.933	-0.149	-0.176
-620.376	46.592	0.388	-0.363
-619.361	754.961	-0.032	-0.086
-618.346	-109.027	-0.198	0.042
-617.332	-167.416	-0.193	-0.008
-616.317	-132.647	-0.185	-0.024
-615.303	330.386	-0.161	0.313
-614.288	151.484	0.138	0.190
-613.273	37.293	-0.394	0.351
-612.259	-131.344	-0.173	0.023
-611.244	-123.916	-0.100	0.016
-610.230	-200.000	-0.038	-0.313
-609.215	-200.000	-0.042	0.330
-608.201	22.426	-0.297	-0.244
-607.186	-43.151	0.129	-0.066
-606.171	-77.804	-0.223	-0.077
-605.157	-52.647	-0.274	-0.127
-604.142	-123.773	0.341	-0.054
-603.128	3.317	0.220	-0.161
-602.113	37.817	-0.195	-0.174
-601.098	206.487	0.211	0.331
-600.084	71.948	-0.078	0.082
-599.069	-200.000	-0.019	-0.538
-598.055	618.094	-0.024	0.061
-597.040	-108.083	0.174	0.038
-596.025	-42.151	0.174	-0.089
-595.011	-43.286	0.085	0.043
-593.996	-165.240	0.311	-0.014
-592.982	-83.760	0.207	-0.067
-591.967	-143.014	-0.262	-0.026
-590.952	53.976	0.252	-0.243
-589.938	-200.000	-0.029	0.211
-588.923	19.510	-0.326	-0.263
-587.909	-111.263	-0.069	0.014
-586.894	800.000	-0.033	0.133
-585.879	-52.623	-0.175	-0.081
-584.865	-70.716	-0.195	0.074
-583.850	-38.022	-0.313	0.167
-582.836	-26.192	0.320	-0.189
-581.821	74.584	-0.118	-0.125
-580.806	-21.821	-0.318	-0.194
-579.792	800.000	-0.065	-0.243
-578.777	-200.000	-0.040	-0.258
-577.763	157.583	0.178	0.248
-576.748	213.699	-0.029	0.047
-575.733	800.000	-0.046	0.134
-574.719	536.384	-0.074	0.177
-573.704	136.172	0.107	0.140
-572.690	-39.771	-0.120	-0.063
-571.675	421.343	0.148	-0.318
-570.661	-200.000	0.020	-0.113
-569.646	-42.296	0.197	0.101
-568.631	155.065	0.221	-0.306
-567.617	-200.000	-0.010	-0.181
-566.602	-200.000	-0.035	0.280
-565.588	-82.364	0.326	0.107
-564.573	800.000	0.053	0.156
-563.558	800.000	-0.149	0.415
-562.544	367.985	-0.138	-0.280
-561.529	-200.000	0.031	-0.254
-560.515	-89.582	0.033	0.010
-559.500	-200.000	-0.017	-0.247
-558.485	-151.712	-0.385	0.028
-557.471	210.431	-0.075	-0.119
-556.456	303.663	-0.083	0.154
-555.442	190.126	0.065	-0.098
-554.427	-55.509	0.077	0.035
-553.412	800.000	0.046	0.135
-552.398	-35.564	0.263	0.143
-551.383	800.000	0.068	-0.207
-550.369	130.468	-0.172	0.222
-549.354	85.666	0.147	0.163
-548.339	-200.000	0.007	0.152
-547.325	159.265	-0.149	0.208
-546.310	-46.716	-0.033	0.016
-545.296	758.553	0.071	-0.194
-544.281	12.061	0.098	0.076
-543.266	-50.810	0.150	-0.071
-542.252	-114.532	0.271	-0.052
-541.237	-200.000	0.005	-0.229
-540.223	-200.000	-0.013	0.254
-539.208	138.555	-0.106	-0.140
-538.193	295.116	-0.087	0.160
-537.179	271.825	0.099	0.175
-536.164	186.037	-0.054	0.080
-535.150	-40.842	-0.086	-0.045
-534.135	-141.651	-0.330	0.033
-533.121	730.585	0.164	0.440
-532.106	648.077	0.142	-0.365
-531.091	-33.972	-0.143	0.079
-530.077	-128.097	0.456	0.066
-529.062	-159.780	0.201	-0.011
-528.048	36.435	-0.079	0.070
-527.033	43.664	-0.201	-0.185
-526.018	244.062	0.224	-0.377
-525.004	-200.000	-0.036	-0.179
-523.989	-119.651	0.213	-0.037
-522.975	800.000	-0.097	0.293
-521.960	59.105	0.310	0.305
-520.945	368.906	0.146	-0.295
-519.931	-200.000	-0.066	-0.379
-518.916	363.979	0.319	0.644
-517.902	-38.283	-0.215	0.114
-516.887	29.657	0.281	0.239
-515.872	-84.518	-0.315	-0.100
-514.858	296.303	0.240	0.442
-513.843	-150.594	0.239	-0.018
-512.829	-200.000	-0.033	-0.156
-511.814	-35.292	0.100	0.055
-510.799	-23.075	0.073	-0.044
-509.785	-144.912	-0.297	0.027
-508.770	-29.225	0.375	-0.215
-507.756	-28.144	0.068	0.040
-506.741	483.862	0.135	0.308
-505.726	151.625	-0.275	0.375
-504.712	-92.804	0.221	0.062
-503.697	-200.000	0.021	0.091
-502.683	-135.663	-0.255	0.030
-501.668	132.702	-0.109	-0.141
-500.653	13.309	-0.144	0.112
-499.639	-101.170	-0.109	-0.027
-498.624	800.000	0.033	-0.133
-497.610	86.653	0.015	0.016
-496.595	-200.000	0.022	0.132
-495.581	6.877	-0.310	-0.231
-494.566	-12.824	-0.123	-0.080
-493.551	65.946	-0.163	-0.166
-492.537	-200.000	-0.005	0.135
-491.522	-200.000	0.018	0.117
-490.508	39.921	0.094	0.084
-489.493	119.113	0.076	-0.094
-488.478	-78.045	0.313	-0.108
-487.464	-13.937	-0.202	0.130
-486.449	17.779	-0.173	0.138
-485.435	800.000	0.016	0.047
-484.420	-97.111	0.095	-0.025
-483.405	-93.875	0.096	-0.026
-482.391	-105.582	0.186	0.042
-481.376	-37.321	0.121	0.065
-480.362	-77.194	0.363	-0.127
-479.347	90.884	-0.093	0.104
-478.332	-200.000	-0.044	-0.296
-477.318	-200.000	-0.024	0.197
-476.303	-28.332	-0.080	0.046
-475.289	-135.817	0.172	-0.020
-474.274	-22.032	0.037	0.022
-473.259	86.808	-0.333	-0.368
-472.245	140.734	0.237	-0.313
-471.230	-200.000	-0.065	-0.356
-470.216	800.000	-0.041	0.163
-469.201	-200.000	0.080	0.368
-468.186	537.884	0.060	-0.144
-467.172	800.000	-0.033	-0.146
-466.157	249.421	0.115	0.195
-465.143	-200.000	0.024	0.136
-464.128	161.689	-0.085	0.119
-463.113	-123.207	-0.181	0.029
-462.099	-43.869	-0.095	-0.048
-461.084	-30.365	-0.028	-0.016
-460.070	-34.434	-0.137	-0.075
-459.055	535.618	0.053	-0.127
-458.040	-22.158	-0.188	-0.114
-457.026	-40.270	-0.112	-0.058
-456.011	244.589	-0.125	0.209
-454.997	94.039	-0.116	-0.132
-453.982	36.394	0.198	-0.175
-452.968	-102.161	-0.417	-0.100
-451.953	28.067	-0.255	0.215
-450.938	-22.521	-0.225	-0.136
-449.924	299.214	0.080	-0.148
-448.909	-188.018	0.271	0.003
-447.895	19.305	0.162	0.130
-446.880	681.581	-0.035	0.092
-445.865	-200.000	-0.002	0.036
-444.851	-0.808	-0.421	-0.298
-443.836	-200.000	-0.002	0.025
-442.822	-200.000	-0.014	-0.077
-441.807	-37.161	-0.324	0.173
-440.792	75.756	-0.214	-0.227
-439.778	-39.772	0.259	-0.135
-438.763	94.743	0.223	-0.253
-437.749	-102.840	-0.346	-0.082
-436.734	-58.858	-0.098	0.043
-435.719	28.436	-0.200	0.169
-434.705	129.501	-0.204	-0.260
-433.690	-127.816	0.305	-0.044
-432.676	308.154	-0.211	-0.394
-431.661	14.160	-0.184	-0.143
-430.646	800.000	-0.082	-0.328
-429.632	-43.349	-0.149	0.075
-428.617	-44.549	0.186	-0.093
-427.603	351.444	-0.116	-0.229
-426.588	330.077	0.071	-0.136
-425.573	5.697	0.172	0.127
-424.559	228.026	-0.114	0.186
-423.544	78.228	-0.243	-0.259
-422.530	86.965	0.172	0.189
-421.515	-200.000	0.013	-0.060
-420.500	180.054	0.112	0.164
-419.486	-126.876	-0.340	-0.050
-418.471	800.000	0.056	-0.174
-417.457	23.028	0.309	0.253
-416.442	-145.809	-0.248	0.022
-415.428	-200.000	0.048	-0.482
-414.413	73.131	0.083	0.086
-413.398	210.969	-0.146	0.229
-412.384	-200.000	-0.024	-0.173
-411.369	-58.866	0.258	-0.112
-410.355	-200.000	-0.059	-0.350
-409.340	157.369	0.250	-0.346
-408.325	-135.241	-0.037	0.004
-407.311	-200.000	-0.008	0.260
-406.296	347.220	0.076	-0.150
-405.282	36.620	0.079	-0.070
-404.267	-200.000	0.010	-0.078
-403.252	800.000	-0.136	0.559
-402.238	-200.000	-0.012	0.283
-401.223	-200.000	0.022	0.100
-400.209	-43.101	0.010	-0.005
-399.194	94.732	-0.089	0.100
-398.179	687.417	-0.051	-0.132
-397.165	472.906	0.044	0.100
-396.150	-200.000	0.029	0.384
-395.136	565.067	0.049	0.118
-394.121	800.000	-0.059	0.188
-393.106	-118.365	0.181	0.032
-392.092	-125.552	-0.266	-0.040
-391.077	52.477	-0.036	-0.034
-390.063	-59.818	0.217	0.093
-389.048	-64.865	0.206	-0.083
-388.033	800.000	-0.080	0.262
-387.019	103.645	0.135	-0.158
-386.004	694.713	0.023	0.059
-384.990	-66.769	0.165	-0.065
-383.975	1.360	-0.034	-0.024
-382.960	-200.000	0.000	0.129
-381.946	25.195	0.095	0.079
-380.931	15.847	0.388	0.304
-379.917	549.109	-0.074	0.178
-378.902	-200.000	0.164	-0.000
-377.888	-200.000	0.003	-0.351
-376.873	-81.140	-0.183	-0.060
-375.858	247.750	-0.095	-0.159
-374.844	800.000	0.055	0.219
-373.829	-200.000	0.059	0.459
-372.815	493.937	0.079	0.181
-371.800	28.153	-0.165	0.139
-370.785	-184.009	0.240	0.004
-369.771	-98.992	0.230	-0.058
-368.756	-117.846	-0.248	0.044
-367.742	124.123	0.091	0.114
-366.727	781.072	-0.032	-0.087
-365.712	81.916	-0.266	-0.287
-364.698	-82.642	-0.308	0.099
-363.683	-42.054	0.089	0.045
-362.669	199.506	-0.020	0.030
-361.654	-22.029	-0.118	0.071
-360.639	800.000	-0.096	0.407
-359.625	-127.728	0.176	-0.025
-358.610	-200.000	-0.164	0.000
-357.596	48.285	0.142	0.132
-356.581	151.740	-0.127	0.173
-355.566	-176.974	-0.340	-0.009
-354.552	-33.538	0.044	0.024
-353.537	-175.277	0.089	-0.002
-352.523	-200.000	-0.013	0.317
-351.508	-160.165	-0.018	-0.001
-350.493	511.536	-0.144	0.334
-349.479	800.000	0.017	0.056
-348.464	265.640	0.072	-0.126
-347.450	-98.677	0.352	0.089
-346.435	6.102	0.111	-0.082
-345.420	191.867	0.132	0.198
-344.406	-113.017	-0.189	0.037
-343.391	-149.035	-0.114	0.009
-342.377	4.373	-0.118	-0.086
-341.362	-200.000	0.019	0.139
-340.348	-63.161	0.204	0.084
-339.333	626.314	-0.118	0.296
-338.318	101.130	-0.144	0.166
-337.304	800.000	-0.113	-0.372
-336.289	-124.942	0.077	-0.012
-335.275	204.886	-0.022	0.034
-334.260	-53.504	0.113	-0.051
-333.245	189.049	-0.173	0.259
-332.231	126.725	0.202	-0.254
-331.216	-57.190	0.019	-0.009
-330.202	201.719	0.098	-0.150
-329.187	800.000	-0.042	0.133
-328.172	-200.000	-0.003	-0.161
-327.158	239.663	0.066	-0.109
-326.143	-43.481	-0.126	-0.063
-325.129	303.437	0.054	-0.099
-324.114	119.687	0.122	-0.150
-323.099	-161.709	0.215	-0.011
-322.085	-37.234	-0.179	0.095
-321.070	-200.000	0.037	-0.307
-320.056	-44.671	-0.109	-0.054
-319.041	12.301	0.296	-0.227
-318.026	212.893	-0.209	-0.328
-317.012	-200.000	0.002	0.223
-315.997	-136.088	-0.263	-0.031
-314.983	122.706	0.215	0.268
-313.968	-106.577	-0.177	0.039
-312.953	116.491	0.142	-0.173
-311.939	-37.297	-0.292	-0.155
-310.924	307.656	0.180	0.334
-309.910	540.295	-0.137	0.325
-308.895	38.479	0.161	0.143
-307.880	-48.930	0.219	0.104
-306.866	171.778	-0.282	0.402
-305.851	-94.243	0.113	-0.031
-304.837	-200.000	-0.037	0.387
-303.822	564.332	-0.133	-0.322
-302.807	-146.672	-0.128	-0.011
-301.793	192.631	0.095	-0.143
-300.778	-88.269	0.252	-0.075
-299.764	109.071	-0.043	-0.051
-298.749	-200.000	-0.013	0.303
-297.735	800.000	0.152	-0.448
-296.720	-200.000	-0.001	0.073
-295.705	-59.827	0.331	-0.141
-294.691	-200.000	0.047	-0.310
-293.676	157.831	0.079	-0.109
-292.662	-74.829	0.248	-0.089
-291.647	123.673	0.080	-0.099
-290.632	411.677	-0.102	0.216
-289.618	5.912	0.055	0.040
-288.603	-198.685	-0.122	0.001
-287.589	-30.903	0.162	0.091
-286.574	800.000	0.047	0.170
-285.559	124.953	-0.203	0.253
-284.545	-47.516	0.306	-0.148
-283.530	-51.684	0.254	0.118
-282.516	3.281	0.260	-0.188
-281.501	1.005	0.385	0.274
-280.486	-200.000	-0.025	0.201
-279.472	553.533	-0.107	-0.255
-278.457	-200.000	-0.104	0.487
-277.443	800.000	0.043	0.127
-276.428	436.092	0.087	-0.189
-275.413	-127.232	-0.327	-0.047
-274.399	800.000	0.054	-0.157
-273.384	-44.330	0.071	0.035
-272.370	177.921	0.149	0.216
-271.355	109.658	-0.089	0.105
-270.340	-110.192	0.247	0.051
-269.326	46.406	-0.142	0.130
-268.311	-76.524	0.268	0.094
-267.297	-200.000	-0.019	0.196
-266.282	51.679	0.105	-0.099
-265.267	-108.617	0.215	-0.046
-264.253	30.067	0.119	0.100
-263.238	177.716	0.100	-0.145
-262.224	283.437	-0.194	-0.346
-261.209	800.000	0.070	-0.262
-260.195	108.133	0.040	-0.047
-259.180	288.782	-0.105	0.189
-258.165	-200.000	-0.014	0.213
-257.151	110.592	-0.114	-0.136
-256.136	21.630	0.192	-0.155
-255.122	-164.030	-0.357	-0.016
-254.107	10.764	0.207	-0.157
-253.092	-104.471	-0.277	0.064
-252.078	-74.239	0.274	-0.098
-251.063	61.207	0.056	0.055
-250.049	118.817	0.153	-0.187
-249.034	-89.299	-0.436	-0.128
-248.019	-26.954	-0.060	0.035
-247.005	-200.000	-0.033	0.329
-245.990	-89.021	0.110	0.032
-244.976	149.446	0.202	-0.272
-243.961	24.401	0.192	-0.157
-242.946	433.129	0.102	0.220
-241.932	800.000	0.098	0.306
-240.917	-55.287	0.412	-0.184
-239.903	-200.000	0.008	-0.250
-238.888	-145.868	-0.062	0.005
-237.873	-106.202	0.147	-0.033
-236.859	-200.000	0.014	0.228
-235.844	800.000	-0.106	0.365
-234.830	-120.096	0.136	-0.023
-233.815	800.000	0.015	0.053
-232.800	-110.274	0.310	-0.064
-231.786	23.387	-0.122	0.100
-230.771	-126.602	-0.240	-0.035
-229.757	46.783	0.080	0.074
-228.742	-200.000	0.010	-0.164
-227.727	-1.082	0.329	0.231
-226.713	85.660	-0.049	0.053
-225.698	-200.000	-0.024	-0.293
-224.684	-13.585	-0.235	-0.151
-223.669	800.000	-0.036	0.158
-222.655	263.589	0.130	0.224
-221.640	-143.551	0.281	0.027
-220.625	800.000	0.037	-0.142
-219.611	-46.033	-0.329	-0.161
-218.596	115.046	-0.139	0.168
-217.582	-12.328	-0.020	-0.013
-216.567	261.979	-0.137	-0.235
-215.552	91.919	0.179	0.199
-214.538	460.436	0.072	-0.160
-213.523	800.000	0.107	-0.363
-212.509	-160.362	-0.075	-0.004
-211.494	197.646	-0.059	0.089
-210.479	-200.000	-0.018	0.137
-209.465	-200.000	-0.049	0.226
-208.450	-110.936	-0.382	0.078
-207.436	-140.636	-0.242	0.025
-206.421	11.918	0.190	-0.145
-205.406	213.512	0.102	-0.159
-204.392	-54.162	0.273	0.123
-203.377	-82.172	-0.209	0.067
-202.363	271.411	0.048	0.083
-201.348	72.210	-0.177	-0.183
-200.333	238.788	-0.104	0.172
-199.319	-173.325	0.200	0.006
-198.304	408.925	-0.113	-0.236
-197.290	800.000	0.053	0.193
-196.275	-115.628	0.092	-0.017
-195.260	-91.764	0.087	-0.025
-194.246	800.000	-0.059	0.199
-193.231	-29.017	-0.119	0.067
-192.217	-21.902	0.187	0.112
-191.202	77.044	0.148	-0.155
-190.187	125.011	0.102	-0.127
-189.173	800.000	-0.101	0.339
-188.158	18.709	-0.049	0.039
-187.144	240.870	0.097	0.160
-186.129	800.000	0.067	0.198
-185.114	800.000	0.062	0.219
-184.100	-36.926	-0.141	-0.075
-183.085	503.520	-0.184	-0.422
-182.071	-200.000	0.055	0.251
-181.056	-53.975	-0.059	-0.026
-180.042	26.112	-0.244	0.202
-179.027	89.309	-0.170	0.187
-178.012	136.402	-0.062	0.079
-176.998	-200.000	0.004	-0.083
-175.983	800.000	0.083	0.280
-174.969	21.195	-0.028	0.023
-173.954	697.947	-0.163	-0.424
-172.939	49.871	-0.209	-0.195
-171.925	-22.961	-0.329	-0.196
-170.910	495.593	-0.063	0.143
-169.896	800.000	0.043	0.138
-168.881	800.000	-0.012	-0.041
-167.866	-56.210	-0.304	0.134
-166.852	467.874	-0.125	-0.277
-165.837	-200.000	-0.136	-0.677
-164.823	717.753	-0.074	-0.193
-163.808	-31.786	-0.143	-0.080
-162.793	9.898	-0.055	-0.041
-161.779	350.134	-0.124	-0.242
-160.764	-200.000	0.035	-0.242
-159.750	-94.972	-0.214	0.057
-158.735	501.171	-0.077	0.175
-157.720	33.002	-0.199	-0.171
-156.706	60.741	-0.062	0.061
-155.691	-85.335	0.146	0.045
-154.677	68.069	-0.069	-0.070
-153.662	-60.589	0.283	0.119
-152.647	-61.951	-0.074	-0.031
-151.633	-166.714	-0.167	0.007
-150.618	-88.884	0.141	0.041
-149.604	58.876	-0.160	-0.155
-148.589	-81.259	0.548	0.179
-147.574	-158.989	-0.138	-0.008
-146.560	-52.736	0.100	0.046
-145.545	800.000	0.035	0.101
-144.531	-200.000	0.041	0.276
-143.516	28.846	0.045	0.038
-142.502	19.715	0.261	-0.208
-141.487	31.201	0.316	-0.268
-140.472	-67.448	0.262	-0.102
-139.458	-79.496	0.269	0.090
-138.443	-139.551	-0.236	-0.025
-137.429	9.408	0.318	0.237
-136.414	-59.507	0.079	-0.033
-135.399	-79.835	0.109	0.036
-134.385	-200.000	-0.005	-0.322
-133.370	-140.365	0.091	0.009
-132.356	800.000	0.066	0.254
-131.341	-144.341	0.212	0.019
-130.326	225.775	-0.066	0.105
-129.312	-126.218	0.040	-0.006
-128.297	64.993	-0.357	0.357
-127.283	-83.137	0.150	0.047
-126.268	-58.285	-0.249	0.107
-125.253	242.497	0.025	0.042
-124.239	-200.000	-0.054	0.245
-123.224	-77.276	0.159	-0.054
-122.210	80.467	0.053	-0.056
-121.195	-14.414	-0.310	0.197
-120.180	-79.440	-0.134	-0.045
-119.166	533.640	0.060	0.140
-118.151	109.887	0.212	-0.251
-117.137	-32.167	0.097	-0.053
-116.122	-91.439	0.257	0.072
-115.107	-103.924	-0.426	0.098
-114.093	344.549	-0.104	-0.202
-113.078	800.000	-0.080	0.255
-112.064	800.000	-0.063	-0.248
-111.049	288.849	0.043	-0.078
-110.034	299.107	0.047	0.086
-109.020	250.813	0.147	0.247
-108.005	604.727	-0.096	-0.235
-106.991	45.297	0.337	0.307
-105.976	800.000	-0.049	0.202
-104.962	2.589	0.077	0.055
-103.947	-124.035	-0.248	-0.038
-102.932	-161.819	-0.281	-0.014
-101.918	-18.179	0.042	0.026
-100.903	-23.118	0.070	0.042
-99.889	122.879	-0.201	0.248
-98.874	472.102	0.060	-0.133
-97.859	24.148	-0.302	0.246
-96.845	800.000	0.033	-0.120
-95.830	-5.456	0.291	0.197
-94.816	-115.250	-0.207	-0.039
-93.801	-10.832	0.163	0.106
-92.786	-200.000	0.008	-0.129
-91.772	-200.000	0.045	0.245
-90.757	91.975	-0.272	0.302
-89.743	800.000	-0.073	-0.293
-88.728	-154.384	-0.334	-0.022
-87.713	800.000	0.067	-0.206
-86.699	-200.000	0.004	-0.097
-85.684	-65.059	-0.241	-0.096
-84.670	14.884	-0.087	-0.067
-83.655	398.907	-0.152	-0.313
-82.640	-200.000	0.078	-0.471
-81.626	-63.018	-0.182	-0.074
-80.611	177.938	-0.094	0.136
-79.597	-200.000	0.060	-0.309
-78.582	348.296	0.026	-0.051
-77.567	-150.352	0.177	0.013
-76.553	-120.439	-0.149	-0.025
-75.538	19.516	-0.189	-0.150
-74.524	-200.000	0.021	0.231
-73.509	60.942	0.177	-0.173
-72.494	29.857	-0.362	0.304
-71.480	-28.996	0.316	0.178
-70.465	163.321	0.308	0.426
-69.451	-34.574	0.196	0.106
-68.436	-83.180	0.443	0.140
-67.422	-73.927	-0.347	-0.124
-66.407	-200.000	-0.017	0.121
-65.392	72.933	0.095	0.098
-64.378	-200.000	-0.138	0.000
-63.363	800.000	0.059	0.160
-62.349	-200.000	-0.018	0.154
-61.334	50.609	-0.723	-0.674
-60.319	-6.526	0.616	0.413
-59.305	283.745	-0.437	-0.774
-58.290	162.451	0.696	0.962
-57.276	800.000	0.462	1.600
-56.261	-200.000	96.485	576.189
-55.246	550.289	1379.278	3257.338
-54.232	159.427	2556.415	3502.268
-53.217	110.773	2164.021	2563.466
-52.203	43.443	1708.377	1537.291
-51.188	36.486	1521.252	1321.480
-50.173	34.076	1494.586	1282.047
-49.159	52.651	1543.179	1451.362
-48.144	54.633	1561.121	1481.757
-47.130	36.480	1520.567	1320.635
-46.115	33.454	1505.670	1287.124
-45.100	33.373	1501.747	1283.172
-44.086	33.339	1500.558	1281.875
-43.071	33.211	1498.842	1279.493
-42.057	33.153	1496.985	1277.463
-41.042	33.219	1495.558	1276.645
-40.027	33.261	1494.030	1275.570
-39.013	33.314	1492.009	1274.152
-37.998	33.170	1492.127	1273.231
-36.984	33.204	1490.740	1272.226
-35.969	33.157	1489.106	1270.468
-34.954	33.188	1487.445	1269.205
-33.940	33.151	1486.502	1268.104
-32.925	33.132	1485.270	1266.874
-31.911	33.200	1484.003	1266.195
-30.896	33.109	1483.207	1264.859
-29.881	33.138	1481.893	1263.885
-28.867	33.164	1480.055	1262.441
-27.852	33.284	1478.084	1261.507
-26.838	33.251	1476.664	1260.028
-25.823	33.159	1475.300	1258.200
-24.809	33.223	1473.564	1257.095
-23.794	33.154	1472.609	1255.770
-22.779	33.163	1471.138	1254.530
-21.765	33.245	1470.102	1254.136
-20.750	33.237	1468.786	1252.912
-19.736	33.168	1468.049	1251.777
-18.721	33.127	1466.970	1250.536
-17.706	33.190	1465.573	1249.711
-16.692	33.186	1464.217	1248.478
-15.677	33.163	1463.512	1247.677
-14.663	33.256	1462.302	1247.208
-13.648	33.197	1461.764	1246.315
-12.633	33.156	1460.877	1245.235
-11.619	33.184	1459.724	1244.391
-10.604	33.164	1459.000	1243.588
-9.590	33.121	1458.069	1242.467
-8.575	33.170	1456.983	1241.815
-7.560	33.163	1456.407	1241.223
-6.546	33.100	1455.697	1240.158
-5.531	33.090	1454.879	1239.349
-4.517	33.178	1453.510	1238.705
-3.502	33.143	1452.713	1237.752
-2.487	33.176	1451.375	1236.778
-1.473	33.072	1450.393	1235.214
-0.458	33.043	1449.518	1234.227
0.556	33.631	1439.643	1223.118
1.571	30.725	1415.550	1184.085
2.586	27.697	1361.108	1119.888
3.600	26.441	1283.024	1048.276
4.615	25.175	1235.640	1002.401
5.629	21.525	1178.365	936.359
6.644	11.473	1090.391	816.355
7.659	3.436	1047.828	745.671
8.673	2.219	1042.015	735.611
9.688	2.140	1038.279	732.529
10.702	1.979	1036.787	730.639
11.717	1.883	1035.441	729.169
12.731	5.795	1039.851	750.973
13.746	15.869	1053.960	809.782
14.761	23.337	1063.336	853.015
15.775	25.147	1064.690	862.744
16.790	25.274	1064.757	863.334
17.804	25.167	1063.608	861.808
18.819	24.982	1063.036	860.379
19.834	25.042	1062.663	860.291
20.848	25.149	1062.411	860.524
21.863	25.277	1062.069	860.788
22.877	25.346	1060.915	860.105
23.892	25.122	1060.719	858.795
24.907	25.135	1059.593	857.870
25.921	25.213	1058.998	857.686
26.936	25.288	1058.028	857.181
27.950	25.240	1056.901	855.963
28.965	25.096	1056.472	854.854
29.980	25.014	1054.511	852.804
30.994	25.004	1052.980	851.440
32.009	25.168	1052.809	852.010
33.023	25.292	1052.194	852.023
34.038	25.003	1051.217	849.787
35.053	25.146	1050.088	849.476
36.067	25.245	1049.639	849.503
37.082	25.245	1048.578	848.574
38.096	25.297	1047.795	848.111
39.111	25.450	1047.399	848.437
40.126	25.478	1046.324	847.622
41.140	25.556	1044.816	846.692
42.155	25.081	1043.978	843.704
43.169	24.734	1042.917	841.139
44.184	24.700	1041.805	840.007
45.199	24.834	1041.016	839.928
46.213	24.713	1039.804	838.307
47.228	24.897	1038.670	838.179
48.242	24.942	1038.271	837.995
49.257	25.051	1037.536	837.839
50.271	25.124	1036.732	837.454
51.286	25.163	1036.635	837.487
52.301	25.276	1035.354	836.904
53.315	25.299	1034.745	836.446
54.330	25.280	1033.941	835.630
55.344	25.275	1032.916	834.706
56.359	25.118	1032.427	833.506
57.374	25.232	1031.821	833.475
58.388	25.037	1030.344	831.304
59.403	25.145	1029.657	831.176
60.417	25.104	1029.126	830.483
61.432	24.800	1028.428	828.440
62.447	24.650	1028.171	827.463
63.461	24.926	1027.114	827.819
64.476	25.022	1026.359	827.578
65.490	24.980	1025.321	826.476
66.505	24.837	1024.708	825.248
67.520	24.901	1023.478	824.480
68.534	25.082	1022.864	824.744
69.549	24.870	1022.340	823.273
70.563	24.547	1020.823	820.496
71.578	24.496	1020.207	819.696
72.593	24.406	1019.273	818.457
73.607	24.515	1018.024	817.883
74.622	24.244	1017.561	816.196
75.636	24.805	1016.619	817.933
76.651	24.736	1016.282	817.274
77.666	24.707	1015.018	816.053
78.680	24.721	1013.955	815.192
79.695	24.689	1013.308	814.455
80.709	24.810	1012.638	814.392
81.724	24.945	1011.988	814.411
82.739	24.748	1011.580	813.117
83.753	24.898	1010.538	812.888
84.768	25.121	1009.689	813.145
85.782	25.433	1009.515	814.348
86.797	25.538	1008.828	814.197
87.812	25.612	1007.667	813.521
88.826	25.290	1006.790	811.289
89.841	25.349	1005.887	810.753
90.855	25.488	1005.296	810.835
91.870	25.440	1004.969	810.282
92.884	25.331	1004.279	809.161
93.899	25.411	1002.491	808.011
94.914	25.278	1001.636	806.653
95.928	25.362	1000.961	806.414
96.943	25.437	1000.582	806.373
97.957	25.183	999.146	804.008
98.972	24.853	997.929	801.480
99.987	24.745	997.231	800.366
101.001	24.858	996.693	800.366
102.016	25.178	995.907	801.094
103.030	25.222	995.231	800.677
104.045	25.112	994.149	799.246
105.060	24.968	992.923	797.548
106.074	24.893	991.471	795.975
107.089	24.870	991.329	795.689
108.103	25.144	991.007	796.579
109.118	25.130	990.434	795.985
110.133	24.923	989.129	793.947
111.147	25.007	987.668	793.076
112.162	24.824	986.724	791.440
113.176	24.592	985.618	789.458
114.191	24.714	985.272	789.649
115.206	24.819	983.888	788.933
116.220	24.532	983.026	786.908
117.235	24.378	981.923	785.276
118.249	24.513	981.484	785.450
119.264	24.604	980.807	785.241
120.279	24.618	979.589	784.255
121.293	24.519	978.965	783.253
122.308	24.581	978.336	782.952
123.322	24.510	977.965	782.276
124.337	24.674	976.178	781.493
125.352	24.519	974.940	779.759
126.366	24.203	973.391	777.071
127.381	23.816	972.437	774.555
128.395	24.192	972.725	776.354
129.410	24.974	971.961	779.080
130.424	25.076	971.332	778.947
131.439	25.066	970.279	777.993
132.454	25.118	969.271	777.340
133.468	25.095	968.507	776.557
134.483	25.092	967.225	775.449
135.497	25.164	966.991	775.504
136.512	25.317	966.615	775.796
137.527	25.373	965.779	775.298
138.541	25.286	964.935	774.175
139.556	25.314	964.104	773.563
140.570	25.304	963.330	772.832
141.585	25.304	962.671	772.233
142.600	25.520	961.726	772.332
143.614	25.385	960.774	770.920
144.629	25.423	960.371	770.694
145.643	25.582	959.812	770.858
146.658	25.534	958.540	769.561
147.673	25.420	956.912	767.701
148.687	25.249	956.207	766.336
149.702	25.157	955.233	765.098
150.716	25.209	954.000	764.262
151.731	25.154	953.366	763.452
152.746	25.300	952.660	763.442
153.760	25.463	952.189	763.690
154.775	25.604	951.220	763.440
155.789	25.635	950.291	762.761
156.804	25.604	949.666	762.062
157.819	25.566	948.536	760.925
158.833	25.490	947.873	760.005
159.848	25.490	947.535	759.666
160.862	25.708	946.359	759.577
161.877	25.566	945.358	758.106
162.892	25.479	944.352	756.867
163.906	25.535	943.851	756.634
164.921	25.575	942.872	755.950
165.935	25.369	941.841	754.192
166.950	25.503	941.011	754.022
167.964	25.480	940.021	753.067
168.979	25.460	939.386	752.406
169.994	25.396	937.894	750.878
171.008	25.197	937.292	749.498
172.023	25.327	936.732	749.529
173.037	25.687	935.984	750.365
174.052	25.495	934.513	748.319
175.067	25.188	933.803	746.408
176.081	25.168	932.915	745.546
177.096	25.390	932.191	745.827
178.110	25.405	931.236	745.059
179.125	25.068	930.686	743.153
180.140	24.847	929.456	741.190
181.154	24.893	928.584	740.621
182.169	25.079	927.969	740.836
183.183	25.202	927.970	741.276
184.198	25.437	927.670	741.941
185.213	25.512	926.823	741.511
186.227	25.408	926.287	740.587
187.242	25.542	925.660	740.572
188.256	25.559	924.970	740.023
189.271	25.462	924.255	738.986
190.286	25.614	923.608	739.029
191.300	25.507	922.532	737.662
192.315	24.986	921.100	734.319
193.329	24.256	919.334	729.858
194.344	23.692	918.742	727.014
195.359	24.268	919.027	729.532
196.373	25.169	919.169	733.268
197.388	25.380	919.081	733.996
198.402	25.397	918.351	733.416
199.417	25.292	918.188	732.791
200.432	25.371	917.623	732.599
201.446	25.290	916.506	731.312
202.461	25.017	915.749	729.532
203.475	25.090	915.076	729.228
204.490	24.617	913.604	726.070
205.504	23.540	911.566	720.018
206.519	23.891	911.565	721.378
207.534	24.897	911.787	725.568
208.548	25.030	911.571	725.872
209.563	25.361	911.054	726.733
210.577	25.317	910.336	725.920
211.592	25.003	909.695	724.075
212.607	25.579	909.443	726.135
213.621	25.736	908.825	726.213
214.636	25.408	908.667	724.700
215.650	25.509	907.809	724.359
216.665	25.443	907.454	723.746
217.680	25.643	906.516	723.737
218.694	25.574	906.634	723.490
219.709	25.286	905.542	721.395
220.723	24.991	904.178	719.062
221.738	25.192	904.012	719.673
222.753	25.306	903.420	719.595
223.767	25.196	902.902	718.677
224.782	25.409	901.911	718.678
225.796	25.493	901.554	718.667
226.811	25.557	901.129	718.521
227.826	25.351	899.181	716.080
228.840	24.454	897.945	711.460
229.855	24.374	897.488	710.717
230.869	24.639	897.388	711.631
231.884	24.442	896.125	709.783
232.899	24.425	895.545	709.193
233.913	25.155	896.076	712.450
234.928	25.305	895.630	712.630
235.942	25.142	895.050	711.458
236.957	25.273	894.364	711.367
237.972	25.081	892.922	709.397
238.986	24.782	892.403	707.742
240.001	25.030	891.740	708.133
241.015	25.000	891.282	707.588
242.030	25.148	890.486	707.477
243.045	25.372	890.041	707.943
244.059	25.228	889.901	707.205
245.074	25.557	889.202	707.881
246.088	25.545	888.927	707.552
247.103	25.164	887.668	704.990
248.117	25.076	887.497	704.444
249.132	25.621	887.277	706.350
250.147	25.993	887.173	707.663
251.161	26.128	886.484	707.580
252.176	26.267	886.105	707.761
253.190	26.173	885.602	706.929
254.205	26.333	884.940	706.961
255.220	26.481	884.822	707.386
256.234	26.426	884.168	706.584
257.249	26.375	883.263	705.599
258.263	25.998	883.014	703.867
259.278	26.271	881.979	704.043
260.293	26.242	881.836	703.753
261.307	26.257	881.208	703.251
262.322	26.344	880.353	702.844
263.336	26.107	879.781	701.404
264.351	25.585	878.571	698.351
265.366	24.473	876.758	692.537
266.380	24.163	875.752	690.479
267.395	25.050	875.913	693.983
268.409	25.779	876.256	697.014
269.424	25.770	875.258	696.126
270.439	25.827	875.177	696.218
271.453	26.094	874.212	696.419
272.468	25.973	873.989	695.713
273.482	26.291	873.474	696.468
274.497	26.309	873.067	696.150
275.512	26.133	871.873	694.461
276.526	25.601	870.673	691.400
277.541	25.726	870.253	691.483
278.555	26.083	870.313	692.842
279.570	25.989	869.415	691.706
280.585	25.896	868.406	690.484
281.599	25.876	868.191	690.177
282.614	26.070	867.481	690.293
283.628	25.530	866.595	687.464
284.643	25.244	866.049	685.875
285.657	25.758	865.389	687.254
286.672	25.536	864.682	685.787
287.687	25.153	863.472	683.306
288.701	25.406	863.776	684.452
289.716	25.716	864.003	685.751
290.730	25.440	862.950	683.803
291.745	25.311	861.749	682.304
292.760	25.079	861.118	680.861
293.774	24.988	860.694	680.120
294.789	26.111	861.098	684.643
295.803	26.559	861.210	686.368
296.818	26.705	860.571	686.351
297.833	26.674	860.193	685.874
298.847	26.332	859.125	683.669
299.862	25.950	858.330	681.532
300.876	26.209	857.797	682.026
301.891	26.551	857.188	682.771
302.906	26.738	856.904	683.189
303.920	26.260	855.729	680.394
304.935	26.077	855.028	679.086
305.949	26.545	854.823	680.625
306.964	26.694	854.150	680.586
307.979	26.477	853.611	679.281
308.993	26.405	853.288	678.695
310.008	26.592	853.093	679.180
311.022	26.779	852.701	679.512
312.037	26.670	852.045	678.518
313.052	26.430	851.424	677.068
314.066	26.187	850.900	675.682
315.081	25.539	849.294	671.924
316.095	24.722	848.182	667.934
317.110	25.321	848.260	670.173
318.125	26.298	848.345	673.827
319.139	25.799	847.425	671.179
320.154	24.612	845.286	665.010
321.168	24.238	844.743	663.131
322.183	24.786	845.028	665.337
323.197	25.759	845.223	669.048
324.212	26.038	845.206	670.012
325.227	26.320	844.562	670.490
326.241	26.375	843.927	670.128
327.256	26.495	843.155	669.902
328.270	26.190	842.674	668.332
329.285	26.283	842.040	668.114
330.300	26.050	841.360	666.652
331.314	25.647	840.540	664.457
332.329	25.821	840.112	664.703
333.343	26.199	839.950	665.908
334.358	26.402	839.903	666.561
335.373	26.510	838.886	666.094
336.387	26.485	838.531	665.659
337.402	26.836	838.354	666.752
338.416	26.859	838.035	666.523
339.431	26.833	837.452	665.906
340.446	26.989	836.509	665.669
341.460	27.087	836.297	665.800
342.475	27.059	835.771	665.220
343.489	26.746	835.302	663.640
344.504	26.695	834.890	663.069
345.519	27.174	833.847	663.932
346.533	27.216	834.070	664.203
347.548	27.199	833.400	663.548
348.562	27.439	832.771	663.867
349.577	27.230	832.505	662.832
350.592	27.248	831.678	662.181
351.606	27.193	831.220	661.557
352.621	27.216	830.791	661.241
353.635	27.118	829.902	660.119
354.650	27.050	829.515	659.507
355.665	26.871	828.583	658.056
356.679	25.713	826.978	652.529
357.694	25.665	826.455	651.884
358.708	26.181	826.169	653.469
359.723	26.180	825.675	653.018
360.738	26.325	825.656	653.468
361.752	26.801	825.650	655.128
362.767	26.937	825.446	655.398
363.781	27.319	824.945	656.319
364.796	27.443	824.846	656.632
365.810	27.645	824.384	656.933
366.825	27.723	824.002	656.852
367.840	27.653	824.046	656.576
368.854	27.361	823.702	655.194
369.869	27.068	822.321	652.983
370.883	26.939	821.525	651.831
371.898	27.067	821.035	651.843
372.913	26.943	820.414	650.848
373.927	27.062	819.602	650.573
374.942	27.238	819.166	650.801
375.956	27.183	818.526	650.037
376.971	27.300	818.362	650.266
377.986	27.411	817.624	650.019
379.000	27.541	817.169	650.065
380.015	27.739	816.828	650.440
381.029	27.474	815.711	648.548
382.044	27.405	815.649	648.199
383.059	27.408	815.321	647.892
384.073	27.675	814.554	648.174
385.088	27.557	814.314	647.507
386.102	27.518	813.715	646.832
387.117	27.430	812.880	645.799
388.132	27.230	812.356	644.616
389.146	27.158	811.422	643.565
390.161	26.745	810.715	641.487
391.175	26.708	810.375	641.028
392.190	27.182	810.290	642.582
393.205	27.158	809.650	641.932
394.219	26.318	807.738	637.398
395.234	24.654	805.777	629.935
396.248	23.880	804.715	626.325
397.263	24.936	805.652	630.718
398.278	26.716	807.041	638.023
399.292	27.255	806.756	639.638
400.307	26.897	806.120	637.820
401.321	26.804	805.570	637.001
402.336	27.022	805.341	637.529
403.350	27.188	805.702	638.343
404.365	27.657	805.616	639.865
405.380	27.954	805.350	640.636
406.394	28.152	805.186	641.142
407.409	28.444	804.365	641.455
408.423	28.477	803.777	641.044
409.438	28.168	803.448	639.647
410.453	28.351	802.925	639.813
411.467	28.273	802.399	639.064
412.482	28.243	802.223	638.764
413.496	28.274	801.608	638.324
414.511	28.315	801.467	638.300
415.526	28.312	800.884	637.766
416.540	28.286	800.703	637.478
417.555	28.080	800.195	636.300
418.569	28.008	799.028	635.065
419.584	27.825	798.613	634.041
420.599	27.931	798.345	634.143
421.613	110.551	1284.056	1454.333
422.628	95.316	1354.830	1454.469
