DTS Sentinel unit serial number:	SN413079Multiplexer serial number:	ORYXHardware model number:	OX4-SRSoftware version number:	ORYX F/W v4.00 Oryx Data Collector v3.7.2.0data status	okinstallation	princeton_trtdifferential loss correction	single-endedforward channel	channel 3reverse channel	N/Adate	2019/09/10time	19:22:10forward acquisition time	60.00reverse acquisition time	0.00gamma	496.2192k internal	0.2318k external	0.2318temperature offset calibration	0.9911default loss term (dB/km)	0.3790temperature slope calibration	1.0000multiplexer offset coefficient	1.0000multiplexer slope coefficient	1.0000fibre end	0.00T internal ref (°C)	33.73T ext. ref 1 (°C)	-0.40T ext. ref 2 (°C)	26.25length (m)	temperature (°C)	Stokes	anti-Stokes-747.200	-200.000	-0.003	0.099
-746.185	800.000	0.076	0.317
-745.171	34.237	0.200	0.176
-744.156	-22.550	0.237	0.145
-743.142	81.775	0.236	-0.259
-742.127	15.994	0.146	0.116
-741.112	117.748	0.076	0.095
-740.098	204.397	-0.228	0.358
-739.083	-16.776	-0.297	-0.190
-738.069	-99.855	-0.206	-0.052
-737.054	-200.000	0.042	0.331
-736.039	-112.339	-0.049	-0.010
-735.025	387.914	0.187	0.391
-734.010	196.241	-0.242	-0.373
-732.996	344.483	0.068	-0.135
-731.981	149.843	-0.166	0.228
-730.966	-149.020	0.030	-0.002
-729.952	60.306	-0.095	-0.096
-728.937	44.871	0.092	-0.085
-727.923	800.000	-0.048	0.141
-726.908	-99.417	-0.235	-0.060
-725.894	800.000	-0.038	0.150
-724.879	-83.299	0.149	-0.048
-723.864	60.353	-0.099	-0.099
-722.850	451.477	-0.105	-0.235
-721.835	-155.007	-0.218	-0.014
-720.821	-200.000	-0.007	0.033
-719.806	-53.689	-0.132	-0.061
-718.791	153.716	0.117	-0.162
-717.777	437.206	0.134	-0.295
-716.762	-40.968	-0.169	-0.088
-715.748	178.671	-0.177	0.262
-714.733	0.728	-0.120	-0.087
-713.718	261.950	-0.189	0.332
-712.704	488.216	0.065	0.151
-711.689	800.000	0.123	0.369
-710.675	159.091	0.136	-0.192
-709.660	800.000	-0.040	-0.145
-708.645	90.231	-0.200	0.226
-707.631	421.940	0.072	0.155
-706.616	519.780	-0.136	-0.323
-705.602	394.828	0.097	-0.203
-704.587	583.991	-0.077	-0.192
-703.572	704.740	-0.088	0.234
-702.558	256.843	0.079	0.137
-701.543	-118.634	-0.103	-0.018
-700.529	800.000	0.052	0.149
-699.514	-85.733	0.268	0.084
-698.499	454.908	-0.017	0.039
-697.485	-200.000	0.009	0.215
-696.470	-65.323	0.122	0.050
-695.456	7.097	0.217	0.164
-694.441	-177.673	0.299	0.007
-693.426	-113.927	-0.120	-0.023
-692.412	-200.000	0.025	0.126
-691.397	-200.000	0.038	0.180
-690.383	800.000	-0.028	0.101
-689.368	191.603	-0.154	0.234
-688.354	109.632	0.220	0.266
-687.339	800.000	0.097	-0.332
-686.324	149.706	0.208	-0.285
-685.310	102.560	0.094	-0.111
-684.295	800.000	-0.055	-0.160
-683.281	-79.148	-0.107	-0.037
-682.266	722.674	0.044	-0.118
-681.251	-200.000	0.008	0.046
-680.237	800.000	0.129	-0.373
-679.222	-200.000	-0.032	-0.188
-678.208	97.859	0.265	-0.308
-677.193	-72.354	-0.034	0.013
-676.178	95.728	0.107	0.124
-675.164	17.029	0.195	-0.156
-674.149	-112.359	0.489	-0.099
-673.135	98.197	0.105	-0.122
-672.120	800.000	0.060	0.243
-671.105	289.636	0.081	-0.149
-670.091	-33.596	0.173	-0.096
-669.076	-51.057	0.167	0.079
-668.062	-41.400	0.278	0.144
-667.047	-79.932	-0.268	0.091
-666.032	-200.000	0.001	0.091
-665.018	-67.936	0.234	0.092
-664.003	-171.849	0.402	0.013
-662.989	324.824	-0.054	-0.105
-661.974	-74.600	0.277	-0.101
-660.959	-74.701	-0.175	0.063
-659.945	100.523	0.113	0.133
-658.930	-200.000	-0.071	-0.734
-657.916	-150.570	0.455	-0.035
-656.901	-200.000	-0.039	0.272
-655.886	729.926	0.054	0.145
-654.872	-200.000	-0.009	0.145
-653.857	-130.441	0.439	0.060
-652.843	1.762	0.297	0.216
-651.828	19.145	0.119	-0.096
-650.814	800.000	-0.036	-0.124
-649.799	800.000	0.068	-0.278
-648.784	800.000	-0.056	-0.169
-647.770	686.108	-0.056	-0.148
-646.755	374.117	-0.075	-0.154
-645.741	-68.294	-0.190	-0.075
-644.726	800.000	0.044	-0.150
-643.711	-200.000	0.054	-0.256
-642.697	163.368	0.221	-0.313
-641.682	-200.000	-0.259	0.001
-640.668	-120.190	0.241	-0.042
-639.653	66.712	0.141	-0.145
-638.638	279.958	-0.050	0.090
-637.624	-200.000	0.007	0.037
-636.609	54.235	-0.219	0.213
-635.595	800.000	0.067	-0.199
-634.580	-200.000	-0.015	0.128
-633.565	96.654	-0.153	0.176
-632.551	47.051	-0.188	-0.177
-631.536	-119.824	-0.345	0.060
-630.522	-143.617	-0.303	0.029
-629.507	50.696	0.122	0.116
-628.492	4.956	0.363	-0.269
-627.478	800.000	-0.108	-0.343
-626.463	-105.900	-0.411	-0.093
-625.449	-170.632	-0.022	0.001
-624.434	-39.122	-0.241	0.127
-623.419	-136.875	-0.246	-0.028
-622.405	561.254	0.158	0.384
-621.390	-75.416	0.122	-0.044
-620.376	176.843	-0.032	-0.046
-619.361	800.000	-0.174	0.486
-618.346	-55.739	-0.198	0.089
-617.332	-9.101	-0.130	-0.087
-616.317	-16.214	0.238	0.153
-615.303	-0.346	0.069	-0.049
-614.288	-200.000	-0.002	0.076
-613.273	-200.000	0.045	-0.240
-612.259	-200.000	0.049	0.353
-611.244	800.000	-0.025	0.079
-610.230	-36.033	-0.400	0.218
-609.215	-110.607	-0.156	-0.033
-608.201	-141.237	-0.150	0.015
-607.186	-74.686	0.324	-0.117
-606.171	95.186	-0.163	0.187
-605.157	-76.575	0.224	-0.079
-604.142	-46.106	0.460	-0.228
-603.128	796.936	-0.027	0.076
-602.113	800.000	0.098	-0.350
-601.098	-200.000	-0.044	0.228
-600.084	439.567	0.092	-0.203
-599.069	5.922	-0.051	0.038
-598.055	-34.821	-0.140	-0.077
-597.040	13.639	-0.373	-0.292
-596.025	186.614	0.229	-0.344
-595.011	-200.000	0.005	-0.132
-593.996	-200.000	-0.003	0.247
-592.982	-48.052	0.291	-0.142
-591.967	-200.000	-0.003	-0.071
-590.952	-178.187	0.230	-0.005
-589.938	-200.000	0.047	-0.324
-588.923	-89.586	-0.188	-0.055
-587.909	-36.215	-0.146	0.079
-586.894	800.000	0.018	0.053
-585.879	15.946	0.360	0.285
-584.865	-200.000	0.013	0.068
-583.850	-152.565	-0.318	-0.023
-582.836	-54.377	-0.222	-0.101
-581.821	16.318	0.234	0.186
-580.806	165.784	-0.140	-0.199
-579.792	-39.240	0.134	-0.071
-578.777	-66.443	0.119	0.047
-577.763	-90.490	0.101	-0.029
-576.748	-36.635	0.044	-0.024
-575.733	-85.887	-0.200	0.062
-574.719	3.862	-0.371	0.273
-573.704	-149.421	0.267	0.021
-572.690	-34.321	0.203	-0.112
-571.675	-160.185	-0.497	0.027
-570.661	214.598	0.232	0.369
-569.646	-22.508	-0.054	0.033
-568.631	15.020	0.273	-0.215
-567.617	-88.437	0.308	-0.092
-566.602	-131.408	0.149	-0.020
-565.588	-70.241	-0.101	0.038
-564.573	800.000	0.052	0.177
-563.558	-54.850	-0.087	0.040
-562.544	-89.666	-0.099	-0.029
-561.529	-55.935	0.311	0.140
-560.515	-127.140	-0.303	0.045
-559.500	-200.000	-0.027	0.293
-558.485	-63.736	-0.413	0.170
-557.471	9.459	0.094	-0.071
-556.456	-200.000	0.028	-0.150
-555.442	43.127	-0.102	-0.094
-554.427	-34.035	-0.279	-0.154
-553.412	-5.618	-0.157	-0.108
-552.398	-89.959	0.190	-0.056
-551.383	-47.684	0.035	0.017
-550.369	652.032	-0.107	-0.275
-549.354	333.841	0.096	-0.186
-548.339	99.116	0.230	-0.266
-547.325	-80.636	-0.235	-0.079
-546.310	800.000	-0.084	-0.355
-545.296	23.040	0.409	0.337
-544.281	800.000	0.077	0.259
-543.266	116.719	-0.047	0.058
-542.252	189.621	-0.070	-0.105
-541.237	-200.000	-0.022	-0.165
-540.223	18.373	-0.193	0.155
-539.208	-200.000	0.021	0.148
-538.193	-59.313	0.237	-0.102
-537.179	147.497	0.122	0.165
-536.164	118.428	0.176	-0.218
-535.150	-82.468	-0.162	0.053
-534.135	-117.896	0.112	0.020
-533.121	723.194	0.169	-0.453
-532.106	617.226	0.066	-0.167
-531.091	800.000	-0.088	-0.291
-530.077	800.000	-0.078	0.330
-529.062	-22.025	-0.139	0.085
-528.048	-129.466	0.058	-0.008
-527.033	217.354	-0.266	-0.426
-526.018	-68.126	0.247	0.097
-525.004	-10.073	-0.306	-0.204
-523.989	14.305	-0.268	-0.209
-522.975	183.149	0.238	-0.352
-521.960	-3.459	0.085	0.059
-520.945	9.462	-0.228	0.173
-519.931	65.915	0.115	-0.117
-518.916	16.973	-0.085	0.067
-517.902	-30.699	-0.285	-0.162
-516.887	-200.000	0.012	0.287
-515.872	86.840	0.164	0.182
-514.858	-30.167	-0.134	-0.076
-513.843	180.483	0.125	0.184
-512.829	-200.000	-0.047	-0.234
-511.814	30.259	0.146	-0.125
-510.799	189.691	0.214	-0.322
-509.785	548.175	-0.123	0.294
-508.770	397.699	0.132	0.277
-507.756	272.396	-0.163	-0.289
-506.741	97.966	-0.079	-0.091
-505.726	225.051	0.124	0.202
-504.712	-145.137	-0.372	0.034
-503.697	26.535	-0.153	-0.128
-502.683	-200.000	-0.072	-0.376
-501.668	-124.707	-0.086	0.013
-500.653	3.689	-0.064	0.047
-499.639	-100.038	-0.246	0.061
-498.624	-200.000	-0.018	-0.202
-497.610	-200.000	0.013	-0.138
-496.595	-147.326	-0.250	0.021
-495.581	-2.753	-0.261	0.183
-494.566	-161.008	0.086	-0.005
-493.551	-156.262	-0.213	0.013
-492.537	-103.165	-0.094	0.022
-491.522	-113.575	0.281	-0.055
-490.508	-78.541	-0.245	-0.084
-489.493	55.729	-0.128	-0.124
-488.478	-78.922	0.394	-0.134
-487.464	559.918	0.079	-0.191
-486.449	-86.015	0.156	-0.048
-485.435	-23.978	-0.094	-0.056
-484.420	-200.000	0.014	-0.130
-483.405	800.000	-0.030	0.102
-482.391	-84.269	0.242	-0.077
-481.376	-48.264	-0.160	-0.077
-480.362	-58.209	-0.521	0.227
-479.347	-153.023	-0.301	0.021
-478.332	290.369	0.026	-0.047
-477.318	-13.528	0.242	-0.157
-476.303	-180.127	0.220	-0.005
-475.289	534.963	-0.104	0.247
-474.274	152.056	-0.096	-0.131
-473.259	62.024	-0.215	0.215
-472.245	324.220	-0.194	0.371
-471.230	-88.238	0.170	-0.051
-470.216	9.346	0.406	0.307
-469.201	800.000	0.093	0.386
-468.186	-165.151	-0.433	-0.019
-467.172	800.000	0.064	0.201
-466.157	325.565	0.012	-0.022
-465.143	-4.207	0.106	-0.073
-464.128	-200.000	-0.012	-0.147
-463.113	270.611	-0.146	0.258
-462.099	-200.000	0.011	0.090
-461.084	56.533	0.168	0.164
-460.070	24.526	-0.096	0.080
-459.055	800.000	0.069	-0.229
-458.040	173.960	-0.027	-0.039
-457.026	78.131	0.182	-0.195
-456.011	-0.312	-0.265	-0.188
-454.997	-112.163	0.147	0.030
-453.982	694.423	0.089	-0.232
-452.968	-56.137	-0.123	0.055
-451.953	-152.828	-0.175	0.012
-450.938	-128.609	0.232	-0.033
-449.924	24.638	-0.168	0.139
-448.909	-32.013	-0.154	-0.086
-447.895	-200.000	0.037	-0.183
-446.880	-151.184	-0.378	0.028
-445.865	182.935	0.102	-0.151
-444.851	-23.452	0.024	-0.015
-443.836	398.970	-0.115	0.242
-442.822	-143.925	-0.222	-0.021
-441.807	800.000	0.007	0.029
-440.792	-200.000	-0.008	-0.125
-439.778	-59.421	-0.132	-0.057
-438.763	-200.000	-0.035	0.351
-437.749	64.387	0.028	-0.029
-436.734	-26.774	0.359	0.210
-435.719	-67.305	-0.274	0.108
-434.705	90.852	0.377	0.422
-433.690	-52.622	-0.182	0.084
-432.676	-119.050	0.120	0.021
-431.661	-200.000	0.011	0.263
-430.646	170.257	-0.086	-0.123
-429.632	765.388	0.064	-0.173
-428.617	379.409	0.044	-0.090
-427.603	233.197	0.179	0.294
-426.588	-35.221	-0.206	-0.112
-425.573	-106.051	0.270	0.061
-424.559	-200.000	-0.058	-0.309
-423.544	291.644	0.148	-0.269
-422.530	-100.047	0.048	0.012
-421.515	-191.936	0.146	0.001
-420.500	-56.371	0.294	-0.131
-419.486	-200.000	0.000	-0.417
-418.471	253.140	-0.159	0.271
-417.457	75.226	0.142	0.150
-416.442	412.763	0.040	0.086
-415.428	305.262	0.142	0.264
-414.413	761.341	-0.070	0.191
-413.398	279.395	0.031	0.056
-412.384	45.807	0.196	-0.181
-411.369	-200.000	0.009	-0.244
-410.355	800.000	0.095	-0.261
-409.340	268.808	0.183	-0.320
-408.325	-200.000	0.024	-0.114
-407.311	36.324	0.014	-0.013
-406.296	412.187	-0.116	0.246
-405.282	-94.910	0.407	0.110
-404.267	-93.594	-0.092	0.025
-403.252	58.047	0.193	0.188
-402.238	800.000	-0.103	0.299
-401.223	-200.000	0.025	0.192
-400.209	11.504	-0.011	-0.009
-399.194	71.067	-0.015	-0.015
-398.179	78.028	0.024	-0.025
-397.165	800.000	0.053	0.175
-396.150	-84.591	-0.146	0.046
-395.136	723.592	-0.008	-0.022
-394.121	140.373	-0.036	-0.048
-393.106	44.475	-0.253	-0.232
-392.092	161.663	0.142	0.198
-391.077	-127.326	-0.101	0.015
-390.063	800.000	0.062	-0.207
-389.048	-200.000	-0.023	-0.552
-388.033	13.879	-0.192	0.149
-387.019	-138.752	0.308	0.034
-386.004	47.501	-0.281	-0.262
-384.990	-200.000	-0.028	-0.167
-383.975	0.971	-0.345	-0.247
-382.960	-200.000	-0.041	0.244
-381.946	243.480	-0.086	0.144
-380.931	-54.015	-0.105	0.048
-379.917	69.856	0.144	0.148
-378.902	-69.884	0.251	0.095
-377.888	-156.505	0.186	-0.012
-376.873	800.000	-0.098	0.289
-375.858	24.248	-0.122	0.100
-374.844	-200.000	0.239	0.001
-373.829	800.000	-0.060	0.189
-372.815	205.357	-0.060	0.094
-371.800	60.403	0.128	0.127
-370.785	-200.000	0.004	0.384
-369.771	190.974	-0.157	0.236
-368.756	800.000	-0.058	-0.193
-367.742	-200.000	-0.020	0.157
-366.727	4.213	-0.234	-0.171
-365.712	-200.000	0.012	-0.288
-364.698	-12.283	0.225	0.147
-363.683	-200.000	0.021	0.175
-362.669	-84.987	0.379	-0.119
-361.654	78.514	-0.215	-0.229
-360.639	-76.601	-0.184	-0.064
-359.625	-200.000	0.076	0.369
-358.610	800.000	0.066	-0.233
-357.596	160.893	0.186	-0.260
-356.581	400.750	-0.079	-0.164
-355.566	-200.000	-0.038	0.341
-354.552	10.479	-0.203	-0.154
-353.537	-165.860	0.165	-0.007
-352.523	132.799	0.177	0.228
-351.508	-89.362	-0.132	-0.039
-350.493	347.925	0.205	0.402
-349.479	-200.000	0.073	0.410
-348.464	-56.591	-0.147	-0.065
-347.450	172.004	0.194	-0.278
-346.435	-57.857	-0.130	-0.057
-345.420	800.000	0.084	-0.326
-344.406	-49.225	0.251	0.119
-343.391	480.577	-0.046	-0.105
-342.377	-41.484	0.077	0.039
-341.362	-200.000	-0.054	0.289
-340.348	-64.594	0.297	0.120
-339.333	-200.000	-0.067	-0.463
-338.318	-160.912	-0.310	0.016
-337.304	-200.000	-0.027	-0.265
-336.289	-46.851	0.053	-0.026
-335.275	-107.475	0.165	0.036
-334.260	220.167	-0.226	-0.360
-333.245	36.495	-0.202	0.178
-332.231	-200.000	0.001	0.195
-331.216	-38.415	-0.071	0.038
-330.202	53.123	-0.177	-0.169
-329.187	-200.000	0.021	-0.341
-328.172	-110.393	0.342	-0.071
-327.158	-200.000	0.007	0.044
-326.143	-148.610	0.167	0.014
-325.129	272.017	0.080	0.140
-324.114	-112.076	0.060	0.012
-323.099	800.000	-0.135	0.463
-322.085	-106.189	0.464	0.104
-321.070	9.207	-0.138	-0.104
-320.056	523.438	-0.089	0.208
-319.041	73.314	0.254	0.265
-318.026	-100.650	-0.120	-0.030
-317.012	-200.000	0.028	0.165
-315.997	-64.153	0.056	-0.023
-314.983	-200.000	0.003	0.179
-313.968	-58.910	-0.079	0.034
-312.953	-200.000	-0.006	0.088
-311.939	185.543	-0.320	-0.473
-310.924	-132.004	0.431	-0.056
-309.910	-182.069	-0.107	0.002
-308.895	55.235	0.227	0.218
-307.880	800.000	-0.038	-0.156
-306.866	-200.000	0.013	-0.079
-305.851	-200.000	-0.040	-0.223
-304.837	800.000	-0.058	-0.233
-303.822	-112.104	0.254	0.051
-302.807	82.509	0.153	-0.165
-301.793	-31.952	-0.129	-0.072
-300.778	-120.305	-0.230	0.039
-299.764	-70.355	0.236	-0.089
-298.749	-122.664	-0.051	-0.008
-297.735	-200.000	0.020	0.116
-296.720	-71.262	-0.110	-0.041
-295.705	-56.401	-0.072	-0.032
-294.691	-200.000	-0.039	-0.363
-293.676	403.222	-0.210	-0.440
-292.662	-200.000	-0.043	0.450
-291.647	628.929	-0.029	0.074
-290.632	298.186	-0.101	-0.185
-289.618	-170.675	0.179	0.006
-288.603	413.310	-0.047	-0.100
-287.589	-73.571	-0.127	0.046
-286.574	-132.650	-0.097	0.012
-285.559	-103.868	-0.099	-0.023
-284.545	-200.000	-0.037	0.192
-283.530	-75.066	0.026	0.009
-282.516	158.719	0.098	-0.135
-281.501	25.006	-0.280	-0.231
-280.486	-200.000	0.044	0.244
-279.472	-200.000	-0.033	0.398
-278.457	-125.892	0.073	0.011
-277.443	32.932	-0.066	0.057
-276.428	183.122	-0.109	-0.160
-275.413	626.417	0.025	-0.063
-274.399	124.866	0.059	-0.073
-273.384	-26.948	-0.190	0.110
-272.370	-161.418	0.355	-0.018
-271.355	124.039	-0.192	-0.239
-270.340	800.000	0.016	-0.063
-269.326	6.942	-0.141	-0.104
-268.311	-8.824	-0.306	-0.204
-267.297	-94.388	-0.289	-0.078
-266.282	470.530	-0.084	0.189
-265.267	-200.000	0.027	-0.326
-264.253	-200.000	-0.038	0.171
-263.238	-85.946	-0.285	-0.088
-262.224	4.746	-0.121	-0.088
-261.209	-200.000	0.049	0.304
-260.195	362.188	0.147	0.293
-259.180	101.223	0.097	0.113
-258.165	-200.000	-0.017	-0.248
-257.151	144.952	-0.127	0.169
-256.136	-200.000	0.051	-0.309
-255.122	65.330	-0.055	0.055
-254.107	-160.338	-0.163	-0.009
-253.092	800.000	0.036	0.158
-252.078	75.790	-0.187	-0.196
-251.063	-200.000	0.068	-0.310
-250.049	-200.000	0.014	-0.105
-249.034	324.410	0.029	0.055
-248.019	194.455	-0.155	0.233
-247.005	-200.000	-0.008	0.217
-245.990	800.000	-0.046	-0.156
-244.976	-31.199	-0.359	0.201
-243.961	800.000	-0.034	-0.117
-242.946	57.092	-0.149	-0.145
-241.932	270.136	0.213	-0.372
-240.917	11.218	-0.100	0.076
-239.903	-89.067	0.350	-0.103
-238.888	-132.716	0.107	0.014
-237.873	154.382	-0.142	0.193
-236.859	800.000	0.048	0.196
-235.844	24.099	0.268	0.219
-234.830	115.019	0.053	-0.064
-233.815	-90.709	0.201	-0.058
-232.800	-105.723	0.136	0.030
-231.786	564.985	-0.141	-0.340
-230.771	3.961	-0.113	0.082
-229.757	-200.000	0.067	-0.297
-228.742	-200.000	-0.010	0.085
-227.727	-163.989	0.184	0.008
-226.713	-190.490	-0.213	-0.002
-225.698	-43.312	-0.123	-0.061
-224.684	627.269	-0.071	-0.179
-223.669	-16.957	0.381	0.239
-222.655	167.763	0.082	0.115
-221.640	431.153	-0.128	-0.274
-220.625	313.902	-0.066	-0.123
-219.611	-200.000	0.012	-0.107
-218.596	-171.541	0.282	0.009
-217.582	-92.237	-0.083	-0.023
-216.567	174.668	-0.046	-0.066
-215.552	190.720	-0.005	-0.008
-214.538	800.000	0.077	0.223
-213.523	12.281	-0.335	0.256
-212.509	336.573	0.092	0.176
-211.494	-39.650	-0.309	-0.160
-210.479	-183.144	0.215	-0.004
-209.465	-88.583	0.219	-0.065
-208.450	800.000	0.065	0.194
-207.436	800.000	-0.070	0.263
-206.421	-81.052	0.136	-0.045
-205.406	81.188	0.236	0.253
-204.392	29.846	0.363	0.306
-203.377	-166.318	-0.239	0.010
-202.363	38.813	0.046	0.040
-201.348	-160.741	-0.188	-0.010
-200.333	137.354	-0.083	-0.107
-199.319	-68.765	0.222	0.085
-198.304	301.542	0.104	-0.190
-197.290	-124.245	0.186	-0.029
-196.275	-10.899	0.178	0.116
-195.260	800.000	0.037	-0.138
-194.246	-200.000	0.042	0.348
-193.231	117.062	0.081	0.098
-192.217	-115.875	-0.190	-0.035
-191.202	226.338	0.218	0.351
-190.187	-200.000	0.023	-0.141
-189.173	52.507	0.313	0.296
-188.158	-66.379	0.227	0.090
-187.144	800.000	-0.096	-0.306
-186.129	87.598	0.074	-0.082
-185.114	144.844	-0.090	-0.119
-184.100	800.000	0.050	0.206
-183.085	16.113	0.288	-0.225
-182.071	-200.000	-0.001	0.034
-181.056	-21.286	-0.346	-0.209
-180.042	-147.955	-0.163	0.013
-179.027	-200.000	0.066	0.391
-178.012	95.665	0.069	0.078
-176.998	-200.000	0.005	0.287
-175.983	-200.000	-0.006	0.051
-174.969	800.000	-0.059	0.191
-173.954	-84.470	0.285	-0.089
-172.939	800.000	0.038	-0.136
-171.925	32.196	-0.391	0.334
-170.910	800.000	0.055	0.174
-169.896	-200.000	-0.065	-0.380
-168.881	-173.841	0.358	-0.010
-167.866	38.843	0.221	0.196
-166.852	-78.713	0.084	0.028
-165.837	-200.000	0.033	0.172
-164.823	-200.000	-0.007	0.203
-163.808	-200.000	0.056	0.471
-162.793	-99.621	0.416	-0.103
-161.779	-200.000	-0.003	-0.122
-160.764	-177.199	0.167	-0.004
-159.750	-30.240	0.186	-0.105
-158.735	-81.275	0.124	0.041
-157.720	210.022	0.097	0.151
-156.706	-134.252	-0.351	0.043
-155.691	-200.000	0.027	0.178
-154.677	56.825	-0.195	0.188
-153.662	-86.807	0.277	0.084
-152.647	-24.730	0.224	0.132
-151.633	6.459	-0.045	0.033
-150.618	-200.000	0.011	0.227
-149.604	99.219	-0.129	0.148
-148.589	-50.993	0.204	0.095
-147.574	-200.000	0.001	0.243
-146.560	-95.325	-0.308	0.082
-145.545	-200.000	-0.044	0.319
-144.531	-134.858	0.282	-0.034
-143.516	-75.546	0.212	-0.075
-142.502	-8.468	0.184	-0.122
-141.487	-138.784	0.272	0.029
-140.472	55.406	-0.322	0.308
-139.458	138.470	0.193	-0.250
-138.443	-200.000	-0.017	0.151
-137.429	97.954	0.076	0.087
-136.414	800.000	0.080	0.235
-135.399	-49.671	0.100	-0.047
-134.385	-50.885	0.187	0.087
-133.370	-10.192	0.157	-0.103
-132.356	-38.205	0.168	-0.088
-131.341	23.552	0.095	0.077
-130.326	-82.268	0.196	-0.063
-129.312	-98.783	-0.148	-0.037
-128.297	-93.109	0.168	-0.046
-127.283	-91.269	0.131	-0.037
-126.268	800.000	-0.035	-0.152
-125.253	-200.000	-0.008	0.205
-124.239	-84.897	-0.091	-0.028
-123.224	-88.484	0.168	0.049
-122.210	-39.001	0.303	-0.157
-121.195	-152.247	-0.252	0.018
-120.180	-200.000	0.041	0.385
-119.166	4.403	0.144	0.104
-118.151	27.068	0.261	-0.216
-117.137	-124.675	0.329	0.050
-116.122	-162.076	-0.163	-0.008
-115.107	227.690	0.156	-0.250
-114.093	-115.725	-0.177	0.033
-113.078	-134.663	-0.157	0.019
-112.064	-17.167	0.203	-0.126
-111.049	800.000	-0.044	-0.139
-110.034	29.805	0.109	0.092
-109.020	-176.960	-0.110	-0.003
-108.005	-85.226	0.237	-0.073
-106.991	800.000	0.081	0.303
-105.976	-200.000	0.006	0.027
-104.962	-200.000	0.001	-0.022
-103.947	800.000	-0.077	-0.277
-102.932	-57.352	-0.256	-0.111
-101.918	-200.000	-0.035	-0.287
-100.903	355.936	0.116	0.229
-99.889	-87.128	0.306	0.092
-98.874	-56.321	-0.119	0.052
-97.859	111.598	0.061	0.072
-96.845	114.812	-0.122	-0.147
-95.830	-18.060	-0.277	0.171
-94.816	7.336	0.206	0.151
-93.801	-52.946	-0.152	0.069
-92.786	-200.000	0.018	-0.084
-91.772	-200.000	0.018	-0.361
-90.757	643.470	0.085	0.215
-89.743	-47.574	0.095	0.045
-88.728	-110.230	-0.244	0.050
-87.713	-143.652	0.368	0.034
-86.699	91.168	-0.038	-0.042
-85.684	-3.896	-0.085	0.058
-84.670	-200.000	0.051	-0.393
-83.655	-80.018	0.321	0.106
-82.640	65.486	-0.124	-0.123
-81.626	-30.299	0.063	0.035
-80.611	66.040	-0.174	0.174
-79.597	-200.000	-0.066	0.375
-78.582	-171.759	0.043	-0.001
-77.567	-86.756	-0.212	-0.064
-76.553	-112.968	0.438	0.086
-75.538	-85.372	-0.109	0.033
-74.524	178.081	0.072	0.104
-73.509	-121.292	-0.035	0.006
-72.494	-200.000	-0.011	0.051
-71.480	-200.000	0.007	0.234
-70.465	800.000	-0.087	0.254
-69.451	14.866	0.319	0.246
-68.436	-98.063	0.250	-0.064
-67.422	800.000	-0.032	0.105
-66.407	-200.000	-0.005	-0.193
-65.392	62.271	0.078	-0.076
-64.378	-103.011	0.125	0.029
-63.363	-132.457	0.386	0.049
-62.349	345.395	0.227	0.440
-61.334	46.132	-0.933	-0.851
-60.319	-84.436	0.408	0.127
-59.305	432.674	-0.347	-0.741
-58.290	266.918	0.595	1.024
-57.276	234.931	0.881	1.432
-56.261	-200.000	103.321	624.808
-55.246	604.990	1442.243	3538.073
-54.232	181.336	2651.285	3840.648
-53.217	117.927	2198.485	2667.918
-52.203	44.115	1727.755	1560.664
-51.188	36.990	1538.597	1340.697
-50.173	34.502	1511.850	1300.401
-49.159	54.135	1565.410	1483.200
-48.144	56.347	1583.746	1515.870
-47.130	37.226	1537.080	1340.795
-46.115	34.043	1522.208	1305.950
-45.100	33.793	1519.017	1301.453
-44.086	33.808	1516.926	1299.709
-43.071	33.748	1514.765	1297.396
-42.057	33.754	1513.375	1296.193
-41.042	33.711	1512.617	1295.203
-40.027	33.812	1510.090	1293.674
-39.013	33.758	1508.447	1291.851
-37.998	33.791	1507.908	1291.559
-36.984	33.714	1506.793	1290.032
-35.969	33.805	1505.148	1289.185
-34.954	33.729	1504.121	1287.742
-33.940	33.650	1502.718	1285.954
-32.925	33.729	1500.933	1284.912
-31.911	33.735	1500.096	1284.184
-30.896	33.818	1498.717	1283.516
-29.881	33.727	1497.850	1282.108
-28.867	33.827	1496.241	1281.354
-27.852	33.858	1494.196	1279.758
-26.838	33.863	1492.909	1278.638
-25.823	33.662	1491.928	1276.395
-24.809	33.635	1490.412	1274.864
-23.794	33.709	1488.935	1274.050
-22.779	33.773	1487.037	1272.802
-21.765	33.695	1486.748	1271.982
-20.750	33.641	1485.255	1270.296
-19.736	33.753	1484.376	1270.244
-18.721	33.754	1482.941	1268.969
-17.706	33.729	1481.752	1267.732
-16.692	33.716	1480.715	1266.711
-15.677	33.817	1479.780	1266.532
-14.663	33.639	1478.970	1264.603
-13.648	33.729	1477.467	1263.866
-12.633	33.682	1477.348	1263.403
-11.619	33.816	1476.104	1263.182
-10.604	33.747	1475.671	1262.302
-9.590	33.727	1474.129	1260.800
-8.575	33.791	1473.810	1260.901
-7.560	33.766	1472.982	1259.975
-6.546	33.672	1472.012	1258.471
-5.531	33.755	1470.908	1258.032
-4.517	33.691	1470.252	1256.994
-3.502	33.618	1469.040	1255.422
-2.487	33.689	1467.965	1254.926
-1.473	33.734	1466.609	1254.016
-0.458	33.719	1465.597	1253.003
0.556	31.098	1455.853	1240.382
1.571	27.684	1428.087	1194.304
2.586	23.679	1365.163	1116.453
3.600	21.876	1282.075	1037.752
4.615	20.671	1237.090	994.369
5.629	17.811	1181.687	934.117
6.644	8.665	1094.991	818.902
7.659	0.859	1053.148	749.014
8.673	-0.193	1046.637	739.139
9.688	-0.449	1044.018	735.967
10.702	-0.468	1042.364	734.640
11.717	-0.470	1040.823	733.481
12.731	2.690	1044.123	751.240
13.746	11.739	1057.375	805.443
14.761	17.992	1064.518	841.718
15.775	18.105	1064.337	842.056
16.790	18.023	1063.055	840.562
17.804	17.654	1062.507	838.243
18.819	17.456	1061.358	836.289
19.834	17.563	1060.801	836.303
20.848	17.433	1060.474	835.329
21.863	17.575	1059.629	835.287
22.877	17.524	1058.821	834.324
23.892	17.384	1058.716	833.482
24.907	17.351	1057.760	832.495
25.921	17.443	1057.067	832.327
26.936	17.585	1056.356	832.389
27.950	17.550	1055.119	831.169
28.965	17.527	1053.700	829.866
29.980	17.351	1052.496	827.989
30.994	17.386	1050.362	826.404
32.009	17.574	1049.405	826.492
33.023	17.754	1048.217	826.353
34.038	17.388	1047.439	823.894
35.053	17.377	1046.688	823.180
36.067	17.647	1045.629	823.576
37.082	17.515	1045.402	822.686
38.096	17.681	1044.551	822.747
39.111	17.752	1044.271	822.797
40.126	17.764	1042.617	821.478
41.140	17.895	1040.845	820.637
42.155	17.489	1040.125	818.046
43.169	17.351	1038.616	816.127
44.184	17.196	1038.036	814.857
45.199	17.370	1036.653	814.530
46.213	17.268	1035.369	812.964
47.228	17.330	1033.926	812.056
48.242	17.338	1033.145	811.408
49.257	17.315	1032.295	810.557
50.271	17.341	1031.487	809.977
51.286	17.466	1030.934	810.063
52.301	17.539	1029.417	809.150
53.315	17.491	1029.141	808.632
54.330	17.529	1027.753	807.650
55.344	17.529	1026.793	806.821
56.359	17.507	1025.932	805.973
57.374	17.676	1024.734	805.759
58.388	17.425	1024.048	803.963
59.403	17.423	1023.273	803.271
60.417	17.345	1022.959	802.587
61.432	17.260	1021.982	801.347
62.447	17.351	1021.116	801.025
63.461	17.296	1020.676	800.353
64.476	17.457	1019.615	800.207
65.490	17.566	1018.328	799.636
66.505	17.474	1017.314	798.337
67.520	17.506	1016.541	797.810
68.534	17.460	1016.063	797.150
69.549	17.454	1014.292	795.660
70.563	17.115	1013.681	793.530
71.578	17.041	1013.027	792.601
72.593	17.225	1012.172	792.719
73.607	17.140	1010.304	790.792
74.622	17.056	1010.339	790.357
75.636	17.370	1009.318	790.951
76.651	17.462	1008.517	790.681
77.666	17.245	1007.684	788.949
78.680	17.296	1006.378	788.093
79.695	17.219	1006.668	787.894
80.709	17.318	1006.086	787.828
81.724	17.346	1004.978	787.018
82.739	17.314	1003.599	785.723
83.753	17.232	1003.206	784.967
84.768	17.489	1002.450	785.489
85.782	17.681	1001.783	785.784
86.797	17.681	1000.974	785.081
87.812	17.650	1000.308	784.344
88.826	17.476	999.269	782.660
89.841	17.549	998.130	782.037
90.855	17.706	997.496	782.190
91.870	17.726	996.663	781.560
92.884	17.642	995.980	780.570
93.899	17.634	994.711	779.471
94.914	17.600	993.412	778.229
95.928	17.686	993.088	778.299
96.943	17.744	992.066	777.691
97.957	17.450	991.093	775.521
98.972	17.299	989.915	773.844
99.987	17.125	988.781	772.097
101.001	17.147	988.324	771.771
102.016	17.535	987.307	772.672
103.030	17.572	986.466	772.113
104.045	17.456	985.321	770.621
105.060	17.180	984.268	768.484
106.074	17.175	982.545	767.048
107.089	17.215	982.411	767.056
108.103	17.490	982.135	768.012
109.118	17.640	980.786	767.566
110.133	17.455	979.760	765.859
111.147	17.603	978.377	765.379
112.162	17.570	977.457	764.440
113.176	17.243	976.426	762.100
114.191	17.382	975.465	761.907
115.206	17.328	974.876	761.136
116.220	17.087	973.483	758.904
117.235	17.153	972.408	758.295
118.249	17.272	971.677	758.187
119.264	17.245	970.682	757.225
120.279	17.192	970.023	756.408
121.293	17.153	968.743	755.172
122.308	17.309	968.344	755.485
123.322	17.263	967.287	754.392
124.337	17.323	966.340	753.851
125.352	17.218	965.093	752.345
126.366	16.946	963.084	749.512
127.381	16.697	961.401	747.037
128.395	17.094	961.060	748.456
129.410	17.621	960.783	750.496
130.424	17.630	959.854	749.746
131.439	17.726	958.558	749.087
132.454	17.635	957.451	747.758
133.468	17.548	956.785	746.788
134.483	17.628	955.812	746.315
135.497	17.656	955.057	745.781
136.512	17.812	954.603	746.044
137.527	17.810	953.611	745.193
138.541	17.840	952.581	744.452
139.556	17.835	952.010	743.919
140.570	17.842	951.456	743.449
141.585	17.691	950.642	742.090
142.600	17.731	949.706	741.469
143.614	17.776	948.487	740.645
144.629	17.824	948.141	740.519
145.643	17.843	947.585	740.100
146.658	18.036	945.874	739.535
147.673	17.808	944.538	737.442
148.687	17.700	943.671	736.230
149.702	17.763	942.603	735.604
150.716	17.584	942.078	734.361
151.731	17.729	940.790	733.914
152.746	17.629	940.475	733.172
153.760	17.903	939.772	733.740
154.775	17.919	938.800	732.984
155.789	17.919	938.173	732.427
156.804	17.884	936.749	731.103
157.819	17.878	936.139	730.534
158.833	17.897	935.192	729.814
159.848	18.139	934.191	730.000
160.862	17.985	933.465	728.713
161.877	17.826	932.664	727.346
162.892	17.747	931.806	726.274
163.906	17.956	931.297	726.702
164.921	18.009	929.955	725.817
165.935	17.859	929.230	724.551
166.950	17.882	928.056	723.669
167.964	17.943	927.085	723.103
168.979	18.055	925.426	722.222
169.994	17.924	924.729	721.061
171.008	17.865	923.672	719.922
172.023	17.892	922.960	719.419
173.037	17.999	922.164	719.185
174.052	17.802	920.588	717.062
175.067	17.564	920.137	715.650
176.081	17.608	919.727	715.452
177.096	17.840	918.467	715.379
178.110	17.834	917.427	714.481
179.125	17.657	916.423	712.897
180.140	17.496	915.411	711.373
181.154	17.411	914.978	710.619
182.169	17.437	914.167	710.035
183.183	17.691	913.570	710.567
184.198	18.008	912.993	711.378
185.213	18.016	912.013	710.584
186.227	17.901	911.744	709.832
187.242	17.924	911.165	709.413
188.256	18.020	910.134	708.947
189.271	18.019	909.127	708.093
190.286	18.041	908.751	707.832
191.300	17.951	907.933	706.759
192.315	17.537	906.552	703.911
193.329	16.972	905.351	700.582
194.344	16.656	904.111	698.258
195.359	17.035	904.396	699.979
196.373	17.730	904.639	702.972
197.388	17.870	904.309	703.231
198.402	17.774	903.191	701.904
199.417	17.545	902.203	700.131
200.432	17.685	902.303	700.724
201.446	17.626	900.980	699.393
202.461	17.309	900.321	697.517
203.475	17.222	900.235	697.033
204.490	16.910	898.533	694.377
205.504	15.965	896.388	688.794
206.519	16.469	896.466	690.853
207.534	17.287	896.775	694.374
208.548	17.406	896.046	694.234
209.563	17.771	895.586	695.304
210.577	17.899	894.934	695.256
211.592	17.630	893.950	693.338
212.607	18.062	893.404	694.609
213.621	18.025	893.093	694.154
214.636	17.946	892.472	693.289
215.650	18.023	892.006	693.180
216.665	18.040	891.220	692.578
217.680	18.030	890.652	692.035
218.694	17.963	890.507	691.589
219.709	17.628	889.182	689.142
220.723	17.443	888.415	687.739
221.738	17.646	887.821	688.038
222.753	17.900	887.427	688.696
223.767	17.803	886.411	687.458
224.782	17.818	885.755	686.948
225.796	18.040	885.375	687.485
226.811	18.188	884.538	687.372
227.826	17.842	883.048	684.765
228.840	17.224	881.451	680.988
229.855	17.053	881.254	680.091
230.869	17.290	880.757	680.597
231.884	17.079	879.501	678.723
232.899	17.002	879.350	678.238
233.913	17.696	879.544	681.101
234.928	17.931	879.034	681.583
235.942	18.058	878.006	681.231
236.957	18.079	877.382	680.770
237.972	17.749	876.476	678.694
238.986	17.599	875.839	677.545
240.001	17.648	875.404	677.344
241.015	17.813	874.388	677.152
242.030	17.899	873.560	676.791
243.045	17.884	873.273	676.452
244.059	18.034	872.578	676.448
245.074	18.088	872.287	676.374
246.088	17.993	871.643	675.438
247.103	17.690	870.171	673.042
248.117	17.703	869.548	672.554
249.132	18.058	869.290	673.696
250.147	18.469	868.663	674.767
251.161	18.275	868.289	673.655
252.176	18.555	867.286	673.914
253.190	18.455	866.822	673.103
254.205	18.624	866.245	673.259
255.220	18.629	865.966	673.003
256.234	18.736	865.308	672.849
257.249	18.733	864.344	672.028
258.263	18.550	863.994	670.980
259.278	18.555	863.169	670.301
260.293	18.632	862.773	670.235
261.307	18.729	861.852	669.840
262.322	18.821	860.989	669.468
263.336	18.519	860.155	667.582
264.351	17.979	859.172	664.662
265.366	16.874	857.381	658.922
266.380	16.562	856.406	656.906
267.395	17.293	856.792	659.982
268.409	18.036	856.787	662.802
269.424	18.177	856.008	662.686
270.439	18.364	855.406	662.888
271.453	18.505	854.898	662.980
272.468	18.434	854.587	662.407
273.482	18.698	853.770	662.732
274.497	18.843	852.893	662.552
275.512	18.584	852.174	660.937
276.526	18.099	850.676	657.852
277.541	18.367	850.289	658.527
278.555	18.669	850.429	659.736
279.570	18.331	849.316	657.519
280.585	18.120	848.155	655.749
281.599	18.244	847.579	655.722
282.614	18.339	847.564	656.016
283.628	18.140	845.965	653.961
284.643	17.752	845.459	652.027
285.657	18.284	845.260	653.848
286.672	18.122	844.512	652.596
287.687	17.555	843.803	649.825
288.701	17.850	843.823	650.910
289.716	18.281	843.095	651.933
290.730	17.895	842.039	649.590
291.745	17.845	841.241	648.725
292.760	17.741	840.146	647.430
293.774	17.709	839.754	646.948
294.789	18.274	840.203	649.381
295.803	18.847	840.191	651.487
296.818	19.138	839.166	651.739
297.833	19.232	839.058	651.953
298.847	18.876	838.022	649.745
299.862	18.583	837.138	647.896
300.876	18.817	836.305	648.073
301.891	19.038	836.058	648.661
302.906	19.001	835.106	647.724
303.920	18.587	833.788	645.088
304.935	18.426	833.565	644.252
305.949	18.870	833.024	645.446
306.964	18.935	832.627	645.326
307.979	18.777	832.072	644.247
308.993	18.817	831.571	643.951
310.008	19.098	831.375	644.794
311.022	19.081	830.931	644.328
312.037	19.067	830.241	643.686
313.052	18.794	829.956	642.385
314.066	18.701	828.625	640.950
315.081	18.273	827.565	638.479
316.095	17.809	826.044	635.521
317.110	17.998	826.715	636.684
318.125	18.803	826.657	639.584
319.139	18.568	825.357	637.649
320.154	17.632	823.976	633.048
321.168	17.221	823.332	630.973
322.183	17.719	823.337	632.767
323.197	18.512	823.294	635.622
324.212	18.817	823.049	636.504
325.227	18.851	822.517	636.164
326.241	19.057	822.234	636.650
327.256	18.924	821.967	635.896
328.270	18.866	821.562	635.311
329.285	18.753	820.335	633.891
330.300	18.688	819.567	632.998
331.314	18.558	818.836	631.901
332.329	18.475	818.475	631.261
333.343	18.906	817.594	632.112
334.358	18.985	817.573	632.328
335.373	18.854	817.019	631.363
336.387	18.990	816.170	631.150
337.402	19.323	815.653	631.914
338.416	19.393	815.346	631.877
339.431	19.417	814.459	631.223
340.446	19.240	813.968	630.138
341.460	19.372	813.244	630.006
342.475	19.236	812.984	629.251
343.489	19.169	812.116	628.278
344.504	19.157	811.390	627.617
345.519	19.264	811.274	627.863
346.533	19.569	810.657	628.438
347.548	19.614	810.533	628.450
348.562	19.693	809.975	628.250
349.577	19.697	809.608	627.926
350.592	19.565	809.158	627.039
351.606	19.688	808.853	627.195
352.621	19.625	808.136	626.354
353.635	19.684	807.449	625.981
354.650	19.633	806.747	625.197
355.665	19.096	805.920	622.559
356.679	18.373	804.285	618.631
357.694	18.262	803.861	617.848
358.708	18.812	803.889	619.801
359.723	18.923	802.925	619.403
360.738	19.026	802.888	619.689
361.752	19.502	802.719	621.220
362.767	19.527	802.398	621.004
363.781	19.597	802.459	621.248
364.796	19.748	802.163	621.510
365.810	19.966	801.412	621.656
366.825	20.001	801.307	621.643
367.840	19.949	800.854	621.049
368.854	19.763	799.999	619.668
369.869	19.497	799.313	618.128
370.883	19.352	798.782	617.142
371.898	19.518	798.069	617.131
372.913	19.538	797.194	616.471
373.927	19.294	796.537	615.038
374.942	19.526	796.416	615.718
375.956	19.609	795.875	615.540
376.971	19.567	795.321	614.910
377.986	19.777	794.861	615.247
379.000	19.959	794.454	615.522
380.015	19.888	793.817	614.722
381.029	19.779	793.247	613.841
382.044	19.877	792.778	613.769
383.059	19.936	792.189	613.469
384.073	19.832	791.531	612.538
385.088	19.842	791.159	612.229
386.102	20.116	790.432	612.582
387.117	19.838	790.081	611.275
388.132	20.014	789.303	611.239
389.146	19.748	789.025	610.030
390.161	19.242	788.332	607.657
391.175	19.279	787.487	607.082
392.190	19.668	787.328	608.275
393.205	19.716	786.899	608.061
394.219	19.058	785.285	604.449
395.234	17.668	783.415	598.083
396.248	17.023	783.006	595.453
397.263	18.026	783.647	599.410
398.278	19.657	784.193	605.495
399.292	20.011	784.407	606.846
400.307	19.626	783.735	604.924
401.321	19.800	783.316	605.155
402.336	19.646	783.175	604.457
403.350	19.882	782.949	605.051
404.365	20.299	782.631	606.210
405.380	20.257	782.613	605.996
406.394	20.498	781.924	606.249
407.409	20.661	781.176	606.185
408.423	20.555	780.629	605.336
409.438	20.396	780.012	604.253
410.453	20.647	779.426	604.618
411.467	20.684	779.217	604.529
412.482	20.630	778.931	604.067
413.496	20.417	778.667	603.069
414.511	20.644	777.922	603.227
415.526	20.446	777.893	602.464
416.540	20.744	776.985	602.739
417.555	20.700	776.905	602.472
418.569	20.416	776.046	600.770
419.584	20.302	775.468	599.875
420.599	20.228	775.193	599.355
421.613	155.732	1359.670	1793.708
422.628	134.387	1444.821	1793.810
