DTS Sentinel unit serial number:	SN413079Multiplexer serial number:	ORYXHardware model number:	OX4-SRSoftware version number:	ORYX F/W v4.00 Oryx Data Collector v3.7.2.0data status	okinstallation	princeton_trtdifferential loss correction	single-endedforward channel	channel 3reverse channel	N/Adate	2019/09/11time	03:26:11forward acquisition time	60.00reverse acquisition time	0.00gamma	496.2192k internal	0.2331k external	0.2331temperature offset calibration	0.9911default loss term (dB/km)	0.3790temperature slope calibration	1.0000multiplexer offset coefficient	1.0000multiplexer slope coefficient	1.0000fibre end	0.00T internal ref (°C)	29.44T ext. ref 1 (°C)	-0.29T ext. ref 2 (°C)	24.22length (m)	temperature (°C)	Stokes	anti-Stokes-747.200	-153.250	-0.269	-0.019
-746.185	-52.750	-0.152	-0.070
-745.171	196.625	0.068	-0.105
-744.156	-200.000	0.013	0.179
-743.142	305.065	0.180	0.336
-742.127	800.000	-0.117	0.385
-741.112	-200.000	-0.034	-0.268
-740.098	2.336	-0.208	0.151
-739.083	-35.042	0.336	-0.185
-738.069	452.824	-0.098	0.219
-737.054	-146.155	0.051	0.004
-736.039	-200.000	-0.034	-0.364
-735.025	254.016	-0.123	0.211
-734.010	800.000	-0.015	-0.045
-732.996	-49.461	-0.144	0.069
-731.981	-97.358	-0.259	-0.068
-730.966	-62.166	-0.179	-0.075
-729.952	-120.931	-0.292	0.049
-728.937	-40.995	-0.311	0.162
-727.923	-200.000	-0.002	-0.158
-726.908	-151.188	-0.223	0.017
-725.894	467.406	0.063	-0.142
-724.879	800.000	0.064	-0.209
-723.864	66.110	-0.238	-0.243
-722.850	591.546	0.073	0.182
-721.835	28.375	-0.269	0.228
-720.821	466.142	-0.135	0.304
-719.806	-200.000	-0.047	-0.253
-718.791	-90.368	-0.232	-0.068
-717.777	-167.108	-0.133	-0.005
-716.762	78.595	-0.230	0.248
-715.748	137.784	-0.178	0.234
-714.733	383.008	-0.060	-0.124
-713.718	-63.437	0.040	0.017
-712.704	-125.850	0.193	0.029
-711.689	-100.310	0.347	0.087
-710.675	108.576	0.053	-0.064
-709.660	-32.176	0.224	0.126
-708.645	-100.000	-0.137	-0.034
-707.631	800.000	-0.040	0.172
-706.616	800.000	-0.139	-0.420
-705.602	-200.000	0.055	-0.438
-704.587	-136.396	0.246	-0.029
-703.572	-136.585	-0.179	-0.021
-702.558	576.780	-0.042	0.104
-701.543	211.295	0.136	0.215
-700.529	-200.000	-0.067	0.305
-699.514	-200.000	0.010	0.074
-698.499	-15.377	-0.156	0.100
-697.485	268.528	-0.108	-0.189
-696.470	534.802	0.080	-0.191
-695.456	-120.405	-0.152	-0.026
-694.441	73.377	0.043	-0.045
-693.426	-121.767	-0.136	0.023
-692.412	800.000	0.042	0.180
-691.397	31.610	0.069	0.059
-690.383	-40.703	0.227	0.118
-689.368	383.583	-0.147	0.304
-688.354	175.005	-0.090	0.132
-687.339	-200.000	0.021	0.220
-686.324	139.576	0.029	0.038
-685.310	-200.000	0.057	-0.583
-684.295	-200.000	-0.042	-0.246
-683.281	-48.292	-0.090	-0.044
-682.266	-10.356	0.249	-0.165
-681.251	3.471	-0.117	-0.086
-680.237	-200.000	-0.004	0.080
-679.222	-63.075	-0.107	0.044
-678.208	-107.539	-0.272	-0.060
-677.193	40.361	0.294	0.265
-676.178	-138.624	-0.141	-0.016
-675.164	-48.231	-0.253	0.123
-674.149	-9.834	-0.018	0.012
-673.135	-22.945	-0.220	-0.133
-672.120	-92.830	-0.018	-0.005
-671.105	57.592	0.241	0.237
-670.091	107.589	0.092	-0.110
-669.076	-80.161	-0.166	-0.056
-668.062	800.000	0.038	0.161
-667.047	667.231	-0.081	-0.211
-666.032	-5.514	0.223	-0.154
-665.018	157.016	0.126	-0.175
-664.003	291.082	0.217	0.397
-662.989	-200.000	-0.059	-0.309
-661.974	42.060	0.155	0.141
-660.959	66.938	0.246	-0.251
-659.945	321.094	-0.113	-0.215
-658.930	-20.234	0.211	-0.130
-657.916	108.746	0.297	-0.356
-656.901	-200.000	0.018	-0.224
-655.886	-160.722	0.275	-0.015
-654.872	-200.000	-0.000	0.071
-653.857	800.000	0.106	-0.349
-652.843	-26.870	-0.277	-0.162
-651.828	-200.000	0.012	0.070
-650.814	800.000	-0.058	0.161
-649.799	-173.532	0.166	-0.005
-648.784	-1.872	0.485	-0.342
-647.770	-200.000	-0.000	-0.197
-646.755	32.009	-0.093	-0.080
-645.741	-65.895	-0.261	-0.105
-644.726	800.000	-0.039	0.142
-643.711	-50.988	0.110	-0.052
-642.697	53.205	-0.283	0.272
-641.682	-200.000	0.043	-0.364
-640.668	-200.000	-0.020	-0.299
-639.653	-145.166	-0.286	0.026
-638.638	-200.000	-0.003	0.166
-637.624	95.020	0.211	0.241
-636.609	-200.000	-0.017	-0.237
-635.595	-200.000	0.047	0.310
-634.580	-37.387	-0.449	-0.240
-633.565	257.919	0.138	0.238
-632.551	-135.705	-0.258	0.031
-631.536	-200.000	-0.013	0.325
-630.522	119.582	0.097	-0.120
-629.507	-166.004	0.276	-0.012
-628.492	-63.009	-0.228	-0.094
-627.478	-200.000	0.064	0.379
-626.463	-200.000	0.020	-0.109
-625.449	161.761	0.332	-0.466
-624.434	-77.903	-0.314	-0.109
-623.419	-68.228	-0.048	-0.019
-622.405	190.780	-0.121	-0.182
-621.390	-33.115	0.246	-0.137
-620.376	224.801	-0.110	-0.178
-619.361	-121.325	-0.196	-0.033
-618.346	134.040	0.172	0.223
-617.332	-15.276	0.221	-0.141
-616.317	147.113	0.382	0.514
-615.303	252.733	0.167	-0.285
-614.288	-200.000	-0.025	-0.432
-613.273	-4.261	-0.164	0.114
-612.259	79.451	0.114	-0.123
-611.244	26.746	0.075	-0.063
-610.230	-200.000	-0.009	-0.318
-609.215	-116.756	-0.039	-0.007
-608.201	-95.715	0.162	0.043
-607.186	59.423	-0.065	0.064
-606.171	800.000	-0.032	-0.123
-605.157	-153.727	0.305	0.021
-604.142	377.211	0.073	0.150
-603.128	-17.059	0.295	-0.186
-602.113	-69.330	0.202	0.078
-601.098	-90.783	0.304	0.088
-600.084	18.787	-0.077	0.062
-599.069	-136.232	-0.382	0.045
-598.055	304.306	0.118	-0.218
-597.040	655.884	-0.018	-0.045
-596.025	411.304	0.116	0.245
-595.011	197.867	-0.242	0.370
-593.996	67.159	0.104	-0.106
-592.982	-200.000	-0.003	-0.047
-591.967	796.002	-0.109	-0.299
-590.952	-200.000	-0.008	0.170
-589.938	-200.000	-0.056	0.330
-588.923	800.000	0.062	-0.206
-587.909	-15.622	0.248	0.158
-586.894	-116.585	-0.416	0.077
-585.879	65.185	0.159	0.161
-584.865	16.881	-0.195	-0.154
-583.850	-14.774	0.162	-0.104
-582.836	241.616	0.043	-0.072
-581.821	148.247	-0.116	0.156
-580.806	-64.641	-0.037	0.015
-579.792	-96.819	-0.039	0.010
-578.777	189.575	-0.101	0.151
-577.763	-53.405	0.065	0.030
-576.748	56.867	-0.260	-0.253
-575.733	147.649	-0.167	-0.226
-574.719	-42.135	-0.120	-0.061
-573.704	-9.560	0.085	0.056
-572.690	-17.518	0.237	0.149
-571.675	174.843	-0.231	0.335
-570.661	-108.822	0.351	-0.075
-569.646	-60.575	0.088	-0.037
-568.631	-200.000	-0.056	0.272
-567.617	124.360	0.165	-0.207
-566.602	53.250	0.114	0.109
-565.588	-200.000	0.030	0.142
-564.573	43.627	0.132	0.121
-563.558	-29.407	-0.021	-0.012
-562.544	15.668	0.154	0.121
-561.529	178.960	-0.153	-0.223
-560.515	-175.064	0.009	-0.000
-559.500	800.000	-0.196	-0.547
-558.485	150.380	-0.117	0.159
-557.471	-66.069	0.397	-0.158
-556.456	-0.984	-0.264	-0.187
-555.442	-35.911	0.167	0.090
-554.427	-149.438	-0.161	0.013
-553.412	33.802	-0.154	-0.134
-552.398	-200.000	0.002	0.179
-551.383	-71.774	0.095	0.035
-550.369	-200.000	-0.004	0.252
-549.354	277.054	-0.011	0.019
-548.339	729.696	-0.060	-0.161
-547.325	70.915	-0.168	-0.174
-546.310	-152.330	0.261	-0.019
-545.296	175.390	-0.101	0.146
-544.281	800.000	-0.095	0.360
-543.266	26.375	0.103	-0.086
-542.252	-130.340	-0.084	-0.011
-541.237	-175.033	-0.110	-0.003
-540.223	-100.472	0.285	-0.070
-539.208	391.321	-0.111	-0.230
-538.193	-200.000	-0.070	-0.323
-537.179	-20.889	-0.303	-0.185
-536.164	117.075	0.017	0.021
-535.150	35.139	-0.242	-0.212
-534.135	-38.967	0.109	-0.057
-533.121	-11.791	0.193	-0.127
-532.106	800.000	-0.052	-0.206
-531.091	-200.000	0.029	0.307
-530.077	-75.331	0.195	-0.070
-529.062	50.207	0.290	0.273
-528.048	-122.288	0.164	0.027
-527.033	782.363	-0.070	0.192
-526.018	254.571	-0.202	0.345
-525.004	75.084	-0.135	0.142
-523.989	116.163	0.233	0.285
-522.975	22.707	0.358	0.292
-521.960	-38.551	0.097	0.051
-520.945	-32.659	-0.093	0.052
-519.931	-71.367	0.216	0.081
-518.916	-93.642	0.186	0.051
-517.902	469.074	0.034	0.077
-516.887	199.397	-0.062	0.095
-515.872	800.000	0.101	0.285
-514.858	-32.784	0.119	0.066
-513.843	301.122	-0.176	-0.324
-512.829	-79.686	0.151	0.051
-511.814	-200.000	-0.003	0.074
-510.799	-163.312	-0.176	-0.008
-509.785	-44.032	0.044	-0.022
-508.770	-51.930	0.209	-0.097
-507.756	799.055	-0.135	-0.371
-506.741	325.223	0.087	-0.165
-505.726	566.017	-0.047	0.113
-504.712	-151.993	0.325	-0.024
-503.697	110.780	0.167	-0.200
-502.683	-200.000	0.006	-0.079
-501.668	436.102	0.140	0.304
-500.653	-151.424	-0.271	-0.020
-499.639	800.000	-0.029	-0.083
-498.624	-114.037	0.175	0.034
-497.610	-106.269	-0.142	0.032
-496.595	-155.771	-0.136	-0.009
-495.581	-147.923	0.473	-0.039
-494.566	-200.000	0.009	0.135
-493.551	-199.187	-0.258	0.001
-492.537	34.158	0.129	0.112
-491.522	800.000	-0.007	-0.023
-490.508	97.906	-0.063	0.072
-489.493	244.449	-0.115	0.193
-488.478	394.726	-0.052	-0.107
-487.464	726.435	0.020	0.054
-486.449	133.481	-0.063	-0.081
-485.435	-187.756	0.287	0.004
-484.420	-200.000	0.044	-0.252
-483.405	451.504	0.231	0.508
-482.391	-27.926	-0.283	-0.163
-481.376	-200.000	-0.017	0.077
-480.362	800.000	0.144	0.420
-479.347	58.991	-0.201	-0.196
-478.332	83.160	-0.081	-0.088
-477.318	-43.193	0.265	-0.134
-476.303	207.067	-0.088	-0.137
-475.289	-100.134	-0.230	0.057
-474.274	115.690	-0.203	0.247
-473.259	-200.000	0.005	-0.031
-472.245	-75.787	-0.191	-0.067
-471.230	-200.000	-0.020	-0.205
-470.216	103.794	0.137	0.160
-469.201	-112.947	-0.196	-0.039
-468.186	-64.015	0.234	0.095
-467.172	117.842	0.152	0.187
-466.157	-39.274	0.051	-0.027
-465.143	-48.998	0.078	-0.037
-464.128	-78.049	0.089	-0.031
-463.113	67.207	0.275	-0.279
-462.099	235.876	0.047	-0.077
-461.084	350.232	-0.062	-0.122
-460.070	-174.958	-0.413	-0.012
-459.055	-36.873	-0.088	-0.047
-458.040	-31.044	0.186	-0.104
-457.026	0.014	-0.306	-0.217
-456.011	-39.011	-0.165	-0.086
-454.997	441.285	-0.264	-0.575
-453.982	479.386	0.100	-0.226
-452.968	284.251	0.104	0.186
-451.953	536.407	0.094	0.222
-450.938	-100.658	-0.174	0.043
-449.924	335.606	0.167	-0.322
-448.909	-64.676	-0.436	-0.176
-447.895	444.633	0.078	-0.170
-446.880	-200.000	0.023	-0.168
-445.865	800.000	-0.169	0.473
-444.851	-200.000	-0.002	-0.170
-443.836	524.619	-0.126	-0.296
-442.822	800.000	-0.084	-0.330
-441.807	145.151	0.221	-0.294
-440.792	11.852	-0.165	0.126
-439.778	-66.062	0.293	-0.116
-438.763	117.317	0.183	0.224
-437.749	149.165	-0.103	0.138
-436.734	-200.000	0.137	-0.001
-435.719	800.000	-0.054	-0.213
-434.705	-80.882	-0.260	0.086
-433.690	-200.000	0.016	0.087
-432.676	-200.000	0.004	-0.140
-431.661	-147.882	0.362	0.030
-430.646	-146.271	0.171	-0.015
-429.632	148.197	0.087	-0.117
-428.617	800.000	0.019	0.056
-427.603	-200.000	0.031	0.415
-426.588	45.675	0.195	-0.179
-425.573	15.162	-0.270	-0.210
-424.559	-200.000	-0.015	-0.172
-423.544	-142.321	-0.152	0.015
-422.530	-112.544	0.203	-0.040
-421.515	69.111	-0.200	-0.204
-420.500	76.062	0.158	-0.166
-419.486	704.806	-0.145	-0.381
-418.471	-200.000	0.021	0.230
-417.457	800.000	0.039	0.164
-416.442	304.457	-0.055	0.102
-415.428	230.551	0.170	0.277
-414.413	800.000	0.089	0.320
-413.398	800.000	0.073	0.242
-412.384	148.390	0.169	0.226
-411.369	-16.760	0.019	0.012
-410.355	84.359	-0.232	0.252
-409.340	28.449	-0.206	-0.173
-408.325	249.094	-0.159	-0.267
-407.311	-80.742	0.396	-0.131
-406.296	-80.762	-0.064	0.021
-405.282	800.000	-0.023	0.066
-404.267	800.000	0.090	0.250
-403.252	-74.947	-0.104	-0.037
-402.238	-11.972	0.153	0.099
-401.223	-150.158	-0.556	-0.043
-400.209	-143.891	-0.189	0.018
-399.194	103.881	0.147	0.171
-398.179	-156.586	0.394	-0.024
-397.165	-152.251	0.129	0.009
-396.150	-131.340	-0.168	-0.022
-395.136	-10.645	0.063	-0.041
-394.121	-200.000	0.002	-0.168
-393.106	15.066	0.298	-0.232
-392.092	-53.579	-0.458	0.208
-391.077	-25.343	0.138	0.081
-390.063	13.412	0.042	-0.032
-389.048	-48.234	0.066	0.032
-388.033	-47.545	-0.222	0.107
-387.019	-200.000	-0.002	0.217
-386.004	800.000	-0.019	-0.065
-384.990	-4.571	0.256	0.176
-383.975	281.123	-0.141	0.251
-382.960	-58.497	-0.314	0.135
-381.946	457.948	-0.015	-0.032
-380.931	-200.000	0.015	0.096
-379.917	-44.012	-0.195	-0.097
-378.902	-200.000	0.006	0.048
-377.888	439.165	-0.020	0.044
-376.873	-95.743	0.140	0.037
-375.858	-200.000	0.028	0.331
-374.844	-200.000	-0.004	0.205
-373.829	134.224	-0.202	0.260
-372.815	-105.062	-0.514	0.117
-371.800	-148.593	-0.111	0.009
-370.785	74.106	0.119	0.123
-369.771	206.329	0.027	-0.042
-368.756	125.552	0.217	-0.272
-367.742	-200.000	-0.002	0.243
-366.727	45.381	-0.215	0.197
-365.712	55.624	-0.381	-0.366
-364.698	-131.227	-0.302	0.040
-363.683	28.852	-0.045	-0.038
-362.669	800.000	-0.085	-0.250
-361.654	-12.769	-0.150	0.097
-360.639	-200.000	-0.006	0.034
-359.625	-64.789	-0.126	0.051
-358.610	-200.000	0.016	-0.208
-357.596	6.502	-0.070	0.052
-356.581	80.248	-0.358	0.382
-355.566	73.387	-0.228	-0.237
-354.552	105.746	0.130	0.152
-353.537	-200.000	-0.047	0.276
-352.523	800.000	0.014	0.042
-351.508	94.870	-0.127	-0.144
-350.493	140.489	-0.211	0.276
-349.479	531.887	-0.016	0.038
-348.464	800.000	-0.053	0.158
-347.450	-39.197	0.085	-0.044
-346.435	245.771	-0.075	0.126
-345.420	644.740	0.024	-0.061
-344.406	-104.969	0.197	0.045
-343.391	6.128	-0.140	-0.103
-342.377	-200.000	0.040	-0.448
-341.362	233.574	0.022	0.036
-340.348	289.287	0.043	-0.077
-339.333	-55.491	0.166	-0.074
-338.318	-57.135	0.412	-0.180
-337.304	-200.000	-0.023	-0.244
-336.289	144.275	0.152	0.201
-335.275	353.950	0.051	0.101
-334.260	-17.266	-0.199	-0.124
-333.245	-67.269	0.055	0.022
-332.231	528.989	0.126	-0.294
-331.216	-200.000	0.043	-0.337
-330.202	800.000	-0.074	0.318
-329.187	8.423	0.257	0.191
-328.172	-105.875	0.411	0.092
-327.158	-200.000	-0.003	-0.323
-326.143	84.437	-0.223	0.242
-325.129	-200.000	0.040	0.319
-324.114	-49.255	0.403	-0.191
-323.099	800.000	0.019	0.069
-322.085	-200.000	-0.028	-0.121
-321.070	79.004	0.312	-0.330
-320.056	175.212	-0.106	0.152
-319.041	800.000	0.062	-0.178
-318.026	-200.000	-0.033	0.187
-317.012	-35.555	0.229	0.123
-315.997	-25.381	0.177	-0.104
-314.983	-200.000	-0.080	-0.389
-313.968	-148.633	0.053	-0.004
-312.953	28.022	-0.132	-0.110
-311.939	504.499	0.086	-0.197
-310.924	67.159	0.369	-0.372
-309.910	172.500	0.129	-0.184
-308.895	-72.161	0.069	0.025
-307.880	108.925	0.222	-0.263
-306.866	-0.726	0.033	0.023
-305.851	-171.641	0.197	0.006
-304.837	128.544	-0.217	0.274
-303.822	-200.000	-0.024	-0.105
-302.807	-138.704	-0.193	-0.021
-301.793	13.884	-0.386	-0.297
-300.778	-200.000	-0.025	0.140
-299.764	-96.503	-0.227	0.059
-298.749	168.352	-0.074	0.105
-297.735	216.230	-0.009	-0.014
-296.720	-81.120	0.123	-0.040
-295.705	67.551	-0.120	0.121
-294.691	800.000	0.079	-0.281
-293.676	-200.000	-0.030	-0.165
-292.662	-113.458	0.434	0.084
-291.647	136.548	-0.248	0.320
-290.632	-141.235	0.281	-0.028
-289.618	800.000	0.091	0.295
-288.603	-1.917	-0.070	0.049
-287.589	-73.752	-0.340	0.122
-286.574	-71.015	-0.412	0.153
-285.559	57.699	-0.364	-0.352
-284.545	130.355	0.041	0.052
-283.530	262.138	0.125	0.214
-282.516	800.000	-0.005	-0.015
-281.501	-119.195	0.148	0.026
-280.486	-150.935	0.160	-0.012
-279.472	132.384	0.054	-0.068
-278.457	-139.839	-0.390	0.041
-277.443	800.000	-0.012	-0.051
-276.428	33.214	0.088	0.075
-275.413	-70.088	0.049	0.019
-274.399	-89.950	0.233	-0.067
-273.384	1.741	0.153	-0.109
-272.370	13.064	0.221	-0.169
-271.355	86.062	-0.168	0.182
-270.340	-200.000	0.009	-0.095
-269.326	148.631	-0.118	0.158
-268.311	-94.036	0.114	-0.031
-267.297	-4.633	0.253	0.172
-266.282	76.950	-0.177	-0.186
-265.267	-3.801	0.043	-0.029
-264.253	204.321	-0.298	0.457
-263.238	-57.963	0.157	0.068
-262.224	280.289	0.178	-0.315
-261.209	461.286	-0.081	-0.179
-260.195	-145.857	-0.213	0.019
-259.180	76.005	0.073	0.076
-258.165	-89.754	0.176	-0.051
-257.151	-32.752	-0.004	0.002
-256.136	27.822	0.268	-0.223
-255.122	-127.918	-0.325	-0.046
-254.107	-161.796	-0.228	0.011
-253.092	-50.268	-0.435	0.203
-252.078	-2.278	-0.206	-0.142
-251.063	181.677	-0.149	0.216
-250.049	-190.806	0.061	0.001
-249.034	22.909	0.172	0.139
-248.019	-97.244	0.098	-0.025
-247.005	-162.888	0.211	0.010
-245.990	70.591	0.077	-0.079
-244.976	-200.000	-0.001	-0.055
-243.961	351.295	0.115	-0.224
-242.946	-8.562	0.161	-0.106
-241.932	-80.974	0.178	0.058
-240.917	-200.000	-0.003	-0.141
-239.903	303.246	-0.089	0.162
-238.888	-12.888	-0.142	0.091
-237.873	-200.000	0.044	0.226
-236.859	-200.000	0.042	0.241
-235.844	327.319	-0.163	-0.308
-234.830	262.798	-0.171	-0.294
-233.815	110.712	-0.102	0.121
-232.800	235.366	0.124	-0.202
-231.786	330.325	0.231	-0.439
-230.771	33.435	-0.100	-0.086
-229.757	-124.354	0.233	0.036
-228.742	-200.000	-0.078	0.371
-227.727	-200.000	-0.077	0.353
-226.713	-93.851	-0.379	0.103
-225.698	-38.347	0.317	-0.165
-224.684	-84.532	0.432	0.134
-223.669	800.000	0.128	0.408
-222.655	-107.703	0.154	-0.033
-221.640	-98.293	-0.286	0.072
-220.625	-200.000	0.017	-0.272
-219.611	-22.962	-0.049	0.029
-218.596	86.979	0.201	-0.219
-217.582	119.576	-0.105	-0.128
-216.567	99.635	-0.108	-0.124
-215.552	299.101	-0.211	0.383
-214.538	259.661	0.086	0.146
-213.523	-75.893	0.057	0.020
-212.509	800.000	-0.055	-0.187
-211.494	-70.397	-0.308	0.115
-210.479	-135.037	-0.210	-0.025
-209.465	-32.840	-0.213	-0.117
-208.450	-88.586	0.457	-0.134
-207.436	-139.395	-0.209	0.022
-206.421	-100.525	-0.199	0.049
-205.406	789.904	-0.031	-0.085
-204.392	800.000	-0.019	0.065
-203.377	-105.607	-0.076	-0.017
-202.363	-101.380	-0.300	-0.072
-201.348	-146.580	0.097	-0.008
-200.333	11.497	-0.321	0.242
-199.319	653.694	0.096	-0.242
-198.304	27.856	-0.221	-0.183
-197.290	-132.514	-0.121	0.015
-196.275	-73.726	0.120	-0.043
-195.260	299.526	0.089	0.162
-194.246	582.632	-0.122	-0.295
-193.231	-72.736	-0.174	-0.063
-192.217	-86.722	-0.137	-0.041
-191.202	-25.601	0.180	-0.105
-190.187	-13.571	0.022	0.014
-189.173	2.640	-0.129	0.092
-188.158	-200.000	0.001	0.333
-187.144	-134.247	0.266	0.032
-186.129	-200.000	-0.018	0.213
-185.114	38.043	0.237	0.208
-184.100	-5.650	-0.121	0.082
-183.085	-152.056	-0.184	-0.013
-182.071	-155.082	0.098	0.006
-181.056	-72.945	-0.410	-0.148
-180.042	-200.000	0.010	0.303
-179.027	800.000	-0.091	0.296
-178.012	3.677	0.116	0.083
-176.998	90.814	-0.213	0.235
-175.983	-31.125	-0.235	-0.131
-174.969	800.000	-0.068	-0.224
-173.954	800.000	-0.061	-0.177
-172.939	252.817	-0.087	-0.146
-171.925	118.296	0.239	0.290
-170.910	26.833	0.390	0.322
-169.896	-55.626	0.274	0.121
-168.881	-200.000	-0.011	-0.327
-167.866	-78.567	-0.134	0.045
-166.852	332.844	-0.135	0.257
-165.837	4.664	-0.066	-0.048
-164.823	163.981	-0.060	-0.083
-163.808	97.944	0.188	-0.212
-162.793	-104.890	0.173	-0.039
-161.779	-200.000	-0.010	0.262
-160.764	-100.086	0.253	0.062
-159.750	800.000	0.073	-0.220
-158.735	-200.000	0.012	-0.127
-157.720	800.000	0.068	0.278
-156.706	221.278	-0.115	0.182
-155.691	392.783	-0.165	0.337
-154.677	-141.042	0.081	0.008
-153.662	-118.989	-0.161	-0.028
-152.647	-73.743	-0.323	-0.116
-151.633	-126.819	0.432	-0.063
-150.618	-200.000	0.021	0.273
-149.604	-151.914	-0.411	0.030
-148.589	265.530	-0.197	0.337
-147.574	-200.000	0.008	-0.103
-146.560	-58.858	-0.022	0.010
-145.545	-200.000	-0.023	-0.118
-144.531	62.205	0.128	0.126
-143.516	118.006	0.288	-0.349
-142.502	800.000	0.096	0.285
-141.487	36.386	0.236	-0.205
-140.472	-43.077	0.055	0.027
-139.458	-17.161	0.125	0.077
-138.443	-17.645	0.161	-0.099
-137.429	218.579	-0.143	-0.225
-136.414	-108.597	-0.413	0.087
-135.399	313.719	-0.143	0.264
-134.385	-108.178	-0.123	-0.026
-133.370	-117.933	-0.174	-0.031
-132.356	-200.000	-0.022	0.215
-131.341	335.083	-0.127	-0.242
-130.326	-200.000	0.011	-0.308
-129.312	-104.556	0.489	-0.111
-128.297	16.405	-0.165	-0.128
-127.283	-88.632	0.091	0.027
-126.268	71.426	0.296	0.302
-125.253	-200.000	-0.010	-0.120
-124.239	-200.000	-0.063	-0.347
-123.224	32.332	-0.204	0.173
-122.210	-124.547	-0.329	-0.050
-121.195	800.000	0.027	-0.077
-120.180	-21.588	0.084	-0.050
-119.166	-69.590	0.091	0.034
-118.151	-5.561	0.334	0.225
-117.137	78.171	0.102	0.106
-116.122	-200.000	-0.010	-0.137
-115.107	-47.780	-0.060	0.029
-114.093	-200.000	0.028	-0.248
-113.078	-48.950	0.375	0.177
-112.064	800.000	0.094	-0.321
-111.049	-200.000	-0.071	-0.326
-110.034	-136.259	-0.076	-0.009
-109.020	85.902	0.221	-0.238
-108.005	65.956	0.242	-0.241
-106.991	-9.464	-0.375	0.246
-105.976	800.000	0.003	0.009
-104.962	-200.000	0.021	-0.130
-103.947	3.660	0.111	-0.080
-102.932	457.819	-0.069	0.151
-101.918	800.000	-0.051	-0.202
-100.903	-200.000	-0.003	-0.392
-99.889	-200.000	0.042	-0.242
-98.874	172.981	0.192	-0.272
-97.859	128.929	0.295	-0.369
-96.845	28.510	0.312	0.259
-95.830	81.270	-0.279	0.296
-94.816	-200.000	0.008	-0.045
-93.801	-133.415	-0.100	0.012
-92.786	-33.358	0.107	-0.058
-91.772	-72.537	0.376	-0.136
-90.757	-100.167	0.270	-0.066
-89.743	-166.723	0.032	-0.001
-88.728	-106.307	-0.189	0.041
-87.713	800.000	0.080	-0.245
-86.699	-200.000	0.044	0.210
-85.684	23.399	0.169	-0.137
-84.670	-141.238	0.050	0.005
-83.655	43.580	-0.230	-0.206
-82.640	-22.799	-0.248	0.147
-81.626	-200.000	0.010	0.067
-80.611	-200.000	0.032	-0.188
-79.597	-42.204	-0.276	0.138
-78.582	-200.000	0.015	-0.141
-77.567	-97.210	0.254	-0.065
-76.553	744.882	0.166	-0.438
-75.538	-69.598	-0.120	0.045
-74.524	-200.000	-0.025	-0.225
-73.509	330.208	-0.144	0.271
-72.494	-200.000	0.020	-0.228
-71.480	800.000	0.007	-0.027
-70.465	800.000	-0.053	0.145
-69.451	-200.000	0.067	0.357
-68.436	-86.288	-0.131	-0.040
-67.422	-102.729	0.246	-0.057
-66.407	-93.026	-0.350	0.096
-65.392	110.215	0.079	0.093
-64.378	566.491	-0.040	-0.094
-63.363	390.384	0.048	0.098
-62.349	54.330	-0.323	0.305
-61.334	63.573	-1.251	-1.231
-60.319	20.204	0.542	0.428
-59.305	-200.000	-0.208	-1.022
-58.290	241.773	0.677	1.108
-57.276	800.000	0.526	1.459
-56.261	-200.000	106.075	613.215
-55.246	502.293	1510.310	3418.794
-54.232	176.452	2700.747	3844.688
-53.217	110.385	2184.738	2571.533
-52.203	40.176	1703.662	1500.556
-51.188	32.538	1514.193	1281.876
-50.173	30.273	1487.068	1243.702
-49.159	51.396	1543.218	1435.562
-48.144	51.488	1560.204	1451.933
-47.130	32.719	1516.065	1284.496
-46.115	29.769	1501.022	1251.762
-45.100	29.572	1497.544	1247.486
-44.086	29.583	1494.879	1245.286
-43.071	29.404	1493.030	1242.492
-42.057	29.418	1490.936	1240.799
-41.042	29.425	1490.455	1240.392
-40.027	29.456	1488.608	1239.011
-39.013	29.434	1487.340	1237.760
-37.998	29.435	1486.077	1236.671
-36.984	29.325	1485.051	1235.032
-35.969	29.362	1483.283	1233.755
-34.954	29.377	1481.986	1232.729
-33.940	29.372	1480.884	1231.732
-32.925	29.423	1478.820	1230.306
-31.911	29.385	1477.973	1229.301
-30.896	29.464	1476.734	1228.746
-29.881	29.543	1474.853	1227.658
-28.867	29.498	1474.307	1226.856
-27.852	29.500	1472.751	1225.523
-26.838	29.496	1471.217	1224.171
-25.823	29.481	1469.838	1222.874
-24.809	29.451	1467.885	1221.003
-23.794	29.510	1466.675	1220.339
-22.779	29.461	1466.051	1219.446
-21.765	29.528	1464.862	1218.857
-20.750	29.487	1463.638	1217.517
-19.736	29.496	1462.194	1216.327
-18.721	29.573	1460.805	1215.627
-17.706	29.470	1459.848	1214.107
-16.692	29.386	1459.211	1212.975
-15.677	29.543	1457.510	1212.543
-14.663	29.526	1456.756	1211.759
-13.648	29.392	1456.150	1210.330
-12.633	29.358	1455.195	1209.266
-11.619	29.341	1454.785	1208.763
-10.604	29.388	1453.763	1208.176
-9.590	29.387	1453.067	1207.538
-8.575	29.469	1451.846	1207.012
-7.560	29.446	1450.768	1205.919
-6.546	29.435	1450.050	1205.206
-5.531	29.362	1449.421	1204.155
-4.517	29.361	1448.730	1203.531
-3.502	29.314	1447.675	1202.299
-2.487	29.340	1446.262	1201.247
-1.473	29.346	1445.716	1200.782
-0.458	29.347	1443.967	1199.292
0.556	27.132	1434.353	1189.283
1.571	24.390	1409.907	1151.246
2.586	21.245	1351.278	1083.791
3.600	19.773	1270.613	1010.411
4.615	18.757	1225.840	968.989
5.629	16.467	1171.056	913.243
6.644	8.302	1086.921	806.458
7.659	1.071	1046.811	741.350
8.673	-0.216	1041.508	731.261
9.688	-0.295	1037.718	728.152
10.702	-0.299	1035.987	726.856
11.717	-0.369	1033.986	725.050
12.731	3.061	1037.707	744.219
13.746	11.962	1050.756	796.979
14.761	18.757	1059.129	836.470
15.775	20.286	1061.352	845.609
16.790	20.545	1060.936	846.462
17.804	20.573	1059.309	845.225
18.819	20.325	1058.755	843.502
19.834	20.354	1058.058	843.017
20.848	20.483	1057.926	843.463
21.863	20.645	1057.325	843.692
22.877	20.609	1056.569	842.840
23.892	20.445	1056.503	841.920
24.907	20.438	1055.107	840.696
25.921	20.391	1054.862	840.200
26.936	20.478	1053.925	839.803
27.950	20.463	1052.865	838.812
28.965	20.454	1051.649	837.722
29.980	20.377	1049.948	835.922
30.994	20.229	1048.306	833.833
32.009	20.475	1047.625	834.398
33.023	20.493	1047.062	833.962
34.038	20.314	1045.476	831.766
35.053	20.317	1044.514	830.942
36.067	20.555	1043.896	831.516
37.082	20.482	1043.392	830.691
38.096	20.462	1042.463	829.784
39.111	20.788	1041.160	830.227
40.126	20.779	1040.786	829.810
41.140	20.777	1039.381	828.609
42.155	20.395	1038.076	825.681
43.169	20.187	1036.478	823.349
44.184	20.115	1035.453	822.121
45.199	20.136	1034.812	821.638
46.213	20.180	1033.606	820.818
47.228	20.078	1032.533	819.410
48.242	20.328	1031.601	819.775
49.257	20.148	1031.530	818.798
50.271	20.369	1030.001	818.556
51.286	20.527	1029.549	818.868
52.301	20.528	1028.644	818.080
53.315	20.465	1028.105	817.280
54.330	20.545	1027.061	816.755
55.344	20.364	1026.220	815.163
56.359	20.480	1025.028	814.688
57.374	20.565	1024.589	814.666
58.388	20.357	1023.388	812.667
59.403	20.380	1022.487	811.988
60.417	20.298	1021.797	810.982
61.432	20.157	1021.065	809.674
62.447	20.247	1020.141	809.288
63.461	20.198	1020.343	809.149
64.476	20.322	1019.102	808.671
65.490	20.318	1018.204	807.867
66.505	20.204	1017.022	806.330
67.520	20.210	1016.403	805.793
68.534	20.392	1015.456	805.815
69.549	20.232	1015.080	804.704
70.563	19.897	1013.326	801.691
71.578	19.749	1012.693	800.433
72.593	19.848	1012.107	800.356
73.607	19.683	1010.388	798.167
74.622	19.826	1009.329	797.917
75.636	19.980	1008.836	798.167
76.651	20.182	1008.300	798.604
77.666	20.016	1007.343	797.010
78.680	19.883	1006.640	795.773
79.695	19.949	1006.078	795.564
80.709	20.015	1005.403	795.260
81.724	20.155	1004.666	795.251
82.739	20.195	1003.201	794.204
83.753	20.102	1002.449	793.111
84.768	20.290	1002.186	793.694
85.782	20.663	1001.263	794.597
86.797	20.775	1000.749	794.631
87.812	20.723	999.383	793.237
88.826	20.624	998.283	791.845
89.841	20.567	997.929	791.232
90.855	20.666	996.637	790.591
91.870	20.717	995.805	790.092
92.884	20.690	994.918	789.196
93.899	20.556	994.022	787.806
94.914	20.434	993.520	786.786
95.928	20.477	992.209	785.873
96.943	20.684	991.400	786.097
97.957	20.367	990.394	783.799
98.972	20.151	989.224	781.833
99.987	20.010	988.308	780.402
101.001	20.167	987.458	780.371
102.016	20.490	986.938	781.340
103.030	20.450	985.976	780.331
104.045	20.357	985.007	779.079
105.060	20.275	983.471	777.428
106.074	19.936	982.648	775.188
107.089	20.040	981.664	774.811
108.103	20.356	980.975	775.609
109.118	20.566	980.495	776.100
110.133	20.261	979.048	773.528
111.147	20.243	978.427	772.885
112.162	20.088	977.216	771.171
113.176	20.003	975.472	769.351
114.191	20.012	974.907	768.874
115.206	20.039	974.287	768.437
116.220	19.924	972.845	766.725
117.235	19.771	972.046	765.349
118.249	19.854	971.174	764.962
119.264	20.019	969.901	764.622
120.279	19.774	969.797	763.389
121.293	19.885	968.180	762.540
122.308	20.019	967.349	762.406
123.322	20.057	966.488	761.827
124.337	19.989	965.649	760.799
125.352	19.853	964.378	759.134
126.366	19.562	962.919	756.645
127.381	19.299	961.479	754.293
128.395	19.788	961.423	756.323
129.410	20.359	960.960	758.388
130.424	20.587	959.813	758.410
131.439	20.443	958.612	756.766
132.454	20.336	957.937	755.700
133.468	20.456	956.883	755.324
134.483	20.286	956.371	754.115
135.497	20.404	955.335	753.743
136.512	20.543	954.926	753.955
137.527	20.650	954.415	753.951
138.541	20.634	953.436	753.041
139.556	20.708	952.690	752.705
140.570	20.684	951.732	751.777
141.585	20.770	950.415	751.042
142.600	20.795	949.937	750.707
143.614	20.523	949.340	748.996
144.629	20.738	948.602	749.270
145.643	20.888	948.081	749.438
146.658	20.831	946.763	748.085
147.673	20.656	945.375	746.171
148.687	20.477	944.488	744.642
149.702	20.586	943.201	744.027
150.716	20.387	942.614	742.646
151.731	20.417	941.694	741.982
152.746	20.546	940.678	741.668
153.760	20.709	940.068	741.816
154.775	20.833	939.176	741.574
155.789	20.716	938.434	740.425
156.804	20.863	937.463	740.218
157.819	20.675	936.245	738.393
158.833	20.742	935.491	738.019
159.848	20.940	934.910	738.331
160.862	20.955	934.032	737.639
161.877	20.811	933.119	736.241
162.892	20.711	932.733	735.451
163.906	20.837	931.835	735.209
164.921	20.714	930.984	733.955
165.935	20.856	929.422	733.256
166.950	20.803	928.341	732.115
167.964	20.698	927.475	730.925
168.979	20.765	926.547	730.412
169.994	20.689	925.643	729.314
171.008	20.617	924.499	728.049
172.023	20.739	923.950	728.064
173.037	20.913	922.948	727.935
174.052	20.589	921.900	725.692
175.067	20.373	920.920	723.958
176.081	20.567	919.900	723.896
177.096	20.662	919.191	723.672
178.110	20.743	918.215	723.173
179.125	20.556	917.105	721.463
180.140	20.121	916.356	719.005
181.154	20.299	915.248	718.808
182.169	20.348	914.975	718.731
183.183	20.498	914.778	719.134
184.198	20.736	914.316	719.693
185.213	20.801	913.720	719.428
186.227	20.684	912.832	718.185
187.242	20.651	912.378	717.625
188.256	20.823	911.625	717.679
189.271	20.764	910.644	716.599
190.286	20.978	909.944	716.866
191.300	20.696	909.396	715.213
192.315	20.183	908.046	711.981
193.329	19.556	906.173	707.881
194.344	19.114	905.419	705.416
195.359	19.695	905.597	707.876
196.373	20.411	905.904	710.985
197.388	20.855	905.668	712.553
198.402	20.620	904.897	710.922
199.417	20.585	903.849	709.893
200.432	20.651	903.742	710.017
201.446	20.523	902.860	708.738
202.461	20.153	902.284	706.717
203.475	20.248	901.470	706.400
204.490	19.668	900.348	703.100
205.504	18.849	897.753	697.686
206.519	19.212	898.169	699.424
207.534	20.105	898.507	703.250
208.548	20.294	897.511	703.173
209.563	20.647	897.684	704.678
210.577	20.801	896.276	704.132
211.592	20.483	895.591	702.246
212.607	20.700	895.933	703.332
213.621	20.876	895.085	703.315
214.636	20.884	894.329	702.690
215.650	20.780	894.134	702.053
216.665	20.752	893.225	701.167
217.680	20.821	892.751	701.012
218.694	20.879	892.419	700.921
219.709	20.625	891.440	699.070
220.723	20.322	890.023	696.679
221.738	20.444	889.813	696.944
222.753	20.730	889.370	697.683
223.767	20.451	888.688	695.968
224.782	20.657	887.740	695.986
225.796	21.037	887.023	696.884
226.811	21.001	886.887	696.571
227.826	20.700	885.003	693.830
228.840	19.746	883.864	689.073
229.855	19.616	883.606	688.293
230.869	20.031	883.075	689.471
231.884	19.743	881.743	687.227
232.899	19.735	881.487	686.933
233.913	20.525	881.541	690.053
234.928	20.724	881.051	690.396
235.942	20.568	880.318	689.145
236.957	20.636	879.862	688.994
237.972	20.295	878.673	686.655
238.986	20.319	877.663	685.900
240.001	20.408	877.345	685.943
241.015	20.488	876.581	685.599
242.030	20.499	876.395	685.438
243.045	20.557	875.822	685.155
244.059	20.686	875.141	685.071
245.074	20.742	874.830	684.985
246.088	20.767	873.839	684.250
247.103	20.288	873.032	681.675
248.117	20.388	872.515	681.605
249.132	20.947	872.556	683.768
250.147	21.264	872.212	684.680
251.161	21.400	871.646	684.709
252.176	21.380	870.968	684.039
253.190	21.377	870.505	683.600
254.205	21.441	870.389	683.699
255.220	21.630	869.430	683.625
256.234	21.669	868.782	683.207
257.249	21.608	868.044	682.326
258.263	21.353	867.335	680.717
259.278	21.578	866.370	680.776
260.293	21.457	866.369	680.244
261.307	21.617	865.903	680.441
262.322	21.530	864.965	679.305
263.336	21.298	864.386	677.889
264.351	20.696	862.983	674.398
265.366	19.674	861.064	668.885
266.380	19.329	860.049	666.703
267.395	20.363	860.447	670.951
268.409	21.050	860.992	673.970
269.424	20.877	860.273	672.680
270.439	21.236	859.264	673.215
271.453	21.272	858.650	672.814
272.468	21.375	858.038	672.669
273.482	21.436	857.973	672.797
274.497	21.763	857.207	673.391
275.512	21.440	856.156	671.269
276.526	20.867	854.648	667.830
277.541	21.104	854.559	668.609
278.555	21.459	854.334	669.731
279.570	21.192	853.437	667.948
280.585	20.959	852.762	666.471
281.599	21.027	851.972	666.056
282.614	21.277	851.295	666.419
283.628	20.692	850.679	663.651
284.643	20.566	849.962	662.551
285.657	20.801	849.573	663.083
286.672	20.751	848.940	662.340
287.687	20.296	847.776	659.643
288.701	20.615	847.785	660.806
289.716	21.108	847.138	662.113
290.730	20.720	846.200	659.851
291.745	20.586	845.973	659.106
292.760	20.531	844.454	657.660
293.774	20.368	844.486	657.008
294.789	21.158	845.268	660.548
295.803	21.852	844.674	662.649
296.818	21.885	844.467	662.552
297.833	21.846	843.924	661.920
298.847	21.720	842.608	660.355
299.862	21.197	841.678	657.598
300.876	21.648	841.241	658.897
301.891	21.779	840.822	659.005
302.906	21.828	840.452	658.838
303.920	21.455	839.492	656.629
304.935	21.265	838.782	655.302
305.949	21.832	838.083	656.821
306.964	21.862	837.754	656.618
307.979	21.669	836.932	655.193
308.993	21.501	836.695	654.323
310.008	21.922	836.628	655.788
311.022	22.059	835.845	655.627
312.037	21.934	835.260	654.643
313.052	21.475	834.870	652.566
314.066	21.489	834.243	652.072
315.081	21.001	832.278	648.662
316.095	20.239	831.157	644.901
317.110	20.766	831.621	647.163
318.125	21.528	831.870	650.132
319.139	21.103	830.878	647.722
320.154	20.281	828.421	642.705
321.168	19.652	828.287	640.214
322.183	20.302	828.252	642.538
323.197	21.006	829.214	645.835
324.212	21.429	828.405	646.715
325.227	21.542	828.158	646.881
326.241	21.797	827.513	647.262
327.256	21.623	827.193	646.313
328.270	21.327	826.764	644.829
329.285	21.382	825.950	644.337
330.300	21.336	824.970	643.346
331.314	21.104	824.109	641.766
332.329	21.069	823.722	641.280
333.343	21.540	823.328	642.646
334.358	21.892	822.874	643.528
335.373	21.674	822.629	642.479
336.387	21.663	822.358	642.171
337.402	21.954	821.411	642.440
338.416	22.151	821.100	642.859
339.431	22.266	820.381	642.660
340.446	22.019	819.980	641.386
341.460	22.282	819.840	642.182
342.475	22.315	818.704	641.355
343.489	21.984	818.073	639.598
344.504	21.970	817.767	639.250
345.519	22.090	817.539	639.453
346.533	22.468	816.962	640.317
347.548	22.409	816.730	639.865
348.562	22.378	816.369	639.413
349.577	22.592	815.350	639.337
350.592	22.510	815.115	638.797
351.606	22.399	814.612	637.945
352.621	22.395	814.038	637.423
353.635	22.468	813.266	637.028
354.650	22.396	812.683	636.253
355.665	22.020	811.913	634.238
356.679	21.052	810.424	629.525
357.694	20.842	809.708	628.156
358.708	21.521	809.617	630.477
359.723	21.469	809.274	629.966
360.738	21.697	808.905	630.447
361.752	22.067	808.941	631.749
362.767	22.134	808.461	631.560
363.781	22.312	808.578	632.234
364.796	22.703	807.827	632.992
365.810	22.788	807.502	632.989
366.825	22.842	807.507	633.129
367.840	22.879	806.828	632.673
368.854	22.622	806.524	631.458
369.869	22.371	805.377	629.609
370.883	22.215	804.921	628.638
371.898	22.167	804.191	627.841
372.913	22.141	803.488	627.144
373.927	22.156	803.098	626.837
374.942	22.333	802.506	626.949
375.956	22.530	801.819	627.060
376.971	22.409	801.442	626.277
377.986	22.616	801.152	626.731
379.000	22.707	800.643	626.603
380.015	22.783	800.081	626.377
381.029	22.700	799.280	625.399
382.044	22.685	798.862	624.966
383.059	22.977	798.124	625.364
384.073	22.864	797.570	624.477
385.088	22.937	797.107	624.317
386.102	22.882	796.617	623.683
387.117	22.832	796.202	623.126
388.132	22.539	795.759	621.690
389.146	22.495	794.553	620.538
390.161	21.916	793.833	617.884
391.175	21.863	793.728	617.562
392.190	22.392	793.915	619.513
393.205	22.418	793.208	618.998
394.219	21.422	791.918	614.438
395.234	19.789	789.757	606.983
396.248	19.232	788.897	604.313
397.263	20.404	789.560	608.880
398.278	21.985	790.702	615.253
399.292	22.492	790.245	616.619
400.307	22.306	789.340	615.207
401.321	22.233	789.153	614.752
402.336	22.135	788.992	614.230
403.350	22.603	788.971	615.793
404.365	22.868	788.998	616.687
405.380	23.285	788.568	617.751
406.394	23.360	788.191	617.661
407.409	23.467	787.591	617.510
408.423	23.614	786.868	617.400
409.438	23.391	786.569	616.335
410.453	23.517	786.158	616.397
411.467	23.653	785.676	616.437
412.482	23.512	785.124	615.460
413.496	23.468	784.569	614.816
414.511	23.493	784.551	614.835
415.526	23.514	784.129	614.524
416.540	23.628	783.668	614.500
417.555	23.233	783.492	612.943
418.569	23.147	782.753	612.013
419.584	23.051	781.875	610.940
420.599	23.367	781.131	611.395
421.613	157.720	1363.748	1798.536
422.628	136.301	1448.618	1798.607
