DTS Sentinel unit serial number:	SN413079Multiplexer serial number:	ORYXHardware model number:	OX4-SRSoftware version number:	ORYX F/W v4.00 Oryx Data Collector v3.7.2.0data status	okinstallation	princeton_trtdifferential loss correction	single-endedforward channel	channel 3reverse channel	N/Adate	2019/09/11time	00:50:11forward acquisition time	60.00reverse acquisition time	0.00gamma	496.2192k internal	0.2332k external	0.2332temperature offset calibration	0.9919default loss term (dB/km)	0.3790temperature slope calibration	1.0000multiplexer offset coefficient	1.0000multiplexer slope coefficient	1.0000fibre end	0.00T internal ref (°C)	29.16T ext. ref 1 (°C)	-0.31T ext. ref 2 (°C)	22.84length (m)	temperature (°C)	Stokes	anti-Stokes-747.200	-45.954	0.201	-0.100
-746.185	119.234	-0.151	0.188
-745.171	-200.000	-0.005	-0.188
-744.156	-37.170	0.060	0.032
-743.142	-41.566	0.304	0.157
-742.127	-70.297	-0.167	0.064
-741.112	-82.622	-0.337	-0.110
-740.098	488.851	0.064	0.147
-739.083	633.758	-0.096	0.245
-738.069	-125.512	-0.156	-0.024
-737.054	-197.459	-0.351	-0.002
-736.039	-60.061	-0.536	0.230
-735.025	345.082	0.135	0.266
-734.010	255.045	-0.138	0.238
-732.996	-86.906	0.159	-0.049
-731.981	288.290	-0.138	-0.250
-730.966	5.209	-0.270	-0.200
-729.952	660.669	0.018	0.046
-728.937	-4.931	0.194	-0.135
-727.923	-200.000	0.052	-0.304
-726.908	-68.608	-0.146	-0.057
-725.894	-200.000	0.071	0.333
-724.879	-115.286	-0.180	-0.034
-723.864	-112.343	-0.238	0.048
-722.850	-189.069	-0.396	0.005
-721.835	800.000	-0.048	-0.203
-720.821	39.261	-0.189	-0.170
-719.806	238.130	0.156	0.260
-718.791	159.976	-0.108	0.151
-717.777	461.778	-0.197	-0.441
-716.762	-137.210	-0.311	0.036
-715.748	614.190	0.093	-0.234
-714.733	274.152	0.088	-0.156
-713.718	-112.509	0.172	0.035
-712.704	-16.882	-0.617	0.392
-711.689	546.266	-0.051	-0.123
-710.675	58.898	-0.194	-0.192
-709.660	800.000	-0.019	-0.070
-708.645	-156.717	0.169	-0.011
-707.631	113.902	-0.120	0.146
-706.616	-123.796	0.230	0.037
-705.602	-200.000	0.048	0.305
-704.587	-22.219	-0.145	-0.088
-703.572	-200.000	-0.015	-0.283
-702.558	-131.442	-0.182	0.024
-701.543	659.415	0.143	-0.371
-700.529	150.935	-0.059	-0.081
-699.514	-200.000	0.036	-0.355
-698.499	-200.000	-0.006	-0.113
-697.485	94.010	-0.253	-0.288
-696.470	-166.327	-0.308	-0.013
-695.456	-13.104	0.163	-0.106
-694.441	-13.955	-0.093	-0.060
-693.426	10.064	-0.402	0.307
-692.412	132.702	-0.105	0.136
-691.397	130.715	0.198	-0.255
-690.383	-152.157	-0.263	0.019
-689.368	-57.421	-0.079	-0.035
-688.354	800.000	-0.060	0.177
-687.339	-36.025	0.278	0.151
-686.324	-200.000	-0.024	-0.132
-685.310	-200.000	-0.497	0.000
-684.295	198.752	0.152	-0.233
-683.281	12.419	0.135	-0.104
-682.266	-65.570	-0.295	-0.119
-681.251	100.681	-0.070	0.082
-680.237	800.000	-0.061	-0.238
-679.222	-171.490	-0.284	-0.009
-678.208	325.302	0.075	-0.144
-677.193	800.000	0.097	0.273
-676.178	-200.000	0.057	-0.315
-675.164	19.191	-0.173	-0.139
-674.149	-200.000	-0.028	-0.132
-673.135	645.820	0.028	0.072
-672.120	-52.197	0.083	-0.039
-671.105	-71.137	0.187	0.070
-670.091	353.707	-0.192	-0.383
-669.076	800.000	-0.056	-0.227
-668.062	-60.766	0.264	0.112
-667.047	800.000	-0.068	0.237
-666.032	-120.091	-0.127	0.022
-665.018	-42.598	-0.200	-0.102
-664.003	-113.611	0.166	0.032
-662.989	-200.000	0.018	-0.099
-661.974	438.248	-0.041	0.090
-660.959	-49.095	-0.202	0.097
-659.945	-100.562	-0.034	0.008
-658.930	-50.768	-0.050	-0.023
-657.916	-136.404	0.274	0.032
-656.901	-57.316	-0.091	0.040
-655.886	70.129	0.057	-0.059
-654.872	800.000	-0.070	0.212
-653.857	232.197	0.109	0.180
-652.843	753.959	-0.030	-0.083
-651.828	800.000	0.009	-0.025
-650.814	-200.000	0.001	0.023
-649.799	342.378	0.161	0.315
-648.784	53.428	0.087	-0.083
-647.770	-200.000	0.014	-0.114
-646.755	-78.227	-0.268	0.092
-645.741	-168.474	0.178	0.007
-644.726	-177.352	-0.221	-0.005
-643.711	-45.633	0.220	0.109
-642.697	282.290	0.020	0.037
-641.682	-132.448	0.288	0.037
-640.668	-16.519	0.038	-0.024
-639.653	60.930	-0.114	0.114
-638.638	-160.123	-0.226	-0.012
-637.624	22.509	-0.108	-0.089
-636.609	682.118	-0.010	-0.027
-635.595	-76.986	0.204	-0.071
-634.580	93.600	0.115	-0.130
-633.565	800.000	-0.031	-0.089
-632.551	4.662	-0.217	0.160
-631.536	105.111	-0.100	0.118
-630.522	565.165	-0.055	-0.133
-629.507	9.378	0.236	-0.179
-628.492	524.476	-0.088	0.206
-627.478	51.143	-0.508	-0.483
-626.463	5.263	0.328	0.242
-625.449	-109.232	0.206	-0.044
-624.434	179.661	-0.142	-0.209
-623.419	783.012	0.046	0.127
-622.405	-98.958	0.475	0.121
-621.390	-67.220	0.313	0.124
-620.376	800.000	0.059	-0.183
-619.361	78.219	-0.220	-0.236
-618.346	95.172	-0.090	-0.103
-617.332	800.000	-0.033	-0.145
-616.317	800.000	-0.046	0.187
-615.303	-112.687	-0.332	0.066
-614.288	465.317	-0.209	-0.469
-613.273	126.146	0.216	0.274
-612.259	-74.033	0.130	0.047
-611.244	-136.886	-0.256	-0.029
-610.230	232.731	-0.163	-0.268
-609.215	-200.000	0.009	-0.372
-608.201	57.559	0.181	-0.177
-607.186	800.000	-0.114	-0.379
-606.171	-50.404	-0.300	-0.142
-605.157	106.580	-0.200	0.238
-604.142	-137.676	0.280	-0.032
-603.128	364.963	0.122	-0.245
-602.113	172.752	-0.081	-0.117
-601.098	800.000	0.038	-0.142
-600.084	79.396	-0.117	0.126
-599.069	128.560	-0.220	-0.280
-598.055	24.227	0.095	-0.078
-597.040	-45.900	0.210	-0.104
-596.025	-110.401	-0.306	0.063
-595.011	78.475	-0.067	-0.072
-593.996	-200.000	0.072	-0.465
-592.982	800.000	0.068	-0.229
-591.967	297.565	0.020	-0.037
-590.952	-30.846	0.184	-0.104
-589.938	800.000	0.060	0.193
-588.923	15.387	0.199	-0.156
-587.909	127.792	0.094	-0.120
-586.894	-70.726	0.044	0.016
-585.879	800.000	-0.101	0.422
-584.865	33.678	-0.272	0.237
-583.850	99.983	-0.023	0.027
-582.836	79.764	-0.077	-0.082
-581.821	800.000	-0.034	-0.117
-580.806	-200.000	-0.045	0.254
-579.792	21.990	0.249	-0.203
-578.777	-88.417	-0.111	0.033
-577.763	345.919	0.080	0.158
-576.748	-129.169	0.181	0.025
-575.733	57.722	0.005	-0.005
-574.719	800.000	0.093	-0.258
-573.704	25.489	-0.055	0.046
-572.690	-200.000	-0.030	0.145
-571.675	-114.228	-0.333	0.064
-570.661	-200.000	0.017	-0.126
-569.646	89.539	-0.084	-0.094
-568.631	-60.893	-0.292	0.123
-567.617	238.733	0.103	-0.172
-566.602	695.026	-0.042	0.110
-565.588	800.000	-0.020	-0.064
-564.573	-12.894	0.175	0.114
-563.558	-200.000	0.004	0.134
-562.544	174.812	0.132	-0.192
-561.529	800.000	0.069	-0.197
-560.515	-41.057	0.394	-0.203
-559.500	-139.238	-0.174	0.019
-558.485	27.139	0.243	0.203
-557.471	-130.255	0.188	0.026
-556.456	-200.000	-0.020	0.203
-555.442	-132.742	0.353	0.045
-554.427	5.325	-0.084	-0.062
-553.412	196.031	0.037	0.056
-552.398	-66.029	0.043	0.017
-551.383	147.351	-0.096	0.129
-550.369	-80.938	-0.280	-0.093
-549.354	-200.000	0.025	-0.188
-548.339	-39.510	-0.291	0.152
-547.325	-138.374	-0.105	-0.012
-546.310	-25.407	0.288	-0.170
-545.296	-60.822	0.152	0.064
-544.281	23.390	0.339	0.279
-543.266	603.356	0.086	0.214
-542.252	17.817	-0.151	0.120
-541.237	800.000	-0.004	-0.014
-540.223	-156.823	0.280	0.017
-539.208	800.000	-0.047	-0.178
-538.193	-200.000	-0.015	0.152
-537.179	-200.000	-0.061	-0.307
-536.164	702.027	-0.090	-0.236
-535.150	-61.634	-0.087	-0.037
-534.135	521.453	-0.095	0.221
-533.121	-20.374	-0.248	0.152
-532.106	-113.703	0.393	0.077
-531.091	60.113	-0.018	-0.018
-530.077	131.240	-0.009	-0.011
-529.062	-123.676	-0.163	-0.026
-528.048	540.712	-0.045	0.108
-527.033	26.053	0.050	-0.042
-526.018	162.275	0.062	0.087
-525.004	655.059	0.163	0.418
-523.989	-115.691	-0.131	-0.025
-522.975	-177.102	-0.197	0.005
-521.960	-193.380	-0.173	0.002
-520.945	423.450	0.056	0.120
-519.931	266.918	0.060	0.105
-518.916	227.965	0.179	0.290
-517.902	785.015	-0.028	0.077
-516.887	67.552	-0.046	0.047
-515.872	153.896	-0.041	0.056
-514.858	800.000	-0.045	0.182
-513.843	-100.342	0.236	0.058
-512.829	-200.000	-0.024	0.133
-511.814	800.000	-0.014	-0.043
-510.799	271.205	0.163	-0.287
-509.785	-26.653	0.183	0.107
-508.770	-28.698	0.150	-0.086
-507.756	258.243	-0.069	0.119
-506.741	451.460	0.076	0.168
-505.726	-200.000	0.006	-0.037
-504.712	-200.000	0.025	-0.174
-503.697	46.811	0.230	-0.213
-502.683	-130.213	0.116	0.016
-501.668	-78.069	0.121	0.042
-500.653	56.170	-0.072	-0.070
-499.639	-47.389	-0.274	-0.133
-498.624	-17.584	-0.163	0.102
-497.610	70.485	0.092	0.094
-496.595	800.000	0.083	0.358
-495.581	1.706	-0.119	0.085
-494.566	-110.047	-0.332	-0.069
-493.551	-200.000	0.026	-0.291
-492.537	393.277	0.189	-0.393
-491.522	-77.264	0.190	-0.066
-490.508	113.848	-0.165	-0.199
-489.493	800.000	-0.077	0.312
-488.478	6.380	0.233	0.172
-487.464	-134.888	-0.295	0.036
-486.449	800.000	-0.073	0.209
-485.435	49.522	0.284	0.266
-484.420	153.898	0.119	-0.162
-483.405	-116.837	0.151	-0.028
-482.391	149.617	-0.159	-0.214
-481.376	105.535	0.204	-0.240
-480.362	179.787	0.138	0.201
-479.347	-195.062	-0.407	-0.003
-478.332	-115.393	0.157	-0.029
-477.318	-77.813	0.056	0.019
-476.303	800.000	0.111	0.351
-475.289	-158.826	0.266	-0.015
-474.274	465.705	0.102	-0.228
-473.259	35.720	0.246	-0.215
-472.245	-133.061	-0.491	-0.062
-471.230	71.692	-0.165	0.171
-470.216	-200.000	0.080	0.368
-469.201	-31.125	0.275	-0.154
-468.186	-29.282	-0.097	-0.056
-467.172	-200.000	0.015	-0.333
-466.157	7.717	-0.281	0.209
-465.143	23.610	0.087	-0.072
-464.128	-132.683	-0.393	-0.050
-463.113	174.085	0.182	0.262
-462.099	-104.901	0.044	0.010
-461.084	-25.029	-0.276	-0.163
-460.070	458.529	-0.103	-0.228
-459.055	-47.283	-0.122	0.059
-458.040	169.259	-0.049	0.070
-457.026	584.225	-0.067	-0.163
-456.011	510.422	0.148	-0.343
-454.997	8.418	0.074	0.056
-453.982	298.376	0.011	0.020
-452.968	-41.669	0.304	0.155
-451.953	800.000	0.070	0.279
-450.938	-200.000	0.021	-0.184
-449.924	800.000	0.024	-0.097
-448.909	10.151	-0.137	0.104
-447.895	93.635	0.215	-0.242
-446.880	-107.318	0.241	0.053
-445.865	64.474	0.153	-0.154
-444.851	-200.000	0.031	-0.150
-443.836	629.005	0.043	-0.107
-442.822	7.359	0.097	0.072
-441.807	-140.527	0.152	0.016
-440.792	374.480	0.107	-0.217
-439.778	3.351	0.143	0.103
-438.763	-98.682	-0.310	0.079
-437.749	-200.000	0.013	0.155
-436.734	-83.843	0.053	-0.017
-435.719	800.000	0.052	-0.178
-434.705	-88.491	0.253	-0.075
-433.690	-162.758	-0.366	0.018
-432.676	-99.507	-0.169	0.042
-431.661	539.047	0.078	-0.185
-430.646	-106.051	0.313	0.070
-429.632	-200.000	-0.057	0.413
-428.617	-200.000	-0.013	0.171
-427.603	32.002	-0.069	-0.059
-426.588	-169.461	-0.364	0.013
-425.573	-200.000	0.031	-0.387
-424.559	-115.554	-0.475	0.089
-423.544	-159.020	-0.019	0.001
-422.530	-110.527	0.118	0.024
-421.515	-200.000	0.037	0.174
-420.500	14.181	0.149	-0.116
-419.486	-29.476	-0.137	0.078
-418.471	211.692	0.104	0.163
-417.457	145.353	0.316	0.420
-416.442	-158.859	0.095	0.005
-415.428	282.645	-0.125	0.223
-414.413	-200.000	-0.062	0.323
-413.398	104.927	0.168	-0.197
-412.384	-160.559	-0.100	-0.005
-411.369	215.627	0.077	0.121
-410.355	322.500	0.034	-0.065
-409.340	128.608	0.038	-0.048
-408.325	-61.435	0.304	0.127
-407.311	-12.279	0.165	-0.107
-406.296	800.000	-0.054	0.220
-405.282	-51.891	-0.313	-0.145
-404.267	-35.708	-0.269	0.145
-403.252	-80.374	0.174	-0.058
-402.238	-168.300	-0.322	0.012
-401.223	-80.301	0.072	-0.024
-400.209	47.434	-0.176	-0.163
-399.194	-64.084	0.142	0.057
-398.179	-89.027	0.145	-0.043
-397.165	181.158	0.133	0.194
-396.150	-200.000	-0.028	-0.298
-395.136	195.314	0.082	0.124
-394.121	-74.258	-0.305	-0.109
-393.106	89.407	0.064	0.070
-392.092	-129.895	0.326	0.044
-391.077	800.000	-0.069	0.258
-390.063	69.328	-0.222	0.227
-389.048	258.619	-0.184	-0.315
-388.033	-82.833	-0.062	-0.020
-387.019	17.264	0.123	0.097
-386.004	-200.000	0.029	0.204
-384.990	-2.677	-0.273	0.189
-383.975	-43.003	-0.240	0.121
-382.960	-133.511	0.067	0.008
-381.946	-40.096	-0.265	0.137
-380.931	624.146	-0.078	-0.195
-379.917	238.457	0.124	0.205
-378.902	-200.000	-0.005	-0.143
-377.888	-109.834	-0.301	-0.063
-376.873	-21.819	-0.047	0.028
-375.858	-200.000	-0.036	0.307
-374.844	152.421	0.129	-0.175
-373.829	48.385	-0.215	0.199
-372.815	-200.000	-0.014	-0.171
-371.800	51.885	-0.161	-0.152
-370.785	-101.725	0.124	-0.030
-369.771	173.998	-0.047	0.067
-368.756	-148.989	-0.211	-0.017
-367.742	-166.156	0.283	0.012
-366.727	166.413	0.110	0.155
-365.712	236.949	-0.195	-0.320
-364.698	-139.204	-0.207	0.022
-363.683	-200.000	-0.019	-0.112
-362.669	29.020	0.101	-0.085
-361.654	-200.000	-0.019	0.142
-360.639	-200.000	-0.032	0.369
-359.625	-167.137	-0.228	-0.009
-358.610	800.000	-0.095	0.273
-357.596	-181.454	0.328	-0.006
-356.581	156.527	0.290	-0.397
-355.566	40.986	0.156	-0.139
-354.552	-125.785	0.196	0.029
-353.537	-200.000	0.008	0.164
-352.523	-200.000	0.015	-0.377
-351.508	61.419	-0.075	0.074
-350.493	-70.263	0.119	0.045
-349.479	-158.100	0.091	-0.005
-348.464	83.560	0.079	0.085
-347.450	675.410	0.082	0.211
-346.435	40.459	0.141	-0.126
-345.420	-110.121	0.620	0.128
-344.406	800.000	-0.096	0.273
-343.391	117.641	0.085	-0.103
-342.377	800.000	-0.122	-0.367
-341.362	-200.000	0.018	0.459
-340.348	-49.381	-0.083	-0.039
-339.333	367.368	-0.056	0.112
-338.318	-102.366	-0.748	-0.178
-337.304	-84.288	-0.235	-0.074
-336.289	-118.345	0.258	0.045
-335.275	-65.409	-0.268	-0.107
-334.260	238.202	0.237	0.389
-333.245	-85.440	0.203	0.063
-332.231	709.973	0.225	0.591
-331.216	-179.556	-0.159	0.003
-330.202	-153.788	-0.204	0.014
-329.187	5.920	-0.217	0.159
-328.172	-200.000	0.020	-0.121
-327.158	47.407	0.229	-0.211
-326.143	-141.777	-0.075	0.007
-325.129	-1.795	0.130	0.090
-324.114	-121.212	0.162	-0.027
-323.099	216.504	-0.032	-0.050
-322.085	-200.000	0.014	-0.154
-321.070	-14.746	-0.185	-0.118
-320.056	124.819	0.093	-0.116
-319.041	-81.994	-0.259	-0.084
-318.026	-200.000	-0.055	0.367
-317.012	-157.414	0.361	-0.021
-315.997	-27.183	-0.323	0.186
-314.983	-53.875	-0.426	0.192
-313.968	-67.680	-0.221	-0.086
-312.953	-7.967	-0.171	0.114
-311.939	-140.334	0.249	-0.026
-310.924	91.273	0.102	-0.114
-309.910	-75.207	-0.168	0.059
-308.895	57.557	-0.133	-0.128
-307.880	123.436	-0.042	-0.052
-306.866	617.005	0.079	-0.197
-305.851	-46.330	0.022	0.011
-304.837	-129.647	-0.241	0.033
-303.822	28.142	-0.199	0.166
-302.807	10.459	0.036	-0.027
-301.793	-83.795	-0.175	-0.055
-300.778	-200.000	0.010	0.236
-299.764	99.521	0.039	-0.045
-298.749	78.255	-0.131	-0.139
-297.735	31.240	0.197	-0.167
-296.720	-136.141	0.144	0.017
-295.705	597.696	-0.107	-0.263
-294.691	627.450	-0.057	-0.142
-293.676	14.178	0.143	0.110
-292.662	-200.000	0.007	0.116
-291.647	-172.417	0.138	0.004
-290.632	141.731	-0.075	-0.099
-289.618	-29.525	0.311	0.176
-288.603	68.645	-0.143	0.145
-287.589	-68.412	0.189	0.073
-286.574	-137.867	-0.237	-0.026
-285.559	800.000	0.099	0.360
-284.545	-200.000	-0.033	0.251
-283.530	-200.000	0.066	-0.292
-282.516	287.098	0.099	0.178
-281.501	-184.806	-0.140	-0.002
-280.486	175.710	0.197	-0.283
-279.472	171.098	-0.124	0.176
-278.457	-24.094	0.285	0.168
-277.443	-165.566	0.189	-0.008
-276.428	-200.000	0.048	-0.344
-275.413	-166.668	0.159	-0.006
-274.399	352.600	0.178	0.348
-273.384	-115.656	-0.386	0.072
-272.370	800.000	0.034	-0.123
-271.355	9.820	-0.227	0.170
-270.340	-27.439	0.126	0.072
-269.326	800.000	-0.008	0.031
-268.311	-77.890	-0.275	0.094
-267.297	-63.120	0.107	-0.043
-266.282	-200.000	-0.014	-0.084
-265.267	652.062	-0.034	-0.087
-264.253	800.000	-0.040	0.134
-263.238	-75.472	0.138	-0.049
-262.224	-200.000	0.006	-0.124
-261.209	-200.000	0.026	0.417
-260.195	-200.000	-0.003	0.562
-259.180	-124.854	0.229	0.035
-258.165	22.626	-0.163	0.131
-257.151	800.000	0.047	-0.176
-256.136	24.999	-0.329	0.269
-255.122	-200.000	-0.016	0.264
-254.107	-55.109	-0.258	0.115
-253.092	-119.610	-0.135	-0.023
-252.078	423.969	-0.041	-0.086
-251.063	15.990	-0.230	-0.179
-250.049	-156.466	0.265	-0.016
-249.034	636.550	0.044	0.111
-248.019	800.000	-0.074	-0.262
-247.005	14.782	-0.233	0.180
-245.990	800.000	0.054	0.221
-244.976	-200.000	-0.006	-0.124
-243.961	-200.000	-0.040	0.219
-242.946	315.945	-0.048	0.090
-241.932	248.288	-0.146	-0.244
-240.917	-72.559	0.292	0.106
-239.903	-200.000	-0.030	0.279
-238.888	15.263	-0.186	-0.144
-237.873	800.000	0.100	-0.359
-236.859	23.411	-0.219	-0.177
-235.844	-200.000	-0.052	-0.235
-234.830	294.509	0.134	-0.242
-233.815	-19.786	-0.089	0.054
-232.800	220.920	0.094	-0.149
-231.786	-67.592	0.198	-0.076
-230.771	34.210	0.096	-0.083
-229.757	-200.000	0.021	-0.312
-228.742	-75.492	0.165	-0.058
-227.727	800.000	-0.024	-0.101
-226.713	0.381	0.169	-0.119
-225.698	-10.025	0.045	-0.029
-224.684	733.719	-0.026	-0.068
-223.669	-200.000	-0.021	-0.133
-222.655	54.575	-0.337	-0.320
-221.640	800.000	-0.104	0.335
-220.625	-119.921	0.360	-0.061
-219.611	-157.841	-0.102	0.006
-218.596	11.949	-0.076	-0.058
-217.582	-200.000	-0.072	0.335
-216.567	-22.590	0.072	0.043
-215.552	-157.722	-0.447	-0.026
-214.538	-200.000	-0.021	-0.344
-213.523	-200.000	0.014	-0.150
-212.509	38.968	-0.118	-0.104
-211.494	-4.130	0.117	-0.080
-210.479	-153.560	0.227	0.015
-209.465	288.167	-0.119	0.213
-208.450	318.924	0.111	-0.207
-207.436	496.055	0.093	0.210
-206.421	-169.094	-0.177	-0.006
-205.406	-148.570	-0.155	-0.012
-204.392	800.000	0.042	0.141
-203.377	90.439	-0.185	-0.204
-202.363	281.923	-0.178	0.314
-201.348	95.307	0.144	-0.162
-200.333	-99.641	-0.294	-0.073
-199.319	-108.054	0.101	0.022
-198.304	273.055	0.131	0.228
-197.290	122.270	0.207	-0.255
-196.275	-118.312	-0.152	0.027
-195.260	298.133	-0.085	-0.153
-194.246	-71.218	-0.227	-0.084
-193.231	102.025	0.103	-0.118
-192.217	-200.000	-0.025	0.350
-191.202	-200.000	0.052	0.326
-190.187	-99.811	0.225	0.055
-189.173	800.000	0.089	-0.306
-188.158	-69.960	-0.180	0.067
-187.144	-42.087	0.026	-0.013
-186.129	-54.836	0.266	-0.118
-185.114	99.075	0.293	-0.333
-184.100	-200.000	-0.007	-0.258
-183.085	60.189	-0.133	-0.129
-182.071	-145.152	0.360	-0.032
-181.056	42.977	-0.182	-0.163
-180.042	-200.000	-0.015	0.132
-179.027	-198.627	-0.210	-0.001
-178.012	90.575	0.156	0.172
-176.998	-200.000	0.038	-0.201
-175.983	-200.000	0.009	0.072
-174.969	-40.711	0.097	0.049
-173.954	-57.389	-0.227	-0.098
-172.939	52.289	-0.163	-0.153
-171.925	277.172	0.124	-0.217
-170.910	1.288	0.248	-0.175
-169.896	-93.618	0.078	-0.021
-168.881	-11.012	0.260	-0.169
-167.866	-18.279	-0.107	-0.066
-166.852	187.116	-0.187	0.275
-165.837	628.405	-0.120	0.298
-164.823	94.936	0.175	0.196
-163.808	93.285	-0.085	0.095
-162.793	436.707	0.097	-0.208
-161.779	133.135	-0.142	-0.181
-160.764	800.000	-0.003	-0.010
-159.750	82.927	-0.167	-0.179
-158.735	43.723	0.021	0.019
-157.720	212.830	0.209	0.324
-156.706	-200.000	-0.003	0.104
-155.691	-200.000	-0.022	-0.113
-154.677	800.000	-0.065	-0.208
-153.662	-200.000	0.005	0.021
-152.647	149.933	0.027	-0.036
-151.633	706.611	0.037	0.096
-150.618	247.260	-0.095	0.157
-149.604	313.747	-0.075	-0.139
-148.589	638.613	-0.102	0.254
-147.574	-112.020	0.250	0.050
-146.560	-200.000	0.010	-0.191
-145.545	317.257	0.047	-0.088
-144.531	800.000	0.075	-0.233
-143.516	141.119	-0.064	0.083
-142.502	-25.750	0.299	0.174
-141.487	-131.668	-0.390	0.050
-140.472	-200.000	0.017	-0.148
-139.458	-26.097	-0.076	-0.044
-138.443	-153.774	0.132	0.009
-137.429	-200.000	0.022	-0.314
-136.414	-116.395	-0.151	-0.027
-135.399	-53.189	0.192	-0.087
-134.385	-99.751	0.048	-0.012
-133.370	418.912	0.034	0.071
-132.356	142.552	-0.143	0.187
-131.341	-200.000	0.044	-0.307
-130.326	60.454	0.093	0.090
-129.312	-62.564	0.391	0.160
-128.297	73.348	0.057	0.059
-127.283	-200.000	0.002	0.069
-126.268	-180.636	-0.043	-0.001
-125.253	800.000	-0.045	0.144
-124.239	187.981	-0.075	-0.110
-123.224	800.000	-0.012	-0.035
-122.210	200.807	0.030	0.045
-121.195	96.324	-0.059	-0.067
-120.180	-129.394	-0.110	-0.015
-119.166	-130.641	-0.100	-0.013
-118.151	91.806	-0.201	0.222
-117.137	48.848	0.254	-0.234
-116.122	-200.000	-0.030	0.280
-115.107	364.680	-0.109	0.216
-114.093	-200.000	0.013	0.162
-113.078	-57.218	0.058	0.025
-112.064	800.000	-0.055	-0.183
-111.049	800.000	0.115	0.328
-110.034	81.109	-0.038	-0.040
-109.020	521.661	0.103	0.238
-108.005	-127.356	-0.211	0.030
-106.991	94.073	-0.113	-0.126
-105.976	106.124	-0.090	0.105
-104.962	-200.000	-0.020	-0.103
-103.947	-90.927	-0.122	-0.035
-102.932	-200.000	0.010	0.321
-101.918	75.087	-0.133	0.137
-100.903	17.156	-0.193	0.150
-99.889	800.000	-0.092	0.347
-98.874	800.000	-0.161	0.436
-97.859	-153.660	0.218	0.015
-96.845	69.011	0.079	-0.079
-95.830	-147.931	-0.286	-0.023
-94.816	40.389	-0.172	-0.152
-93.801	-66.090	0.524	0.205
-92.786	147.238	-0.110	-0.146
-91.772	-98.462	0.233	-0.058
-90.757	74.217	-0.058	0.060
-89.743	-200.000	-0.029	0.285
-88.728	303.859	-0.073	0.133
-87.713	380.892	0.073	-0.148
-86.699	733.044	0.031	-0.082
-85.684	-200.000	-0.010	-0.338
-84.670	313.361	0.203	-0.375
-83.655	33.444	0.217	-0.185
-82.640	800.000	0.162	-0.457
-81.626	57.905	-0.271	-0.260
-80.611	-115.620	0.124	0.023
-79.597	-200.000	-0.006	0.064
-78.582	67.102	-0.238	0.238
-77.567	-86.811	0.262	-0.078
-76.553	-200.000	0.001	-0.115
-75.538	-116.365	-0.323	-0.059
-74.524	663.514	0.008	-0.020
-73.509	563.720	-0.151	-0.359
-72.494	-54.826	-0.067	0.030
-71.480	-68.033	-0.317	0.121
-70.465	15.359	0.169	-0.130
-69.451	-89.144	-0.337	-0.098
-68.436	-69.922	0.229	-0.086
-67.422	283.606	0.162	0.285
-66.407	-127.662	0.189	-0.027
-65.392	539.267	-0.078	0.182
-64.378	-109.224	-0.083	0.017
-63.363	-44.668	-0.168	0.082
-62.349	-18.762	0.173	0.105
-61.334	51.506	-1.033	-0.961
-60.319	212.355	0.436	0.674
-59.305	800.000	-0.471	-1.538
-58.290	239.026	0.822	1.339
-57.276	506.236	0.720	1.635
-56.261	-200.000	107.293	627.928
-55.246	524.859	1512.351	3485.150
-54.232	176.219	2702.333	3843.884
-53.217	110.678	2181.851	2570.097
-52.203	39.859	1704.783	1498.800
-51.188	32.330	1517.835	1283.253
-50.173	30.045	1491.182	1245.333
-49.159	50.901	1547.715	1436.065
-48.144	51.001	1564.238	1452.025
-47.130	32.384	1520.205	1285.427
-46.115	29.419	1505.081	1252.496
-45.100	29.275	1501.887	1248.808
-44.086	29.192	1499.410	1246.139
-43.071	29.193	1497.368	1244.402
-42.057	29.133	1495.665	1242.529
-41.042	29.110	1494.635	1241.472
-40.027	29.201	1492.690	1240.419
-39.013	29.183	1491.244	1239.046
-37.998	29.135	1490.372	1237.948
-36.984	29.100	1488.720	1236.293
-35.969	29.069	1487.711	1235.196
-34.954	29.084	1486.342	1234.114
-33.940	29.126	1484.716	1232.996
-32.925	29.144	1483.674	1232.200
-31.911	29.208	1482.319	1231.455
-30.896	29.238	1481.220	1230.692
-29.881	29.240	1479.852	1229.521
-28.867	29.367	1478.289	1229.017
-27.852	29.137	1477.650	1226.908
-26.838	29.227	1475.734	1225.870
-25.823	29.180	1474.218	1224.249
-24.809	29.292	1472.562	1223.565
-23.794	29.156	1471.380	1221.632
-22.779	29.236	1469.591	1220.631
-21.765	29.213	1468.639	1219.640
-20.750	29.216	1467.953	1219.043
-19.736	29.283	1466.456	1218.189
-18.721	29.210	1465.853	1217.161
-17.706	29.197	1464.616	1215.999
-16.692	29.167	1463.508	1214.833
-15.677	29.125	1462.604	1213.759
-14.663	29.146	1461.749	1213.136
-13.648	29.034	1460.837	1211.593
-12.633	29.110	1460.050	1211.395
-11.619	29.072	1459.075	1210.290
-10.604	29.075	1458.360	1209.667
-9.590	29.020	1457.319	1208.393
-8.575	29.178	1455.818	1208.138
-7.560	29.143	1455.286	1207.421
-6.546	29.116	1454.374	1206.440
-5.531	29.118	1453.474	1205.655
-4.517	29.147	1452.671	1205.129
-3.502	29.102	1451.954	1204.194
-2.487	29.125	1450.836	1203.370
-1.473	29.093	1449.917	1202.353
-0.458	29.114	1448.391	1201.172
0.556	27.003	1438.733	1190.872
1.571	24.044	1413.944	1151.149
2.586	20.749	1354.468	1082.180
3.600	19.423	1272.436	1008.799
4.615	18.207	1228.470	966.986
5.629	15.775	1172.573	909.769
6.644	7.589	1089.233	803.757
7.659	0.757	1049.491	740.963
8.673	-0.120	1043.743	732.567
9.688	-0.313	1040.573	729.338
10.702	-0.343	1039.278	728.217
11.717	-0.444	1037.072	726.121
12.731	2.650	1040.209	743.271
13.746	11.426	1052.505	794.892
14.761	18.266	1061.821	835.356
15.775	19.904	1063.531	844.629
16.790	20.362	1062.416	845.900
17.804	20.055	1061.624	843.701
18.819	19.791	1061.050	841.887
19.834	19.856	1060.499	841.691
20.848	20.051	1059.815	842.022
21.863	20.115	1059.083	841.677
22.877	20.029	1059.266	841.327
23.892	20.008	1058.691	840.696
24.907	19.978	1057.507	839.534
25.921	20.042	1056.891	839.281
26.936	20.128	1055.905	838.842
27.950	20.056	1054.760	837.510
28.965	19.955	1053.977	836.324
29.980	19.852	1052.123	834.285
30.994	19.974	1050.153	833.235
32.009	20.027	1049.690	833.048
33.023	20.043	1049.129	832.607
34.038	19.953	1047.561	830.855
35.053	19.902	1047.204	830.254
36.067	20.056	1046.535	830.388
37.082	20.006	1045.613	829.343
38.096	20.155	1044.712	829.268
39.111	20.197	1044.525	829.250
40.126	20.389	1043.525	829.300
41.140	20.292	1041.950	827.513
42.155	19.996	1040.502	824.879
43.169	19.771	1038.910	822.473
44.184	19.762	1037.768	821.455
45.199	19.770	1037.382	821.116
46.213	19.796	1035.530	819.698
47.228	19.627	1035.098	818.483
48.242	19.782	1034.722	818.845
49.257	19.898	1033.482	818.344
50.271	20.119	1032.303	818.377
51.286	19.967	1032.031	817.373
52.301	20.159	1030.816	817.247
53.315	20.200	1029.389	816.234
54.330	20.166	1029.098	815.772
55.344	20.040	1028.144	814.350
56.359	20.201	1026.609	813.818
57.374	20.166	1026.547	813.534
58.388	19.970	1025.487	811.702
59.403	19.897	1024.550	810.549
60.417	20.027	1023.877	810.550
61.432	19.835	1023.060	808.934
62.447	19.767	1022.293	807.938
63.461	19.934	1021.590	808.091
64.476	19.928	1020.789	807.358
65.490	20.021	1019.655	806.825
66.505	19.737	1019.123	805.011
67.520	19.886	1017.905	804.670
68.534	19.927	1017.652	804.589
69.549	19.788	1016.387	802.873
70.563	19.515	1015.210	800.604
71.578	19.518	1014.338	799.859
72.593	19.601	1013.396	799.430
73.607	19.424	1012.436	797.782
74.622	19.474	1011.343	797.081
75.636	19.716	1010.808	797.706
76.651	19.792	1010.140	797.460
77.666	19.648	1009.388	796.134
78.680	19.609	1007.959	794.755
79.695	19.671	1007.632	794.710
80.709	19.689	1007.143	794.339
81.724	19.870	1006.485	794.580
82.739	19.658	1005.415	792.694
83.753	19.807	1004.335	792.458
84.768	20.021	1003.620	792.802
85.782	20.229	1003.234	793.379
86.797	20.486	1002.520	793.917
87.812	20.400	1001.383	792.554
88.826	20.238	1000.750	791.245
89.841	20.123	1000.258	790.262
90.855	20.285	999.135	790.041
91.870	20.263	998.115	789.066
92.884	20.322	997.353	788.661
93.899	20.170	996.213	787.000
94.914	20.195	995.260	786.289
95.928	20.238	994.385	785.723
96.943	20.228	994.273	785.521
97.957	19.915	992.896	782.946
98.972	19.717	991.624	780.982
99.987	19.522	990.703	779.304
101.001	19.667	989.836	779.210
102.016	19.975	989.060	779.916
103.030	19.924	988.262	778.988
104.045	19.996	987.033	778.273
105.060	19.784	985.625	776.144
106.074	19.813	983.827	774.789
107.089	19.711	983.898	774.320
108.103	20.107	983.637	775.818
109.118	20.139	982.838	775.262
110.133	20.015	980.961	773.163
111.147	19.798	980.441	771.716
112.162	19.917	978.912	770.974
113.176	19.639	977.932	768.894
114.191	19.736	977.230	768.708
115.206	19.803	976.207	768.131
116.220	19.578	974.763	765.932
117.235	19.282	974.212	764.116
118.249	19.566	973.101	764.437
119.264	19.605	972.336	763.942
120.279	19.542	971.302	762.781
121.293	19.579	970.462	762.218
122.308	19.716	969.939	762.344
123.322	19.685	969.449	761.752
124.337	19.716	967.928	760.630
125.352	19.557	966.468	758.713
126.366	19.162	964.865	755.657
127.381	18.821	963.709	753.191
128.395	19.406	963.543	755.555
129.410	20.059	962.837	757.792
130.424	20.096	961.930	757.174
131.439	20.119	961.004	756.479
132.454	19.975	960.162	755.119
133.468	20.054	958.988	754.475
134.483	20.055	958.305	753.874
135.497	19.943	957.586	752.754
136.512	20.188	957.485	753.675
137.527	20.291	956.622	753.376
138.541	20.139	955.627	751.868
139.556	20.247	954.937	751.727
140.570	20.348	953.673	751.100
141.585	20.340	952.987	750.459
142.600	20.341	952.159	749.744
143.614	20.151	951.611	748.429
144.629	20.218	951.350	748.444
145.643	20.496	950.123	748.611
146.658	20.346	948.865	746.907
147.673	20.330	947.455	745.664
148.687	20.242	946.464	744.438
149.702	20.157	945.586	743.319
150.716	20.051	944.824	742.202
151.731	20.143	943.380	741.395
152.746	20.168	942.913	741.070
153.760	20.226	942.453	740.888
154.775	20.499	941.655	741.361
155.789	20.611	940.286	740.693
156.804	20.430	939.552	739.282
157.819	20.316	939.176	738.436
158.833	20.419	937.990	737.876
159.848	20.444	936.942	737.090
160.862	20.496	936.322	736.758
161.877	20.436	935.251	735.595
162.892	20.250	934.645	734.269
163.906	20.398	934.059	734.370
164.921	20.469	933.146	733.883
165.935	20.517	931.358	732.615
166.950	20.423	930.745	731.675
167.964	20.574	929.587	731.334
168.979	20.420	928.569	729.821
169.994	20.307	927.694	728.594
171.008	20.231	926.849	727.545
172.023	20.349	926.049	727.349
173.037	20.506	925.291	727.346
174.052	20.273	923.934	725.242
175.067	20.112	922.937	723.725
176.081	20.118	922.255	723.147
177.096	20.488	921.238	723.831
178.110	20.402	920.446	722.784
179.125	20.076	919.447	720.580
180.140	19.863	918.545	718.925
181.154	19.806	918.325	718.453
182.169	20.012	917.227	718.385
183.183	20.213	917.193	719.130
184.198	20.382	916.774	719.438
185.213	20.319	915.822	718.366
186.227	20.331	914.946	717.662
187.242	20.313	914.849	717.449
188.256	20.510	913.918	717.471
189.271	20.501	912.944	716.603
190.286	20.580	912.035	716.154
191.300	20.358	911.232	714.545
192.315	19.746	910.197	711.156
193.329	19.183	908.125	707.163
194.344	18.810	907.230	704.871
195.359	19.572	907.304	707.991
196.373	20.226	907.762	710.969
197.388	20.343	907.669	711.314
198.402	20.209	906.589	709.856
199.417	20.132	906.156	709.138
200.432	20.343	905.352	709.306
201.446	20.175	904.814	708.139
202.461	19.871	903.656	705.929
203.475	20.055	903.170	706.238
204.490	19.472	901.892	702.801
205.504	18.544	899.698	697.259
206.519	18.856	900.255	698.896
207.534	19.773	900.276	702.581
208.548	20.032	899.604	703.043
209.563	20.237	899.707	703.894
210.577	20.191	899.007	703.097
211.592	20.100	897.915	701.813
212.607	20.381	897.735	702.748
213.621	20.459	897.238	702.610
214.636	20.410	896.412	701.704
215.650	20.529	895.858	701.687
216.665	20.609	895.037	701.309
217.680	20.580	894.935	701.048
218.694	20.654	894.221	700.725
219.709	20.176	893.237	697.967
220.723	19.846	892.660	696.129
221.738	20.075	891.988	696.464
222.753	20.345	891.352	696.988
223.767	20.154	890.686	695.642
224.782	20.197	890.064	695.265
225.796	20.563	889.053	695.877
226.811	20.623	888.510	695.633
227.826	20.145	887.519	692.886
228.840	19.419	885.862	688.634
229.855	19.295	885.728	687.971
230.869	19.669	884.849	688.719
231.884	19.405	883.719	686.728
232.899	19.446	883.593	686.733
233.913	20.263	883.574	689.910
234.928	20.381	883.459	690.227
235.942	20.345	882.448	689.234
236.957	20.337	881.976	688.770
237.972	20.062	880.824	686.721
238.986	19.894	880.066	685.403
240.001	20.064	879.659	685.701
241.015	20.047	878.935	685.006
242.030	20.233	878.100	685.029
243.045	20.231	877.660	684.620
244.059	20.237	877.232	684.246
245.074	20.531	876.358	684.662
246.088	20.591	875.397	684.090
247.103	20.042	875.012	681.569
248.117	19.917	874.825	680.870
249.132	20.556	874.570	683.122
250.147	20.919	873.763	683.855
251.161	20.897	873.081	683.176
252.176	20.983	872.857	683.279
253.190	21.123	872.120	683.190
254.205	21.037	871.699	682.460
255.220	21.296	871.358	683.146
256.234	21.260	870.457	682.238
257.249	21.134	869.935	681.280
258.263	21.016	869.396	680.335
259.278	21.008	868.489	679.534
260.293	21.224	867.692	679.691
261.307	21.327	867.473	679.862
262.322	21.048	867.060	678.390
263.336	21.017	865.840	677.258
264.351	20.427	864.943	674.207
265.366	19.369	863.028	668.554
266.380	18.958	861.482	665.706
267.395	19.823	862.407	669.711
268.409	20.656	862.609	673.034
269.424	20.635	861.649	672.145
270.439	20.764	861.065	672.127
271.453	20.891	860.601	672.195
272.468	20.891	860.034	671.694
273.482	21.073	859.227	671.705
274.497	21.266	858.939	672.162
275.512	20.967	857.834	670.091
276.526	20.606	856.470	667.580
277.541	20.764	856.260	667.962
278.555	21.021	855.722	668.471
279.570	20.860	855.067	667.284
280.585	20.402	854.522	665.043
281.599	20.636	853.710	665.248
282.614	21.011	853.098	666.144
283.628	20.475	851.851	663.066
284.643	20.249	851.280	661.702
285.657	20.576	851.514	663.073
286.672	20.532	850.361	661.952
287.687	19.948	849.506	659.003
288.701	20.281	849.225	659.995
289.716	20.632	849.071	661.150
290.730	20.237	848.274	658.971
291.745	20.372	847.251	658.630
292.760	20.054	846.206	656.553
293.774	19.916	845.745	655.616
294.789	20.921	846.155	659.681
295.803	21.497	846.225	661.857
296.818	21.537	845.847	661.656
297.833	21.693	844.856	661.410
298.847	21.455	843.860	659.673
299.862	20.988	843.312	657.425
300.876	21.200	842.830	657.791
301.891	21.469	842.296	658.330
302.906	21.422	842.073	657.922
303.920	21.160	840.458	655.616
304.935	21.047	839.702	654.544
305.949	21.296	839.603	655.343
306.964	21.392	839.233	655.355
307.979	21.238	838.542	654.182
308.993	21.224	838.052	653.689
310.008	21.516	837.833	654.553
311.022	21.711	837.407	654.893
312.037	21.372	836.726	653.035
313.052	21.316	835.797	652.044
314.066	21.300	835.149	651.420
315.081	20.680	833.505	647.773
316.095	19.912	832.520	644.093
317.110	20.301	832.839	645.729
318.125	21.226	833.094	649.314
319.139	20.832	831.944	646.894
320.154	19.871	830.326	642.016
321.168	19.481	829.280	639.705
322.183	20.104	829.465	642.102
323.197	20.791	830.208	645.163
324.212	21.060	829.579	645.614
325.227	21.099	829.379	645.544
326.241	21.343	828.593	645.779
327.256	21.283	828.137	645.144
328.270	21.181	827.766	644.422
329.285	21.112	826.571	643.180
330.300	20.854	826.058	641.775
331.314	20.815	825.205	640.913
332.329	20.845	824.795	640.648
333.343	21.312	823.971	641.665
334.358	21.407	823.930	641.927
335.373	21.324	823.531	641.253
336.387	21.593	822.504	641.382
337.402	21.649	822.495	641.522
338.416	21.819	821.838	641.576
339.431	21.825	821.506	641.282
340.446	21.752	820.955	640.527
341.460	21.939	820.323	640.663
342.475	21.912	819.584	639.930
343.489	21.758	819.144	638.966
344.504	21.653	818.591	638.097
345.519	22.000	818.091	638.914
346.533	22.041	818.025	638.957
347.548	22.150	817.548	638.922
348.562	22.235	816.933	638.695
349.577	22.148	816.899	638.293
350.592	22.023	816.129	637.183
351.606	22.164	815.256	636.957
352.621	22.196	814.732	636.608
353.635	22.096	814.304	635.855
354.650	21.895	813.951	634.794
355.665	21.529	813.210	632.836
356.679	20.536	811.413	627.799
357.694	20.602	810.742	627.462
358.708	21.118	810.981	629.452
359.723	21.283	809.974	629.210
360.738	21.382	809.955	629.495
361.752	21.738	809.834	630.629
362.767	21.662	809.763	630.244
363.781	22.194	808.979	631.490
364.796	22.339	809.056	632.014
365.810	22.338	808.600	631.599
366.825	22.434	808.219	631.589
367.840	22.494	807.673	631.323
368.854	22.257	807.246	630.081
369.869	21.853	806.454	627.964
370.883	21.890	805.777	627.511
371.898	22.030	805.001	627.351
372.913	21.713	804.335	625.648
373.927	21.857	803.623	625.551
374.942	22.109	803.219	626.079
375.956	22.018	802.979	625.512
376.971	22.143	802.376	625.434
377.986	22.186	801.741	625.036
379.000	22.332	801.337	625.182
380.015	22.458	800.931	625.258
381.029	22.336	800.214	624.211
382.044	22.165	799.704	623.152
383.059	22.528	799.113	623.923
384.073	22.300	798.667	622.712
385.088	22.469	798.186	622.880
386.102	22.474	797.447	622.266
387.117	22.372	796.992	621.497
388.132	22.137	796.615	620.316
389.146	22.155	795.904	619.772
390.161	21.562	794.766	616.742
391.175	21.758	794.494	617.168
392.190	21.977	794.466	617.860
393.205	22.049	793.912	617.630
394.219	21.127	792.404	613.164
395.234	19.697	790.144	606.348
396.248	18.923	789.344	602.966
397.263	20.059	790.018	607.412
398.278	21.844	791.326	614.625
399.292	22.221	791.393	615.943
400.307	21.910	790.574	614.164
401.321	21.856	789.952	613.437
402.336	22.067	789.829	614.026
403.350	22.165	789.882	614.355
404.365	22.486	789.347	615.005
405.380	22.788	789.275	615.948
406.394	22.934	789.193	616.341
407.409	23.070	788.817	616.467
408.423	22.975	788.225	615.619
409.438	22.972	787.221	614.770
410.453	23.022	787.317	614.964
411.467	23.115	786.586	614.659
412.482	23.082	785.921	613.972
413.496	23.019	785.480	613.356
414.511	23.208	785.082	613.644
415.526	23.263	784.910	613.646
416.540	23.117	784.676	612.902
417.555	23.120	783.773	612.154
418.569	22.868	783.104	610.708
419.584	22.795	782.384	609.837
420.599	22.848	782.048	609.705
421.613	157.914	1363.624	1797.497
422.628	136.513	1448.340	1797.583
