DTS Sentinel unit serial number:	SN413079Multiplexer serial number:	ORYXHardware model number:	OX4-SRSoftware version number:	ORYX F/W v4.00 Oryx Data Collector v3.7.2.0data status	okinstallation	princeton_trtdifferential loss correction	single-endedforward channel	channel 3reverse channel	N/Adate	2019/09/11time	08:54:11forward acquisition time	60.00reverse acquisition time	0.00gamma	496.2192k internal	0.2309k external	0.2309temperature offset calibration	0.9940default loss term (dB/km)	0.3790temperature slope calibration	1.0000multiplexer offset coefficient	1.0000multiplexer slope coefficient	1.0000fibre end	0.00T internal ref (°C)	33.94T ext. ref 1 (°C)	0.08T ext. ref 2 (°C)	30.78length (m)	temperature (°C)	Stokes	anti-Stokes-747.200	-103.056	-0.178	0.043
-746.185	-20.245	-0.151	-0.094
-745.171	-200.000	-0.001	-0.049
-744.156	-200.000	-0.007	0.307
-743.142	-119.258	0.337	0.060
-742.127	-200.000	0.014	0.187
-741.112	607.450	0.143	0.361
-740.098	706.543	-0.085	0.229
-739.083	153.943	-0.077	0.107
-738.069	694.857	-0.105	0.281
-737.054	-73.203	-0.226	0.084
-736.039	-47.384	-0.210	-0.104
-735.025	-88.330	0.354	-0.108
-734.010	-98.472	-0.206	-0.054
-732.996	37.948	-0.173	-0.157
-731.981	-18.757	0.040	-0.025
-730.966	375.489	-0.074	-0.153
-729.952	-135.228	0.157	-0.019
-728.937	129.495	-0.077	-0.100
-727.923	-27.466	-0.126	-0.074
-726.908	-155.627	0.244	0.016
-725.894	-200.000	-0.080	0.378
-724.879	-22.751	-0.189	-0.116
-723.864	358.569	-0.087	0.177
-722.850	127.663	0.065	-0.084
-721.835	-171.417	-0.083	0.003
-720.821	19.179	0.122	-0.100
-719.806	47.631	-0.262	-0.248
-718.791	-44.337	0.172	0.087
-717.777	-52.980	0.117	0.055
-716.762	-66.522	0.190	-0.076
-715.748	321.181	-0.115	-0.221
-714.733	21.687	-0.184	0.152
-713.718	-154.891	-0.175	-0.012
-712.704	531.412	0.131	0.315
-711.689	607.371	-0.095	0.240
-710.675	165.457	-0.366	-0.525
-709.660	800.000	-0.117	-0.448
-708.645	-200.000	0.006	-0.180
-707.631	-166.177	-0.180	0.008
-706.616	-133.746	-0.208	-0.026
-705.602	-200.000	0.024	-0.408
-704.587	800.000	-0.115	-0.371
-703.572	5.382	0.121	-0.091
-702.558	-89.405	-0.294	-0.088
-701.543	136.816	-0.122	0.162
-700.529	-115.248	-0.235	0.045
-699.514	61.514	-0.222	0.224
-698.499	-128.877	-0.235	0.034
-697.485	-136.499	0.114	-0.013
-696.470	139.748	0.389	-0.519
-695.456	800.000	0.074	-0.224
-694.441	338.404	0.215	-0.424
-693.426	389.325	0.240	-0.505
-692.412	48.278	0.155	-0.147
-691.397	83.353	-0.153	0.168
-690.383	-10.380	0.198	-0.133
-689.368	-200.000	-0.018	-0.129
-688.354	561.231	-0.070	0.171
-687.339	-200.000	0.013	-0.082
-686.324	-200.000	0.302	0.001
-685.310	-194.255	0.217	-0.002
-684.295	-195.251	-0.254	0.002
-683.281	-200.000	-0.014	0.077
-682.266	68.028	0.142	-0.147
-681.251	-200.000	0.000	-0.178
-680.237	-200.000	-0.013	-0.165
-679.222	-200.000	0.001	0.244
-678.208	-58.093	0.167	0.074
-677.193	-50.463	0.140	-0.067
-676.178	198.927	0.165	0.257
-675.164	-200.000	0.015	0.102
-674.149	-106.098	-0.130	-0.030
-673.135	159.958	0.181	-0.256
-672.120	-67.437	-0.163	-0.065
-671.105	160.434	-0.220	-0.311
-670.091	291.859	0.147	-0.271
-669.076	800.000	-0.216	-0.659
-668.062	800.000	-0.049	-0.169
-667.047	-150.992	-0.286	0.022
-666.032	-112.237	-0.183	0.037
-665.018	192.894	-0.117	0.179
-664.003	-104.720	0.010	-0.002
-662.989	98.843	-0.071	-0.083
-661.974	-86.581	0.166	0.051
-660.959	44.809	-0.159	0.148
-659.945	9.590	-0.424	-0.325
-658.930	397.444	-0.069	-0.146
-657.916	305.166	0.129	-0.242
-656.901	253.824	0.075	-0.130
-655.886	-200.000	-0.037	-0.246
-654.872	470.363	-0.136	-0.311
-653.857	692.175	0.076	0.203
-652.843	800.000	0.032	0.135
-651.828	-34.933	-0.096	0.053
-650.814	158.201	0.042	0.059
-649.799	6.439	0.150	-0.113
-648.784	-134.272	0.248	-0.031
-647.770	800.000	0.019	0.067
-646.755	459.831	0.037	-0.084
-645.741	800.000	-0.091	0.350
-644.726	159.884	0.010	0.015
-643.711	-200.000	0.001	0.053
-642.697	203.874	-0.016	-0.026
-641.682	800.000	0.155	-0.436
-640.668	690.016	0.116	-0.306
-639.653	-200.000	-0.029	-0.283
-638.638	245.448	0.124	-0.210
-637.624	-44.556	0.290	0.147
-636.609	-2.213	-0.078	-0.056
-635.595	153.600	0.043	-0.060
-634.580	278.717	-0.046	0.083
-633.565	-200.000	0.006	0.165
-632.551	-4.064	-0.320	0.225
-631.536	-110.215	-0.220	-0.046
-630.522	-95.118	-0.248	0.068
-629.507	-123.755	-0.069	-0.011
-628.492	-200.000	0.112	-0.558
-627.478	124.737	0.077	0.099
-626.463	4.777	-0.238	0.177
-625.449	800.000	-0.065	0.228
-624.434	142.462	-0.068	0.091
-623.419	779.201	-0.043	0.118
-622.405	159.235	-0.143	-0.202
-621.390	-93.221	0.190	-0.053
-620.376	-0.077	-0.106	0.077
-619.361	-35.327	-0.148	-0.082
-618.346	-200.000	-0.004	-0.173
-617.332	-200.000	0.026	-0.268
-616.317	-110.788	-0.197	0.041
-615.303	0.735	0.303	-0.219
-614.288	21.577	-0.068	-0.056
-613.273	-19.994	-0.096	-0.060
-612.259	-54.447	-0.254	-0.116
-611.244	-175.661	-0.327	-0.009
-610.230	-129.574	-0.132	-0.018
-609.215	-83.864	0.184	-0.059
-608.201	335.264	0.124	0.243
-607.186	-200.000	-0.090	0.602
-606.171	-87.000	-0.105	0.032
-605.157	-96.637	0.107	0.028
-604.142	-162.578	0.188	-0.009
-603.128	-59.048	0.091	-0.040
-602.113	-102.678	-0.295	0.071
-601.098	14.395	0.181	0.142
-600.084	30.076	0.185	0.159
-599.069	800.000	0.045	-0.190
-598.055	193.273	-0.190	0.291
-597.040	-39.271	0.185	-0.098
-596.025	-200.000	0.041	0.334
-595.011	-170.937	0.310	-0.011
-593.996	316.140	0.152	0.289
-592.982	122.497	-0.097	0.123
-591.967	-200.000	0.015	0.184
-590.952	295.828	0.015	-0.028
-589.938	249.902	-0.098	0.168
-588.923	102.498	-0.103	0.122
-587.909	-4.180	-0.141	-0.098
-586.894	760.319	-0.102	-0.279
-585.879	-26.006	-0.376	-0.223
-584.865	-19.500	-0.280	-0.175
-583.850	-75.823	-0.308	0.110
-582.836	-200.000	0.003	-0.201
-581.821	44.015	-0.332	0.307
-580.806	129.734	0.134	0.172
-579.792	4.678	0.274	0.203
-578.777	-200.000	-0.029	0.351
-577.763	-51.770	-0.209	0.098
-576.748	45.061	-0.117	0.109
-575.733	467.892	-0.115	0.261
-574.719	-77.095	-0.338	0.119
-573.704	-106.561	-0.159	-0.036
-572.690	135.688	0.119	-0.156
-571.675	42.869	-0.064	-0.059
-570.661	51.783	-0.069	0.066
-569.646	800.000	-0.112	0.362
-568.631	589.373	0.078	-0.194
-567.617	-91.681	-0.107	-0.031
-566.602	-75.060	-0.165	0.060
-565.588	404.567	-0.093	0.197
-564.573	-200.000	0.035	0.205
-563.558	-165.653	0.265	0.012
-562.544	285.740	0.071	-0.128
-561.529	-21.810	0.187	0.115
-560.515	44.328	0.061	-0.057
-559.500	304.194	-0.023	-0.042
-558.485	247.205	-0.106	-0.180
-557.471	-200.000	-0.045	-0.206
-556.456	-28.735	0.060	-0.035
-555.442	511.579	0.101	0.236
-554.427	-163.609	-0.393	0.019
-553.412	-58.108	0.053	-0.023
-552.398	315.542	-0.101	0.193
-551.383	800.000	-0.083	0.310
-550.369	162.777	-0.083	-0.117
-549.354	-45.909	-0.325	-0.162
-548.339	-23.446	-0.316	0.191
-547.325	-200.000	0.039	0.304
-546.310	-53.697	0.095	-0.044
-545.296	318.746	0.141	-0.269
-544.281	-27.042	-0.261	-0.153
-543.266	-22.084	-0.057	-0.035
-542.252	-45.505	-0.275	0.137
-541.237	-200.000	-0.504	0.000
-540.223	201.121	-0.088	-0.137
-539.208	213.006	0.225	-0.358
-538.193	-200.000	0.023	0.109
-537.179	-0.750	0.400	-0.286
-536.164	-64.939	0.214	-0.087
-535.150	-200.000	-0.027	-0.259
-534.135	-200.000	-0.037	-0.175
-533.121	50.324	0.168	-0.160
-532.106	17.896	-0.107	-0.086
-531.091	-140.688	0.279	0.029
-530.077	282.746	-0.014	-0.025
-529.062	-90.957	0.226	-0.066
-528.048	438.831	0.081	0.178
-527.033	102.038	0.206	-0.242
-526.018	-17.452	0.070	-0.044
-525.004	-200.000	-0.030	-0.270
-523.989	302.300	0.087	-0.162
-522.975	-4.304	0.185	-0.129
-521.960	-200.000	0.007	0.054
-520.945	-58.035	-0.293	-0.129
-519.931	-200.000	-0.007	-0.210
-518.916	-200.000	0.029	0.306
-517.902	-200.000	0.018	-0.105
-516.887	48.557	0.124	-0.117
-515.872	-200.000	0.078	0.361
-514.858	800.000	0.067	-0.229
-513.843	3.481	-0.083	-0.061
-512.829	-200.000	-0.018	0.210
-511.814	-43.799	-0.135	0.069
-510.799	465.625	0.148	-0.334
-509.785	234.025	-0.083	-0.138
-508.770	-78.441	0.127	0.044
-507.756	-200.000	-0.016	0.119
-506.741	-19.737	0.137	0.085
-505.726	-69.503	-0.107	0.041
-504.712	-71.919	-0.125	-0.047
-503.697	18.863	-0.127	0.102
-502.683	-76.880	-0.198	-0.070
-501.668	65.731	-0.291	-0.297
-500.653	56.876	-0.096	-0.094
-499.639	-200.000	-0.079	0.386
-498.624	202.552	-0.158	-0.245
-497.610	332.629	0.179	0.347
-496.595	-200.000	-0.037	0.205
-495.581	-88.586	-0.052	0.016
-494.566	150.301	-0.090	-0.123
-493.551	-200.000	0.028	0.296
-492.537	361.720	0.040	-0.080
-491.522	-200.000	0.000	0.106
-490.508	-72.230	0.425	0.158
-489.493	27.546	-0.339	0.287
-488.478	123.637	0.088	-0.111
-487.464	-200.000	-0.001	0.103
-486.449	47.895	-0.112	0.106
-485.435	-200.000	0.011	-0.099
-484.420	109.653	0.142	0.171
-483.405	-27.320	-0.167	-0.098
-482.391	-12.850	-0.104	0.068
-481.376	-67.495	-0.274	-0.108
-480.362	800.000	-0.052	0.192
-479.347	-200.000	-0.074	-0.363
-478.332	800.000	-0.120	0.362
-477.318	-7.630	0.056	-0.038
-476.303	69.304	0.185	0.191
-475.289	82.504	-0.217	-0.237
-474.274	390.137	0.170	-0.354
-473.259	44.262	0.241	-0.222
-472.245	-58.839	0.176	-0.076
-471.230	-148.925	-0.126	-0.010
-470.216	-168.777	0.200	0.008
-469.201	-40.064	-0.244	-0.128
-468.186	449.370	0.178	-0.394
-467.172	11.245	0.144	-0.111
-466.157	-56.278	-0.221	-0.099
-465.143	172.805	-0.193	-0.280
-464.128	213.386	-0.220	-0.350
-463.113	-5.248	0.203	-0.141
-462.099	402.846	-0.045	0.095
-461.084	-54.693	-0.226	-0.103
-460.070	301.297	-0.018	-0.034
-459.055	-38.102	0.313	-0.167
-458.040	16.271	0.106	-0.084
-457.026	-200.000	-0.000	-0.094
-456.011	-200.000	0.078	0.370
-454.997	-113.525	-0.228	0.045
-453.982	26.719	0.073	-0.062
-452.968	53.802	-0.023	0.022
-451.953	-114.795	-0.304	0.058
-450.938	361.713	-0.128	0.258
-449.924	-200.000	0.027	0.153
-448.909	27.894	0.277	0.235
-447.895	34.687	0.355	-0.312
-446.880	511.640	-0.081	-0.190
-445.865	-1.115	0.041	0.029
-444.851	232.510	-0.052	-0.085
-443.836	-110.736	-0.327	0.068
-442.822	48.913	0.210	0.198
-441.807	-200.000	0.101	-0.451
-440.792	-12.354	-0.127	-0.083
-439.778	-65.301	-0.200	-0.081
-438.763	112.278	0.038	-0.046
-437.749	-96.649	0.386	-0.102
-436.734	-59.137	-0.234	0.101
-435.719	246.956	-0.290	0.491
-434.705	-111.327	-0.077	0.016
-433.690	-200.000	0.041	0.000
-432.676	800.000	-0.086	0.286
-431.661	-200.000	-0.025	0.184
-430.646	-62.588	0.129	-0.054
-429.632	-108.608	-0.116	-0.025
-428.617	-135.144	0.259	0.031
-427.603	279.193	-0.118	-0.211
-426.588	26.136	0.215	-0.180
-425.573	-200.000	-0.005	-0.229
-424.559	-142.409	0.256	-0.025
-423.544	-200.000	-0.011	-0.054
-422.530	-200.000	-0.055	-0.452
-421.515	217.777	0.038	-0.060
-420.500	-128.782	-0.106	-0.015
-419.486	277.041	0.107	0.190
-418.471	-129.801	0.165	0.023
-417.457	-33.234	0.153	0.085
-416.442	9.086	0.270	-0.204
-415.428	216.271	0.125	0.200
-414.413	-125.682	0.200	-0.030
-413.398	-24.368	-0.180	0.108
-412.384	-200.000	-0.001	-0.176
-411.369	-19.772	0.111	-0.069
-410.355	800.000	0.053	0.205
-409.340	-67.320	0.408	0.161
-408.325	-87.687	-0.057	0.017
-407.311	-40.404	0.201	-0.105
-406.296	304.546	-0.226	-0.421
-405.282	-66.652	-0.071	-0.028
-404.267	-116.143	0.040	0.007
-403.252	-200.000	-0.015	-0.109
-402.238	-200.000	0.158	-0.000
-401.223	198.082	0.137	-0.209
-400.209	-69.452	-0.254	-0.098
-399.194	4.413	-0.156	0.115
-398.179	-166.283	0.316	0.013
-397.165	800.000	0.064	0.254
-396.150	800.000	0.022	0.089
-395.136	236.759	-0.094	-0.156
-394.121	-98.411	0.137	-0.035
-393.106	310.119	-0.272	0.511
-392.092	-60.042	0.279	-0.120
-391.077	14.881	0.169	0.132
-390.063	88.889	0.218	0.243
-389.048	148.630	-0.150	-0.204
-388.033	266.564	0.026	0.045
-387.019	-186.661	-0.263	-0.004
-386.004	-15.797	-0.070	0.044
-384.990	234.276	0.059	-0.097
-383.975	-200.000	-0.027	-0.152
-382.960	42.286	0.167	-0.152
-381.946	800.000	0.043	-0.184
-380.931	-200.000	0.014	0.167
-379.917	-30.711	-0.214	-0.121
-378.902	-49.892	0.100	0.048
-377.888	-5.385	-0.176	0.121
-376.873	640.961	-0.046	-0.118
-375.858	-110.506	-0.253	0.052
-374.844	33.202	-0.194	0.169
-373.829	122.602	0.107	-0.134
-372.815	539.545	0.055	0.131
-371.800	410.456	-0.103	0.218
-370.785	-52.509	0.274	0.127
-369.771	-200.000	-0.005	-0.183
-368.756	800.000	-0.017	0.061
-367.742	-110.901	-0.185	-0.038
-366.727	36.308	-0.107	0.095
-365.712	-155.372	0.577	0.037
-364.698	800.000	-0.062	0.218
-363.683	238.242	0.040	-0.066
-362.669	-62.690	-0.249	-0.103
-361.654	163.090	0.095	0.134
-360.639	-164.264	0.171	0.008
-359.625	652.808	-0.199	-0.511
-358.610	-4.170	0.341	0.236
-357.596	121.600	-0.117	0.146
-356.581	800.000	0.013	-0.051
-355.566	353.626	-0.130	0.258
-354.552	79.909	0.081	-0.087
-353.537	6.151	0.152	-0.113
-352.523	-23.727	-0.082	-0.049
-351.508	71.024	0.168	0.174
-350.493	43.065	0.048	0.044
-349.479	721.928	-0.083	0.220
-348.464	176.020	0.091	0.132
-347.450	-200.000	-0.019	0.180
-346.435	-200.000	-0.031	-0.150
-345.420	349.391	0.084	-0.165
-344.406	77.804	0.212	0.226
-343.391	-200.000	0.036	-0.324
-342.377	278.198	-0.063	-0.112
-341.362	-61.748	-0.256	0.107
-340.348	-63.526	-0.250	-0.103
-339.333	800.000	-0.158	-0.442
-338.318	-200.000	-0.033	0.372
-337.304	-107.163	0.412	0.091
-336.289	-200.000	0.019	-0.111
-335.275	-29.169	-0.152	0.087
-334.260	-142.064	-0.142	-0.014
-333.245	538.467	0.089	-0.212
-332.231	88.007	0.145	-0.160
-331.216	800.000	-0.053	0.146
-330.202	-3.575	-0.239	0.166
-329.187	-200.000	0.021	0.196
-328.172	-200.000	0.030	0.233
-327.158	113.432	-0.166	-0.202
-326.143	308.686	0.124	0.231
-325.129	-200.000	0.005	0.117
-324.114	-63.878	0.169	0.069
-323.099	124.733	0.051	-0.065
-322.085	-150.774	-0.139	-0.011
-321.070	6.325	0.203	0.150
-320.056	555.383	0.063	0.151
-319.041	142.722	0.174	0.231
-318.026	-115.687	0.386	0.072
-317.012	-25.270	-0.173	0.102
-315.997	-200.000	0.012	0.345
-314.983	-73.491	0.270	-0.098
-313.968	6.771	0.106	-0.079
-312.953	7.609	-0.078	0.058
-311.939	-6.094	-0.237	-0.162
-310.924	187.277	-0.139	-0.208
-309.910	95.221	-0.048	-0.054
-308.895	-200.000	0.027	0.208
-307.880	-45.991	0.161	0.079
-306.866	-50.599	0.219	-0.103
-305.851	541.933	0.053	-0.127
-304.837	28.571	0.164	0.139
-303.822	-74.431	-0.168	0.060
-302.807	-36.051	-0.155	-0.083
-301.793	-200.000	0.025	0.125
-300.778	-200.000	0.003	-0.039
-299.764	-42.145	0.258	0.132
-298.749	-200.000	-0.055	0.325
-297.735	-23.008	-0.223	-0.134
-296.720	187.122	0.092	0.137
-295.705	-158.687	-0.386	0.022
-294.691	77.881	0.057	0.060
-293.676	11.857	-0.008	0.006
-292.662	-121.929	-0.163	0.027
-291.647	297.605	-0.064	0.117
-290.632	-112.345	-0.251	-0.050
-289.618	800.000	0.027	-0.102
-288.603	-200.000	-0.036	0.352
-287.589	-141.770	-0.122	0.012
-286.574	-129.309	-0.331	-0.046
-285.559	-123.577	0.114	-0.018
-284.545	-52.718	-0.023	0.011
-283.530	47.832	0.179	0.167
-282.516	-200.000	0.029	0.379
-281.501	186.813	-0.089	-0.132
-280.486	800.000	-0.042	-0.130
-279.472	-200.000	0.004	0.024
-278.457	135.536	-0.143	-0.185
-277.443	-118.809	0.201	0.035
-276.428	567.174	0.104	-0.252
-275.413	-86.173	-0.278	-0.086
-274.399	-31.782	-0.257	0.144
-273.384	-200.000	0.022	0.131
-272.370	800.000	0.091	0.269
-271.355	-81.075	-0.367	0.121
-270.340	-69.967	-0.221	0.084
-269.326	-51.401	0.194	-0.090
-268.311	237.578	-0.059	-0.097
-267.297	-102.540	0.227	-0.054
-266.282	-200.000	0.013	-0.081
-265.267	10.914	-0.237	-0.180
-264.253	-18.188	-0.207	-0.129
-263.238	24.950	0.239	0.198
-262.224	85.926	0.163	0.179
-261.209	-46.146	-0.347	-0.170
-260.195	800.000	-0.010	0.037
-259.180	179.982	-0.140	0.205
-258.165	592.194	-0.045	-0.111
-257.151	800.000	-0.136	-0.561
-256.136	-44.623	0.166	-0.083
-255.122	40.897	-0.307	0.276
-254.107	207.345	-0.196	0.305
-253.092	-163.658	-0.152	0.007
-252.078	1.697	0.257	0.185
-251.063	181.220	-0.204	-0.299
-250.049	-200.000	-0.059	-0.321
-249.034	213.623	0.074	0.117
-248.019	800.000	-0.035	-0.117
-247.005	-58.663	0.070	-0.030
-245.990	-48.732	0.451	0.216
-244.976	-108.108	0.294	0.064
-243.961	800.000	0.079	-0.337
-242.946	-142.817	0.241	0.023
-241.932	-30.054	-0.208	-0.118
-240.917	21.403	0.290	-0.235
-239.903	-88.211	0.100	0.030
-238.888	-162.119	-0.205	-0.010
-237.873	34.380	-0.053	-0.046
-236.859	-161.613	-0.058	-0.003
-235.844	800.000	0.052	0.143
-234.830	-99.132	0.587	-0.148
-233.815	-146.585	0.331	-0.029
-232.800	186.164	-0.132	-0.195
-231.786	93.455	0.030	0.034
-230.771	-21.781	0.111	0.067
-229.757	92.618	0.206	0.232
-228.742	-41.109	-0.016	0.008
-227.727	102.016	0.032	0.037
-226.713	800.000	0.015	-0.065
-225.698	388.715	0.070	-0.145
-224.684	65.705	-0.213	-0.215
-223.669	-200.000	-0.009	0.528
-222.655	-83.521	0.064	-0.020
-221.640	-42.377	0.098	-0.050
-220.625	800.000	-0.031	-0.102
-219.611	496.041	-0.161	0.369
-218.596	215.436	-0.229	0.361
-217.582	748.356	0.020	-0.055
-216.567	52.810	-0.165	-0.157
-215.552	164.430	0.114	-0.161
-214.538	-112.390	0.137	0.027
-213.523	800.000	0.015	0.051
-212.509	-197.124	0.280	-0.002
-211.494	-118.842	0.379	-0.066
-210.479	-63.074	-0.278	-0.114
-209.465	125.241	-0.072	0.090
-208.450	-200.000	0.030	0.229
-207.436	800.000	-0.043	-0.140
-206.421	-120.457	0.204	0.034
-205.406	-73.294	0.090	0.033
-204.392	-19.543	-0.290	-0.178
-203.377	-200.000	-0.014	-0.064
-202.363	59.632	0.174	-0.171
-201.348	-200.000	0.013	0.428
-200.333	133.275	0.111	0.143
-199.319	-200.000	-0.035	-0.154
-198.304	-44.625	0.236	-0.117
-197.290	-200.000	0.066	-0.374
-196.275	40.076	-0.177	0.158
-195.260	-7.212	0.143	-0.096
-194.246	38.309	0.370	0.328
-193.231	156.640	-0.123	-0.169
-192.217	-200.000	0.018	0.116
-191.202	-78.763	-0.022	0.007
-190.187	-108.267	-0.103	-0.022
-189.173	14.280	0.265	0.205
-188.158	274.104	-0.222	-0.390
-187.144	-77.305	0.038	0.013
-186.129	800.000	0.036	-0.130
-185.114	239.688	-0.056	0.093
-184.100	-117.813	0.439	-0.078
-183.085	-171.988	-0.350	0.011
-182.071	57.580	0.006	-0.006
-181.056	-29.903	0.256	0.145
-180.042	63.955	-0.134	-0.134
-179.027	-145.573	0.057	-0.005
-178.012	150.809	0.172	-0.232
-176.998	101.803	-0.121	0.140
-175.983	214.505	0.085	-0.134
-174.969	-129.945	-0.200	0.027
-173.954	611.085	0.073	0.181
-172.939	304.391	0.070	-0.130
-171.925	-200.000	0.022	-0.280
-170.910	97.243	-0.073	0.083
-169.896	-126.317	-0.084	-0.012
-168.881	-189.648	0.208	-0.002
-167.866	-78.746	-0.291	0.098
-166.852	-73.075	0.423	-0.154
-165.837	-102.714	0.267	0.063
-164.823	409.218	0.134	0.282
-163.808	-108.845	0.278	0.059
-162.793	-71.605	-0.178	-0.066
-161.779	114.970	0.050	0.061
-160.764	800.000	-0.012	0.045
-159.750	800.000	-0.199	-0.553
-158.735	-74.701	0.108	-0.038
-157.720	-139.957	0.123	-0.013
-156.706	800.000	-0.074	0.281
-155.691	-200.000	-0.004	-0.094
-154.677	-129.963	-0.235	0.032
-153.662	-200.000	-0.039	0.254
-152.647	800.000	0.106	-0.370
-151.633	800.000	-0.045	-0.162
-150.618	402.284	0.110	-0.230
-149.604	27.395	0.238	0.198
-148.589	-105.818	0.197	-0.044
-147.574	-200.000	0.063	0.301
-146.560	-38.019	-0.136	-0.072
-145.545	273.467	-0.067	-0.117
-144.531	-200.000	0.005	-0.286
-143.516	-108.057	0.320	-0.069
-142.502	800.000	-0.040	-0.132
-141.487	-64.939	-0.116	0.046
-140.472	-42.721	-0.342	-0.173
-139.458	-133.257	0.089	-0.011
-138.443	-145.330	0.095	0.008
-137.429	-112.700	0.294	-0.058
-136.414	60.398	-0.111	-0.109
-135.399	-35.973	0.124	-0.067
-134.385	-75.812	-0.180	-0.063
-133.370	-135.259	0.366	-0.044
-132.356	-200.000	0.018	0.161
-131.341	800.000	0.051	0.180
-130.326	276.904	-0.155	-0.273
-129.312	-200.000	-0.025	-0.272
-128.297	-55.952	0.230	-0.102
-127.283	99.063	0.156	0.179
-126.268	227.024	0.125	0.201
-125.253	-200.000	0.016	-0.183
-124.239	-200.000	-0.083	-0.453
-123.224	-129.830	-0.119	0.016
-122.210	-19.408	-0.153	-0.094
-121.195	800.000	0.099	-0.292
-120.180	800.000	-0.092	0.273
-119.166	25.925	-0.178	0.147
-118.151	-67.519	-0.241	-0.094
-117.137	-38.429	0.182	-0.095
-116.122	-140.721	-0.132	0.014
-115.107	40.581	0.043	0.039
-114.093	-17.027	0.184	-0.115
-113.078	-78.379	0.226	-0.077
-112.064	65.947	-0.130	-0.131
-111.049	133.297	0.024	-0.031
-110.034	-200.000	-0.048	-0.242
-109.020	25.388	0.202	-0.167
-108.005	142.262	0.200	0.263
-106.991	167.357	-0.179	0.251
-105.976	-71.738	0.094	0.035
-104.962	151.383	0.067	0.090
-103.947	-83.315	0.073	-0.023
-102.932	758.937	0.049	0.132
-101.918	-85.696	0.272	0.084
-100.903	-90.262	-0.289	-0.083
-99.889	793.532	-0.048	0.131
-98.874	85.538	-0.086	0.094
-97.859	-49.904	0.083	-0.039
-96.845	53.848	-0.009	0.008
-95.830	238.058	0.052	0.085
-94.816	234.937	0.051	0.083
-93.801	800.000	-0.046	-0.142
-92.786	-142.956	0.339	-0.033
-91.772	-200.000	-0.050	0.320
-90.757	800.000	-0.079	0.241
-89.743	-14.297	-0.373	0.238
-88.728	73.629	-0.259	0.269
-87.713	186.469	0.022	-0.032
-86.699	-107.294	-0.177	0.039
-85.684	566.987	0.096	-0.230
-84.670	131.541	0.083	-0.106
-83.655	199.183	0.123	0.187
-82.640	42.414	0.140	0.126
-81.626	-200.000	-0.045	-0.390
-80.611	70.064	0.211	0.215
-79.597	75.146	0.214	0.223
-78.582	115.115	-0.116	0.140
-77.567	800.000	-0.102	0.323
-76.553	-44.023	0.144	0.072
-75.538	19.473	0.154	0.123
-74.524	-94.741	0.123	0.033
-73.509	185.427	0.092	-0.135
-72.494	-128.518	-0.250	0.035
-71.480	-56.890	-0.298	-0.130
-70.465	-93.154	0.073	-0.020
-69.451	800.000	-0.047	-0.133
-68.436	215.045	0.081	-0.128
-67.422	-200.000	0.014	0.121
-66.407	21.339	-0.004	0.004
-65.392	296.478	-0.110	0.200
-64.378	-166.726	0.268	0.011
-63.363	35.028	-0.183	0.158
-62.349	-33.146	-0.094	-0.052
-61.334	59.733	-0.893	-0.871
-60.319	396.305	0.211	0.435
-59.305	-200.000	-0.136	-1.087
-58.290	118.270	0.585	0.713
-57.276	630.820	0.511	1.279
-56.261	-200.000	98.519	561.142
-55.246	592.323	1403.575	3427.879
-54.232	182.093	2637.015	3841.520
-53.217	117.114	2222.327	2699.990
-52.203	44.437	1751.651	1590.811
-51.188	37.024	1561.866	1366.406
-50.173	34.655	1534.260	1325.776
-49.159	53.233	1585.621	1501.778
-48.144	56.426	1603.642	1541.323
-47.130	37.408	1558.926	1366.314
-46.115	34.175	1543.356	1330.070
-45.100	34.080	1540.003	1326.466
-44.086	34.063	1538.000	1324.567
-43.071	34.009	1535.770	1322.220
-42.057	33.887	1534.512	1320.240
-41.042	33.981	1533.400	1319.881
-40.027	33.925	1532.229	1318.430
-39.013	33.977	1530.297	1317.074
-37.998	33.883	1529.102	1315.343
-36.984	33.971	1527.981	1314.935
-35.969	33.957	1526.377	1313.406
-34.954	33.968	1525.153	1312.377
-33.940	34.003	1523.580	1311.218
-32.925	33.953	1522.792	1310.140
-31.911	33.933	1520.895	1308.315
-30.896	34.025	1519.657	1307.834
-29.881	33.948	1518.619	1306.358
-28.867	33.967	1516.779	1304.853
-27.852	33.957	1515.608	1303.730
-26.838	34.022	1513.840	1302.603
-25.823	33.981	1511.909	1300.607
-24.809	34.013	1510.486	1299.550
-23.794	34.052	1509.428	1298.856
-22.779	33.890	1508.795	1297.151
-21.765	33.907	1506.974	1295.654
-20.750	34.027	1505.816	1295.422
-19.736	34.023	1504.579	1294.277
-18.721	33.964	1503.765	1293.125
-17.706	33.822	1503.401	1291.797
-16.692	33.875	1501.869	1290.787
-15.677	33.942	1500.828	1290.295
-14.663	33.894	1499.931	1289.149
-13.648	33.834	1498.755	1287.679
-12.633	33.901	1497.867	1287.319
-11.619	34.019	1496.512	1286.903
-10.604	33.961	1495.588	1285.666
-9.590	33.859	1495.291	1284.670
-8.575	33.907	1494.376	1284.153
-7.560	33.942	1493.129	1283.272
-6.546	33.909	1492.229	1282.225
-5.531	33.820	1491.916	1281.303
-4.517	33.819	1490.373	1279.920
-3.502	33.832	1489.618	1279.306
-2.487	33.832	1488.578	1278.363
-1.473	33.845	1487.966	1277.877
-0.458	33.808	1486.528	1276.344
0.556	32.147	1477.424	1266.904
1.571	29.740	1450.752	1227.962
2.586	26.541	1389.745	1155.826
3.600	25.184	1307.166	1078.896
4.615	23.502	1261.064	1030.986
5.629	19.385	1201.578	959.411
6.644	9.081	1110.814	833.605
7.659	1.310	1067.719	762.287
8.673	0.321	1061.703	752.981
9.688	0.081	1058.975	749.787
10.702	-0.055	1057.454	747.964
11.717	-0.046	1055.590	746.628
12.731	3.468	1060.171	767.307
13.746	13.475	1074.101	827.562
14.761	20.482	1083.482	869.921
15.775	21.794	1084.448	877.190
16.790	21.946	1083.853	877.389
17.804	21.919	1083.060	876.539
18.819	21.541	1082.422	874.055
19.834	21.721	1081.377	874.033
20.848	21.846	1081.161	874.405
21.863	21.747	1081.029	873.724
22.877	21.922	1080.325	873.949
23.892	21.801	1079.937	872.957
24.907	21.747	1078.837	871.724
25.921	21.717	1078.360	871.109
26.936	21.850	1077.332	870.862
27.950	21.839	1076.185	869.804
28.965	21.894	1074.394	868.555
29.980	21.587	1073.616	866.330
30.994	21.616	1072.071	865.149
32.009	21.797	1071.211	865.269
33.023	21.914	1070.341	865.069
34.038	21.769	1069.090	863.265
35.053	21.614	1068.952	862.316
36.067	21.861	1068.198	862.849
37.082	21.837	1067.140	861.799
38.096	21.876	1066.576	861.458
39.111	22.035	1065.992	861.691
40.126	22.073	1065.086	861.070
41.140	22.026	1063.933	859.831
42.155	21.666	1062.356	856.718
43.169	21.459	1061.288	854.771
44.184	21.496	1059.982	853.822
45.199	21.538	1059.187	853.313
46.213	21.325	1057.967	851.214
47.228	21.358	1057.008	850.529
48.242	21.561	1056.485	851.019
49.257	21.729	1055.089	850.635
50.271	21.708	1054.440	849.936
51.286	21.691	1054.458	849.795
52.301	21.893	1053.076	849.583
53.315	21.868	1052.436	848.871
54.330	21.864	1051.731	848.206
55.344	21.715	1051.216	846.994
56.359	21.766	1049.785	846.017
57.374	21.898	1049.278	846.169
58.388	21.698	1047.728	843.882
59.403	21.601	1047.261	842.960
60.417	21.581	1046.829	842.443
61.432	21.418	1045.648	840.633
62.447	21.440	1045.251	840.348
63.461	21.647	1044.235	840.448
64.476	21.571	1043.834	839.686
65.490	21.670	1042.282	838.837
66.505	21.544	1041.141	837.244
67.520	21.476	1040.965	836.703
68.534	21.636	1040.024	836.636
69.549	21.628	1038.727	835.481
70.563	21.181	1037.673	832.431
71.578	21.131	1036.879	831.480
72.593	21.240	1035.819	831.074
73.607	21.019	1034.947	829.251
74.622	21.008	1033.541	827.997
75.636	21.366	1033.117	829.287
76.651	21.494	1032.258	829.129
77.666	21.370	1031.924	828.198
78.680	21.334	1030.205	826.579
79.695	21.233	1030.103	825.946
80.709	21.311	1029.726	825.936
81.724	21.495	1028.741	825.942
82.739	21.472	1027.883	825.071
83.753	21.396	1027.243	824.129
84.768	21.615	1026.310	824.337
85.782	21.858	1026.016	825.171
86.797	22.087	1024.878	825.259
87.812	22.056	1024.001	824.336
88.826	21.931	1023.257	823.077
89.841	21.878	1022.451	822.109
90.855	22.020	1021.624	822.034
91.870	22.071	1020.662	821.427
92.884	22.041	1019.523	820.297
93.899	21.891	1018.946	819.061
94.914	21.874	1017.852	818.028
95.928	21.852	1017.233	817.358
96.943	21.807	1016.565	816.537
97.957	21.744	1015.250	815.117
98.972	21.428	1014.373	812.873
99.987	21.269	1012.910	810.887
101.001	21.405	1012.384	811.027
102.016	21.766	1011.628	812.021
103.030	21.738	1010.953	811.281
104.045	21.582	1009.769	809.535
105.060	21.454	1008.455	807.820
106.074	21.265	1007.532	806.138
107.089	21.431	1006.267	805.819
108.103	21.613	1006.864	807.063
109.118	21.934	1005.227	807.159
110.133	21.716	1003.566	804.749
111.147	21.499	1003.352	803.513
112.162	21.588	1001.615	802.457
113.176	21.314	1000.506	800.246
114.191	21.283	999.927	799.568
115.206	21.520	999.164	799.969
116.220	21.156	998.102	797.386
117.235	20.967	997.348	795.853
118.249	21.220	996.148	795.979
119.264	21.209	995.559	795.387
120.279	21.040	994.737	793.890
121.293	21.181	993.825	793.734
122.308	21.246	992.953	793.260
123.322	21.335	992.234	793.018
124.337	21.267	990.793	791.490
125.352	21.158	989.970	790.271
126.366	20.805	988.049	787.069
127.381	20.509	986.557	784.477
128.395	20.997	986.207	786.330
129.410	21.628	985.939	788.890
130.424	21.684	985.504	788.723
131.439	21.824	983.903	788.005
132.454	21.593	983.533	786.601
133.468	21.670	982.303	785.891
134.483	21.701	980.903	784.842
135.497	21.763	980.787	784.957
136.512	21.863	980.258	784.909
137.527	21.944	979.575	784.657
138.541	21.964	978.702	783.976
139.556	22.048	977.868	783.616
140.570	21.952	977.412	782.751
141.585	21.971	976.315	781.887
142.600	21.991	975.840	781.526
143.614	21.863	974.477	779.797
144.629	21.913	974.094	779.645
145.643	22.224	973.230	780.268
146.658	22.042	971.849	778.284
147.673	21.955	970.550	776.789
148.687	21.831	969.467	775.306
149.702	21.697	968.691	774.026
150.716	21.705	967.593	773.111
151.731	21.682	966.464	772.040
152.746	21.739	965.710	771.622
153.760	21.861	965.346	771.801
154.775	22.081	964.157	771.747
155.789	22.280	963.227	771.809
156.804	22.136	962.762	770.735
157.819	21.978	961.785	769.194
158.833	21.914	961.153	768.337
159.848	22.134	960.100	768.393
160.862	22.276	958.916	767.996
161.877	22.180	958.366	767.067
162.892	21.985	957.721	765.636
163.906	22.094	957.014	765.478
164.921	22.050	955.999	764.405
165.935	21.915	954.990	762.945
166.950	21.916	953.777	761.910
167.964	22.044	952.686	761.530
168.979	22.097	951.905	761.064
169.994	21.966	950.585	759.377
171.008	21.960	949.643	758.531
172.023	22.044	949.305	758.558
173.037	22.242	948.165	758.431
174.052	21.919	947.453	756.404
175.067	21.793	946.248	754.831
176.081	21.844	945.368	754.285
177.096	21.995	944.349	754.053
178.110	21.841	943.615	752.737
179.125	21.704	942.612	751.284
180.140	21.562	941.377	749.626
181.154	21.305	941.266	748.370
182.169	21.533	940.722	748.845
183.183	21.812	940.065	749.451
184.198	22.033	939.689	750.027
185.213	22.010	938.828	749.177
186.227	21.893	938.297	748.188
187.242	21.927	938.091	748.101
188.256	22.201	936.559	747.981
189.271	22.008	936.239	746.836
190.286	22.234	935.174	746.882
191.300	22.042	934.140	745.176
192.315	21.472	932.800	741.624
193.329	20.884	931.456	738.001
194.344	20.492	930.352	735.404
195.359	20.962	930.953	737.801
196.373	21.776	931.159	741.344
197.388	21.990	931.206	742.219
198.402	21.816	930.286	740.688
199.417	21.803	929.435	739.890
200.432	21.979	929.065	740.272
201.446	21.752	928.343	738.672
202.461	21.489	927.603	736.913
203.475	21.559	927.429	737.003
204.490	21.152	925.679	733.836
205.504	20.041	923.475	727.364
206.519	20.469	923.007	728.725
207.534	21.354	923.510	732.771
208.548	21.677	922.977	733.636
209.563	21.879	922.834	734.303
210.577	21.932	922.154	733.919
211.592	21.660	921.655	732.319
212.607	22.017	921.344	733.498
213.621	22.083	920.851	733.316
214.636	22.018	920.106	732.387
215.650	22.084	919.660	732.244
216.665	22.000	918.755	731.106
217.680	22.042	918.470	730.992
218.694	22.106	917.992	730.811
219.709	21.928	916.720	728.995
220.723	21.453	915.710	726.158
221.738	21.676	915.482	726.837
222.753	21.929	914.830	727.303
223.767	21.771	914.024	725.945
224.782	22.003	913.031	726.049
225.796	22.076	912.607	725.950
226.811	22.338	911.551	726.128
227.826	21.952	910.404	723.559
228.840	21.022	909.308	718.791
229.855	20.974	908.874	718.189
230.869	21.288	908.416	719.054
231.884	20.881	907.267	716.410
232.899	21.057	906.801	716.699
233.913	21.662	906.917	719.212
234.928	21.878	906.553	719.749
235.942	21.903	905.570	719.008
236.957	22.003	904.877	718.803
237.972	21.618	904.104	716.548
238.986	21.495	903.733	715.690
240.001	21.711	902.732	715.716
241.015	21.752	902.014	715.248
242.030	21.711	901.519	714.628
243.045	21.971	900.822	715.069
244.059	21.958	900.200	714.460
245.074	22.109	900.191	715.004
246.088	22.062	899.299	714.042
247.103	21.593	898.451	711.399
248.117	21.612	897.899	710.979
249.132	22.078	898.035	712.915
250.147	22.641	897.392	714.622
251.161	22.760	896.579	714.393
252.176	22.862	896.351	714.560
253.190	22.842	895.883	714.044
254.205	22.746	895.416	713.222
255.220	22.928	895.123	713.661
256.234	22.940	894.345	713.025
257.249	22.878	893.317	711.893
258.263	22.739	892.847	710.896
259.278	22.781	892.191	710.481
260.293	22.701	892.001	709.943
261.307	22.857	891.322	709.968
262.322	22.757	890.931	709.190
263.336	22.729	889.873	708.172
264.351	22.127	888.611	704.692
265.366	21.092	886.413	698.744
266.380	20.610	885.574	696.092
267.395	21.474	886.140	699.936
268.409	22.302	886.103	703.156
269.424	22.388	885.050	702.599
270.439	22.453	884.740	702.549
271.453	22.551	884.132	702.395
272.468	22.688	883.422	702.318
273.482	22.836	882.983	702.495
274.497	22.778	883.280	702.438
275.512	22.634	881.776	700.608
276.526	22.201	880.215	697.588
277.541	22.364	879.954	697.966
278.555	22.664	879.554	698.773
279.570	22.490	878.923	697.523
280.585	22.095	878.526	695.584
281.599	22.354	877.727	695.912
282.614	22.722	877.091	696.799
283.628	22.153	876.031	693.651
284.643	21.740	875.679	691.683
285.657	22.161	875.354	693.023
286.672	22.044	875.012	692.231
287.687	21.479	873.788	688.977
288.701	21.922	873.248	690.234
289.716	22.311	873.091	691.580
290.730	22.015	872.003	689.493
291.745	21.793	871.595	688.237
292.760	21.713	870.433	686.943
293.774	21.668	869.637	686.081
294.789	22.534	870.628	690.196
295.803	23.221	870.425	692.662
296.818	23.136	869.845	691.808
297.833	23.151	869.541	691.562
298.847	22.960	867.988	689.519
299.862	22.539	867.373	687.331
300.876	22.701	867.044	687.640
301.891	23.091	866.735	688.852
302.906	23.268	865.719	688.672
303.920	22.828	864.741	686.124
304.935	22.549	863.989	684.385
305.949	23.046	863.620	685.961
306.964	23.180	863.118	686.019
307.979	22.897	862.234	684.161
308.993	22.940	861.963	684.050
310.008	23.240	861.830	685.045
311.022	23.390	861.266	685.116
312.037	23.219	860.496	683.785
313.052	23.033	859.555	682.259
314.066	22.917	859.039	681.340
315.081	22.163	857.561	677.202
316.095	21.358	856.709	673.371
317.110	22.009	856.554	675.697
318.125	22.797	856.736	678.811
319.139	22.490	855.613	676.684
320.154	21.438	854.056	671.357
321.168	20.791	853.289	668.210
322.183	21.457	853.547	670.911
323.197	22.445	853.750	674.797
324.212	22.660	853.323	675.226
325.227	22.693	853.361	675.322
326.241	22.904	852.451	675.347
327.256	23.051	851.589	675.164
328.270	22.799	851.087	673.745
329.285	22.748	850.660	673.156
330.300	22.566	849.703	671.645
331.314	22.267	848.679	669.637
332.329	22.336	848.480	669.685
333.343	22.747	848.383	671.111
334.358	23.092	847.921	671.997
335.373	22.957	847.316	670.945
336.387	22.976	846.919	670.643
337.402	23.373	846.050	671.401
338.416	23.510	845.913	671.754
339.431	23.486	845.076	670.938
340.446	23.503	844.369	670.382
341.460	23.693	844.175	670.885
342.475	23.614	843.966	670.361
343.489	23.367	843.188	668.751
344.504	23.287	842.257	667.654
345.519	23.617	842.191	668.784
346.533	23.939	841.467	669.363
347.548	23.861	841.438	668.989
348.562	23.725	841.044	668.103
349.577	23.695	840.225	667.281
350.592	23.762	839.540	666.930
351.606	23.762	839.081	666.507
352.621	23.703	838.644	665.877
353.635	23.713	838.037	665.377
354.650	23.683	837.396	664.695
355.665	23.244	836.637	662.391
356.679	22.225	834.666	656.968
357.694	21.955	834.509	655.778
358.708	22.852	834.421	658.998
359.723	22.652	833.785	657.692
360.738	22.973	833.845	658.877
361.752	23.301	833.811	660.016
362.767	23.439	833.327	660.088
363.781	23.743	833.189	661.052
364.796	23.991	832.720	661.545
365.810	23.993	832.425	661.260
366.825	24.282	831.933	661.883
367.840	24.216	831.575	661.294
368.854	24.031	830.818	659.948
369.869	23.592	829.956	657.580
370.883	23.482	829.272	656.571
371.898	23.573	828.863	656.524
372.913	23.512	827.907	655.486
373.927	23.593	827.278	655.227
374.942	23.538	827.030	654.770
375.956	23.727	826.352	654.870
376.971	23.883	825.803	654.953
377.986	23.750	825.450	654.127
379.000	24.039	825.097	654.850
380.015	24.079	824.404	654.392
381.029	24.068	823.722	653.752
382.044	23.939	823.151	652.766
383.059	24.123	822.600	652.947
384.073	24.093	822.258	652.507
385.088	23.978	821.808	651.672
386.102	24.038	821.542	651.622
387.117	24.012	820.133	650.353
388.132	23.840	820.123	649.657
389.146	23.623	819.445	648.270
390.161	23.106	818.239	645.375
391.175	23.262	818.299	645.932
392.190	23.693	818.220	647.387
393.205	23.772	817.292	646.882
394.219	22.806	815.786	642.122
395.234	21.233	813.301	634.398
396.248	20.380	812.449	630.582
397.263	21.448	813.502	635.224
398.278	23.351	814.552	642.901
399.292	23.734	814.677	644.331
400.307	23.519	813.861	642.851
401.321	23.402	813.712	642.254
402.336	23.583	812.995	642.283
403.350	23.821	813.046	643.130
404.365	24.255	812.470	644.184
405.380	24.411	812.400	644.637
406.394	24.824	812.160	645.881
407.409	24.883	811.849	645.788
408.423	24.767	811.355	644.920
409.438	24.752	810.741	644.321
410.453	24.768	810.456	644.098
411.467	24.716	810.004	643.492
412.482	24.679	809.731	643.085
413.496	24.575	809.201	642.235
414.511	24.738	808.378	642.108
415.526	24.899	808.000	642.329
416.540	24.886	807.664	641.959
417.555	24.877	806.860	641.230
418.569	24.493	806.334	639.381
419.584	24.281	805.970	638.277
420.599	24.548	805.327	638.667
421.613	154.071	1365.139	1794.363
422.628	133.791	1446.707	1794.474
