DTS Sentinel unit serial number:	SN413079Multiplexer serial number:	ORYXHardware model number:	OX4-SRSoftware version number:	ORYX F/W v4.00 Oryx Data Collector v3.7.2.0data status	okinstallation	princeton_trtdifferential loss correction	single-endedforward channel	channel 3reverse channel	N/Adate	2019/09/11time	15:46:11forward acquisition time	60.00reverse acquisition time	0.00gamma	496.2192k internal	0.2290k external	0.2290temperature offset calibration	0.9984default loss term (dB/km)	0.3790temperature slope calibration	1.0000multiplexer offset coefficient	1.0000multiplexer slope coefficient	1.0000fibre end	0.00T internal ref (°C)	42.86T ext. ref 1 (°C)	1.01T ext. ref 2 (°C)	37.85length (m)	temperature (°C)	Stokes	anti-Stokes-747.200	-200.000	-0.077	0.470
-746.185	-200.000	-0.036	0.350
-745.171	800.000	0.054	-0.232
-744.156	140.704	-0.168	0.228
-743.142	-94.200	-0.352	0.099
-742.127	52.407	0.159	0.155
-741.112	-200.000	-0.011	0.397
-740.098	-41.690	-0.222	-0.117
-739.083	-200.000	-0.020	0.096
-738.069	-23.531	-0.129	0.080
-737.054	-139.035	-0.142	-0.016
-736.039	-14.014	0.226	0.150
-735.025	-108.037	0.373	-0.083
-734.010	-124.821	0.040	-0.006
-732.996	-200.000	0.001	0.195
-731.981	-43.614	-0.105	0.054
-730.966	148.956	0.021	0.030
-729.952	-200.000	0.003	0.091
-728.937	147.210	-0.080	0.110
-727.923	-72.763	-0.223	-0.084
-726.908	23.979	0.039	0.033
-725.894	-200.000	0.002	0.111
-724.879	-12.757	0.170	-0.113
-723.864	768.581	0.026	-0.073
-722.850	-200.000	0.002	-0.314
-721.835	81.691	-0.177	-0.196
-720.821	-75.250	0.283	-0.103
-719.806	-36.624	0.268	-0.148
-718.791	-86.597	-0.361	-0.113
-717.777	800.000	0.040	0.119
-716.762	89.832	0.204	0.233
-715.748	56.286	-0.055	0.055
-714.733	-200.000	-0.014	0.202
-713.718	-120.292	0.031	0.005
-712.704	-69.098	0.137	0.054
-711.689	-59.386	-0.129	-0.057
-710.675	800.000	-0.033	0.107
-709.660	-68.223	-0.403	0.161
-708.645	37.919	-0.189	-0.172
-707.631	-5.283	-0.241	0.170
-706.616	77.264	-0.137	0.149
-705.602	129.599	-0.053	0.070
-704.587	286.880	0.133	-0.246
-703.572	-55.256	0.198	-0.091
-702.558	-65.846	0.175	-0.071
-701.543	150.490	0.039	0.054
-700.529	65.618	-0.373	-0.386
-699.514	-39.650	-0.279	0.149
-698.499	324.191	-0.121	0.237
-697.485	800.000	0.077	0.235
-696.470	329.828	-0.262	0.515
-695.456	2.974	-0.197	0.146
-694.441	-98.879	-0.165	-0.043
-693.426	340.608	0.091	0.182
-692.412	9.684	0.185	-0.144
-691.397	31.620	0.011	0.010
-690.383	173.952	0.202	-0.299
-689.368	-11.886	-0.065	-0.044
-688.354	-55.060	0.183	-0.084
-687.339	287.272	-0.079	-0.146
-686.324	14.824	0.264	-0.211
-685.310	-145.917	-0.308	-0.028
-684.295	-200.000	-0.002	0.034
-683.281	289.899	-0.051	0.094
-682.266	68.452	0.147	0.154
-681.251	800.000	0.076	-0.269
-680.237	109.224	0.065	0.080
-679.222	800.000	-0.089	0.356
-678.208	800.000	0.041	0.149
-677.193	-122.292	0.574	-0.096
-676.178	800.000	-0.063	0.221
-675.164	-132.104	-0.306	0.041
-674.149	-72.718	-0.228	-0.086
-673.135	40.252	-0.053	-0.049
-672.120	800.000	0.046	-0.163
-671.105	9.160	0.165	0.127
-670.091	536.052	0.062	-0.150
-669.076	-122.955	-0.360	-0.059
-668.062	800.000	-0.030	0.128
-667.047	-200.000	0.029	-0.318
-666.032	-200.000	-0.001	0.146
-665.018	800.000	-0.050	0.150
-664.003	-200.000	0.011	0.210
-662.989	-135.353	0.083	-0.010
-661.974	-174.643	-0.224	0.006
-660.959	-15.041	-0.262	-0.172
-659.945	270.788	-0.156	-0.280
-658.930	329.096	0.066	-0.129
-657.916	493.673	0.092	-0.216
-656.901	-200.000	-0.024	-0.152
-655.886	-155.758	0.332	-0.022
-654.872	-101.390	0.456	-0.114
-653.857	800.000	0.050	0.151
-652.843	289.214	0.082	-0.152
-651.828	38.675	0.139	0.127
-650.814	-150.315	-0.240	-0.019
-649.799	800.000	0.034	0.101
-648.784	-200.000	0.009	-0.164
-647.770	-116.874	0.304	-0.057
-646.755	-200.000	-0.036	0.214
-645.741	485.485	-0.133	-0.309
-644.726	800.000	-0.058	-0.192
-643.711	-161.009	0.240	0.013
-642.697	-200.000	-0.120	0.584
-641.682	-200.000	0.011	-0.225
-640.668	19.144	0.163	0.133
-639.653	132.501	-0.103	-0.135
-638.638	40.302	-0.132	0.121
-637.624	800.000	-0.064	-0.260
-636.609	63.734	0.126	0.129
-635.595	104.705	-0.246	0.296
-634.580	-69.480	-0.302	-0.118
-633.565	109.057	0.033	0.040
-632.551	432.277	-0.164	-0.362
-631.536	-200.000	0.002	0.048
-630.522	197.277	-0.112	0.174
-629.507	1.545	-0.139	-0.102
-628.492	-75.719	-0.177	-0.064
-627.478	-200.000	-0.003	-0.185
-626.463	-93.637	-0.214	-0.060
-625.449	-116.984	0.293	0.055
-624.434	800.000	-0.045	0.173
-623.419	800.000	-0.090	0.323
-622.405	-200.000	0.008	-0.067
-621.390	546.348	-0.108	-0.263
-620.376	173.692	0.152	0.224
-619.361	-186.243	-0.429	0.006
-618.346	-20.753	0.151	0.095
-617.332	144.020	0.159	0.216
-616.317	134.754	0.031	-0.041
-615.303	46.192	-0.170	-0.160
-614.288	0.034	0.061	0.044
-613.273	689.727	0.046	0.124
-612.259	-200.000	0.026	-0.127
-611.244	242.045	-0.087	0.148
-610.230	21.337	-0.057	0.047
-609.215	76.448	0.096	-0.104
-608.201	474.902	-0.015	-0.034
-607.186	-8.110	0.162	-0.111
-606.171	-22.896	-0.406	0.250
-605.157	800.000	-0.033	0.095
-604.142	17.170	-0.093	-0.075
-603.128	563.193	-0.065	0.160
-602.113	88.340	0.171	-0.194
-601.098	-31.846	0.274	0.157
-600.084	33.849	-0.200	0.178
-599.069	184.617	0.085	-0.128
-598.055	-117.735	-0.017	-0.003
-597.040	800.000	-0.083	0.261
-596.025	800.000	0.102	0.294
-595.011	-85.090	-0.163	0.052
-593.996	-200.000	0.026	0.210
-592.982	189.327	-0.119	0.182
-591.967	800.000	-0.045	0.172
-590.952	577.852	-0.077	-0.191
-589.938	800.000	0.191	-0.595
-588.923	42.121	-0.108	0.100
-587.909	-28.209	-0.204	0.120
-586.894	-41.321	0.282	0.148
-585.879	800.000	-0.066	0.200
-584.865	-70.035	-0.190	-0.074
-583.850	260.958	0.219	-0.385
-582.836	-76.241	-0.478	0.171
-581.821	-34.956	0.072	0.040
-580.806	-200.000	-0.017	-0.080
-579.792	-23.718	-0.048	-0.029
-578.777	710.676	0.088	-0.237
-577.763	290.838	0.114	-0.212
-576.748	151.616	0.065	0.090
-575.733	-57.675	0.006	-0.003
-574.719	762.584	-0.077	-0.214
-573.704	800.000	0.046	-0.138
-572.690	-135.419	-0.213	0.026
-571.675	-68.947	-0.130	0.051
-570.661	-130.270	0.289	0.040
-569.646	375.434	0.114	-0.237
-568.631	-200.000	-0.012	-0.074
-567.617	118.610	-0.178	-0.224
-566.602	59.644	0.074	-0.074
-565.588	68.240	0.092	0.096
-564.573	-21.575	-0.109	-0.068
-563.558	-33.141	-0.208	-0.117
-562.544	-185.013	0.511	-0.008
-561.529	-200.000	0.016	0.147
-560.515	-51.942	-0.330	0.156
-559.500	800.000	-0.164	0.613
-558.485	183.928	-0.117	-0.176
-557.471	-71.283	-0.278	0.106
-556.456	191.856	-0.061	-0.093
-555.442	-200.000	0.042	0.190
-554.427	182.625	-0.050	-0.074
-553.412	-45.964	0.249	-0.125
-552.398	136.345	0.206	-0.273
-551.383	-178.614	0.370	-0.009
-550.369	38.651	0.274	0.249
-549.354	25.176	0.231	0.195
-548.339	-134.289	0.203	-0.025
-547.325	-200.000	0.002	0.284
-546.310	800.000	0.028	-0.116
-545.296	444.788	-0.104	-0.231
-544.281	353.921	0.025	0.051
-543.266	-98.589	-0.194	-0.050
-542.252	800.000	-0.024	0.085
-541.237	72.334	-0.137	-0.145
-540.223	118.679	0.069	0.086
-539.208	154.584	-0.186	0.260
-538.193	-34.940	-0.078	0.044
-537.179	-200.000	-0.020	-0.200
-536.164	-109.028	-0.297	-0.064
-535.150	71.388	0.173	-0.183
-534.135	-200.000	-0.002	0.029
-533.121	10.435	0.230	-0.178
-532.106	490.362	-0.077	-0.180
-531.091	177.778	-0.159	0.235
-530.077	-26.197	0.096	-0.058
-529.062	-200.000	-0.026	-0.266
-528.048	-55.952	0.171	0.077
-527.033	-96.320	0.169	0.045
-526.018	-99.012	-0.214	-0.055
-525.004	86.840	0.149	-0.167
-523.989	-76.059	-0.452	0.162
-522.975	-200.000	0.051	-0.294
-521.960	-85.203	0.012	-0.004
-520.945	-121.419	0.238	-0.040
-519.931	161.986	-0.175	0.249
-518.916	-8.709	0.292	-0.199
-517.902	-17.114	-0.065	0.041
-516.887	-175.624	-0.192	0.005
-515.872	-151.228	-0.245	0.019
-514.858	-200.000	0.010	-0.113
-513.843	-19.442	0.192	-0.121
-512.829	90.902	0.121	-0.138
-511.814	210.942	-0.219	0.350
-510.799	-200.000	-0.039	0.307
-509.785	50.302	0.264	0.253
-508.770	-49.356	-0.313	-0.152
-507.756	-91.418	0.197	-0.057
-506.741	313.149	-0.177	0.338
-505.726	2.362	0.211	0.155
-504.712	116.581	0.081	0.101
-503.697	-117.357	0.316	0.058
-502.683	-166.139	0.112	-0.005
-501.668	-200.000	0.029	-0.174
-500.653	-111.577	-0.084	-0.017
-499.639	800.000	0.040	0.115
-498.624	-34.374	0.098	0.054
-497.610	132.596	0.044	-0.057
-496.595	-81.912	0.138	0.046
-495.581	299.253	0.180	0.336
-494.566	-106.756	-0.146	0.033
-493.551	36.107	0.199	-0.178
-492.537	320.200	-0.136	0.263
-491.522	-200.000	0.003	-0.103
-490.508	-200.000	-0.014	-0.086
-489.493	-97.390	0.268	0.071
-488.478	-200.000	-0.073	-0.340
-487.464	800.000	-0.068	-0.191
-486.449	103.705	0.110	0.131
-485.435	677.916	-0.038	-0.100
-484.420	-200.000	-0.011	-0.234
-483.405	-118.566	0.276	-0.050
-482.391	-70.995	0.216	0.082
-481.376	-127.872	-0.589	-0.086
-480.362	-7.040	-0.098	-0.067
-479.347	257.351	-0.104	-0.181
-478.332	-200.000	0.025	0.153
-477.318	317.506	-0.198	0.380
-476.303	-20.375	0.477	-0.298
-475.289	95.197	-0.200	0.231
-474.274	102.683	-0.121	-0.143
-473.259	-200.000	-0.066	-0.365
-472.245	-200.000	-0.016	-0.243
-471.230	-92.991	-0.183	0.052
-470.216	186.656	-0.048	0.072
-469.201	11.694	0.047	-0.037
-468.186	-200.000	0.019	-0.116
-467.172	-200.000	0.030	-0.230
-466.157	-18.569	-0.127	-0.080
-465.143	57.624	-0.078	0.078
-464.128	66.820	0.033	0.034
-463.113	-156.128	0.239	-0.015
-462.099	-200.000	0.045	0.210
-461.084	-19.002	-0.200	0.126
-460.070	-8.070	0.265	-0.181
-459.055	-57.665	-0.070	-0.031
-458.040	800.000	0.078	-0.304
-457.026	206.495	-0.120	0.189
-456.011	424.676	0.157	0.342
-454.997	-22.835	0.179	0.109
-453.982	127.440	0.106	-0.137
-452.968	262.858	-0.131	0.231
-451.953	-138.376	-0.162	0.018
-450.938	-28.131	0.190	0.112
-449.924	-200.000	-0.069	0.330
-448.909	-200.000	-0.029	-0.381
-447.895	-200.000	0.014	-0.292
-446.880	539.440	0.103	0.249
-445.865	253.122	-0.140	0.241
-444.851	121.375	0.019	0.024
-443.836	-137.582	-0.137	0.016
-442.822	-200.000	-0.013	0.159
-441.807	-200.000	0.055	-0.284
-440.792	547.769	-0.038	-0.093
-439.778	330.405	0.122	-0.238
-438.763	-200.000	0.191	0.000
-437.749	-164.084	-0.138	0.006
-436.734	-200.000	0.042	-0.329
-435.719	-200.000	0.007	0.136
-434.705	800.000	0.106	0.437
-433.690	-3.032	-0.309	0.218
-432.676	-24.614	-0.216	0.130
-431.661	318.163	0.015	0.028
-430.646	85.275	-0.146	-0.163
-429.632	97.362	0.137	0.160
-428.617	74.272	-0.104	-0.111
-427.603	42.727	-0.197	-0.182
-426.588	6.990	0.270	0.204
-425.573	-200.000	-0.030	-0.158
-424.559	-184.168	0.131	0.002
-423.544	-91.934	-0.170	0.049
-422.530	-52.891	-0.272	0.127
-421.515	-144.786	-0.566	0.053
-420.500	-200.000	0.017	-0.301
-419.486	-200.000	-0.014	0.093
-418.471	-100.339	0.304	0.076
-417.457	-86.937	-0.186	-0.057
-416.442	627.599	-0.141	-0.360
-415.428	58.558	-0.279	-0.277
-414.413	-31.360	0.048	-0.027
-413.398	11.349	-0.166	0.128
-412.384	0.339	-0.109	0.079
-411.369	210.849	0.086	-0.136
-410.355	-38.966	0.186	0.099
-409.340	95.346	0.196	-0.226
-408.325	-101.860	-0.146	0.036
-407.311	448.949	-0.116	-0.259
-406.296	118.421	0.018	0.022
-405.282	47.943	-0.113	-0.107
-404.267	-91.175	0.136	-0.039
-403.252	-200.000	0.007	0.225
-402.238	-176.655	0.245	0.006
-401.223	65.454	-0.204	0.209
-400.209	-59.212	0.166	0.072
-399.194	28.951	0.265	-0.227
-398.179	47.803	0.166	-0.157
-397.165	263.747	-0.029	0.050
-396.150	-142.019	-0.145	0.015
-395.136	-84.706	-0.398	0.127
-394.121	-200.000	-0.009	-0.125
-393.106	177.713	0.028	0.041
-392.092	31.359	0.110	-0.096
-391.077	114.106	0.092	0.113
-390.063	-86.783	-0.474	-0.146
-389.048	106.152	-0.162	-0.194
-388.033	800.000	-0.078	-0.257
-387.019	-115.211	0.351	-0.067
-386.004	271.861	0.143	-0.255
-384.990	-200.000	-0.016	0.098
-383.975	800.000	-0.026	0.099
-382.960	800.000	-0.081	-0.285
-381.946	142.012	-0.107	-0.143
-380.931	-156.454	0.128	-0.008
-379.917	-200.000	0.002	-0.061
-378.902	-55.326	0.238	0.108
-377.888	115.226	0.111	-0.137
-376.873	330.354	0.116	0.226
-375.858	422.148	-0.165	0.357
-374.844	-99.500	0.181	0.046
-373.829	57.461	-0.192	-0.190
-372.815	800.000	-0.013	-0.039
-371.800	54.957	0.194	0.189
-370.785	-149.287	0.380	-0.031
-369.771	-165.188	-0.057	-0.003
-368.756	65.361	0.194	-0.198
-367.742	-200.000	-0.051	0.381
-366.727	-200.000	0.015	0.138
-365.712	55.900	0.210	0.205
-364.698	800.000	0.048	-0.157
-363.683	208.419	0.086	0.135
-362.669	430.878	-0.158	0.345
-361.654	56.850	-0.194	0.191
-360.639	-200.000	-0.054	-0.258
-359.625	-140.060	-0.178	0.019
-358.610	800.000	-0.069	-0.265
-357.596	-200.000	0.023	-0.343
-356.581	-200.000	-0.010	0.095
-355.566	800.000	0.058	0.163
-354.552	41.120	0.107	-0.098
-353.537	111.315	0.205	-0.250
-352.523	-34.004	-0.134	0.074
-351.508	-117.340	-0.075	-0.014
-350.493	-30.101	-0.181	0.104
-349.479	-18.420	-0.262	0.165
-348.464	-200.000	0.002	-0.248
-347.450	-63.795	-0.189	0.078
-346.435	-103.274	-0.277	0.066
-345.420	-43.856	0.274	0.139
-344.406	-96.464	-0.149	0.040
-343.391	-111.160	0.238	-0.049
-342.377	222.856	0.103	0.167
-341.362	-200.000	0.040	0.238
-340.348	-42.589	-0.138	0.071
-339.333	54.519	-0.098	-0.095
-338.318	800.000	0.019	-0.069
-337.304	52.796	-0.165	0.159
-336.289	-85.053	-0.221	0.070
-335.275	800.000	0.055	-0.154
-334.260	377.974	0.109	0.226
-333.245	62.865	-0.183	0.185
-332.231	8.914	-0.247	-0.188
-331.216	800.000	0.031	0.101
-330.202	140.849	0.120	-0.160
-329.187	-75.214	-0.330	-0.119
-328.172	320.259	-0.164	0.313
-327.158	-77.685	-0.149	0.052
-326.143	202.524	-0.135	0.210
-325.129	-183.821	-0.129	0.002
-324.114	-145.426	-0.453	-0.041
-323.099	-44.995	-0.288	0.145
-322.085	438.338	0.155	-0.341
-321.070	751.203	0.109	-0.295
-320.056	246.107	-0.098	-0.166
-319.041	-200.000	-0.026	-0.228
-318.026	-137.236	0.133	0.015
-317.012	-89.606	0.175	-0.052
-315.997	12.825	-0.105	-0.081
-314.983	61.405	0.074	-0.075
-313.968	76.209	0.145	0.154
-312.953	-88.228	0.160	-0.048
-311.939	-111.040	-0.298	0.062
-310.924	666.293	-0.027	0.071
-309.910	-200.000	0.045	-0.320
-308.895	115.724	0.024	-0.030
-307.880	125.990	0.109	-0.138
-306.866	-57.746	0.331	-0.146
-305.851	-200.000	-0.033	0.153
-304.837	-124.492	0.318	-0.050
-303.822	720.791	-0.069	0.184
-302.807	-200.000	-0.051	0.453
-301.793	-200.000	-0.007	0.184
-300.778	35.335	0.093	0.082
-299.764	135.540	-0.113	0.148
-298.749	69.747	-0.119	-0.123
-297.735	27.123	-0.262	-0.222
-296.720	-62.701	0.187	-0.078
-295.705	-200.000	-0.033	0.261
-294.691	-200.000	-0.059	-0.310
-293.676	-145.219	0.209	-0.019
-292.662	215.913	-0.108	-0.172
-291.647	-174.894	-0.186	0.005
-290.632	-200.000	-0.030	0.205
-289.618	-200.000	-0.027	0.196
-288.603	-58.162	0.329	0.144
-287.589	59.552	-0.062	-0.062
-286.574	308.447	0.073	0.137
-285.559	-37.774	0.083	0.044
-284.545	-96.637	0.187	-0.050
-283.530	-200.000	0.027	-0.441
-282.516	-130.479	0.096	0.013
-281.501	-117.691	-0.089	-0.016
-280.486	-18.320	-0.220	-0.139
-279.472	601.486	0.073	-0.181
-278.457	-150.085	-0.252	0.020
-277.443	131.561	-0.189	0.244
-276.428	55.590	-0.156	0.152
-275.413	800.000	-0.016	0.069
-274.399	800.000	0.079	-0.275
-273.384	129.367	-0.030	-0.038
-272.370	-29.709	0.354	-0.203
-271.355	800.000	0.057	-0.202
-270.340	284.730	-0.177	0.320
-269.326	220.459	0.040	-0.064
-268.311	-200.000	-0.042	-0.278
-267.297	65.522	0.034	0.035
-266.282	457.046	0.044	-0.099
-265.267	-135.040	0.162	-0.020
-264.253	-200.000	-0.018	0.160
-263.238	-142.191	0.081	0.008
-262.224	161.772	-0.286	0.403
-261.209	-82.703	-0.463	-0.151
-260.195	-200.000	-0.063	-0.435
-259.180	-139.957	0.151	0.016
-258.165	-51.514	0.097	-0.046
-257.151	-72.332	0.084	-0.031
-256.136	-3.254	0.150	-0.105
-255.122	60.072	-0.072	-0.072
-254.107	-53.114	-0.191	-0.088
-253.092	492.215	-0.074	0.172
-252.078	-200.000	-0.019	-0.131
-251.063	500.481	0.086	0.199
-250.049	-200.000	0.004	0.046
-249.034	311.810	0.087	-0.164
-248.019	-198.864	0.290	0.002
-247.005	34.067	0.187	-0.164
-245.990	58.851	-0.043	-0.042
-244.976	-99.325	-0.279	-0.071
-243.961	-68.273	-0.199	0.078
-242.946	196.332	-0.191	-0.292
-241.932	1.776	0.246	0.178
-240.917	-166.254	0.306	0.013
-239.903	-84.315	-0.284	0.090
-238.888	335.826	0.073	0.142
-237.873	211.617	0.063	0.099
-236.859	-108.098	-0.253	-0.055
-235.844	-200.000	0.003	-0.057
-234.830	53.672	-0.050	-0.049
-233.815	-33.501	-0.155	0.086
-232.800	59.753	0.150	0.148
-231.786	145.010	-0.123	0.165
-230.771	-126.884	0.261	-0.039
-229.757	-200.000	-0.012	-0.192
-228.742	227.500	0.103	0.169
-227.727	205.258	0.178	0.277
-226.713	800.000	0.093	-0.370
-225.698	-200.000	-0.065	-0.552
-224.684	-200.000	-0.031	-0.204
-223.669	-15.100	-0.215	0.139
-222.655	-200.000	-0.022	0.121
-221.640	-20.616	0.399	-0.246
-220.625	-200.000	0.038	0.245
-219.611	-93.144	0.100	-0.028
-218.596	-108.294	0.158	0.034
-217.582	227.707	0.032	0.053
-216.567	-200.000	0.012	0.294
-215.552	-16.555	0.056	-0.036
-214.538	72.296	-0.117	0.122
-213.523	-110.065	-0.228	-0.048
-212.509	-44.390	0.318	0.160
-211.494	-137.840	0.234	-0.026
-210.479	-116.499	0.531	0.098
-209.465	142.543	-0.030	0.040
-208.450	-125.949	0.085	-0.013
-207.436	-114.416	0.089	0.017
-206.421	-108.691	0.106	0.023
-205.406	589.587	0.066	0.163
-204.392	197.866	-0.052	-0.080
-203.377	-74.863	0.008	-0.003
-202.363	800.000	0.025	0.073
-201.348	6.557	-0.280	0.208
-200.333	48.147	0.263	0.247
-199.319	-67.070	-0.351	0.139
-198.304	180.642	-0.134	0.197
-197.290	-101.493	0.290	-0.071
-196.275	-200.000	-0.024	-0.159
-195.260	-200.000	0.032	-0.190
-194.246	473.162	0.101	-0.228
-193.231	-43.966	-0.065	-0.033
-192.217	-39.496	0.296	0.156
-191.202	61.484	-0.194	-0.194
-190.187	57.083	-0.121	-0.118
-189.173	103.158	0.214	0.252
-188.158	-174.109	0.382	0.011
-187.144	-57.377	-0.133	-0.058
-186.129	-200.000	-0.014	-0.311
-185.114	534.307	-0.013	-0.032
-184.100	-200.000	-0.004	0.047
-183.085	419.699	0.086	-0.184
-182.071	596.465	0.055	-0.136
-181.056	152.686	0.121	0.165
-180.042	-200.000	-0.029	0.167
-179.027	-200.000	-0.020	-0.177
-178.012	86.704	0.028	-0.031
-176.998	-200.000	-0.033	-0.467
-175.983	502.407	-0.093	-0.214
-174.969	11.845	-0.300	-0.231
-173.954	26.132	0.323	0.271
-172.939	242.474	-0.212	0.355
-171.925	-127.076	0.392	-0.058
-170.910	-18.169	0.136	-0.085
-169.896	-115.133	0.273	0.052
-168.881	344.122	-0.053	0.104
-167.866	-200.000	0.027	0.149
-166.852	800.000	0.079	-0.246
-165.837	-73.352	-0.111	0.041
-164.823	508.011	-0.078	0.183
-163.808	-200.000	-0.051	0.422
-162.793	249.450	0.167	-0.283
-161.779	245.640	0.137	-0.231
-160.764	-200.000	-0.022	0.243
-159.750	-200.000	0.011	0.189
-158.735	-81.586	0.113	-0.037
-157.720	284.569	0.113	0.204
-156.706	-150.821	0.206	0.016
-155.691	-97.101	0.211	0.055
-154.677	169.054	0.158	0.225
-153.662	9.712	-0.135	0.103
-152.647	149.174	0.265	0.359
-151.633	-99.392	-0.231	-0.058
-150.618	-67.854	-0.032	-0.013
-149.604	-200.000	0.007	-0.035
-148.589	800.000	0.086	0.323
-147.574	800.000	-0.096	0.333
-146.560	800.000	0.062	0.179
-145.545	63.603	0.219	0.220
-144.531	-200.000	-0.057	0.395
-143.516	-200.000	-0.015	-0.449
-142.502	-33.667	-0.278	-0.153
-141.487	16.109	0.129	0.102
-140.472	44.111	-0.108	0.099
-139.458	36.470	-0.418	-0.369
-138.443	71.465	0.102	-0.106
-137.429	-200.000	-0.017	-0.188
-136.414	-200.000	0.024	0.188
-135.399	-37.679	0.226	-0.121
-134.385	82.122	-0.017	-0.018
-133.370	-15.279	-0.214	-0.137
-132.356	-169.160	-0.043	0.002
-131.341	-18.518	-0.334	0.208
-130.326	134.391	0.185	0.240
-129.312	-190.436	-0.129	-0.001
-128.297	-104.460	-0.185	-0.043
-127.283	800.000	-0.052	0.187
-126.268	-181.043	-0.235	0.005
-125.253	373.883	0.058	0.117
-124.239	103.838	0.122	0.143
-123.224	-128.835	-0.335	0.047
-122.210	78.712	-0.128	0.137
-121.195	625.482	-0.056	0.142
-120.180	467.084	-0.143	-0.320
-119.166	800.000	0.011	0.040
-118.151	-38.085	0.296	0.157
-117.137	-163.047	0.277	-0.013
-116.122	-200.000	0.019	-0.189
-115.107	12.456	0.273	0.211
-114.093	-200.000	0.144	-0.001
-113.078	-200.000	-0.042	-0.271
-112.064	212.384	0.008	0.012
-111.049	224.571	0.119	0.192
-110.034	-98.557	0.236	0.060
-109.020	-200.000	0.097	0.458
-108.005	49.071	-0.047	-0.044
-106.991	228.406	0.163	-0.265
-105.976	-100.422	-0.215	-0.053
-104.962	64.682	-0.054	0.055
-103.947	-69.994	0.371	-0.141
-102.932	-127.309	-0.201	-0.029
-101.918	-36.193	0.287	-0.155
-100.903	800.000	-0.093	-0.315
-99.889	242.836	0.139	-0.233
-98.874	800.000	0.042	0.139
-97.859	-70.148	-0.278	-0.106
-96.845	-128.919	-0.094	-0.013
-95.830	-200.000	-0.049	0.258
-94.816	800.000	0.069	0.210
-93.801	499.296	0.055	0.127
-92.786	-38.181	0.376	-0.199
-91.772	774.603	-0.028	0.077
-90.757	-200.000	0.039	0.186
-89.743	-3.940	-0.176	0.122
-88.728	82.381	-0.133	0.144
-87.713	565.379	0.118	0.285
-86.699	249.109	-0.104	-0.176
-85.684	133.381	-0.061	0.079
-84.670	30.610	-0.121	0.103
-83.655	-123.698	-0.231	-0.036
-82.640	-64.308	0.077	0.031
-81.626	-200.000	0.013	0.187
-80.611	-23.727	-0.168	-0.101
-79.597	-45.462	-0.305	-0.151
-78.582	-126.252	-0.077	0.011
-77.567	20.134	0.459	0.370
-76.553	-67.262	-0.125	0.049
-75.538	-200.000	-0.055	0.361
-74.524	55.085	-0.175	0.169
-73.509	133.096	0.236	-0.304
-72.494	220.938	0.095	-0.152
-71.480	568.867	0.072	-0.174
-70.465	-62.947	0.429	-0.177
-69.451	-99.643	0.205	-0.051
-68.436	-120.811	-0.394	-0.066
-67.422	22.531	0.181	-0.148
-66.407	2.398	-0.219	-0.158
-65.392	174.968	-0.068	0.098
-64.378	-200.000	-0.034	0.154
-63.363	73.441	0.330	-0.345
-62.349	115.167	-0.152	-0.185
-61.334	1.760	-0.831	-0.598
-60.319	-107.359	0.207	-0.045
-59.305	-200.000	0.054	-0.839
-58.290	-200.000	-0.042	0.523
-57.276	647.046	0.590	1.503
-56.261	-200.000	75.298	541.875
-55.246	578.023	1299.801	3171.070
-54.232	147.143	2521.551	3383.885
-53.217	121.461	2239.860	2783.437
-52.203	54.392	1757.940	1688.573
-51.188	46.667	1552.320	1437.434
-50.173	43.648	1522.348	1388.936
-49.159	59.087	1558.172	1528.896
-48.144	65.898	1577.058	1594.498
-47.130	46.867	1540.868	1427.985
-46.115	43.139	1526.195	1388.718
-45.100	42.970	1522.692	1384.318
-44.086	42.976	1520.837	1382.619
-43.071	42.848	1519.101	1380.105
-42.057	42.796	1517.114	1377.887
-41.042	42.765	1515.929	1376.548
-40.027	42.788	1514.366	1375.231
-39.013	42.805	1513.130	1374.165
-37.998	42.809	1511.904	1373.027
-36.984	42.945	1510.408	1372.542
-35.969	42.936	1509.139	1371.270
-34.954	42.953	1507.921	1370.230
-33.940	42.906	1506.288	1368.369
-32.925	42.921	1504.628	1366.906
-31.911	42.892	1503.401	1365.544
-30.896	42.993	1501.846	1364.757
-29.881	42.890	1501.114	1363.341
-28.867	42.918	1499.648	1362.147
-27.852	42.911	1498.843	1361.315
-26.838	42.932	1496.830	1359.578
-25.823	42.889	1495.025	1357.593
-24.809	42.911	1492.820	1355.685
-23.794	42.898	1491.573	1354.411
-22.779	42.818	1490.894	1353.202
-21.765	42.879	1489.527	1352.318
-20.750	42.888	1488.772	1351.636
-19.736	42.839	1487.097	1349.735
-18.721	42.910	1485.664	1348.859
-17.706	42.779	1484.618	1346.974
-16.692	42.833	1483.366	1346.145
-15.677	42.867	1482.689	1345.704
-14.663	42.872	1481.402	1344.521
-13.648	42.830	1480.506	1343.374
-12.633	42.831	1479.348	1342.274
-11.619	42.807	1478.593	1341.376
-10.604	42.858	1478.059	1341.181
-9.590	42.829	1476.982	1339.956
-8.575	42.766	1476.305	1338.871
-7.560	42.792	1475.435	1338.203
-6.546	42.757	1474.936	1337.460
-5.531	42.808	1473.813	1336.727
-4.517	42.811	1472.419	1335.429
-3.502	42.843	1471.811	1335.042
-2.487	42.738	1470.947	1333.504
-1.473	42.875	1469.322	1332.890
-0.458	42.844	1468.308	1331.708
0.556	42.048	1459.360	1322.417
1.571	39.583	1432.337	1281.813
2.586	36.048	1370.628	1204.430
3.600	34.172	1288.098	1120.771
4.615	32.258	1239.955	1067.928
5.629	26.893	1180.733	987.713
6.644	13.608	1086.627	841.872
7.659	2.890	1037.725	751.674
8.673	1.337	1031.038	739.207
9.688	1.002	1028.257	735.525
10.702	0.823	1027.193	733.826
11.717	0.890	1025.165	732.637
12.731	5.109	1030.791	757.097
13.746	16.612	1047.361	825.631
14.761	23.795	1055.582	867.226
15.775	23.553	1054.818	865.341
16.790	23.493	1054.034	864.330
17.804	23.341	1053.289	862.904
18.819	23.156	1052.174	861.009
19.834	23.213	1051.594	860.739
20.848	23.293	1051.164	860.699
21.863	23.274	1051.064	860.447
22.877	23.377	1050.081	860.070
23.892	23.338	1049.615	859.421
24.907	23.247	1048.638	858.102
25.921	23.265	1048.073	857.653
26.936	23.195	1047.449	856.727
27.950	23.285	1046.186	856.054
28.965	23.214	1044.925	854.602
29.980	23.027	1043.521	852.476
30.994	23.083	1042.211	851.603
32.009	23.241	1041.883	852.020
33.023	23.405	1041.046	852.047
34.038	23.245	1039.878	850.245
35.053	23.115	1039.146	848.952
36.067	23.213	1038.705	848.985
37.082	23.269	1037.581	848.261
38.096	23.212	1037.379	847.746
39.111	23.489	1036.005	847.873
40.126	23.575	1035.031	847.410
41.140	23.538	1033.917	846.249
42.155	23.080	1033.199	843.399
43.169	22.848	1031.849	841.119
44.184	22.816	1030.635	839.905
45.199	23.000	1029.710	839.949
46.213	22.836	1028.499	838.108
47.228	22.831	1027.898	837.522
48.242	23.012	1026.917	837.504
49.257	23.226	1026.148	837.817
50.271	23.142	1025.447	836.773
51.286	23.262	1024.839	836.771
52.301	23.427	1024.078	836.854
53.315	23.265	1023.570	835.603
54.330	23.429	1022.555	835.469
55.344	23.172	1021.927	833.674
56.359	23.205	1021.068	833.057
57.374	23.191	1020.302	832.290
58.388	23.039	1019.281	830.669
59.403	22.870	1018.544	829.202
60.417	22.974	1017.706	828.934
61.432	22.939	1016.683	827.864
62.447	22.854	1016.442	827.196
63.461	23.017	1015.783	827.352
64.476	23.023	1014.878	826.567
65.490	22.975	1014.170	825.694
66.505	22.953	1013.275	824.791
67.520	22.871	1012.551	823.742
68.534	23.042	1011.878	823.920
69.549	22.971	1010.478	822.380
70.563	22.561	1009.415	819.532
71.578	22.492	1008.518	818.412
72.593	22.492	1007.906	817.844
73.607	22.400	1006.814	816.459
74.622	22.604	1005.578	816.329
75.636	22.629	1005.192	816.059
76.651	22.809	1004.351	816.137
77.666	22.612	1003.855	814.748
78.680	22.725	1002.234	813.884
79.695	22.662	1001.773	813.147
80.709	22.791	1001.174	813.181
81.724	22.885	1000.785	813.228
82.739	22.974	999.834	812.795
83.753	22.889	999.042	811.687
84.768	23.101	998.635	812.257
85.782	23.407	997.912	813.003
86.797	23.562	997.282	813.127
87.812	23.553	996.378	812.278
88.826	23.416	995.567	810.916
89.841	23.442	994.283	809.918
90.855	23.475	993.879	809.670
91.870	23.485	993.116	809.020
92.884	23.394	992.336	807.898
93.899	23.517	990.914	807.229
94.914	23.278	990.157	805.453
95.928	23.368	989.768	805.477
96.943	23.417	988.843	804.873
97.957	23.181	987.557	802.687
98.972	22.974	986.656	800.943
99.987	22.769	985.526	799.026
101.001	22.857	984.776	798.746
102.016	23.125	984.492	799.656
103.030	23.238	983.475	799.271
104.045	23.087	982.565	797.781
105.060	23.025	981.354	796.447
106.074	22.859	979.925	794.469
107.089	22.908	979.460	794.242
108.103	23.243	979.242	795.501
109.118	23.248	978.200	794.606
110.133	23.046	976.785	792.482
111.147	23.019	976.089	791.727
112.162	22.942	974.742	790.218
113.176	22.712	973.433	788.061
114.191	22.930	972.772	788.430
115.206	22.910	972.173	787.785
116.220	22.663	971.031	785.692
117.235	22.426	970.116	783.824
118.249	22.639	969.315	784.053
119.264	22.708	968.358	783.519
120.279	22.522	967.585	782.000
121.293	22.666	966.678	781.835
122.308	22.582	966.746	781.449
123.322	22.829	965.476	781.448
124.337	22.665	964.592	779.934
125.352	22.424	963.236	777.704
126.366	22.277	961.418	775.523
127.381	21.817	960.101	772.367
128.395	22.400	959.763	774.590
129.410	23.024	959.891	777.371
130.424	23.184	958.849	777.160
131.439	23.219	958.098	776.636
132.454	23.175	957.139	775.599
133.468	23.045	956.487	774.433
134.483	23.174	955.512	774.135
135.497	23.247	954.710	773.736
136.512	23.392	953.978	773.710
137.527	23.579	953.582	774.135
138.541	23.478	952.583	772.817
139.556	23.459	951.876	772.090
140.570	23.474	950.942	771.330
141.585	23.564	950.320	771.147
142.600	23.700	949.188	770.752
143.614	23.514	948.488	769.310
144.629	23.587	947.623	768.855
145.643	23.763	947.396	769.365
146.658	23.661	946.167	767.858
147.673	23.522	944.985	766.233
148.687	23.265	944.048	764.293
149.702	23.195	943.288	763.312
150.716	23.284	941.549	762.219
151.731	23.085	940.776	760.667
152.746	23.085	940.454	760.341
153.760	23.416	939.457	760.892
154.775	23.609	938.820	761.132
155.789	23.653	938.024	760.610
156.804	23.523	937.077	759.220
157.819	23.486	935.607	757.804
158.833	23.515	935.333	757.636
159.848	23.640	934.599	757.508
160.862	23.557	934.192	756.758
161.877	23.541	933.238	755.849
162.892	23.292	932.280	753.947
163.906	23.470	931.332	753.872
164.921	23.424	930.408	752.861
165.935	23.460	928.966	751.782
166.950	23.520	928.073	751.244
167.964	23.587	927.323	750.856
168.979	23.463	926.370	749.492
169.994	23.499	925.054	748.513
171.008	23.170	924.357	746.495
172.023	23.421	923.501	746.795
173.037	23.592	922.926	746.987
174.052	23.434	921.909	745.431
175.067	23.163	920.991	743.485
176.081	23.146	919.970	742.523
177.096	23.249	919.451	742.469
178.110	23.301	918.690	742.010
179.125	23.070	917.671	740.154
180.140	22.879	916.750	738.547
181.154	22.894	915.860	737.828
182.169	22.947	915.761	737.904
183.183	23.176	915.054	738.224
184.198	23.475	914.695	739.116
185.213	23.364	914.176	738.168
186.227	23.260	913.466	737.094
187.242	23.448	912.970	737.414
188.256	23.416	912.237	736.624
189.271	23.348	911.689	735.833
190.286	23.519	910.608	735.604
191.300	23.381	909.557	734.120
192.315	22.972	908.232	731.293
193.329	22.031	907.049	726.386
194.344	21.723	905.999	724.205
195.359	22.344	905.867	726.604
196.373	23.113	906.303	730.062
197.388	23.461	906.000	731.189
198.402	23.316	905.537	730.154
199.417	23.319	904.833	729.534
200.432	23.258	904.634	729.057
201.446	23.312	903.331	728.167
202.461	23.016	902.634	726.323
203.475	23.031	902.268	726.026
204.490	22.682	901.018	723.524
205.504	21.548	898.906	717.118
206.519	21.765	898.768	717.834
207.534	22.748	899.435	722.331
208.548	22.962	898.895	722.710
209.563	23.234	898.642	723.553
210.577	23.436	897.549	723.435
211.592	23.037	896.648	721.016
212.607	23.457	896.580	722.611
213.621	23.599	896.112	722.747
214.636	23.446	895.439	721.518
215.650	23.584	895.116	721.757
216.665	23.570	894.053	720.778
217.680	23.451	893.430	719.727
218.694	23.656	893.284	720.380
219.709	23.448	892.070	718.494
220.723	22.849	891.530	715.568
221.738	23.261	890.925	716.687
222.753	23.421	890.226	716.707
223.767	23.310	889.978	715.998
224.782	23.450	889.047	715.750
225.796	23.584	888.386	715.694
226.811	23.590	888.067	715.397
227.826	23.257	887.033	713.161
228.840	22.601	885.357	709.114
229.855	22.432	884.536	707.712
230.869	22.738	884.324	708.711
231.884	22.490	882.980	706.576
232.899	22.287	883.012	705.723
233.913	23.080	883.309	709.079
234.928	23.296	882.928	709.576
235.942	23.298	882.153	708.899
236.957	23.222	881.510	708.017
237.972	23.063	880.389	706.417
238.986	22.871	879.305	704.719
240.001	23.106	879.082	705.417
241.015	22.982	878.608	704.480
242.030	23.224	877.473	704.469
243.045	23.372	877.330	704.883
244.059	23.252	877.195	704.231
245.074	23.410	876.325	704.101
246.088	23.374	876.026	703.653
247.103	23.162	874.611	701.616
248.117	23.133	874.305	701.191
249.132	23.645	874.101	702.995
250.147	23.985	874.039	704.231
251.161	24.115	873.350	704.126
252.176	24.214	872.908	704.098
253.190	24.344	872.217	703.994
254.205	24.263	871.838	703.306
255.220	24.481	871.471	703.806
256.234	24.411	870.928	703.031
257.249	24.216	870.512	701.865
258.263	24.295	869.146	701.009
259.278	24.237	868.828	700.463
260.293	24.099	868.784	699.822
261.307	24.285	868.535	700.293
262.322	24.314	867.236	699.295
263.336	24.017	866.999	697.879
264.351	23.727	865.411	695.405
265.366	22.711	863.310	689.683
266.380	22.238	862.474	687.109
267.395	22.784	863.185	689.748
268.409	23.840	862.943	693.618
269.424	23.808	862.434	693.019
270.439	23.837	861.689	692.472
271.453	24.026	861.432	692.941
272.468	24.006	860.642	692.168
273.482	24.194	859.829	692.184
274.497	24.443	859.392	692.735
275.512	24.239	858.861	691.456
276.526	23.660	857.322	687.911
277.541	23.689	856.955	687.669
278.555	24.168	856.801	689.339
279.570	23.868	856.521	687.894
280.585	23.796	855.494	686.728
281.599	23.811	855.175	686.469
282.614	24.065	854.433	686.792
283.628	23.526	853.527	683.928
284.643	23.240	852.528	681.966
285.657	23.561	852.630	683.220
286.672	23.513	852.106	682.558
287.687	22.967	850.983	679.499
288.701	23.295	850.874	680.612
289.716	23.821	850.462	682.243
290.730	23.436	849.740	680.126
291.745	23.239	849.001	678.718
292.760	23.357	847.666	678.042
293.774	23.201	847.205	677.015
294.789	23.843	848.263	680.260
295.803	24.479	848.059	682.470
296.818	24.615	847.663	682.610
297.833	24.717	847.348	682.685
298.847	24.541	845.823	680.724
299.862	24.114	844.990	678.368
300.876	24.341	844.542	678.813
301.891	24.659	844.467	679.902
302.906	24.750	843.515	679.422
303.920	24.286	842.545	676.818
304.935	24.128	841.936	675.670
305.949	24.447	842.101	676.954
306.964	24.481	841.577	676.600
307.979	24.302	840.644	675.115
308.993	24.178	840.128	674.171
310.008	24.773	839.647	675.974
311.022	24.811	839.650	676.059
312.037	24.548	839.077	674.546
313.052	24.299	838.583	673.149
314.066	24.286	837.693	672.327
315.081	23.512	836.076	668.054
316.095	22.889	834.620	664.489
317.110	23.354	835.131	666.586
318.125	24.255	834.897	669.727
319.139	23.958	834.404	668.159
320.154	22.853	832.774	662.650
321.168	22.261	831.628	659.460
322.183	22.912	831.465	661.709
323.197	23.802	832.096	665.490
324.212	24.053	831.761	666.102
325.227	24.142	831.700	666.327
326.241	24.336	831.419	666.767
327.256	24.425	830.337	666.173
328.270	24.248	829.804	665.027
329.285	24.037	829.408	663.864
330.300	24.014	828.344	662.869
331.314	23.782	827.555	661.316
332.329	23.821	827.264	661.169
333.343	24.369	826.723	662.715
334.358	24.625	826.561	663.478
335.373	24.660	825.817	662.951
336.387	24.570	825.106	661.987
337.402	24.818	824.919	662.697
338.416	24.933	825.039	663.160
339.431	24.972	823.823	662.267
340.446	25.092	823.293	662.230
341.460	25.164	822.936	662.148
342.475	25.240	822.525	662.040
343.489	24.897	821.828	660.154
344.504	24.690	821.798	659.310
345.519	25.054	821.107	660.039
346.533	25.309	820.693	660.584
347.548	25.294	820.564	660.367
348.562	25.353	819.922	660.008
349.577	25.421	819.240	659.651
350.592	25.322	818.670	658.771
351.606	25.237	818.172	658.000
352.621	25.176	817.694	657.333
353.635	25.109	816.966	656.443
354.650	25.059	816.563	655.882
355.665	24.869	815.253	654.077
356.679	23.733	813.835	648.732
357.694	23.570	813.273	647.635
358.708	24.371	813.627	650.782
359.723	24.144	813.092	649.467
360.738	24.330	812.757	649.821
361.752	24.943	812.637	651.901
362.767	24.988	812.302	651.738
363.781	25.284	812.172	652.653
364.796	25.442	812.118	653.123
365.810	25.564	811.722	653.191
366.825	25.660	811.160	653.032
367.840	25.752	810.768	652.989
368.854	25.411	810.050	651.119
369.869	25.113	809.372	649.436
370.883	24.741	808.724	647.514
371.898	24.867	808.182	647.478
372.913	24.972	806.963	646.822
373.927	24.900	806.845	646.409
374.942	25.003	806.230	646.234
375.956	25.176	805.885	646.523
376.971	25.339	805.074	646.400
377.986	25.411	804.388	646.051
379.000	25.629	804.285	646.697
380.015	25.603	803.571	645.972
381.029	25.514	803.247	645.333
382.044	25.325	802.691	644.154
383.059	25.643	801.983	644.667
384.073	25.637	801.794	644.437
385.088	25.677	801.255	644.091
386.102	25.528	800.852	643.177
387.117	25.371	799.953	641.835
388.132	25.314	799.167	640.945
389.146	25.336	798.443	640.384
390.161	24.605	797.758	637.175
391.175	24.679	797.692	637.328
392.190	25.147	797.709	638.954
393.205	25.301	797.124	638.978
394.219	24.324	795.213	633.917
395.234	22.891	792.866	626.910
396.248	21.942	792.172	622.936
397.263	22.837	793.119	626.806
398.278	24.739	794.092	634.273
399.292	25.171	794.083	635.741
400.307	25.023	793.254	634.495
401.321	24.936	792.993	633.922
402.336	24.853	793.109	633.667
403.350	25.172	792.480	634.237
404.365	25.627	792.784	636.033
405.380	25.867	792.438	636.548
406.394	26.079	792.389	637.199
407.409	26.321	791.650	637.404
408.423	26.264	791.092	636.697
409.438	26.249	790.577	636.171
410.453	26.329	790.032	635.961
411.467	26.511	789.530	636.139
412.482	26.400	788.917	635.198
413.496	26.290	788.386	634.330
414.511	26.300	788.504	634.404
415.526	26.216	788.276	633.869
416.540	26.296	787.646	633.585
417.555	26.338	787.102	633.240
418.569	26.021	786.383	631.496
419.584	25.862	785.886	630.485
420.599	25.886	785.399	630.122
421.613	88.726	1248.230	1335.776
422.628	75.393	1315.701	1335.913
