DTS Sentinel unit serial number:	SN413079Multiplexer serial number:	ORYXHardware model number:	OX4-SRSoftware version number:	ORYX F/W v4.00 Oryx Data Collector v3.7.2.0data status	okinstallation	princeton_trtdifferential loss correction	single-endedforward channel	channel 3reverse channel	N/Adate	2019/09/12time	05:18:11forward acquisition time	60.00reverse acquisition time	0.00gamma	496.2192k internal	0.2322k external	0.2322temperature offset calibration	1.0032default loss term (dB/km)	0.3790temperature slope calibration	1.0000multiplexer offset coefficient	1.0000multiplexer slope coefficient	1.0000fibre end	0.00T internal ref (°C)	31.87T ext. ref 1 (°C)	1.63T ext. ref 2 (°C)	27.35length (m)	temperature (°C)	Stokes	anti-Stokes-747.200	-66.692	0.267	-0.107
-746.185	74.558	0.069	-0.073
-745.171	-188.410	0.255	0.003
-744.156	-151.326	0.271	0.020
-743.142	51.397	-0.201	0.192
-742.127	25.909	0.249	0.209
-741.112	-20.544	0.332	-0.206
-740.098	-115.610	-0.351	-0.067
-739.083	-65.207	0.479	-0.195
-738.069	-8.349	0.263	0.179
-737.054	608.739	-0.071	0.180
-736.039	-200.000	0.068	-0.442
-735.025	-89.257	-0.294	-0.088
-734.010	-139.707	-0.389	0.042
-732.996	-73.600	-0.172	-0.063
-731.981	29.128	-0.197	0.169
-730.966	291.671	-0.055	0.101
-729.952	-118.678	-0.283	-0.050
-728.937	112.868	0.086	-0.105
-727.923	356.664	-0.062	0.125
-726.908	-200.000	-0.002	0.144
-725.894	-59.562	-0.097	-0.042
-724.879	99.533	-0.241	-0.282
-723.864	45.477	-0.189	-0.177
-722.850	349.455	0.009	0.019
-721.835	-200.000	-0.009	0.043
-720.821	-90.614	-0.092	-0.027
-719.806	-91.417	-0.119	-0.034
-718.791	800.000	-0.045	0.196
-717.777	-66.207	0.045	-0.018
-716.762	5.361	-0.311	-0.231
-715.748	-30.930	0.240	-0.137
-714.733	-200.000	0.016	0.102
-713.718	217.194	0.294	0.472
-712.704	800.000	0.050	0.178
-711.689	114.862	0.033	-0.041
-710.675	-93.754	0.251	0.070
-709.660	-200.000	0.000	0.228
-708.645	800.000	-0.029	0.125
-707.631	-133.426	-0.222	-0.028
-706.616	800.000	0.062	-0.271
-705.602	102.823	-0.086	0.102
-704.587	-200.000	-0.075	-0.415
-703.572	-101.717	-0.083	0.020
-702.558	301.273	0.110	0.205
-701.543	666.814	0.050	-0.129
-700.529	-8.854	-0.166	-0.112
-699.514	43.452	-0.087	0.081
-698.499	-121.470	-0.226	-0.038
-697.485	251.618	-0.123	-0.212
-696.470	-200.000	0.044	-0.271
-695.456	347.844	0.014	-0.027
-694.441	416.428	-0.111	-0.238
-693.426	-200.000	-0.037	-0.195
-692.412	-200.000	0.004	-0.058
-691.397	-113.805	0.099	0.019
-690.383	-200.000	-0.006	-0.075
-689.368	800.000	-0.030	0.088
-688.354	215.980	0.085	0.136
-687.339	-105.370	-0.261	-0.060
-686.324	-44.863	0.169	-0.085
-685.310	219.589	0.211	-0.340
-684.295	67.907	0.012	-0.013
-683.281	-3.914	0.135	-0.094
-682.266	772.844	-0.066	0.180
-681.251	-200.000	-0.008	-0.094
-680.237	-74.366	0.315	-0.115
-679.222	-200.000	-0.034	0.286
-678.208	-35.167	0.108	0.059
-677.193	-200.000	-0.077	-0.345
-676.178	-112.213	0.281	0.057
-675.164	800.000	0.170	-0.490
-674.149	-154.503	-0.123	0.008
-673.135	800.000	-0.014	0.057
-672.120	-200.000	-0.061	0.276
-671.105	-51.203	-0.209	0.099
-670.091	-85.279	-0.401	0.126
-669.076	30.885	0.081	-0.070
-668.062	-200.000	0.004	-0.095
-667.047	-33.072	0.193	-0.108
-666.032	386.150	-0.120	-0.250
-665.018	-38.955	0.273	-0.145
-664.003	-39.537	-0.218	0.115
-662.989	-28.372	-0.250	-0.145
-661.974	59.487	0.154	-0.153
-660.959	800.000	-0.067	0.207
-659.945	645.631	0.090	0.231
-658.930	-62.669	0.204	0.085
-657.916	-175.510	-0.190	-0.005
-656.901	-93.707	0.344	0.095
-655.886	-102.566	-0.224	-0.054
-654.872	800.000	0.125	-0.417
-653.857	-105.842	-0.107	-0.024
-652.843	-200.000	0.047	-0.256
-651.828	-200.000	0.057	0.377
-650.814	-47.482	-0.151	-0.074
-649.799	-154.197	0.164	-0.011
-648.784	-194.752	-0.133	-0.001
-647.770	370.604	-0.188	-0.383
-646.755	800.000	-0.058	-0.230
-645.741	20.090	0.119	-0.097
-644.726	153.782	-0.185	0.255
-643.711	-107.097	-0.456	-0.101
-642.697	-0.713	0.276	0.197
-641.682	130.632	0.280	-0.362
-640.668	593.539	-0.095	-0.237
-639.653	-37.110	0.212	-0.114
-638.638	725.851	-0.059	0.159
-637.624	800.000	-0.102	0.285
-636.609	-26.244	0.272	0.161
-635.595	-107.362	0.350	-0.077
-634.580	-68.165	0.107	-0.042
-633.565	-88.367	0.178	0.054
-632.551	219.839	0.194	-0.313
-631.536	-138.125	0.074	0.008
-630.522	-36.665	-0.221	-0.120
-629.507	-200.000	-0.019	0.313
-628.492	165.304	-0.065	0.092
-627.478	-129.513	-0.172	-0.024
-626.463	-138.883	-0.138	-0.015
-625.449	-194.444	-0.316	-0.003
-624.434	-112.390	0.209	-0.042
-623.419	-200.000	-0.018	0.197
-622.405	37.028	0.137	-0.122
-621.390	-98.833	0.253	-0.065
-620.376	300.314	0.126	0.233
-619.361	230.716	-0.149	0.245
-618.346	-29.177	0.283	0.163
-617.332	172.204	0.130	0.188
-616.317	-200.000	0.004	-0.060
-615.303	21.054	-0.218	0.178
-614.288	732.742	-0.099	-0.267
-613.273	191.325	-0.191	0.289
-612.259	20.317	0.180	-0.146
-611.244	57.338	0.133	0.131
-610.230	-200.000	-0.002	-0.106
-609.215	-200.000	-0.005	-0.165
-608.201	800.000	-0.039	0.134
-607.186	-26.842	0.281	-0.165
-606.171	800.000	-0.099	-0.350
-605.157	572.869	0.056	0.138
-604.142	100.205	-0.133	0.156
-603.128	800.000	0.063	0.195
-602.113	23.542	0.203	0.168
-601.098	-142.694	-0.278	0.027
-600.084	800.000	0.103	-0.296
-599.069	154.080	-0.118	0.163
-598.055	102.049	-0.025	0.029
-597.040	34.159	-0.115	-0.101
-596.025	800.000	0.038	-0.163
-595.011	228.182	0.059	-0.096
-593.996	-61.235	-0.057	0.024
-592.982	20.995	-0.282	0.230
-591.967	-200.000	-0.001	-0.211
-590.952	15.523	-0.172	0.136
-589.938	-24.655	-0.245	-0.147
-588.923	-160.743	0.198	-0.011
-587.909	180.357	0.060	0.088
-586.894	790.980	0.024	0.065
-585.879	49.744	0.094	0.089
-584.865	124.105	-0.084	0.105
-583.850	95.007	0.067	-0.077
-582.836	84.337	-0.175	-0.192
-581.821	800.000	0.054	0.177
-580.806	800.000	-0.013	-0.039
-579.792	-33.350	-0.155	-0.086
-578.777	-9.984	-0.282	0.188
-577.763	-162.584	-0.156	0.008
-576.748	2.395	-0.195	0.142
-575.733	172.273	-0.206	-0.297
-574.719	-79.844	-0.220	0.074
-573.704	53.896	-0.255	0.246
-572.690	645.352	0.143	0.365
-571.675	-200.000	0.007	-0.330
-570.661	-14.112	-0.127	0.082
-569.646	-32.240	0.320	0.180
-568.631	34.512	-0.117	0.103
-567.617	-115.978	0.197	-0.037
-566.602	-64.609	-0.180	0.073
-565.588	-200.000	-0.013	-0.083
-564.573	-65.292	-0.161	0.065
-563.558	760.642	-0.206	0.561
-562.544	216.708	-0.097	0.155
-561.529	246.175	0.033	0.056
-560.515	234.905	-0.062	0.103
-559.500	-200.000	-0.023	0.144
-558.485	-200.000	0.017	0.183
-557.471	0.747	0.313	0.225
-556.456	84.202	0.124	0.136
-555.442	-200.000	0.020	-0.237
-554.427	33.715	-0.063	-0.055
-553.412	365.590	0.184	-0.373
-552.398	-200.000	0.114	-0.542
-551.383	682.452	-0.116	-0.303
-550.369	-48.711	0.137	0.066
-549.354	-67.226	0.320	-0.126
-548.339	-200.000	0.049	-0.305
-547.325	-200.000	-0.036	0.159
-546.310	800.000	0.071	0.292
-545.296	-200.000	0.032	-0.274
-544.281	800.000	-0.108	0.345
-543.266	42.234	0.196	0.179
-542.252	-187.381	-0.317	0.004
-541.237	7.486	-0.383	0.287
-540.223	-59.637	0.522	-0.224
-539.208	-33.003	0.250	0.139
-538.193	800.000	-0.076	-0.307
-537.179	800.000	0.078	0.219
-536.164	131.181	-0.160	-0.207
-535.150	456.416	-0.039	-0.086
-534.135	392.012	0.081	-0.168
-533.121	209.569	0.094	-0.148
-532.106	425.177	-0.046	-0.098
-531.091	-200.000	-0.008	-0.161
-530.077	429.280	-0.066	0.143
-529.062	14.077	-0.076	0.059
-528.048	-132.551	-0.130	0.017
-527.033	-6.081	0.230	-0.157
-526.018	170.606	-0.143	-0.205
-525.004	328.012	-0.051	-0.099
-523.989	-61.940	0.113	-0.047
-522.975	11.842	-0.091	-0.070
-521.960	-82.627	-0.179	0.058
-520.945	-142.602	0.177	0.017
-519.931	-94.678	0.212	0.058
-518.916	437.723	-0.116	0.253
-517.902	-60.703	-0.343	0.145
-516.887	-74.165	-0.364	-0.132
-515.872	-90.459	0.126	0.037
-514.858	-114.480	-0.137	-0.026
-513.843	25.099	-0.144	-0.120
-512.829	180.381	0.027	-0.039
-511.814	-200.000	-0.046	-0.290
-510.799	800.000	0.033	-0.117
-509.785	-200.000	0.010	0.068
-508.770	-53.316	0.371	0.171
-507.756	-6.055	-0.335	-0.229
-506.741	68.857	0.116	-0.120
-505.726	800.000	-0.067	0.187
-504.712	693.846	0.174	-0.457
-503.697	800.000	-0.017	-0.068
-502.683	-130.891	0.172	-0.023
-501.668	-85.566	-0.303	-0.094
-500.653	708.195	0.097	-0.257
-499.639	-106.121	-0.043	0.010
-498.624	355.197	-0.075	-0.149
-497.610	419.677	-0.201	0.431
-496.595	-63.729	0.242	0.099
-495.581	-136.035	0.017	0.002
-494.566	-10.989	-0.112	0.074
-493.551	-102.062	-0.187	-0.045
-492.537	149.832	-0.138	0.187
-491.522	800.000	-0.044	0.170
-490.508	16.981	-0.425	-0.337
-489.493	-180.833	0.086	0.002
-488.478	-17.318	0.444	-0.280
-487.464	-18.656	0.180	0.113
-486.449	-35.967	-0.163	-0.088
-485.435	-200.000	0.000	-0.117
-484.420	427.538	-0.058	-0.126
-483.405	632.192	0.103	-0.261
-482.391	-200.000	-0.011	-0.215
-481.376	-200.000	0.009	-0.156
-480.362	-162.694	0.067	-0.003
-479.347	-27.299	0.170	0.099
-478.332	-45.214	-0.208	0.103
-477.318	-200.000	-0.050	-0.304
-476.303	49.215	0.139	0.130
-475.289	800.000	0.021	0.074
-474.274	44.106	-0.262	-0.240
-473.259	11.218	0.305	-0.233
-472.245	222.548	0.114	0.183
-471.230	513.404	0.056	-0.132
-470.216	36.796	-0.081	0.072
-469.201	256.668	-0.164	-0.282
-468.186	347.418	-0.023	0.045
-467.172	192.385	-0.195	-0.295
-466.157	-70.369	-0.128	0.048
-465.143	-200.000	0.006	-0.053
-464.128	-200.000	0.055	-0.306
-463.113	-152.705	0.039	0.003
-462.099	-200.000	-0.001	-0.254
-461.084	-59.509	0.269	-0.116
-460.070	800.000	-0.073	-0.261
-459.055	-41.565	-0.075	-0.039
-458.040	754.216	0.046	0.124
-457.026	629.303	0.137	0.347
-456.011	-168.204	0.161	0.006
-454.997	-79.258	-0.400	-0.136
-453.982	-17.314	-0.120	0.076
-452.968	176.819	0.182	0.264
-451.953	-200.000	0.050	0.258
-450.938	-99.041	0.442	0.112
-449.924	-162.155	0.151	-0.008
-448.909	-52.225	0.317	0.147
-447.895	-90.030	-0.240	-0.070
-446.880	-200.000	0.039	-0.317
-445.865	85.885	0.230	-0.253
-444.851	-160.277	0.179	-0.010
-443.836	-138.681	-0.293	-0.032
-442.822	-42.967	-0.439	-0.222
-441.807	289.760	-0.109	-0.198
-440.792	259.535	0.178	-0.306
-439.778	-123.293	-0.074	-0.012
-438.763	49.329	0.072	0.068
-437.749	23.499	0.299	0.245
-436.734	800.000	-0.007	0.028
-435.719	-14.914	0.041	-0.026
-434.705	-96.175	-0.203	0.054
-433.690	-200.000	0.038	-0.297
-432.676	403.792	0.187	0.392
-431.661	-200.000	-0.021	0.211
-430.646	200.559	-0.052	-0.080
-429.632	161.168	-0.216	0.302
-428.617	-61.138	0.170	-0.072
-427.603	-200.000	0.003	0.490
-426.588	-101.406	0.377	0.092
-425.573	7.149	0.109	-0.081
-424.559	-52.099	-0.127	-0.059
-423.544	32.363	-0.171	0.148
-422.530	39.897	0.301	-0.270
-421.515	-46.513	-0.220	0.108
-420.500	-12.549	0.206	-0.134
-419.486	314.698	0.102	0.193
-418.471	-129.212	-0.199	-0.028
-417.457	146.303	0.041	-0.054
-416.442	368.862	-0.083	0.168
-415.428	-146.526	-0.241	-0.021
-414.413	64.502	0.072	-0.072
-413.398	214.886	-0.092	-0.145
-412.384	462.730	-0.088	0.195
-411.369	1.591	-0.139	-0.100
-410.355	106.580	-0.136	0.161
-409.340	-60.394	-0.054	0.023
-408.325	259.409	0.143	0.246
-407.311	428.622	0.051	-0.109
-406.296	111.090	0.160	0.192
-405.282	-69.006	-0.330	0.127
-404.267	800.000	0.024	-0.067
-403.252	28.585	-0.284	-0.240
-402.238	-94.367	-0.057	0.015
-401.223	-65.124	-0.137	0.055
-400.209	800.000	-0.061	-0.229
-399.194	-34.425	-0.264	-0.144
-398.179	800.000	0.103	0.402
-397.165	-107.158	0.322	0.071
-396.150	-200.000	-0.055	-0.275
-395.136	380.438	-0.139	-0.284
-394.121	800.000	0.021	0.059
-393.106	191.573	0.147	0.221
-392.092	-200.000	-0.037	0.176
-391.077	376.108	-0.134	0.272
-390.063	371.838	0.068	0.138
-389.048	214.990	-0.179	0.283
-388.033	-142.368	0.205	0.020
-387.019	-87.003	-0.159	-0.048
-386.004	-128.990	0.110	-0.015
-384.990	-75.456	0.355	-0.126
-383.975	-116.430	-0.032	0.006
-382.960	-111.730	0.188	0.038
-381.946	-200.000	0.041	0.190
-380.931	-86.354	-0.198	0.061
-379.917	26.157	0.312	0.259
-378.902	-111.667	-0.450	0.091
-377.888	800.000	0.024	-0.082
-376.873	-68.588	0.171	0.066
-375.858	211.801	-0.256	0.401
-374.844	4.461	0.286	0.209
-373.829	-63.613	0.266	-0.109
-372.815	800.000	0.045	0.131
-371.800	130.461	0.243	-0.309
-370.785	84.048	-0.240	0.261
-369.771	352.950	0.074	0.146
-368.756	-105.369	-0.170	0.039
-367.742	-163.045	0.450	-0.022
-366.727	800.000	-0.092	-0.357
-365.712	-7.235	-0.064	0.043
-364.698	-137.583	0.353	-0.040
-363.683	-200.000	0.002	-0.238
-362.669	3.167	-0.194	0.140
-361.654	-28.939	-0.327	-0.187
-360.639	616.021	0.123	-0.307
-359.625	-118.010	-0.249	-0.044
-358.610	-141.254	-0.206	0.021
-357.596	800.000	0.054	0.166
-356.581	800.000	-0.057	0.218
-355.566	445.533	0.106	0.233
-354.552	-200.000	-0.019	0.329
-353.537	-61.903	-0.236	0.098
-352.523	134.377	-0.082	-0.106
-351.508	152.816	-0.059	0.080
-350.493	655.229	-0.106	0.272
-349.479	-165.060	-0.074	-0.003
-348.464	-170.376	0.280	0.010
-347.450	-200.000	-0.056	0.447
-346.435	-114.391	-0.211	0.040
-345.420	184.133	-0.056	-0.083
-344.406	-131.988	0.145	0.019
-343.391	120.162	-0.156	-0.193
-342.377	-200.000	-0.065	0.356
-341.362	-200.000	0.004	-0.179
-340.348	450.241	-0.040	0.087
-339.333	-101.589	0.168	-0.041
-338.318	-95.662	0.217	-0.058
-337.304	163.646	0.176	0.246
-336.289	-79.960	0.164	-0.055
-335.275	280.422	-0.068	-0.121
-334.260	-154.649	0.394	0.026
-333.245	800.000	0.048	0.203
-332.231	-200.000	0.035	0.251
-331.216	-200.000	0.005	-0.281
-330.202	202.066	0.199	0.306
-329.187	-70.308	-0.109	0.041
-328.172	-200.000	-0.023	0.152
-327.158	2.790	-0.233	-0.168
-326.143	-200.000	0.006	-0.204
-325.129	-60.074	-0.360	0.153
-324.114	-178.892	0.330	-0.007
-323.099	-200.000	-0.021	-0.359
-322.085	106.576	0.156	-0.184
-321.070	-200.000	0.075	-0.344
-320.056	7.295	-0.295	-0.219
-319.041	-80.480	0.263	-0.087
-318.026	-172.856	-0.254	0.008
-317.012	-200.000	-0.023	0.116
-315.997	-72.831	-0.111	0.041
-314.983	-55.235	-0.198	0.088
-313.968	120.435	-0.147	0.181
-312.953	-171.877	0.086	0.003
-311.939	-136.618	-0.166	0.019
-310.924	144.006	0.327	-0.434
-309.910	43.528	0.060	-0.054
-308.895	-54.354	0.061	0.028
-307.880	-52.688	-0.239	0.109
-306.866	103.303	0.177	0.207
-305.851	-47.790	-0.078	-0.038
-304.837	-106.676	-0.348	0.077
-303.822	243.675	-0.051	0.085
-302.807	-63.078	0.204	0.084
-301.793	-49.529	0.045	0.021
-300.778	85.217	-0.320	0.349
-299.764	-17.301	-0.159	0.099
-298.749	358.613	-0.078	-0.155
-297.735	-15.573	0.281	-0.178
-296.720	-124.709	-0.199	0.031
-295.705	149.799	-0.111	0.150
-294.691	-77.551	0.269	-0.093
-293.676	244.863	-0.079	-0.132
-292.662	17.459	0.130	-0.103
-291.647	-200.000	-0.047	-0.367
-290.632	-200.000	-0.010	-0.110
-289.618	800.000	0.112	-0.311
-288.603	-158.173	-0.029	-0.002
-287.589	-100.280	-0.174	-0.043
-286.574	11.562	0.126	-0.096
-285.559	646.269	0.073	-0.186
-284.545	0.741	0.163	-0.116
-283.530	-39.862	0.203	-0.105
-282.516	2.197	0.231	0.166
-281.501	800.000	-0.085	0.332
-280.486	-151.928	0.105	-0.008
-279.472	170.999	0.013	-0.018
-278.457	-200.000	0.005	-0.492
-277.443	69.751	-0.021	-0.021
-276.428	-157.807	0.089	-0.005
-275.413	-200.000	0.036	-0.325
-274.399	-0.709	0.168	-0.118
-273.384	-74.129	0.256	-0.092
-272.370	-200.000	-0.012	-0.113
-271.355	399.395	-0.038	0.079
-270.340	-49.751	-0.243	0.115
-269.326	197.278	0.164	-0.248
-268.311	-200.000	-0.005	0.113
-267.297	-27.218	0.294	-0.170
-266.282	-95.469	-0.214	-0.057
-265.267	54.814	-0.121	0.115
-264.253	38.555	0.113	-0.100
-263.238	123.988	-0.156	-0.194
-262.224	-88.023	-0.142	-0.042
-261.209	186.245	0.076	0.112
-260.195	-177.344	0.205	0.005
-259.180	-123.482	-0.193	0.030
-258.165	-0.404	0.267	-0.188
-257.151	-200.000	0.005	0.051
-256.136	800.000	-0.099	-0.353
-255.122	189.090	-0.075	-0.111
-254.107	126.076	0.147	-0.185
-253.092	-200.000	0.029	0.163
-252.078	-33.934	0.102	0.056
-251.063	-200.000	-0.037	0.259
-250.049	52.012	-0.338	0.319
-249.034	90.355	-0.067	-0.074
-248.019	287.201	0.106	-0.190
-247.005	-106.663	0.272	-0.060
-245.990	162.713	0.181	-0.252
-244.976	39.817	-0.255	0.226
-243.961	-31.012	0.350	0.196
-242.946	-200.000	-0.002	0.071
-241.932	800.000	0.110	0.474
-240.917	-135.181	-0.197	0.023
-239.903	97.825	-0.090	-0.103
-238.888	-14.548	0.127	-0.081
-237.873	1.823	-0.152	-0.108
-236.859	800.000	-0.054	0.155
-235.844	-6.847	0.370	0.249
-234.830	421.600	0.107	0.227
-233.815	800.000	0.068	-0.247
-232.800	158.100	0.030	0.041
-231.786	-110.853	0.263	-0.054
-230.771	103.658	0.129	0.150
-229.757	-178.051	-0.190	-0.004
-228.742	-44.473	0.378	0.187
-227.727	18.437	-0.208	-0.165
-226.713	-49.399	-0.243	-0.115
-225.698	255.492	-0.149	0.253
-224.684	800.000	0.016	0.053
-223.669	800.000	-0.055	0.155
-222.655	-77.101	0.211	0.073
-221.640	-117.334	-0.065	-0.012
-220.625	254.620	0.176	0.297
-219.611	111.105	-0.206	-0.246
-218.596	-69.027	-0.132	-0.050
-217.582	-77.515	0.059	-0.020
-216.567	-200.000	-0.026	-0.119
-215.552	-3.484	-0.267	-0.184
-214.538	-133.160	0.442	-0.055
-213.523	236.644	-0.125	0.204
-212.509	-27.960	-0.236	0.136
-211.494	-100.441	0.424	0.104
-210.479	-9.474	0.176	0.116
-209.465	-63.198	0.056	0.023
-208.450	-3.510	0.303	-0.209
-207.436	-10.192	-0.496	0.326
-206.421	-200.000	-0.010	0.270
-205.406	246.640	0.128	0.214
-204.392	116.976	0.061	-0.074
-203.377	-90.717	-0.068	-0.019
-202.363	185.482	-0.144	0.211
-201.348	-200.000	0.096	-0.464
-200.333	-200.000	-0.011	0.178
-199.319	-10.197	-0.406	-0.266
-198.304	-70.920	0.061	0.023
-197.290	51.658	0.238	-0.224
-196.275	-84.426	0.102	-0.032
-195.260	-88.954	0.131	-0.038
-194.246	-200.000	0.030	-0.161
-193.231	-200.000	-0.019	0.316
-192.217	-86.170	0.474	0.145
-191.202	34.451	-0.154	0.133
-190.187	-81.820	-0.087	-0.028
-189.173	-197.184	-0.302	0.002
-188.158	126.190	0.259	-0.324
-187.144	479.617	0.210	0.470
-186.129	-56.100	-0.185	0.082
-185.114	-170.409	-0.116	-0.004
-184.100	354.354	0.105	0.206
-183.085	-67.720	0.279	-0.108
-182.071	699.643	-0.051	-0.132
-181.056	-200.000	0.002	-0.069
-180.042	91.691	-0.185	0.206
-179.027	775.315	-0.090	-0.242
-178.012	183.279	0.025	0.037
-176.998	165.833	0.157	0.219
-175.983	-157.326	-0.308	-0.018
-174.969	61.672	-0.014	0.014
-173.954	-29.565	0.214	-0.121
-172.939	178.516	-0.294	-0.425
-171.925	305.090	0.098	0.181
-170.910	-200.000	0.039	0.196
-169.896	253.209	0.084	-0.142
-168.881	-31.727	0.135	-0.075
-167.866	88.939	-0.193	-0.212
-166.852	-51.133	-0.080	-0.037
-165.837	303.615	0.039	0.071
-164.823	308.209	0.186	-0.342
-163.808	-119.540	-0.285	-0.049
-162.793	-63.728	0.043	0.017
-161.779	71.535	0.114	0.117
-160.764	-5.678	-0.288	0.195
-159.750	-78.219	-0.253	0.086
-158.735	236.732	0.107	-0.175
-157.720	288.382	-0.044	-0.078
-156.706	443.303	0.141	0.305
-155.691	-101.911	-0.244	0.058
-154.677	261.134	0.054	-0.092
-153.662	-200.000	-0.028	-0.131
-152.647	-200.000	-0.062	0.320
-151.633	-88.498	-0.337	0.099
-150.618	800.000	0.129	0.445
-149.604	-200.000	0.036	0.219
-148.589	-29.383	-0.119	0.067
-147.574	344.592	0.055	-0.106
-146.560	215.628	0.206	-0.323
-145.545	45.292	0.329	-0.300
-144.531	-200.000	0.048	-0.305
-143.516	71.460	0.096	-0.098
-142.502	-119.751	-0.232	0.040
-141.487	106.279	0.053	0.062
-140.472	-200.000	0.076	0.435
-139.458	208.035	-0.127	-0.196
-138.443	-134.305	-0.153	0.019
-137.429	131.346	0.118	-0.149
-136.414	266.259	-0.081	-0.140
-135.399	-35.134	-0.263	-0.142
-134.385	-200.000	0.017	-0.085
-133.370	-200.000	0.009	0.159
-132.356	14.245	0.113	-0.087
-131.341	-200.000	-0.049	-0.445
-130.326	428.002	0.083	-0.177
-129.312	287.539	-0.055	0.099
-128.297	-102.228	-0.146	0.035
-127.283	642.960	-0.049	0.123
-126.268	19.392	0.163	0.129
-125.253	-149.692	0.286	0.022
-124.239	-182.813	0.340	0.006
-123.224	800.000	0.020	0.069
-122.210	519.750	0.097	0.223
-121.195	-137.132	0.349	-0.039
-120.180	-72.769	0.144	0.052
-119.166	141.996	0.263	0.344
-118.151	-200.000	-0.050	-0.249
-117.137	-200.000	0.023	-0.218
-116.122	-200.000	-0.007	0.070
-115.107	-200.000	0.070	0.613
-114.093	170.163	-0.200	0.282
-113.078	-109.335	0.269	0.056
-112.064	285.096	0.176	0.313
-111.049	-200.000	0.003	0.239
-110.034	37.983	0.117	-0.102
-109.020	160.810	-0.129	-0.178
-108.005	182.843	0.135	-0.196
-106.991	13.685	-0.166	-0.127
-105.976	30.508	-0.172	-0.145
-104.962	-66.638	-0.222	-0.087
-103.947	-96.448	-0.133	-0.035
-102.932	-200.000	-0.024	0.183
-101.918	122.324	0.203	-0.250
-100.903	-200.000	-0.006	0.105
-99.889	-78.559	-0.266	0.090
-98.874	-166.818	0.238	-0.010
-97.859	-75.248	-0.320	-0.113
-96.845	-200.000	0.045	-0.386
-95.830	800.000	-0.027	-0.110
-94.816	128.855	0.204	-0.256
-93.801	-47.314	0.130	0.063
-92.786	-200.000	0.011	0.233
-91.772	-200.000	-0.047	-0.293
-90.757	295.364	-0.076	-0.137
-89.743	15.438	-0.165	0.128
-88.728	244.768	0.133	-0.221
-87.713	-36.066	-0.134	-0.071
-86.699	-46.159	-0.464	0.225
-85.684	-97.604	0.120	0.031
-84.670	242.176	0.179	-0.294
-83.655	102.927	0.173	0.199
-82.640	800.000	0.048	0.192
-81.626	-200.000	0.034	-0.165
-80.611	-149.923	0.212	-0.016
-79.597	42.040	0.263	0.235
-78.582	329.064	0.125	-0.237
-77.567	8.122	0.337	-0.249
-76.553	349.086	-0.124	-0.241
-75.538	-92.352	-0.309	0.086
-74.524	-200.000	0.040	-0.205
-73.509	125.396	-0.171	-0.212
-72.494	291.332	-0.029	0.052
-71.480	408.260	0.052	-0.109
-70.465	309.757	-0.133	-0.245
-69.451	629.280	-0.058	0.144
-68.436	12.420	-0.042	-0.032
-67.422	48.001	0.182	-0.167
-66.407	-127.820	-0.337	-0.048
-65.392	-51.509	0.247	0.114
-64.378	-200.000	-0.021	0.123
-63.363	-125.053	-0.176	-0.027
-62.349	800.000	0.026	0.105
-61.334	215.429	-0.687	-1.073
-60.319	8.515	0.378	0.280
-59.305	-200.000	-0.138	-1.197
-58.290	52.405	0.777	0.729
-57.276	800.000	0.548	1.748
-56.261	-200.000	96.127	597.852
-55.246	562.041	1369.060	3257.097
-54.232	161.978	2546.760	3508.665
-53.217	112.244	2157.272	2565.240
-52.203	42.480	1702.871	1523.320
-51.188	35.014	1516.237	1305.622
-50.173	32.620	1490.031	1266.934
-49.159	52.350	1538.840	1443.625
-48.144	54.184	1556.521	1472.683
-47.130	35.361	1515.878	1307.469
-46.115	32.071	1501.674	1272.906
-45.100	31.922	1498.359	1269.041
-44.086	31.894	1496.197	1266.965
-43.071	31.967	1493.900	1265.464
-42.057	31.879	1492.315	1263.480
-41.042	31.958	1491.062	1262.903
-40.027	31.906	1489.815	1261.447
-39.013	31.865	1488.637	1260.121
-37.998	31.774	1487.265	1258.300
-36.984	31.850	1486.108	1257.779
-35.969	32.092	1483.987	1257.558
-34.954	31.864	1483.372	1255.460
-33.940	31.869	1481.925	1254.220
-32.925	31.972	1480.316	1253.496
-31.911	31.951	1479.543	1252.647
-30.896	31.926	1477.674	1250.852
-29.881	32.049	1476.274	1250.438
-28.867	31.946	1474.729	1248.389
-27.852	31.973	1473.214	1247.239
-26.838	32.049	1471.873	1246.559
-25.823	31.831	1471.041	1244.361
-24.809	31.943	1468.679	1243.051
-23.794	31.949	1467.318	1241.893
-22.779	31.910	1466.221	1240.657
-21.765	31.911	1464.983	1239.563
-20.750	31.976	1464.526	1239.558
-19.736	31.847	1463.315	1237.633
-18.721	31.864	1461.376	1236.056
-17.706	31.762	1461.156	1235.152
-16.692	31.754	1460.057	1234.115
-15.677	31.918	1458.575	1233.894
-14.663	31.805	1457.954	1232.581
-13.648	31.811	1456.937	1231.708
-12.633	31.796	1456.031	1230.794
-11.619	31.805	1454.869	1229.821
-10.604	31.831	1454.193	1229.370
-9.590	31.822	1453.108	1228.351
-8.575	31.857	1452.833	1228.294
-7.560	31.811	1451.774	1227.054
-6.546	31.774	1450.719	1225.867
-5.531	31.832	1449.874	1225.489
-4.517	31.802	1448.826	1224.354
-3.502	31.791	1447.569	1223.173
-2.487	31.750	1446.770	1222.180
-1.473	31.794	1445.497	1221.342
-0.458	31.747	1444.538	1220.183
0.556	31.682	1435.434	1209.994
1.571	29.041	1410.450	1172.035
2.586	26.005	1354.234	1106.627
3.600	24.521	1275.762	1033.822
4.615	23.350	1229.151	989.429
5.629	19.594	1171.282	922.734
6.644	10.006	1084.441	806.597
7.659	2.742	1043.527	741.101
8.673	1.846	1037.849	732.693
9.688	1.706	1034.925	729.894
10.702	1.569	1033.078	727.872
11.717	1.401	1031.917	726.185
12.731	4.485	1034.782	742.902
13.746	14.169	1048.860	799.697
14.761	22.297	1059.468	847.018
15.775	24.662	1061.285	859.786
16.790	25.046	1060.926	861.263
17.804	24.810	1060.356	859.590
18.819	24.582	1059.788	857.963
19.834	24.649	1059.172	857.711
20.848	24.928	1058.689	858.578
21.863	25.069	1058.583	859.094
22.877	24.975	1058.048	858.134
23.892	24.939	1057.367	857.334
24.907	24.912	1056.170	856.154
25.921	24.941	1055.763	855.891
26.936	24.949	1055.142	855.347
27.950	24.906	1053.950	854.100
28.965	24.791	1052.909	852.635
29.980	24.604	1051.707	850.693
30.994	24.632	1050.262	849.584
32.009	25.037	1049.080	850.477
33.023	25.005	1048.793	850.016
34.038	24.846	1047.229	847.918
35.053	24.752	1047.007	847.218
36.067	24.902	1046.505	847.448
37.082	24.968	1045.203	846.631
38.096	24.899	1044.765	845.876
39.111	25.103	1044.501	846.552
40.126	25.181	1042.947	845.584
41.140	25.135	1041.745	844.319
42.155	24.728	1040.870	841.621
43.169	24.599	1038.889	839.339
44.184	24.538	1038.558	838.708
45.199	24.600	1037.474	838.050
46.213	24.532	1036.309	836.714
47.228	24.468	1035.608	835.776
48.242	24.718	1034.981	836.363
49.257	24.786	1034.483	836.207
50.271	24.637	1033.868	834.938
51.286	25.004	1032.785	835.704
52.301	25.057	1031.948	835.199
53.315	24.982	1031.216	834.185
54.330	24.932	1030.673	833.439
55.344	24.824	1029.989	832.307
56.359	24.846	1028.697	831.295
57.374	24.871	1027.828	830.632
58.388	24.788	1026.749	829.304
59.403	24.582	1026.567	828.130
60.417	24.684	1025.583	827.733
61.432	24.517	1024.799	826.255
62.447	24.572	1024.155	825.919
63.461	24.593	1023.603	825.495
64.476	24.828	1022.325	825.478
65.490	24.735	1021.743	824.506
66.505	24.593	1020.888	823.086
67.520	24.637	1020.182	822.649
68.534	24.684	1019.626	822.345
69.549	24.546	1018.734	820.918
70.563	24.166	1017.606	818.191
71.578	24.117	1016.871	817.304
72.593	24.240	1015.724	816.870
73.607	24.116	1014.049	814.887
74.622	23.937	1014.207	814.119
75.636	24.326	1013.287	815.087
76.651	24.539	1012.684	815.505
77.666	24.363	1011.521	813.693
78.680	24.231	1011.105	812.684
79.695	24.295	1010.075	812.077
80.709	24.453	1009.617	812.354
81.724	24.491	1008.477	811.539
82.739	24.435	1008.442	811.185
83.753	24.554	1007.242	810.686
84.768	24.812	1006.532	811.212
85.782	25.053	1006.109	811.894
86.797	25.141	1005.681	811.876
87.812	25.273	1004.112	811.134
88.826	25.001	1003.707	809.506
89.841	25.069	1003.037	809.199
90.855	25.199	1002.019	808.892
91.870	25.201	1000.970	807.982
92.884	25.251	1000.393	807.670
93.899	25.081	999.656	806.242
94.914	24.874	998.792	804.544
95.928	25.007	997.914	804.362
96.943	25.024	997.132	803.738
97.957	24.746	995.949	801.467
98.972	24.508	994.969	799.539
99.987	24.313	993.691	797.571
101.001	24.545	992.750	797.782
102.016	24.872	992.656	799.095
103.030	24.922	991.420	798.254
104.045	24.760	990.532	796.746
105.060	24.707	988.750	795.006
106.074	24.335	988.655	793.205
107.089	24.458	987.844	793.030
108.103	24.905	987.468	794.645
109.118	24.938	986.305	793.784
110.133	24.663	985.066	791.499
111.147	24.691	983.910	790.622
112.162	24.505	983.351	789.281
113.176	24.153	982.468	786.948
114.191	24.424	981.303	787.142
115.206	24.509	980.888	787.112
116.220	24.246	979.171	784.506
117.235	24.202	978.700	783.869
118.249	24.262	978.088	783.573
119.264	24.185	977.536	782.721
120.279	24.159	976.287	781.538
121.293	24.243	975.161	780.938
122.308	24.379	974.598	781.012
123.322	24.210	974.175	779.866
124.337	24.398	972.369	779.171
125.352	24.086	971.691	777.198
126.366	23.767	970.080	774.452
127.381	23.435	969.027	772.095
128.395	23.938	969.023	774.214
129.410	24.669	968.520	776.921
130.424	24.747	967.973	776.754
131.439	24.663	966.890	775.451
132.454	24.816	965.522	774.949
133.468	24.805	964.847	774.288
134.483	24.783	963.657	773.171
135.497	24.733	963.590	772.832
136.512	25.062	962.708	773.479
137.527	24.979	962.459	772.852
138.541	24.932	961.502	771.811
139.556	24.949	960.950	771.374
140.570	25.010	959.954	770.766
141.585	24.987	959.127	769.939
142.600	25.038	958.467	769.556
143.614	25.013	956.999	768.203
144.629	25.010	956.498	767.721
145.643	25.351	955.696	768.471
146.658	25.241	954.810	767.217
147.673	24.918	954.096	765.199
148.687	25.048	952.429	764.344
149.702	24.942	951.529	763.103
150.716	24.797	950.628	761.699
151.731	24.798	949.681	760.874
152.746	24.865	949.019	760.562
153.760	25.035	948.461	760.769
154.775	25.237	947.602	760.871
155.789	25.141	947.261	760.124
156.804	25.144	946.405	759.382
157.819	25.197	944.825	758.268
158.833	25.257	944.322	758.054
159.848	25.259	943.871	757.634
160.862	25.378	943.025	757.389
161.877	25.334	941.947	756.268
162.892	25.103	941.385	754.780
163.906	25.095	940.916	754.304
164.921	25.209	939.336	753.449
165.935	25.120	938.213	752.109
166.950	25.116	937.798	751.690
167.964	25.303	936.735	751.557
168.979	25.296	935.380	750.371
169.994	25.150	934.372	748.890
171.008	24.967	933.367	747.254
172.023	25.115	932.962	747.482
173.037	25.240	932.611	747.653
174.052	25.122	931.265	746.018
175.067	25.007	930.023	744.477
176.081	24.926	929.275	743.476
177.096	24.878	928.665	742.726
178.110	24.944	927.825	742.261
179.125	24.724	926.703	740.386
180.140	24.534	925.721	738.753
181.154	24.633	925.346	738.794
182.169	24.748	924.503	738.532
183.183	25.072	924.044	739.435
184.198	25.149	924.196	739.809
185.213	25.127	923.174	738.836
186.227	25.056	922.716	738.111
187.242	25.130	922.199	737.939
188.256	25.169	921.487	737.462
189.271	25.259	920.864	737.271
190.286	25.144	920.349	736.320
191.300	25.159	918.734	735.025
192.315	24.496	917.774	731.477
193.329	23.809	915.903	727.112
194.344	23.291	915.339	724.478
195.359	24.051	915.406	727.574
196.373	24.829	915.861	731.054
197.388	25.110	915.383	731.753
198.402	25.161	914.580	731.254
199.417	25.161	914.019	730.743
200.432	25.111	913.759	730.268
201.446	24.950	912.962	728.911
202.461	24.701	912.220	727.241
203.475	24.776	911.521	726.924
204.490	24.317	910.094	723.858
205.504	23.235	908.318	717.996
206.519	23.657	907.964	719.360
207.534	24.486	908.576	723.143
208.548	24.616	907.929	723.092
209.563	25.073	907.731	724.717
210.577	25.119	907.082	724.319
211.592	24.731	906.256	722.029
212.607	25.258	906.172	724.026
213.621	25.436	905.619	724.236
214.636	25.268	904.919	722.937
215.650	25.185	904.467	722.178
216.665	25.216	903.826	721.726
217.680	25.202	903.389	721.258
218.694	25.251	902.888	720.991
219.709	24.905	902.027	718.851
220.723	24.708	900.563	716.832
221.738	24.847	900.541	717.308
222.753	25.099	899.646	717.538
223.767	25.158	898.702	716.958
224.782	25.116	898.326	716.428
225.796	25.326	898.043	716.975
226.811	25.424	897.549	716.910
227.826	24.989	896.119	713.971
228.840	24.306	894.579	709.962
229.855	24.086	894.384	708.870
230.869	24.398	893.859	709.633
231.884	24.040	892.794	707.301
232.899	24.010	892.591	706.961
233.913	24.765	892.868	710.115
234.928	25.112	892.292	710.970
235.942	24.788	891.738	709.181
236.957	24.971	890.484	708.845
237.972	24.634	890.186	707.212
238.986	24.503	889.163	705.821
240.001	24.788	888.630	706.460
241.015	24.700	888.365	705.839
242.030	24.716	887.786	705.379
243.045	24.926	887.426	705.861
244.059	24.949	886.877	705.451
245.074	25.194	886.392	705.965
246.088	25.096	885.959	705.176
247.103	24.771	884.490	702.666
248.117	24.717	884.138	702.113
249.132	25.443	884.037	704.820
250.147	25.694	883.813	705.561
251.161	25.950	883.143	705.965
252.176	26.051	882.890	706.096
253.190	25.999	881.804	704.963
254.205	26.151	881.508	705.257
255.220	26.286	881.337	705.584
256.234	26.064	880.529	704.011
257.249	26.120	879.853	703.626
258.263	25.813	879.496	702.082
259.278	25.998	878.524	701.964
260.293	25.907	878.557	701.575
261.307	26.041	878.009	701.595
262.322	25.961	877.103	700.500
263.336	25.807	876.187	699.109
264.351	25.333	875.192	696.412
265.366	24.378	872.664	690.645
266.380	23.818	872.238	688.079
267.395	24.696	872.483	691.611
268.409	25.594	872.813	695.282
269.424	25.494	871.966	694.162
270.439	25.724	871.659	694.743
271.453	25.720	870.795	693.979
272.468	25.750	870.295	693.633
273.482	25.984	869.829	694.103
274.497	26.019	869.653	694.036
275.512	25.811	868.625	692.353
276.526	25.241	866.953	688.774
277.541	25.323	867.216	689.235
278.555	25.862	866.851	690.951
279.570	25.630	865.988	689.313
280.585	25.438	865.174	687.871
281.599	25.455	864.846	687.613
282.614	25.548	864.666	687.763
283.628	25.198	862.800	684.883
284.643	24.853	862.514	683.278
285.657	25.337	862.345	684.931
286.672	25.314	861.216	683.886
287.687	24.839	860.156	681.177
288.701	25.087	860.495	682.330
289.716	25.366	860.329	683.200
290.730	25.054	859.241	681.088
291.745	24.991	858.689	680.353
292.760	24.900	857.573	679.061
293.774	24.784	856.872	678.009
294.789	25.709	857.565	682.003
295.803	26.237	858.115	684.379
296.818	26.301	857.188	683.824
297.833	26.247	857.388	683.716
298.847	26.177	855.770	682.101
299.862	25.769	854.860	679.775
300.876	25.940	854.316	679.930
301.891	26.213	854.267	680.858
302.906	26.472	853.327	681.025
303.920	25.858	852.874	678.294
304.935	25.797	851.939	677.260
305.949	26.131	851.984	678.492
306.964	26.355	851.097	678.565
307.979	26.135	850.235	676.994
308.993	25.998	849.981	676.219
310.008	26.258	850.112	677.238
311.022	26.479	849.478	677.500
312.037	26.188	848.804	675.814
313.052	26.060	847.967	674.606
314.066	26.026	847.352	673.932
315.081	25.324	845.802	670.022
316.095	24.478	844.879	666.075
317.110	25.128	844.764	668.350
318.125	25.885	845.605	671.777
319.139	25.538	844.057	669.200
320.154	24.302	842.158	663.042
321.168	23.977	841.407	661.182
322.183	24.590	841.520	663.491
323.197	25.651	841.982	667.735
324.212	25.722	841.757	667.761
325.227	25.899	841.587	668.226
326.241	25.939	841.240	668.039
327.256	26.035	840.441	667.699
328.270	25.893	839.895	666.682
329.285	25.801	838.972	665.550
330.300	25.700	838.363	664.637
331.314	25.390	837.562	662.798
332.329	25.706	836.540	663.093
333.343	25.986	836.904	664.355
334.358	26.322	836.406	665.138
335.373	26.129	836.023	664.065
336.387	26.204	835.219	663.645
337.402	26.419	835.045	664.236
338.416	26.613	834.747	664.653
339.431	26.549	834.180	663.907
340.446	26.573	833.675	663.534
341.460	26.890	833.130	664.204
342.475	26.823	832.807	663.643
343.489	26.620	831.930	662.144
344.504	26.465	831.609	661.260
345.519	26.823	830.977	662.009
346.533	26.907	831.011	662.282
347.548	26.913	830.489	661.829
348.562	27.059	830.012	661.921
349.577	27.063	829.578	661.532
350.592	27.137	828.529	660.908
351.606	26.899	828.266	659.773
352.621	26.900	827.732	659.294
353.635	26.872	827.041	658.586
354.650	26.894	826.307	658.020
355.665	26.315	825.632	655.327
356.679	25.491	823.895	650.909
357.694	25.190	823.838	649.713
358.708	25.882	823.500	651.893
359.723	25.804	823.100	651.237
360.738	26.041	822.541	651.595
361.752	26.366	822.701	652.837
362.767	26.802	822.320	654.052
363.781	26.946	822.472	654.632
364.796	27.127	822.118	654.946
365.810	27.282	821.214	654.727
366.825	27.413	821.164	655.099
367.840	27.407	820.880	654.792
368.854	27.218	820.040	653.385
369.869	26.849	819.345	651.448
370.883	26.608	818.959	650.218
371.898	26.736	818.216	650.032
372.913	26.534	817.746	648.876
373.927	26.610	816.873	648.397
374.942	26.745	816.217	648.303
375.956	26.889	815.553	648.231
376.971	27.109	815.169	648.655
377.986	26.990	814.737	647.830
379.000	27.362	814.393	648.825
380.015	27.330	814.162	648.470
381.029	27.116	813.132	646.830
382.044	26.979	812.733	645.967
383.059	27.329	812.304	646.815
384.073	27.474	811.355	646.517
385.088	27.387	811.365	646.160
386.102	27.240	810.898	645.206
387.117	26.997	809.932	643.521
388.132	27.034	809.271	643.070
389.146	26.984	808.208	641.991
390.161	26.225	807.892	639.000
391.175	26.294	808.154	639.395
392.190	27.005	807.496	641.331
393.205	26.875	807.111	640.509
394.219	26.018	805.244	635.948
395.234	24.341	803.239	628.407
396.248	23.460	801.957	624.248
397.263	24.590	802.872	628.885
398.278	26.495	804.361	636.706
399.292	26.874	804.155	637.818
400.307	26.544	803.688	636.232
401.321	26.536	802.939	635.556
402.336	26.562	802.534	635.272
403.350	26.675	802.962	635.948
404.365	27.344	802.818	638.127
405.380	27.697	802.383	638.961
406.394	27.853	801.852	639.027
407.409	27.985	801.891	639.463
408.423	27.924	801.306	638.727
409.438	27.858	801.044	638.233
410.453	27.855	800.358	637.617
411.467	28.211	799.795	638.354
412.482	27.920	799.444	637.004
413.496	28.091	798.649	636.909
414.511	27.943	798.663	636.350
415.526	28.117	797.888	636.281
416.540	28.026	797.734	635.785
417.555	27.855	797.176	634.689
418.569	27.613	796.664	633.386
419.584	27.435	796.381	632.488
420.599	27.649	795.763	632.681
421.613	110.573	1286.412	1460.728
422.628	95.213	1357.890	1460.821
