DTS Sentinel unit serial number:	SN413079Multiplexer serial number:	ORYXHardware model number:	OX4-SRSoftware version number:	ORYX F/W v4.00 Oryx Data Collector v3.7.2.0data status	okinstallation	princeton_trtdifferential loss correction	single-endedforward channel	channel 3reverse channel	N/Adate	2019/09/12time	05:58:11forward acquisition time	60.00reverse acquisition time	0.00gamma	496.2192k internal	0.2320k external	0.2320temperature offset calibration	1.0035default loss term (dB/km)	0.3790temperature slope calibration	1.0000multiplexer offset coefficient	1.0000multiplexer slope coefficient	1.0000fibre end	0.00T internal ref (°C)	32.06T ext. ref 1 (°C)	1.56T ext. ref 2 (°C)	27.41length (m)	temperature (°C)	Stokes	anti-Stokes-747.200	135.088	0.211	-0.277
-746.185	-0.302	-0.134	-0.096
-745.171	-200.000	0.028	0.149
-744.156	571.522	-0.151	0.373
-743.142	-89.479	0.325	-0.097
-742.127	121.928	-0.186	0.234
-741.112	-200.000	0.008	0.267
-740.098	-43.546	-0.156	0.080
-739.083	-167.198	-0.379	0.016
-738.069	15.424	0.230	0.183
-737.054	17.950	-0.096	0.077
-736.039	800.000	0.086	0.249
-735.025	372.706	0.100	0.206
-734.010	-85.334	-0.385	0.121
-732.996	-200.000	0.004	0.160
-731.981	-46.285	0.129	0.064
-730.966	-90.020	-0.155	0.046
-729.952	339.542	-0.210	-0.414
-728.937	-200.000	-0.024	-0.183
-727.923	-142.240	0.264	-0.026
-726.908	-65.449	-0.268	-0.109
-725.894	297.040	-0.103	0.191
-724.879	17.301	-0.140	0.112
-723.864	-200.000	-0.026	0.195
-722.850	216.847	0.096	0.155
-721.835	-128.709	-0.069	0.010
-720.821	-200.000	0.049	-0.522
-719.806	665.685	0.066	-0.172
-718.791	-110.208	-0.495	-0.104
-717.777	-200.000	-0.015	0.228
-716.762	-146.920	-0.344	-0.030
-715.748	-175.380	-0.381	-0.011
-714.733	223.167	-0.250	0.407
-713.718	-200.000	-0.178	-0.001
-712.704	-83.278	0.216	-0.070
-711.689	33.722	-0.108	0.094
-710.675	-138.332	0.256	0.029
-709.660	252.769	0.041	0.070
-708.645	76.916	0.029	-0.031
-707.631	-85.762	-0.329	-0.103
-706.616	752.735	-0.133	-0.364
-705.602	-200.000	-0.031	0.176
-704.587	-83.173	-0.176	0.057
-703.572	-49.668	-0.283	0.136
-702.558	83.160	0.138	-0.152
-701.543	234.988	-0.121	0.202
-700.529	518.707	0.174	0.410
-699.514	800.000	-0.018	0.054
-698.499	-32.367	0.239	0.134
-697.485	-188.895	-0.071	0.001
-696.470	558.952	0.119	0.291
-695.456	-67.332	-0.231	-0.092
-694.441	128.791	-0.173	-0.223
-693.426	207.114	0.205	-0.322
-692.412	-92.338	-0.078	-0.022
-691.397	-200.000	-0.041	-0.354
-690.383	23.091	-0.142	0.117
-689.368	45.006	-0.336	-0.313
-688.354	-61.760	0.288	0.122
-687.339	-71.422	0.201	0.076
-686.324	-168.681	-0.288	-0.011
-685.310	413.581	-0.106	0.228
-684.295	-99.369	-0.120	0.031
-683.281	-104.051	0.142	-0.033
-682.266	-190.431	-0.206	-0.002
-681.251	159.322	-0.111	0.155
-680.237	84.138	-0.126	0.139
-679.222	-6.189	0.081	-0.056
-678.208	-200.000	0.083	0.481
-677.193	89.851	-0.371	-0.418
-676.178	800.000	-0.021	-0.066
-675.164	-61.384	0.257	0.109
-674.149	-200.000	0.016	0.071
-673.135	542.358	0.089	0.215
-672.120	-39.432	0.141	0.074
-671.105	-200.000	-0.190	0.000
-670.091	-98.319	-0.397	0.103
-669.076	-42.895	0.171	0.088
-668.062	27.730	0.171	0.145
-667.047	800.000	0.035	0.105
-666.032	-200.000	0.027	0.178
-665.018	-68.341	-0.134	0.053
-664.003	-157.759	0.470	0.028
-662.989	204.102	-0.188	-0.293
-661.974	-120.082	-0.521	0.090
-660.959	28.661	0.124	-0.106
-659.945	190.370	-0.045	0.068
-658.930	-104.153	-0.345	-0.081
-657.916	562.364	-0.185	0.451
-656.901	42.757	0.056	0.052
-655.886	-141.245	0.088	0.009
-654.872	-200.000	0.013	-0.114
-653.857	-200.000	0.031	-0.341
-652.843	274.075	0.107	0.190
-651.828	-167.062	0.104	0.004
-650.814	278.751	-0.060	-0.107
-649.799	185.715	-0.142	-0.213
-648.784	-34.403	0.223	-0.123
-647.770	-42.610	0.237	-0.122
-646.755	-49.571	-0.197	-0.094
-645.741	33.874	0.219	-0.192
-644.726	323.933	0.136	0.262
-643.711	800.000	0.130	0.510
-642.697	-200.000	-0.045	0.251
-641.682	579.495	0.065	0.160
-640.668	243.825	-0.138	0.234
-639.653	87.758	0.196	0.218
-638.638	625.825	-0.036	-0.092
-637.624	-149.401	-0.049	-0.004
-636.609	-124.677	-0.143	0.022
-635.595	-129.220	0.291	0.041
-634.580	-200.000	-0.011	-0.121
-633.565	313.101	0.039	0.074
-632.551	-94.019	-0.128	-0.035
-631.536	138.212	-0.143	-0.188
-630.522	372.709	-0.145	-0.297
-629.507	627.868	0.080	0.203
-628.492	63.874	-0.061	0.061
-627.478	41.441	0.185	-0.168
-626.463	-116.850	0.026	0.005
-625.449	52.340	0.059	-0.057
-624.434	59.999	0.104	-0.103
-623.419	98.008	0.079	-0.091
-622.405	-126.804	-0.394	-0.058
-621.390	44.705	-0.141	-0.131
-620.376	-123.688	-0.265	0.042
-619.361	8.566	0.088	-0.067
-618.346	28.246	0.236	-0.201
-617.332	-200.000	0.018	0.201
-616.317	800.000	0.046	0.139
-615.303	-200.000	0.034	0.240
-614.288	-38.838	0.088	0.046
-613.273	271.452	0.081	-0.143
-612.259	189.724	0.082	0.123
-611.244	37.235	0.071	0.063
-610.230	-36.141	0.336	0.183
-609.215	-63.075	-0.237	-0.098
-608.201	164.847	0.205	0.291
-607.186	-59.767	0.292	0.126
-606.171	55.721	-0.182	-0.177
-605.157	-200.000	-0.013	0.474
-604.142	-200.000	-0.035	-0.343
-603.128	426.615	0.129	-0.279
-602.113	103.479	-0.083	0.098
-601.098	-19.893	0.294	0.182
-600.084	202.005	-0.252	-0.391
-599.069	-142.856	0.207	-0.020
-598.055	-66.786	0.311	-0.124
-597.040	564.005	-0.021	-0.052
-596.025	-13.199	-0.104	0.068
-595.011	800.000	0.176	0.489
-593.996	421.098	-0.140	0.302
-592.982	87.764	-0.095	0.106
-591.967	-33.056	0.058	0.032
-590.952	-155.992	0.438	-0.028
-589.938	42.150	0.121	-0.110
-588.923	-27.412	-0.075	-0.044
-587.909	-24.972	0.190	-0.113
-586.894	-85.394	0.053	-0.017
-585.879	-200.000	-0.008	-0.228
-584.865	-52.852	0.151	-0.070
-583.850	266.634	0.194	0.341
-582.836	-27.408	-0.277	0.162
-581.821	800.000	-0.068	-0.262
-580.806	363.448	-0.117	-0.236
-579.792	800.000	0.066	0.250
-578.777	-200.000	-0.069	-0.340
-577.763	142.029	0.229	-0.305
-576.748	-172.064	-0.362	-0.012
-575.733	-77.420	0.171	0.060
-574.719	-19.556	0.164	-0.102
-573.704	-128.269	-0.266	0.038
-572.690	-200.000	-0.017	0.083
-571.675	-100.610	-0.105	0.026
-570.661	105.818	-0.254	-0.302
-569.646	-93.287	-0.310	-0.086
-568.631	800.000	0.056	0.219
-567.617	-26.842	-0.391	0.230
-566.602	-45.096	-0.070	0.035
-565.588	290.972	-0.138	-0.252
-564.573	256.647	-0.061	-0.106
-563.558	-157.846	0.314	-0.019
-562.544	-93.491	0.217	0.060
-561.529	275.686	-0.158	0.281
-560.515	46.395	-0.173	0.161
-559.500	-200.000	-0.014	0.163
-558.485	-200.000	0.036	0.205
-557.471	141.292	0.164	0.218
-556.456	-25.398	-0.130	0.077
-555.442	-200.000	-0.008	0.310
-554.427	-41.383	-0.182	0.094
-553.412	160.685	-0.120	-0.168
-552.398	-66.349	0.370	0.148
-551.383	-106.071	0.165	0.037
-550.369	62.256	-0.345	0.346
-549.354	-57.762	0.131	-0.058
-548.339	104.978	0.085	0.100
-547.325	-125.023	0.123	0.019
-546.310	-192.036	-0.264	-0.003
-545.296	800.000	0.070	0.300
-544.281	-24.585	0.167	-0.100
-543.266	-200.000	-0.026	0.211
-542.252	5.124	-0.185	0.137
-541.237	130.530	-0.239	-0.307
-540.223	210.409	-0.077	0.122
-539.208	-88.070	0.141	0.043
-538.193	79.808	0.071	-0.077
-537.179	80.171	-0.009	-0.010
-536.164	-78.073	0.468	-0.162
-535.150	-200.000	-0.069	-0.375
-534.135	44.083	0.008	0.007
-533.121	-54.172	0.132	-0.060
-532.106	237.379	0.089	-0.148
-531.091	-44.170	-0.213	-0.107
-530.077	202.268	0.145	0.224
-529.062	21.807	0.223	-0.182
-528.048	-145.369	-0.092	-0.008
-527.033	800.000	0.059	0.226
-526.018	228.883	-0.107	-0.175
-525.004	794.254	0.041	0.114
-523.989	-102.074	0.167	0.040
-522.975	-3.892	-0.188	-0.131
-521.960	-200.000	-0.003	-0.375
-520.945	-57.067	-0.135	0.059
-519.931	-120.120	-0.406	-0.070
-518.916	-200.000	0.062	-0.365
-517.902	431.790	-0.079	0.171
-516.887	34.646	0.196	0.172
-515.872	-128.411	-0.310	0.044
-514.858	78.865	-0.151	-0.162
-513.843	-200.000	0.046	-0.214
-512.829	19.599	-0.121	0.098
-511.814	59.748	-0.132	-0.130
-510.799	230.223	-0.059	0.096
-509.785	800.000	0.020	-0.082
-508.770	59.079	0.117	0.115
-507.756	12.176	0.077	0.059
-506.741	-200.000	0.012	-0.115
-505.726	12.096	0.237	-0.182
-504.712	-61.378	0.226	-0.095
-503.697	-200.000	0.039	0.199
-502.683	-69.266	-0.074	-0.028
-501.668	67.938	-0.092	-0.094
-500.653	81.456	0.047	-0.051
-499.639	-65.001	0.227	-0.092
-498.624	728.587	0.078	0.208
-497.610	-200.000	0.072	0.525
-496.595	-200.000	0.017	0.164
-495.581	169.717	-0.078	0.112
-494.566	-162.745	0.287	0.014
-493.551	370.531	-0.036	-0.073
-492.537	88.285	0.178	-0.198
-491.522	345.205	0.054	0.107
-490.508	-200.000	-0.020	-0.241
-489.493	-115.125	0.165	0.031
-488.478	505.051	0.116	-0.269
-487.464	-87.429	-0.094	-0.029
-486.449	10.339	-0.224	-0.170
-485.435	158.885	0.199	-0.277
-484.420	-69.704	-0.244	0.093
-483.405	35.007	-0.076	0.067
-482.391	-200.000	-0.034	0.429
-481.376	800.000	-0.048	0.180
-480.362	-200.000	0.027	-0.127
-479.347	-38.262	-0.231	0.123
-478.332	383.879	-0.124	0.256
-477.318	800.000	-0.053	0.220
-476.303	18.015	0.144	0.115
-475.289	73.946	0.202	0.212
-474.274	-5.420	-0.111	0.076
-473.259	187.926	-0.143	-0.213
-472.245	324.586	0.186	-0.355
-471.230	-200.000	0.019	0.091
-470.216	614.793	-0.106	-0.265
-469.201	69.851	0.048	-0.049
-468.186	250.621	0.069	0.117
-467.172	-200.000	0.002	0.186
-466.157	-51.517	0.057	0.027
-465.143	64.232	-0.069	-0.070
-464.128	118.685	-0.060	-0.074
-463.113	-200.000	-0.021	0.132
-462.099	800.000	-0.115	-0.370
-461.084	800.000	-0.022	-0.095
-460.070	51.007	0.089	0.084
-459.055	27.930	-0.072	0.061
-458.040	800.000	-0.079	-0.318
-457.026	278.910	-0.068	-0.121
-456.011	25.393	-0.108	0.090
-454.997	251.985	-0.210	0.357
-453.982	-60.838	-0.305	-0.129
-452.968	257.727	0.120	-0.207
-451.953	-13.661	-0.129	-0.084
-450.938	800.000	0.047	-0.135
-449.924	22.341	-0.179	-0.146
-448.909	3.880	0.286	0.209
-447.895	-71.495	0.139	-0.052
-446.880	686.590	0.028	-0.074
-445.865	-85.477	-0.268	-0.084
-444.851	-98.169	0.208	0.054
-443.836	5.843	0.079	0.059
-442.822	800.000	-0.063	0.203
-441.807	65.079	0.185	-0.186
-440.792	2.593	-0.228	-0.165
-439.778	-166.036	0.062	0.003
-438.763	31.874	0.242	-0.209
-437.749	327.503	0.034	0.065
-436.734	-11.957	-0.138	0.090
-435.719	315.791	-0.017	-0.032
-434.705	-71.627	-0.299	-0.112
-433.690	-35.640	0.201	-0.109
-432.676	-124.122	-0.292	0.046
-431.661	800.000	-0.033	-0.112
-430.646	-89.907	-0.387	-0.113
-429.632	-11.587	0.187	0.123
-428.617	352.689	0.071	0.141
-427.603	8.141	0.116	0.087
-426.588	-103.243	-0.274	-0.065
-425.573	-133.528	-0.262	-0.033
-424.559	-107.329	0.242	-0.053
-423.544	-171.181	-0.071	-0.002
-422.530	-138.800	-0.191	-0.021
-421.515	-200.000	-0.028	0.182
-420.500	59.646	-0.235	-0.232
-419.486	-18.858	0.119	0.074
-418.471	800.000	-0.064	-0.280
-417.457	-103.871	-0.101	-0.024
-416.442	-51.515	-0.128	0.060
-415.428	-118.891	0.201	-0.035
-414.413	-200.000	-0.057	0.290
-413.398	11.467	-0.168	0.129
-412.384	800.000	0.030	-0.101
-411.369	-200.000	-0.022	-0.167
-410.355	15.167	-0.266	-0.208
-409.340	-151.896	-0.043	-0.003
-408.325	465.095	-0.072	0.160
-407.311	800.000	0.073	-0.275
-406.296	-156.456	0.036	-0.002
-405.282	75.897	-0.120	0.127
-404.267	-126.375	-0.285	0.042
-403.252	2.002	0.217	0.157
-402.238	-82.685	-0.279	-0.090
-401.223	-59.096	0.147	-0.063
-400.209	-165.558	-0.187	0.008
-399.194	-28.543	0.286	0.164
-398.179	-136.475	0.320	0.037
-397.165	352.150	-0.078	0.155
-396.150	800.000	-0.089	0.256
-395.136	800.000	0.123	0.406
-394.121	25.563	0.400	-0.332
-393.106	-68.557	0.087	0.034
-392.092	50.019	-0.158	-0.149
-391.077	-128.979	-0.339	0.047
-390.063	800.000	0.055	-0.184
-389.048	557.254	-0.064	0.153
-388.033	-188.167	0.300	0.004
-387.019	-200.000	-0.024	-0.134
-386.004	5.711	0.178	-0.131
-384.990	81.068	-0.246	-0.265
-383.975	-200.000	0.006	-0.251
-382.960	800.000	0.054	-0.155
-381.946	-200.000	0.005	-0.120
-380.931	151.513	-0.218	0.296
-379.917	-102.203	-0.421	0.101
-378.902	53.226	-0.165	-0.157
-377.888	326.410	0.060	-0.115
-376.873	240.627	0.152	0.252
-375.858	-97.575	-0.425	0.110
-374.844	-61.883	0.262	0.109
-373.829	-187.059	-0.181	0.002
-372.815	701.830	0.065	-0.170
-371.800	-9.514	-0.104	0.069
-370.785	-39.361	-0.104	-0.055
-369.771	96.748	0.123	0.141
-368.756	-56.051	0.132	0.058
-367.742	800.000	0.033	-0.114
-366.727	-102.560	0.207	0.049
-365.712	240.217	0.073	0.121
-364.698	800.000	-0.086	-0.245
-363.683	-171.311	0.034	0.001
-362.669	-24.125	-0.176	0.105
-361.654	-200.000	0.028	0.220
-360.639	394.353	0.124	-0.257
-359.625	-200.000	-0.004	0.245
-358.610	219.093	0.079	-0.125
-357.596	-21.437	0.029	0.018
-356.581	-69.920	-0.228	-0.087
-355.566	-200.000	0.060	0.310
-354.552	114.838	0.095	0.115
-353.537	19.292	0.160	0.128
-352.523	757.400	-0.063	0.169
-351.508	-9.884	-0.076	-0.050
-350.493	103.653	0.317	0.371
-349.479	292.308	-0.094	0.170
-348.464	-145.093	-0.200	0.018
-347.450	-14.968	-0.194	-0.124
-346.435	-88.725	0.238	-0.070
-345.420	-103.535	0.026	-0.006
-344.406	-95.605	-0.159	-0.042
-343.391	-33.259	-0.419	0.231
-342.377	-112.926	0.147	-0.029
-341.362	-27.487	-0.100	0.058
-340.348	116.107	-0.059	0.073
-339.333	-45.830	-0.243	-0.119
-338.318	-22.284	0.049	0.030
-337.304	-177.266	0.263	0.006
-336.289	445.241	0.104	-0.227
-335.275	223.710	-0.298	-0.478
-334.260	800.000	0.090	-0.281
-333.245	162.969	0.160	-0.223
-332.231	-200.000	0.003	-0.143
-331.216	-200.000	-0.034	0.212
-330.202	-121.582	-0.257	0.042
-329.187	-200.000	-0.046	0.231
-328.172	-2.011	0.110	-0.077
-327.158	-188.612	0.202	0.002
-326.143	-132.014	0.106	0.014
-325.129	-12.544	-0.127	0.083
-324.114	-155.316	0.333	-0.022
-323.099	-103.411	0.394	-0.092
-322.085	-38.653	-0.221	-0.116
-321.070	-126.282	-0.105	0.016
-320.056	-160.537	-0.334	0.018
-319.041	-66.502	-0.131	-0.052
-318.026	800.000	0.104	0.408
-317.012	20.546	0.290	-0.233
-315.997	-200.000	-0.003	-0.180
-314.983	302.586	-0.115	0.211
-313.968	800.000	0.087	0.345
-312.953	-200.000	0.031	0.186
-311.939	367.718	-0.100	0.201
-310.924	29.526	0.086	0.072
-309.910	-15.789	0.431	-0.273
-308.895	140.252	0.179	-0.234
-307.880	563.292	0.095	-0.229
-306.866	-162.726	0.159	-0.008
-305.851	-84.836	-0.145	0.045
-304.837	110.876	0.052	0.062
-303.822	800.000	-0.068	-0.190
-302.807	-122.877	0.336	0.054
-301.793	-112.961	0.145	-0.028
-300.778	-87.454	0.331	0.099
-299.764	179.054	0.122	-0.177
-298.749	800.000	0.145	0.397
-297.735	-16.654	0.024	0.015
-296.720	583.276	-0.131	-0.321
-295.705	-3.190	-0.140	-0.097
-294.691	-52.430	-0.156	-0.072
-293.676	73.930	0.032	-0.034
-292.662	734.090	-0.035	0.092
-291.647	-123.486	-0.155	0.024
-290.632	-40.138	0.328	0.170
-289.618	377.338	-0.144	-0.291
-288.603	-200.000	0.008	0.199
-287.589	-54.995	-0.322	0.144
-286.574	-11.080	0.162	-0.106
-285.559	-200.000	0.018	0.260
-284.545	800.000	0.050	-0.208
-283.530	31.984	0.152	-0.130
-282.516	419.897	-0.066	-0.140
-281.501	-27.517	0.332	-0.192
-280.486	-57.068	0.082	-0.036
-279.472	-23.105	0.420	-0.251
-278.457	-10.679	0.269	0.176
-277.443	-10.820	-0.168	0.110
-276.428	-9.999	-0.224	0.148
-275.413	56.684	0.030	-0.029
-274.399	-28.969	-0.181	-0.103
-273.384	800.000	-0.073	0.284
-272.370	-174.869	-0.124	-0.003
-271.355	100.200	0.303	0.349
-270.340	-200.000	0.007	-0.035
-269.326	-95.303	0.239	-0.064
-268.311	-25.731	-0.111	-0.065
-267.297	279.699	0.108	0.192
-266.282	34.155	-0.227	0.196
-265.267	104.849	-0.063	0.074
-264.253	-49.503	-0.297	-0.140
-263.238	-26.343	0.288	-0.167
-262.224	215.975	-0.215	-0.340
-261.209	502.050	-0.233	0.535
-260.195	258.081	-0.123	0.211
-259.180	800.000	-0.076	-0.312
-258.165	180.171	0.062	0.090
-257.151	-85.617	0.227	-0.070
-256.136	800.000	0.051	0.153
-255.122	-25.173	-0.153	-0.090
-254.107	90.807	-0.132	-0.146
-253.092	800.000	0.138	0.426
-252.078	5.675	-0.062	0.045
-251.063	800.000	0.037	-0.131
-250.049	299.164	0.062	0.113
-249.034	634.357	-0.055	0.139
-248.019	-200.000	0.098	-0.000
-247.005	306.574	-0.068	0.125
-245.990	78.537	-0.211	-0.224
-244.976	202.415	-0.097	-0.148
-243.961	-18.842	-0.194	0.120
-242.946	-200.000	-0.008	0.052
-241.932	800.000	0.055	-0.209
-240.917	-22.149	0.080	0.048
-239.903	-49.582	0.224	-0.106
-238.888	-200.000	0.008	-0.240
-237.873	-84.985	-0.242	0.075
-236.859	-29.018	-0.267	0.152
-235.844	-172.751	0.188	-0.006
-234.830	30.963	-0.069	-0.059
-233.815	-110.047	0.398	0.083
-232.800	71.471	0.082	-0.085
-231.786	613.439	0.063	0.156
-230.771	-200.000	0.031	-0.197
-229.757	521.098	0.041	0.095
-228.742	302.497	-0.213	-0.390
-227.727	168.013	-0.101	-0.142
-226.713	800.000	-0.104	0.298
-225.698	-27.353	0.114	0.066
-224.684	-107.136	-0.217	-0.047
-223.669	-200.000	0.003	-0.236
-222.655	86.629	-0.078	-0.085
-221.640	-21.593	0.239	-0.144
-220.625	-87.473	-0.033	0.010
-219.611	800.000	-0.030	-0.124
-218.596	-40.270	-0.411	0.212
-217.582	-200.000	0.018	0.079
-216.567	549.664	-0.114	-0.272
-215.552	54.401	0.122	-0.116
-214.538	283.990	-0.065	0.115
-213.523	-200.000	-0.014	-0.084
-212.509	118.384	0.174	-0.212
-211.494	-200.000	0.049	-0.296
-210.479	-200.000	0.000	-0.039
-209.465	-200.000	0.048	-0.248
-208.450	-129.978	0.174	0.024
-207.436	259.217	-0.063	0.108
-206.421	-59.398	-0.192	-0.082
-205.406	265.738	0.057	-0.098
-204.392	727.345	0.011	-0.028
-203.377	-131.967	0.367	-0.047
-202.363	800.000	0.068	0.275
-201.348	-44.988	-0.235	-0.116
-200.333	-4.707	0.266	-0.182
-199.319	-98.632	-0.231	0.058
-198.304	-106.970	-0.240	0.052
-197.290	800.000	0.068	-0.279
-196.275	115.664	0.247	0.299
-195.260	-98.152	0.148	0.038
-194.246	-69.318	0.041	0.016
-193.231	93.784	-0.119	0.134
-192.217	-200.000	-0.077	-0.349
-191.202	-200.000	-0.044	-0.285
-190.187	538.760	-0.065	0.154
-189.173	800.000	0.074	-0.214
-188.158	-42.443	0.222	0.112
-187.144	-89.946	-0.452	-0.131
-186.129	-140.025	-0.295	-0.031
-185.114	123.287	-0.063	-0.078
-184.100	-46.586	-0.178	-0.086
-183.085	-167.506	-0.119	0.005
-182.071	60.654	-0.144	0.141
-181.056	800.000	0.123	0.340
-180.042	-200.000	-0.049	0.328
-179.027	4.598	0.138	0.100
-178.012	70.309	0.101	0.103
-176.998	-200.000	-0.024	-0.144
-175.983	50.812	0.092	0.086
-174.969	-178.930	0.111	0.002
-173.954	-200.000	-0.020	-0.222
-172.939	580.701	-0.049	-0.118
-171.925	1.394	-0.199	-0.142
-170.910	-57.793	-0.278	-0.120
-169.896	-7.602	0.242	0.162
-168.881	-200.000	-0.054	0.305
-167.866	800.000	-0.069	0.232
-166.852	-31.984	0.015	-0.008
-165.837	80.047	-0.151	-0.160
-164.823	-200.000	-0.006	0.150
-163.808	-165.460	0.265	-0.011
-162.793	288.762	0.109	-0.196
-161.779	-118.687	-0.078	0.014
-160.764	157.343	-0.038	0.052
-159.750	144.321	0.199	0.262
-158.735	66.002	-0.071	-0.071
-157.720	-132.983	-0.115	-0.014
-156.706	190.062	0.286	-0.424
-155.691	35.553	-0.121	0.105
-154.677	-115.096	0.221	0.041
-153.662	-200.000	0.033	0.352
-152.647	-90.860	0.130	0.037
-151.633	-200.000	-0.023	0.147
-150.618	-28.543	-0.229	-0.131
-149.604	-160.944	-0.249	-0.013
-148.589	104.970	-0.138	0.161
-147.574	26.792	-0.227	-0.188
-146.560	-92.520	-0.324	-0.090
-145.545	-98.046	0.312	-0.079
-144.531	391.107	-0.051	-0.104
-143.516	800.000	-0.008	-0.030
-142.502	800.000	-0.088	0.282
-141.487	-115.775	-0.329	0.061
-140.472	506.364	0.188	0.431
-139.458	-14.109	-0.192	0.123
-138.443	-99.115	0.051	0.013
-137.429	744.830	-0.086	0.229
-136.414	21.536	0.303	0.243
-135.399	-117.339	0.074	0.013
-134.385	333.254	0.157	0.299
-133.370	12.439	-0.209	0.159
-132.356	152.636	0.104	-0.140
-131.341	214.526	-0.076	0.119
-130.326	-200.000	-0.003	0.084
-129.312	-200.000	0.004	0.100
-128.297	35.316	-0.040	0.035
-127.283	64.400	0.270	0.268
-126.268	-200.000	-0.011	-0.136
-125.253	-151.687	-0.239	-0.017
-124.239	372.265	-0.208	0.418
-123.224	-50.207	0.135	0.063
-122.210	-200.000	-0.008	-0.113
-121.195	-11.767	-0.319	-0.207
-120.180	247.911	-0.104	-0.174
-119.166	-200.000	0.020	-0.293
-118.151	547.179	-0.075	0.176
-117.137	-12.205	-0.206	0.133
-116.122	-145.558	-0.301	-0.027
-115.107	-200.000	-0.067	-0.346
-114.093	800.000	-0.062	0.171
-113.078	-37.029	-0.085	0.045
-112.064	-200.000	-0.024	-0.155
-111.049	116.612	0.166	0.201
-110.034	-124.180	0.162	-0.025
-109.020	800.000	0.090	-0.286
-108.005	24.859	0.308	0.252
-106.991	439.992	0.088	-0.190
-105.976	212.521	0.134	0.208
-104.962	-23.224	-0.269	-0.160
-103.947	-82.557	0.116	0.037
-102.932	-200.000	-0.049	0.215
-101.918	-200.000	0.000	0.234
-100.903	-73.614	-0.301	-0.108
-99.889	521.396	-0.079	-0.183
-98.874	-113.810	0.243	0.047
-97.859	244.651	-0.276	0.457
-96.845	-5.651	-0.216	-0.146
-95.830	800.000	0.089	0.259
-94.816	-200.000	-0.034	0.309
-93.801	272.251	0.085	0.149
-92.786	-66.851	0.318	0.124
-91.772	-119.487	-0.083	0.014
-90.757	216.829	0.241	0.378
-89.743	-163.678	-0.438	-0.020
-88.728	-200.000	-0.012	0.279
-87.713	-5.624	0.253	-0.171
-86.699	56.204	0.087	0.083
-85.684	74.414	0.160	0.166
-84.670	-73.154	-0.235	0.085
-83.655	800.000	-0.058	0.222
-82.640	21.249	0.170	-0.136
-81.626	97.280	0.260	0.294
-80.611	-200.000	0.013	-0.065
-79.597	-200.000	0.047	0.252
-78.582	126.851	0.283	-0.354
-77.567	-107.591	-0.227	0.049
-76.553	50.940	0.190	-0.177
-75.538	98.252	-0.236	-0.268
-74.524	-158.801	-0.021	-0.001
-73.509	-200.000	-0.033	0.189
-72.494	380.993	0.055	0.112
-71.480	375.429	0.122	0.244
-70.465	100.472	-0.056	0.064
-69.451	-95.961	-0.458	-0.120
-68.436	-111.063	-0.410	0.083
-67.422	-200.000	0.012	0.193
-66.407	-200.000	-0.009	0.102
-65.392	265.663	0.122	0.209
-64.378	-200.000	0.055	0.256
-63.363	222.124	-0.058	-0.091
-62.349	233.296	-0.252	-0.408
-61.334	106.828	-0.994	-1.162
-60.319	557.690	0.154	0.365
-59.305	-200.000	-0.231	-1.040
-58.290	800.000	0.344	1.080
-57.276	800.000	0.399	1.454
-56.261	-200.000	95.773	596.051
-55.246	565.280	1371.198	3272.434
-54.232	161.205	2548.798	3507.299
-53.217	112.314	2162.142	2573.800
-52.203	42.782	1707.169	1530.752
-51.188	35.263	1520.780	1312.342
-50.173	32.845	1494.476	1273.300
-49.159	51.857	1543.036	1445.438
-48.144	53.850	1560.285	1475.201
-47.130	35.500	1520.169	1313.231
-46.115	32.350	1505.545	1279.160
-45.100	32.140	1502.550	1275.143
-44.086	32.202	1500.438	1273.720
-43.071	32.112	1498.669	1271.559
-42.057	32.038	1497.042	1269.625
-41.042	32.083	1495.844	1268.864
-40.027	32.116	1494.038	1267.506
-39.013	32.010	1492.832	1265.715
-37.998	31.964	1491.614	1264.324
-36.984	32.063	1490.237	1263.773
-35.969	32.007	1489.716	1262.902
-34.954	32.052	1487.736	1261.474
-33.940	32.141	1485.887	1260.453
-32.925	32.092	1484.433	1258.845
-31.911	32.116	1482.754	1257.530
-30.896	32.101	1481.980	1256.720
-29.881	32.166	1480.476	1255.833
-28.867	32.261	1478.627	1254.848
-27.852	32.095	1477.915	1253.087
-26.838	32.098	1476.301	1251.686
-25.823	32.091	1474.870	1250.379
-24.809	32.113	1473.024	1248.913
-23.794	32.196	1471.182	1247.850
-22.779	32.089	1470.726	1246.706
-21.765	32.098	1469.393	1245.582
-20.750	32.032	1468.466	1244.314
-19.736	32.035	1467.341	1243.326
-18.721	32.140	1466.107	1242.927
-17.706	32.089	1464.942	1241.557
-16.692	32.034	1464.246	1240.554
-15.677	32.185	1462.710	1240.196
-14.663	31.982	1461.934	1238.151
-13.648	32.058	1461.035	1237.844
-12.633	32.018	1459.985	1236.640
-11.619	32.003	1459.447	1236.033
-10.604	31.997	1458.535	1235.177
-9.590	32.066	1457.317	1234.546
-8.575	32.045	1456.524	1233.691
-7.560	32.074	1455.558	1233.014
-6.546	31.993	1454.819	1231.808
-5.531	31.848	1454.304	1230.369
-4.517	31.981	1452.550	1229.711
-3.502	31.995	1451.622	1228.967
-2.487	32.025	1450.597	1228.244
-1.473	31.970	1449.323	1226.759
-0.458	31.993	1448.030	1225.766
0.556	31.997	1438.531	1215.294
1.571	29.099	1414.427	1176.338
2.586	26.028	1358.088	1110.511
3.600	24.480	1278.707	1036.529
4.615	23.218	1231.744	991.307
5.629	19.505	1173.660	924.627
6.644	9.901	1087.033	808.430
7.659	2.682	1045.724	742.766
8.673	1.766	1040.091	734.284
9.688	1.677	1036.888	731.533
10.702	1.364	1035.532	729.005
11.717	1.444	1033.276	727.739
12.731	4.487	1036.536	744.571
13.746	14.121	1050.633	801.246
14.761	22.299	1061.141	848.820
15.775	24.707	1063.670	862.394
16.790	24.929	1063.331	863.114
17.804	24.865	1062.510	862.064
18.819	24.656	1061.561	860.215
19.834	24.737	1061.296	860.310
20.848	24.979	1060.676	860.897
21.863	24.988	1060.337	860.587
22.877	24.871	1060.198	859.836
23.892	24.968	1059.452	859.622
24.907	24.824	1058.395	857.996
25.921	25.022	1058.132	858.656
26.936	24.896	1057.223	857.240
27.950	24.747	1056.145	855.577
28.965	24.771	1054.903	854.610
29.980	24.673	1053.797	853.169
30.994	24.729	1052.033	851.936
32.009	24.723	1051.746	851.596
33.023	25.037	1050.730	852.195
34.038	24.785	1049.812	850.177
35.053	24.757	1048.976	849.289
36.067	24.898	1048.331	849.360
37.082	24.860	1047.466	848.407
38.096	24.969	1046.875	848.370
39.111	25.121	1045.753	848.104
40.126	25.176	1045.395	847.997
41.140	25.165	1043.587	846.404
42.155	24.859	1042.572	844.064
43.169	24.572	1041.148	841.484
44.184	24.599	1040.048	840.649
45.199	24.651	1039.012	839.982
46.213	24.477	1038.450	838.634
47.228	24.549	1037.345	838.005
48.242	24.621	1037.024	838.010
49.257	24.852	1036.019	838.208
50.271	24.849	1035.376	837.595
51.286	24.871	1035.014	837.335
52.301	25.144	1033.596	837.386
53.315	24.939	1033.125	835.974
54.330	24.932	1032.960	835.734
55.344	24.785	1031.739	833.988
56.359	24.903	1030.879	833.768
57.374	24.879	1029.898	832.787
58.388	24.855	1028.914	831.809
59.403	24.657	1028.191	830.231
60.417	24.685	1027.791	829.965
61.432	24.509	1026.787	828.262
62.447	24.443	1026.367	827.547
63.461	24.610	1025.632	827.654
64.476	24.723	1024.631	827.296
65.490	24.721	1024.163	826.834
66.505	24.567	1023.032	825.140
67.520	24.492	1022.589	824.362
68.534	24.640	1021.548	824.132
69.549	24.574	1020.906	823.235
70.563	24.320	1019.315	820.714
71.578	24.107	1018.809	819.253
72.593	24.115	1017.945	818.523
73.607	24.047	1016.588	817.047
74.622	24.014	1015.796	816.187
75.636	24.420	1015.113	817.424
76.651	24.515	1014.942	817.650
77.666	24.396	1013.838	816.142
78.680	24.314	1012.764	814.831
79.695	24.390	1012.010	814.499
80.709	24.422	1011.634	814.272
81.724	24.521	1011.020	814.157
82.739	24.443	1009.952	812.869
83.753	24.543	1009.078	812.548
84.768	24.753	1008.835	813.235
85.782	25.139	1007.961	814.214
86.797	25.384	1007.027	814.499
87.812	25.314	1006.381	813.586
88.826	25.008	1005.531	811.444
89.841	25.073	1005.239	811.428
90.855	25.107	1003.900	810.429
91.870	25.055	1003.212	809.566
92.884	25.233	1002.157	809.447
93.899	25.029	1001.723	808.107
94.914	24.913	1000.531	806.552
95.928	25.068	1000.040	806.779
96.943	25.103	998.855	805.910
97.957	24.779	997.607	803.377
98.972	24.642	996.603	801.883
99.987	24.307	995.499	799.423
101.001	24.450	995.008	799.599
102.016	24.811	994.355	800.619
103.030	24.879	993.534	800.190
104.045	24.810	992.535	799.006
105.060	24.763	991.554	797.937
106.074	24.450	989.975	795.200
107.089	24.559	989.515	795.245
108.103	24.745	989.184	795.739
109.118	24.895	988.049	795.419
110.133	24.519	987.254	793.040
111.147	24.548	986.015	792.102
112.162	24.547	984.688	790.965
113.176	24.312	983.912	789.230
114.191	24.370	983.237	788.874
115.206	24.438	982.380	788.417
116.220	24.311	980.941	786.633
117.235	24.039	980.417	784.946
118.249	24.343	979.681	785.625
119.264	24.281	978.933	784.683
120.279	24.100	978.265	783.281
121.293	24.163	977.366	782.769
122.308	24.156	977.079	782.442
123.322	24.291	976.478	782.483
124.337	24.242	975.263	781.224
125.352	24.177	973.366	779.352
126.366	23.824	971.715	776.419
127.381	23.498	970.731	774.142
128.395	24.118	970.268	776.406
129.410	24.622	970.635	778.830
130.424	24.756	969.857	778.722
131.439	24.823	968.337	777.720
132.454	24.713	967.952	776.866
133.468	24.753	966.912	776.136
134.483	24.691	966.181	775.212
135.497	24.730	965.640	774.879
136.512	24.917	965.141	775.220
137.527	24.957	964.141	774.522
138.541	24.952	963.702	774.076
139.556	25.069	962.468	773.523
140.570	25.034	961.767	772.742
141.585	25.088	960.663	772.020
142.600	25.117	960.127	771.643
143.614	25.047	959.223	770.545
144.629	25.031	958.407	769.755
145.643	25.388	957.786	770.719
146.658	25.274	957.101	769.614
147.673	25.082	955.695	767.594
148.687	25.049	954.188	766.171
149.702	24.691	953.966	764.394
150.716	24.733	952.774	763.554
151.731	24.867	951.592	763.108
152.746	24.909	950.823	762.602
153.760	24.955	950.405	762.395
154.775	25.189	950.062	763.048
155.789	25.281	948.624	762.218
156.804	25.247	947.858	761.392
157.819	25.214	947.111	760.582
158.833	25.254	946.032	759.817
159.848	25.351	945.642	759.848
160.862	25.338	944.488	758.801
161.877	25.248	943.729	757.743
162.892	25.096	942.595	756.123
163.906	25.130	941.807	755.567
164.921	25.298	940.723	755.341
165.935	25.266	939.861	754.444
166.950	25.211	938.737	753.248
167.964	25.209	938.000	752.581
168.979	25.278	937.064	752.052
169.994	25.146	935.995	750.573
171.008	24.901	935.345	748.959
172.023	24.940	934.456	748.346
173.037	25.338	933.856	749.460
174.052	25.081	932.500	747.236
175.067	24.905	931.716	745.806
176.081	24.898	930.533	744.764
177.096	25.071	929.717	744.764
178.110	24.945	929.277	743.823
179.125	24.940	927.885	742.623
180.140	24.612	927.298	740.728
181.154	24.583	926.548	739.944
182.169	24.732	925.934	740.006
183.183	24.919	925.453	740.329
184.198	25.212	925.223	741.287
185.213	25.221	924.527	740.705
186.227	24.992	923.868	739.163
187.242	25.226	922.966	739.344
188.256	25.147	923.022	738.997
189.271	25.228	922.026	738.468
190.286	25.254	921.682	738.232
191.300	25.077	920.540	736.525
192.315	24.482	919.403	733.108
193.329	23.710	917.307	728.209
194.344	23.353	916.286	725.872
195.359	24.099	916.854	729.312
196.373	24.926	917.126	732.851
197.388	25.161	917.073	733.704
198.402	24.997	916.480	732.497
199.417	25.023	915.714	731.923
200.432	24.972	915.724	731.660
201.446	25.042	914.536	730.929
202.461	24.772	913.662	729.070
203.475	24.616	913.377	728.139
204.490	24.366	911.629	725.665
205.504	23.156	909.609	719.078
206.519	23.492	909.721	720.468
207.534	24.530	909.865	724.733
208.548	24.558	909.572	724.550
209.563	25.000	909.678	726.365
210.577	25.067	908.215	725.402
211.592	24.780	907.224	723.386
212.607	25.234	907.441	725.329
213.621	25.282	907.166	725.239
214.636	25.219	906.119	724.088
215.650	25.279	905.741	723.961
216.665	25.160	905.149	722.946
217.680	25.240	904.805	722.927
218.694	25.320	904.515	722.954
219.709	25.013	903.189	720.598
220.723	24.624	902.218	718.196
221.738	24.927	901.531	718.801
222.753	24.994	901.323	718.842
223.767	25.033	900.909	718.602
224.782	25.100	900.168	718.215
225.796	25.369	899.398	718.614
226.811	25.239	899.165	717.844
227.826	24.959	897.908	715.662
228.840	24.162	896.368	711.187
229.855	24.110	895.706	710.392
230.869	24.329	895.604	711.121
231.884	23.888	894.494	708.420
232.899	24.045	894.125	708.692
233.913	24.711	894.246	711.375
234.928	25.161	893.582	712.574
235.942	24.966	892.957	711.238
236.957	25.017	892.447	710.970
237.972	24.762	891.430	709.089
238.986	24.591	890.703	707.770
240.001	24.714	890.262	707.842
241.015	24.710	889.713	707.326
242.030	24.704	888.883	706.582
243.045	24.954	888.396	707.120
244.059	25.028	888.308	707.280
245.074	25.100	887.823	707.113
246.088	25.299	886.563	706.830
247.103	24.810	885.694	704.150
248.117	24.746	885.643	703.798
249.132	25.341	885.257	705.770
250.147	25.788	885.162	707.387
251.161	25.865	884.223	706.874
252.176	25.858	884.221	706.783
253.190	25.786	883.960	706.231
254.205	25.928	883.455	706.321
255.220	26.199	883.048	706.994
256.234	26.102	882.499	706.111
257.249	26.057	881.330	704.937
258.263	25.912	880.604	703.730
259.278	25.828	880.288	703.084
260.293	25.985	879.593	703.080
261.307	25.962	879.470	702.832
262.322	25.831	878.751	701.684
263.336	25.936	878.125	701.529
264.351	25.484	876.396	698.330
265.366	24.141	874.229	691.335
266.380	23.816	873.429	689.381
267.395	24.814	873.982	693.625
268.409	25.601	874.001	696.629
269.424	25.464	873.580	695.701
270.439	25.535	873.102	695.534
271.453	25.715	872.536	695.718
272.468	25.809	871.454	695.159
273.482	25.898	871.426	695.416
274.497	25.899	871.253	695.220
275.512	25.988	869.507	694.109
276.526	25.290	868.157	690.286
277.541	25.497	868.353	691.177
278.555	25.763	868.336	692.126
279.570	25.605	867.564	690.839
280.585	25.517	866.672	689.731
281.599	25.554	865.967	689.252
282.614	25.685	865.541	689.354
283.628	25.304	864.450	686.967
284.643	24.926	863.375	684.605
285.657	25.429	863.403	686.489
286.672	25.366	862.608	685.557
287.687	24.706	861.905	682.421
288.701	24.991	861.805	683.369
289.716	25.482	861.582	685.000
290.730	25.105	860.663	682.775
291.745	24.947	860.095	681.663
292.760	24.887	858.838	680.378
293.774	24.766	858.153	679.314
294.789	25.786	859.130	683.906
295.803	26.334	859.174	685.960
296.818	26.370	858.626	685.599
297.833	26.436	858.171	685.422
298.847	26.059	856.948	682.960
299.862	25.769	855.893	680.963
300.876	25.860	855.870	681.229
301.891	26.176	855.751	682.266
302.906	26.315	854.870	682.027
303.920	25.848	854.236	679.703
304.935	25.761	853.349	678.607
305.949	26.173	852.858	679.707
306.964	26.248	852.400	679.567
307.979	26.077	851.797	678.382
308.993	26.056	850.716	677.383
310.008	26.296	851.103	678.532
311.022	26.325	851.093	678.572
312.037	26.277	849.876	677.363
313.052	26.204	849.196	676.487
314.066	25.937	848.710	675.039
315.081	25.268	847.300	671.358
316.095	24.548	846.035	667.606
317.110	25.089	845.855	669.427
318.125	26.018	846.145	673.063
319.139	25.570	845.249	670.620
320.154	24.454	843.414	664.951
321.168	23.907	842.622	662.233
322.183	24.526	843.136	664.880
323.197	25.320	843.755	668.268
324.212	25.687	843.397	669.290
325.227	25.836	842.926	669.410
326.241	26.105	842.397	669.930
327.256	26.092	841.378	669.012
328.270	25.926	840.855	667.923
329.285	25.774	839.866	666.516
330.300	25.621	839.002	665.204
331.314	25.435	838.680	664.205
332.329	25.488	838.294	664.037
333.343	25.889	837.594	664.901
334.358	26.272	837.615	666.272
335.373	26.316	836.846	665.765
336.387	26.199	836.450	664.959
337.402	26.494	836.088	665.698
338.416	26.563	835.736	665.611
339.431	26.473	835.476	665.014
340.446	26.505	834.573	664.356
341.460	26.783	834.202	665.022
342.475	26.860	833.646	664.800
343.489	26.492	832.813	662.730
344.504	26.392	832.373	661.957
345.519	26.735	832.225	663.036
346.533	27.078	831.666	663.784
347.548	27.061	831.555	663.576
348.562	27.030	830.927	662.903
349.577	26.920	830.564	662.151
350.592	26.965	829.664	661.541
351.606	26.780	829.428	660.620
352.621	26.852	828.874	660.382
353.635	26.860	828.166	659.790
354.650	26.750	827.699	658.956
355.665	26.316	826.818	656.623
356.679	25.370	824.955	651.652
357.694	25.153	824.853	650.726
358.708	25.858	824.444	652.905
359.723	25.741	824.225	652.247
360.738	26.055	824.046	653.188
361.752	26.454	823.986	654.524
362.767	26.519	823.632	654.422
363.781	26.893	823.214	655.382
364.796	27.257	823.193	656.623
365.810	27.315	822.426	656.160
366.825	27.349	822.335	656.154
367.840	27.330	822.018	655.774
368.854	27.104	821.183	654.235
369.869	26.797	819.956	652.097
370.883	26.593	819.685	651.088
371.898	26.666	819.295	650.985
372.913	26.668	818.332	650.171
373.927	26.595	817.872	649.484
374.942	26.693	817.354	649.368
375.956	26.800	817.026	649.432
376.971	27.014	816.431	649.666
377.986	27.108	816.115	649.693
379.000	27.222	815.531	649.581
380.015	27.303	815.047	649.425
381.029	27.095	814.357	648.075
382.044	27.048	813.571	647.224
383.059	27.438	812.908	648.031
384.073	27.184	812.938	647.094
385.088	27.299	812.225	646.877
386.102	27.357	811.537	646.478
387.117	27.177	810.856	645.237
388.132	26.840	810.485	643.692
389.146	26.836	809.423	642.774
390.161	26.327	808.596	640.262
391.175	26.333	808.589	640.217
392.190	26.833	808.589	641.934
393.205	26.921	807.995	641.717
394.219	25.886	806.106	636.504
395.234	24.299	803.452	628.763
396.248	23.590	802.436	625.413
397.263	24.656	803.937	630.288
398.278	26.239	805.353	636.930
399.292	26.926	804.819	638.872
400.307	26.612	804.098	637.139
401.321	26.572	803.760	636.673
402.336	26.512	803.599	636.277
403.350	26.824	803.303	637.083
404.365	27.201	803.616	638.602
405.380	27.603	803.024	639.482
406.394	27.809	803.261	640.337
407.409	28.026	802.174	640.175
408.423	28.062	801.867	640.001
409.438	27.835	801.533	638.883
410.453	27.934	800.926	638.686
411.467	27.971	800.863	638.710
412.482	27.934	799.736	637.627
413.496	27.959	799.531	637.495
414.511	27.888	799.409	637.092
415.526	28.152	798.492	637.225
416.540	28.060	798.409	636.782
417.555	27.836	798.152	635.738
418.569	27.636	797.247	634.268
419.584	27.526	796.860	633.519
420.599	27.669	796.199	633.438
421.613	110.268	1285.799	1459.308
422.628	94.956	1357.118	1459.399
