DTS Sentinel unit serial number:	SN413079Multiplexer serial number:	ORYXHardware model number:	OX4-SRSoftware version number:	ORYX F/W v4.00 Oryx Data Collector v3.7.2.0data status	okinstallation	princeton_trtdifferential loss correction	single-endedforward channel	channel 3reverse channel	N/Adate	2019/09/10time	21:30:11forward acquisition time	60.00reverse acquisition time	0.00gamma	496.2192k internal	0.2329k external	0.2329temperature offset calibration	0.9919default loss term (dB/km)	0.3790temperature slope calibration	1.0000multiplexer offset coefficient	1.0000multiplexer slope coefficient	1.0000fibre end	0.00T internal ref (°C)	31.12T ext. ref 1 (°C)	-0.31T ext. ref 2 (°C)	24.32length (m)	temperature (°C)	Stokes	anti-Stokes-747.200	-141.184	0.152	0.016
-746.185	80.031	0.137	0.148
-745.171	-143.051	0.420	0.041
-744.156	222.019	-0.160	0.260
-743.142	-115.229	0.372	-0.071
-742.127	-200.000	-0.011	-0.237
-741.112	587.593	0.073	0.180
-740.098	21.098	-0.389	0.318
-739.083	-185.681	0.078	-0.001
-738.069	800.000	-0.041	-0.136
-737.054	-4.824	0.112	0.078
-736.039	34.803	-0.324	0.286
-735.025	-55.077	0.178	0.081
-734.010	-114.577	-0.153	-0.029
-732.996	-200.000	-0.002	-0.114
-731.981	-169.324	-0.399	-0.015
-730.966	209.684	-0.077	-0.121
-729.952	-9.816	-0.499	0.334
-728.937	136.572	0.127	0.167
-727.923	-200.000	0.010	0.339
-726.908	-152.819	-0.310	0.022
-725.894	-200.000	-0.027	-0.204
-724.879	800.000	-0.053	0.163
-723.864	91.041	0.154	0.174
-722.850	-131.055	0.169	0.023
-721.835	211.759	-0.248	-0.393
-720.821	-91.610	-0.149	0.043
-719.806	-46.208	0.186	0.092
-718.791	-200.000	-0.030	-0.258
-717.777	121.825	0.023	0.028
-716.762	800.000	0.036	0.111
-715.748	-109.662	-0.202	0.043
-714.733	41.660	0.161	-0.147
-713.718	-200.000	0.063	-0.386
-712.704	-82.684	0.132	-0.043
-711.689	138.118	-0.203	0.268
-710.675	108.528	0.186	0.223
-709.660	24.511	-0.375	-0.312
-708.645	-200.000	-0.000	-0.124
-707.631	-128.738	-0.333	-0.047
-706.616	-132.744	-0.381	0.049
-705.602	-29.955	0.076	-0.043
-704.587	-147.729	-0.107	-0.009
-703.572	-132.858	0.288	0.037
-702.558	82.343	-0.228	-0.248
-701.543	-200.000	0.022	-0.134
-700.529	-79.996	-0.475	-0.160
-699.514	620.658	0.127	-0.320
-698.499	-200.000	-0.015	-0.355
-697.485	-86.324	0.314	-0.097
-696.470	105.018	0.290	-0.344
-695.456	-133.885	0.297	0.037
-694.441	167.280	0.094	-0.134
-693.426	87.513	0.089	-0.099
-692.412	53.222	0.069	-0.067
-691.397	399.114	-0.170	-0.359
-690.383	227.861	-0.133	-0.218
-689.368	198.716	0.140	-0.216
-688.354	147.835	0.202	0.274
-687.339	180.207	-0.191	0.282
-686.324	359.190	-0.083	-0.166
-685.310	-200.000	0.014	-0.273
-684.295	-102.044	-0.263	0.064
-683.281	-64.857	0.221	0.090
-682.266	-200.000	-0.050	0.260
-681.251	-121.775	-0.152	-0.025
-680.237	-102.357	-0.119	-0.029
-679.222	-138.322	-0.115	0.013
-678.208	-92.561	0.320	-0.090
-677.193	-101.043	0.289	0.071
-676.178	-30.986	0.147	-0.084
-675.164	-171.891	-0.239	-0.008
-674.149	456.334	0.093	0.208
-673.135	8.770	0.338	0.256
-672.120	-19.798	0.145	-0.090
-671.105	109.162	0.172	-0.207
-670.091	198.412	-0.116	-0.178
-669.076	-16.248	0.220	0.140
-668.062	-95.862	0.275	-0.074
-667.047	236.417	0.161	-0.268
-666.032	-200.000	-0.009	0.187
-665.018	-200.000	-0.120	0.000
-664.003	95.681	-0.209	0.240
-662.989	800.000	-0.016	-0.054
-661.974	395.804	-0.089	-0.186
-660.959	-200.000	-0.040	0.256
-659.945	-200.000	-0.003	-0.019
-658.930	-87.327	-0.093	-0.028
-657.916	279.483	0.080	-0.144
-656.901	-200.000	-0.025	0.230
-655.886	-200.000	0.018	0.114
-654.872	-53.473	-0.030	0.014
-653.857	-151.809	-0.191	-0.014
-652.843	-200.000	0.054	0.391
-651.828	124.864	0.038	0.047
-650.814	-187.134	0.343	-0.005
-649.799	-81.420	0.071	0.024
-648.784	-161.022	-0.121	-0.006
-647.770	-98.783	0.191	0.049
-646.755	-126.507	-0.535	0.080
-645.741	800.000	0.076	-0.243
-644.726	-200.000	0.004	-0.175
-643.711	-96.081	-0.261	-0.070
-642.697	-104.051	-0.050	0.012
-641.682	-136.016	-0.355	-0.042
-640.668	75.989	0.071	-0.076
-639.653	42.007	-0.240	0.218
-638.638	-71.550	0.440	-0.165
-637.624	-79.132	0.181	-0.062
-636.609	-107.618	0.268	-0.059
-635.595	800.000	-0.076	-0.281
-634.580	-86.088	0.146	0.045
-633.565	-81.366	0.240	-0.079
-632.551	9.726	-0.211	-0.161
-631.536	-200.000	0.085	0.000
-630.522	-84.422	-0.118	0.037
-629.507	-75.845	-0.158	0.056
-628.492	562.827	-0.049	-0.118
-627.478	365.751	0.174	-0.352
-626.463	-200.000	-0.054	0.271
-625.449	-200.000	0.000	-0.050
-624.434	229.570	-0.206	-0.337
-623.419	18.650	0.152	-0.122
-622.405	101.525	0.057	0.067
-621.390	606.335	-0.073	0.182
-620.376	-46.291	0.271	-0.134
-619.361	-200.000	0.072	-0.435
-618.346	-1.561	-0.198	-0.140
-617.332	-2.806	0.070	-0.049
-616.317	-111.045	-0.163	0.034
-615.303	-200.000	0.008	0.106
-614.288	-200.000	-0.028	-0.139
-613.273	-129.832	0.229	0.032
-612.259	4.124	0.213	-0.156
-611.244	649.569	-0.082	0.211
-610.230	261.557	-0.158	0.275
-609.215	-200.000	0.018	-0.262
-608.201	445.063	-0.119	-0.263
-607.186	-63.312	0.219	0.090
-606.171	-104.063	-0.279	-0.065
-605.157	-12.954	-0.144	0.094
-604.142	-200.000	0.010	0.071
-603.128	-200.000	-0.044	-0.277
-602.113	-200.000	-0.012	-0.240
-601.098	-200.000	0.032	-0.205
-600.084	-132.268	-0.580	0.075
-599.069	649.327	0.057	-0.145
-598.055	-200.000	-0.030	0.298
-597.040	-19.405	0.133	-0.083
-596.025	-156.361	-0.048	0.003
-595.011	-97.862	0.037	-0.009
-593.996	-25.744	0.131	0.077
-592.982	-200.000	-0.034	0.253
-591.967	-35.517	-0.083	-0.045
-590.952	-85.389	0.268	-0.084
-589.938	-200.000	-0.023	-0.111
-588.923	-200.000	-0.017	0.183
-587.909	-114.524	-0.113	-0.022
-586.894	-129.460	-0.142	-0.020
-585.879	-200.000	0.010	-0.273
-584.865	74.733	-0.161	0.170
-583.850	800.000	-0.040	0.144
-582.836	-200.000	0.019	-0.205
-581.821	-64.499	-0.371	-0.151
-580.806	-200.000	0.000	-0.091
-579.792	-167.777	0.323	0.013
-578.777	-200.000	-0.008	-0.179
-577.763	58.948	-0.155	0.153
-576.748	800.000	0.119	-0.378
-575.733	244.184	0.108	0.181
-574.719	-109.188	0.225	-0.048
-573.704	1.070	0.087	-0.062
-572.690	-156.962	-0.407	-0.025
-571.675	236.738	0.107	-0.177
-570.661	-200.000	-0.042	0.293
-569.646	800.000	0.048	-0.134
-568.631	-120.366	0.077	-0.013
-567.617	109.077	0.026	0.031
-566.602	-32.974	-0.052	-0.029
-565.588	-200.000	-0.011	0.256
-564.573	-198.430	-0.260	0.001
-563.558	-54.638	-0.050	-0.023
-562.544	-62.041	-0.126	0.053
-561.529	183.695	-0.177	0.262
-560.515	-142.017	0.141	0.014
-559.500	800.000	0.057	0.220
-558.485	-60.471	0.226	-0.096
-557.471	186.499	0.089	-0.132
-556.456	-45.103	-0.027	-0.013
-555.442	-200.000	-0.077	0.543
-554.427	9.794	0.324	0.246
-553.412	-124.493	-0.599	-0.093
-552.398	-133.658	0.145	-0.018
-551.383	40.883	0.360	-0.325
-550.369	-200.000	0.014	0.138
-549.354	-153.510	-0.238	0.016
-548.339	-54.032	-0.212	0.097
-547.325	329.259	-0.210	0.403
-546.310	-200.000	0.053	0.332
-545.296	-200.000	-0.014	0.240
-544.281	-200.000	0.012	-0.123
-543.266	476.941	0.096	-0.217
-542.252	150.239	0.060	-0.082
-541.237	-200.000	-0.010	0.061
-540.223	-0.267	-0.382	-0.272
-539.208	-200.000	-0.003	0.042
-538.193	-200.000	0.008	-0.196
-537.179	800.000	0.008	-0.033
-536.164	800.000	0.115	0.361
-535.150	342.839	-0.131	-0.257
-534.135	-108.417	0.410	-0.088
-533.121	800.000	0.131	-0.545
-532.106	-200.000	0.041	-0.543
-531.091	548.097	-0.047	0.112
-530.077	-137.086	-0.589	0.067
-529.062	148.002	-0.077	0.104
-528.048	0.650	0.149	0.107
-527.033	-152.776	0.181	-0.013
-526.018	108.477	0.072	-0.085
-525.004	-68.960	-0.292	-0.113
-523.989	126.908	0.075	0.095
-522.975	57.541	-0.237	0.231
-521.960	-62.598	-0.299	0.124
-520.945	-108.636	0.162	-0.035
-519.931	106.186	-0.239	0.282
-518.916	25.233	-0.102	0.085
-517.902	78.034	-0.080	-0.085
-516.887	-109.718	0.164	-0.034
-515.872	800.000	-0.114	0.387
-514.858	-34.365	-0.141	0.077
-513.843	173.720	0.232	-0.335
-512.829	-46.862	-0.208	0.102
-511.814	-200.000	-0.002	0.322
-510.799	42.752	0.088	0.080
-509.785	-200.000	-0.034	-0.236
-508.770	-169.559	-0.134	-0.005
-507.756	-200.000	0.002	0.176
-506.741	31.768	0.370	0.318
-505.726	626.473	0.044	0.111
-504.712	146.867	-0.137	-0.184
-503.697	-4.898	-0.308	-0.212
-502.683	-95.983	0.186	-0.049
-501.668	-200.000	-0.090	0.415
-500.653	-200.000	-0.008	0.121
-499.639	-48.221	-0.188	-0.091
-498.624	455.531	-0.135	-0.300
-497.610	-22.007	0.084	-0.051
-496.595	-200.000	0.031	0.222
-495.581	-81.852	-0.192	-0.063
-494.566	-200.000	0.002	0.204
-493.551	-136.960	-0.166	0.019
-492.537	-200.000	0.048	-0.327
-491.522	-128.112	0.275	0.039
-490.508	90.976	-0.138	-0.154
-489.493	783.781	-0.081	0.221
-488.478	44.238	0.175	0.160
-487.464	-26.890	-0.078	-0.046
-486.449	334.292	-0.049	0.096
-485.435	11.362	-0.286	0.218
-484.420	-60.904	0.201	0.085
-483.405	-16.622	0.046	-0.029
-482.391	12.485	0.055	-0.042
-481.376	-26.530	0.178	-0.104
-480.362	-200.000	-0.015	-0.131
-479.347	-73.257	0.070	0.026
-478.332	-31.430	0.191	-0.107
-477.318	-200.000	0.002	0.435
-476.303	-200.000	0.016	-0.109
-475.289	608.880	-0.099	0.246
-474.274	-113.922	-0.224	0.043
-473.259	-102.346	0.339	0.081
-472.245	-200.000	0.007	0.148
-471.230	317.784	-0.089	-0.169
-470.216	-119.337	0.121	0.021
-469.201	53.237	-0.331	0.316
-468.186	121.713	-0.105	0.131
-467.172	36.306	-0.313	0.275
-466.157	101.469	-0.160	-0.186
-465.143	-200.000	-0.049	-0.406
-464.128	55.117	0.158	-0.152
-463.113	259.901	0.083	0.143
-462.099	-23.283	-0.233	-0.140
-461.084	99.631	0.167	-0.193
-460.070	800.000	-0.027	-0.084
-459.055	800.000	0.088	0.309
-458.040	128.208	0.175	0.222
-457.026	30.787	0.211	0.180
-456.011	-169.203	0.216	-0.008
-454.997	800.000	0.106	0.302
-453.982	-200.000	0.185	0.001
-452.968	217.437	0.249	-0.395
-451.953	118.277	-0.237	0.292
-450.938	557.023	-0.078	0.188
-449.924	676.489	-0.077	0.199
-448.909	-200.000	-0.018	0.172
-447.895	-39.325	-0.239	0.125
-446.880	-77.128	-0.354	0.123
-445.865	800.000	0.028	-0.094
-444.851	-87.153	-0.122	0.037
-443.836	9.477	-0.244	0.184
-442.822	364.430	0.080	0.161
-441.807	-200.000	0.044	0.305
-440.792	5.885	-0.174	-0.128
-439.778	-200.000	-0.055	-0.248
-438.763	800.000	-0.036	-0.098
-437.749	49.607	-0.334	-0.313
-436.734	278.038	0.046	0.081
-435.719	75.774	0.057	0.060
-434.705	86.406	-0.303	0.332
-433.690	-47.345	0.261	0.126
-432.676	66.016	0.137	0.138
-431.661	80.734	-0.159	-0.170
-430.646	102.550	0.263	-0.306
-429.632	51.986	-0.110	-0.105
-428.617	348.870	-0.076	-0.150
-427.603	560.031	0.132	-0.317
-426.588	228.719	0.114	-0.185
-425.573	-36.650	-0.266	-0.142
-424.559	706.933	-0.205	0.539
-423.544	-200.000	0.012	0.261
-422.530	800.000	-0.069	0.237
-421.515	800.000	0.080	-0.251
-420.500	572.558	-0.084	0.204
-419.486	-133.773	-0.179	-0.022
-418.471	195.467	0.060	-0.091
-417.457	37.297	0.125	0.110
-416.442	254.907	0.166	0.282
-415.428	528.955	0.051	0.119
-414.413	222.549	0.054	-0.086
-413.398	31.870	-0.328	0.281
-412.384	115.263	-0.114	-0.139
-411.369	-157.118	0.215	-0.013
-410.355	-80.300	0.236	-0.079
-409.340	-168.358	-0.205	-0.008
-408.325	111.403	0.115	0.138
-407.311	-162.320	-0.109	0.005
-406.296	-117.290	-0.365	-0.066
-405.282	79.724	-0.028	0.029
-404.267	-190.836	-0.312	0.003
-403.252	518.330	-0.024	0.056
-402.238	-66.992	-0.099	0.039
-401.223	-200.000	0.018	0.104
-400.209	800.000	0.036	0.104
-399.194	800.000	-0.092	-0.347
-398.179	800.000	0.066	-0.200
-397.165	251.173	-0.082	-0.138
-396.150	-92.330	-0.041	-0.011
-395.136	800.000	-0.010	0.042
-394.121	121.303	0.119	-0.147
-393.106	-73.284	-0.158	0.058
-392.092	-7.246	-0.131	0.088
-391.077	-88.981	0.223	0.066
-390.063	-108.363	-0.267	-0.057
-389.048	11.646	0.211	0.161
-388.033	-25.332	0.371	0.218
-387.019	-67.216	0.095	0.037
-386.004	-24.708	0.196	-0.116
-384.990	221.471	0.270	-0.431
-383.975	-200.000	0.028	-0.200
-382.960	87.861	-0.228	0.252
-381.946	-200.000	0.007	-0.184
-380.931	800.000	-0.022	0.092
-379.917	-62.346	0.322	-0.133
-378.902	-200.000	-0.007	-0.030
-377.888	800.000	0.046	0.182
-376.873	800.000	-0.072	-0.215
-375.858	331.429	-0.062	0.119
-374.844	800.000	0.037	-0.142
-373.829	-21.810	0.203	-0.122
-372.815	108.309	-0.041	-0.049
-371.800	48.601	-0.132	0.123
-370.785	-16.076	0.274	-0.173
-369.771	-200.000	0.016	-0.071
-368.756	-150.864	0.213	0.016
-367.742	1.370	-0.135	-0.096
-366.727	245.295	-0.097	-0.162
-365.712	257.612	0.118	-0.202
-364.698	66.629	-0.156	-0.157
-363.683	-200.000	-0.001	-0.103
-362.669	-140.510	0.148	0.015
-361.654	41.184	-0.267	0.240
-360.639	800.000	-0.084	0.317
-359.625	-4.453	-0.113	-0.078
-358.610	-40.821	0.055	-0.028
-357.596	-41.553	-0.261	-0.133
-356.581	-59.600	-0.190	-0.081
-355.566	-200.000	-0.001	-0.139
-354.552	-71.456	0.170	-0.063
-353.537	-200.000	0.052	0.229
-352.523	-88.799	-0.184	-0.054
-351.508	800.000	-0.103	-0.370
-350.493	800.000	-0.114	0.405
-349.479	-21.555	-0.163	-0.098
-348.464	114.360	0.322	-0.389
-347.450	24.083	0.225	-0.184
-346.435	582.283	0.056	-0.135
-345.420	-35.926	0.162	-0.087
-344.406	-95.505	0.182	-0.048
-343.391	-59.507	-0.071	-0.030
-342.377	-33.768	-0.385	-0.211
-341.362	-61.698	0.483	-0.201
-340.348	-89.311	-0.127	-0.037
-339.333	192.702	-0.163	0.244
-338.318	-90.529	0.292	-0.084
-337.304	-59.717	-0.109	0.046
-336.289	-200.000	-0.005	0.203
-335.275	-64.998	0.554	0.222
-334.260	-79.431	-0.302	0.101
-333.245	800.000	-0.172	-0.505
-332.231	89.984	-0.141	0.156
-331.216	29.069	0.083	0.070
-330.202	234.191	0.040	0.065
-329.187	128.997	-0.150	-0.189
-328.172	15.689	-0.158	-0.123
-327.158	544.619	0.077	-0.182
-326.143	137.021	-0.212	-0.275
-325.129	-70.553	0.115	0.043
-324.114	-200.000	-0.016	-0.305
-323.099	225.674	0.129	0.208
-322.085	60.019	0.103	-0.101
-321.070	-24.422	-0.367	0.217
-320.056	800.000	0.021	0.074
-319.041	88.410	-0.213	0.234
-318.026	-131.837	0.260	0.034
-317.012	157.064	-0.043	0.059
-315.997	367.259	0.120	-0.239
-314.983	-111.736	-0.288	0.058
-313.968	30.752	0.220	0.186
-312.953	-200.000	0.004	-0.195
-311.939	-54.751	-0.362	-0.162
-310.924	-110.946	0.155	0.032
-309.910	-200.000	-0.046	0.325
-308.895	-120.945	-0.127	0.021
-307.880	-135.257	0.068	-0.008
-306.866	800.000	-0.072	0.247
-305.851	27.060	0.126	0.104
-304.837	-200.000	-0.096	0.424
-303.822	164.600	0.184	0.257
-302.807	17.759	-0.400	0.315
-301.793	356.246	-0.075	0.148
-300.778	204.153	0.161	0.247
-299.764	800.000	0.048	0.154
-298.749	434.365	0.127	-0.273
-297.735	79.950	0.099	0.106
-296.720	-134.936	0.285	0.034
-295.705	-200.000	0.034	-0.394
-294.691	24.667	-0.113	0.093
-293.676	-62.895	0.092	-0.037
-292.662	63.569	-0.066	-0.066
-291.647	136.790	0.340	-0.439
-290.632	-37.631	0.048	-0.025
-289.618	-114.426	0.181	-0.035
-288.603	-101.562	-0.309	-0.074
-287.589	800.000	0.028	0.112
-286.574	-75.057	0.125	-0.044
-285.559	-28.203	0.280	-0.160
-284.545	14.636	0.092	-0.071
-283.530	-21.583	-0.280	0.169
-282.516	-17.427	0.205	0.128
-281.501	-200.000	-0.074	-0.340
-280.486	-101.445	-0.231	0.056
-279.472	-139.661	0.249	-0.026
-278.457	-140.518	-0.166	0.017
-277.443	111.155	0.114	-0.136
-276.428	470.362	0.089	-0.199
-275.413	60.146	0.024	-0.023
-274.399	-75.993	0.107	-0.038
-273.384	-23.205	0.480	-0.286
-272.370	-200.000	0.039	-0.278
-271.355	-10.537	0.143	0.094
-270.340	159.083	0.072	-0.099
-269.326	-200.000	-0.018	0.199
-268.311	8.853	0.135	-0.101
-267.297	-26.438	0.085	0.049
-266.282	800.000	-0.121	-0.394
-265.267	-200.000	-0.014	0.115
-264.253	-100.998	-0.378	0.092
-263.238	-11.925	0.179	0.116
-262.224	-200.000	0.013	-0.132
-261.209	196.236	0.127	0.191
-260.195	286.204	0.087	-0.156
-259.180	137.681	0.139	0.180
-258.165	210.655	-0.155	0.240
-257.151	-163.012	0.151	-0.007
-256.136	134.634	0.011	-0.015
-255.122	-165.814	0.029	0.001
-254.107	-89.952	-0.234	-0.067
-253.092	174.987	-0.141	0.202
-252.078	-200.000	-0.058	-0.300
-251.063	-101.685	-0.287	0.069
-250.049	800.000	0.074	-0.203
-249.034	-181.724	0.466	-0.009
-248.019	-200.000	-0.029	0.296
-247.005	36.606	0.188	-0.164
-245.990	-90.872	0.070	0.020
-244.976	-141.069	-0.317	0.032
-243.961	-30.716	0.212	0.119
-242.946	-20.079	-0.186	-0.113
-241.932	-16.240	0.111	-0.070
-240.917	-102.892	0.159	0.037
-239.903	-152.488	-0.565	-0.040
-238.888	176.431	0.106	-0.152
-237.873	-8.747	-0.046	-0.030
-236.859	180.122	0.122	0.177
-235.844	732.332	0.139	0.367
-234.830	800.000	0.041	-0.153
-233.815	800.000	-0.039	-0.134
-232.800	-107.440	0.275	0.060
-231.786	218.226	-0.180	-0.283
-230.771	150.841	0.140	0.188
-229.757	-90.472	-0.132	-0.038
-228.742	182.265	0.207	0.302
-227.727	501.481	-0.099	0.226
-226.713	-149.516	0.294	-0.023
-225.698	507.760	0.119	-0.273
-224.684	-44.200	0.335	0.166
-223.669	562.047	-0.114	-0.273
-222.655	358.430	-0.073	0.145
-221.640	1.478	0.150	0.107
-220.625	739.150	0.030	0.080
-219.611	-19.755	0.248	-0.151
-218.596	-200.000	0.007	0.204
-217.582	-70.490	0.158	0.059
-216.567	16.367	-0.112	0.088
-215.552	362.785	0.051	-0.101
-214.538	-200.000	-0.017	-0.116
-213.523	-200.000	0.004	-0.190
-212.509	-67.521	0.178	0.069
-211.494	-41.343	0.114	-0.058
-210.479	-89.505	0.120	-0.035
-209.465	401.531	-0.083	0.173
-208.450	-200.000	0.004	0.205
-207.436	-46.536	0.195	-0.094
-206.421	-47.481	-0.250	0.120
-205.406	-124.914	0.237	-0.036
-204.392	246.126	-0.143	-0.238
-203.377	-200.000	-0.001	-0.095
-202.363	-200.000	0.023	-0.158
-201.348	21.021	0.134	0.107
-200.333	197.935	0.130	0.196
-199.319	-200.000	0.205	0.001
-198.304	131.578	-0.139	0.177
-197.290	198.421	-0.031	0.046
-196.275	-99.286	-0.401	0.100
-195.260	111.614	-0.126	0.150
-194.246	289.705	-0.060	0.107
-193.231	-200.000	-0.018	-0.122
-192.217	-35.310	-0.239	0.128
-191.202	-96.814	0.469	0.121
-190.187	73.020	-0.104	-0.107
-189.173	-41.842	0.332	-0.168
-188.158	-70.803	0.040	-0.015
-187.144	-200.000	0.003	0.055
-186.129	441.217	-0.113	0.243
-185.114	-75.695	0.290	0.101
-184.100	12.543	0.262	-0.199
-183.085	-167.179	0.067	-0.003
-182.071	332.704	0.155	-0.296
-181.056	-67.705	-0.160	-0.062
-180.042	350.410	-0.242	0.471
-179.027	-128.397	0.174	-0.024
-178.012	580.666	-0.026	-0.063
-176.998	-200.000	-0.010	0.403
-175.983	800.000	-0.064	-0.228
-174.969	800.000	-0.017	0.052
-173.954	-91.704	-0.087	0.025
-172.939	111.230	0.134	-0.159
-171.925	-200.000	0.010	0.076
-170.910	95.276	-0.164	0.184
-169.896	-16.778	0.162	-0.101
-168.881	-98.796	0.211	-0.053
-167.866	-200.000	0.016	-0.078
-166.852	-200.000	0.006	-0.159
-165.837	455.946	0.101	0.222
-164.823	-81.563	0.139	0.045
-163.808	9.261	0.096	0.071
-162.793	-144.135	0.132	-0.012
-161.779	-43.982	-0.208	-0.103
-160.764	-107.733	-0.208	0.045
-159.750	256.291	0.142	0.240
-158.735	-19.696	-0.163	0.100
-157.720	-200.000	0.005	-0.119
-156.706	-98.386	-0.275	0.069
-155.691	11.127	0.140	-0.105
-154.677	-42.205	0.183	-0.092
-153.662	29.162	0.113	-0.095
-152.647	-200.000	0.015	0.118
-151.633	44.021	-0.103	-0.093
-150.618	205.919	0.086	0.131
-149.604	800.000	-0.152	0.435
-148.589	13.763	-0.312	0.239
-147.574	-96.449	-0.328	0.085
-146.560	48.429	0.082	-0.075
-145.545	-169.239	-0.162	-0.006
-144.531	-12.763	-0.192	0.123
-143.516	-200.000	0.046	0.365
-142.502	-21.583	-0.099	-0.059
-141.487	-49.035	-0.131	0.062
-140.472	65.464	-0.032	-0.031
-139.458	-60.410	0.357	-0.149
-138.443	-30.520	0.109	-0.061
-137.429	-174.896	0.138	-0.004
-136.414	-55.866	-0.187	-0.082
-135.399	-200.000	0.005	-0.079
-134.385	-2.213	0.187	0.129
-133.370	-200.000	-0.009	-0.295
-132.356	-29.723	-0.275	0.154
-131.341	576.924	0.025	0.060
-130.326	38.634	0.087	-0.077
-129.312	35.943	-0.226	-0.195
-128.297	-200.000	-0.253	-0.000
-127.283	97.886	-0.157	0.177
-126.268	35.111	0.075	0.065
-125.253	106.757	0.169	-0.197
-124.239	204.629	0.201	0.306
-123.224	-152.474	0.174	-0.012
-122.210	785.429	0.162	-0.436
-121.195	-7.027	0.288	0.192
-120.180	-200.000	0.011	-0.056
-119.166	-10.119	-0.221	-0.144
-118.151	231.876	-0.057	-0.092
-117.137	-188.994	-0.166	0.002
-116.122	84.236	0.185	0.199
-115.107	607.074	-0.078	-0.192
-114.093	-163.002	0.078	-0.004
-113.078	-151.432	0.121	-0.009
-112.064	-70.180	0.268	-0.100
-111.049	-10.886	-0.246	-0.160
-110.034	-24.309	0.058	0.034
-109.020	5.063	0.094	0.068
-108.005	-200.000	0.032	-0.178
-106.991	-118.699	0.011	0.002
-105.976	-121.190	0.113	-0.019
-104.962	-87.485	-0.086	-0.025
-103.947	-40.473	0.150	-0.077
-102.932	-200.000	-0.050	-0.239
-101.918	-130.788	-0.463	-0.061
-100.903	19.710	-0.292	0.231
-99.889	800.000	0.102	0.300
-98.874	-70.590	-0.106	-0.039
-97.859	-200.000	0.019	-0.221
-96.845	-29.457	-0.212	-0.119
-95.830	119.486	-0.188	0.229
-94.816	800.000	-0.046	-0.195
-93.801	-200.000	-0.023	0.175
-92.786	800.000	-0.101	0.398
-91.772	57.159	-0.102	-0.098
-90.757	-153.512	0.294	-0.020
-89.743	-85.174	0.232	0.071
-88.728	-24.229	0.239	-0.140
-87.713	-112.849	-0.293	0.057
-86.699	-54.569	0.310	0.138
-85.684	503.564	0.108	0.245
-84.670	372.478	-0.059	0.117
-83.655	159.724	-0.114	-0.155
-82.640	800.000	0.048	-0.197
-81.626	-36.834	-0.304	-0.160
-80.611	245.954	-0.173	0.286
-79.597	303.972	0.110	-0.200
-78.582	-50.828	-0.087	-0.040
-77.567	-200.000	-0.001	0.336
-76.553	-7.912	0.249	-0.165
-75.538	-54.118	-0.154	0.069
-74.524	-114.976	0.212	-0.040
-73.509	140.887	-0.129	-0.167
-72.494	800.000	0.065	0.259
-71.480	-10.950	0.301	0.195
-70.465	292.973	-0.086	-0.153
-69.451	-42.365	0.200	0.100
-68.436	-54.074	0.267	0.119
-67.422	-200.000	0.006	0.275
-66.407	-85.761	0.044	-0.013
-65.392	-200.000	-0.051	0.255
-64.378	-200.000	0.041	0.232
-63.363	-200.000	0.007	-0.098
-62.349	-57.959	0.052	-0.022
-61.334	23.595	-1.074	-0.867
-60.319	1.116	0.451	0.317
-59.305	-200.000	-0.186	-1.122
-58.290	711.284	0.411	1.068
-57.276	800.000	0.464	1.402
-56.261	-200.000	99.237	617.728
-55.246	578.361	1420.618	3408.307
-54.232	189.689	2613.547	3843.652
-53.217	116.285	2163.746	2599.799
-52.203	41.944	1697.858	1510.276
-51.188	34.350	1509.528	1291.485
-50.173	31.987	1483.448	1253.359
-49.159	52.295	1534.592	1434.996
-48.144	53.562	1552.098	1459.916
-47.130	34.551	1510.840	1293.766
-46.115	31.397	1496.095	1259.868
-45.100	31.227	1492.489	1255.640
-44.086	31.130	1490.386	1253.170
-43.071	31.128	1488.430	1251.461
-42.057	31.122	1487.095	1250.249
-41.042	31.145	1485.093	1248.669
-40.027	31.152	1483.929	1247.687
-39.013	30.950	1483.138	1245.624
-37.998	31.101	1481.176	1244.935
-36.984	31.124	1479.716	1243.810
-35.969	31.043	1478.693	1242.364
-34.954	31.146	1477.122	1241.681
-33.940	31.105	1476.265	1240.636
-32.925	31.243	1474.427	1239.957
-31.911	31.125	1473.612	1238.441
-30.896	31.230	1471.866	1237.623
-29.881	31.225	1470.587	1236.465
-28.867	31.175	1468.973	1234.726
-27.852	31.258	1468.093	1234.484
-26.838	31.219	1466.658	1232.974
-25.823	31.089	1465.483	1231.076
-24.809	31.201	1463.371	1229.994
-23.794	31.133	1461.969	1228.321
-22.779	31.145	1460.440	1227.065
-21.765	31.197	1459.806	1226.825
-20.750	31.184	1458.658	1225.728
-19.736	31.119	1457.854	1224.577
-18.721	31.075	1456.386	1223.006
-17.706	31.186	1454.954	1222.481
-16.692	31.173	1454.207	1221.717
-15.677	31.131	1452.835	1220.247
-14.663	31.086	1452.089	1219.277
-13.648	31.067	1450.976	1218.168
-12.633	31.123	1450.238	1217.863
-11.619	31.197	1449.173	1217.407
-10.604	31.111	1448.798	1216.484
-9.590	31.101	1447.680	1215.429
-8.575	31.102	1447.087	1214.887
-7.560	30.992	1446.493	1213.625
-6.546	31.041	1445.756	1213.277
-5.531	31.096	1444.833	1212.814
-4.517	31.070	1443.704	1211.652
-3.502	31.089	1442.451	1210.671
-2.487	30.996	1441.690	1209.383
-1.473	30.989	1440.648	1208.417
-0.458	31.144	1438.754	1207.779
0.556	28.703	1429.943	1196.083
1.571	25.657	1403.981	1154.749
2.586	22.118	1342.833	1082.590
3.600	20.275	1261.429	1006.195
4.615	19.285	1216.452	964.694
5.629	16.613	1161.635	906.841
6.644	8.093	1077.758	798.755
7.659	0.994	1037.353	734.411
8.673	-0.119	1031.946	725.148
9.688	-0.328	1028.845	721.895
10.702	-0.444	1027.793	720.540
11.717	-0.359	1025.454	719.242
12.731	2.589	1028.684	735.609
13.746	11.493	1040.745	787.262
14.761	18.083	1049.363	825.648
15.775	19.056	1050.303	831.014
16.790	18.968	1050.134	830.385
17.804	18.958	1048.195	828.730
18.819	18.750	1047.805	827.345
19.834	18.871	1047.049	827.260
20.848	18.866	1046.970	827.096
21.863	18.892	1046.039	826.412
22.877	18.883	1045.696	826.028
23.892	18.927	1045.248	825.810
24.907	18.648	1044.693	823.958
25.921	18.781	1043.643	823.696
26.936	18.861	1042.827	823.365
27.950	19.033	1041.218	822.844
28.965	18.933	1040.302	821.570
29.980	18.632	1039.309	819.277
30.994	18.756	1037.120	818.066
32.009	18.935	1036.280	818.184
33.023	19.062	1035.767	818.310
34.038	18.815	1034.554	816.107
35.053	18.698	1033.646	814.765
36.067	18.867	1033.204	815.142
37.082	18.970	1032.215	814.782
38.096	19.010	1031.773	814.547
39.111	19.121	1030.710	814.164
40.126	19.223	1029.780	813.837
41.140	19.057	1028.800	812.209
42.155	18.737	1027.396	809.520
43.169	18.641	1025.830	807.762
44.184	18.487	1025.075	806.371
45.199	18.648	1023.761	806.022
46.213	18.699	1022.580	805.260
47.228	18.583	1021.429	803.737
48.242	18.567	1020.625	802.962
49.257	18.623	1019.814	802.515
50.271	18.848	1018.823	802.715
51.286	18.870	1018.564	802.541
52.301	18.915	1017.642	801.953
53.315	19.042	1016.312	801.427
54.330	18.941	1015.959	800.608
55.344	18.932	1014.701	799.504
56.359	18.945	1013.943	798.894
57.374	18.931	1013.342	798.284
58.388	18.761	1012.574	796.821
59.403	18.680	1011.896	795.842
60.417	18.830	1010.973	795.741
61.432	18.608	1009.574	793.543
62.447	18.636	1009.284	793.374
63.461	18.864	1008.451	793.700
64.476	18.763	1007.621	792.513
65.490	18.710	1006.855	791.597
66.505	18.795	1005.060	790.506
67.520	18.588	1004.871	789.334
68.534	18.866	1004.211	790.025
69.549	18.804	1002.890	788.629
70.563	18.433	1001.833	786.029
71.578	18.290	1001.082	784.714
72.593	18.478	1000.220	784.831
73.607	18.334	999.291	783.374
74.622	18.336	998.144	782.413
75.636	18.665	997.326	783.202
76.651	18.664	996.824	782.734
77.666	18.641	995.486	781.510
78.680	18.503	994.579	780.101
79.695	18.526	993.959	779.649
80.709	18.661	993.645	779.949
81.724	18.726	992.687	779.423
82.739	18.607	992.053	778.317
83.753	18.543	991.529	777.548
84.768	18.760	990.579	777.715
85.782	19.126	989.678	778.595
86.797	19.270	989.218	778.817
87.812	18.997	988.460	776.916
88.826	18.952	987.003	775.501
89.841	19.080	985.896	775.139
90.855	19.067	985.461	774.667
91.870	19.140	984.495	774.168
92.884	19.018	984.207	773.328
93.899	19.014	982.675	772.038
94.914	18.955	981.395	770.697
95.928	19.105	981.445	771.339
96.943	19.173	980.099	770.520
97.957	18.788	979.284	768.089
98.972	18.636	978.044	766.369
99.987	18.371	976.952	764.266
101.001	18.653	976.124	764.804
102.016	18.859	975.535	765.193
103.030	18.964	974.624	764.877
104.045	19.010	973.075	763.802
105.060	18.779	972.172	762.001
106.074	18.479	971.001	759.685
107.089	18.539	970.849	759.763
108.103	18.786	970.472	760.494
109.118	19.033	969.852	761.036
110.133	18.635	968.431	758.096
111.147	18.760	967.208	757.620
112.162	18.736	965.880	756.407
113.176	18.449	964.711	754.163
114.191	18.668	964.088	754.573
115.206	18.699	962.938	753.741
116.220	18.381	962.434	751.884
117.235	18.344	961.125	750.635
118.249	18.524	959.888	750.390
119.264	18.594	959.137	750.043
120.279	18.469	958.302	748.775
121.293	18.435	957.439	747.888
122.308	18.492	957.044	747.760
123.322	18.540	956.392	747.397
124.337	18.660	954.797	746.606
125.352	18.541	953.324	744.869
126.366	18.158	951.997	742.105
127.381	17.926	950.129	739.578
128.395	18.216	950.388	740.972
129.410	18.793	950.007	743.106
130.424	18.980	948.832	742.931
131.439	18.919	947.924	741.887
132.454	18.776	946.500	740.092
133.468	18.884	945.537	739.740
134.483	18.870	944.627	738.901
135.497	18.913	944.075	738.591
136.512	18.994	944.352	739.088
137.527	19.085	942.908	738.285
138.541	18.975	942.090	737.104
139.556	19.178	941.281	737.276
140.570	19.134	940.247	736.215
141.585	19.137	939.466	735.549
142.600	19.127	938.773	734.898
143.614	18.966	937.915	733.478
144.629	19.137	937.001	733.426
145.643	19.331	936.624	733.891
146.658	19.285	935.465	732.721
147.673	19.150	933.959	730.903
148.687	19.005	933.161	729.602
149.702	19.028	932.164	728.854
150.716	18.987	931.257	727.909
151.731	19.051	930.233	727.312
152.746	18.997	930.188	726.985
153.760	19.103	929.427	726.775
154.775	19.321	928.552	726.946
155.789	19.421	927.554	726.522
156.804	19.298	926.488	725.101
157.819	19.223	925.570	724.006
158.833	19.152	925.104	723.279
159.848	19.289	924.409	723.245
160.862	19.286	923.235	722.252
161.877	19.223	922.015	720.967
162.892	19.171	921.370	720.182
163.906	19.352	920.739	720.385
164.921	19.303	919.882	719.444
165.935	19.361	918.584	718.608
166.950	19.246	917.811	717.461
167.964	19.350	916.801	717.039
168.979	19.209	915.850	715.645
169.994	19.135	914.971	714.591
171.008	19.196	913.590	713.698
172.023	19.232	912.827	713.190
173.037	19.451	911.839	713.261
174.052	19.154	911.011	711.322
175.067	18.964	909.916	709.620
176.081	19.016	909.610	709.536
177.096	19.103	908.543	708.999
178.110	19.165	907.912	708.699
179.125	19.056	906.920	707.411
180.140	18.685	905.896	705.026
181.154	18.853	905.096	705.034
182.169	18.962	904.521	704.967
183.183	19.081	904.156	705.109
184.198	19.308	903.841	705.732
185.213	19.190	903.415	704.853
186.227	19.287	902.424	704.413
187.242	19.300	901.841	703.951
188.256	19.465	900.974	703.884
189.271	19.203	899.901	701.916
190.286	19.391	899.428	702.249
191.300	19.236	898.766	701.042
192.315	18.893	897.392	698.514
193.329	18.227	895.762	694.480
194.344	17.893	895.106	692.554
195.359	18.336	895.325	694.462
196.373	19.104	895.525	697.669
197.388	19.171	895.306	697.706
198.402	19.131	893.957	696.433
199.417	18.977	893.527	695.415
200.432	19.128	893.192	695.699
201.446	18.920	892.258	694.075
202.461	18.675	891.520	692.449
203.475	18.671	891.029	691.989
204.490	18.282	889.635	689.279
205.504	17.181	887.783	683.356
206.519	17.817	887.922	685.963
207.534	18.708	888.026	689.563
208.548	18.719	887.112	688.835
209.563	19.049	887.032	690.038
210.577	19.191	886.579	690.192
211.592	18.927	885.381	688.142
212.607	19.286	884.916	689.155
213.621	19.458	884.162	689.193
214.636	19.242	883.968	688.119
215.650	19.387	883.504	688.276
216.665	19.290	882.950	687.396
217.680	19.331	882.278	686.974
218.694	19.376	881.866	686.773
219.709	19.213	880.368	684.898
220.723	18.789	879.549	682.514
221.738	19.064	879.163	683.246
222.753	19.249	878.852	683.682
223.767	19.120	878.038	682.474
224.782	19.171	877.229	681.987
225.796	19.354	876.488	682.075
226.811	19.520	876.165	682.420
227.826	19.090	875.038	679.783
228.840	18.349	873.661	675.731
229.855	18.394	872.766	675.158
230.869	18.613	872.583	675.818
231.884	18.321	871.424	673.712
232.899	18.330	871.102	673.437
233.913	19.132	871.380	676.749
234.928	19.249	871.198	677.007
235.942	19.241	869.953	675.948
236.957	19.376	869.431	676.011
237.972	18.899	868.568	673.412
238.986	18.785	867.808	672.318
240.001	19.022	867.236	672.741
241.015	19.058	866.590	672.321
242.030	19.042	865.734	671.534
243.045	19.166	865.490	671.769
244.059	19.183	864.820	671.256
245.074	19.451	864.244	671.793
246.088	19.280	863.352	670.377
247.103	18.984	862.327	668.373
248.117	18.957	861.926	667.898
249.132	19.564	861.711	670.025
250.147	19.770	861.307	670.452
251.161	19.834	860.460	669.982
252.176	19.980	860.101	670.209
253.190	19.958	859.033	669.231
254.205	19.919	858.793	668.833
255.220	20.261	858.110	669.562
256.234	20.043	857.797	668.417
257.249	20.014	857.057	667.670
258.263	19.817	856.334	666.292
259.278	19.951	855.508	666.104
260.293	20.010	855.332	666.136
261.307	20.114	854.403	665.752
262.322	19.992	853.913	664.845
263.336	19.718	853.294	663.252
264.351	19.494	851.207	660.714
265.366	18.311	849.529	654.830
266.380	17.920	848.738	652.666
267.395	18.732	849.266	656.119
268.409	19.453	849.592	659.068
269.424	19.613	848.493	658.767
270.439	19.744	848.179	658.965
271.453	19.816	847.900	658.966
272.468	19.849	846.717	658.114
273.482	20.071	846.032	658.368
274.497	20.071	846.032	658.308
275.512	19.995	844.701	656.926
276.526	19.423	843.178	653.516
277.541	19.563	843.178	653.989
278.555	19.922	843.054	655.196
279.570	19.752	841.684	653.428
280.585	19.457	840.801	651.574
281.599	19.681	840.581	652.191
282.614	19.769	840.158	652.134
283.628	19.497	838.795	649.998
284.643	19.234	838.095	648.408
285.657	19.501	838.244	649.469
286.672	19.467	837.154	648.440
287.687	18.815	836.711	645.591
288.701	19.227	836.425	646.859
289.716	19.671	835.805	647.987
290.730	19.245	834.746	645.512
291.745	19.307	834.160	645.235
292.760	18.864	833.454	642.973
293.774	19.033	832.444	642.769
294.789	19.678	833.485	645.928
295.803	20.340	833.326	648.222
296.818	20.342	832.762	647.733
297.833	20.506	832.115	647.784
298.847	20.176	830.749	645.436
299.862	19.915	829.834	643.697
300.876	20.204	829.639	644.561
301.891	20.321	829.625	644.928
302.906	20.501	828.532	644.691
303.920	20.091	827.481	642.296
304.935	19.906	826.439	640.745
305.949	20.165	826.346	641.574
306.964	20.127	826.226	641.285
307.979	20.133	825.625	640.785
308.993	20.080	824.944	640.003
310.008	20.453	824.824	641.229
311.022	20.502	824.438	641.053
312.037	20.395	823.519	639.889
313.052	20.226	823.021	638.823
314.066	20.103	822.032	637.547
315.081	19.696	820.258	634.618
316.095	19.053	819.562	631.664
317.110	19.439	819.442	632.932
318.125	20.214	820.122	636.247
319.139	19.833	819.207	634.086
320.154	18.664	817.720	628.597
321.168	18.380	816.334	626.437
322.183	19.035	816.588	628.973
323.197	19.788	816.981	631.971
324.212	19.951	816.545	632.176
325.227	20.303	815.854	632.869
326.241	20.354	815.766	632.929
327.256	20.195	815.248	631.893
328.270	20.262	814.622	631.596
329.285	20.004	814.075	630.175
330.300	19.857	813.279	628.971
331.314	19.786	812.457	628.021
332.329	19.937	811.398	627.695
333.343	20.270	811.161	628.660
334.358	20.369	810.795	628.681
335.373	20.370	810.068	628.064
336.387	20.342	809.865	627.751
337.402	20.450	809.774	628.017
338.416	20.766	808.609	628.199
339.431	20.610	808.313	627.348
340.446	20.710	807.930	627.355
341.460	20.772	807.220	626.972
342.475	20.761	806.439	626.272
343.489	20.521	805.749	624.819
344.504	20.571	805.421	624.689
345.519	20.716	805.268	625.035
346.533	21.060	804.864	625.899
347.548	20.990	804.399	625.231
348.562	21.111	803.948	625.262
349.577	21.151	803.244	624.802
350.592	21.086	802.633	624.036
351.606	20.897	802.356	623.092
352.621	21.031	801.890	623.154
353.635	20.845	801.379	622.036
354.650	20.871	800.477	621.374
355.665	20.737	799.478	620.066
356.679	19.624	798.195	615.055
357.694	19.410	797.960	614.060
358.708	20.094	797.481	616.068
359.723	20.128	797.096	615.835
360.738	20.297	796.842	616.185
361.752	20.658	796.615	617.237
362.767	20.874	796.332	617.730
363.781	20.940	796.193	617.801
364.796	21.348	795.615	618.741
365.810	21.408	795.562	618.857
366.825	21.233	795.469	618.111
367.840	21.315	794.796	617.824
368.854	21.163	794.168	616.744
369.869	20.798	793.227	614.671
370.883	20.834	792.528	614.203
371.898	20.699	792.286	613.483
372.913	20.540	791.388	612.174
373.927	20.634	790.631	611.867
374.942	20.925	790.028	612.366
375.956	20.908	789.789	612.067
376.971	20.975	789.208	611.800
377.986	21.193	788.862	612.242
379.000	21.341	788.158	612.157
380.015	21.216	788.013	611.555
381.029	21.052	787.399	610.452
382.044	21.139	786.690	610.149
383.059	21.364	786.021	610.365
384.073	21.227	785.964	609.787
385.088	21.287	785.178	609.332
386.102	21.456	784.755	609.538
387.117	21.210	784.314	608.286
388.132	21.178	783.684	607.631
389.146	21.102	782.939	606.738
390.161	20.530	781.946	603.927
391.175	20.558	781.683	603.767
392.190	20.906	781.525	604.799
393.205	21.028	780.958	604.729
394.219	20.132	779.536	600.474
395.234	18.816	777.280	594.134
396.248	18.229	776.656	591.577
397.263	19.180	777.478	595.439
398.278	20.795	778.550	601.794
399.292	21.189	778.507	603.068
400.307	20.956	777.708	601.592
401.321	20.866	777.396	600.985
402.336	20.862	777.126	600.710
403.350	21.031	777.049	601.183
404.365	21.532	776.907	602.745
405.380	21.834	776.405	603.341
406.394	22.004	776.057	603.601
407.409	22.081	775.822	603.631
408.423	22.046	775.384	603.114
409.438	21.714	774.871	601.524
410.453	22.042	774.206	602.079
411.467	21.958	774.221	601.749
412.482	21.877	773.287	600.692
413.496	21.918	772.921	600.495
414.511	22.074	772.433	600.597
415.526	21.930	772.228	599.892
416.540	21.987	771.823	599.719
417.555	21.929	771.468	599.193
418.569	21.720	770.544	597.708
419.584	21.586	770.378	597.069
420.599	21.706	769.833	597.004
421.613	157.973	1361.246	1796.769
422.628	136.193	1447.422	1796.865
