DTS Sentinel unit serial number:	SN413079Multiplexer serial number:	ORYXHardware model number:	OX4-SRSoftware version number:	ORYX F/W v4.00 Oryx Data Collector v3.7.2.0data status	okinstallation	princeton_trtdifferential loss correction	single-endedforward channel	channel 3reverse channel	N/Adate	2019/09/10time	20:22:11forward acquisition time	60.00reverse acquisition time	0.00gamma	496.2192k internal	0.2326k external	0.2326temperature offset calibration	0.9921default loss term (dB/km)	0.3790temperature slope calibration	1.0000multiplexer offset coefficient	1.0000multiplexer slope coefficient	1.0000fibre end	0.00T internal ref (°C)	32.17T ext. ref 1 (°C)	-0.29T ext. ref 2 (°C)	25.28length (m)	temperature (°C)	Stokes	anti-Stokes-747.200	186.391	-0.137	0.206
-746.185	136.027	-0.219	0.288
-745.171	161.763	0.106	0.150
-744.156	229.215	-0.088	-0.145
-743.142	-134.245	-0.120	0.015
-742.127	-154.693	-0.189	-0.013
-741.112	-117.802	-0.369	0.067
-740.098	48.065	-0.101	0.096
-739.083	29.655	-0.126	0.108
-738.069	-38.730	-0.533	0.284
-737.054	-78.450	-0.083	0.029
-736.039	800.000	0.039	-0.110
-735.025	-200.000	0.019	-0.242
-734.010	-121.042	-0.165	-0.028
-732.996	58.705	-0.230	-0.228
-731.981	-148.726	-0.177	0.015
-730.966	23.770	0.123	-0.102
-729.952	-129.738	-0.142	0.020
-728.937	-200.000	-0.005	0.066
-727.923	-88.733	-0.370	0.111
-726.908	103.608	-0.223	-0.264
-725.894	800.000	-0.068	-0.245
-724.879	663.908	-0.035	0.092
-723.864	-41.099	-0.273	-0.142
-722.850	146.686	0.080	-0.108
-721.835	137.300	0.205	0.270
-720.821	-72.388	-0.226	0.084
-719.806	2.892	-0.211	-0.154
-718.791	566.648	0.123	0.300
-717.777	-14.895	-0.162	-0.105
-716.762	-99.327	0.222	0.056
-715.748	28.118	0.083	0.070
-714.733	-132.033	-0.104	-0.014
-713.718	788.075	0.119	-0.331
-712.704	-167.427	0.170	-0.007
-711.689	-92.451	0.100	-0.028
-710.675	-40.988	-0.120	-0.062
-709.660	-99.793	-0.060	0.015
-708.645	135.091	0.201	-0.263
-707.631	217.981	0.178	-0.286
-706.616	-14.497	0.255	0.165
-705.602	-200.000	0.014	-0.184
-704.587	-173.984	0.136	-0.004
-703.572	102.111	-0.066	0.077
-702.558	-156.968	-0.248	0.015
-701.543	-102.036	0.449	0.109
-700.529	412.739	-0.091	-0.195
-699.514	-39.958	-0.183	0.096
-698.499	12.139	0.149	0.115
-697.485	-33.935	-0.399	-0.221
-696.470	-200.000	0.003	-0.207
-695.456	-200.000	-0.009	-0.114
-694.441	-100.179	-0.243	-0.061
-693.426	-55.976	-0.286	0.128
-692.412	777.579	-0.139	0.382
-691.397	-12.893	-0.409	-0.268
-690.383	-88.153	-0.113	-0.034
-689.368	297.452	-0.110	-0.204
-688.354	199.688	0.054	0.084
-687.339	-72.564	-0.105	-0.039
-686.324	-200.000	0.030	0.268
-685.310	800.000	0.064	0.235
-684.295	-69.892	-0.123	0.047
-683.281	-60.790	-0.270	-0.115
-682.266	31.215	-0.201	-0.174
-681.251	800.000	0.023	-0.095
-680.237	-35.165	-0.122	0.067
-679.222	800.000	0.050	-0.179
-678.208	689.560	0.136	-0.358
-677.193	-84.997	-0.327	0.103
-676.178	-166.525	-0.123	0.005
-675.164	150.137	0.171	-0.234
-674.149	800.000	-0.058	-0.184
-673.135	-63.394	-0.297	0.123
-672.120	-113.702	-0.287	-0.056
-671.105	-151.016	-0.111	0.008
-670.091	123.675	-0.135	-0.170
-669.076	40.385	0.262	-0.237
-668.062	-19.724	-0.142	-0.088
-667.047	5.347	-0.122	-0.091
-666.032	-35.070	0.141	-0.077
-665.018	-79.858	-0.230	-0.078
-664.003	-27.938	-0.189	-0.110
-662.989	-200.000	-0.011	0.181
-661.974	6.779	0.100	0.075
-660.959	-146.940	-0.166	0.014
-659.945	87.298	0.151	-0.168
-658.930	-85.498	-0.203	0.063
-657.916	-169.781	0.287	-0.010
-656.901	-40.696	-0.257	0.134
-655.886	-45.993	0.151	-0.075
-654.872	-76.834	0.073	-0.026
-653.857	270.157	-0.162	0.287
-652.843	800.000	0.061	0.244
-651.828	800.000	-0.173	-0.506
-650.814	-111.762	0.082	-0.017
-649.799	6.729	-0.098	0.073
-648.784	-8.570	-0.112	-0.075
-647.770	-200.000	-0.054	-0.283
-646.755	-200.000	-0.053	0.243
-645.741	-200.000	-0.011	0.110
-644.726	130.463	0.197	-0.253
-643.711	138.709	0.160	0.211
-642.697	-200.000	-0.108	-0.500
-641.682	-27.435	-0.124	-0.073
-640.668	-78.799	0.374	0.128
-639.653	-200.000	-0.003	-0.059
-638.638	-200.000	-0.012	0.275
-637.624	-25.114	-0.184	0.110
-636.609	-200.000	0.026	-0.330
-635.595	250.601	-0.328	-0.560
-634.580	136.522	-0.175	0.230
-633.565	143.946	0.141	0.188
-632.551	-132.117	-0.359	0.047
-631.536	-29.998	-0.235	0.135
-630.522	-27.287	0.391	-0.229
-629.507	99.660	0.152	0.177
-628.492	-200.000	-0.038	0.261
-627.478	1.109	0.501	0.361
-626.463	102.314	-0.103	0.120
-625.449	800.000	-0.015	-0.056
-624.434	800.000	0.123	0.413
-623.419	-200.000	0.029	-0.169
-622.405	-137.792	-0.125	0.014
-621.390	642.622	0.057	0.146
-620.376	15.639	-0.361	0.285
-619.361	-17.177	0.169	0.107
-618.346	-64.103	-0.266	0.109
-617.332	227.293	0.209	0.340
-616.317	-178.987	0.244	-0.006
-615.303	-57.559	-0.054	-0.024
-614.288	24.361	0.426	-0.353
-613.273	-108.807	0.070	0.015
-612.259	-15.835	-0.183	0.117
-611.244	-200.000	0.011	0.125
-610.230	789.808	0.052	-0.142
-609.215	800.000	-0.013	-0.044
-608.201	85.915	-0.043	-0.048
-607.186	800.000	0.015	0.047
-606.171	44.257	0.287	-0.264
-605.157	-200.000	0.070	-0.444
-604.142	-12.894	-0.048	-0.031
-603.128	54.514	-0.200	-0.193
-602.113	-37.399	-0.151	0.081
-601.098	232.714	0.069	-0.114
-600.084	800.000	-0.057	0.220
-599.069	-39.049	-0.237	0.125
-598.055	546.916	0.052	-0.124
-597.040	-132.800	0.111	-0.014
-596.025	800.000	-0.065	-0.280
-595.011	173.423	0.016	0.023
-593.996	360.225	-0.044	0.088
-592.982	-200.000	0.182	-0.001
-591.967	-200.000	0.013	-0.107
-590.952	-141.101	0.281	-0.029
-589.938	-101.371	-0.298	-0.073
-588.923	-200.000	0.017	-0.190
-587.909	83.051	-0.097	-0.106
-586.894	-128.881	-0.094	-0.013
-585.879	-137.403	0.292	-0.033
-584.865	254.500	-0.085	0.147
-583.850	-180.076	0.294	-0.006
-582.836	64.412	-0.049	-0.050
-581.821	-153.255	-0.159	0.011
-580.806	-158.384	-0.532	0.031
-579.792	-200.000	0.028	-0.141
-578.777	800.000	-0.032	-0.138
-577.763	-91.463	0.090	0.026
-576.748	4.183	0.195	-0.143
-575.733	-120.648	0.200	-0.034
-574.719	-200.000	-0.046	0.254
-573.704	-200.000	-0.011	-0.077
-572.690	-43.106	-0.063	0.032
-571.675	574.471	-0.017	0.041
-570.661	800.000	-0.084	-0.312
-569.646	489.097	-0.185	0.423
-568.631	-60.478	0.052	-0.022
-567.617	161.774	0.085	-0.119
-566.602	123.232	0.023	-0.029
-565.588	-200.000	0.009	0.241
-564.573	539.752	-0.061	0.145
-563.558	-117.360	0.265	-0.048
-562.544	-175.109	-0.244	0.007
-561.529	-116.590	-0.302	0.056
-560.515	-200.000	-0.050	0.474
-559.500	-94.704	0.064	0.017
-558.485	-177.223	0.202	0.005
-557.471	800.000	-0.036	0.118
-556.456	-59.733	-0.330	0.141
-555.442	49.148	0.201	-0.189
-554.427	-162.624	0.160	-0.008
-553.412	-200.000	-0.052	-0.413
-552.398	-200.000	0.049	-0.304
-551.383	-166.517	0.234	0.010
-550.369	555.396	0.140	0.336
-549.354	285.180	-0.096	0.173
-548.339	-4.550	-0.067	0.046
-547.325	-200.000	-0.035	-0.399
-546.310	492.155	-0.091	0.208
-545.296	-200.000	-0.075	0.331
-544.281	381.117	-0.134	0.275
-543.266	-81.052	0.207	0.069
-542.252	-200.000	0.005	-0.203
-541.237	-159.901	0.035	0.002
-540.223	-119.232	-0.359	0.063
-539.208	344.055	0.167	-0.327
-538.193	-116.138	0.457	-0.085
-537.179	-26.698	-0.146	-0.086
-536.164	11.666	0.174	-0.133
-535.150	-117.066	0.142	0.026
-534.135	249.797	0.156	-0.266
-533.121	-170.533	-0.197	-0.007
-532.106	-71.807	0.108	-0.040
-531.091	33.988	0.103	0.090
-530.077	-89.859	-0.204	0.060
-529.062	-26.249	-0.149	0.088
-528.048	-83.283	-0.119	-0.038
-527.033	-66.886	-0.431	-0.170
-526.018	76.747	-0.185	-0.196
-525.004	312.611	-0.155	0.291
-523.989	246.840	-0.062	-0.104
-522.975	-200.000	-0.039	0.326
-521.960	-200.000	-0.019	-0.104
-520.945	-200.000	-0.019	-0.176
-519.931	-116.740	0.166	0.031
-518.916	-106.990	-0.076	0.017
-517.902	-88.184	0.250	-0.075
-516.887	-200.000	0.085	-0.396
-515.872	-42.960	-0.125	-0.063
-514.858	-128.004	0.065	-0.009
-513.843	198.781	0.150	-0.230
-512.829	-54.316	0.177	0.080
-511.814	-70.181	-0.441	-0.168
-510.799	207.960	-0.066	-0.103
-509.785	91.205	-0.227	-0.254
-508.770	-159.919	-0.239	-0.013
-507.756	-78.275	-0.313	0.107
-506.741	800.000	0.025	-0.071
-505.726	-200.000	-0.023	0.142
-504.712	800.000	-0.081	-0.260
-503.697	-150.482	-0.316	-0.024
-502.683	140.799	0.255	-0.337
-501.668	121.299	0.172	-0.214
-500.653	228.459	0.060	-0.097
-499.639	28.765	-0.175	0.148
-498.624	-160.440	0.310	-0.017
-497.610	58.448	0.258	0.253
-496.595	800.000	-0.026	-0.078
-495.581	-2.240	-0.195	-0.137
-494.566	62.818	0.091	0.091
-493.551	-75.404	0.183	-0.065
-492.537	176.519	0.125	-0.182
-491.522	-31.073	0.156	-0.088
-490.508	55.541	-0.172	0.166
-489.493	-200.000	-0.022	0.130
-488.478	-144.088	-0.080	-0.007
-487.464	-159.372	0.465	0.026
-486.449	-15.197	-0.146	0.093
-485.435	-93.104	-0.188	0.052
-484.420	379.290	0.192	0.393
-483.405	-153.752	-0.095	0.007
-482.391	-200.000	-0.014	-0.116
-481.376	-17.263	0.301	-0.189
-480.362	-27.082	0.199	0.116
-479.347	66.557	0.163	0.165
-478.332	5.252	0.039	-0.029
-477.318	-130.202	0.094	-0.013
-476.303	132.772	0.190	-0.245
-475.289	800.000	-0.110	-0.362
-474.274	-200.000	0.020	-0.392
-473.259	-74.690	-0.177	-0.064
-472.245	-153.588	-0.030	0.002
-471.230	800.000	-0.035	-0.099
-470.216	90.507	-0.178	0.199
-469.201	-52.391	-0.088	0.041
-468.186	-90.126	-0.188	0.055
-467.172	-91.156	0.214	0.061
-466.157	-200.000	-0.001	0.187
-465.143	151.216	-0.155	-0.210
-464.128	-116.228	0.510	-0.094
-463.113	-200.000	-0.041	0.180
-462.099	91.462	-0.102	-0.115
-461.084	660.137	-0.054	0.139
-460.070	800.000	-0.046	-0.171
-459.055	96.648	-0.204	-0.234
-458.040	49.078	-0.208	0.195
-457.026	-43.098	-0.142	0.072
-456.011	800.000	0.014	0.049
-454.997	-55.076	0.055	-0.025
-453.982	-152.703	0.226	-0.016
-452.968	-200.000	-0.004	0.119
-451.953	2.308	0.102	0.074
-450.938	-200.000	0.007	-0.217
-449.924	800.000	0.027	-0.097
-448.909	-97.874	-0.278	-0.072
-447.895	-159.645	0.095	-0.005
-446.880	105.216	-0.054	-0.063
-445.865	-48.918	-0.196	-0.094
-444.851	-200.000	0.009	-0.289
-443.836	-80.523	-0.165	-0.055
-442.822	-86.555	-0.155	0.047
-441.807	353.467	0.136	0.270
-440.792	-75.653	-0.330	0.117
-439.778	74.609	-0.177	0.186
-438.763	261.977	-0.068	0.117
-437.749	614.181	-0.100	0.250
-436.734	264.191	-0.126	-0.218
-435.719	-200.000	-0.010	0.074
-434.705	-8.390	0.381	-0.255
-433.690	-14.199	0.207	0.133
-432.676	-200.000	0.038	0.247
-431.661	352.722	-0.104	0.206
-430.646	-129.652	0.168	0.023
-429.632	-137.646	0.185	0.021
-428.617	-162.315	-0.254	0.013
-427.603	315.957	-0.110	-0.206
-426.588	-140.060	0.327	0.034
-425.573	-77.912	-0.393	0.135
-424.559	236.953	0.135	-0.223
-423.544	-45.042	0.183	0.091
-422.530	122.683	0.154	0.191
-421.515	-97.464	-0.155	0.040
-420.500	122.993	-0.169	-0.211
-419.486	-110.059	0.251	-0.052
-418.471	24.021	-0.248	-0.204
-417.457	134.362	0.198	0.256
-416.442	48.825	0.114	0.106
-415.428	-200.000	0.023	0.308
-414.413	16.209	-0.147	0.116
-413.398	-141.916	0.239	-0.024
-412.384	57.976	-0.095	0.093
-411.369	101.582	0.136	0.158
-410.355	-102.081	0.317	-0.076
-409.340	-27.824	-0.146	0.084
-408.325	800.000	0.078	0.248
-407.311	-200.000	-0.013	0.367
-406.296	-200.000	0.148	-0.000
-405.282	-200.000	-0.051	-0.322
-404.267	-200.000	-0.055	0.333
-403.252	-136.902	0.080	0.009
-402.238	800.000	0.075	0.284
-401.223	119.327	0.265	-0.327
-400.209	-136.723	0.150	-0.017
-399.194	-39.844	-0.149	0.077
-398.179	-57.351	-0.231	-0.101
-397.165	-200.000	0.061	-0.443
-396.150	355.677	0.126	0.250
-395.136	-200.000	0.045	0.432
-394.121	-81.394	-0.247	0.081
-393.106	72.599	0.145	-0.150
-392.092	-79.726	0.141	0.047
-391.077	-200.000	-0.025	-0.289
-390.063	800.000	-0.084	-0.274
-389.048	37.142	0.225	0.198
-388.033	-194.583	-0.230	-0.002
-387.019	140.230	0.276	0.363
-386.004	-200.000	-0.042	-0.183
-384.990	800.000	-0.084	0.292
-383.975	-200.000	0.005	-0.096
-382.960	-200.000	-0.005	-0.602
-381.946	-65.317	-0.220	-0.088
-380.931	109.671	-0.022	0.026
-379.917	343.846	0.066	0.129
-378.902	-200.000	0.034	0.182
-377.888	-200.000	0.053	-0.285
-376.873	-7.170	0.052	0.035
-375.858	-200.000	-0.051	0.261
-374.844	82.161	0.054	0.059
-373.829	-48.811	-0.333	0.159
-372.815	-145.569	0.222	-0.020
-371.800	-200.000	0.033	-0.346
-370.785	-31.294	0.188	0.105
-369.771	-165.776	0.110	0.005
-368.756	-200.000	0.008	-0.086
-367.742	1.645	-0.097	0.070
-366.727	-200.000	-0.027	0.164
-365.712	-200.000	-0.029	0.129
-364.698	800.000	-0.069	0.284
-363.683	800.000	0.006	0.025
-362.669	-200.000	0.050	-0.246
-361.654	800.000	-0.058	-0.206
-360.639	82.278	-0.161	-0.173
-359.625	5.347	0.225	0.165
-358.610	-75.804	-0.315	-0.111
-357.596	-96.490	0.296	0.078
-356.581	-200.000	0.029	0.231
-355.566	600.211	0.097	0.240
-354.552	449.855	-0.147	0.323
-353.537	-125.447	0.185	0.028
-352.523	-78.685	0.077	0.026
-351.508	-121.496	0.251	-0.041
-350.493	-127.072	-0.344	-0.050
-349.479	17.190	-0.260	0.205
-348.464	-109.405	-0.007	0.001
-347.450	-101.487	-0.126	-0.030
-346.435	800.000	0.032	0.122
-345.420	466.935	-0.100	-0.223
-344.406	112.193	-0.242	-0.291
-343.391	-147.734	-0.032	0.003
-342.377	-200.000	0.006	-0.073
-341.362	-165.461	-0.331	0.014
-340.348	29.604	-0.267	-0.225
-339.333	-108.249	-0.185	-0.040
-338.318	-55.826	-0.123	-0.054
-337.304	-99.390	0.128	-0.032
-336.289	524.669	0.071	-0.165
-335.275	-113.472	-0.188	-0.037
-334.260	-200.000	0.026	0.114
-333.245	-168.920	0.292	-0.011
-332.231	614.434	-0.168	-0.417
-331.216	-200.000	-0.004	-0.254
-330.202	-200.000	0.007	0.087
-329.187	-165.340	0.404	0.018
-328.172	-125.531	0.183	-0.028
-327.158	-62.813	0.506	-0.208
-326.143	-34.933	-0.088	-0.048
-325.129	-85.716	-0.325	-0.100
-324.114	-25.976	-0.114	0.066
-323.099	-200.000	-0.020	0.314
-322.085	196.823	0.048	0.073
-321.070	285.683	-0.041	-0.074
-320.056	-200.000	0.031	-0.365
-319.041	-200.000	-0.022	-0.241
-318.026	-113.929	-0.087	0.017
-317.012	69.527	0.008	-0.008
-315.997	-127.360	0.274	0.040
-314.983	44.944	0.135	-0.124
-313.968	-200.000	-0.001	0.124
-312.953	-26.047	0.212	-0.124
-311.939	-200.000	-0.022	-0.224
-310.924	260.705	-0.128	0.220
-309.910	-200.000	-0.014	0.323
-308.895	800.000	-0.131	0.366
-307.880	38.193	-0.354	-0.313
-306.866	170.801	0.080	-0.113
-305.851	49.588	0.149	0.139
-304.837	800.000	-0.089	-0.263
-303.822	800.000	-0.031	0.103
-302.807	713.871	0.081	0.212
-301.793	800.000	-0.055	0.170
-300.778	463.753	0.014	0.030
-299.764	-19.518	-0.264	-0.162
-298.749	241.236	-0.221	0.367
-297.735	800.000	0.042	0.114
-296.720	-120.088	0.276	0.047
-295.705	70.874	0.167	-0.172
-294.691	800.000	0.024	-0.088
-293.676	389.790	-0.061	-0.126
-292.662	-46.542	-0.184	0.089
-291.647	9.061	-0.163	0.122
-290.632	2.000	0.246	0.176
-289.618	361.989	-0.047	0.093
-288.603	170.620	-0.144	-0.204
-287.589	-200.000	-0.006	-0.125
-286.574	800.000	0.031	0.123
-285.559	231.212	0.088	0.143
-284.545	800.000	-0.032	0.097
-283.530	484.750	0.033	-0.074
-282.516	-200.000	0.020	-0.468
-281.501	-159.505	0.226	0.012
-280.486	800.000	0.085	-0.251
-279.472	500.542	-0.069	0.157
-278.457	107.580	0.157	0.185
-277.443	252.559	0.075	0.127
-276.428	-6.356	-0.130	0.088
-275.413	42.464	0.135	-0.121
-274.399	-82.606	-0.366	0.118
-273.384	-128.901	0.303	-0.042
-272.370	-107.719	-0.109	-0.023
-271.355	-14.193	0.211	-0.135
-270.340	-124.752	0.079	-0.012
-269.326	-200.000	-0.022	-0.442
-268.311	-84.414	-0.140	0.044
-267.297	-33.204	0.029	-0.016
-266.282	-135.866	0.244	-0.029
-265.267	-200.000	0.027	-0.358
-264.253	240.653	0.136	0.225
-263.238	-47.651	-0.341	0.164
-262.224	61.648	-0.189	-0.186
-261.209	26.955	-0.216	-0.180
-260.195	800.000	-0.050	-0.172
-259.180	-200.000	-0.007	-0.216
-258.165	-106.756	0.364	-0.080
-257.151	124.352	0.132	-0.164
-256.136	-200.000	0.015	0.296
-255.122	34.199	-0.056	-0.048
-254.107	-200.000	0.061	0.288
-253.092	-180.158	-0.042	0.001
-252.078	-10.774	0.114	0.075
-251.063	316.464	0.085	-0.159
-250.049	-73.211	0.341	-0.124
-249.034	-91.737	0.339	-0.095
-248.019	-114.333	0.120	-0.023
-247.005	137.143	0.113	0.146
-245.990	-17.170	0.165	0.103
-244.976	453.597	-0.141	0.308
-243.961	-200.000	0.003	0.041
-242.946	161.692	-0.150	0.207
-241.932	-155.758	-0.137	-0.009
-240.917	-88.382	-0.040	0.012
-239.903	307.314	-0.055	-0.101
-238.888	-31.016	0.400	-0.223
-237.873	-101.434	-0.011	0.003
-236.859	-200.000	-0.017	-0.117
-235.844	234.011	-0.133	-0.217
-234.830	40.685	0.038	-0.034
-233.815	800.000	0.054	0.164
-232.800	85.515	-0.084	0.092
-231.786	-59.836	-0.242	0.102
-230.771	724.121	0.035	0.092
-229.757	-52.892	-0.157	-0.071
-228.742	-58.737	0.281	0.120
-227.727	-60.139	0.266	0.112
-226.713	-142.123	-0.203	-0.020
-225.698	-200.000	-0.094	-0.492
-224.684	81.369	0.129	0.138
-223.669	2.199	-0.214	0.153
-222.655	345.368	-0.086	0.167
-221.640	70.624	-0.180	-0.184
-220.625	-200.000	0.002	0.052
-219.611	-200.000	0.048	0.578
-218.596	-45.425	0.322	0.158
-217.582	180.084	0.129	0.186
-216.567	-179.413	-0.151	-0.003
-215.552	274.117	0.047	-0.083
-214.538	16.466	-0.128	-0.100
-213.523	-120.133	0.214	0.036
-212.509	-13.865	-0.246	0.157
-211.494	409.643	-0.104	-0.218
-210.479	-122.988	0.071	-0.011
-209.465	-144.821	-0.279	-0.025
-208.450	-200.000	-0.031	0.231
-207.436	-181.548	0.493	0.009
-206.421	-128.770	-0.040	0.006
-205.406	-70.077	-0.327	-0.123
-204.392	92.764	-0.129	0.144
-203.377	800.000	0.061	0.260
-202.363	800.000	0.054	0.214
-201.348	800.000	0.046	0.193
-200.333	600.991	0.084	0.205
-199.319	800.000	-0.019	-0.076
-198.304	800.000	0.057	-0.177
-197.290	-200.000	0.010	0.184
-196.275	243.431	-0.128	0.212
-195.260	-28.094	-0.143	-0.082
-194.246	-124.868	-0.132	0.020
-193.231	397.803	0.229	-0.473
-192.217	31.042	0.070	0.059
-191.202	800.000	0.090	-0.268
-190.187	-200.000	-0.030	-0.290
-189.173	-53.683	0.120	0.054
-188.158	237.821	0.095	-0.155
-187.144	87.780	0.073	-0.080
-186.129	-41.959	0.201	-0.101
-185.114	-31.633	-0.254	0.141
-184.100	100.782	-0.112	-0.129
-183.085	18.461	0.310	0.244
-182.071	176.344	0.191	0.274
-181.056	61.021	-0.152	0.149
-180.042	-164.040	0.149	0.007
-179.027	97.548	0.243	0.275
-178.012	57.513	0.125	0.121
-176.998	-104.582	-0.235	-0.053
-175.983	800.000	-0.073	0.266
-174.969	-2.952	0.263	-0.181
-173.954	31.183	-0.351	0.297
-172.939	582.742	0.119	0.287
-171.925	115.063	-0.052	-0.063
-170.910	-200.000	0.057	-0.396
-169.896	-72.212	0.293	-0.107
-168.881	361.835	0.071	0.140
-167.866	-200.000	0.020	-0.110
-166.852	-200.000	0.003	0.290
-165.837	-71.621	-0.313	-0.115
-164.823	-71.676	0.268	0.099
-163.808	93.363	-0.214	-0.239
-162.793	800.000	-0.075	0.238
-161.779	-160.420	-0.622	0.033
-160.764	-200.000	0.048	-0.266
-159.750	561.947	0.023	0.056
-158.735	122.208	0.140	0.173
-157.720	134.187	-0.059	0.076
-156.706	-101.924	-0.295	-0.070
-155.691	-200.000	-0.066	-0.290
-154.677	-97.939	-0.037	0.009
-153.662	-200.000	0.020	0.168
-152.647	162.443	-0.158	-0.218
-151.633	-131.273	-0.383	-0.050
-150.618	208.137	0.222	0.342
-149.604	-200.000	0.037	-0.173
-148.589	-65.989	0.358	-0.141
-147.574	-141.543	0.347	0.035
-146.560	-200.000	-0.035	-0.288
-145.545	98.173	0.025	0.028
-144.531	-15.455	-0.282	-0.178
-143.516	161.199	0.171	0.236
-142.502	291.232	0.143	0.256
-141.487	68.765	0.117	-0.118
-140.472	98.450	0.215	0.244
-139.458	-200.000	0.013	0.141
-138.443	28.105	-0.223	0.185
-137.429	66.125	0.022	-0.022
-136.414	224.711	0.094	-0.150
-135.399	-165.422	0.282	0.012
-134.385	-200.000	0.027	-0.315
-133.370	-45.398	0.218	-0.106
-132.356	58.672	-0.053	-0.052
-131.341	441.071	0.200	-0.431
-130.326	345.897	0.017	0.033
-129.312	800.000	0.112	-0.355
-128.297	-87.644	-0.295	0.088
-127.283	-122.243	-0.363	0.058
-126.268	-126.371	-0.331	-0.049
-125.253	-200.000	-0.009	0.235
-124.239	167.086	-0.117	-0.163
-123.224	-67.112	-0.229	-0.089
-122.210	-146.701	0.275	-0.023
-121.195	470.960	0.050	0.111
-120.180	146.065	0.403	-0.533
-119.166	-200.000	0.054	0.452
-118.151	-200.000	0.028	0.194
-117.137	46.314	-0.135	-0.123
-116.122	800.000	0.053	0.150
-115.107	78.729	-0.135	0.142
-114.093	388.046	-0.071	-0.145
-113.078	230.485	-0.151	0.242
-112.064	90.536	-0.217	-0.240
-111.049	-136.119	0.103	0.012
-110.034	-157.656	0.140	-0.008
-109.020	76.515	-0.148	0.154
-108.005	-200.000	0.023	0.208
-106.991	-75.981	-0.127	-0.044
-105.976	-200.000	-0.380	-0.001
-104.962	71.336	0.147	0.150
-103.947	9.795	-0.110	-0.082
-102.932	142.362	0.119	0.156
-101.918	-76.691	0.187	0.064
-100.903	-200.000	0.319	0.000
-99.889	574.239	0.182	-0.437
-98.874	36.117	-0.156	-0.135
-97.859	-97.201	-0.195	-0.050
-96.845	-158.086	0.275	0.016
-95.830	48.502	-0.069	-0.064
-94.816	188.245	-0.104	0.152
-93.801	10.600	0.066	-0.049
-92.786	-200.000	-0.041	0.333
-91.772	484.763	0.204	0.457
-90.757	549.298	-0.114	0.268
-89.743	93.375	-0.169	-0.188
-88.728	156.297	-0.117	0.159
-87.713	-15.624	0.472	0.296
-86.699	-199.853	-0.335	-0.002
-85.684	-200.000	0.019	-0.204
-84.670	99.116	0.071	-0.081
-83.655	800.000	-0.081	0.277
-82.640	-189.062	0.279	-0.003
-81.626	-144.836	0.448	0.040
-80.611	403.241	0.051	0.106
-79.597	-16.882	-0.141	-0.087
-78.582	-26.911	-0.094	0.054
-77.567	-110.142	-0.214	0.044
-76.553	-43.096	0.178	0.089
-75.538	90.758	-0.060	0.066
-74.524	126.382	0.094	-0.117
-73.509	-175.748	0.370	0.010
-72.494	418.426	-0.099	-0.209
-71.480	-120.549	0.351	0.058
-70.465	-73.271	0.379	0.136
-69.451	-200.000	-0.029	-0.415
-68.436	800.000	-0.071	0.192
-67.422	4.379	0.315	0.227
-66.407	800.000	-0.022	-0.072
-65.392	-200.000	-0.005	-0.175
-64.378	800.000	-0.090	-0.268
-63.363	-133.619	-0.158	-0.019
-62.349	-22.579	-0.162	-0.096
-61.334	-6.009	-1.193	-0.801
-60.319	77.400	0.316	0.331
-59.305	800.000	-0.234	-0.979
-58.290	449.086	0.576	1.247
-57.276	405.570	0.752	1.558
-56.261	-200.000	97.953	597.182
-55.246	605.162	1405.022	3436.031
-54.232	191.555	2597.649	3841.967
-53.217	116.238	2171.567	2612.344
-52.203	42.823	1709.389	1529.286
-51.188	35.446	1523.186	1312.442
-50.173	33.012	1496.534	1273.048
-49.159	51.543	1547.930	1444.321
-48.144	53.427	1564.341	1472.507
-47.130	35.581	1522.805	1312.828
-46.115	32.459	1508.052	1278.885
-45.100	32.302	1504.819	1275.029
-44.086	32.242	1503.214	1273.213
-43.071	32.193	1501.563	1271.427
-42.057	32.083	1499.872	1269.205
-41.042	32.190	1497.942	1268.244
-40.027	32.204	1496.477	1267.049
-39.013	32.145	1495.086	1265.423
-37.998	32.134	1494.123	1264.483
-36.984	32.096	1493.824	1263.920
-35.969	32.156	1491.712	1262.490
-34.954	32.256	1490.300	1261.917
-33.940	32.265	1488.899	1260.739
-32.925	32.234	1487.557	1259.343
-31.911	32.163	1486.054	1257.549
-30.896	32.272	1484.661	1257.050
-29.881	32.242	1483.419	1255.745
-28.867	32.277	1482.122	1254.832
-27.852	32.123	1480.790	1252.628
-26.838	32.209	1479.443	1252.013
-25.823	32.200	1477.533	1250.285
-24.809	32.280	1475.432	1248.988
-23.794	32.299	1474.275	1248.089
-22.779	32.160	1473.350	1246.330
-21.765	32.113	1472.463	1245.217
-20.750	32.227	1471.095	1244.768
-19.736	32.234	1470.022	1243.861
-18.721	32.187	1469.024	1242.655
-17.706	32.131	1467.798	1241.198
-16.692	32.091	1466.908	1240.134
-15.677	32.134	1465.563	1239.226
-14.663	32.184	1464.154	1238.320
-13.648	32.168	1463.441	1237.557
-12.633	32.150	1463.004	1237.023
-11.619	32.120	1462.345	1236.221
-10.604	32.110	1461.125	1235.070
-9.590	32.095	1460.602	1234.479
-8.575	32.166	1459.415	1233.898
-7.560	32.141	1458.572	1232.974
-6.546	32.214	1457.115	1232.167
-5.531	32.099	1457.070	1231.328
-4.517	32.096	1456.186	1230.513
-3.502	32.023	1454.967	1228.955
-2.487	32.057	1453.906	1228.230
-1.473	32.092	1452.548	1227.264
-0.458	32.082	1451.458	1226.233
0.556	29.728	1441.968	1214.351
1.571	26.696	1415.805	1172.622
2.586	23.066	1353.652	1098.540
3.600	21.269	1271.252	1021.084
4.615	20.098	1226.460	978.414
5.629	17.249	1170.907	918.636
6.644	8.371	1085.954	807.220
7.659	0.942	1044.877	740.385
8.673	-0.148	1039.190	730.986
9.688	-0.331	1035.737	727.605
10.702	-0.340	1034.201	726.422
11.717	-0.350	1032.276	724.954
12.731	2.645	1035.828	741.895
13.746	11.757	1048.092	795.077
14.761	18.122	1056.070	832.133
15.775	18.814	1055.860	835.257
16.790	18.753	1055.220	834.381
17.804	18.509	1054.721	832.729
18.819	18.413	1053.520	831.242
19.834	18.348	1053.034	830.466
20.848	18.482	1052.252	830.429
21.863	18.404	1052.094	829.854
22.877	18.378	1051.743	829.376
23.892	18.258	1050.968	828.109
24.907	18.291	1049.938	827.384
25.921	18.449	1049.430	827.675
26.936	18.404	1048.509	826.659
27.950	18.387	1047.438	825.659
28.965	18.415	1046.317	824.838
29.980	18.224	1044.636	822.520
30.994	18.296	1043.094	821.577
32.009	18.354	1042.530	821.341
33.023	18.559	1041.870	821.728
34.038	18.349	1040.236	819.364
35.053	18.268	1039.721	818.500
36.067	18.443	1038.699	818.456
37.082	18.434	1037.846	817.672
38.096	18.408	1037.236	816.995
39.111	18.693	1035.916	817.238
40.126	18.656	1035.365	816.554
41.140	18.602	1034.252	815.346
42.155	18.396	1032.284	812.745
43.169	18.163	1031.120	810.655
44.184	18.160	1030.140	809.800
45.199	18.218	1029.172	809.238
46.213	18.102	1028.269	807.911
47.228	18.016	1027.460	806.796
48.242	18.100	1026.362	806.257
49.257	18.143	1025.293	805.551
50.271	18.255	1024.559	805.430
51.286	18.365	1023.541	805.077
52.301	18.433	1022.784	804.728
53.315	18.373	1021.820	803.616
54.330	18.253	1021.512	802.744
55.344	18.340	1020.389	802.194
56.359	18.465	1019.233	801.803
57.374	18.480	1018.220	801.004
58.388	18.266	1017.061	799.021
59.403	18.106	1016.819	798.013
60.417	18.347	1015.977	798.407
61.432	18.069	1015.166	796.402
62.447	18.183	1014.044	795.985
63.461	18.270	1013.740	796.079
64.476	18.355	1012.723	795.603
65.490	18.201	1011.848	794.132
66.505	18.310	1010.107	793.201
67.520	18.103	1009.969	792.064
68.534	18.443	1008.678	792.554
69.549	18.373	1007.386	791.145
70.563	17.927	1007.061	788.761
71.578	17.911	1006.115	787.872
72.593	17.963	1005.187	787.319
73.607	17.936	1003.878	786.100
74.622	17.819	1003.165	784.933
75.636	18.155	1002.224	785.670
76.651	18.303	1001.515	785.727
77.666	18.271	1000.617	784.803
78.680	18.008	1000.007	783.050
79.695	18.098	999.144	782.719
80.709	18.114	998.700	782.372
81.724	18.244	997.612	782.047
82.739	18.177	996.817	781.047
83.753	18.121	996.102	780.164
84.768	18.382	995.028	780.445
85.782	18.554	994.433	780.691
86.797	18.581	993.659	780.137
87.812	18.604	992.694	779.413
88.826	18.492	991.885	778.203
89.841	18.617	990.844	777.882
90.855	18.635	990.161	777.361
91.870	18.563	989.138	776.162
92.884	18.674	988.189	775.850
93.899	18.496	987.422	774.377
94.914	18.452	986.636	773.490
95.928	18.495	986.189	773.265
96.943	18.677	985.024	773.107
97.957	18.456	983.391	770.759
98.972	18.227	982.447	768.925
99.987	17.989	981.700	767.201
101.001	18.021	980.849	766.612
102.016	18.315	980.483	767.580
103.030	18.414	979.161	766.918
104.045	18.312	978.303	765.723
105.060	18.063	977.030	763.545
106.074	17.966	975.833	762.109
107.089	17.995	975.200	761.679
108.103	18.342	974.866	762.896
109.118	18.506	974.168	763.013
110.133	18.160	973.204	760.652
111.147	18.272	971.984	760.129
112.162	18.171	970.503	758.452
113.176	18.147	969.112	757.193
114.191	18.107	968.446	756.429
115.206	18.271	967.434	756.297
116.220	17.969	966.092	753.848
117.235	17.943	965.514	753.217
118.249	18.096	964.441	752.984
119.264	18.084	963.621	752.225
120.279	18.058	962.550	751.211
121.293	17.987	961.863	750.292
122.308	18.049	961.296	750.058
123.322	18.120	960.437	749.632
124.337	18.185	959.274	748.945
125.352	18.008	958.213	747.275
126.366	17.650	956.339	744.184
127.381	17.280	955.048	741.500
128.395	17.883	954.111	743.334
129.410	18.456	953.994	745.670
130.424	18.434	953.319	744.981
131.439	18.478	952.047	744.113
132.454	18.423	950.945	742.945
133.468	18.381	949.963	741.933
134.483	18.321	949.294	741.085
135.497	18.425	948.382	740.754
136.512	18.644	947.776	741.163
137.527	18.571	947.043	740.211
138.541	18.753	945.751	739.921
139.556	18.608	945.342	738.910
140.570	18.583	944.296	737.917
141.585	18.643	943.217	737.269
142.600	18.523	942.778	736.345
143.614	18.680	941.651	736.073
144.629	18.656	940.974	735.373
145.643	18.848	940.504	735.767
146.658	18.619	939.542	733.966
147.673	18.639	938.197	732.937
148.687	18.621	936.893	731.775
149.702	18.615	936.097	731.065
150.716	18.490	935.016	729.625
151.731	18.434	934.208	728.690
152.746	18.517	933.410	728.358
153.760	18.618	933.124	728.498
154.775	18.868	931.989	728.609
155.789	18.918	930.856	727.870
156.804	18.737	930.122	726.467
157.819	18.753	929.068	725.644
158.833	18.815	928.253	725.204
159.848	18.964	927.313	725.036
160.862	18.802	927.001	724.044
161.877	18.734	925.846	722.791
162.892	18.570	925.240	721.564
163.906	18.956	923.911	722.086
164.921	18.864	923.297	721.155
165.935	18.787	922.897	720.459
166.950	18.919	921.544	719.891
167.964	18.893	920.524	718.923
168.979	18.871	919.285	717.800
169.994	18.872	918.076	716.795
171.008	18.616	917.609	715.299
172.023	18.721	916.743	715.000
173.037	18.884	915.719	714.817
174.052	18.638	914.395	712.696
175.067	18.519	913.767	711.651
176.081	18.496	913.057	710.936
177.096	18.716	911.874	710.867
178.110	18.684	911.342	710.254
179.125	18.513	910.448	708.787
180.140	18.281	908.886	706.552
181.154	18.259	908.412	706.031
182.169	18.369	907.718	705.881
183.183	18.619	907.363	706.572
184.198	18.837	906.850	707.008
185.213	18.750	906.099	706.003
186.227	18.752	905.433	705.431
187.242	18.798	904.904	705.142
188.256	18.818	904.455	704.816
189.271	18.752	903.937	704.077
190.286	18.712	903.430	703.458
191.300	18.736	901.653	702.107
192.315	18.205	900.795	699.209
193.329	17.807	899.095	696.202
194.344	17.421	898.241	693.908
195.359	17.957	898.303	696.079
196.373	18.755	898.611	699.508
197.388	18.885	897.914	699.432
198.402	18.629	897.384	697.918
199.417	18.617	896.647	697.232
200.432	18.618	896.133	696.776
201.446	18.413	895.210	695.165
202.461	18.159	894.538	693.551
203.475	18.051	894.101	692.713
204.490	17.730	892.780	690.328
205.504	16.845	890.203	684.703
206.519	17.224	891.027	686.806
207.534	18.213	891.023	690.736
208.548	18.351	890.264	690.643
209.563	18.642	890.055	691.594
210.577	18.741	889.408	691.431
211.592	18.444	888.684	689.609
212.607	18.778	888.100	690.438
213.621	18.784	887.437	689.889
214.636	18.810	886.718	689.373
215.650	18.872	886.090	689.069
216.665	18.846	885.699	688.603
217.680	18.908	884.880	688.152
218.694	18.713	884.730	687.192
219.709	18.697	883.138	685.834
220.723	18.269	882.397	683.486
221.738	18.436	882.132	683.886
222.753	18.768	881.398	684.584
223.767	18.658	880.608	683.471
224.782	18.758	879.792	683.174
225.796	18.804	879.296	682.912
226.811	18.860	878.853	682.731
227.826	18.564	877.520	680.460
228.840	17.907	875.898	676.539
229.855	17.819	875.452	675.788
230.869	18.133	875.154	676.741
231.884	17.797	873.895	674.377
232.899	17.922	873.259	674.320
233.913	18.600	873.602	677.205
234.928	18.637	873.342	677.087
235.942	18.789	872.327	676.840
236.957	18.817	871.917	676.573
237.972	18.562	870.754	674.606
238.986	18.389	870.057	673.327
240.001	18.516	869.206	673.110
241.015	18.501	868.800	672.675
242.030	18.446	868.272	671.990
243.045	18.719	867.653	672.524
244.059	18.845	867.008	672.456
245.074	18.920	866.250	672.103
246.088	18.947	865.300	671.412
247.103	18.430	864.748	668.905
248.117	18.444	864.168	668.452
249.132	18.916	864.090	670.173
250.147	19.265	863.729	671.194
251.161	19.130	862.828	669.907
252.176	19.472	862.005	670.541
253.190	19.426	861.025	669.539
254.205	19.365	860.759	669.035
255.220	19.617	860.481	669.738
256.234	19.526	859.790	668.789
257.249	19.508	859.165	668.173
258.263	19.422	858.471	667.243
259.278	19.467	857.526	666.622
260.293	19.460	857.293	666.358
261.307	19.588	856.679	666.312
262.322	19.373	855.967	664.873
263.336	19.281	855.189	663.853
264.351	18.836	853.704	660.931
265.366	17.857	851.525	655.427
266.380	17.401	850.570	652.884
267.395	18.213	851.566	656.712
268.409	19.101	851.310	659.863
269.424	19.169	850.497	659.431
270.439	19.049	850.659	659.040
271.453	19.419	849.671	659.632
272.468	19.560	848.791	659.428
273.482	19.607	848.757	659.525
274.497	19.739	848.123	659.477
275.512	19.493	847.145	657.718
276.526	18.755	845.429	653.520
277.541	19.124	845.147	654.651
278.555	19.427	845.179	655.767
279.570	19.201	844.149	654.054
280.585	18.983	843.072	652.333
281.599	19.030	842.792	652.236
282.614	19.368	841.869	652.746
283.628	18.923	840.969	650.307
284.643	18.589	840.537	648.652
285.657	18.844	840.587	649.596
286.672	18.973	839.080	648.861
287.687	18.435	838.345	646.209
288.701	18.669	838.539	647.182
289.716	19.092	838.407	648.618
290.730	18.662	837.455	646.207
291.745	18.676	836.299	645.308
292.760	18.522	835.318	643.915
293.774	18.386	835.047	643.140
294.789	19.194	834.829	645.945
295.803	19.903	834.781	648.512
296.818	19.886	834.643	648.284
297.833	20.064	833.825	648.253
298.847	19.695	833.193	646.326
299.862	19.238	832.506	644.030
300.876	19.597	831.957	644.889
301.891	19.789	831.203	644.962
302.906	19.897	830.541	644.795
303.920	19.563	829.069	642.353
304.935	19.295	828.687	641.003
305.949	19.597	828.287	641.758
306.964	19.768	827.700	641.882
307.979	19.719	826.818	640.961
308.993	19.591	826.726	640.359
310.008	19.947	826.706	641.605
311.022	19.956	825.798	640.877
312.037	19.879	825.274	640.128
313.052	19.652	825.134	639.123
314.066	19.504	824.235	637.825
315.081	19.059	822.923	635.111
316.095	18.323	821.505	631.245
317.110	18.972	821.566	633.629
318.125	19.643	821.977	636.364
319.139	19.355	820.847	634.371
320.154	18.378	819.280	629.515
321.168	18.043	818.349	627.515
322.183	18.482	818.552	629.228
323.197	19.285	819.232	632.643
324.212	19.409	818.832	632.732
325.227	19.731	818.060	633.261
326.241	19.758	817.681	633.009
327.256	19.763	817.082	632.510
328.270	19.615	816.015	631.087
329.285	19.594	815.627	630.654
330.300	19.547	814.782	629.773
331.314	19.397	813.797	628.410
332.329	19.324	813.607	627.939
333.343	19.597	813.371	628.697
334.358	19.731	812.900	628.766
335.373	19.888	812.253	628.780
336.387	19.937	811.949	628.667
337.402	20.151	811.502	629.041
338.416	20.214	811.086	628.892
339.431	20.247	810.020	628.128
340.446	20.119	809.461	627.176
341.460	20.155	809.199	627.049
342.475	20.148	808.654	626.546
343.489	20.106	807.313	625.298
344.504	19.989	807.154	624.698
345.519	20.233	806.979	625.387
346.533	20.381	806.425	625.438
347.548	20.450	806.095	625.372
348.562	20.549	805.832	625.471
349.577	20.564	805.349	625.095
350.592	20.470	804.821	624.292
351.606	20.664	803.921	624.235
352.621	20.539	803.572	623.459
353.635	20.477	803.156	622.858
354.650	20.276	802.780	621.793
355.665	20.094	801.492	620.087
356.679	19.115	800.043	615.414
357.694	19.096	799.543	614.908
358.708	19.540	799.742	616.591
359.723	19.588	798.922	616.078
360.738	19.945	798.650	617.084
361.752	20.133	798.831	617.839
362.767	20.301	798.400	618.051
363.781	20.565	797.699	618.394
364.796	20.716	797.782	618.939
365.810	20.748	797.500	618.781
366.825	20.923	796.618	618.662
367.840	20.768	796.592	618.036
368.854	20.555	796.171	616.900
369.869	20.382	795.383	615.622
370.883	20.271	794.609	614.575
371.898	20.436	793.580	614.307
372.913	20.149	792.957	612.758
373.927	20.025	792.485	611.901
374.942	20.417	792.114	612.942
375.956	20.384	791.833	612.554
376.971	20.301	791.210	611.727
377.986	20.654	790.650	612.482
379.000	20.765	790.352	612.589
380.015	20.769	789.855	612.163
381.029	20.813	788.836	611.474
382.044	20.664	788.418	610.573
383.059	20.714	788.205	610.529
384.073	20.704	787.696	610.046
385.088	20.781	786.916	609.655
386.102	20.828	786.835	609.706
387.117	20.682	785.967	608.466
388.132	20.669	785.491	608.001
389.146	20.514	784.728	606.813
390.161	20.151	783.584	604.610
391.175	20.075	783.407	604.155
392.190	20.487	783.267	605.428
393.205	20.567	782.896	605.368
394.219	19.695	781.072	600.874
395.234	18.159	779.491	594.272
396.248	17.748	778.286	591.872
397.263	18.810	779.205	596.209
398.278	20.299	780.372	602.219
399.292	20.759	779.854	603.362
400.307	20.540	779.327	602.141
401.321	20.396	779.123	601.432
402.336	20.392	779.022	601.286
403.350	20.594	778.799	601.760
404.365	20.996	778.111	602.565
405.380	21.171	777.958	602.999
406.394	21.442	777.950	603.876
407.409	21.524	777.537	603.782
408.423	21.295	776.905	602.451
409.438	21.452	775.983	602.222
410.453	21.372	775.603	601.598
411.467	21.406	775.493	601.577
412.482	21.272	775.139	600.786
413.496	21.333	774.478	600.432
414.511	21.530	773.900	600.606
415.526	21.250	774.137	599.777
416.540	21.422	773.326	599.685
417.555	21.591	772.585	599.636
418.569	21.157	772.073	597.699
419.584	20.981	771.653	596.719
420.599	21.166	770.985	596.783
421.613	157.643	1359.632	1795.250
422.628	135.969	1445.401	1795.362
