DTS Sentinel unit serial number:	SN413079Multiplexer serial number:	ORYXHardware model number:	OX4-SRSoftware version number:	ORYX F/W v4.00 Oryx Data Collector v3.7.2.0data status	okinstallation	princeton_trtdifferential loss correction	single-endedforward channel	channel 3reverse channel	N/Adate	2019/09/12time	05:10:10forward acquisition time	60.00reverse acquisition time	0.00gamma	496.2192k internal	0.2322k external	0.2322temperature offset calibration	1.0038default loss term (dB/km)	0.3790temperature slope calibration	1.0000multiplexer offset coefficient	1.0000multiplexer slope coefficient	1.0000fibre end	0.00T internal ref (°C)	31.81T ext. ref 1 (°C)	1.65T ext. ref 2 (°C)	27.15length (m)	temperature (°C)	Stokes	anti-Stokes-747.200	-200.000	0.018	0.241
-746.185	800.000	0.077	0.269
-745.171	237.070	0.184	-0.308
-744.156	-200.000	0.019	0.198
-743.142	27.162	-0.134	0.113
-742.127	-3.546	-0.332	0.233
-741.112	800.000	0.065	0.287
-740.098	-200.000	0.074	0.384
-739.083	234.169	0.087	-0.145
-738.069	-200.000	0.053	0.294
-737.054	-65.764	0.078	-0.032
-736.039	14.558	-0.292	-0.231
-735.025	52.796	0.240	0.231
-734.010	-72.842	-0.314	0.117
-732.996	7.529	-0.106	-0.080
-731.981	-82.750	-0.212	-0.069
-730.966	90.846	0.089	-0.101
-729.952	-128.020	0.167	-0.024
-728.937	14.317	-0.077	0.060
-727.923	800.000	0.038	-0.164
-726.908	109.107	0.035	-0.042
-725.894	153.711	0.033	0.046
-724.879	-16.947	-0.516	-0.329
-723.864	-25.927	0.186	0.111
-722.850	12.383	0.189	0.147
-721.835	-134.980	-0.229	0.028
-720.821	-200.000	0.002	-0.091
-719.806	413.947	0.023	-0.049
-718.791	-101.239	0.369	-0.091
-717.777	-43.534	0.196	-0.100
-716.762	-200.000	0.019	-0.210
-715.748	-88.536	0.061	-0.018
-714.733	2.737	0.177	-0.129
-713.718	800.000	0.040	-0.165
-712.704	-57.540	-0.193	-0.085
-711.689	276.849	0.201	-0.361
-710.675	-47.952	0.284	0.138
-709.660	262.044	-0.115	0.202
-708.645	9.372	-0.202	-0.154
-707.631	-38.769	-0.105	-0.056
-706.616	-200.000	0.014	0.332
-705.602	-200.000	-0.054	-0.249
-704.587	-125.725	-0.334	-0.051
-703.572	114.593	-0.052	0.063
-702.558	261.124	-0.142	-0.248
-701.543	-162.468	0.190	-0.009
-700.529	145.385	0.200	-0.271
-699.514	173.167	0.131	-0.190
-698.499	437.217	0.071	-0.156
-697.485	39.178	0.141	0.127
-696.470	-134.276	-0.351	-0.044
-695.456	655.540	0.027	0.070
-694.441	427.968	0.391	-0.851
-693.426	-47.855	-0.124	-0.061
-692.412	-200.000	-0.006	0.096
-691.397	37.758	-0.143	-0.128
-690.383	592.167	-0.006	0.016
-689.368	800.000	-0.080	0.233
-688.354	-56.463	0.213	0.095
-687.339	-119.691	-0.416	0.073
-686.324	-114.563	-0.301	0.058
-685.310	-200.000	0.011	-0.177
-684.295	128.517	0.042	-0.054
-683.281	-143.903	-0.356	0.034
-682.266	57.084	0.160	-0.157
-681.251	529.243	-0.029	0.070
-680.237	-200.000	0.031	-0.191
-679.222	63.637	0.102	-0.104
-678.208	82.109	-0.060	0.065
-677.193	642.184	-0.166	0.426
-676.178	-158.633	-0.260	-0.015
-675.164	-58.047	0.121	-0.053
-674.149	149.173	0.025	-0.034
-673.135	-200.000	0.000	-0.293
-672.120	111.039	-0.311	0.378
-671.105	-36.302	0.136	-0.074
-670.091	-67.249	0.276	0.109
-669.076	252.740	0.103	-0.177
-668.062	-200.000	-0.068	-0.486
-667.047	-64.058	-0.221	0.091
-666.032	-200.000	-0.263	-0.001
-665.018	-151.876	-0.108	-0.008
-664.003	245.755	-0.138	-0.233
-662.989	-23.466	-0.345	0.209
-661.974	247.158	-0.055	-0.093
-660.959	-200.000	-0.005	0.113
-659.945	-200.000	-0.003	-0.470
-658.930	-66.772	-0.187	-0.075
-657.916	95.344	-0.111	-0.127
-656.901	-37.792	-0.175	0.094
-655.886	250.152	0.135	0.231
-654.872	1.444	-0.344	-0.249
-653.857	800.000	0.036	0.149
-652.843	-200.000	-0.031	0.227
-651.828	0.002	0.254	-0.182
-650.814	336.762	0.017	0.034
-649.799	-147.628	-0.276	0.023
-648.784	-1.832	0.261	-0.185
-647.770	800.000	0.019	-0.080
-646.755	-129.111	-0.348	0.049
-645.741	-200.000	-0.005	-0.106
-644.726	691.016	0.022	-0.057
-643.711	-67.557	-0.307	0.121
-642.697	-111.065	0.412	-0.085
-641.682	-135.117	0.481	-0.058
-640.668	-78.785	0.170	-0.058
-639.653	-47.650	0.285	-0.139
-638.638	465.600	-0.181	-0.408
-637.624	800.000	-0.039	-0.161
-636.609	-200.000	0.036	-0.294
-635.595	-143.988	0.233	0.022
-634.580	-200.000	-0.038	-0.226
-633.565	-200.000	0.039	-0.377
-632.551	-115.897	-0.369	0.069
-631.536	-119.549	-0.035	-0.006
-630.522	142.451	-0.132	-0.177
-629.507	258.792	0.181	0.314
-628.492	186.430	-0.108	0.162
-627.478	-200.000	-0.029	-0.137
-626.463	-24.385	-0.309	0.185
-625.449	-71.211	-0.307	0.116
-624.434	30.135	-0.329	0.282
-623.419	13.300	-0.023	-0.018
-622.405	171.836	-0.117	-0.169
-621.390	-118.728	-0.220	-0.039
-620.376	-58.891	0.268	0.116
-619.361	343.982	0.054	0.106
-618.346	-49.047	0.300	0.144
-617.332	-20.255	0.240	0.149
-616.317	-200.000	-0.008	0.038
-615.303	27.222	-0.368	-0.310
-614.288	-200.000	-0.007	-0.229
-613.273	-157.301	0.160	-0.010
-612.259	299.959	-0.102	-0.189
-611.244	-200.000	-0.029	0.174
-610.230	-155.301	0.184	-0.012
-609.215	-69.840	-0.222	-0.085
-608.201	-91.767	-0.062	0.018
-607.186	-121.231	0.208	-0.035
-606.171	-200.000	-0.019	-0.206
-605.157	-96.258	-0.303	-0.081
-604.142	-200.000	-0.061	-0.287
-603.128	-200.000	-0.009	0.086
-602.113	71.736	-0.312	-0.326
-601.098	-22.239	0.276	-0.168
-600.084	800.000	0.107	0.366
-599.069	209.528	0.033	-0.052
-598.055	-14.146	-0.281	0.182
-597.040	-21.230	-0.257	0.158
-596.025	51.717	0.052	0.050
-595.011	-200.000	-0.085	0.000
-593.996	-109.649	0.252	0.053
-592.982	7.325	-0.271	-0.204
-591.967	-182.762	-0.107	0.002
-590.952	800.000	0.090	-0.351
-589.938	800.000	-0.066	-0.226
-588.923	800.000	-0.048	-0.154
-587.909	26.089	0.352	-0.295
-586.894	-200.000	0.011	-0.175
-585.879	423.125	0.084	-0.182
-584.865	-200.000	0.008	-0.107
-583.850	-184.985	-0.085	0.001
-582.836	28.471	0.246	-0.209
-581.821	201.816	0.092	0.142
-580.806	45.098	-0.051	-0.047
-579.792	800.000	-0.134	0.450
-578.777	800.000	0.092	0.361
-577.763	-192.094	0.185	0.002
-576.748	-18.787	0.381	0.238
-575.733	-163.088	-0.064	-0.003
-574.719	-140.366	0.155	0.016
-573.704	160.403	-0.118	-0.166
-572.690	69.859	-0.124	-0.128
-571.675	-200.000	0.028	-0.147
-570.661	-38.026	-0.245	-0.131
-569.646	35.277	-0.269	0.236
-568.631	156.763	0.135	-0.187
-567.617	-200.000	-0.038	0.190
-566.602	-116.337	-0.355	0.066
-565.588	-144.470	-0.384	0.036
-564.573	-200.000	0.018	-0.177
-563.558	12.426	-0.132	0.102
-562.544	-135.533	-0.124	-0.015
-561.529	-200.000	-0.005	0.045
-560.515	-200.000	-0.026	0.151
-559.500	-200.000	-0.024	-0.547
-558.485	-200.000	-0.046	-0.251
-557.471	-71.268	-0.264	-0.099
-556.456	-42.255	-0.166	0.085
-555.442	800.000	-0.077	0.244
-554.427	-200.000	0.034	0.247
-553.412	262.908	0.115	0.200
-552.398	-124.523	-0.083	-0.013
-551.383	329.013	-0.176	-0.339
-550.369	-135.874	0.393	-0.046
-549.354	650.958	-0.093	0.240
-548.339	237.862	0.139	-0.231
-547.325	-91.267	-0.092	-0.027
-546.310	156.092	-0.093	0.128
-545.296	-69.992	-0.097	-0.037
-544.281	-139.285	-0.233	0.025
-543.266	-200.000	0.024	-0.303
-542.252	151.901	0.058	-0.079
-541.237	-95.385	-0.263	0.071
-540.223	13.796	-0.102	0.079
-539.208	11.138	0.229	0.175
-538.193	800.000	-0.018	-0.071
-537.179	-200.000	0.045	0.435
-536.164	298.244	0.116	-0.214
-535.150	158.631	-0.129	0.179
-534.135	-141.029	-0.048	0.005
-533.121	-200.000	0.052	-0.322
-532.106	39.270	-0.309	0.277
-531.091	-5.148	-0.134	0.092
-530.077	-51.913	0.142	0.066
-529.062	367.216	-0.054	0.109
-528.048	-127.172	0.239	0.035
-527.033	800.000	-0.052	-0.217
-526.018	-49.020	-0.238	-0.114
-525.004	318.288	-0.093	0.177
-523.989	16.912	-0.108	-0.086
-522.975	498.226	0.078	0.179
-521.960	-25.987	-0.034	-0.020
-520.945	318.311	0.121	-0.230
-519.931	61.717	-0.092	0.091
-518.916	-109.613	0.119	0.025
-517.902	800.000	0.024	0.095
-516.887	-189.873	-0.130	-0.001
-515.872	449.499	-0.086	0.190
-514.858	800.000	0.057	-0.244
-513.843	800.000	-0.039	-0.136
-512.829	800.000	0.042	0.171
-511.814	-64.367	-0.192	0.078
-510.799	63.890	-0.105	-0.105
-509.785	273.687	0.182	0.323
-508.770	56.743	-0.132	-0.129
-507.756	-146.968	0.322	-0.028
-506.741	-200.000	-0.044	-0.195
-505.726	82.687	0.442	0.481
-504.712	84.098	-0.144	0.157
-503.697	-200.000	0.036	-0.233
-502.683	-36.087	0.353	-0.191
-501.668	-200.000	-0.195	0.000
-500.653	-200.000	-0.020	-0.115
-499.639	637.235	-0.139	0.353
-498.624	-157.637	0.238	-0.014
-497.610	362.697	0.186	0.374
-496.595	-126.718	0.226	-0.034
-495.581	-200.000	-0.027	-0.158
-494.566	-200.000	-0.071	0.361
-493.551	-200.000	-0.067	-0.341
-492.537	234.125	-0.135	0.222
-491.522	-182.018	0.239	0.005
-490.508	-200.000	-0.011	-0.096
-489.493	-200.000	-0.054	-0.289
-488.478	-166.625	0.317	-0.013
-487.464	506.467	-0.081	0.189
-486.449	438.858	-0.135	0.295
-485.435	-72.874	0.265	-0.098
-484.420	-200.000	0.013	-0.140
-483.405	176.174	-0.124	0.181
-482.391	-40.264	0.121	0.063
-481.376	435.973	-0.139	0.302
-480.362	362.230	-0.069	-0.139
-479.347	-94.142	0.218	-0.060
-478.332	180.259	0.203	0.297
-477.318	81.015	-0.075	0.081
-476.303	198.524	0.094	0.144
-475.289	-200.000	-0.041	0.377
-474.274	-66.632	0.317	0.126
-473.259	-200.000	-0.042	0.244
-472.245	-10.056	-0.417	-0.277
-471.230	98.519	-0.229	-0.263
-470.216	-61.680	-0.038	0.016
-469.201	-176.317	0.145	-0.004
-468.186	-156.672	-0.201	-0.012
-467.172	-200.000	0.007	0.171
-466.157	-61.643	-0.281	-0.118
-465.143	463.136	-0.043	-0.096
-464.128	-200.000	0.029	0.285
-463.113	291.729	-0.049	0.089
-462.099	-114.795	-0.259	-0.049
-461.084	-98.519	0.096	0.025
-460.070	-24.214	-0.188	0.112
-459.055	-53.061	-0.230	0.106
-458.040	-200.000	0.036	0.669
-457.026	-88.387	-0.211	0.063
-456.011	-89.365	0.050	0.015
-454.997	-200.000	-0.008	-0.077
-453.982	-40.674	0.158	-0.082
-452.968	-25.718	0.313	0.185
-451.953	130.478	0.047	-0.060
-450.938	24.620	-0.456	0.377
-449.924	24.184	0.078	-0.064
-448.909	41.475	-0.009	0.008
-447.895	-200.000	-0.054	0.580
-446.880	188.787	0.312	-0.466
-445.865	-14.391	0.086	0.055
-444.851	95.925	-0.109	-0.124
-443.836	-132.689	-0.188	-0.024
-442.822	-54.064	-0.249	-0.113
-441.807	-200.000	-0.037	-0.227
-440.792	55.129	0.146	-0.141
-439.778	-149.824	0.085	0.007
-438.763	-143.599	0.449	-0.043
-437.749	-83.738	0.196	0.062
-436.734	-200.000	-0.030	-0.348
-435.719	-98.636	0.190	-0.048
-434.705	-200.000	0.005	0.131
-433.690	-55.156	-0.430	0.193
-432.676	61.339	-0.166	0.164
-431.661	800.000	-0.127	-0.349
-430.646	571.487	0.077	-0.187
-429.632	-154.624	0.424	-0.028
-428.617	-200.000	-0.030	0.164
-427.603	30.052	0.237	-0.202
-426.588	-47.388	-0.190	-0.092
-425.573	16.295	-0.203	-0.160
-424.559	-171.809	0.211	0.007
-423.544	-200.000	-0.027	-0.382
-422.530	-130.024	0.087	0.012
-421.515	30.208	-0.179	0.153
-420.500	122.123	0.091	-0.114
-419.486	-200.000	0.006	-0.104
-418.471	40.325	0.111	-0.099
-417.457	-200.000	-0.012	-0.097
-416.442	87.248	0.060	-0.066
-415.428	362.600	0.090	-0.181
-414.413	-6.052	0.097	-0.066
-413.398	200.639	-0.150	-0.230
-412.384	-54.860	0.202	-0.091
-411.369	800.000	-0.112	-0.364
-410.355	194.864	-0.073	0.110
-409.340	-87.165	0.085	-0.026
-408.325	-27.409	-0.043	0.025
-407.311	67.662	-0.287	-0.292
-406.296	377.191	-0.072	-0.147
-405.282	-137.413	0.135	0.015
-404.267	-166.482	-0.226	-0.009
-403.252	-200.000	0.012	0.197
-402.238	412.642	-0.049	-0.103
-401.223	-118.702	-0.131	-0.023
-400.209	-81.942	-0.127	0.041
-399.194	800.000	-0.035	-0.155
-398.179	800.000	-0.071	0.240
-397.165	606.569	-0.136	0.339
-396.150	-0.991	-0.134	-0.095
-395.136	384.208	-0.076	0.157
-394.121	-21.159	-0.208	-0.127
-393.106	-139.021	0.124	0.013
-392.092	-200.000	0.007	0.369
-391.077	-138.159	-0.221	0.024
-390.063	800.000	0.050	-0.143
-389.048	-29.423	-0.302	0.172
-388.033	141.549	0.144	-0.190
-387.019	557.080	-0.016	0.038
-386.004	-113.299	-0.140	-0.028
-384.990	-5.469	0.245	-0.168
-383.975	-108.737	-0.133	-0.028
-382.960	263.344	0.042	0.073
-381.946	-39.611	-0.310	0.162
-380.931	-200.000	0.067	0.388
-379.917	191.337	0.178	-0.267
-378.902	-63.065	0.246	0.101
-377.888	267.458	0.128	-0.224
-376.873	-200.000	-0.004	-0.294
-375.858	72.619	-0.145	-0.151
-374.844	139.246	0.189	0.248
-373.829	22.716	0.127	-0.104
-372.815	27.432	0.254	-0.213
-371.800	30.884	-0.120	-0.102
-370.785	698.186	0.051	0.133
-369.771	149.937	0.082	0.110
-368.756	-200.000	-0.004	-0.044
-367.742	755.772	0.095	0.256
-366.727	-49.253	0.199	0.095
-365.712	-200.000	-0.025	-0.185
-364.698	294.996	-0.120	0.219
-363.683	-126.670	-0.216	0.032
-362.669	487.012	-0.078	0.177
-361.654	203.163	-0.064	0.098
-360.639	43.845	0.243	0.221
-359.625	512.445	-0.177	-0.410
-358.610	296.287	-0.100	-0.183
-357.596	174.510	-0.112	-0.161
-356.581	-200.000	-0.013	0.070
-355.566	292.328	0.142	-0.258
-354.552	-149.786	-0.213	-0.017
-353.537	-200.000	-0.063	0.398
-352.523	-126.559	0.266	-0.039
-351.508	-200.000	0.045	0.236
-350.493	-12.336	-0.334	0.217
-349.479	800.000	-0.054	0.180
-348.464	266.258	0.074	-0.128
-347.450	-7.691	0.292	-0.196
-346.435	-159.263	0.035	0.002
-345.420	-61.450	-0.407	0.170
-344.406	-200.000	-0.043	0.194
-343.391	-200.000	0.024	-0.213
-342.377	6.270	-0.139	0.103
-341.362	-59.982	-0.141	-0.060
-340.348	-200.000	-0.009	-0.274
-339.333	-200.000	0.060	0.558
-338.318	205.681	0.034	-0.052
-337.304	-110.386	-0.336	-0.069
-336.289	333.915	-0.095	0.183
-335.275	328.927	0.104	-0.198
-334.260	800.000	0.009	-0.039
-333.245	-91.919	-0.376	0.106
-332.231	426.106	-0.020	0.043
-331.216	-63.728	0.427	-0.174
-330.202	-171.294	-0.160	0.005
-329.187	800.000	-0.064	-0.189
-328.172	-1.898	0.059	0.041
-327.158	800.000	-0.047	-0.145
-326.143	137.325	-0.035	0.045
-325.129	-97.348	0.274	-0.071
-324.114	800.000	0.032	0.103
-323.099	-159.486	0.218	-0.012
-322.085	-27.877	0.159	0.091
-321.070	-141.531	0.321	-0.032
-320.056	94.902	0.164	0.185
-319.041	800.000	0.021	0.067
-318.026	-200.000	-0.008	-0.317
-317.012	262.925	-0.097	-0.168
-315.997	800.000	0.041	0.136
-314.983	-122.867	0.111	-0.018
-313.968	81.191	-0.167	0.180
-312.953	592.448	-0.063	0.154
-311.939	56.404	0.207	0.200
-310.924	-200.000	-0.005	-0.267
-309.910	-84.663	-0.217	-0.068
-308.895	-75.060	0.171	-0.061
-307.880	-25.275	0.086	0.050
-306.866	115.745	0.129	0.156
-305.851	396.199	0.104	-0.215
-304.837	800.000	-0.090	-0.298
-303.822	142.933	0.076	-0.101
-302.807	-151.435	-0.200	-0.015
-301.793	231.237	-0.026	-0.043
-300.778	-29.861	0.027	0.015
-299.764	-200.000	0.033	0.183
-298.749	28.735	-0.144	-0.121
-297.735	-28.105	0.182	0.105
-296.720	-200.000	0.032	0.199
-295.705	-17.710	0.352	-0.219
-294.691	657.499	0.021	0.053
-293.676	-44.207	-0.091	-0.045
-292.662	41.430	0.141	-0.126
-291.647	-75.002	-0.166	0.059
-290.632	-200.000	0.042	-0.184
-289.618	800.000	-0.049	0.214
-288.603	-200.000	-0.013	0.108
-287.589	-200.000	-0.013	0.105
-286.574	-200.000	0.013	-0.118
-285.559	-200.000	0.071	0.358
-284.545	-69.857	0.152	0.058
-283.530	-200.000	0.014	-0.254
-282.516	800.000	-0.016	0.066
-281.501	-16.901	-0.167	-0.105
-280.486	-200.000	0.021	-0.098
-279.472	203.173	0.263	-0.404
-278.457	74.760	0.136	0.142
-277.443	-200.000	-0.050	-0.413
-276.428	800.000	-0.033	-0.108
-275.413	590.696	-0.081	-0.197
-274.399	-26.913	-0.203	-0.118
-273.384	800.000	0.074	-0.313
-272.370	-200.000	0.012	0.138
-271.355	66.979	-0.219	-0.222
-270.340	463.827	-0.072	0.159
-269.326	-24.136	-0.236	0.140
-268.311	-200.000	0.006	-0.210
-267.297	800.000	-0.081	-0.239
-266.282	800.000	-0.127	-0.380
-265.267	316.494	-0.106	-0.199
-264.253	-134.156	-0.196	-0.024
-263.238	-71.886	-0.267	0.099
-262.224	-200.000	0.028	0.269
-261.209	-62.790	0.119	0.049
-260.195	8.534	0.264	0.197
-259.180	424.931	0.088	-0.188
-258.165	645.041	-0.061	0.154
-257.151	-85.488	0.408	0.126
-256.136	-200.000	0.004	-0.174
-255.122	135.810	-0.074	-0.096
-254.107	153.004	0.204	0.276
-253.092	384.516	-0.088	0.181
-252.078	800.000	0.106	0.292
-251.063	-65.925	0.204	-0.081
-250.049	64.529	0.052	-0.052
-249.034	96.072	-0.115	-0.130
-248.019	-200.000	-0.063	0.357
-247.005	583.159	0.102	0.249
-245.990	-200.000	-0.009	-0.050
-244.976	-117.658	-0.260	0.046
-243.961	-169.793	-0.123	0.004
-242.946	48.955	-0.137	0.127
-241.932	-150.234	0.316	-0.024
-240.917	433.269	0.109	-0.234
-239.903	52.309	-0.188	0.178
-238.888	43.092	-0.129	-0.116
-237.873	194.047	0.051	-0.076
-236.859	-107.396	-0.074	-0.016
-235.844	-45.530	-0.224	0.110
-234.830	18.912	-0.175	0.139
-233.815	-123.158	0.325	0.052
-232.800	41.182	0.132	0.118
-231.786	-24.444	-0.027	-0.016
-230.771	-104.387	-0.268	0.061
-229.757	288.953	-0.212	0.380
-228.742	163.622	-0.036	0.050
-227.727	486.040	-0.139	0.313
-226.713	-95.668	0.100	-0.026
-225.698	-167.741	-0.025	-0.001
-224.684	422.828	0.071	-0.151
-223.669	-118.600	-0.247	-0.043
-222.655	-42.162	-0.030	-0.015
-221.640	-37.693	0.226	0.119
-220.625	-92.038	0.562	-0.157
-219.611	800.000	0.065	0.252
-218.596	14.745	0.265	0.205
-217.582	437.360	-0.048	-0.104
-216.567	-64.059	-0.215	-0.087
-215.552	13.117	-0.222	0.170
-214.538	800.000	0.088	0.321
-213.523	-34.619	0.150	0.081
-212.509	-61.097	0.192	-0.080
-211.494	-200.000	0.025	0.195
-210.479	-200.000	-0.006	-0.118
-209.465	-40.535	0.132	-0.068
-208.450	71.235	0.148	-0.152
-207.436	-200.000	-0.030	-0.350
-206.421	800.000	-0.044	-0.133
-205.406	-46.400	0.025	-0.012
-204.392	139.526	0.192	0.250
-203.377	339.648	0.094	0.182
-202.363	-156.899	0.337	-0.020
-201.348	398.888	-0.135	0.280
-200.333	-78.931	0.237	0.080
-199.319	17.431	-0.234	0.184
-198.304	800.000	-0.093	0.339
-197.290	-123.047	-0.192	-0.030
-196.275	-29.069	0.441	0.250
-195.260	-81.082	0.326	-0.107
-194.246	-200.000	0.038	-0.336
-193.231	35.574	0.154	0.134
-192.217	-62.214	-0.229	0.094
-191.202	-45.661	0.328	-0.160
-190.187	-200.000	-0.028	-0.343
-189.173	-146.156	-0.198	0.017
-188.158	196.925	-0.098	0.147
-187.144	93.184	0.182	0.203
-186.129	310.249	0.080	-0.148
-185.114	-35.310	0.250	-0.134
-184.100	17.250	0.234	-0.184
-183.085	-200.000	0.002	-0.142
-182.071	174.250	0.126	0.180
-181.056	-130.123	-0.359	-0.048
-180.042	-87.261	0.084	0.025
-179.027	-164.416	0.176	0.008
-178.012	-51.155	0.060	0.028
-176.998	112.869	0.042	0.050
-175.983	384.003	-0.153	0.312
-174.969	-22.733	0.367	-0.219
-173.954	-90.184	0.382	-0.110
-172.939	-168.347	0.228	0.009
-171.925	-166.177	0.234	0.010
-170.910	-63.918	-0.088	0.036
-169.896	-52.037	-0.133	-0.061
-168.881	800.000	0.009	0.026
-167.866	-28.997	0.195	-0.110
-166.852	800.000	-0.094	0.333
-165.837	274.915	0.146	0.255
-164.823	0.442	-0.306	0.216
-163.808	-200.000	-0.052	0.262
-162.793	-185.214	0.295	-0.005
-161.779	800.000	-0.010	0.029
-160.764	59.303	0.056	0.055
-159.750	184.636	0.060	-0.087
-158.735	800.000	0.128	-0.362
-157.720	-129.981	0.236	0.032
-156.706	-200.000	-0.020	-0.151
-155.691	-103.879	-0.464	-0.107
-154.677	132.453	-0.052	-0.066
-153.662	-200.000	-0.021	0.102
-152.647	257.742	-0.027	-0.046
-151.633	800.000	-0.092	0.289
-150.618	-200.000	-0.012	0.360
-149.604	4.940	-0.135	-0.098
-148.589	58.622	0.162	0.157
-147.574	-33.087	-0.104	0.057
-146.560	-200.000	0.039	0.361
-145.545	-200.000	0.041	0.388
-144.531	89.468	0.132	0.145
-143.516	353.317	0.084	-0.164
-142.502	123.325	-0.100	0.124
-141.487	-35.936	0.246	-0.131
-140.472	-12.232	0.179	-0.115
-139.458	2.408	0.247	-0.176
-138.443	15.243	0.255	0.197
-137.429	-3.424	-0.126	0.086
-136.414	-200.000	0.010	-0.158
-135.399	117.157	-0.111	0.135
-134.385	-41.265	0.223	-0.114
-133.370	68.668	0.088	-0.089
-132.356	596.796	0.045	-0.110
-131.341	800.000	-0.134	-0.392
-130.326	288.969	0.079	-0.142
-129.312	-134.115	-0.139	-0.017
-128.297	-87.218	0.121	0.036
-127.283	558.138	-0.084	-0.200
-126.268	205.301	-0.061	-0.094
-125.253	170.480	0.177	0.250
-124.239	-176.123	0.288	0.007
-123.224	800.000	-0.063	-0.240
-122.210	800.000	0.115	0.364
-121.195	-200.000	0.012	0.138
-120.180	-200.000	-0.029	-0.268
-119.166	800.000	0.031	-0.128
-118.151	277.212	-0.077	-0.135
-117.137	121.653	0.112	-0.138
-116.122	42.427	-0.192	-0.172
-115.107	737.091	0.034	0.090
-114.093	-200.000	-0.023	0.254
-113.078	-3.502	0.208	0.143
-112.064	-34.645	0.176	-0.095
-111.049	208.138	0.050	0.077
-110.034	-14.311	0.191	-0.121
-109.020	-150.137	0.262	-0.020
-108.005	30.236	-0.162	-0.136
-106.991	376.847	-0.072	-0.145
-105.976	-166.346	-0.127	0.005
-104.962	-200.000	0.018	-0.156
-103.947	-56.739	-0.217	-0.095
-102.932	7.732	-0.069	-0.051
-101.918	504.383	-0.032	0.072
-100.903	-22.443	0.201	-0.120
-99.889	-200.000	0.015	-0.278
-98.874	91.842	0.052	0.058
-97.859	89.499	-0.248	-0.272
-96.845	473.408	-0.128	0.285
-95.830	800.000	0.079	0.293
-94.816	800.000	-0.061	-0.222
-93.801	109.834	0.269	0.317
-92.786	108.766	0.124	0.146
-91.772	122.909	-0.080	-0.099
-90.757	-43.243	0.142	-0.071
-89.743	-37.343	-0.169	0.089
-88.728	-95.405	-0.157	0.042
-87.713	39.445	0.188	-0.166
-86.699	-200.000	0.004	-0.246
-85.684	-140.014	0.234	-0.024
-84.670	-71.461	0.250	-0.092
-83.655	-79.643	-0.268	-0.089
-82.640	-200.000	-0.005	-0.193
-81.626	-200.000	0.015	0.368
-80.611	578.639	0.111	-0.267
-79.597	0.997	0.219	-0.154
-78.582	-169.490	0.396	-0.014
-77.567	186.257	-0.068	0.100
-76.553	175.497	0.001	0.001
-75.538	-121.032	0.085	0.014
-74.524	-67.930	0.336	-0.129
-73.509	-148.264	0.224	0.018
-72.494	800.000	0.035	-0.128
-71.480	139.618	-0.097	0.126
-70.465	-125.551	0.210	-0.031
-69.451	-200.000	0.012	-0.203
-68.436	18.135	-0.190	0.149
-67.422	-200.000	0.014	0.352
-66.407	-164.607	0.076	-0.003
-65.392	-153.506	0.106	-0.007
-64.378	213.557	-0.064	-0.099
-63.363	800.000	-0.026	-0.106
-62.349	800.000	0.043	0.165
-61.334	15.282	-1.147	-0.885
-60.319	83.864	0.501	0.538
-59.305	-200.000	-0.009	-0.906
-58.290	252.817	0.749	1.256
-57.276	800.000	0.581	1.597
-56.261	-200.000	96.084	595.311
-55.246	558.323	1367.952	3246.114
-54.232	162.044	2546.510	3509.231
-53.217	112.296	2157.011	2565.598
-52.203	42.615	1701.230	1523.010
-51.188	34.979	1515.093	1304.510
-50.173	32.620	1488.299	1265.571
-49.159	52.135	1537.886	1441.409
-48.144	53.760	1555.130	1468.604
-47.130	35.240	1514.775	1305.809
-46.115	32.029	1500.257	1271.533
-45.100	31.880	1496.655	1267.420
-44.086	31.884	1494.935	1265.945
-43.071	31.864	1493.389	1264.450
-42.057	31.811	1491.532	1262.469
-41.042	31.825	1489.982	1261.199
-40.027	31.811	1489.034	1260.256
-39.013	31.867	1487.075	1258.923
-37.998	31.859	1485.696	1257.651
-36.984	31.838	1484.710	1256.630
-35.969	31.810	1483.431	1255.306
-34.954	31.849	1481.663	1254.019
-33.940	31.840	1480.320	1252.776
-32.925	31.803	1479.706	1251.960
-31.911	31.821	1478.112	1250.681
-30.896	31.870	1476.708	1249.770
-29.881	31.869	1475.552	1248.736
-28.867	31.905	1473.490	1247.183
-27.852	31.886	1472.442	1246.119
-26.838	31.894	1470.979	1244.880
-25.823	31.912	1469.355	1243.577
-24.809	31.820	1467.777	1241.585
-23.794	31.865	1466.398	1240.665
-22.779	31.859	1465.203	1239.569
-21.765	31.779	1464.210	1238.149
-20.750	31.843	1463.413	1237.850
-19.736	31.891	1461.919	1236.851
-18.721	31.812	1460.482	1235.067
-17.706	31.860	1459.612	1234.596
-16.692	31.834	1458.422	1233.373
-15.677	31.712	1457.908	1232.083
-14.663	31.770	1456.528	1231.252
-13.648	31.743	1455.463	1230.124
-12.633	31.778	1454.848	1229.785
-11.619	31.729	1454.086	1228.769
-10.604	31.726	1452.981	1227.772
-9.590	31.790	1452.163	1227.448
-8.575	31.854	1450.967	1226.807
-7.560	31.781	1450.190	1225.624
-6.546	31.671	1449.567	1224.328
-5.531	31.707	1448.793	1223.863
-4.517	31.680	1447.700	1222.715
-3.502	31.636	1446.719	1221.550
-2.487	31.728	1445.390	1220.981
-1.473	31.574	1445.473	1219.997
-0.458	31.833	1443.541	1220.004
0.556	31.824	1433.766	1208.882
1.571	29.132	1408.792	1170.640
2.586	26.050	1353.147	1105.448
3.600	24.627	1274.038	1032.510
4.615	23.365	1227.990	988.074
5.629	19.671	1170.352	921.943
6.644	10.064	1083.641	805.878
7.659	2.810	1042.850	740.567
8.673	1.826	1037.361	731.879
9.688	1.669	1033.765	728.528
10.702	1.501	1032.528	726.788
11.717	1.594	1030.323	725.617
12.731	4.609	1033.611	742.278
13.746	14.256	1047.375	798.576
14.761	22.310	1058.322	845.731
15.775	24.557	1061.181	858.759
16.790	25.052	1060.024	860.123
17.804	24.958	1059.271	858.982
18.819	24.782	1058.857	857.726
19.834	24.714	1058.091	856.706
20.848	24.968	1057.461	857.338
21.863	25.091	1057.497	857.877
22.877	25.075	1056.983	857.308
23.892	25.125	1056.096	856.751
24.907	24.972	1055.031	855.084
25.921	24.834	1055.050	854.361
26.936	24.988	1053.899	854.092
27.950	24.925	1052.975	852.965
28.965	24.812	1052.021	851.581
29.980	24.783	1050.109	849.818
30.994	24.740	1048.917	848.575
32.009	24.947	1048.436	849.092
33.023	25.059	1047.745	848.987
34.038	24.904	1046.564	847.223
35.053	24.796	1046.057	846.228
36.067	25.149	1044.936	846.911
37.082	25.065	1043.904	845.602
38.096	25.028	1044.125	845.533
39.111	25.190	1043.258	845.520
40.126	25.301	1041.905	844.874
41.140	25.152	1041.011	843.372
42.155	24.876	1039.463	840.744
43.169	24.611	1038.272	838.466
44.184	24.623	1037.667	837.957
45.199	24.604	1036.333	836.718
46.213	24.661	1035.377	836.138
47.228	24.688	1034.170	835.217
48.242	24.695	1034.499	835.443
49.257	24.836	1033.315	835.070
50.271	24.935	1032.513	834.808
51.286	24.948	1031.458	833.941
52.301	25.147	1030.989	834.418
53.315	25.015	1030.718	833.509
54.330	25.093	1029.245	832.607
55.344	25.048	1028.461	831.690
56.359	24.904	1028.106	830.661
57.374	24.922	1026.966	829.748
58.388	24.952	1025.849	828.911
59.403	24.675	1025.602	827.356
60.417	24.649	1024.798	826.516
61.432	24.722	1023.388	825.643
62.447	24.597	1022.787	824.509
63.461	24.767	1022.593	825.064
64.476	24.752	1021.955	824.407
65.490	24.726	1021.196	823.602
66.505	24.687	1019.465	821.952
67.520	24.654	1019.078	821.417
68.534	24.821	1018.316	821.495
69.549	24.687	1017.337	820.021
70.563	24.271	1016.260	817.170
71.578	24.225	1015.639	816.389
72.593	24.151	1015.086	815.531
73.607	24.065	1014.043	814.229
74.622	24.127	1012.746	813.398
75.636	24.501	1012.352	814.718
76.651	24.436	1011.799	813.905
77.666	24.519	1010.418	813.098
78.680	24.317	1009.656	811.497
79.695	24.315	1009.290	811.122
80.709	24.379	1008.975	811.087
81.724	24.523	1007.768	810.697
82.739	24.536	1007.216	810.242
83.753	24.487	1006.048	809.008
84.768	24.869	1005.662	810.359
85.782	25.190	1004.995	811.201
86.797	25.322	1004.650	811.446
87.812	25.179	1003.979	810.184
88.826	25.102	1002.826	808.836
89.841	25.209	1001.702	808.340
90.855	25.155	1001.446	807.818
91.870	25.182	1000.471	807.084
92.884	25.142	999.748	806.248
93.899	25.126	999.028	805.526
94.914	25.101	997.349	803.989
95.928	25.226	996.767	804.006
96.943	25.142	996.446	803.302
97.957	24.845	995.033	800.763
98.972	24.650	993.915	798.919
99.987	24.443	992.915	797.122
101.001	24.609	992.378	797.358
102.016	24.952	991.961	798.483
103.030	24.999	990.947	797.808
104.045	24.902	989.846	796.418
105.060	24.784	988.616	794.833
106.074	24.647	987.033	792.882
107.089	24.657	986.982	792.814
108.103	24.950	986.838	793.928
109.118	24.904	985.986	792.972
110.133	24.764	984.218	790.858
111.147	24.650	983.674	789.847
112.162	24.449	982.622	788.047
113.176	24.266	981.203	786.032
114.191	24.570	980.514	786.749
115.206	24.669	979.500	786.301
116.220	24.349	978.483	784.012
117.235	24.088	977.558	782.053
118.249	24.266	977.407	782.644
119.264	24.251	976.381	781.686
120.279	24.256	975.316	780.790
121.293	24.278	974.679	780.305
122.308	24.448	974.317	780.688
123.322	24.279	973.484	779.215
124.337	24.329	972.125	778.276
125.352	24.298	970.386	776.680
126.366	23.914	968.891	773.743
127.381	23.591	967.522	771.181
128.395	24.169	967.393	773.518
129.410	24.774	967.430	776.106
130.424	24.697	966.986	775.349
131.439	24.915	965.708	775.199
132.454	24.818	964.735	773.928
133.468	24.762	964.038	773.060
134.483	24.699	963.169	772.020
135.497	24.817	962.315	771.779
136.512	25.053	961.788	772.305
137.527	25.099	960.870	771.696
138.541	25.139	960.316	771.356
139.556	25.056	959.509	770.282
140.570	25.054	958.818	769.653
141.585	25.038	958.292	769.091
142.600	25.271	957.151	769.107
143.614	25.071	956.391	767.570
144.629	25.187	955.921	767.622
145.643	25.408	955.529	768.184
146.658	25.215	954.319	766.321
147.673	25.093	953.071	764.731
148.687	25.107	951.675	763.604
149.702	24.957	950.763	762.165
150.716	24.801	949.911	760.751
151.731	24.814	948.698	759.768
152.746	25.003	948.118	760.039
153.760	25.133	947.310	759.873
154.775	25.256	946.856	759.964
155.789	25.293	946.054	759.410
156.804	25.425	944.648	758.772
157.819	25.224	943.878	757.235
158.833	25.336	943.120	757.033
159.848	25.252	942.734	756.303
160.862	25.504	941.854	756.592
161.877	25.242	940.848	754.614
162.892	25.161	940.155	753.653
163.906	25.344	939.404	753.752
164.921	25.343	938.387	752.865
165.935	25.323	937.422	751.939
166.950	25.283	936.512	750.978
167.964	25.314	935.550	750.267
168.979	25.194	934.825	749.118
169.994	25.183	933.330	747.809
171.008	25.011	932.707	746.528
172.023	25.257	931.776	746.737
173.037	25.279	931.480	746.526
174.052	25.241	930.079	745.181
175.067	24.975	928.839	743.019
176.081	24.938	928.200	742.289
177.096	25.005	927.920	742.278
178.110	25.114	926.785	741.752
179.125	24.871	925.572	739.713
180.140	24.629	924.547	737.829
181.154	24.745	924.093	737.880
182.169	24.808	923.670	737.736
183.183	25.001	923.371	738.230
184.198	25.283	923.082	739.093
185.213	25.225	922.615	738.415
186.227	25.053	921.906	737.074
187.242	25.153	921.342	736.971
188.256	25.236	920.620	736.667
189.271	25.308	919.717	736.174
190.286	25.433	919.025	736.068
191.300	25.175	918.153	734.248
192.315	24.576	916.688	730.565
193.329	23.980	915.057	726.763
194.344	23.454	914.184	723.859
195.359	24.078	914.341	726.466
196.373	24.959	914.648	730.243
197.388	25.214	914.798	731.335
198.402	25.275	913.518	730.499
199.417	25.042	913.745	729.666
200.432	25.269	912.581	729.593
201.446	24.941	912.462	728.100
202.461	24.707	911.701	726.478
203.475	24.879	911.151	726.675
204.490	24.373	909.551	723.283
205.504	23.296	907.046	716.870
206.519	23.786	907.461	719.119
207.534	24.637	907.762	722.737
208.548	24.843	906.964	722.868
209.563	25.087	907.144	723.934
210.577	25.043	906.162	722.908
211.592	24.847	905.380	721.432
212.607	25.219	905.306	722.806
213.621	25.285	904.917	722.697
214.636	25.306	904.280	722.212
215.650	25.220	903.833	721.443
216.665	25.243	903.099	720.888
217.680	25.368	902.417	720.781
218.694	25.399	902.152	720.630
219.709	24.935	901.279	718.007
220.723	24.793	899.834	716.224
221.738	24.924	899.556	716.464
222.753	25.113	899.214	716.885
223.767	25.050	898.174	715.740
224.782	25.150	897.553	715.579
225.796	25.490	896.997	716.428
226.811	25.537	896.222	715.934
227.826	25.056	895.235	713.171
228.840	24.381	893.452	709.006
229.855	24.171	893.335	708.013
230.869	24.426	892.839	708.571
231.884	24.127	891.526	706.279
232.899	24.030	891.475	705.792
233.913	25.058	891.386	709.736
234.928	25.123	891.250	709.820
235.942	25.029	890.435	708.737
236.957	25.033	889.824	708.202
237.972	24.877	888.716	706.641
238.986	24.692	888.216	705.454
240.001	24.683	887.519	704.803
241.015	24.789	887.283	704.968
242.030	24.905	886.385	704.649
243.045	24.902	886.440	704.621
244.059	25.103	885.865	704.890
245.074	25.270	885.136	704.905
246.088	25.222	884.771	704.361
247.103	24.852	883.512	701.846
248.117	24.902	882.690	701.330
249.132	25.544	882.842	703.902
250.147	25.775	882.898	704.787
251.161	25.839	882.102	704.340
252.176	25.953	881.965	704.613
253.190	26.160	881.074	704.648
254.205	26.021	880.734	703.772
255.220	26.196	880.349	704.086
256.234	26.141	879.871	703.423
257.249	26.093	878.849	702.360
258.263	25.977	878.557	701.610
259.278	25.978	877.784	700.936
260.293	26.076	877.264	700.838
261.307	26.191	876.838	700.882
262.322	26.176	876.124	700.193
263.336	25.857	875.308	698.241
264.351	25.353	874.229	695.369
265.366	24.340	872.029	689.645
266.380	23.998	871.080	687.511
267.395	24.809	871.710	691.082
268.409	25.678	871.779	694.430
269.424	25.558	871.162	693.413
270.439	25.702	870.935	693.728
271.453	25.820	870.418	693.710
272.468	25.806	869.247	692.658
273.482	25.834	869.521	692.925
274.497	26.053	868.897	693.206
275.512	25.905	867.589	691.536
276.526	25.345	866.040	688.094
277.541	25.453	865.823	688.273
278.555	25.996	865.581	690.101
279.570	25.842	864.855	688.869
280.585	25.644	864.323	687.631
281.599	25.553	863.958	686.930
282.614	25.752	863.431	687.209
283.628	25.284	862.448	684.581
284.643	24.840	861.815	682.326
285.657	25.301	861.444	683.730
286.672	25.389	860.599	683.333
287.687	24.846	859.698	680.491
288.701	25.125	859.911	681.661
289.716	25.557	859.330	682.781
290.730	25.060	858.991	680.564
291.745	24.991	858.112	679.548
292.760	24.891	857.025	678.247
293.774	24.821	856.340	677.381
294.789	25.726	856.968	681.243
295.803	26.230	857.167	683.247
296.818	26.386	856.666	683.378
297.833	26.518	856.049	683.323
298.847	26.162	854.674	680.822
299.862	25.795	853.674	678.583
300.876	25.958	853.726	679.181
301.891	26.396	853.467	680.563
302.906	26.457	852.680	680.106
303.920	26.103	851.652	677.895
304.935	25.955	850.820	676.618
305.949	26.324	850.908	678.011
306.964	26.481	850.070	677.874
307.979	26.027	849.411	675.587
308.993	26.075	849.173	675.519
310.008	26.282	848.930	676.039
311.022	26.459	848.782	676.522
312.037	26.295	847.977	675.210
313.052	26.057	847.577	673.942
314.066	26.039	846.410	672.889
315.081	25.367	844.391	668.721
316.095	24.717	843.775	665.753
317.110	25.162	843.961	667.500
318.125	25.832	844.565	670.412
319.139	25.555	843.072	668.140
320.154	24.403	841.075	662.224
321.168	23.973	840.482	660.105
322.183	24.735	840.570	662.941
323.197	25.570	840.916	666.249
324.212	25.830	841.055	667.263
325.227	25.979	840.818	667.568
326.241	26.176	840.028	667.609
327.256	26.054	839.197	666.441
328.270	25.829	838.937	665.343
329.285	25.903	837.998	664.814
330.300	25.643	837.113	663.096
331.314	25.550	836.614	662.298
332.329	25.511	836.311	661.857
333.343	26.043	835.899	663.429
334.358	26.344	835.323	664.018
335.373	26.111	835.063	662.899
336.387	26.309	834.378	663.021
337.402	26.615	834.320	664.039
338.416	26.670	833.614	663.620
339.431	26.631	833.401	663.250
340.446	26.714	832.842	663.048
341.460	26.953	832.167	663.327
342.475	26.807	831.643	662.318
343.489	26.591	830.977	660.939
344.504	26.678	830.242	660.614
345.519	26.926	830.018	661.282
346.533	27.069	829.976	661.711
347.548	27.080	829.143	661.026
348.562	27.216	828.615	661.044
349.577	26.960	828.587	660.032
350.592	27.145	827.323	659.636
351.606	26.879	827.133	658.462
352.621	26.866	826.911	658.179
353.635	26.859	826.298	657.608
354.650	26.823	825.773	657.003
355.665	26.360	824.689	654.408
356.679	25.533	822.854	649.905
357.694	25.301	822.451	648.690
358.708	26.121	822.394	651.548
359.723	25.830	822.197	650.286
360.738	26.265	821.481	651.231
361.752	26.732	821.439	652.820
362.767	26.651	821.195	652.276
363.781	26.861	821.524	653.237
364.796	27.225	820.803	653.917
365.810	27.429	820.469	654.325
366.825	27.540	820.292	654.526
367.840	27.479	819.998	654.014
368.854	27.334	819.144	652.753
369.869	26.798	818.750	650.460
370.883	26.624	817.739	648.976
371.898	26.746	816.903	648.691
372.913	26.766	816.196	648.144
373.927	26.790	816.120	648.112
374.942	26.809	815.429	647.574
375.956	26.964	814.535	647.359
376.971	27.022	814.414	647.414
377.986	27.142	813.981	647.439
379.000	27.391	813.425	647.826
380.015	27.333	813.142	647.337
381.029	27.198	812.022	645.909
382.044	27.250	811.744	645.816
383.059	27.231	811.506	645.500
384.073	27.264	811.185	645.305
385.088	27.470	810.583	645.501
386.102	27.423	809.684	644.560
387.117	27.149	808.978	642.972
388.132	26.919	808.701	641.882
389.146	26.790	808.022	640.829
390.161	26.336	806.831	638.227
391.175	26.374	806.806	638.285
392.190	26.996	806.818	640.433
393.205	27.090	805.680	639.801
394.219	26.059	804.282	635.010
395.234	24.516	801.762	627.545
396.248	23.568	801.305	623.801
397.263	24.766	801.774	628.323
398.278	26.430	803.386	635.383
399.292	26.946	803.355	637.114
400.307	26.793	802.244	635.637
401.321	26.620	801.856	634.670
402.336	26.716	801.654	634.787
403.350	26.896	801.815	635.491
404.365	27.237	801.849	636.655
405.380	27.633	801.699	637.864
406.394	27.995	801.312	638.766
407.409	28.153	800.769	638.830
408.423	28.124	800.191	638.209
409.438	28.030	799.810	637.522
410.453	27.961	799.497	636.974
411.467	28.148	798.821	637.034
412.482	28.054	798.463	636.363
413.496	27.904	798.009	635.424
414.511	28.100	797.683	635.790
415.526	28.127	796.968	635.257
416.540	28.031	796.938	634.841
417.555	27.979	796.204	634.022
418.569	27.749	795.334	632.475
419.584	27.752	794.861	632.053
420.599	27.795	794.704	632.024
421.613	110.938	1285.947	1461.248
422.628	95.529	1357.518	1461.359
