DTS Sentinel unit serial number:	SN413079Multiplexer serial number:	ORYXHardware model number:	OX4-SRSoftware version number:	ORYX F/W v4.00 Oryx Data Collector v3.7.2.0data status	okinstallation	princeton_trtdifferential loss correction	single-endedforward channel	channel 3reverse channel	N/Adate	2019/09/11time	14:14:11forward acquisition time	60.00reverse acquisition time	0.00gamma	496.2192k internal	0.2292k external	0.2292temperature offset calibration	0.9978default loss term (dB/km)	0.3790temperature slope calibration	1.0000multiplexer offset coefficient	1.0000multiplexer slope coefficient	1.0000fibre end	0.00T internal ref (°C)	41.94T ext. ref 1 (°C)	0.89T ext. ref 2 (°C)	37.65length (m)	temperature (°C)	Stokes	anti-Stokes-747.200	68.331	0.307	-0.322
-746.185	53.596	0.058	0.057
-745.171	-168.321	-0.124	-0.005
-744.156	399.164	0.151	0.324
-743.142	-157.437	0.233	-0.014
-742.127	-113.665	0.178	0.036
-741.112	-200.000	0.045	-0.312
-740.098	-200.000	0.038	0.323
-739.083	100.562	-0.155	0.185
-738.069	-200.000	-0.009	0.191
-737.054	592.527	-0.072	0.183
-736.039	-200.000	-0.020	-0.119
-735.025	-16.811	0.227	-0.147
-734.010	-200.000	-0.034	-0.204
-732.996	222.523	-0.086	-0.141
-731.981	76.269	-0.082	0.089
-730.966	-151.281	-0.351	0.027
-729.952	-74.312	-0.394	0.146
-728.937	-89.374	-0.296	-0.089
-727.923	-200.000	0.012	-0.070
-726.908	-200.000	0.004	-0.038
-725.894	158.140	0.049	0.070
-724.879	115.494	0.116	-0.145
-723.864	340.675	-0.064	0.129
-722.850	-90.667	-0.463	-0.137
-721.835	800.000	0.144	0.504
-720.821	698.853	-0.113	-0.304
-719.806	-154.273	-0.194	-0.013
-718.791	-115.970	0.155	-0.030
-717.777	1.070	-0.160	0.117
-716.762	-95.833	0.135	-0.037
-715.748	510.266	0.110	-0.261
-714.733	800.000	0.060	-0.234
-713.718	50.277	-0.325	0.314
-712.704	85.450	-0.165	-0.185
-711.689	100.090	-0.062	0.074
-710.675	-66.253	-0.158	-0.064
-709.660	-29.309	-0.293	0.172
-708.645	800.000	0.020	0.059
-707.631	800.000	0.054	-0.173
-706.616	-132.690	0.277	-0.036
-705.602	598.759	0.076	0.193
-704.587	-49.098	-0.355	0.174
-703.572	-56.500	-0.169	0.076
-702.558	-151.510	-0.190	0.014
-701.543	-200.000	-0.037	-0.198
-700.529	415.948	-0.102	-0.223
-699.514	172.305	0.175	-0.257
-698.499	-107.541	-0.188	-0.042
-697.485	-15.104	0.242	0.158
-696.470	-22.405	0.216	0.133
-695.456	-69.824	-0.230	-0.090
-694.441	412.765	-0.149	0.324
-693.426	-134.758	-0.323	-0.040
-692.412	-118.084	0.130	-0.024
-691.397	800.000	0.064	-0.184
-690.383	285.695	-0.141	0.259
-689.368	38.118	-0.172	0.156
-688.354	-166.526	0.139	0.006
-687.339	-182.205	-0.244	-0.005
-686.324	-98.617	-0.087	0.023
-685.310	-200.000	0.009	0.171
-684.295	-200.000	0.078	-0.482
-683.281	246.241	-0.256	-0.440
-682.266	-153.891	0.179	0.012
-681.251	800.000	0.070	-0.209
-680.237	159.724	-0.105	-0.149
-679.222	800.000	-0.029	-0.115
-678.208	-29.854	0.355	-0.206
-677.193	-158.161	-0.393	-0.023
-676.178	-200.000	0.015	-0.200
-675.164	-200.000	0.033	-0.210
-674.149	-200.000	-0.019	-0.256
-673.135	-200.000	-0.001	-0.093
-672.120	-135.002	-0.254	0.031
-671.105	-43.838	0.164	-0.084
-670.091	-14.845	-0.165	0.108
-669.076	-70.176	-0.380	0.148
-668.062	-200.000	-0.014	-0.119
-667.047	-200.000	-0.065	0.404
-666.032	724.683	0.134	-0.365
-665.018	730.970	0.053	0.145
-664.003	-14.426	0.123	-0.081
-662.989	-77.144	0.181	0.064
-661.974	497.593	0.038	-0.090
-660.959	229.408	0.127	-0.211
-659.945	103.247	-0.059	-0.071
-658.930	82.118	-0.045	-0.049
-657.916	-47.705	0.248	0.123
-656.901	-110.378	-0.295	0.063
-655.886	139.977	0.123	0.166
-654.872	467.860	0.031	-0.070
-653.857	-11.163	-0.080	-0.054
-652.843	579.260	0.084	-0.210
-651.828	-200.000	0.049	-0.242
-650.814	800.000	0.060	-0.191
-649.799	34.456	0.323	0.287
-648.784	243.528	0.087	-0.149
-647.770	-85.738	0.020	-0.006
-646.755	-15.966	0.103	0.067
-645.741	-171.228	0.341	-0.012
-644.726	576.825	-0.048	0.121
-643.711	5.444	-0.283	-0.213
-642.697	800.000	0.031	-0.129
-641.682	347.161	0.135	0.271
-640.668	56.488	-0.153	0.152
-639.653	218.213	-0.058	-0.094
-638.638	-74.487	-0.303	0.111
-637.624	800.000	-0.066	0.269
-636.609	136.837	0.006	0.008
-635.595	-200.000	-0.014	-0.086
-634.580	-67.832	0.182	0.072
-633.565	-6.953	-0.189	-0.131
-632.551	-180.584	0.138	0.003
-631.536	800.000	-0.064	0.266
-630.522	-133.792	-0.156	-0.020
-629.507	105.840	0.219	0.264
-628.492	563.500	-0.190	0.470
-627.478	-200.000	0.025	0.322
-626.463	-200.000	0.045	0.258
-625.449	378.157	-0.137	-0.285
-624.434	14.765	-0.240	-0.191
-623.419	13.717	-0.107	0.085
-622.405	354.657	0.056	-0.113
-621.390	-53.714	0.074	0.034
-620.376	800.000	-0.018	-0.072
-619.361	-137.142	-0.449	0.052
-618.346	382.535	-0.056	-0.117
-617.332	64.466	-0.173	-0.177
-616.317	-15.290	-0.366	0.238
-615.303	-102.741	0.088	0.021
-614.288	800.000	-0.023	-0.069
-613.273	101.908	0.294	-0.349
-612.259	94.058	-0.308	-0.356
-611.244	767.501	-0.058	0.160
-610.230	596.429	0.050	-0.125
-609.215	45.124	0.064	0.060
-608.201	800.000	-0.119	0.424
-607.186	-200.000	-0.011	0.187
-606.171	-200.000	0.009	0.220
-605.157	-108.284	0.363	0.080
-604.142	-200.000	-0.017	0.086
-603.128	129.825	-0.080	-0.105
-602.113	-55.304	-0.046	0.021
-601.098	169.942	0.027	-0.039
-600.084	308.296	0.102	0.195
-599.069	-128.172	-0.197	-0.029
-598.055	557.077	0.042	-0.103
-597.040	-65.899	0.044	-0.018
-596.025	-119.453	-0.275	0.049
-595.011	-120.207	-0.076	0.013
-593.996	32.167	-0.196	-0.172
-592.982	-39.905	-0.301	-0.160
-591.967	-156.594	0.165	-0.010
-590.952	-200.000	0.001	0.042
-589.938	-127.744	-0.191	0.028
-588.923	-27.828	-0.281	0.166
-587.909	412.209	-0.057	-0.122
-586.894	28.255	-0.040	0.035
-585.879	800.000	0.052	-0.209
-584.865	-67.304	0.141	-0.057
-583.850	-172.780	0.053	-0.002
-582.836	14.292	0.132	-0.105
-581.821	-52.341	0.112	-0.053
-580.806	427.930	0.045	-0.099
-579.792	332.302	0.119	0.234
-578.777	-41.334	-0.151	0.079
-577.763	104.707	0.200	0.240
-576.748	66.194	0.184	0.190
-575.733	-117.344	-0.081	0.015
-574.719	-36.909	-0.185	0.101
-573.704	136.767	0.078	-0.103
-572.690	-198.670	0.184	0.001
-571.675	-20.719	0.135	-0.084
-570.661	-200.000	-0.014	0.121
-569.646	-94.955	0.232	0.064
-568.631	-122.614	-0.165	0.027
-567.617	-108.926	-0.168	-0.037
-566.602	-50.566	-0.215	-0.103
-565.588	0.837	0.062	-0.045
-564.573	-128.328	0.108	0.016
-563.558	800.000	0.031	-0.089
-562.544	169.638	-0.151	-0.219
-561.529	-152.625	-0.320	0.023
-560.515	85.469	-0.251	0.280
-559.500	-69.718	0.163	-0.063
-558.485	-111.838	0.211	0.043
-557.471	85.081	-0.219	0.244
-556.456	-200.000	0.015	0.093
-555.442	-84.537	-0.203	-0.065
-554.427	-161.729	0.186	0.010
-553.412	-59.419	0.217	0.095
-552.398	-200.000	0.024	0.110
-551.383	37.731	-0.295	0.266
-550.369	-9.834	-0.085	-0.058
-549.354	-183.797	0.538	0.009
-548.339	128.117	0.116	-0.149
-547.325	170.594	-0.256	-0.372
-546.310	-114.327	0.376	-0.073
-545.296	-200.000	-0.013	0.201
-544.281	671.546	0.066	-0.175
-543.266	453.804	-0.020	-0.045
-542.252	-89.092	0.144	0.043
-541.237	800.000	-0.057	-0.180
-540.223	-42.612	-0.221	-0.114
-539.208	-134.180	-0.088	-0.011
-538.193	-134.361	0.241	0.030
-537.179	469.263	0.106	-0.242
-536.164	76.186	-0.277	-0.298
-535.150	200.692	0.068	0.106
-534.135	77.921	-0.054	0.058
-533.121	46.882	-0.199	0.188
-532.106	800.000	0.085	0.239
-531.091	-200.000	-0.027	-0.139
-530.077	37.861	-0.144	-0.130
-529.062	800.000	0.088	-0.344
-528.048	-200.000	-0.036	0.212
-527.033	-26.458	-0.231	-0.138
-526.018	222.513	0.162	-0.264
-525.004	-61.072	-0.353	-0.151
-523.989	264.915	-0.072	-0.127
-522.975	-200.000	-0.018	-0.267
-521.960	624.178	-0.074	-0.190
-520.945	800.000	-0.049	0.154
-519.931	-101.455	-0.106	-0.026
-518.916	227.227	-0.078	0.128
-517.902	-158.961	-0.154	-0.009
-516.887	305.598	0.159	-0.300
-515.872	-121.205	0.115	-0.020
-514.858	386.493	0.058	-0.122
-513.843	800.000	-0.076	-0.258
-512.829	-28.740	0.138	0.081
-511.814	-200.000	0.019	-0.171
-510.799	747.059	-0.057	-0.154
-509.785	-200.000	-0.024	-0.115
-508.770	-79.733	0.133	0.045
-507.756	407.402	-0.085	0.183
-506.741	-123.904	-0.109	0.017
-505.726	12.213	0.124	0.097
-504.712	800.000	0.115	0.427
-503.697	-200.000	-0.017	0.329
-502.683	-41.191	-0.092	0.048
-501.668	27.274	-0.167	-0.142
-500.653	-127.911	-0.118	0.017
-499.639	-127.347	-0.091	0.013
-498.624	-101.375	-0.369	0.091
-497.610	77.537	0.109	0.118
-496.595	33.894	-0.203	0.179
-495.581	285.617	0.036	-0.065
-494.566	-200.000	-0.008	0.063
-493.551	-200.000	-0.018	0.274
-492.537	-50.927	0.237	0.113
-491.522	136.844	0.229	-0.303
-490.508	-175.757	0.177	0.005
-489.493	-200.000	-0.029	0.155
-488.478	800.000	-0.060	0.176
-487.464	10.223	-0.357	0.275
-486.449	-115.042	0.234	-0.045
-485.435	656.578	-0.181	-0.471
-484.420	-183.848	0.152	0.003
-483.405	-167.626	0.062	-0.003
-482.391	119.482	0.134	0.168
-481.376	-138.275	-0.056	0.006
-480.362	-57.711	0.239	0.106
-479.347	-84.848	0.141	-0.045
-478.332	-35.002	0.183	0.101
-477.318	-31.620	-0.054	0.031
-476.303	610.269	-0.028	0.071
-475.289	-200.000	-0.050	-0.221
-474.274	-120.127	0.134	-0.023
-473.259	-186.315	-0.112	0.002
-472.245	-41.138	-0.128	-0.067
-471.230	59.350	0.176	-0.175
-470.216	-138.622	-0.293	-0.033
-469.201	91.552	-0.149	0.170
-468.186	660.700	0.141	0.367
-467.172	55.267	0.240	-0.235
-466.157	400.627	0.081	0.171
-465.143	-200.000	-0.305	0.001
-464.128	-10.116	0.176	0.118
-463.113	-139.909	0.309	0.033
-462.099	-200.000	-0.020	-0.383
-461.084	-71.192	0.436	0.166
-460.070	800.000	0.152	-0.525
-459.055	-44.365	-0.402	-0.204
-458.040	-84.596	0.084	-0.027
-457.026	182.555	-0.098	0.146
-456.011	-200.000	-0.028	-0.227
-454.997	800.000	0.029	0.104
-453.982	-154.233	-0.207	-0.014
-452.968	-200.000	-0.022	-0.410
-451.953	-200.000	-0.023	0.224
-450.938	15.083	-0.340	-0.270
-449.924	22.052	0.155	-0.128
-448.909	166.549	0.065	-0.093
-447.895	-24.794	-0.267	0.161
-446.880	800.000	-0.005	-0.019
-445.865	-200.000	-0.046	-0.255
-444.851	-200.000	-0.001	-0.220
-443.836	164.798	0.232	-0.330
-442.822	800.000	-0.101	-0.286
-441.807	60.419	-0.224	-0.224
-440.792	213.295	0.305	0.487
-439.778	-141.910	-0.303	0.031
-438.763	-200.000	-0.005	-0.258
-437.749	-83.515	0.221	-0.072
-436.734	-101.850	-0.193	0.047
-435.719	341.327	0.065	-0.129
-434.705	-155.990	-0.425	-0.027
-433.690	28.849	0.422	0.362
-432.676	800.000	0.082	0.236
-431.661	6.348	-0.269	-0.202
-430.646	41.383	0.283	-0.259
-429.632	150.997	-0.087	0.120
-428.617	800.000	-0.057	-0.209
-427.603	-148.304	0.261	-0.022
-426.588	-200.000	-0.011	0.255
-425.573	11.510	-0.057	-0.044
-424.559	42.730	-0.027	-0.025
-423.544	-121.561	-0.342	0.057
-422.530	92.809	0.104	0.119
-421.515	-200.000	-0.028	-0.180
-420.500	-200.000	0.047	-0.251
-419.486	341.936	-0.129	-0.255
-418.471	-200.000	-0.142	0.000
-417.457	64.110	0.151	0.154
-416.442	-19.892	-0.218	-0.136
-415.428	0.213	-0.323	-0.233
-414.413	-153.734	0.485	0.034
-413.398	-39.309	0.284	-0.151
-412.384	-1.864	-0.214	-0.152
-411.369	-153.655	0.431	0.030
-410.355	-25.796	-0.331	-0.197
-409.340	-55.927	0.293	-0.132
-408.325	31.988	0.227	0.198
-407.311	-158.935	-0.092	0.005
-406.296	-188.854	-0.471	0.006
-405.282	350.772	0.115	-0.229
-404.267	117.352	0.060	-0.074
-403.252	-181.227	-0.425	-0.009
-402.238	31.520	-0.185	-0.160
-401.223	800.000	-0.033	-0.100
-400.209	1.185	-0.158	0.115
-399.194	-31.008	-0.468	-0.267
-398.179	29.092	-0.257	-0.220
-397.165	-134.014	0.157	0.020
-396.150	116.726	0.127	0.157
-395.136	-122.902	0.471	-0.077
-394.121	49.380	0.079	-0.075
-393.106	311.787	0.075	0.141
-392.092	199.750	0.068	0.105
-391.077	89.423	0.093	-0.105
-390.063	-13.545	-0.096	-0.063
-389.048	517.080	-0.036	-0.085
-388.033	-200.000	-0.035	-0.258
-387.019	-200.000	0.032	0.267
-386.004	-72.820	-0.106	-0.039
-384.990	800.000	0.026	0.073
-383.975	-59.536	-0.393	0.170
-382.960	-55.730	0.159	-0.072
-381.946	-102.886	-0.449	-0.108
-380.931	-105.597	-0.363	0.083
-379.917	9.471	0.213	0.163
-378.902	-200.000	-0.007	-0.070
-377.888	-75.301	-0.249	-0.090
-376.873	-89.586	-0.132	-0.039
-375.858	661.454	0.175	0.455
-374.844	36.275	-0.115	0.102
-373.829	-200.000	0.022	-0.279
-372.815	-200.000	0.001	-0.037
-371.800	234.236	-0.112	0.186
-370.785	-59.861	-0.233	0.101
-369.771	-20.997	-0.424	-0.262
-368.756	800.000	-0.075	0.276
-367.742	110.772	-0.239	0.290
-366.727	413.668	-0.208	0.447
-365.712	288.455	0.083	-0.152
-364.698	495.238	-0.074	-0.172
-363.683	800.000	-0.081	-0.281
-362.669	-65.979	-0.173	-0.070
-361.654	-57.661	0.150	0.066
-360.639	164.247	0.136	0.193
-359.625	-32.987	0.458	0.256
-358.610	-61.199	0.309	-0.131
-357.596	-122.974	0.075	0.012
-356.581	-200.000	-0.029	-0.140
-355.566	-38.107	-0.241	-0.129
-354.552	-101.504	0.399	0.098
-353.537	508.248	-0.064	0.150
-352.523	-101.310	-0.306	-0.075
-351.508	-67.062	0.382	-0.152
-350.493	-200.000	0.007	-0.031
-349.479	205.275	0.130	0.204
-348.464	-200.000	0.009	0.214
-347.450	-200.000	0.073	0.351
-346.435	-160.578	-0.385	0.021
-345.420	-6.600	0.105	0.072
-344.406	-200.000	0.028	-0.133
-343.391	-200.000	0.023	-0.168
-342.377	-7.740	-0.145	-0.099
-341.362	800.000	-0.068	-0.289
-340.348	-200.000	-0.042	-0.233
-339.333	-103.047	0.290	-0.069
-338.318	595.788	-0.051	0.127
-337.304	-120.561	0.093	0.016
-336.289	800.000	0.012	-0.050
-335.275	136.572	0.103	0.135
-334.260	-99.938	0.116	0.029
-333.245	-129.492	-0.182	-0.025
-332.231	641.649	0.118	-0.303
-331.216	-200.000	-0.032	0.173
-330.202	-12.939	0.111	0.073
-329.187	800.000	0.091	0.264
-328.172	800.000	0.113	-0.354
-327.158	128.569	0.214	-0.274
-326.143	-130.816	-0.374	0.050
-325.129	344.927	0.239	0.472
-324.114	800.000	-0.056	0.177
-323.099	36.847	-0.020	0.018
-322.085	215.707	-0.172	0.275
-321.070	116.903	0.185	0.229
-320.056	120.227	0.201	0.252
-319.041	-127.665	0.173	0.025
-318.026	800.000	-0.080	-0.271
-317.012	-46.008	0.192	0.095
-315.997	-200.000	-0.000	0.140
-314.983	-104.015	-0.185	0.043
-313.968	336.907	-0.204	-0.398
-312.953	-84.175	-0.070	0.022
-311.939	-136.717	-0.029	0.003
-310.924	800.000	0.112	-0.421
-309.910	242.565	0.105	0.178
-308.895	-200.000	0.034	-0.264
-307.880	12.608	0.113	0.088
-306.866	57.372	-0.154	-0.152
-305.851	-200.000	-0.025	0.205
-304.837	-200.000	0.003	-0.050
-303.822	-36.778	-0.165	-0.089
-302.807	-113.806	0.296	-0.058
-301.793	-126.281	-0.315	-0.047
-300.778	-28.160	0.378	0.220
-299.764	-51.735	0.248	-0.116
-298.749	-0.328	0.354	-0.253
-297.735	151.936	0.249	-0.341
-296.720	78.405	0.106	-0.114
-295.705	-155.160	0.060	0.004
-294.691	-32.621	-0.327	-0.183
-293.676	-58.154	0.183	0.080
-292.662	-118.457	-0.027	-0.005
-291.647	-175.119	-0.173	0.005
-290.632	206.615	0.125	0.196
-289.618	-54.654	0.182	0.083
-288.603	149.817	-0.048	0.066
-287.589	-200.000	0.038	0.168
-286.574	-200.000	-0.020	-0.194
-285.559	796.492	-0.095	-0.262
-284.545	60.280	0.235	0.233
-283.530	-200.000	0.016	-0.073
-282.516	-10.693	0.221	-0.147
-281.501	-130.997	0.161	0.022
-280.486	-94.358	-0.043	-0.012
-279.472	800.000	-0.103	-0.335
-278.457	-92.521	-0.045	0.013
-277.443	-200.000	0.014	0.140
-276.428	-130.381	-0.229	-0.031
-275.413	-200.000	-0.010	0.143
-274.399	-155.317	-0.122	-0.008
-273.384	-200.000	0.035	-0.177
-272.370	-21.544	-0.370	-0.227
-271.355	-124.148	0.100	-0.016
-270.340	479.121	0.068	-0.154
-269.326	-123.688	0.053	-0.008
-268.311	169.339	0.149	-0.214
-267.297	-98.171	0.183	0.047
-266.282	-58.969	0.119	0.051
-265.267	30.578	0.147	0.126
-264.253	155.860	0.089	0.123
-263.238	-25.653	0.115	-0.068
-262.224	-44.963	-0.251	-0.125
-261.209	314.227	0.208	-0.394
-260.195	118.287	-0.072	0.090
-259.180	-200.000	-0.018	0.103
-258.165	644.297	-0.102	0.262
-257.151	800.000	0.123	0.504
-256.136	-149.216	0.319	0.026
-255.122	-179.918	0.156	0.003
-254.107	-27.012	0.110	0.064
-253.092	10.394	-0.171	0.131
-252.078	295.757	-0.030	-0.055
-251.063	-94.351	-0.136	0.037
-250.049	-135.677	0.091	-0.011
-249.034	67.894	0.156	0.160
-248.019	-15.424	0.212	0.136
-247.005	-97.967	0.305	-0.079
-245.990	126.599	0.116	-0.147
-244.976	474.553	-0.020	-0.046
-243.961	800.000	-0.030	0.092
-242.946	-77.959	-0.228	-0.079
-241.932	317.283	-0.085	-0.161
-240.917	-200.000	-0.013	0.415
-239.903	-200.000	0.008	0.205
-238.888	-200.000	0.030	-0.204
-237.873	-35.637	-0.145	0.079
-236.859	116.314	-0.285	0.350
-235.844	800.000	-0.132	0.419
-234.830	43.272	-0.141	0.130
-233.815	-178.973	0.380	0.009
-232.800	-78.265	0.272	-0.094
-231.786	800.000	-0.024	-0.103
-230.771	213.331	0.186	0.295
-229.757	-73.532	0.038	0.014
-228.742	27.696	-0.171	-0.144
-227.727	-106.092	0.212	0.048
-226.713	59.326	-0.038	-0.038
-225.698	-137.657	0.046	-0.005
-224.684	306.634	-0.130	0.243
-223.669	-77.767	-0.300	0.104
-222.655	-79.750	0.271	0.092
-221.640	79.933	-0.154	0.166
-220.625	-149.287	0.156	-0.013
-219.611	-64.762	0.042	0.017
-218.596	150.968	-0.057	0.077
-217.582	-84.439	-0.079	-0.025
-216.567	-200.000	0.003	-0.329
-215.552	800.000	-0.066	0.187
-214.538	-200.000	0.045	0.360
-213.523	800.000	0.016	0.045
-212.509	-200.000	0.003	-0.106
-211.494	-66.770	0.214	-0.085
-210.479	-200.000	0.002	-0.122
-209.465	-200.000	0.018	-0.187
-208.450	-200.000	-0.009	0.433
-207.436	-3.480	-0.087	-0.061
-206.421	800.000	-0.065	-0.235
-205.406	-125.286	0.168	-0.026
-204.392	152.650	0.063	0.086
-203.377	800.000	-0.094	0.398
-202.363	-79.737	0.056	-0.019
-201.348	-200.000	0.029	0.260
-200.333	-60.802	0.145	-0.062
-199.319	-143.710	0.062	0.006
-198.304	-136.379	0.162	-0.019
-197.290	-52.529	0.178	-0.083
-196.275	147.418	0.106	0.143
-195.260	-200.000	-0.052	0.381
-194.246	483.035	-0.128	0.290
-193.231	-200.000	-0.080	-0.416
-192.217	-179.978	-0.051	-0.001
-191.202	286.352	0.062	0.112
-190.187	70.379	0.097	0.101
-189.173	-1.557	-0.222	-0.157
-188.158	-45.821	0.199	0.098
-187.144	-53.527	0.095	-0.044
-186.129	-78.483	-0.222	0.076
-185.114	-34.852	-0.104	0.057
-184.100	-136.631	-0.108	0.013
-183.085	30.226	0.225	0.192
-182.071	-200.000	-0.094	-0.434
-181.056	68.141	-0.046	-0.047
-180.042	-200.000	0.039	-0.296
-179.027	-65.497	0.392	0.158
-178.012	17.620	0.031	0.025
-176.998	55.381	0.220	0.213
-175.983	-19.186	0.131	0.081
-174.969	150.786	-0.108	-0.147
-173.954	-119.905	-0.232	-0.040
-172.939	196.817	0.106	0.162
-171.925	-57.603	0.194	-0.085
-170.910	-97.424	-0.323	-0.084
-169.896	53.712	0.310	0.298
-168.881	800.000	0.013	0.056
-167.866	-3.452	0.099	0.069
-166.852	400.804	-0.062	-0.129
-165.837	-121.169	0.153	-0.026
-164.823	-104.195	-0.233	0.054
-163.808	-96.287	0.324	-0.086
-162.793	-43.399	0.174	0.088
-161.779	-71.544	-0.304	0.114
-160.764	81.803	-0.072	-0.079
-159.750	88.618	-0.157	-0.175
-158.735	-106.738	0.199	0.044
-157.720	190.551	0.213	-0.320
-156.706	-23.309	-0.174	0.105
-155.691	407.076	-0.179	-0.377
-154.677	769.516	-0.038	-0.105
-153.662	703.401	-0.073	0.191
-152.647	73.685	0.072	-0.075
-151.633	-200.000	0.033	0.199
-150.618	-200.000	-0.006	-0.254
-149.604	139.614	0.055	0.072
-148.589	-108.130	0.229	0.050
-147.574	-200.000	0.017	-0.097
-146.560	-3.866	0.028	0.020
-145.545	-125.861	0.193	0.029
-144.531	-132.964	-0.097	0.012
-143.516	351.372	-0.074	0.146
-142.502	-200.000	0.001	0.211
-141.487	774.357	0.113	0.307
-140.472	-116.018	-0.178	0.033
-139.458	-59.781	-0.206	0.088
-138.443	-200.000	-0.004	-0.093
-137.429	-62.407	0.197	0.082
-136.414	800.000	0.055	-0.183
-135.399	800.000	0.105	-0.296
-134.385	-65.963	-0.069	-0.028
-133.370	713.912	0.024	-0.064
-132.356	-98.467	0.108	0.028
-131.341	189.941	0.118	-0.177
-130.326	31.493	-0.073	0.062
-129.312	716.971	0.055	-0.145
-128.297	247.383	0.227	0.384
-127.283	-80.873	0.127	0.042
-126.268	68.668	-0.210	-0.216
-125.253	-9.561	-0.217	-0.145
-124.239	17.043	0.092	0.073
-123.224	-50.589	0.223	-0.105
-122.210	385.910	0.054	0.112
-121.195	140.510	0.076	0.100
-120.180	-200.000	-0.023	0.237
-119.166	-200.000	-0.029	0.173
-118.151	180.634	-0.055	-0.080
-117.137	-52.196	0.225	-0.104
-116.122	-107.597	0.436	0.095
-115.107	800.000	0.022	0.084
-114.093	800.000	-0.047	-0.164
-113.078	205.132	-0.093	-0.144
-112.064	349.858	0.112	0.220
-111.049	-21.854	-0.148	0.090
-110.034	264.222	-0.095	-0.165
-109.020	105.540	0.065	-0.077
-108.005	-153.675	-0.134	-0.009
-106.991	800.000	0.022	-0.091
-105.976	-200.000	-0.046	-0.259
-104.962	40.746	-0.054	-0.048
-103.947	-143.571	0.048	-0.005
-102.932	800.000	0.041	-0.156
-101.918	-200.000	-0.014	0.097
-100.903	-8.999	-0.219	-0.146
-99.889	-103.470	0.107	-0.025
-98.874	-84.341	-0.051	-0.016
-97.859	800.000	-0.085	-0.296
-96.845	48.943	0.110	-0.103
-95.830	205.524	-0.067	-0.105
-94.816	176.335	-0.045	-0.065
-93.801	-98.815	0.223	-0.057
-92.786	-4.791	-0.151	-0.104
-91.772	112.255	-0.276	0.333
-90.757	-23.126	0.216	-0.130
-89.743	-200.000	0.030	0.218
-88.728	461.667	-0.146	-0.326
-87.713	-2.559	-0.063	-0.044
-86.699	335.696	0.037	0.072
-85.684	800.000	-0.059	0.172
-84.670	800.000	-0.048	0.185
-83.655	-152.827	0.220	0.016
-82.640	577.720	-0.059	-0.144
-81.626	8.204	-0.241	-0.181
-80.611	-15.828	0.163	-0.104
-79.597	58.645	-0.088	-0.087
-78.582	-20.788	0.225	0.138
-77.567	-200.000	0.016	-0.088
-76.553	800.000	0.082	0.249
-75.538	-200.000	-0.014	-0.103
-74.524	-66.445	0.151	-0.060
-73.509	-115.296	0.408	0.077
-72.494	-129.336	-0.117	0.016
-71.480	-65.512	0.109	-0.044
-70.465	800.000	0.016	-0.062
-69.451	-200.000	0.010	0.156
-68.436	-200.000	-0.004	-0.086
-67.422	800.000	-0.099	0.424
-66.407	-157.762	-0.157	0.009
-65.392	-155.631	-0.148	0.009
-64.378	458.623	-0.060	-0.133
-63.363	-200.000	0.054	0.302
-62.349	-5.222	0.295	0.202
-61.334	66.410	-0.766	-0.776
-60.319	-68.625	0.428	0.165
-59.305	-200.000	0.048	-0.712
-58.290	-200.000	0.071	0.538
-57.276	236.088	0.822	1.355
-56.261	-200.000	75.678	530.196
-55.246	555.933	1306.052	3133.778
-54.232	146.895	2541.743	3404.878
-53.217	119.439	2244.641	2768.335
-52.203	53.321	1762.093	1682.327
-51.188	45.626	1557.576	1433.438
-50.173	42.661	1528.155	1385.907
-49.159	58.743	1565.078	1531.619
-48.144	65.195	1584.492	1595.401
-47.130	45.988	1547.094	1426.085
-46.115	42.263	1533.244	1387.548
-45.100	42.051	1529.973	1383.065
-44.086	41.914	1527.843	1380.144
-43.071	41.960	1525.276	1378.085
-42.057	41.851	1523.649	1375.813
-41.042	41.898	1522.023	1374.609
-40.027	41.872	1521.105	1373.552
-39.013	42.001	1519.085	1372.552
-37.998	41.968	1518.096	1371.381
-36.984	41.962	1517.164	1370.441
-35.969	41.974	1515.552	1369.017
-34.954	41.965	1514.548	1367.991
-33.940	42.053	1512.668	1366.843
-32.925	41.890	1511.425	1364.553
-31.911	41.978	1510.022	1363.830
-30.896	41.985	1508.794	1362.712
-29.881	42.020	1507.504	1361.732
-28.867	42.106	1506.379	1361.246
-27.852	42.022	1504.716	1359.121
-26.838	42.025	1503.110	1357.638
-25.823	42.029	1501.685	1356.322
-24.809	41.911	1500.166	1354.098
-23.794	41.910	1498.603	1352.627
-22.779	41.968	1497.419	1351.898
-21.765	41.974	1496.866	1351.384
-20.750	41.968	1494.945	1349.557
-19.736	41.937	1494.203	1348.627
-18.721	42.007	1492.946	1347.904
-17.706	41.984	1491.783	1346.651
-16.692	41.913	1490.599	1345.048
-15.677	41.939	1489.372	1344.062
-14.663	41.889	1488.625	1343.001
-13.648	41.822	1488.082	1342.004
-12.633	41.802	1486.672	1340.548
-11.619	41.925	1486.123	1340.822
-10.604	41.763	1485.625	1339.238
-9.590	41.895	1484.072	1338.669
-8.575	41.913	1482.952	1337.722
-7.560	41.910	1482.596	1337.326
-6.546	41.826	1481.524	1335.749
-5.531	41.880	1480.354	1335.001
-4.517	41.887	1479.354	1334.090
-3.502	41.804	1478.700	1332.899
-2.487	41.854	1477.456	1332.053
-1.473	41.929	1476.296	1331.458
-0.458	41.846	1475.303	1329.957
0.556	41.047	1465.925	1321.072
1.571	38.633	1438.981	1280.921
2.586	35.331	1378.202	1205.985
3.600	33.610	1295.540	1123.365
4.615	31.713	1247.487	1070.773
5.629	26.140	1187.792	989.010
6.644	12.853	1093.564	842.974
7.659	2.664	1044.789	755.309
8.673	1.091	1038.840	743.234
9.688	0.910	1035.992	740.241
10.702	0.804	1034.424	738.539
11.717	0.776	1032.674	737.086
12.731	4.958	1038.280	761.487
13.746	16.604	1055.176	831.342
14.761	23.750	1063.209	872.843
15.775	23.547	1062.214	870.952
16.790	23.267	1061.526	868.939
17.804	23.032	1060.562	866.917
18.819	22.912	1059.906	865.717
19.834	23.041	1059.095	865.612
20.848	22.997	1059.069	865.297
21.863	23.166	1057.916	865.107
22.877	23.119	1057.710	864.633
23.892	23.211	1056.882	864.328
24.907	23.030	1056.388	862.965
25.921	23.025	1055.454	862.100
26.936	23.038	1054.907	861.641
27.950	23.002	1053.583	860.309
28.965	23.008	1052.367	859.265
29.980	22.942	1050.945	857.711
30.994	22.961	1049.367	856.437
32.009	23.015	1049.345	856.605
33.023	23.207	1048.422	856.703
34.038	22.961	1047.624	854.786
35.053	22.953	1046.447	853.713
36.067	23.161	1045.352	853.748
37.082	22.995	1045.301	852.829
38.096	23.210	1044.002	852.732
39.111	23.344	1043.725	853.076
40.126	23.394	1042.714	852.414
41.140	23.319	1041.415	850.913
42.155	23.048	1039.689	848.129
43.169	22.598	1038.928	845.279
44.184	22.699	1037.658	844.652
45.199	22.827	1036.399	844.163
46.213	22.820	1035.678	843.471
47.228	22.676	1034.548	841.785
48.242	22.857	1033.731	841.913
49.257	22.923	1033.619	842.061
50.271	23.087	1032.163	841.580
51.286	23.146	1031.877	841.556
52.301	23.160	1031.211	841.004
53.315	23.140	1030.433	840.198
54.330	23.119	1029.557	839.311
55.344	23.008	1028.834	838.123
56.359	22.888	1028.147	836.916
57.374	23.068	1027.257	836.969
58.388	22.861	1026.352	835.183
59.403	22.793	1025.881	834.404
60.417	22.848	1025.282	834.103
61.432	22.650	1024.286	832.284
62.447	22.722	1023.574	831.971
63.461	22.810	1022.821	831.699
64.476	22.883	1021.956	831.264
65.490	22.903	1021.277	830.733
66.505	22.771	1020.130	829.105
67.520	22.826	1019.353	828.661
68.534	22.939	1018.102	828.099
69.549	22.781	1017.307	826.638
70.563	22.360	1016.451	823.902
71.578	22.403	1015.767	823.477
72.593	22.394	1015.216	822.914
73.607	22.211	1014.109	821.089
74.622	22.274	1012.896	820.330
75.636	22.510	1012.599	821.114
76.651	22.656	1012.246	821.436
77.666	22.571	1011.117	820.049
78.680	22.529	1009.716	818.647
79.695	22.525	1009.102	818.058
80.709	22.543	1009.093	818.063
81.724	22.673	1007.861	817.596
82.739	22.702	1006.914	816.889
83.753	22.622	1006.313	815.958
84.768	22.884	1005.866	816.735
85.782	23.192	1005.464	817.760
86.797	23.477	1004.584	818.287
87.812	23.545	1003.502	817.646
88.826	23.249	1002.698	815.554
89.841	23.233	1002.026	814.865
90.855	23.354	1001.268	814.730
91.870	23.259	1000.831	813.865
92.884	23.358	999.123	812.862
93.899	23.209	998.605	811.684
94.914	23.141	997.515	810.415
95.928	23.252	996.906	810.356
96.943	23.208	995.963	809.318
97.957	23.047	994.344	807.197
98.972	22.823	993.843	805.696
99.987	22.591	992.322	803.333
101.001	22.618	992.036	803.153
102.016	22.957	991.952	804.557
103.030	22.967	990.768	803.575
104.045	22.912	989.758	802.430
105.060	22.865	988.137	800.833
106.074	22.554	987.153	798.555
107.089	22.673	986.279	798.316
108.103	23.101	985.796	799.794
109.118	23.229	985.008	799.661
110.133	22.877	983.902	797.103
111.147	22.840	982.886	796.042
112.162	22.722	981.745	794.518
113.176	22.448	980.595	792.283
114.191	22.635	980.045	792.610
115.206	22.674	979.492	792.267
116.220	22.334	978.048	789.505
117.235	22.214	977.215	788.225
118.249	22.401	976.268	788.229
119.264	22.655	975.294	788.505
120.279	22.381	974.416	786.504
121.293	22.451	973.550	786.045
122.308	22.508	973.688	786.344
123.322	22.511	972.547	785.368
124.337	22.465	971.439	784.195
125.352	22.392	970.211	782.810
126.366	22.156	968.395	780.232
127.381	21.588	967.298	776.757
128.395	22.205	966.687	778.931
129.410	22.816	966.437	781.366
130.424	22.846	965.941	781.032
131.439	22.934	964.935	780.535
132.454	23.015	963.952	780.030
133.468	22.976	963.279	779.243
134.483	22.853	962.648	778.123
135.497	22.973	961.602	777.738
136.512	23.141	960.861	777.807
137.527	23.272	960.278	777.843
138.541	23.255	959.441	777.022
139.556	23.267	958.595	776.321
140.570	23.171	958.177	775.493
141.585	23.336	956.816	775.042
142.600	23.405	956.118	774.711
143.614	23.241	955.218	773.195
144.629	23.267	954.613	772.753
145.643	23.555	954.145	773.560
146.658	23.547	952.636	772.236
147.673	23.259	951.788	770.224
148.687	23.141	950.474	768.580
149.702	23.110	949.279	767.413
150.716	23.011	948.542	766.320
151.731	22.914	947.651	765.111
152.746	23.082	946.911	765.173
153.760	23.225	946.224	765.168
154.775	23.287	945.819	765.044
155.789	23.371	944.926	764.613
156.804	23.457	943.846	764.046
157.819	23.211	943.300	762.475
158.833	23.349	942.267	762.167
159.848	23.392	941.429	761.605
160.862	23.525	940.482	761.344
161.877	23.364	939.721	759.967
162.892	23.374	938.655	759.082
163.906	23.308	938.225	758.386
164.921	23.428	936.829	757.705
165.935	23.260	935.953	756.211
166.950	23.364	935.114	755.911
167.964	23.401	933.894	755.012
168.979	23.259	932.789	753.450
169.994	23.231	931.908	752.551
171.008	23.061	930.814	750.879
172.023	23.230	929.916	750.807
173.037	23.419	929.238	750.992
174.052	23.324	927.866	749.414
175.067	23.025	927.146	747.505
176.081	23.030	926.670	747.074
177.096	23.187	925.669	746.866
178.110	23.142	924.649	745.785
179.125	22.919	923.594	743.931
180.140	22.595	922.783	741.848
181.154	22.753	922.077	741.880
182.169	22.904	921.732	742.171
183.183	22.995	921.398	742.217
184.198	23.367	921.114	743.485
185.213	23.322	920.266	742.545
186.227	23.091	919.523	740.912
187.242	23.197	919.373	741.172
188.256	23.249	918.739	740.810
189.271	23.262	917.676	739.944
190.286	23.352	916.973	739.687
191.300	23.204	916.025	738.240
192.315	22.849	914.692	735.620
193.329	22.145	913.301	731.507
194.344	21.671	912.141	728.543
195.359	22.156	912.440	730.735
196.373	22.856	912.826	733.887
197.388	23.270	912.549	735.321
198.402	23.215	911.496	734.177
199.417	23.302	910.922	734.011
200.432	23.199	910.421	733.118
201.446	23.337	909.566	732.935
202.461	22.788	909.055	730.187
203.475	22.910	908.642	730.295
204.490	22.358	907.504	727.037
205.504	21.414	904.740	720.868
206.519	21.756	904.517	722.037
207.534	22.683	905.311	726.427
208.548	22.790	904.659	726.280
209.563	23.096	904.877	727.649
210.577	23.277	903.741	727.414
211.592	23.025	902.709	725.486
212.607	23.176	903.135	726.386
213.621	23.372	902.494	726.606
214.636	23.260	901.763	725.496
215.650	23.427	900.800	725.341
216.665	23.333	900.660	724.779
217.680	23.262	900.310	724.144
218.694	23.490	899.563	724.408
219.709	23.138	898.561	722.102
220.723	22.666	897.776	719.480
221.738	22.838	897.116	719.590
222.753	23.200	896.554	720.550
223.767	23.238	895.625	719.896
224.782	23.359	894.926	719.759
225.796	23.379	894.547	719.471
226.811	23.546	894.055	719.689
227.826	23.140	892.871	717.030
228.840	22.423	891.303	712.805
229.855	22.216	890.963	711.630
230.869	22.613	890.258	712.612
231.884	22.221	889.258	710.165
232.899	22.197	888.762	709.608
233.913	22.881	889.233	712.683
234.928	23.328	888.327	713.695
235.942	23.095	887.861	712.321
236.957	23.145	887.221	711.946
237.972	22.760	886.431	709.699
238.986	22.698	885.546	708.681
240.001	22.851	885.187	708.942
241.015	22.871	884.465	708.382
242.030	23.031	883.671	708.324
243.045	23.213	883.101	708.536
244.059	23.216	883.002	708.404
245.074	23.404	882.275	708.512
246.088	23.342	881.487	707.567
247.103	22.800	880.872	704.845
248.117	23.031	879.866	704.900
249.132	23.453	880.120	706.725
250.147	23.844	880.016	708.137
251.161	23.979	878.822	707.651
252.176	23.942	879.025	707.602
253.190	24.040	878.132	707.212
254.205	24.039	877.913	706.969
255.220	24.221	877.538	707.327
256.234	24.277	876.790	706.883
257.249	24.207	875.996	705.903
258.263	23.915	875.555	704.328
259.278	24.035	875.143	704.409
260.293	24.040	874.642	703.965
261.307	24.165	873.858	703.765
262.322	24.023	873.084	702.520
263.336	24.011	872.609	702.029
264.351	23.600	871.286	699.281
265.366	22.418	869.135	692.846
266.380	22.013	867.891	690.201
267.395	22.865	868.765	694.186
268.409	23.580	868.491	696.711
269.424	23.595	868.039	696.347
270.439	23.774	867.538	696.586
271.453	23.981	866.738	696.691
272.468	23.959	866.258	696.158
273.482	24.086	866.093	696.462
274.497	24.134	865.449	696.069
275.512	23.938	864.625	694.581
276.526	23.398	863.031	691.132
277.541	23.529	862.769	691.372
278.555	23.888	862.623	692.594
279.570	23.830	861.666	691.536
280.585	23.562	861.245	690.096
281.599	23.625	860.499	689.683
282.614	23.808	860.147	690.049
283.628	23.476	858.926	687.721
284.643	23.000	858.144	685.189
285.657	23.513	858.038	687.031
286.672	23.408	857.367	686.029
287.687	22.773	856.526	682.836
288.701	23.093	856.556	684.038
289.716	23.634	856.360	685.912
290.730	23.306	855.296	683.736
291.745	23.277	853.887	682.438
292.760	23.059	853.112	680.917
293.774	22.900	852.604	679.841
294.789	23.661	853.598	683.505
295.803	24.314	853.557	685.924
296.818	24.564	852.769	686.189
297.833	24.538	852.368	685.705
298.847	24.316	851.460	684.064
299.862	23.890	850.382	681.503
300.876	23.975	850.236	681.651
301.891	24.274	849.789	682.377
302.906	24.426	849.024	682.286
303.920	24.230	847.763	680.463
304.935	23.906	846.972	678.532
305.949	24.206	846.743	679.432
306.964	24.400	846.559	679.966
307.979	24.168	845.667	678.303
308.993	24.048	845.340	677.524
310.008	24.267	845.242	678.221
311.022	24.535	845.001	678.985
312.037	24.466	843.968	677.833
313.052	24.178	843.089	675.974
314.066	24.135	842.131	674.984
315.081	23.392	841.196	671.361
316.095	22.694	839.859	667.593
317.110	23.345	839.866	670.003
318.125	24.157	840.186	673.272
319.139	23.760	839.416	671.096
320.154	22.600	837.657	665.252
321.168	22.189	836.428	662.668
322.183	22.616	836.970	664.653
323.197	23.527	837.446	668.403
324.212	24.011	836.833	669.676
325.227	24.101	836.638	669.801
326.241	24.279	836.006	669.905
327.256	24.213	835.561	669.241
328.270	23.970	834.934	667.767
329.285	23.925	834.067	666.846
330.300	23.740	833.727	665.821
331.314	23.666	832.586	664.573
332.329	23.753	832.159	664.500
333.343	23.996	832.109	665.310
334.358	24.214	831.428	665.523
335.373	24.287	830.907	665.320
336.387	24.418	830.047	665.058
337.402	24.537	830.175	665.546
338.416	24.753	829.702	665.913
339.431	24.706	829.085	665.183
340.446	24.675	828.609	664.626
341.460	24.993	827.860	665.148
342.475	24.872	827.680	664.495
343.489	24.622	826.779	662.785
344.504	24.642	825.962	662.148
345.519	24.894	825.992	663.046
346.533	25.274	825.307	663.843
347.548	25.324	824.752	663.524
348.562	25.039	824.918	662.544
349.577	24.957	824.508	661.855
350.592	25.127	823.435	661.562
351.606	25.049	823.213	661.037
352.621	24.913	823.061	660.354
353.635	24.996	822.237	659.939
354.650	24.832	821.863	658.977
355.665	24.512	820.592	656.725
356.679	23.518	819.033	651.769
357.694	23.260	818.527	650.358
358.708	24.005	818.563	653.066
359.723	23.905	817.988	652.184
360.738	24.243	817.705	653.140
361.752	24.766	817.348	654.711
362.767	24.676	817.476	654.423
363.781	25.156	817.016	655.754
364.796	25.300	816.826	656.071
365.810	25.324	816.640	655.950
366.825	25.363	816.196	655.679
367.840	25.478	815.801	655.723
368.854	25.290	815.405	654.662
369.869	24.696	814.506	651.718
370.883	24.709	813.648	651.021
371.898	24.810	812.882	650.716
372.913	24.756	812.386	650.065
373.927	24.631	811.794	649.079
374.942	24.934	811.204	649.650
375.956	24.995	811.111	649.739
376.971	25.111	809.949	649.171
377.986	25.144	809.904	649.196
379.000	25.398	809.484	649.723
380.015	25.364	808.956	649.119
381.029	25.151	808.321	647.783
382.044	25.199	807.825	647.501
383.059	25.367	807.172	647.525
384.073	25.462	806.705	647.435
385.088	25.276	806.551	646.587
386.102	25.354	805.780	646.192
387.117	25.407	804.705	645.460
388.132	25.157	804.397	644.260
389.146	24.954	803.690	642.907
390.161	24.502	802.654	640.402
391.175	24.549	802.243	640.186
392.190	24.838	802.678	641.513
393.205	25.058	802.197	641.857
394.219	24.103	800.378	636.932
395.234	22.578	798.315	629.791
396.248	21.924	796.666	626.099
397.263	22.757	797.771	629.887
398.278	24.564	799.242	637.449
399.292	25.161	798.902	639.248
400.307	24.704	798.478	637.226
401.321	24.784	798.052	637.113
402.336	24.724	797.766	636.615
403.350	24.985	797.478	637.260
404.365	25.446	797.476	638.841
405.380	25.805	797.051	639.718
406.394	26.104	796.687	640.430
407.409	26.332	796.485	641.019
408.423	26.065	796.143	639.742
409.438	26.105	795.566	639.364
410.453	26.018	795.126	638.646
411.467	26.210	794.602	638.848
412.482	26.169	793.917	638.097
413.496	26.083	793.555	637.445
414.511	26.066	793.337	637.152
415.526	26.031	793.107	636.787
416.540	26.041	792.528	636.302
417.555	26.029	791.996	635.775
418.569	25.842	791.353	634.545
419.584	25.755	790.646	633.615
420.599	25.899	789.997	633.545
421.613	91.888	1253.498	1356.779
422.628	78.363	1321.053	1356.914
