DTS Sentinel unit serial number:	SN413079Multiplexer serial number:	ORYXHardware model number:	OX4-SRSoftware version number:	ORYX F/W v4.00 Oryx Data Collector v3.7.2.0data status	okinstallation	princeton_trtdifferential loss correction	single-endedforward channel	channel 3reverse channel	N/Adate	2019/09/10time	19:42:10forward acquisition time	60.00reverse acquisition time	0.00gamma	496.2192k internal	0.2321k external	0.2321temperature offset calibration	0.9915default loss term (dB/km)	0.3790temperature slope calibration	1.0000multiplexer offset coefficient	1.0000multiplexer slope coefficient	1.0000fibre end	0.00T internal ref (°C)	33.12T ext. ref 1 (°C)	-0.31T ext. ref 2 (°C)	25.91length (m)	temperature (°C)	Stokes	anti-Stokes-747.200	-54.292	0.485	-0.222
-746.185	-118.739	0.281	0.050
-745.171	-98.888	0.119	0.030
-744.156	800.000	-0.026	-0.087
-743.142	-200.000	0.028	-0.234
-742.127	-200.000	0.000	0.116
-741.112	50.904	-0.091	-0.087
-740.098	-27.332	0.242	-0.142
-739.083	9.415	-0.215	-0.164
-738.069	-200.000	0.032	0.318
-737.054	-35.754	-0.234	-0.128
-736.039	454.605	-0.076	-0.171
-735.025	800.000	-0.044	0.177
-734.010	43.795	-0.260	0.241
-732.996	222.368	-0.125	-0.204
-731.981	800.000	0.077	-0.254
-730.966	164.345	0.093	0.132
-729.952	800.000	-0.023	-0.089
-728.937	0.762	0.048	0.035
-727.923	-200.000	0.019	0.121
-726.908	-88.172	0.144	-0.044
-725.894	522.649	-0.065	0.155
-724.879	499.469	0.082	-0.191
-723.864	85.801	-0.260	0.288
-722.850	-200.000	-0.046	-0.292
-721.835	263.878	0.134	0.236
-720.821	-52.387	-0.317	-0.148
-719.806	-200.000	0.008	0.139
-718.791	107.272	0.129	0.154
-717.777	800.000	-0.104	0.310
-716.762	-166.666	-0.208	-0.009
-715.748	-200.000	0.029	-0.286
-714.733	-67.915	0.109	0.043
-713.718	800.000	0.075	0.290
-712.704	-164.348	-0.383	0.018
-711.689	601.447	-0.073	0.182
-710.675	119.003	0.016	-0.020
-709.660	-131.954	0.147	0.019
-708.645	264.554	0.097	0.170
-707.631	-154.513	-0.164	0.011
-706.616	-200.000	-0.002	0.093
-705.602	-102.663	-0.180	0.043
-704.587	-200.000	-0.025	-0.134
-703.572	-166.512	-0.215	-0.009
-702.558	-200.000	-0.027	0.252
-701.543	-112.140	-0.137	0.028
-700.529	70.482	0.061	0.064
-699.514	677.496	-0.110	-0.289
-698.499	-41.069	-0.291	0.152
-697.485	248.792	-0.176	-0.300
-696.470	-40.158	0.100	0.052
-695.456	444.691	-0.101	-0.223
-694.441	-48.462	-0.281	-0.136
-693.426	423.694	0.086	-0.186
-692.412	47.482	-0.040	-0.037
-691.397	-0.559	-0.217	0.156
-690.383	185.874	0.188	-0.282
-689.368	16.484	-0.335	-0.267
-688.354	-89.174	-0.344	0.102
-687.339	387.028	-0.107	-0.224
-686.324	-38.452	0.136	0.072
-685.310	75.013	-0.130	0.138
-684.295	800.000	0.085	0.357
-683.281	6.799	-0.481	-0.361
-682.266	-92.195	-0.206	0.059
-681.251	-200.000	-0.006	0.056
-680.237	-127.557	0.324	-0.047
-679.222	-127.960	-0.030	0.004
-678.208	356.158	-0.120	-0.241
-677.193	800.000	0.074	0.242
-676.178	572.974	0.047	-0.116
-675.164	422.760	0.060	0.131
-674.149	-6.151	-0.344	0.237
-673.135	127.448	-0.134	0.171
-672.120	-129.113	0.350	-0.049
-671.105	-91.062	-0.300	0.087
-670.091	-61.023	0.260	-0.111
-669.076	-111.177	-0.083	-0.017
-668.062	800.000	-0.066	-0.277
-667.047	147.712	0.028	0.038
-666.032	-200.000	-0.036	-0.191
-665.018	-98.054	0.170	-0.044
-664.003	162.487	-0.250	-0.354
-662.989	429.079	-0.086	-0.187
-661.974	800.000	-0.166	-0.474
-660.959	19.352	0.142	0.115
-659.945	800.000	-0.041	0.181
-658.930	49.588	0.051	-0.049
-657.916	-53.247	-0.240	-0.111
-656.901	-200.000	0.023	-0.227
-655.886	-49.524	0.335	-0.161
-654.872	800.000	-0.092	-0.402
-653.857	-136.184	0.261	-0.031
-652.843	-0.443	0.154	0.110
-651.828	338.466	0.080	0.158
-650.814	-48.832	-0.223	-0.108
-649.799	-107.501	0.233	0.051
-648.784	800.000	-0.032	-0.100
-647.770	-200.000	-0.010	-0.058
-646.755	-33.765	0.276	-0.153
-645.741	43.051	0.278	-0.255
-644.726	576.665	-0.041	0.102
-643.711	-82.023	0.372	0.122
-642.697	15.079	-0.108	0.085
-641.682	-23.528	0.336	0.203
-640.668	-147.862	-0.088	0.007
-639.653	-45.856	0.169	0.084
-638.638	800.000	-0.098	-0.302
-637.624	-93.621	-0.327	-0.091
-636.609	-178.824	-0.072	-0.002
-635.595	-156.207	-0.362	-0.023
-634.580	-154.569	-0.132	0.009
-633.565	599.194	0.100	-0.249
-632.551	-99.832	0.158	0.040
-631.536	330.446	-0.138	-0.267
-630.522	422.217	0.135	-0.291
-629.507	76.931	0.022	-0.024
-628.492	22.975	-0.134	-0.111
-627.478	800.000	0.076	-0.246
-626.463	-176.755	0.198	-0.005
-625.449	-71.170	0.367	-0.139
-624.434	-63.733	0.308	0.127
-623.419	-84.125	-0.343	-0.110
-622.405	-10.189	0.033	0.022
-621.390	-200.000	-0.017	0.240
-620.376	-58.282	-0.156	-0.068
-619.361	-90.679	-0.167	0.049
-618.346	389.456	0.098	-0.204
-617.332	-113.297	-0.221	-0.044
-616.317	458.885	-0.087	-0.195
-615.303	100.068	-0.197	-0.229
-614.288	-17.702	0.098	-0.062
-613.273	800.000	0.104	-0.363
-612.259	800.000	0.056	0.224
-611.244	-57.588	0.088	-0.039
-610.230	4.788	0.065	0.048
-609.215	322.483	-0.064	-0.123
-608.201	-200.000	0.020	-0.294
-607.186	324.214	-0.055	0.106
-606.171	800.000	-0.047	0.157
-605.157	-200.000	0.185	-0.001
-604.142	800.000	0.064	0.195
-603.128	-59.972	-0.135	0.058
-602.113	-66.821	0.263	0.105
-601.098	800.000	0.045	-0.151
-600.084	-200.000	0.014	0.292
-599.069	800.000	-0.100	-0.290
-598.055	-169.662	0.294	-0.011
-597.040	-95.010	-0.215	0.058
-596.025	-200.000	-0.043	0.223
-595.011	-39.164	-0.255	-0.135
-593.996	332.846	-0.100	0.194
-592.982	-121.071	-0.220	-0.037
-591.967	84.579	0.231	-0.254
-590.952	122.990	-0.289	-0.363
-589.938	147.999	0.252	-0.341
-588.923	41.706	-0.278	-0.253
-587.909	284.910	-0.153	-0.277
-586.894	-67.283	-0.129	0.051
-585.879	-58.265	-0.207	-0.090
-584.865	678.197	-0.040	0.104
-583.850	-75.280	-0.099	-0.035
-582.836	-43.923	-0.255	-0.129
-581.821	-86.673	-0.314	-0.096
-580.806	-75.677	0.196	0.070
-579.792	76.250	-0.152	-0.162
-578.777	-43.461	0.104	0.053
-577.763	-150.697	0.204	-0.016
-576.748	22.929	-0.356	0.293
-575.733	-198.867	-0.318	0.002
-574.719	-29.305	0.118	0.068
-573.704	-74.718	0.342	-0.123
-572.690	0.982	0.123	0.088
-571.675	-50.796	-0.139	-0.065
-570.661	-55.036	0.143	-0.064
-569.646	800.000	0.063	-0.238
-568.631	-120.129	0.374	0.064
-567.617	-4.746	0.176	-0.122
-566.602	85.259	0.260	-0.287
-565.588	242.588	-0.244	-0.409
-564.573	514.066	0.100	0.233
-563.558	-76.664	-0.081	0.028
-562.544	800.000	0.027	0.093
-561.529	-76.243	-0.059	-0.021
-560.515	-20.901	-0.175	0.108
-559.500	-5.657	-0.280	0.193
-558.485	-61.577	-0.250	-0.105
-557.471	-89.290	0.213	-0.063
-556.456	-200.000	0.004	-0.042
-555.442	188.361	0.052	0.079
-554.427	408.467	-0.084	0.179
-553.412	-88.820	-0.548	0.163
-552.398	8.200	0.263	-0.198
-551.383	256.403	-0.243	-0.418
-550.369	-141.762	-0.123	-0.012
-549.354	23.221	-0.070	-0.058
-548.339	206.751	0.219	0.342
-547.325	-8.367	-0.082	0.055
-546.310	135.427	0.197	-0.257
-545.296	800.000	0.080	0.267
-544.281	-30.268	-0.055	0.031
-543.266	-79.404	-0.277	0.094
-542.252	162.214	-0.110	-0.154
-541.237	15.646	-0.419	-0.331
-540.223	-200.000	-0.025	0.139
-539.208	-200.000	-0.036	-0.364
-538.193	-37.864	-0.314	-0.168
-537.179	761.674	-0.112	0.305
-536.164	800.000	0.020	-0.071
-535.150	-200.000	-0.179	0.001
-534.135	-200.000	0.013	-0.107
-533.121	-200.000	0.022	0.260
-532.106	-49.813	0.089	0.043
-531.091	-16.736	-0.123	0.078
-530.077	-60.604	0.236	0.100
-529.062	-2.545	0.098	0.069
-528.048	-200.000	0.013	0.059
-527.033	-0.730	-0.293	0.208
-526.018	334.115	0.029	-0.057
-525.004	-110.280	-0.110	0.023
-523.989	-27.393	0.105	-0.061
-522.975	328.854	-0.060	-0.116
-521.960	-138.981	-0.172	0.019
-520.945	515.808	0.142	-0.334
-519.931	-38.071	-0.149	0.079
-518.916	11.818	0.125	0.096
-517.902	-120.875	0.070	-0.012
-516.887	-120.768	-0.440	-0.074
-515.872	800.000	0.030	-0.107
-514.858	-200.000	-0.009	-0.073
-513.843	-200.000	0.048	0.219
-512.829	-200.000	0.011	0.254
-511.814	-200.000	-0.041	0.209
-510.799	438.460	-0.019	0.041
-509.785	321.344	0.062	-0.118
-508.770	-22.414	0.095	0.057
-507.756	-44.204	-0.214	-0.107
-506.741	-52.091	-0.242	0.113
-505.726	-35.585	-0.191	-0.104
-504.712	362.536	-0.067	0.134
-503.697	56.731	-0.118	-0.115
-502.683	20.760	-0.130	0.105
-501.668	800.000	0.092	0.272
-500.653	186.795	0.121	0.180
-499.639	-26.804	-0.327	-0.191
-498.624	-200.000	-0.017	0.201
-497.610	272.071	0.092	-0.163
-496.595	-38.737	0.113	0.060
-495.581	44.460	0.103	0.095
-494.566	691.696	0.158	-0.415
-493.551	69.903	0.066	-0.068
-492.537	24.024	-0.198	0.163
-491.522	52.923	-0.191	-0.183
-490.508	89.725	-0.109	-0.122
-489.493	14.860	0.356	0.279
-488.478	94.222	0.121	-0.138
-487.464	-172.841	0.284	-0.009
-486.449	577.896	0.128	0.312
-485.435	-200.000	0.021	-0.220
-484.420	-10.194	-0.244	-0.162
-483.405	800.000	0.032	-0.120
-482.391	133.329	0.403	-0.521
-481.376	-118.595	0.105	-0.018
-480.362	39.401	0.143	0.128
-479.347	18.052	0.275	0.220
-478.332	-30.488	-0.042	-0.024
-477.318	-84.815	0.385	-0.121
-476.303	-87.690	0.170	0.051
-475.289	800.000	-0.094	-0.361
-474.274	33.713	-0.037	0.032
-473.259	164.943	0.208	-0.294
-472.245	212.343	-0.111	-0.175
-471.230	-185.331	-0.272	0.004
-470.216	72.486	0.208	0.217
-469.201	-200.000	-0.013	0.192
-468.186	31.018	0.154	0.132
-467.172	-82.738	-0.129	0.042
-466.157	314.138	0.087	0.163
-465.143	-141.042	-0.318	0.033
-464.128	611.748	-0.105	-0.261
-463.113	-48.675	-0.139	0.067
-462.099	-62.330	-0.170	0.071
-461.084	-57.244	-0.170	0.075
-460.070	-131.978	0.385	0.050
-459.055	188.070	-0.133	-0.198
-458.040	669.726	0.123	0.319
-457.026	83.173	-0.095	0.104
-456.011	-120.419	0.136	0.023
-454.997	-140.591	-0.191	-0.020
-453.982	-100.923	-0.354	0.087
-452.968	800.000	0.055	-0.230
-451.953	267.129	0.122	0.212
-450.938	131.541	-0.106	-0.137
-449.924	-33.027	-0.191	-0.106
-448.909	123.432	0.073	0.091
-447.895	-200.000	-0.012	-0.231
-446.880	-86.098	0.342	-0.105
-445.865	245.363	-0.200	0.337
-444.851	278.016	-0.090	-0.161
-443.836	405.884	0.168	0.354
-442.822	-88.920	0.152	0.045
-441.807	-77.440	-0.082	0.029
-440.792	-75.979	0.091	-0.032
-439.778	-176.506	-0.246	0.006
-438.763	-200.000	0.018	-0.159
-437.749	216.994	-0.054	0.085
-436.734	-83.120	-0.074	0.024
-435.719	800.000	0.076	-0.240
-434.705	237.538	-0.029	-0.048
-433.690	-95.291	0.242	0.065
-432.676	-102.911	0.035	0.008
-431.661	103.952	0.032	0.038
-430.646	-51.565	-0.299	0.139
-429.632	440.919	-0.030	0.064
-428.617	-96.467	-0.297	-0.078
-427.603	-2.098	-0.357	0.250
-426.588	12.328	0.242	0.186
-425.573	800.000	0.064	0.184
-424.559	-58.891	0.316	-0.137
-423.544	474.835	0.060	0.135
-422.530	-200.000	-0.055	0.311
-421.515	-200.000	-0.055	0.275
-420.500	192.342	-0.081	0.122
-419.486	800.000	0.092	0.281
-418.471	108.724	0.100	0.119
-417.457	-200.000	-0.032	0.172
-416.442	563.017	-0.102	0.247
-415.428	20.309	-0.204	0.165
-414.413	800.000	-0.070	-0.196
-413.398	-200.000	0.035	-0.215
-412.384	-85.302	-0.124	0.039
-411.369	-138.294	-0.196	0.022
-410.355	-30.583	0.063	-0.035
-409.340	-68.125	0.034	-0.013
-408.325	-200.000	0.035	0.188
-407.311	560.879	-0.135	-0.326
-406.296	166.048	-0.175	-0.247
-405.282	-33.970	-0.040	0.022
-404.267	272.338	0.041	0.072
-403.252	659.651	0.110	-0.283
-402.238	-200.000	0.000	-0.187
-401.223	-42.723	-0.287	-0.146
-400.209	800.000	-0.093	0.324
-399.194	101.140	-0.061	0.070
-398.179	-200.000	-0.029	-0.133
-397.165	-26.005	-0.300	0.176
-396.150	1.842	0.137	0.099
-395.136	86.513	0.027	0.029
-394.121	361.911	-0.050	0.100
-393.106	-34.637	0.042	0.023
-392.092	-166.818	-0.037	0.002
-391.077	-20.406	-0.081	-0.050
-390.063	-74.928	-0.546	0.195
-389.048	-196.419	0.331	-0.002
-388.033	-24.719	-0.284	0.168
-387.019	-129.334	-0.230	0.032
-386.004	800.000	-0.079	0.322
-384.990	-200.000	-0.007	-0.063
-383.975	-200.000	-0.017	-0.336
-382.960	-200.000	0.004	-0.029
-381.946	-183.245	-0.240	0.004
-380.931	77.549	-0.402	-0.427
-379.917	-15.631	0.118	-0.075
-378.902	800.000	-0.029	-0.126
-377.888	100.966	0.104	0.120
-376.873	-200.000	0.032	-0.274
-375.858	-200.000	0.036	0.357
-374.844	-97.315	0.245	-0.063
-373.829	237.117	0.194	-0.320
-372.815	51.900	0.085	-0.081
-371.800	52.272	-0.234	-0.223
-370.785	204.782	0.110	0.169
-369.771	-46.399	0.116	0.057
-368.756	-200.000	-0.011	0.179
-367.742	-13.091	-0.196	-0.127
-366.727	800.000	0.050	0.214
-365.712	-200.000	0.016	0.259
-364.698	111.995	0.086	0.104
-363.683	-11.652	-0.402	-0.263
-362.669	800.000	-0.076	0.318
-361.654	360.644	0.061	0.123
-360.639	800.000	0.027	0.110
-359.625	800.000	-0.092	0.335
-358.610	-95.672	0.194	0.052
-357.596	-200.000	-0.004	-0.125
-356.581	800.000	0.013	-0.048
-355.566	-113.488	0.187	0.037
-354.552	56.972	0.269	0.261
-353.537	409.157	-0.019	0.041
-352.523	19.468	-0.119	0.095
-351.508	-59.364	0.244	0.105
-350.493	-86.488	0.130	0.040
-349.479	-200.000	0.039	0.292
-348.464	-200.000	0.026	0.316
-347.450	-200.000	0.009	-0.192
-346.435	-200.000	0.045	-0.214
-345.420	-78.676	0.282	0.096
-344.406	12.292	0.179	0.137
-343.391	226.607	-0.201	0.325
-342.377	-118.129	-0.472	-0.084
-341.362	556.594	0.029	0.069
-340.348	800.000	0.023	-0.077
-339.333	-200.000	0.009	0.287
-338.318	471.763	-0.116	-0.261
-337.304	-49.527	0.340	0.161
-336.289	-29.392	0.252	-0.144
-335.275	64.842	0.035	0.035
-334.260	800.000	-0.056	-0.210
-333.245	-21.877	-0.107	-0.064
-332.231	99.808	-0.117	0.134
-331.216	137.546	0.110	-0.144
-330.202	-200.000	0.004	-0.271
-329.187	44.834	-0.222	-0.203
-328.172	-185.286	0.442	0.007
-327.158	168.874	0.211	0.299
-326.143	-30.411	0.415	0.234
-325.129	-186.187	-0.136	0.002
-324.114	-100.940	-0.242	0.059
-323.099	58.637	-0.203	0.198
-322.085	72.555	0.120	0.125
-321.070	-200.000	0.020	-0.221
-320.056	-44.598	-0.266	0.132
-319.041	785.218	-0.029	0.079
-318.026	215.253	-0.178	-0.281
-317.012	-200.000	-0.044	0.444
-315.997	-200.000	-0.064	-0.293
-314.983	-200.000	0.004	-0.245
-313.968	105.238	-0.373	0.437
-312.953	274.064	0.121	0.212
-311.939	800.000	-0.022	0.084
-310.924	800.000	-0.064	0.182
-309.910	-56.310	0.142	-0.063
-308.895	-101.127	-0.077	-0.019
-307.880	-200.000	-0.051	-0.225
-306.866	-200.000	0.006	-0.194
-305.851	-200.000	-0.000	-0.179
-304.837	340.084	-0.002	0.005
-303.822	33.246	0.275	-0.237
-302.807	160.942	-0.167	0.232
-301.793	-74.631	-0.083	-0.030
-300.778	-142.716	-0.305	0.030
-299.764	482.926	0.036	0.081
-298.749	-106.247	-0.144	0.032
-297.735	-99.449	-0.139	0.035
-296.720	3.720	0.145	0.105
-295.705	-44.147	0.152	0.076
-294.691	196.009	-0.117	0.176
-293.676	-38.027	-0.180	0.095
-292.662	-132.256	0.184	-0.024
-291.647	-200.000	-0.066	-0.377
-290.632	727.183	-0.136	-0.360
-289.618	-139.531	0.373	0.040
-288.603	800.000	0.017	0.067
-287.589	-200.000	0.016	0.192
-286.574	-97.144	0.064	-0.017
-285.559	-148.753	-0.147	0.012
-284.545	-200.000	-0.038	0.321
-283.530	-200.000	-0.088	-0.480
-282.516	368.154	-0.138	0.278
-281.501	-33.035	0.108	0.059
-280.486	-200.000	0.010	0.456
-279.472	-200.000	0.019	-0.235
-278.457	-200.000	0.014	-0.075
-277.443	-35.977	-0.511	-0.275
-276.428	-200.000	0.003	-0.032
-275.413	-200.000	-0.022	0.268
-274.399	83.896	0.221	0.239
-273.384	264.552	0.032	-0.056
-272.370	297.291	0.078	-0.142
-271.355	-200.000	-0.026	0.203
-270.340	-116.637	0.152	-0.028
-269.326	-56.626	-0.260	-0.114
-268.311	76.699	0.267	-0.281
-267.297	106.372	0.177	0.208
-266.282	703.012	0.105	0.275
-265.267	522.742	-0.136	-0.316
-264.253	-33.992	0.100	-0.055
-263.238	-53.764	0.291	-0.132
-262.224	-200.000	-0.042	0.186
-261.209	-106.002	0.332	-0.074
-260.195	-200.000	-0.049	-0.423
-259.180	-46.721	-0.198	0.096
-258.165	209.297	0.165	0.257
-257.151	118.621	0.375	0.459
-256.136	-200.000	0.013	0.067
-255.122	-2.117	-0.271	-0.189
-254.107	-97.788	0.317	-0.081
-253.092	-123.155	0.207	0.033
-252.078	-32.556	0.290	-0.160
-251.063	-200.000	0.021	0.230
-250.049	222.693	0.243	-0.388
-249.034	53.942	0.349	0.333
-248.019	486.932	0.029	-0.066
-247.005	10.049	0.103	0.078
-245.990	-108.299	-0.463	-0.099
-244.976	640.193	-0.098	0.247
-243.961	-200.000	-0.065	0.309
-242.946	-200.000	-0.044	0.381
-241.932	50.909	0.251	0.236
-240.917	133.750	-0.214	0.274
-239.903	569.646	-0.016	0.039
-238.888	381.164	0.157	0.320
-237.873	-13.874	0.260	0.167
-236.859	-126.776	0.249	0.036
-235.844	48.023	-0.197	0.183
-234.830	211.831	0.038	0.059
-233.815	-90.708	0.085	-0.024
-232.800	311.805	-0.014	0.026
-231.786	-38.789	-0.270	-0.141
-230.771	-149.739	-0.132	-0.010
-229.757	-71.139	0.135	-0.050
-228.742	-159.093	0.312	0.017
-227.727	-126.785	0.141	0.021
-226.713	53.603	-0.165	-0.157
-225.698	384.855	-0.128	0.261
-224.684	-89.900	0.169	0.049
-223.669	-61.920	0.238	-0.098
-222.655	60.249	-0.060	0.059
-221.640	800.000	0.034	0.126
-220.625	-200.000	0.003	-0.160
-219.611	129.635	-0.022	-0.028
-218.596	-160.741	-0.263	-0.014
-217.582	350.313	-0.096	-0.189
-216.567	208.667	0.181	-0.280
-215.552	94.278	0.109	-0.123
-214.538	-86.864	-0.065	-0.020
-213.523	9.834	0.372	-0.279
-212.509	-186.950	0.344	0.005
-211.494	-126.833	0.274	0.040
-210.479	-200.000	-0.021	-0.162
-209.465	-200.000	-0.028	0.146
-208.450	-100.678	-0.213	-0.052
-207.436	-119.828	0.068	0.012
-206.421	44.595	-0.143	-0.130
-205.406	-200.000	0.049	-0.287
-204.392	-18.205	0.332	-0.206
-203.377	-124.222	0.070	-0.011
-202.363	23.097	0.129	0.105
-201.348	-80.331	0.060	-0.020
-200.333	86.694	-0.159	0.174
-199.319	10.049	-0.165	-0.124
-198.304	-84.936	0.498	-0.155
-197.290	-133.969	-0.089	0.011
-196.275	85.043	0.152	0.165
-195.260	-94.120	0.119	0.032
-194.246	-8.344	0.219	-0.146
-193.231	4.433	0.176	0.128
-192.217	-200.000	0.017	0.240
-191.202	103.940	-0.345	-0.401
-190.187	35.388	-0.213	-0.185
-189.173	-111.388	-0.246	-0.050
-188.158	556.414	0.094	-0.223
-187.144	-200.000	-0.016	-0.112
-186.129	21.510	-0.086	0.069
-185.114	-98.503	0.084	-0.021
-184.100	84.674	0.143	0.155
-183.085	108.109	0.107	0.126
-182.071	-200.000	-0.017	-0.273
-181.056	-200.000	0.052	-0.366
-180.042	-178.890	0.160	-0.004
-179.027	-79.368	0.104	-0.035
-178.012	-70.577	0.242	-0.090
-176.998	244.520	-0.047	0.078
-175.983	117.037	-0.086	0.104
-174.969	30.413	-0.170	0.144
-173.954	-200.000	-0.051	0.242
-172.939	128.849	0.226	0.285
-171.925	-106.682	-0.438	0.096
-170.910	800.000	-0.061	0.257
-169.896	-151.210	0.218	0.016
-168.881	-112.708	-0.111	0.022
-167.866	-200.000	-0.018	0.153
-166.852	-1.531	-0.236	-0.165
-165.837	552.888	-0.112	-0.266
-164.823	-106.518	0.009	0.002
-163.808	-106.073	0.374	-0.083
-162.793	800.000	-0.036	-0.111
-161.779	-154.440	0.146	-0.010
-160.764	-107.543	0.338	-0.073
-159.750	14.978	0.218	-0.169
-158.735	-95.132	-0.183	0.049
-157.720	320.114	0.022	-0.041
-156.706	551.610	0.073	-0.174
-155.691	-200.000	-0.078	-0.371
-154.677	-1.552	0.187	-0.130
-153.662	149.199	-0.118	-0.157
-152.647	-200.000	0.034	0.288
-151.633	417.517	0.108	0.229
-150.618	749.579	-0.076	0.203
-149.604	81.677	-0.127	-0.136
-148.589	800.000	0.088	0.334
-147.574	-42.080	-0.219	0.110
-146.560	800.000	0.046	0.198
-145.545	16.990	0.344	-0.269
-144.531	800.000	0.042	0.173
-143.516	-200.000	0.027	0.268
-142.502	245.092	-0.052	0.086
-141.487	-151.879	-0.121	0.009
-140.472	-130.219	-0.069	-0.009
-139.458	88.711	-0.316	-0.347
-138.443	172.456	0.083	-0.118
-137.429	800.000	-0.040	0.144
-136.414	-46.665	-0.096	-0.046
-135.399	-95.429	-0.222	0.059
-134.385	800.000	0.091	0.250
-133.370	280.230	0.168	0.297
-132.356	278.008	0.037	-0.064
-131.341	75.007	-0.150	-0.155
-130.326	155.764	-0.192	0.261
-129.312	143.287	-0.136	0.178
-128.297	-94.254	-0.168	-0.045
-127.283	-40.295	0.159	-0.082
-126.268	94.499	-0.243	0.273
-125.253	44.102	-0.051	-0.046
-124.239	-88.783	0.210	-0.061
-123.224	-0.985	0.138	-0.096
-122.210	-73.037	0.075	-0.027
-121.195	-121.160	0.189	0.031
-120.180	-200.000	-0.177	0.000
-119.166	2.301	0.165	-0.118
-118.151	656.821	-0.058	0.148
-117.137	768.986	-0.170	-0.457
-116.122	50.449	-0.060	0.056
-115.107	44.962	-0.176	0.160
-114.093	-200.000	-0.016	0.113
-113.078	37.750	0.063	0.055
-112.064	350.384	0.204	0.398
-111.049	-143.436	0.386	-0.036
-110.034	-200.000	0.025	-0.121
-109.020	-37.233	0.201	0.106
-108.005	137.038	0.229	0.295
-106.991	-43.645	0.247	-0.123
-105.976	191.170	-0.233	0.346
-104.962	-91.643	0.153	0.043
-103.947	151.083	0.178	-0.239
-102.932	-133.278	0.234	0.029
-101.918	-96.701	0.313	0.081
-100.903	48.517	0.274	-0.253
-99.889	167.396	-0.155	0.217
-98.874	-122.259	0.302	-0.049
-97.859	-114.267	-0.159	-0.030
-96.845	114.642	0.137	0.165
-95.830	-90.162	0.357	0.103
-94.816	-200.000	-0.029	0.166
-93.801	-115.120	0.085	-0.016
-92.786	193.546	-0.121	0.180
-91.772	76.833	-0.168	-0.176
-90.757	-41.836	0.413	-0.209
-89.743	800.000	0.049	0.193
-88.728	-200.000	-0.031	-0.295
-87.713	237.571	-0.078	-0.128
-86.699	125.325	-0.170	0.212
-85.684	263.284	0.129	0.221
-84.670	-29.213	0.313	0.176
-83.655	-200.000	-0.037	0.357
-82.640	-112.298	-0.349	0.069
-81.626	-43.655	-0.310	-0.154
-80.611	-131.775	-0.261	0.034
-79.597	-105.087	0.291	0.066
-78.582	-135.190	-0.378	-0.045
-77.567	93.112	-0.130	-0.144
-76.553	494.090	0.030	-0.068
-75.538	313.601	-0.074	-0.137
-74.524	800.000	-0.055	-0.167
-73.509	-73.584	-0.134	0.048
-72.494	-2.769	-0.223	0.154
-71.480	-117.896	-0.180	-0.032
-70.465	96.641	-0.111	0.126
-69.451	-17.920	-0.379	-0.234
-68.436	-2.517	0.329	0.227
-67.422	437.458	0.159	0.340
-66.407	-200.000	-0.023	0.174
-65.392	-200.000	-0.003	0.161
-64.378	-63.201	0.167	0.068
-63.363	-69.915	0.285	0.107
-62.349	-132.887	0.253	-0.032
-61.334	191.140	-0.932	-1.381
-60.319	-148.359	0.299	0.024
-59.305	500.705	-0.409	-0.929
-58.290	102.897	0.805	0.928
-57.276	645.662	0.629	1.580
-56.261	-200.000	101.035	620.062
-55.246	602.160	1434.023	3507.104
-54.232	184.081	2636.634	3839.743
-53.217	116.304	2190.149	2640.483
-52.203	43.395	1724.187	1549.974
-51.188	36.229	1537.767	1333.047
-50.173	33.974	1510.928	1294.391
-49.159	52.894	1563.339	1470.877
-48.144	54.494	1580.904	1498.439
-47.130	36.400	1537.273	1333.582
-46.115	33.385	1521.773	1299.440
-45.100	33.231	1518.698	1295.702
-44.086	33.197	1516.998	1293.968
-43.071	33.028	1515.172	1291.205
-42.057	33.130	1513.527	1290.453
-41.042	33.077	1512.183	1288.891
-40.027	33.144	1510.670	1288.004
-39.013	33.152	1509.684	1287.167
-37.998	33.073	1508.410	1285.496
-36.984	33.127	1507.000	1284.610
-35.969	33.150	1505.597	1283.519
-34.954	33.150	1503.844	1281.974
-33.940	33.128	1502.556	1280.673
-32.925	33.171	1501.417	1279.947
-31.911	33.191	1500.077	1278.887
-30.896	33.298	1498.438	1278.159
-29.881	33.212	1496.899	1276.219
-28.867	33.183	1496.079	1275.272
-27.852	33.138	1494.454	1273.532
-26.838	33.202	1493.226	1272.867
-25.823	33.174	1491.771	1271.391
-24.809	33.160	1489.736	1269.508
-23.794	33.104	1488.414	1267.958
-22.779	33.106	1487.894	1267.474
-21.765	33.134	1486.191	1266.166
-20.750	33.161	1485.451	1265.663
-19.736	33.032	1484.291	1263.765
-18.721	33.132	1483.044	1263.318
-17.706	33.157	1482.098	1262.630
-16.692	33.149	1480.892	1261.498
-15.677	33.089	1480.179	1260.443
-14.663	33.049	1479.620	1259.650
-13.648	33.164	1478.206	1259.158
-12.633	32.987	1477.945	1257.708
-11.619	33.110	1476.790	1257.493
-10.604	33.112	1475.565	1256.415
-9.590	33.112	1474.606	1255.551
-8.575	33.096	1474.182	1255.029
-7.560	33.107	1473.156	1254.182
-6.546	33.137	1471.886	1253.247
-5.531	33.047	1471.430	1252.217
-4.517	33.075	1469.967	1251.107
-3.502	33.040	1469.387	1250.328
-2.487	33.047	1468.188	1249.305
-1.473	33.027	1467.484	1248.528
-0.458	33.024	1466.034	1247.223
0.556	30.569	1456.278	1235.144
1.571	27.220	1429.685	1190.598
2.586	23.509	1367.548	1115.458
3.600	21.580	1285.532	1037.050
4.615	20.529	1240.239	994.416
5.629	17.423	1184.410	932.570
6.644	8.466	1098.505	819.134
7.659	0.990	1056.524	750.803
8.673	-0.286	1050.904	740.448
9.688	-0.242	1047.629	738.289
10.702	-0.348	1045.864	736.461
11.717	-0.384	1044.058	734.948
12.731	2.793	1047.871	753.177
13.746	11.897	1061.204	807.780
14.761	17.947	1068.720	843.400
15.775	18.441	1067.862	845.083
16.790	18.267	1067.446	843.819
17.804	18.157	1065.724	841.845
18.819	17.787	1065.534	839.798
19.834	17.773	1064.817	839.089
20.848	17.810	1064.478	838.932
21.863	17.892	1063.499	838.487
22.877	17.850	1063.275	838.029
23.892	17.713	1062.926	837.007
24.907	17.757	1061.719	836.203
25.921	17.885	1061.104	836.271
26.936	17.825	1060.285	835.258
27.950	17.817	1058.908	834.057
28.965	17.928	1057.730	833.597
29.980	17.834	1055.814	831.556
30.994	17.658	1054.985	829.976
32.009	17.892	1053.854	830.150
33.023	18.017	1052.914	829.941
34.038	17.672	1051.999	827.471
35.053	17.662	1051.016	826.575
36.067	18.005	1050.219	827.537
37.082	17.874	1049.736	826.452
38.096	17.965	1048.665	825.974
39.111	18.054	1047.867	825.703
40.126	18.164	1047.001	825.479
41.140	18.068	1045.853	824.036
42.155	17.899	1044.293	821.922
43.169	17.550	1043.681	819.687
44.184	17.697	1041.837	818.873
45.199	17.638	1041.184	818.003
46.213	17.594	1039.851	816.674
47.228	17.612	1038.762	815.835
48.242	17.624	1037.798	815.060
49.257	17.634	1036.784	814.240
50.271	17.734	1036.015	814.041
51.286	17.730	1035.568	813.601
52.301	17.701	1034.529	812.571
53.315	17.813	1033.220	812.008
54.330	17.830	1032.397	811.369
55.344	17.943	1031.220	810.910
56.359	17.980	1030.523	810.463
57.374	17.922	1029.593	809.386
58.388	17.587	1029.021	807.277
59.403	17.800	1027.888	807.324
60.417	17.886	1026.726	806.749
61.432	17.605	1026.048	804.815
62.447	17.651	1025.633	804.636
63.461	17.770	1024.944	804.585
64.476	17.893	1023.701	804.117
65.490	17.851	1023.053	803.342
66.505	17.769	1021.876	801.958
67.520	17.718	1020.962	800.933
68.534	17.750	1020.128	800.359
69.549	17.722	1019.276	799.488
70.563	17.558	1017.917	797.582
71.578	17.310	1017.547	796.059
72.593	17.544	1016.432	796.213
73.607	17.508	1014.919	794.787
74.622	17.386	1014.126	793.528
75.636	17.592	1013.789	794.157
76.651	17.709	1013.002	794.013
77.666	17.565	1011.999	792.489
78.680	17.502	1011.252	791.536
79.695	17.505	1010.506	790.899
80.709	17.672	1010.127	791.306
81.724	17.717	1009.015	790.577
82.739	17.654	1008.148	789.532
83.753	17.716	1007.275	789.069
84.768	17.920	1006.407	789.262
85.782	18.041	1005.924	789.372
86.797	18.188	1004.983	789.243
87.812	18.029	1004.030	787.692
88.826	17.972	1002.663	786.287
89.841	18.008	1002.153	785.983
90.855	17.978	1001.624	785.360
91.870	18.113	1000.631	785.132
92.884	18.130	999.596	784.330
93.899	18.001	998.868	783.094
94.914	17.910	998.264	782.134
95.928	17.959	997.382	781.599
96.943	17.962	996.394	780.769
97.957	17.874	995.032	779.233
98.972	17.694	994.149	777.650
99.987	17.456	993.196	775.751
101.001	17.523	992.482	775.430
102.016	17.725	991.978	775.886
103.030	17.867	990.906	775.628
104.045	17.827	989.609	774.361
105.060	17.675	988.111	772.430
106.074	17.493	986.812	770.522
107.089	17.587	986.119	770.338
108.103	17.822	986.534	771.657
109.118	18.210	985.292	772.373
110.133	17.852	984.028	769.695
111.147	17.869	983.177	769.041
112.162	17.746	982.004	767.500
113.176	17.618	980.748	765.874
114.191	17.571	980.158	765.137
115.206	17.729	978.934	764.821
116.220	17.415	977.673	762.364
117.235	17.333	976.798	761.245
118.249	17.603	976.313	762.008
119.264	17.622	974.666	760.743
120.279	17.526	974.303	759.963
121.293	17.580	973.092	759.190
122.308	17.517	972.969	758.747
123.322	17.795	971.655	758.892
124.337	17.703	970.722	757.685
125.352	17.559	969.263	755.841
126.366	17.202	967.591	752.889
127.381	16.945	965.770	750.271
128.395	17.415	965.423	752.011
129.410	17.984	964.729	753.918
130.424	18.072	964.157	753.789
131.439	17.889	963.066	752.064
132.454	17.816	962.057	750.890
133.468	17.886	961.142	750.419
134.483	17.849	960.226	749.470
135.497	18.106	959.052	749.616
136.512	18.157	958.833	749.605
137.527	18.195	958.110	749.136
138.541	18.222	957.122	748.416
139.556	18.138	956.683	747.640
140.570	18.229	955.403	746.972
141.585	18.137	954.627	745.895
142.600	18.068	953.706	744.811
143.614	18.178	952.645	744.393
144.629	18.022	952.288	743.373
145.643	18.265	951.825	744.002
146.658	18.241	950.599	742.874
147.673	18.077	949.724	741.414
148.687	18.011	948.664	740.233
149.702	17.958	947.356	738.917
150.716	17.905	946.528	737.976
151.731	17.896	945.447	737.031
152.746	18.015	944.578	736.799
153.760	18.128	944.438	737.111
154.775	18.201	943.783	736.851
155.789	18.337	942.571	736.424
156.804	18.151	941.915	735.047
157.819	18.275	940.535	734.436
158.833	18.320	939.484	733.744
159.848	18.307	939.026	733.269
160.862	18.239	938.573	732.560
161.877	18.171	937.324	731.225
162.892	18.239	936.456	730.777
163.906	18.347	936.092	730.887
164.921	18.351	934.954	729.952
165.935	18.451	932.934	728.734
166.950	18.350	932.601	727.982
167.964	18.293	931.533	726.842
168.979	18.260	930.331	725.701
169.994	18.408	928.912	725.153
171.008	18.091	928.454	723.390
172.023	18.194	928.232	723.592
173.037	18.258	926.795	722.678
174.052	18.175	925.608	721.338
175.067	17.813	924.998	719.273
176.081	18.080	924.112	719.643
177.096	18.216	923.527	719.697
178.110	18.209	922.305	718.651
179.125	17.937	921.270	716.639
180.140	17.798	919.933	714.955
181.154	17.879	919.452	714.858
182.169	17.786	919.359	714.333
183.183	17.963	918.744	714.532
184.198	18.216	917.914	714.878
185.213	18.181	917.047	713.996
186.227	18.157	916.604	713.486
187.242	18.234	916.226	713.452
188.256	18.355	915.234	713.118
189.271	18.298	914.302	712.093
190.286	18.305	913.690	711.583
191.300	18.165	912.964	710.371
192.315	17.813	911.522	707.727
193.329	17.369	909.810	704.495
194.344	16.864	909.183	701.858
195.359	17.421	909.308	704.200
196.373	18.081	909.385	706.927
197.388	18.312	909.241	707.709
198.402	18.097	908.053	705.832
199.417	17.887	907.607	704.556
200.432	18.102	907.012	704.921
201.446	17.882	906.169	703.294
202.461	17.675	904.752	701.282
203.475	17.745	904.207	701.085
204.490	17.292	903.057	698.269
205.504	16.263	901.357	692.673
206.519	16.762	901.434	694.717
207.534	17.621	901.641	698.340
208.548	17.848	900.588	698.391
209.563	18.023	900.756	699.174
210.577	18.237	899.637	699.122
211.592	17.909	898.859	697.116
212.607	18.120	898.934	697.971
213.621	18.168	898.065	697.431
214.636	18.205	897.647	697.194
215.650	18.219	896.881	696.595
216.665	18.237	895.979	695.909
217.680	18.266	895.893	695.897
218.694	18.370	894.981	695.549
219.709	18.033	894.068	693.410
220.723	17.855	893.074	691.857
221.738	18.063	892.498	692.192
222.753	18.007	892.112	691.605
223.767	18.165	890.976	691.303
224.782	18.249	890.273	691.033
225.796	18.275	889.765	690.684
226.811	18.393	889.369	690.792
227.826	18.070	887.858	688.254
228.840	17.390	886.419	684.345
229.855	17.342	885.925	683.710
230.869	17.580	885.225	684.066
231.884	17.348	884.055	682.169
232.899	17.472	883.634	682.281
233.913	18.030	884.328	684.993
234.928	18.318	883.407	685.372
235.942	18.354	882.135	684.470
236.957	18.301	881.914	684.025
237.972	18.009	880.800	681.936
238.986	18.038	880.027	681.394
240.001	18.079	879.633	681.193
241.015	18.044	878.855	680.391
242.030	18.085	878.649	680.333
243.045	18.302	877.601	680.324
244.059	18.271	877.017	679.689
245.074	18.449	876.505	679.937
246.088	18.293	876.039	678.896
247.103	18.127	874.729	677.164
248.117	17.967	874.268	676.113
249.132	18.490	873.786	677.749
250.147	18.672	873.486	678.178
251.161	18.702	872.701	677.626
252.176	18.834	872.457	677.897
253.190	18.869	871.796	677.461
254.205	18.656	871.174	676.081
255.220	19.041	870.613	677.101
256.234	19.058	870.034	676.658
257.249	19.175	869.011	676.261
258.263	18.800	868.270	674.150
259.278	18.924	868.071	674.423
260.293	18.882	867.757	673.957
261.307	18.949	866.828	673.436
262.322	18.879	865.878	672.365
263.336	18.773	865.196	671.361
264.351	18.308	863.827	668.428
265.366	17.189	861.696	662.358
266.380	16.818	861.154	660.438
267.395	17.737	861.392	664.140
268.409	18.501	861.263	666.955
269.424	18.565	860.533	666.582
270.439	18.686	860.177	666.715
271.453	18.783	859.539	666.541
272.468	18.982	858.896	666.754
273.482	19.034	858.432	666.536
274.497	19.071	858.093	666.357
275.512	18.904	856.801	664.649
276.526	18.399	855.613	661.718
277.541	18.576	855.054	661.912
278.555	18.904	854.769	662.897
279.570	18.692	853.690	661.186
280.585	18.394	852.876	659.347
281.599	18.533	852.374	659.437
282.614	18.659	851.804	659.423
283.628	18.371	851.019	657.648
284.643	18.213	850.204	656.356
285.657	18.598	849.591	657.300
286.672	18.513	849.015	656.472
287.687	17.884	848.323	653.471
288.701	18.212	848.214	654.585
289.716	18.653	847.793	655.887
290.730	18.258	846.886	653.618
291.745	18.233	846.014	652.794
292.760	18.109	844.743	651.282
293.774	17.875	844.671	650.278
294.789	18.688	844.907	653.498
295.803	19.281	844.800	655.613
296.818	19.367	844.551	655.691
297.833	19.510	843.750	655.553
298.847	19.145	843.032	653.552
299.862	18.911	841.900	651.731
300.876	19.029	841.571	651.863
301.891	19.218	841.133	652.181
302.906	19.290	840.157	651.642
303.920	18.938	839.106	649.438
304.935	18.894	838.294	648.586
305.949	19.136	837.853	649.101
306.964	19.143	837.594	648.870
307.979	19.086	837.056	648.181
308.993	19.054	836.674	647.707
310.008	19.469	836.123	648.784
311.022	19.539	835.635	648.612
312.037	19.307	835.139	647.296
313.052	19.173	834.657	646.365
314.066	19.151	833.507	645.334
315.081	18.571	832.538	642.353
316.095	17.908	831.235	638.811
317.110	18.432	831.081	640.596
318.125	19.207	831.230	643.551
319.139	18.815	830.345	641.347
320.154	18.022	828.782	637.126
321.168	17.648	827.934	635.023
322.183	18.108	828.110	636.819
323.197	18.802	828.720	639.817
324.212	19.209	827.886	640.630
325.227	19.249	827.714	640.590
326.241	19.289	827.207	640.290
327.256	19.158	826.703	639.354
328.270	19.156	825.836	638.621
329.285	19.140	825.348	638.126
330.300	18.948	824.643	636.813
331.314	18.873	824.113	636.070
332.329	18.977	822.951	635.502
333.343	19.141	822.615	635.791
334.358	19.320	822.364	636.203
335.373	19.389	821.667	635.861
336.387	19.351	821.193	635.300
337.402	19.613	820.489	635.661
338.416	19.785	820.116	635.951
339.431	19.630	819.554	634.887
340.446	19.577	819.125	634.306
341.460	19.631	818.727	634.138
342.475	19.725	818.012	633.874
343.489	19.546	817.097	632.453
344.504	19.451	817.026	631.992
345.519	19.673	816.406	632.269
346.533	20.015	815.588	632.831
347.548	20.017	815.532	632.739
348.562	20.023	815.041	632.324
349.577	19.973	814.673	631.800
350.592	20.013	814.392	631.673
351.606	19.992	813.771	631.057
352.621	20.195	812.845	631.025
353.635	19.928	812.667	629.858
354.650	19.811	812.150	628.977
355.665	19.581	811.036	627.222
356.679	18.703	809.243	622.597
357.694	18.612	808.837	621.901
358.708	19.109	808.851	623.655
359.723	19.103	808.330	623.177
360.738	19.318	808.201	623.800
361.752	19.726	807.897	624.985
362.767	19.830	807.675	625.135
363.781	20.008	807.274	625.413
364.796	20.171	807.054	625.774
365.810	20.166	806.554	625.316
366.825	20.137	806.442	625.067
367.840	20.370	805.903	625.432
368.854	20.061	805.301	623.798
369.869	19.855	804.263	622.200
370.883	19.725	803.791	621.311
371.898	19.867	803.196	621.308
372.913	19.809	802.290	620.342
373.927	19.526	801.995	619.045
374.942	19.809	801.239	619.420
375.956	20.016	800.929	619.867
376.971	20.053	800.261	619.427
377.986	20.098	800.066	619.383
379.000	20.361	799.072	619.497
380.015	20.139	799.108	618.679
381.029	20.133	798.229	617.920
382.044	20.170	797.625	617.532
383.059	20.360	796.835	617.539
384.073	20.277	796.589	617.001
385.088	20.200	796.595	616.677
386.102	20.328	796.120	616.709
387.117	20.268	795.400	615.884
388.132	20.222	794.665	615.098
389.146	20.096	794.070	614.135
390.161	19.583	793.137	611.543
391.175	19.592	792.205	610.802
392.190	19.916	792.638	612.229
393.205	20.042	791.900	612.049
394.219	19.282	790.844	608.498
395.234	17.957	788.849	602.238
396.248	17.378	787.692	599.264
397.263	18.408	788.287	603.290
398.278	19.905	789.456	609.407
399.292	20.238	789.561	610.607
400.307	19.944	788.810	608.937
401.321	20.010	788.298	608.719
402.336	20.002	788.081	608.472
403.350	20.355	787.545	609.244
404.365	20.490	787.458	609.596
405.380	20.572	787.473	609.842
406.394	20.898	786.737	610.359
407.409	20.903	787.026	610.545
408.423	20.830	786.113	609.530
409.438	20.692	785.444	608.473
410.453	20.764	785.242	608.515
411.467	20.909	784.732	608.573
412.482	20.917	784.005	607.982
413.496	20.968	783.268	607.535
414.511	21.101	783.050	607.774
415.526	21.067	782.970	607.542
416.540	21.119	782.249	607.109
417.555	20.878	781.798	605.867
418.569	20.515	781.192	604.081
419.584	20.493	780.616	603.507
420.599	20.456	780.482	603.221
421.613	156.162	1359.940	1793.129
422.628	134.946	1444.370	1793.226
