DTS Sentinel unit serial number:	SN413079Multiplexer serial number:	ORYXHardware model number:	OX4-SRSoftware version number:	ORYX F/W v4.00 Oryx Data Collector v3.7.2.0data status	okinstallation	princeton_trtdifferential loss correction	single-endedforward channel	channel 3reverse channel	N/Adate	2019/09/11time	03:42:10forward acquisition time	60.00reverse acquisition time	0.00gamma	496.2192k internal	0.2330k external	0.2330temperature offset calibration	0.9910default loss term (dB/km)	0.3790temperature slope calibration	1.0000multiplexer offset coefficient	1.0000multiplexer slope coefficient	1.0000fibre end	0.00T internal ref (°C)	29.50T ext. ref 1 (°C)	-0.31T ext. ref 2 (°C)	24.01length (m)	temperature (°C)	Stokes	anti-Stokes-747.200	193.843	0.204	0.312
-746.185	718.767	-0.066	-0.177
-745.171	152.065	0.131	0.179
-744.156	-87.466	-0.395	-0.120
-743.142	158.921	0.091	-0.128
-742.127	294.477	-0.116	0.213
-741.112	646.879	0.060	-0.153
-740.098	-30.566	-0.387	0.221
-739.083	387.702	-0.096	0.200
-738.069	-85.653	0.020	-0.006
-737.054	-200.000	0.088	-0.472
-736.039	-60.011	-0.305	-0.131
-735.025	-103.827	-0.083	-0.020
-734.010	-53.351	-0.155	-0.072
-732.996	249.161	-0.059	0.101
-731.981	-138.779	-0.363	0.040
-730.966	122.747	-0.218	-0.274
-729.952	-122.820	-0.146	-0.024
-728.937	-172.402	-0.434	-0.014
-727.923	130.431	-0.174	-0.224
-726.908	-200.000	0.010	0.043
-725.894	800.000	-0.092	-0.291
-724.879	157.236	-0.238	-0.331
-723.864	-99.586	0.346	0.087
-722.850	800.000	0.032	-0.127
-721.835	99.141	-0.165	-0.192
-720.821	25.855	0.196	-0.164
-719.806	-131.459	-0.318	0.042
-718.791	-200.000	0.025	0.277
-717.777	-118.534	-0.090	0.016
-716.762	-200.000	0.011	-0.170
-715.748	272.302	-0.045	0.079
-714.733	87.596	0.101	-0.113
-713.718	615.272	0.091	-0.229
-712.704	-6.709	-0.117	-0.080
-711.689	-200.000	-0.031	0.148
-710.675	-141.040	0.263	-0.027
-709.660	54.032	0.141	0.137
-708.645	20.326	0.094	-0.076
-707.631	-53.063	0.163	-0.075
-706.616	-200.000	-0.017	0.290
-705.602	-167.740	0.298	0.012
-704.587	500.403	0.055	-0.127
-703.572	800.000	0.024	0.092
-702.558	-74.083	-0.140	0.051
-701.543	78.097	-0.188	-0.202
-700.529	62.796	-0.083	-0.083
-699.514	-200.000	0.019	0.199
-698.499	800.000	0.006	0.026
-697.485	800.000	0.082	-0.271
-696.470	49.932	-0.065	-0.062
-695.456	639.409	-0.064	-0.163
-694.441	-47.622	0.234	0.114
-693.426	-27.551	-0.217	-0.127
-692.412	354.569	-0.132	-0.264
-691.397	-122.281	0.257	0.042
-690.383	141.357	0.136	-0.180
-689.368	-140.322	-0.284	0.030
-688.354	421.258	-0.134	-0.289
-687.339	-200.000	0.005	-0.209
-686.324	137.432	0.058	0.076
-685.310	2.337	0.181	0.132
-684.295	58.292	-0.156	-0.154
-683.281	119.797	-0.096	-0.120
-682.266	-63.713	-0.321	-0.132
-681.251	339.716	0.147	0.287
-680.237	-123.421	0.274	0.044
-679.222	175.622	0.200	-0.291
-678.208	800.000	-0.056	0.164
-677.193	800.000	0.067	-0.210
-676.178	-87.589	0.100	0.030
-675.164	-200.000	0.012	-0.339
-674.149	-129.189	0.346	0.049
-673.135	-69.443	-0.166	-0.064
-672.120	-200.000	-0.016	-0.211
-671.105	-69.766	0.118	-0.045
-670.091	800.000	-0.047	-0.174
-669.076	83.845	-0.080	-0.088
-668.062	-160.098	0.181	-0.010
-667.047	42.406	-0.294	-0.269
-666.032	43.328	-0.130	-0.119
-665.018	800.000	-0.085	-0.359
-664.003	-59.808	0.228	-0.098
-662.989	-200.000	-0.005	-0.114
-661.974	418.574	0.100	-0.214
-660.959	93.733	-0.049	0.056
-659.945	-27.664	-0.233	0.136
-658.930	29.725	0.103	-0.088
-657.916	-26.985	0.214	0.125
-656.901	26.547	-0.152	-0.127
-655.886	-200.000	0.016	0.122
-654.872	32.722	0.058	0.050
-653.857	19.525	-0.132	-0.106
-652.843	-200.000	-0.077	0.424
-651.828	-102.247	-0.514	-0.124
-650.814	-94.493	-0.212	0.058
-649.799	746.158	-0.068	-0.184
-648.784	-34.542	0.197	-0.108
-647.770	600.668	0.165	0.410
-646.755	-15.797	0.362	0.231
-645.741	-76.189	-0.203	0.072
-644.726	20.246	0.188	-0.152
-643.711	-18.801	0.160	-0.100
-642.697	-24.786	-0.169	0.101
-641.682	-85.058	-0.185	0.058
-640.668	-200.000	0.016	-0.153
-639.653	-200.000	0.023	-0.250
-638.638	800.000	-0.092	-0.283
-637.624	-30.165	0.147	-0.084
-636.609	800.000	0.142	-0.408
-635.595	-200.000	-0.096	0.420
-634.580	462.520	-0.068	0.151
-633.565	800.000	0.109	-0.372
-632.551	126.098	0.067	-0.085
-631.536	-192.144	-0.159	0.002
-630.522	-129.748	0.466	0.064
-629.507	59.087	0.043	0.042
-628.492	-30.882	0.225	0.127
-627.478	-200.000	0.024	0.153
-626.463	38.121	0.162	-0.145
-625.449	-15.179	-0.199	-0.127
-624.434	250.268	0.088	-0.151
-623.419	-119.895	-0.357	-0.062
-622.405	459.046	-0.145	-0.323
-621.390	-163.206	0.207	0.010
-620.376	60.454	-0.133	-0.132
-619.361	83.266	0.146	-0.159
-618.346	-78.201	-0.109	0.038
-617.332	192.734	0.175	0.265
-616.317	-200.000	0.027	-0.500
-615.303	-188.683	0.244	0.003
-614.288	-118.300	0.164	0.029
-613.273	93.050	-0.033	-0.037
-612.259	-200.000	-0.078	0.414
-611.244	-55.234	-0.359	-0.162
-610.230	-77.934	-0.132	0.046
-609.215	705.106	0.106	-0.279
-608.201	800.000	-0.023	-0.091
-607.186	266.987	-0.165	-0.288
-606.171	221.538	-0.246	-0.396
-605.157	-200.000	-0.026	-0.237
-604.142	-200.000	-0.033	-0.334
-603.128	800.000	-0.118	-0.330
-602.113	582.260	0.059	-0.144
-601.098	0.786	0.128	-0.091
-600.084	-50.765	-0.319	0.150
-599.069	115.623	-0.034	-0.041
-598.055	-200.000	-0.015	0.102
-597.040	0.962	-0.074	-0.053
-596.025	293.786	0.091	-0.166
-595.011	13.348	0.156	0.121
-593.996	-200.000	-0.026	-0.141
-592.982	288.680	0.109	-0.197
-591.967	92.480	-0.135	0.153
-590.952	6.588	0.252	0.187
-589.938	218.717	0.143	-0.228
-588.923	210.685	-0.138	0.217
-587.909	800.000	0.048	-0.149
-586.894	780.142	-0.051	0.139
-585.879	413.565	-0.067	-0.143
-584.865	25.190	0.076	0.063
-583.850	796.557	0.043	0.119
-582.836	126.449	0.077	0.097
-581.821	507.293	-0.045	-0.105
-580.806	99.134	-0.012	0.014
-579.792	98.199	0.071	0.081
-578.777	54.956	-0.302	0.292
-577.763	387.833	-0.096	-0.198
-576.748	66.208	-0.144	-0.146
-575.733	-47.606	0.371	-0.180
-574.719	-152.643	-0.213	0.015
-573.704	89.102	-0.099	0.110
-572.690	80.253	-0.257	-0.277
-571.675	365.833	0.114	-0.229
-570.661	-44.685	-0.116	0.058
-569.646	-113.032	0.462	-0.091
-568.631	214.313	0.043	0.069
-567.617	-68.980	-0.062	0.024
-566.602	-184.132	-0.212	-0.004
-565.588	-35.458	0.078	-0.043
-564.573	679.547	0.098	0.256
-563.558	112.887	-0.161	0.195
-562.544	-86.276	0.272	0.084
-561.529	38.410	-0.309	0.275
-560.515	-200.000	-0.008	-0.048
-559.500	15.342	-0.135	0.106
-558.485	-54.989	-0.471	0.212
-557.471	-200.000	0.008	0.089
-556.456	-200.000	0.038	-0.213
-555.442	-10.230	0.314	0.208
-554.427	-60.471	0.162	0.069
-553.412	268.577	0.019	-0.034
-552.398	-8.122	-0.207	0.139
-551.383	800.000	0.115	0.319
-550.369	-200.000	0.033	0.251
-549.354	-46.254	0.042	0.020
-548.339	127.653	-0.024	-0.030
-547.325	-30.053	0.390	0.222
-546.310	399.081	0.158	-0.330
-545.296	-78.587	0.183	-0.062
-544.281	-157.987	0.168	-0.010
-543.266	-79.548	0.188	0.063
-542.252	800.000	0.026	-0.080
-541.237	142.234	-0.198	-0.262
-540.223	126.327	-0.101	-0.128
-539.208	-143.069	-0.128	-0.012
-538.193	-14.603	-0.192	0.123
-537.179	-77.822	-0.291	0.100
-536.164	-90.385	-0.357	-0.103
-535.150	-200.000	-0.023	0.283
-534.135	-72.835	0.184	-0.068
-533.121	-55.642	-0.276	0.123
-532.106	-200.000	0.070	-0.326
-531.091	800.000	-0.069	0.227
-530.077	41.896	-0.288	0.261
-529.062	-200.000	0.012	0.406
-528.048	-200.000	-0.000	-0.055
-527.033	-64.366	0.228	-0.093
-526.018	-200.000	-0.018	-0.229
-525.004	-2.740	-0.072	0.051
-523.989	80.543	0.156	0.167
-522.975	-108.457	-0.209	0.045
-521.960	-42.441	0.348	-0.177
-520.945	800.000	0.069	0.255
-519.931	-200.000	0.008	0.414
-518.916	125.521	0.096	0.121
-517.902	-200.000	-0.021	-0.312
-516.887	-200.000	-0.030	-0.193
-515.872	-32.414	-0.334	-0.186
-514.858	108.531	0.097	-0.116
-513.843	-200.000	-0.024	0.228
-512.829	-58.515	-0.368	-0.159
-511.814	-200.000	0.016	0.173
-510.799	37.710	0.157	-0.139
-509.785	279.831	-0.179	-0.319
-508.770	185.026	0.085	0.125
-507.756	80.010	0.232	0.248
-506.741	177.013	0.157	-0.228
-505.726	30.324	-0.191	0.162
-504.712	118.177	0.118	0.145
-503.697	799.836	0.077	0.212
-502.683	800.000	0.109	-0.321
-501.668	800.000	0.033	-0.105
-500.653	331.702	0.105	-0.202
-499.639	56.197	-0.054	0.052
-498.624	-79.471	-0.065	-0.022
-497.610	188.404	-0.219	-0.326
-496.595	-117.673	-0.149	0.027
-495.581	448.322	-0.092	0.202
-494.566	-169.043	-0.084	-0.003
-493.551	123.825	0.114	0.143
-492.537	-200.000	0.019	0.140
-491.522	800.000	0.093	0.281
-490.508	-108.943	-0.294	-0.062
-489.493	-26.103	0.200	-0.117
-488.478	-121.125	0.075	-0.012
-487.464	-129.270	-0.333	0.046
-486.449	155.909	-0.155	-0.213
-485.435	800.000	-0.124	-0.370
-484.420	-69.044	-0.297	-0.114
-483.405	2.309	-0.064	-0.046
-482.391	-200.000	0.038	-0.315
-481.376	-200.000	0.017	0.145
-480.362	-3.039	-0.077	-0.053
-479.347	800.000	-0.034	-0.121
-478.332	-116.267	-0.129	-0.024
-477.318	73.562	-0.043	0.045
-476.303	414.990	-0.067	0.142
-475.289	-112.067	-0.216	0.043
-474.274	-111.293	0.220	-0.045
-473.259	52.723	0.153	-0.146
-472.245	129.070	0.069	-0.088
-471.230	-200.000	-0.012	0.157
-470.216	-45.957	-0.164	-0.080
-469.201	455.593	0.155	0.341
-468.186	504.788	0.046	0.107
-467.172	308.193	-0.045	0.084
-466.157	636.082	-0.134	0.338
-465.143	800.000	-0.066	0.269
-464.128	260.209	-0.135	-0.233
-463.113	94.278	0.227	-0.256
-462.099	39.453	-0.088	-0.079
-461.084	-200.000	-0.013	-0.104
-460.070	-105.219	0.249	-0.057
-459.055	11.932	0.388	-0.297
-458.040	202.411	-0.120	-0.184
-457.026	-48.886	0.169	0.080
-456.011	163.670	0.053	-0.074
-454.997	288.990	-0.065	-0.117
-453.982	-123.454	0.324	-0.051
-452.968	21.078	-0.391	0.316
-451.953	682.849	0.041	0.106
-450.938	94.878	0.184	0.208
-449.924	-32.219	-0.279	-0.155
-448.909	-200.000	0.056	-0.307
-447.895	16.392	-0.145	-0.114
-446.880	-31.233	-0.334	0.187
-445.865	231.979	-0.182	-0.297
-444.851	-73.019	0.275	0.100
-443.836	-84.449	0.117	0.037
-442.822	209.573	-0.137	-0.214
-441.807	-21.668	0.156	-0.094
-440.792	800.000	0.093	-0.339
-439.778	-101.991	0.108	0.026
-438.763	-4.846	-0.170	0.116
-437.749	25.087	-0.323	0.267
-436.734	7.684	0.237	-0.176
-435.719	-16.109	-0.190	-0.120
-434.705	49.880	-0.017	-0.016
-433.690	83.127	-0.136	-0.147
-432.676	-55.639	-0.419	-0.187
-431.661	-145.242	0.209	-0.019
-430.646	-200.000	-0.001	0.286
-429.632	-200.000	-0.014	-0.132
-428.617	-16.941	0.037	-0.023
-427.603	6.269	-0.126	0.093
-426.588	-148.348	0.268	-0.022
-425.573	800.000	-0.076	0.254
-424.559	308.419	0.162	-0.300
-423.544	800.000	0.014	-0.043
-422.530	1.792	-0.141	-0.101
-421.515	-13.047	0.109	0.070
-420.500	64.342	0.124	0.125
-419.486	267.207	0.094	0.164
-418.471	-200.000	0.011	-0.112
-417.457	-48.765	0.190	0.091
-416.442	70.606	-0.098	0.100
-415.428	-84.351	0.199	0.062
-414.413	-161.940	-0.460	-0.023
-413.398	-147.578	0.142	0.012
-412.384	53.467	-0.082	-0.078
-411.369	27.981	-0.282	0.237
-410.355	-41.437	0.479	0.245
-409.340	-77.165	-0.375	0.130
-408.325	118.063	0.017	0.020
-407.311	88.716	0.156	-0.173
-406.296	-200.000	-0.001	-0.054
-405.282	-58.843	0.350	0.151
-404.267	643.888	-0.050	-0.127
-403.252	-122.225	0.262	-0.043
-402.238	-140.224	-0.224	0.023
-401.223	-132.987	-0.133	0.017
-400.209	-146.955	-0.180	-0.015
-399.194	37.722	-0.107	0.095
-398.179	-200.000	0.014	0.086
-397.165	437.540	-0.144	0.312
-396.150	-175.576	-0.087	-0.002
-395.136	0.654	-0.153	0.109
-394.121	-41.592	-0.084	0.043
-393.106	-91.204	-0.255	-0.073
-392.092	145.506	0.207	0.276
-391.077	-108.472	0.284	0.061
-390.063	-62.475	0.152	-0.063
-389.048	-200.000	-0.016	0.128
-388.033	89.068	0.013	-0.015
-387.019	-69.531	0.075	0.028
-386.004	-11.741	-0.151	0.098
-384.990	50.771	0.083	0.078
-383.975	-177.806	0.176	0.004
-382.960	251.082	0.217	-0.367
-381.946	800.000	0.023	-0.089
-380.931	800.000	-0.072	-0.291
-379.917	-19.021	-0.183	-0.113
-378.902	-89.379	0.057	-0.017
-377.888	-200.000	-0.027	-0.122
-376.873	114.178	-0.106	0.128
-375.858	800.000	0.065	-0.261
-374.844	800.000	-0.038	-0.104
-373.829	-5.424	0.097	-0.066
-372.815	800.000	0.079	0.298
-371.800	-20.204	0.085	0.052
-370.785	433.370	0.037	-0.081
-369.771	-100.285	-0.221	-0.055
-368.756	-200.000	-0.170	0.001
-367.742	-52.684	0.335	0.153
-366.727	-200.000	0.007	0.237
-365.712	800.000	0.048	-0.132
-364.698	-200.000	-0.024	-0.190
-363.683	-117.698	0.213	0.038
-362.669	-200.000	0.006	0.099
-361.654	137.182	0.119	0.155
-360.639	-200.000	-0.047	-0.271
-359.625	303.648	0.081	-0.148
-358.610	800.000	0.076	0.249
-357.596	655.336	-0.043	0.111
-356.581	-127.350	0.253	0.037
-355.566	-124.764	0.096	-0.015
-354.552	-200.000	0.021	0.100
-353.537	800.000	0.048	0.158
-352.523	16.576	0.249	0.195
-351.508	800.000	0.070	-0.248
-350.493	-72.703	0.081	-0.030
-349.479	0.377	0.208	0.147
-348.464	-63.351	0.016	-0.006
-347.450	-28.048	-0.082	0.047
-346.435	-128.379	0.083	0.012
-345.420	105.373	-0.114	0.134
-344.406	196.771	0.079	-0.119
-343.391	128.847	0.058	-0.073
-342.377	313.731	0.216	-0.402
-341.362	-10.042	0.189	0.124
-340.348	224.000	0.122	0.195
-339.333	-61.335	-0.082	-0.034
-338.318	249.106	-0.115	-0.193
-337.304	-38.518	0.169	0.089
-336.289	-179.871	-0.188	0.004
-335.275	-200.000	0.015	0.112
-334.260	800.000	0.018	0.057
-333.245	479.964	-0.021	0.047
-332.231	-63.884	-0.370	-0.150
-331.216	236.186	-0.157	0.257
-330.202	529.346	-0.192	0.450
-329.187	-36.583	-0.264	-0.141
-328.172	800.000	0.038	-0.166
-327.158	-98.302	0.181	0.046
-326.143	39.009	0.210	0.186
-325.129	800.000	-0.059	0.187
-324.114	-200.000	0.016	-0.093
-323.099	-18.704	-0.106	0.065
-322.085	-11.808	-0.148	-0.096
-321.070	139.870	-0.143	0.186
-320.056	111.997	-0.155	0.186
-319.041	-200.000	0.006	0.067
-318.026	-150.985	0.242	-0.018
-317.012	29.494	0.182	-0.154
-315.997	496.890	-0.128	0.291
-314.983	339.759	0.113	-0.218
-313.968	-200.000	0.027	0.253
-312.953	-113.073	0.271	0.053
-311.939	-78.286	0.081	-0.027
-310.924	-200.000	-0.004	-0.057
-309.910	89.905	-0.212	-0.234
-308.895	-200.000	0.025	-0.318
-307.880	-73.985	0.395	0.142
-306.866	67.876	0.264	-0.267
-305.851	-110.106	0.039	0.008
-304.837	-76.469	0.094	0.033
-303.822	-6.829	-0.262	-0.176
-302.807	800.000	0.049	-0.182
-301.793	-47.462	-0.255	-0.123
-300.778	-114.506	-0.245	0.047
-299.764	42.530	0.022	-0.019
-298.749	-54.403	-0.175	-0.078
-297.735	72.662	-0.113	0.116
-296.720	-200.000	0.092	0.592
-295.705	158.945	-0.131	-0.180
-294.691	81.936	0.046	-0.050
-293.676	-148.280	-0.164	0.013
-292.662	-200.000	-0.010	-0.253
-291.647	-8.391	-0.065	0.043
-290.632	583.821	-0.111	-0.271
-289.618	-200.000	-0.025	-0.199
-288.603	800.000	-0.009	-0.029
-287.589	-200.000	0.028	0.251
-286.574	-188.150	-0.133	0.002
-285.559	113.419	-0.231	0.277
-284.545	166.312	-0.133	0.187
-283.530	800.000	-0.044	-0.152
-282.516	-200.000	-0.019	0.089
-281.501	12.073	0.132	-0.100
-280.486	19.107	-0.065	-0.052
-279.472	-78.601	0.333	-0.113
-278.457	-200.000	0.041	-0.203
-277.443	-64.144	-0.117	-0.047
-276.428	-137.321	0.137	-0.015
-275.413	-200.000	-0.003	0.366
-274.399	9.874	0.257	-0.193
-273.384	-200.000	-0.053	0.348
-272.370	800.000	-0.048	0.193
-271.355	200.517	0.125	0.189
-270.340	731.455	0.017	0.046
-269.326	89.055	-0.047	0.051
-268.311	114.597	-0.115	0.139
-267.297	-200.000	-0.035	0.168
-266.282	200.596	-0.146	0.222
-265.267	800.000	0.078	0.230
-264.253	-25.517	-0.222	-0.130
-263.238	709.561	-0.011	-0.028
-262.224	-200.000	-0.032	0.264
-261.209	-200.000	-0.041	-0.319
-260.195	306.600	0.100	0.184
-259.180	610.961	0.059	0.145
-258.165	-38.887	0.219	0.114
-257.151	65.387	-0.104	0.104
-256.136	231.248	0.141	-0.228
-255.122	55.579	-0.233	-0.223
-254.107	-200.000	0.003	-0.145
-253.092	-60.584	-0.179	-0.075
-252.078	-80.482	-0.172	0.057
-251.063	-200.000	0.036	0.162
-250.049	-130.892	-0.218	-0.029
-249.034	223.845	0.079	-0.126
-248.019	674.147	0.140	0.360
-247.005	-155.310	-0.201	0.013
-245.990	800.000	-0.070	0.224
-244.976	-200.000	0.027	-0.195
-243.961	-63.646	0.089	0.036
-242.946	38.566	0.095	0.084
-241.932	31.361	-0.087	0.074
-240.917	-58.115	0.113	0.048
-239.903	800.000	-0.089	-0.246
-238.888	2.095	0.163	0.116
-237.873	145.073	-0.188	-0.249
-236.859	-157.219	-0.104	-0.006
-235.844	-57.356	0.469	0.203
-234.830	42.632	0.262	-0.235
-233.815	-136.462	-0.342	0.039
-232.800	33.730	-0.195	-0.167
-231.786	-163.436	0.213	0.010
-230.771	230.510	0.120	0.194
-229.757	-108.170	0.164	0.035
-228.742	-44.422	0.356	-0.176
-227.727	800.000	0.111	-0.429
-226.713	-126.460	0.276	-0.040
-225.698	-162.765	0.030	-0.001
-224.684	-200.000	-0.002	0.127
-223.669	790.504	0.066	-0.178
-222.655	82.345	-0.153	0.164
-221.640	62.832	-0.147	-0.145
-220.625	-48.640	-0.212	-0.100
-219.611	-74.330	-0.214	0.076
-218.596	226.580	0.076	0.121
-217.582	-153.732	0.082	0.006
-216.567	800.000	-0.111	0.467
-215.552	64.696	-0.152	0.151
-214.538	496.928	-0.063	0.143
-213.523	87.087	-0.177	-0.193
-212.509	-95.370	-0.288	-0.076
-211.494	-31.356	0.211	-0.117
-210.479	-200.000	0.007	0.218
-209.465	-200.000	0.008	-0.247
-208.450	101.913	-0.272	-0.313
-207.436	-87.999	-0.192	-0.057
-206.421	-91.840	0.214	0.060
-205.406	-139.453	-0.316	-0.033
-204.392	-68.011	-0.083	0.032
-203.377	800.000	0.040	-0.153
-202.363	-48.095	-0.257	0.122
-201.348	13.385	-0.077	-0.059
-200.333	30.268	-0.195	0.164
-199.319	193.192	0.233	-0.347
-198.304	10.909	0.103	-0.077
-197.290	439.953	-0.084	-0.180
-196.275	113.051	0.090	-0.108
-195.260	-64.550	0.372	0.149
-194.246	6.846	0.204	-0.150
-193.231	-58.099	-0.258	-0.111
-192.217	-12.160	0.037	0.024
-191.202	-102.446	0.377	-0.089
-190.187	214.736	0.068	-0.107
-189.173	-98.149	0.210	0.053
-188.158	157.588	-0.146	0.199
-187.144	7.097	-0.170	0.125
-186.129	405.645	-0.123	-0.255
-185.114	-21.289	-0.178	-0.107
-184.100	-200.000	0.047	-0.456
-183.085	-170.131	0.209	0.007
-182.071	-200.000	0.000	0.314
-181.056	-74.256	0.165	0.059
-180.042	109.271	0.122	0.144
-179.027	800.000	-0.062	0.184
-178.012	13.829	0.270	-0.207
-176.998	-200.000	0.032	0.207
-175.983	201.180	-0.170	0.258
-174.969	-145.504	-0.198	0.018
-173.954	800.000	0.010	-0.040
-172.939	30.906	0.312	0.263
-171.925	-200.000	0.067	0.318
-170.910	-200.000	-0.042	-0.212
-169.896	-200.000	-0.076	0.669
-168.881	404.282	-0.042	0.088
-167.866	-116.463	0.414	-0.075
-166.852	-200.000	-0.043	0.486
-165.837	289.657	-0.077	0.137
-164.823	169.930	0.060	-0.085
-163.808	166.634	-0.210	-0.293
-162.793	800.000	-0.043	0.145
-161.779	-177.753	-0.313	-0.007
-160.764	5.221	-0.138	-0.100
-159.750	-65.849	-0.066	0.026
-158.735	45.532	0.492	0.447
-157.720	39.134	0.125	0.110
-156.706	-200.000	-0.005	0.200
-155.691	-71.074	0.179	-0.066
-154.677	122.533	0.177	0.217
-153.662	-200.000	0.044	-0.210
-152.647	69.825	0.108	-0.110
-151.633	494.091	-0.155	-0.350
-150.618	77.603	-0.210	-0.220
-149.604	-123.996	0.096	0.015
-148.589	-200.000	0.013	0.447
-147.574	-200.000	0.029	-0.506
-146.560	-145.006	-0.391	-0.035
-145.545	-106.970	-0.169	-0.037
-144.531	260.685	0.113	0.193
-143.516	334.614	0.134	0.255
-142.502	114.049	0.237	0.284
-141.487	-5.151	0.376	-0.255
-140.472	19.979	0.092	-0.073
-139.458	749.587	-0.130	-0.346
-138.443	-2.352	0.040	-0.028
-137.429	-200.000	-0.024	0.119
-136.414	172.392	0.144	0.204
-135.399	-200.000	-0.002	0.412
-134.385	-200.000	-0.022	-0.381
-133.370	-3.337	-0.336	0.230
-132.356	184.883	0.116	-0.170
-131.341	-181.506	-0.163	-0.003
-130.326	-74.315	0.286	-0.102
-129.312	209.333	0.032	-0.050
-128.297	-200.000	0.007	-0.203
-127.283	249.295	-0.078	-0.130
-126.268	5.218	-0.163	0.118
-125.253	-200.000	0.022	0.121
-124.239	800.000	0.030	-0.112
-123.224	-125.255	-0.021	-0.003
-122.210	800.000	0.060	-0.245
-121.195	-200.000	0.061	0.397
-120.180	104.879	0.055	0.064
-119.166	-200.000	-0.033	0.183
-118.151	-46.211	0.156	-0.075
-117.137	133.922	0.074	-0.095
-116.122	-200.000	-0.004	-0.039
-115.107	-22.498	0.145	0.086
-114.093	-4.618	0.196	-0.133
-113.078	800.000	-0.010	-0.039
-112.064	-200.000	-0.057	0.324
-111.049	-130.422	-0.129	0.017
-110.034	800.000	-0.030	0.092
-109.020	-127.273	-0.205	0.029
-108.005	-73.186	0.461	0.166
-106.991	-200.000	-0.003	0.339
-105.976	22.285	-0.106	-0.085
-104.962	20.480	0.321	0.255
-103.947	800.000	0.109	0.355
-102.932	98.002	-0.213	0.241
-101.918	-168.736	0.273	0.010
-100.903	-200.000	-0.055	-0.333
-99.889	-66.047	0.336	-0.131
-98.874	251.626	-0.123	-0.206
-97.859	-131.885	-0.255	0.033
-96.845	800.000	-0.029	0.087
-95.830	-200.000	-0.011	-0.186
-94.816	800.000	-0.047	0.140
-93.801	140.716	0.176	-0.228
-92.786	82.898	0.115	0.123
-91.772	-82.947	-0.268	0.085
-90.757	800.000	0.091	0.356
-89.743	-75.930	0.240	-0.083
-88.728	800.000	0.017	0.057
-87.713	800.000	-0.108	-0.320
-86.699	-67.082	0.438	0.170
-85.684	-21.150	-0.232	-0.140
-84.670	-105.956	-0.252	0.056
-83.655	90.003	0.219	0.240
-82.640	-40.257	-0.187	0.095
-81.626	162.306	0.082	-0.113
-80.611	-116.235	0.089	0.016
-79.597	107.635	-0.069	0.080
-78.582	285.645	0.119	-0.210
-77.567	-44.178	0.280	-0.138
-76.553	-17.657	0.237	-0.146
-75.538	-200.000	-0.024	0.196
-74.524	-200.000	0.296	0.001
-73.509	-2.488	-0.080	-0.055
-72.494	-200.000	-0.013	-0.165
-71.480	-74.228	0.178	-0.063
-70.465	-125.692	0.204	-0.030
-69.451	-134.767	-0.066	-0.008
-68.436	-33.620	0.187	0.101
-67.422	-147.521	0.301	-0.025
-66.407	-148.351	0.236	-0.019
-65.392	-169.817	0.232	0.008
-64.378	600.471	0.070	-0.170
-63.363	-200.000	0.088	-0.419
-62.349	-200.000	0.074	0.449
-61.334	-7.455	-1.043	-0.692
-60.319	402.201	0.279	0.575
-59.305	455.571	-0.314	-0.684
-58.290	410.906	0.609	1.266
-57.276	800.000	0.416	1.578
-56.261	-200.000	106.041	611.244
-55.246	503.034	1507.974	3416.659
-54.232	176.420	2701.033	3845.997
-53.217	110.429	2185.623	2573.758
-52.203	40.170	1703.526	1500.860
-51.188	32.587	1513.184	1281.761
-50.173	30.289	1486.396	1243.634
-49.159	51.244	1542.838	1434.631
-48.144	51.654	1558.643	1452.070
-47.130	32.849	1514.564	1284.510
-46.115	29.915	1499.276	1251.684
-45.100	29.617	1495.993	1246.884
-44.086	29.599	1493.635	1244.747
-43.071	29.455	1492.100	1242.449
-42.057	29.454	1490.461	1241.027
-41.042	29.609	1488.749	1240.598
-40.027	29.532	1487.340	1238.854
-39.013	29.535	1485.932	1237.652
-37.998	29.405	1484.818	1235.803
-36.984	29.523	1483.494	1235.447
-35.969	29.423	1482.318	1233.751
-34.954	29.508	1480.934	1233.113
-33.940	29.471	1479.236	1231.405
-32.925	29.485	1478.099	1230.502
-31.911	29.520	1476.693	1229.519
-30.896	29.564	1475.459	1228.733
-29.881	29.617	1473.899	1227.741
-28.867	29.622	1472.342	1226.422
-27.852	29.587	1471.610	1225.534
-26.838	29.538	1470.492	1224.233
-25.823	29.513	1468.566	1222.414
-24.809	29.552	1466.887	1221.223
-23.794	29.504	1465.420	1219.636
-22.779	29.565	1464.554	1219.270
-21.765	29.566	1463.742	1218.551
-20.750	29.617	1461.976	1217.374
-19.736	29.660	1460.931	1216.736
-18.721	29.540	1460.296	1215.367
-17.706	29.346	1459.321	1213.230
-16.692	29.459	1457.921	1212.762
-15.677	29.446	1456.961	1211.832
-14.663	29.497	1455.436	1210.850
-13.648	29.449	1455.129	1210.234
-12.633	29.452	1454.011	1209.273
-11.619	29.518	1452.948	1208.770
-10.604	29.457	1452.193	1207.699
-9.590	29.458	1451.783	1207.315
-8.575	29.491	1450.959	1206.796
-7.560	29.450	1449.209	1205.025
-6.546	29.421	1448.986	1204.603
-5.531	29.482	1447.860	1204.016
-4.517	29.301	1447.940	1202.857
-3.502	29.498	1445.841	1202.345
-2.487	29.369	1445.249	1200.969
-1.473	29.433	1443.812	1200.139
-0.458	29.570	1442.589	1199.969
0.556	27.206	1432.905	1189.064
1.571	24.361	1408.418	1150.322
2.586	21.131	1350.411	1082.843
3.600	19.846	1269.161	1010.101
4.615	18.589	1225.301	968.018
5.629	16.336	1170.120	912.186
6.644	8.193	1086.024	805.580
7.659	1.000	1045.934	740.688
8.673	-0.150	1040.069	730.878
9.688	-0.347	1037.221	727.855
10.702	-0.408	1036.030	726.660
11.717	-0.315	1033.659	725.382
12.731	2.993	1037.190	743.828
13.746	11.820	1049.932	795.992
14.761	18.419	1058.924	835.006
15.775	20.368	1060.244	845.477
16.790	20.660	1059.729	846.410
17.804	20.384	1058.868	844.303
18.819	20.302	1058.221	843.317
19.834	20.363	1057.835	843.232
20.848	20.436	1057.563	843.295
21.863	20.426	1056.851	842.601
22.877	20.545	1056.684	842.971
23.892	20.567	1055.649	842.180
24.907	20.403	1054.902	840.712
25.921	20.338	1054.386	839.915
26.936	20.505	1053.608	840.030
27.950	20.432	1052.413	838.650
28.965	20.382	1051.013	837.217
29.980	20.160	1049.551	834.910
30.994	20.252	1048.208	834.211
32.009	20.383	1047.437	834.154
33.023	20.532	1046.450	834.008
34.038	20.324	1045.607	832.262
35.053	20.357	1044.298	831.306
36.067	20.550	1043.645	831.637
37.082	20.483	1043.286	830.955
38.096	20.408	1042.645	830.011
39.111	20.780	1041.137	830.516
40.126	20.781	1040.605	830.022
41.140	20.728	1038.921	828.352
42.155	20.480	1037.408	825.894
43.169	20.151	1036.161	823.266
44.184	20.079	1035.691	822.480
45.199	20.250	1034.369	822.168
46.213	20.174	1032.768	820.460
47.228	20.168	1032.602	820.227
48.242	20.195	1031.689	819.558
49.257	20.336	1031.179	819.745
50.271	20.321	1030.285	818.893
51.286	20.500	1029.491	819.033
52.301	20.379	1029.035	818.026
53.315	20.651	1027.412	817.943
54.330	20.592	1027.143	817.382
55.344	20.443	1026.133	815.805
56.359	20.382	1025.453	814.906
57.374	20.481	1024.291	814.376
58.388	20.342	1023.179	812.768
59.403	20.259	1022.793	811.999
60.417	20.272	1022.370	811.652
61.432	20.063	1021.294	809.753
62.447	20.122	1020.484	809.314
63.461	20.387	1019.635	809.802
64.476	20.376	1019.327	809.437
65.490	20.349	1017.974	808.166
66.505	20.121	1017.241	806.451
67.520	20.206	1016.095	805.866
68.534	20.389	1015.541	806.203
69.549	20.190	1014.713	804.553
70.563	19.886	1013.397	802.030
71.578	19.836	1012.350	800.899
72.593	19.851	1011.930	800.565
73.607	19.776	1010.483	799.001
74.622	19.780	1009.425	798.116
75.636	20.045	1008.649	798.651
76.651	20.190	1008.144	798.847
77.666	20.121	1006.865	797.449
78.680	19.870	1006.260	795.745
79.695	19.996	1005.848	795.928
80.709	20.054	1005.314	795.699
81.724	20.255	1004.154	795.633
82.739	20.138	1003.298	794.348
83.753	20.107	1002.716	793.673
84.768	20.235	1002.283	793.846
85.782	20.595	1001.137	794.516
86.797	20.789	1000.587	794.894
87.812	20.832	999.744	794.353
88.826	20.558	998.898	792.357
89.841	20.699	997.702	791.981
90.855	20.734	997.056	791.561
91.870	20.734	996.088	790.722
92.884	20.584	995.791	789.732
93.899	20.512	994.520	788.327
94.914	20.575	993.108	787.426
95.928	20.596	992.613	787.056
96.943	20.773	992.227	787.485
97.957	20.378	990.810	784.502
98.972	20.155	990.019	782.803
99.987	19.922	988.675	780.622
101.001	20.161	988.037	781.123
102.016	20.381	987.824	781.876
103.030	20.501	986.479	781.285
104.045	20.352	984.974	779.351
105.060	20.091	984.484	777.725
106.074	20.106	982.446	776.111
107.089	20.122	981.943	775.717
108.103	20.267	982.168	776.476
109.118	20.502	981.118	776.627
110.133	20.243	979.613	774.215
111.147	20.342	978.498	773.705
112.162	20.195	977.040	771.830
113.176	20.083	975.986	770.429
114.191	20.068	974.852	769.401
115.206	20.116	974.244	769.064
116.220	19.855	973.152	766.978
117.235	19.742	972.077	765.563
118.249	19.909	971.526	765.801
119.264	19.919	970.837	765.233
120.279	19.880	969.748	764.133
121.293	19.840	968.998	763.299
122.308	19.943	968.296	763.133
123.322	20.037	967.192	762.609
124.337	19.950	965.976	761.202
125.352	19.877	964.694	759.805
126.366	19.464	963.363	756.876
127.381	19.204	961.824	754.462
128.395	19.780	961.601	756.742
129.410	20.172	961.655	758.431
130.424	20.521	959.965	758.556
131.439	20.445	959.237	757.583
132.454	20.289	958.396	756.171
133.468	20.350	957.404	755.588
134.483	20.333	956.283	754.560
135.497	20.404	955.237	753.978
136.512	20.545	955.354	754.616
137.527	20.645	954.336	754.178
138.541	20.608	953.606	753.376
139.556	20.634	952.710	752.711
140.570	20.618	951.926	751.955
141.585	20.605	950.908	751.029
142.600	20.596	950.316	750.456
143.614	20.441	949.603	749.159
144.629	20.788	948.724	749.894
145.643	20.992	948.129	750.236
146.658	20.759	946.885	748.186
147.673	20.551	945.796	746.364
148.687	20.516	944.508	745.133
149.702	20.547	943.539	744.434
150.716	20.519	942.328	743.292
151.731	20.519	941.451	742.534
152.746	20.496	941.033	742.040
153.760	20.774	940.231	742.531
154.775	20.681	939.709	741.655
155.789	20.764	938.489	740.982
156.804	20.780	937.577	740.264
157.819	20.761	936.583	739.331
158.833	20.706	935.849	738.454
159.848	20.822	935.213	738.378
160.862	20.767	934.138	737.234
161.877	20.752	933.380	736.506
162.892	20.674	932.280	735.240
163.906	20.882	931.837	735.707
164.921	20.798	930.921	734.563
165.935	20.848	929.559	733.633
166.950	20.838	928.459	732.661
167.964	20.945	927.499	732.285
168.979	20.800	926.732	731.009
169.994	20.629	925.680	729.397
171.008	20.565	924.809	728.378
172.023	20.642	924.172	728.135
173.037	20.777	923.339	727.978
174.052	20.606	922.099	726.221
175.067	20.346	921.433	724.547
176.081	20.525	920.089	724.170
177.096	20.677	919.349	724.156
178.110	20.615	918.630	723.269
179.125	20.338	917.796	721.399
180.140	20.162	916.654	719.705
181.154	20.229	915.684	719.158
182.169	20.386	914.830	719.074
183.183	20.481	914.722	719.318
184.198	20.754	914.234	720.000
185.213	20.662	913.836	719.242
186.227	20.715	913.122	718.839
187.242	20.658	912.954	718.407
188.256	20.657	912.034	717.613
189.271	20.773	910.893	717.132
190.286	20.857	910.251	716.908
191.300	20.723	909.295	715.539
192.315	20.237	907.918	712.396
193.329	19.494	906.708	708.337
194.344	19.202	905.572	706.190
195.359	19.817	905.723	708.765
196.373	20.539	905.979	711.860
197.388	20.920	905.301	712.826
198.402	20.639	904.639	711.091
199.417	20.557	904.525	710.605
200.432	20.651	904.040	710.543
201.446	20.490	903.226	709.183
202.461	20.222	902.055	707.109
203.475	20.249	901.735	706.905
204.490	19.763	900.496	703.894
205.504	18.644	898.419	697.662
206.519	19.297	898.542	700.352
207.534	20.261	898.618	704.264
208.548	20.307	897.934	703.850
209.563	20.684	898.028	705.389
210.577	20.568	897.243	704.243
211.592	20.238	896.406	702.187
212.607	20.666	896.412	703.860
213.621	20.736	895.854	703.645
214.636	20.797	894.737	702.952
215.650	20.776	894.573	702.677
216.665	20.899	893.445	702.222
217.680	20.794	893.392	701.694
218.694	20.911	892.623	701.500
219.709	20.640	891.301	699.309
220.723	20.234	890.928	697.324
221.738	20.467	890.389	697.775
222.753	20.601	890.006	697.953
223.767	20.646	888.922	697.222
224.782	20.704	888.387	696.972
225.796	20.818	887.716	696.839
226.811	20.940	887.144	696.816
227.826	20.559	886.161	694.460
228.840	19.758	884.837	690.166
229.855	19.783	883.917	689.486
230.869	20.066	883.573	690.284
231.884	19.598	882.671	687.658
232.899	19.710	882.229	687.697
233.913	20.540	882.552	691.188
234.928	20.640	882.120	691.186
235.942	20.485	881.398	689.946
236.957	20.724	880.425	690.072
237.972	20.496	878.974	687.969
238.986	20.130	879.037	686.510
240.001	20.380	878.090	686.699
241.015	20.493	877.412	686.552
242.030	20.459	877.089	686.106
243.045	20.506	876.808	686.012
244.059	20.693	876.039	686.087
245.074	20.832	875.539	686.180
246.088	20.840	874.591	685.410
247.103	20.423	873.521	682.872
248.117	20.395	873.491	682.678
249.132	20.898	873.175	684.344
250.147	21.327	872.773	685.653
251.161	21.247	872.349	684.947
252.176	21.372	871.816	684.957
253.190	21.265	871.392	684.142
254.205	21.475	870.912	684.527
255.220	21.614	870.561	684.735
256.234	21.591	869.549	683.789
257.249	21.503	869.003	682.957
258.263	21.370	868.449	681.941
259.278	21.372	867.731	681.323
260.293	21.573	866.887	681.383
261.307	21.530	866.724	681.029
262.322	21.415	866.302	680.189
263.336	21.317	865.188	678.873
264.351	20.839	863.800	675.872
265.366	19.877	861.825	670.541
266.380	19.362	861.055	667.886
267.395	20.288	861.338	671.632
268.409	21.047	861.406	674.561
269.424	21.176	860.658	674.417
270.439	21.143	860.421	674.044
271.453	21.308	859.538	673.929
272.468	21.409	858.507	673.449
273.482	21.391	858.533	673.341
274.497	21.604	858.000	673.684
275.512	21.433	856.965	672.153
276.526	20.880	855.962	669.183
277.541	21.054	855.123	669.138
278.555	21.390	855.019	670.282
279.570	21.310	853.749	668.922
280.585	21.048	853.073	667.331
281.599	20.834	853.054	666.438
282.614	21.054	852.614	666.878
283.628	20.943	850.850	665.016
284.643	20.515	850.418	662.987
285.657	21.039	850.353	664.877
286.672	20.850	849.382	663.338
287.687	20.197	848.915	660.427
288.701	20.601	848.839	661.847
289.716	21.074	848.565	663.377
290.730	20.707	847.570	661.144
291.745	20.642	846.561	660.051
292.760	20.332	845.864	658.277
293.774	20.459	844.880	657.931
294.789	21.199	845.772	661.372
295.803	21.866	845.725	663.803
296.818	21.837	845.352	663.342
297.833	21.994	844.535	663.236
298.847	21.724	843.269	661.164
299.862	21.271	842.714	658.963
300.876	21.566	842.117	659.549
301.891	21.831	841.495	660.001
302.906	21.932	841.404	660.252
303.920	21.439	840.166	657.368
304.935	21.348	839.459	656.413
305.949	21.635	839.602	657.548
306.964	21.886	838.441	657.521
307.979	21.520	838.066	655.795
308.993	21.484	837.674	655.296
310.008	21.798	837.609	656.364
311.022	22.043	836.740	656.542
312.037	21.855	836.434	655.538
313.052	21.617	835.590	653.933
314.066	21.635	834.485	653.077
315.081	20.857	833.791	649.574
316.095	20.222	832.475	646.126
317.110	20.730	832.504	647.983
318.125	21.569	832.618	651.139
319.139	21.229	831.443	648.901
320.154	19.983	830.042	643.123
321.168	19.715	829.037	641.293
322.183	20.271	829.390	643.573
323.197	21.087	830.017	647.030
324.212	21.323	829.442	647.397
325.227	21.616	829.100	648.160
326.241	21.671	828.487	647.827
327.256	21.662	828.084	647.423
328.270	21.486	827.287	646.091
329.285	21.472	826.784	645.589
330.300	21.277	825.767	644.020
331.314	21.082	824.918	642.581
332.329	21.244	824.441	642.749
333.343	21.468	824.320	643.424
334.358	21.683	823.842	643.784
335.373	21.697	823.183	643.261
336.387	21.954	822.270	643.432
337.402	22.104	822.137	643.822
338.416	22.195	821.991	643.984
339.431	22.016	821.220	642.668
340.446	22.144	820.458	642.484
341.460	22.145	820.499	642.460
342.475	22.179	819.493	641.740
343.489	22.001	819.016	640.662
344.504	22.033	818.431	640.265
345.519	22.230	818.252	640.784
346.533	22.375	817.788	640.895
347.548	22.522	817.181	640.895
348.562	22.416	816.933	640.261
349.577	22.412	816.542	639.882
350.592	22.503	816.003	639.734
351.606	22.285	815.478	638.474
352.621	22.519	815.080	638.953
353.635	22.479	814.291	638.136
354.650	22.267	814.017	637.096
355.665	22.001	812.490	634.881
356.679	20.903	810.931	629.643
357.694	20.839	810.739	629.208
358.708	21.440	810.687	631.281
359.723	21.542	809.707	630.830
360.738	21.548	810.097	631.099
361.752	22.020	809.956	632.636
362.767	22.247	809.291	632.876
363.781	22.459	809.498	633.746
364.796	22.727	809.263	634.470
365.810	22.795	808.725	634.236
366.825	22.898	807.925	633.921
367.840	22.920	807.733	633.794
368.854	22.654	806.968	632.183
369.869	22.353	806.122	630.388
370.883	22.100	805.630	629.043
371.898	22.275	805.138	629.228
372.913	22.161	804.383	628.174
373.927	22.066	804.035	627.508
374.942	22.420	803.140	628.015
375.956	22.323	803.142	627.617
376.971	22.543	802.375	627.745
377.986	22.601	801.922	627.540
379.000	22.892	801.121	627.893
380.015	22.706	801.018	627.097
381.029	22.570	800.711	626.319
382.044	22.558	799.891	625.579
383.059	22.672	799.262	625.437
384.073	22.714	798.776	625.148
385.088	22.802	798.143	624.908
386.102	22.663	797.746	624.050
387.117	22.627	796.637	623.000
388.132	22.457	796.796	622.468
389.146	22.381	795.983	621.511
390.161	21.870	795.075	618.944
391.175	21.945	794.641	618.818
392.190	22.451	794.217	620.212
393.205	22.504	793.816	620.031
394.219	21.435	792.072	614.860
395.234	19.986	790.098	608.187
396.248	19.384	789.012	605.186
397.263	20.377	789.915	609.313
398.278	22.119	791.529	616.622
399.292	22.487	791.297	617.677
400.307	22.177	790.484	615.902
401.321	22.229	789.787	615.488
402.336	22.219	789.569	615.227
403.350	22.474	789.700	616.166
404.365	22.884	789.518	617.403
405.380	23.238	789.017	618.194
406.394	23.358	788.749	618.347
407.409	23.565	788.514	618.832
408.423	23.603	787.947	618.464
409.438	23.292	787.532	617.001
410.453	23.607	787.073	617.684
411.467	23.488	786.831	617.025
412.482	23.498	786.253	616.552
413.496	23.408	785.669	615.726
414.511	23.307	785.689	615.334
415.526	23.460	784.782	615.102
416.540	23.559	784.555	615.214
417.555	23.413	783.933	614.165
418.569	23.118	783.229	612.538
419.584	23.115	782.379	611.808
420.599	23.180	782.266	611.889
421.613	157.779	1363.950	1799.832
422.628	136.397	1448.665	1799.921
