DTS Sentinel unit serial number:	SN413079Multiplexer serial number:	ORYXHardware model number:	OX4-SRSoftware version number:	ORYX F/W v4.00 Oryx Data Collector v3.7.2.0data status	okinstallation	princeton_trtdifferential loss correction	single-endedforward channel	channel 3reverse channel	N/Adate	2019/09/12time	00:30:10forward acquisition time	60.00reverse acquisition time	0.00gamma	496.2192k internal	0.2318k external	0.2318temperature offset calibration	1.0067default loss term (dB/km)	0.3790temperature slope calibration	1.0000multiplexer offset coefficient	1.0000multiplexer slope coefficient	1.0000fibre end	0.00T internal ref (°C)	33.39T ext. ref 1 (°C)	2.04T ext. ref 2 (°C)	27.84length (m)	temperature (°C)	Stokes	anti-Stokes-747.200	7.318	0.025	0.019
-746.185	-200.000	-0.024	0.209
-745.171	-94.895	0.274	-0.075
-744.156	-200.000	0.058	0.278
-743.142	14.411	0.303	0.239
-742.127	-200.000	0.054	0.450
-741.112	-37.775	-0.006	0.003
-740.098	434.757	-0.151	0.332
-739.083	-79.331	-0.381	0.131
-738.069	-54.648	-0.206	0.094
-737.054	-43.827	0.096	0.049
-736.039	-200.000	0.058	0.258
-735.025	-48.621	0.292	0.142
-734.010	-125.057	-0.159	0.025
-732.996	-200.000	-0.006	-0.106
-731.981	-146.531	0.245	0.022
-730.966	-66.158	-0.056	0.023
-729.952	-200.000	-0.007	0.150
-728.937	-100.902	0.184	-0.046
-727.923	-200.000	0.065	-0.297
-726.908	-34.228	-0.100	-0.056
-725.894	-186.971	-0.460	-0.006
-724.879	26.629	-0.306	0.259
-723.864	800.000	0.097	0.349
-722.850	441.872	-0.069	0.154
-721.835	490.206	0.079	-0.184
-720.821	-200.000	-0.050	-0.233
-719.806	-106.794	-0.360	0.081
-718.791	61.473	0.213	-0.214
-717.777	-73.295	-0.220	0.081
-716.762	800.000	0.097	0.411
-715.748	-106.740	-0.199	0.045
-714.733	-146.399	0.398	0.035
-713.718	-200.000	0.011	0.243
-712.704	-124.807	-0.231	-0.036
-711.689	33.430	-0.198	0.174
-710.675	-190.469	-0.190	0.002
-709.660	88.841	-0.146	-0.164
-708.645	21.923	0.100	0.083
-707.631	800.000	-0.006	0.020
-706.616	109.658	0.123	-0.149
-705.602	70.523	-0.183	0.191
-704.587	-182.193	-0.024	0.000
-703.572	800.000	0.036	-0.136
-702.558	297.759	-0.097	-0.180
-701.543	350.172	0.080	-0.161
-700.529	192.599	-0.043	-0.066
-699.514	-86.975	0.287	0.088
-698.499	15.593	-0.246	-0.195
-697.485	160.537	0.173	-0.244
-696.470	15.550	-0.314	0.249
-695.456	-45.640	0.075	-0.038
-694.441	81.742	-0.156	-0.170
-693.426	257.405	-0.016	-0.028
-692.412	-200.000	-0.026	-0.116
-691.397	-200.000	0.031	-0.259
-690.383	-3.290	-0.068	-0.048
-689.368	122.173	0.134	0.169
-688.354	800.000	-0.162	-0.495
-687.339	751.935	0.069	-0.189
-686.324	-37.357	0.205	0.111
-685.310	-137.235	-0.268	0.031
-684.295	-58.442	-0.117	-0.051
-683.281	-150.653	0.252	0.019
-682.266	-71.210	0.218	-0.082
-681.251	21.277	-0.182	0.149
-680.237	-200.000	-0.074	-0.479
-679.222	472.592	-0.061	-0.138
-678.208	-79.833	0.355	-0.120
-677.193	-10.144	0.201	-0.135
-676.178	-152.263	-0.152	-0.011
-675.164	-120.438	0.139	0.024
-674.149	283.312	-0.052	0.095
-673.135	335.641	-0.158	0.309
-672.120	-141.170	0.566	-0.058
-671.105	-200.000	-0.007	-0.280
-670.091	-200.000	-0.002	-0.071
-669.076	800.000	0.052	0.203
-668.062	-200.000	-0.056	-0.248
-667.047	94.967	0.161	-0.185
-666.032	-35.353	0.162	0.089
-665.018	48.851	0.311	-0.294
-664.003	55.866	0.020	0.020
-662.989	71.029	-0.194	0.203
-661.974	-200.000	-0.005	0.552
-660.959	-50.617	0.160	-0.076
-659.945	416.550	-0.099	-0.213
-658.930	-196.234	0.353	0.002
-657.916	-58.673	-0.403	-0.176
-656.901	-200.000	0.020	0.376
-655.886	-89.605	0.169	-0.050
-654.872	-72.066	-0.160	-0.060
-653.857	329.535	-0.128	0.249
-652.843	157.603	-0.217	0.303
-651.828	-200.000	0.083	-0.401
-650.814	800.000	-0.045	-0.137
-649.799	120.141	-0.062	-0.078
-648.784	-131.791	0.144	0.019
-647.770	800.000	0.060	-0.201
-646.755	-49.192	-0.370	-0.178
-645.741	-200.000	0.016	-0.122
-644.726	551.474	0.146	0.354
-643.711	-48.485	0.296	-0.144
-642.697	648.479	0.073	-0.188
-641.682	-200.000	0.004	0.102
-640.668	509.554	-0.036	-0.083
-639.653	180.830	-0.129	-0.191
-638.638	-44.713	-0.194	0.098
-637.624	800.000	-0.066	0.231
-636.609	-193.602	0.131	0.001
-635.595	-45.774	0.186	-0.093
-634.580	396.438	-0.138	-0.291
-633.565	-11.353	0.138	0.092
-632.551	289.286	0.140	-0.257
-631.536	-94.862	0.319	0.087
-630.522	-200.000	-0.011	-0.131
-629.507	-200.000	0.003	-0.107
-628.492	149.243	0.187	0.256
-627.478	288.073	0.167	0.305
-626.463	-117.143	0.281	0.052
-625.449	494.172	-0.065	0.151
-624.434	-200.000	0.009	-0.140
-623.419	198.671	-0.069	0.106
-622.405	-182.761	-0.233	0.004
-621.390	-110.820	-0.469	-0.097
-620.376	800.000	0.089	-0.319
-619.361	-200.000	-0.007	-0.117
-618.346	800.000	0.083	-0.237
-617.332	-200.000	0.004	-0.204
-616.317	-200.000	-0.015	-0.140
-615.303	0.060	0.083	0.060
-614.288	137.654	-0.257	0.339
-613.273	-167.423	0.319	0.013
-612.259	0.949	-0.330	-0.238
-611.244	-54.823	0.298	-0.136
-610.230	800.000	-0.025	0.111
-609.215	-200.000	0.031	-0.216
-608.201	245.117	0.074	0.126
-607.186	-200.000	0.032	-0.233
-606.171	-47.267	0.231	-0.113
-605.157	321.181	-0.162	0.310
-604.142	-102.879	-0.112	-0.027
-603.128	-93.340	0.365	0.102
-602.113	532.833	0.109	0.260
-601.098	-105.504	0.159	-0.036
-600.084	-97.651	0.315	-0.082
-599.069	33.234	0.017	0.015
-598.055	-200.000	-0.028	-0.130
-597.040	20.135	0.015	0.012
-596.025	-162.204	0.114	0.006
-595.011	-169.635	-0.187	0.007
-593.996	79.082	0.113	-0.122
-592.982	-23.157	0.135	-0.082
-591.967	-200.000	0.006	-0.331
-590.952	-200.000	-0.052	-0.379
-589.938	-172.389	-0.207	0.007
-588.923	279.181	0.265	-0.475
-587.909	-8.956	0.187	0.126
-586.894	-52.863	0.431	0.200
-585.879	800.000	-0.030	-0.089
-584.865	800.000	0.070	0.266
-583.850	219.034	0.131	0.210
-582.836	-200.000	-0.033	-0.316
-581.821	89.263	0.046	0.052
-580.806	-96.879	-0.130	0.034
-579.792	221.901	0.061	0.099
-578.777	53.784	-0.091	0.088
-577.763	-131.084	0.058	-0.008
-576.748	-35.308	-0.155	0.085
-575.733	-101.239	0.229	0.056
-574.719	-103.286	-0.374	-0.089
-573.704	-79.055	-0.195	-0.067
-572.690	-164.456	-0.298	0.014
-571.675	51.653	-0.123	0.117
-570.661	-32.745	-0.079	0.044
-569.646	-66.745	0.214	0.085
-568.631	-79.410	0.331	0.113
-567.617	-99.768	0.269	0.068
-566.602	305.142	-0.141	-0.263
-565.588	191.540	-0.052	-0.079
-564.573	-200.000	-0.044	-0.245
-563.558	-76.155	-0.162	0.057
-562.544	155.658	-0.124	0.172
-561.529	-200.000	0.020	-0.188
-560.515	-40.099	-0.135	-0.071
-559.500	9.168	-0.138	0.104
-558.485	282.157	0.141	-0.254
-557.471	243.684	-0.060	0.100
-556.456	-39.441	-0.175	-0.092
-555.442	800.000	0.131	-0.501
-554.427	-200.000	0.017	0.089
-553.412	-200.000	-0.085	-0.384
-552.398	-200.000	-0.007	-0.054
-551.383	-96.720	0.100	0.026
-550.369	-24.920	0.203	0.121
-549.354	528.405	-0.080	0.189
-548.339	-67.662	-0.201	0.079
-547.325	198.482	-0.210	0.323
-546.310	-200.000	0.047	0.284
-545.296	116.361	-0.061	-0.075
-544.281	269.823	-0.088	0.155
-543.266	-5.916	0.046	0.031
-542.252	-200.000	0.023	0.222
-541.237	69.049	-0.071	-0.074
-540.223	285.621	-0.302	-0.547
-539.208	51.671	-0.094	-0.090
-538.193	-22.629	0.274	-0.166
-537.179	166.032	0.066	-0.094
-536.164	800.000	0.125	-0.392
-535.150	-114.919	-0.107	-0.021
-534.135	800.000	0.023	0.089
-533.121	-169.702	0.390	0.014
-532.106	800.000	0.033	-0.118
-531.091	109.702	0.065	-0.079
-530.077	5.366	-0.282	-0.209
-529.062	800.000	-0.036	0.118
-528.048	-27.824	-0.158	0.092
-527.033	800.000	0.144	-0.414
-526.018	92.443	-0.064	-0.073
-525.004	-9.452	0.165	-0.111
-523.989	484.931	0.137	-0.314
-522.975	-200.000	-0.003	0.114
-521.960	48.429	0.120	0.113
-520.945	-48.922	0.378	0.182
-519.931	-41.204	0.165	0.085
-518.916	-49.293	-0.262	-0.126
-517.902	-152.129	-0.067	-0.005
-516.887	800.000	0.015	0.057
-515.872	10.598	0.227	-0.174
-514.858	382.374	0.081	0.167
-513.843	800.000	0.037	0.157
-512.829	800.000	-0.011	0.042
-511.814	541.002	-0.095	-0.227
-510.799	-63.700	-0.208	0.085
-509.785	295.536	-0.194	-0.356
-508.770	-22.611	-0.215	-0.131
-507.756	133.624	0.122	0.159
-506.741	203.955	-0.049	-0.076
-505.726	118.937	-0.021	-0.026
-504.712	95.411	-0.099	0.113
-503.697	-26.289	0.208	-0.122
-502.683	306.794	0.130	-0.243
-501.668	-69.084	0.015	-0.006
-500.653	403.580	-0.074	0.155
-499.639	203.285	-0.037	0.057
-498.624	-200.000	0.008	0.326
-497.610	800.000	-0.100	0.335
-496.595	105.681	-0.253	0.300
-495.581	-49.016	0.254	0.122
-494.566	-153.628	-0.387	-0.027
-493.551	-21.083	-0.027	0.016
-492.537	145.747	0.147	-0.198
-491.522	190.733	0.023	0.034
-490.508	84.954	-0.050	-0.055
-489.493	-154.512	0.064	0.004
-488.478	509.182	-0.084	0.195
-487.464	-11.901	-0.093	0.061
-486.449	206.098	-0.055	-0.086
-485.435	-149.691	0.064	-0.005
-484.420	-178.000	-0.108	-0.003
-483.405	-196.761	0.314	0.002
-482.391	-12.990	-0.390	-0.254
-481.376	-83.660	0.248	-0.079
-480.362	202.251	0.195	-0.302
-479.347	-69.296	0.220	0.085
-478.332	11.042	0.179	0.137
-477.318	-89.170	-0.236	0.070
-476.303	-200.000	0.047	0.225
-475.289	800.000	0.107	-0.332
-474.274	14.920	-0.037	0.029
-473.259	298.253	-0.047	0.086
-472.245	144.437	-0.079	-0.105
-471.230	120.560	-0.277	0.345
-470.216	148.995	0.015	-0.020
-469.201	-200.000	0.010	0.388
-468.186	326.322	-0.102	-0.195
-467.172	120.566	-0.147	-0.183
-466.157	-92.498	0.230	0.065
-465.143	87.819	0.297	-0.329
-464.128	-49.526	0.046	-0.022
-463.113	-110.006	0.113	-0.024
-462.099	4.789	0.110	0.081
-461.084	-148.578	-0.187	-0.015
-460.070	-73.333	-0.225	-0.083
-459.055	330.586	0.084	-0.162
-458.040	322.779	-0.063	-0.121
-457.026	-39.819	0.169	0.088
-456.011	-200.000	-0.021	0.177
-454.997	1.688	-0.107	0.077
-453.982	84.700	0.216	-0.237
-452.968	268.054	0.136	0.238
-451.953	55.883	-0.237	0.230
-450.938	-200.000	-0.012	-0.115
-449.924	184.807	0.135	-0.201
-448.909	-11.142	-0.156	-0.103
-447.895	-97.569	-0.056	-0.014
-446.880	-130.005	-0.322	0.044
-445.865	163.374	-0.092	0.129
-444.851	-85.813	0.053	-0.016
-443.836	-125.831	0.075	-0.011
-442.822	-70.959	0.275	-0.104
-441.807	-32.293	-0.127	0.071
-440.792	-16.903	-0.351	0.222
-439.778	-200.000	0.024	0.145
-438.763	-24.496	-0.218	0.130
-437.749	800.000	0.050	-0.158
-436.734	-67.981	0.199	0.078
-435.719	-58.499	0.254	-0.110
-434.705	-200.000	-0.004	-0.081
-433.690	-110.112	-0.292	-0.061
-432.676	-10.686	0.255	-0.169
-431.661	509.884	0.073	0.170
-430.646	571.390	-0.063	0.154
-429.632	-40.222	-0.348	-0.181
-428.617	-200.000	0.000	0.031
-427.603	-125.393	0.306	-0.047
-426.588	144.345	-0.140	0.186
-425.573	-34.459	-0.094	-0.052
-424.559	149.828	0.340	0.461
-423.544	91.849	-0.149	0.168
-422.530	41.940	-0.173	0.157
-421.515	56.884	0.144	-0.140
-420.500	433.034	-0.024	0.051
-419.486	-200.000	-0.027	-0.157
-418.471	-102.274	0.218	-0.052
-417.457	-52.523	-0.197	-0.091
-416.442	-200.000	0.016	-0.200
-415.428	-38.749	-0.399	-0.210
-414.413	-35.255	-0.171	0.093
-413.398	-10.632	-0.138	0.091
-412.384	-16.464	0.171	0.108
-411.369	-193.290	-0.244	-0.002
-410.355	-165.086	-0.435	0.019
-409.340	40.864	0.225	-0.203
-408.325	-43.137	0.231	0.117
-407.311	-28.965	-0.065	-0.037
-406.296	-200.000	-0.003	-0.161
-405.282	35.102	-0.136	0.119
-404.267	-50.752	-0.119	-0.056
-403.252	173.589	-0.004	-0.006
-402.238	-107.368	-0.595	0.131
-401.223	-200.000	0.009	-0.423
-400.209	-55.649	-0.350	-0.157
-399.194	-69.461	-0.293	0.112
-398.179	-167.602	-0.231	-0.009
-397.165	173.811	0.085	0.122
-396.150	-200.000	-0.033	-0.215
-395.136	160.743	-0.089	0.125
-394.121	-31.152	0.165	0.093
-393.106	-101.972	0.367	0.088
-392.092	390.426	0.113	0.235
-391.077	-22.194	0.038	-0.023
-390.063	-98.006	-0.102	0.026
-389.048	83.689	0.196	-0.214
-388.033	-143.874	-0.150	-0.014
-387.019	-94.693	0.308	0.083
-386.004	-35.697	0.197	0.107
-384.990	200.521	-0.021	-0.033
-383.975	-200.000	-0.046	-0.254
-382.960	-112.288	-0.243	0.049
-381.946	422.593	0.131	-0.281
-380.931	-145.654	0.161	0.014
-379.917	-200.000	0.011	0.106
-378.902	-72.401	-0.355	-0.131
-377.888	483.214	0.139	0.316
-376.873	800.000	0.098	-0.301
-375.858	-200.000	0.066	0.396
-374.844	4.280	0.069	0.050
-373.829	82.152	0.176	-0.191
-372.815	457.850	0.179	-0.398
-371.800	-13.681	0.103	-0.067
-370.785	800.000	-0.015	-0.061
-369.771	-43.873	-0.081	0.040
-368.756	-200.000	0.008	-0.237
-367.742	3.166	-0.161	0.117
-366.727	229.950	-0.051	-0.083
-365.712	0.279	0.169	0.120
-364.698	-140.874	-0.125	0.013
-363.683	30.969	-0.160	0.137
-362.669	-128.060	0.122	0.017
-361.654	60.789	-0.156	0.154
-360.639	800.000	-0.098	0.278
-359.625	-200.000	0.021	-0.149
-358.610	26.852	-0.118	0.098
-357.596	-113.759	-0.123	-0.024
-356.581	-105.438	0.305	-0.069
-355.566	-200.000	-0.050	0.450
-354.552	-93.371	0.278	-0.077
-353.537	-22.885	0.157	0.094
-352.523	-175.555	-0.348	-0.009
-351.508	-135.762	-0.257	0.030
-350.493	146.573	-0.204	0.273
-349.479	70.951	0.128	0.132
-348.464	239.277	0.262	0.435
-347.450	182.718	-0.160	-0.235
-346.435	-109.439	-0.133	0.028
-345.420	37.789	0.157	0.139
-344.406	-37.982	0.223	0.118
-343.391	172.265	0.146	-0.209
-342.377	-200.000	-0.063	-0.298
-341.362	800.000	0.123	0.446
-340.348	-200.000	0.036	0.180
-339.333	-173.108	0.063	0.002
-338.318	-200.000	-0.036	0.238
-337.304	90.449	-0.168	0.187
-336.289	800.000	-0.013	0.037
-335.275	-115.937	-0.094	0.018
-334.260	494.589	-0.165	-0.378
-333.245	-200.000	-0.041	-0.337
-332.231	65.597	-0.254	0.256
-331.216	178.976	-0.032	-0.047
-330.202	295.888	-0.091	-0.166
-329.187	-69.391	0.175	0.067
-328.172	800.000	-0.071	-0.250
-327.158	74.176	0.228	0.239
-326.143	591.958	0.084	-0.206
-325.129	105.368	0.146	-0.171
-324.114	609.318	0.062	0.154
-323.099	256.206	-0.098	0.168
-322.085	161.011	0.121	0.168
-321.070	-88.376	-0.149	0.044
-320.056	136.343	0.147	0.191
-319.041	800.000	-0.065	-0.222
-318.026	-174.147	-0.135	-0.004
-317.012	393.608	0.078	0.162
-315.997	-155.240	-0.321	-0.021
-314.983	108.885	-0.140	-0.166
-313.968	-111.622	0.089	0.018
-312.953	27.268	-0.188	0.157
-311.939	-68.691	0.006	-0.002
-310.924	-45.360	-0.234	0.116
-309.910	10.021	-0.122	0.092
-308.895	19.902	0.323	-0.259
-307.880	-45.180	0.171	0.084
-306.866	-200.000	-0.032	-0.172
-305.851	16.155	0.165	-0.129
-304.837	-43.718	0.227	-0.114
-303.822	1.577	0.196	0.140
-302.807	-48.145	0.200	-0.096
-301.793	-91.467	-0.098	-0.028
-300.778	19.242	-0.062	-0.049
-299.764	-169.379	0.347	-0.013
-298.749	800.000	0.074	-0.276
-297.735	-113.599	-0.268	-0.052
-296.720	-200.000	0.034	-0.176
-295.705	-54.223	-0.189	0.085
-294.691	-13.308	0.033	-0.021
-293.676	-200.000	-0.010	-0.063
-292.662	800.000	0.024	-0.085
-291.647	-73.139	-0.225	0.082
-290.632	-15.942	0.142	-0.090
-289.618	-129.482	0.076	-0.010
-288.603	380.622	0.166	0.338
-287.589	-136.581	0.208	0.024
-286.574	126.255	0.059	0.075
-285.559	-150.266	0.350	-0.027
-284.545	-14.139	-0.019	0.012
-283.530	97.178	0.096	0.109
-282.516	241.079	0.216	-0.358
-281.501	-93.421	-0.356	-0.098
-280.486	42.100	-0.106	0.096
-279.472	269.492	-0.135	0.236
-278.457	-200.000	-0.002	-0.190
-277.443	-81.214	0.242	0.079
-276.428	-11.461	-0.272	-0.178
-275.413	25.038	-0.091	0.075
-274.399	-114.326	-0.239	0.046
-273.384	-200.000	-0.055	-0.350
-272.370	800.000	0.068	0.197
-271.355	-67.215	0.356	-0.139
-270.340	-118.371	-0.303	0.053
-269.326	800.000	-0.097	-0.301
-268.311	127.372	0.141	-0.178
-267.297	-200.000	0.019	0.251
-266.282	-200.000	0.028	-0.218
-265.267	31.413	-0.151	0.129
-264.253	-112.422	0.102	0.020
-263.238	452.264	-0.205	0.450
-262.224	-69.405	0.363	-0.138
-261.209	237.196	-0.124	0.204
-260.195	-38.251	-0.034	-0.018
-259.180	-37.931	0.102	0.054
-258.165	-116.820	-0.139	-0.025
-257.151	396.057	0.125	-0.259
-256.136	8.969	-0.116	0.087
-255.122	-200.000	-0.017	-0.249
-254.107	86.467	-0.036	0.039
-253.092	198.560	-0.068	-0.103
-252.078	-69.204	-0.161	0.062
-251.063	800.000	0.146	0.616
-250.049	357.084	-0.079	-0.157
-249.034	-200.000	0.015	0.205
-248.019	-50.770	0.160	-0.075
-247.005	-106.855	0.154	-0.034
-245.990	498.568	0.067	-0.154
-244.976	800.000	0.114	0.408
-243.961	-60.670	-0.074	0.031
-242.946	800.000	-0.120	-0.377
-241.932	-200.000	0.060	-0.413
-240.917	-200.000	0.024	-0.108
-239.903	772.221	0.047	0.126
-238.888	-21.468	-0.276	0.167
-237.873	-58.151	0.071	-0.031
-236.859	178.058	-0.204	-0.295
-235.844	-121.129	-0.261	0.043
-234.830	72.803	-0.135	0.140
-233.815	341.871	-0.128	0.249
-232.800	85.255	0.137	0.149
-231.786	-76.839	-0.155	0.054
-230.771	-144.200	0.202	-0.019
-229.757	800.000	0.019	-0.071
-228.742	-200.000	0.038	-0.246
-227.727	1.622	-0.142	0.101
-226.713	-200.000	0.006	-0.093
-225.698	-200.000	0.026	-0.138
-224.684	800.000	-0.058	0.179
-223.669	142.177	-0.112	0.147
-222.655	-62.178	0.388	-0.160
-221.640	-195.133	-0.158	-0.001
-220.625	-73.763	-0.100	-0.036
-219.611	-96.489	-0.059	0.016
-218.596	-200.000	-0.039	0.179
-217.582	275.664	0.084	0.147
-216.567	-53.029	0.204	-0.093
-215.552	800.000	-0.066	-0.224
-214.538	26.328	-0.382	0.316
-213.523	613.085	-0.052	-0.128
-212.509	-142.450	-0.325	0.032
-211.494	118.071	-0.031	0.038
-210.479	302.218	-0.061	-0.112
-209.465	800.000	-0.062	0.224
-208.450	-200.000	-0.008	0.196
-207.436	800.000	-0.035	0.147
-206.421	339.707	0.121	0.234
-205.406	-200.000	-0.000	-0.003
-204.392	566.614	0.059	0.142
-203.377	-32.059	0.235	0.130
-202.363	800.000	-0.054	-0.151
-201.348	54.593	-0.272	-0.259
-200.333	-200.000	0.053	0.296
-199.319	-34.711	0.258	-0.140
-198.304	76.084	0.195	0.205
-197.290	1.906	0.069	0.049
-196.275	75.937	0.197	-0.207
-195.260	-165.482	0.117	-0.005
-194.246	800.000	-0.105	-0.304
-193.231	-19.419	0.170	0.104
-192.217	174.971	0.150	-0.215
-191.202	-52.120	-0.377	-0.173
-190.187	-200.000	0.023	-0.360
-189.173	800.000	0.050	0.177
-188.158	-54.846	0.276	0.123
-187.144	-90.779	-0.431	0.123
-186.129	-53.810	0.160	-0.072
-185.114	-96.338	0.251	0.066
-184.100	-200.000	-0.035	0.452
-183.085	800.000	0.126	0.387
-182.071	-6.425	0.078	-0.053
-181.056	69.473	-0.169	0.172
-180.042	351.459	-0.117	0.228
-179.027	8.384	-0.270	0.201
-178.012	-7.719	0.163	-0.109
-176.998	13.646	0.148	0.114
-175.983	-75.190	0.141	0.050
-174.969	-128.307	0.210	-0.030
-173.954	36.440	-0.211	0.184
-172.939	-28.533	-0.324	0.185
-171.925	-134.875	-0.165	-0.020
-170.910	54.423	-0.060	0.058
-169.896	-90.762	0.294	0.084
-168.881	-200.000	0.011	-0.215
-167.866	-200.000	0.018	0.104
-166.852	36.396	-0.056	0.049
-165.837	-200.000	0.041	-0.403
-164.823	-125.456	0.344	-0.052
-163.808	-200.000	-0.037	0.280
-162.793	-132.864	0.199	0.025
-161.779	-200.000	0.019	0.323
-160.764	-200.000	0.050	0.224
-159.750	-32.872	-0.038	0.021
-158.735	-49.268	-0.379	-0.179
-157.720	-53.761	-0.180	0.081
-156.706	116.691	0.074	0.090
-155.691	800.000	-0.089	0.274
-154.677	-200.000	-0.019	-0.112
-153.662	155.554	0.061	0.082
-152.647	39.009	-0.134	0.119
-151.633	-85.977	0.197	-0.060
-150.618	-50.968	-0.343	0.159
-149.604	-123.747	-0.009	-0.001
-148.589	-200.000	-0.005	-0.038
-147.574	21.267	-0.278	-0.224
-146.560	49.837	-0.085	-0.079
-145.545	800.000	0.109	0.310
-144.531	188.196	-0.020	0.029
-143.516	-73.452	0.202	-0.073
-142.502	-54.322	-0.208	-0.093
-141.487	174.466	-0.082	-0.118
-140.472	134.884	0.113	-0.146
-139.458	800.000	-0.059	0.207
-138.443	-98.104	0.452	0.115
-137.429	66.724	-0.139	-0.140
-136.414	-200.000	0.026	-0.268
-135.399	-65.172	0.165	0.066
-134.385	132.750	-0.082	0.105
-133.370	200.609	-0.072	-0.110
-132.356	-169.224	0.248	-0.009
-131.341	-164.042	0.128	0.006
-130.326	-105.882	0.152	-0.034
-129.312	-148.995	-0.057	-0.005
-128.297	56.976	0.364	-0.351
-127.283	190.922	0.199	0.295
-126.268	26.631	0.124	-0.103
-125.253	-200.000	-0.009	-0.096
-124.239	4.955	0.178	-0.129
-123.224	-28.019	0.342	0.195
-122.210	-200.000	-0.005	0.311
-121.195	-200.000	0.003	-0.177
-120.180	47.268	0.083	-0.077
-119.166	-200.000	0.022	-0.135
-118.151	-2.705	-0.131	0.090
-117.137	800.000	-0.066	0.245
-116.122	589.713	0.112	0.273
-115.107	140.046	-0.262	0.342
-114.093	-128.474	-0.071	-0.010
-113.078	800.000	-0.092	0.331
-112.064	-200.000	-0.001	0.114
-111.049	62.892	-0.170	-0.168
-110.034	-200.000	-0.022	0.208
-109.020	-200.000	-0.053	-0.232
-108.005	800.000	0.059	0.216
-106.991	-200.000	0.006	-0.240
-105.976	-127.394	0.276	0.040
-104.962	451.440	0.058	-0.126
-103.947	-103.360	-0.133	0.031
-102.932	800.000	0.110	0.459
-101.918	800.000	-0.070	0.291
-100.903	188.719	-0.294	0.435
-99.889	-104.343	0.359	0.082
-98.874	20.755	-0.186	0.148
-97.859	-20.445	-0.221	0.134
-96.845	412.271	-0.118	0.247
-95.830	-110.827	0.017	-0.004
-94.816	685.268	-0.084	0.216
-93.801	-45.761	0.341	-0.166
-92.786	-128.618	0.069	0.010
-91.772	46.234	-0.159	-0.145
-90.757	428.170	-0.107	-0.228
-89.743	174.625	-0.178	-0.254
-88.728	800.000	-0.084	-0.271
-87.713	-200.000	0.012	-0.058
-86.699	800.000	-0.008	-0.032
-85.684	800.000	0.023	-0.065
-84.670	800.000	0.017	0.059
-83.655	-89.584	0.274	-0.079
-82.640	175.020	-0.191	0.272
-81.626	285.544	-0.095	0.168
-80.611	-56.671	0.104	0.045
-79.597	-166.269	0.096	0.004
-78.582	-13.825	0.133	0.085
-77.567	6.340	-0.261	0.191
-76.553	182.910	-0.083	0.121
-75.538	146.598	0.181	0.240
-74.524	-124.214	0.160	-0.025
-73.509	66.364	0.269	0.269
-72.494	235.230	0.245	0.399
-71.480	-73.829	0.159	0.057
-70.465	-181.172	-0.290	-0.006
-69.451	436.252	0.043	0.092
-68.436	-200.000	0.040	0.215
-67.422	6.244	0.207	0.151
-66.407	-200.000	-0.061	-0.412
-65.392	156.941	0.147	-0.200
-64.378	800.000	0.071	0.208
-63.363	715.865	0.090	0.235
-62.349	360.352	-0.128	0.253
-61.334	38.701	-1.134	-0.997
-60.319	148.628	0.630	0.839
-59.305	-200.000	-0.248	-1.239
-58.290	425.338	0.571	1.212
-57.276	800.000	0.570	1.663
-56.261	-200.000	96.962	582.447
-55.246	542.801	1388.806	3263.498
-54.232	157.254	2569.408	3501.611
-53.217	110.927	2166.950	2569.643
-52.203	43.627	1708.355	1539.491
-51.188	36.689	1522.311	1324.498
-50.173	34.187	1495.683	1284.425
-49.159	53.398	1544.623	1458.568
-48.144	55.239	1562.886	1488.379
-47.130	36.801	1521.177	1324.066
-46.115	33.675	1506.499	1290.024
-45.100	33.494	1503.242	1285.961
-44.086	33.518	1501.058	1284.202
-43.071	33.389	1499.752	1282.159
-42.057	33.405	1498.151	1280.852
-41.042	33.391	1496.324	1279.141
-40.027	33.358	1495.606	1278.252
-39.013	33.337	1493.795	1276.517
-37.998	33.346	1492.857	1275.725
-36.984	33.439	1491.670	1275.282
-35.969	33.414	1490.305	1273.896
-34.954	33.350	1488.807	1272.138
-33.940	33.477	1486.935	1271.337
-32.925	33.444	1485.785	1270.081
-31.911	33.465	1484.343	1268.941
-30.896	33.535	1483.232	1268.407
-29.881	33.429	1482.210	1266.775
-28.867	33.495	1480.500	1265.705
-27.852	33.395	1479.298	1263.959
-26.838	33.521	1477.639	1263.332
-25.823	33.422	1476.424	1261.584
-24.809	33.401	1474.536	1259.785
-23.794	33.428	1473.102	1258.684
-22.779	33.365	1472.098	1257.361
-21.765	33.400	1471.274	1256.840
-20.750	33.437	1470.138	1256.061
-19.736	33.399	1468.776	1254.600
-18.721	33.395	1467.894	1253.771
-17.706	33.370	1466.685	1252.521
-16.692	33.329	1466.247	1251.827
-15.677	33.353	1464.870	1250.761
-14.663	33.448	1463.483	1250.152
-13.648	33.362	1462.907	1249.042
-12.633	33.369	1461.587	1247.913
-11.619	33.330	1461.316	1247.375
-10.604	33.216	1460.157	1245.584
-9.590	33.308	1459.246	1245.363
-8.575	33.474	1457.986	1245.334
-7.560	33.340	1457.558	1244.034
-6.546	33.391	1456.786	1243.665
-5.531	33.338	1456.086	1242.666
-4.517	33.289	1454.470	1240.915
-3.502	33.425	1452.895	1240.416
-2.487	33.232	1453.104	1239.279
-1.473	33.294	1451.758	1238.488
-0.458	33.322	1450.648	1237.675
0.556	33.842	1440.872	1226.335
1.571	30.985	1416.957	1187.701
2.586	27.918	1360.956	1121.858
3.600	26.305	1282.504	1047.753
4.615	25.125	1234.935	1002.212
5.629	21.459	1177.404	935.860
6.644	11.366	1090.046	816.101
7.659	3.470	1047.048	745.771
8.673	2.326	1041.522	736.263
9.688	2.097	1038.340	732.851
10.702	1.847	1036.950	730.606
11.717	1.901	1034.917	729.369
12.731	5.759	1039.432	750.997
13.746	15.739	1053.773	809.545
14.761	23.353	1062.942	853.339
15.775	24.978	1064.696	862.506
16.790	25.340	1064.069	863.662
17.804	24.975	1063.859	861.658
18.819	25.011	1062.550	860.696
19.834	25.147	1062.010	860.837
20.848	25.173	1061.689	860.624
21.863	25.112	1061.710	860.271
22.877	25.124	1061.326	859.943
23.892	25.212	1060.225	859.395
24.907	25.110	1059.397	858.161
25.921	25.106	1058.636	857.451
26.936	25.146	1057.739	856.839
27.950	25.045	1057.045	855.715
28.965	25.075	1055.851	854.817
29.980	25.107	1054.051	853.439
30.994	24.995	1052.831	851.843
32.009	25.183	1052.237	852.179
33.023	25.277	1052.003	852.360
34.038	25.000	1050.565	849.809
35.053	25.068	1049.750	849.393
36.067	25.103	1049.240	849.073
37.082	25.089	1048.526	848.354
38.096	25.256	1047.741	848.432
39.111	25.325	1046.911	848.010
40.126	25.426	1046.159	847.806
41.140	25.312	1044.989	846.246
42.155	25.133	1043.611	844.212
43.169	24.796	1042.295	841.486
44.184	24.767	1041.680	840.780
45.199	24.786	1040.854	840.129
46.213	24.789	1039.571	839.031
47.228	24.833	1038.578	838.363
48.242	24.826	1038.296	838.029
49.257	24.977	1037.531	838.044
50.271	25.065	1036.786	837.776
51.286	25.166	1036.302	837.786
52.301	25.163	1035.409	836.976
53.315	25.220	1034.717	836.608
54.330	25.178	1033.570	835.411
55.344	25.050	1033.402	834.603
56.359	25.079	1032.394	833.850
57.374	25.067	1031.460	832.967
58.388	25.056	1030.413	831.995
59.403	24.873	1030.063	830.790
60.417	24.937	1029.075	830.217
61.432	24.781	1028.537	828.985
62.447	24.795	1027.873	828.441
63.461	24.904	1027.303	828.415
64.476	24.915	1026.462	827.716
65.490	24.965	1025.425	827.035
66.505	24.808	1024.900	825.813
67.520	24.829	1023.738	824.901
68.534	24.863	1023.682	824.941
69.549	24.868	1022.093	823.609
70.563	24.504	1020.919	820.918
71.578	24.362	1020.542	819.890
72.593	24.434	1019.883	819.619
73.607	24.258	1018.653	817.748
74.622	24.166	1017.498	816.328
75.636	24.524	1017.469	817.873
76.651	24.725	1016.368	817.834
77.666	24.689	1015.347	816.776
78.680	24.487	1014.442	815.056
79.695	24.514	1014.011	814.757
80.709	24.566	1013.558	814.559
81.724	24.797	1012.728	814.874
82.739	24.821	1011.844	814.197
83.753	24.809	1011.209	813.561
84.768	24.942	1010.415	813.457
85.782	25.223	1009.834	814.190
86.797	25.577	1009.006	815.057
87.812	25.456	1008.607	814.112
88.826	25.189	1007.734	812.127
89.841	25.354	1006.293	811.639
90.855	25.397	1006.060	811.574
91.870	25.352	1005.334	810.715
92.884	25.541	1003.991	810.412
93.899	25.233	1003.488	808.548
94.914	25.225	1002.341	807.515
95.928	25.370	1001.443	807.373
96.943	25.157	1001.487	806.377
97.957	24.923	1000.251	804.260
98.972	24.816	998.774	802.521
99.987	24.610	997.829	800.770
101.001	24.711	997.230	800.670
102.016	25.068	996.668	801.745
103.030	25.234	995.426	801.418
104.045	25.033	994.638	799.814
105.060	25.014	993.243	798.535
106.074	24.757	992.364	796.616
107.089	24.618	991.996	795.630
108.103	25.155	991.640	797.662
109.118	25.234	990.792	797.260
110.133	24.927	989.217	794.563
111.147	24.956	988.335	793.910
112.162	24.734	987.341	792.061
113.176	24.541	986.439	790.410
114.191	24.616	986.066	790.374
115.206	24.783	984.803	790.032
116.220	24.538	983.697	787.994
117.235	24.268	982.576	785.834
118.249	24.560	982.127	786.693
119.264	24.562	981.224	785.908
120.279	24.474	980.965	785.245
121.293	24.547	979.849	784.602
122.308	24.520	979.327	783.995
123.322	24.614	978.526	783.696
124.337	24.634	977.340	782.766
125.352	24.540	975.867	781.105
126.366	24.113	974.352	777.958
127.381	23.718	973.123	775.186
128.395	24.220	972.938	777.160
129.410	24.894	972.738	779.867
130.424	25.095	972.072	780.140
131.439	25.056	971.227	779.224
132.454	25.090	969.938	778.269
133.468	25.055	969.144	777.413
134.483	24.959	968.517	776.423
135.497	24.987	967.759	775.868
136.512	25.192	967.542	776.511
137.527	25.393	966.601	776.559
138.541	25.391	965.472	775.574
139.556	25.405	964.734	774.971
140.570	25.404	964.121	774.405
141.585	25.240	963.550	773.173
142.600	25.435	962.784	773.332
143.614	25.272	961.616	771.620
144.629	25.345	960.996	771.370
145.643	25.574	960.484	771.875
146.658	25.626	959.471	771.215
147.673	25.318	958.050	768.684
148.687	25.211	957.422	767.656
149.702	25.108	956.113	766.098
150.716	25.181	954.651	765.169
151.731	25.109	953.746	764.070
152.746	25.009	953.453	763.342
153.760	25.362	952.804	764.258
154.775	25.499	951.723	763.905
155.789	25.298	951.576	762.867
156.804	25.493	950.096	762.438
157.819	25.518	949.249	761.796
158.833	25.538	948.759	761.421
159.848	25.560	947.893	760.754
160.862	25.638	947.372	760.597
161.877	25.570	946.443	759.497
162.892	25.468	945.262	758.053
163.906	25.466	944.672	757.503
164.921	25.399	943.468	756.188
165.935	25.304	942.673	755.085
166.950	25.408	941.549	754.555
167.964	25.635	940.266	754.413
168.979	25.610	939.056	753.271
169.994	25.309	938.336	751.367
171.008	25.301	936.938	750.144
172.023	25.226	937.000	749.814
173.037	25.467	936.315	750.207
174.052	25.408	934.770	748.657
175.067	25.063	934.063	746.589
176.081	25.200	933.028	746.263
177.096	25.187	932.598	745.799
178.110	25.220	931.683	745.140
179.125	25.018	930.342	743.164
180.140	24.784	929.541	741.489
181.154	24.744	928.994	740.823
182.169	24.946	928.517	741.212
183.183	25.051	928.444	741.523
184.198	25.458	927.898	742.704
185.213	25.454	927.014	741.911
186.227	25.255	926.552	740.657
187.242	25.423	925.932	740.788
188.256	25.394	925.098	739.937
189.271	25.440	924.211	739.350
190.286	25.461	923.841	739.073
191.300	25.392	922.441	737.605
192.315	24.837	921.052	734.154
193.329	24.161	919.600	730.160
194.344	23.642	918.633	727.206
195.359	24.265	918.952	729.943
196.373	25.141	919.165	733.633
197.388	25.276	919.017	734.006
198.402	25.348	918.330	733.683
199.417	25.154	918.046	732.599
200.432	25.353	917.337	732.780
201.446	25.296	916.343	731.688
202.461	24.758	915.875	729.061
203.475	25.012	915.140	729.443
204.490	24.602	913.882	726.711
205.504	23.414	911.625	720.029
206.519	23.867	911.321	721.564
207.534	24.693	911.982	725.377
208.548	24.902	911.116	725.470
209.563	25.290	911.279	727.108
210.577	25.295	910.378	726.345
211.592	25.038	909.514	724.552
212.607	25.273	909.790	725.656
213.621	25.562	909.164	726.261
214.636	25.441	908.270	724.995
215.650	25.465	907.816	724.664
216.665	25.528	907.138	724.313
217.680	25.597	906.854	724.303
218.694	25.564	906.393	723.735
219.709	25.186	905.386	721.349
220.723	24.875	904.334	719.195
221.738	25.057	903.807	719.443
222.753	25.304	903.550	720.169
223.767	25.149	902.740	718.838
224.782	25.247	902.171	718.712
225.796	25.552	901.452	719.296
226.811	25.716	900.514	719.139
227.826	25.208	899.264	716.052
228.840	24.310	898.271	711.614
229.855	24.324	897.750	711.193
230.869	24.642	897.153	711.927
231.884	24.256	896.310	709.656
232.899	24.229	895.731	709.030
233.913	25.244	895.876	713.117
234.928	25.345	895.663	713.287
235.942	25.134	895.320	712.112
236.957	25.156	894.137	711.193
237.972	25.060	892.974	709.827
238.986	24.891	892.315	708.573
240.001	24.965	891.830	708.416
241.015	25.070	891.235	708.294
242.030	25.102	890.766	707.986
243.045	25.145	890.628	707.985
244.059	25.343	890.132	708.308
245.074	25.498	889.266	708.169
246.088	25.398	888.551	707.143
247.103	25.010	887.342	704.592
248.117	25.084	887.091	704.619
249.132	25.643	887.006	706.688
250.147	25.846	887.356	707.702
251.161	26.156	886.485	708.162
252.176	26.080	886.149	707.530
253.190	26.207	885.672	707.586
254.205	26.163	884.571	706.471
255.220	26.350	884.518	707.095
256.234	26.377	883.870	706.624
257.249	26.345	883.206	705.903
258.263	26.198	882.465	704.674
259.278	25.986	881.874	703.314
260.293	26.201	881.966	704.164
261.307	26.337	880.844	703.736
262.322	26.220	880.111	702.632
263.336	26.063	879.883	701.777
264.351	25.621	878.139	698.609
265.366	24.445	876.218	692.459
266.380	24.097	875.386	690.391
267.395	24.956	875.701	693.910
268.409	25.728	875.813	696.927
269.424	25.615	875.432	696.123
270.439	25.855	874.800	696.486
271.453	25.945	873.987	696.128
272.468	25.974	873.486	695.777
273.482	26.241	872.725	696.138
274.497	26.311	872.437	696.118
275.512	26.114	871.483	694.534
276.526	25.551	870.172	691.266
277.541	25.783	869.774	691.781
278.555	26.015	869.960	692.759
279.570	25.886	869.153	691.558
280.585	25.649	868.349	689.948
281.599	25.856	867.761	690.216
282.614	25.953	867.657	690.440
283.628	25.527	866.729	688.011
284.643	24.996	865.502	684.948
285.657	25.690	865.071	687.199
286.672	25.380	864.956	685.860
287.687	24.929	863.605	683.009
288.701	25.197	863.674	684.025
289.716	25.636	863.594	685.576
290.730	25.307	862.611	683.483
291.745	25.233	861.743	682.451
292.760	25.099	860.686	681.047
293.774	24.959	860.542	680.339
294.789	25.955	860.877	684.327
295.803	26.593	861.065	686.838
296.818	26.636	860.308	686.336
297.833	26.718	859.727	686.121
298.847	26.263	859.033	683.784
299.862	26.031	857.734	681.815
300.876	26.317	857.203	682.412
301.891	26.433	857.715	683.199
302.906	26.597	856.861	683.076
303.920	26.221	855.393	680.428
304.935	26.024	854.989	679.304
305.949	26.506	854.579	680.734
306.964	26.507	854.381	680.517
307.979	26.206	853.517	678.639
308.993	26.214	852.926	678.138
310.008	26.714	852.782	679.841
311.022	26.768	852.523	679.778
312.037	26.373	851.769	677.637
313.052	26.308	850.929	676.663
314.066	26.235	850.040	675.625
315.081	25.448	849.169	671.932
316.095	24.848	847.637	668.418
317.110	25.344	847.711	670.270
318.125	26.237	847.872	673.670
319.139	25.836	846.859	671.313
320.154	24.597	845.219	665.339
321.168	24.171	844.223	662.913
322.183	24.769	844.571	665.354
323.197	25.702	845.240	669.292
324.212	26.022	844.933	670.181
325.227	26.142	844.449	670.182
326.241	26.416	843.735	670.571
327.256	26.451	842.874	669.958
328.270	26.271	842.687	669.084
329.285	26.162	841.778	667.900
330.300	25.871	840.878	666.051
331.314	25.747	840.463	665.205
332.329	25.778	839.799	664.736
333.343	26.025	839.770	665.565
334.358	26.474	839.598	667.025
335.373	26.495	838.962	666.540
336.387	26.465	838.212	665.774
337.402	26.560	838.119	665.991
338.416	26.777	837.733	666.423
339.431	26.950	836.628	666.118
340.446	26.797	836.358	665.282
341.460	27.153	835.810	666.094
342.475	27.141	835.399	665.665
343.489	26.719	834.670	663.478
344.504	26.819	834.202	663.413
345.519	26.925	833.964	663.554
346.533	27.216	833.647	664.307
347.548	27.438	833.191	664.693
348.562	27.521	832.172	664.126
349.577	27.257	832.024	662.987
350.592	27.239	831.125	662.145
351.606	27.099	831.052	661.519
352.621	27.026	830.913	661.083
353.635	26.959	830.084	660.121
354.650	27.004	829.154	659.489
355.665	26.729	828.361	657.801
356.679	25.620	826.564	652.298
357.694	25.500	826.401	651.674
358.708	26.168	826.328	653.983
359.723	26.098	825.611	653.105
360.738	26.324	825.083	653.444
361.752	26.821	825.342	655.390
362.767	26.902	824.824	655.211
363.781	27.233	824.535	656.119
364.796	27.295	824.921	656.590
365.810	27.574	824.353	657.086
366.825	27.600	823.765	656.653
367.840	27.605	823.343	656.277
368.854	27.335	823.059	655.020
369.869	26.854	822.276	652.610
370.883	26.822	821.346	651.700
371.898	27.028	820.899	652.028
372.913	26.936	819.944	650.879
373.927	26.816	819.282	649.866
374.942	27.099	818.820	650.457
375.956	27.068	818.800	650.273
376.971	27.143	818.488	650.235
377.986	27.313	817.822	650.256
379.000	27.576	817.051	650.525
380.015	27.573	816.393	649.931
381.029	27.322	815.991	648.659
382.044	27.320	815.514	648.217
383.059	27.450	814.904	648.136
384.073	27.459	814.412	647.719
385.088	27.493	813.745	647.252
386.102	27.547	813.404	647.118
387.117	27.343	812.473	645.594
388.132	27.237	811.750	644.588
389.146	27.020	811.358	643.451
390.161	26.605	810.481	641.230
391.175	26.431	810.351	640.453
392.190	27.061	810.435	642.693
393.205	27.246	809.721	642.724
394.219	26.286	807.693	637.672
395.234	24.567	805.788	630.054
396.248	23.739	804.495	626.070
397.263	24.782	805.576	630.535
398.278	26.560	806.886	637.775
399.292	26.976	806.876	639.176
400.307	26.766	806.032	637.712
401.321	26.740	805.724	637.320
402.336	26.883	805.338	637.459
403.350	27.166	805.235	638.317
404.365	27.597	805.170	639.723
405.380	27.735	804.843	639.891
406.394	28.222	805.161	641.793
407.409	28.352	804.266	641.480
408.423	28.072	804.153	640.353
409.438	28.160	803.092	639.759
410.453	28.070	802.806	639.159
411.467	28.274	802.487	639.559
412.482	28.243	801.834	638.875
413.496	28.048	801.526	637.894
414.511	28.324	800.541	638.014
415.526	28.058	800.794	637.231
416.540	28.169	800.239	637.121
417.555	28.115	799.837	636.555
418.569	27.969	798.822	635.185
419.584	27.732	798.679	634.192
420.599	28.112	797.934	634.864
421.613	110.423	1283.147	1453.639
422.628	95.208	1353.834	1453.783
