DTS Sentinel unit serial number:	SN413079Multiplexer serial number:	ORYXHardware model number:	OX4-SRSoftware version number:	ORYX F/W v4.00 Oryx Data Collector v3.7.2.0data status	okinstallation	princeton_trtdifferential loss correction	single-endedforward channel	channel 3reverse channel	N/Adate	2019/09/10time	20:30:10forward acquisition time	60.00reverse acquisition time	0.00gamma	496.2192k internal	0.2326k external	0.2326temperature offset calibration	0.9914default loss term (dB/km)	0.3790temperature slope calibration	1.0000multiplexer offset coefficient	1.0000multiplexer slope coefficient	1.0000fibre end	0.00T internal ref (°C)	32.00T ext. ref 1 (°C)	-0.31T ext. ref 2 (°C)	25.23length (m)	temperature (°C)	Stokes	anti-Stokes-747.200	628.110	-0.036	0.091
-746.185	-0.757	-0.352	0.252
-745.171	-93.023	0.202	0.057
-744.156	-200.000	-0.301	-0.001
-743.142	381.301	-0.093	0.193
-742.127	-200.000	0.030	0.322
-741.112	-89.928	-0.294	0.086
-740.098	304.864	0.113	0.211
-739.083	647.641	-0.081	-0.210
-738.069	-200.000	-0.027	0.370
-737.054	-200.000	0.003	0.199
-736.039	96.382	-0.309	-0.356
-735.025	136.737	0.125	0.165
-734.010	193.831	-0.100	-0.152
-732.996	17.734	-0.286	-0.229
-731.981	-200.000	0.060	-0.330
-730.966	-9.996	-0.212	-0.142
-729.952	243.214	-0.051	-0.086
-728.937	7.879	-0.295	0.223
-727.923	-200.000	-0.000	-0.341
-726.908	15.192	0.121	0.095
-725.894	6.210	-0.152	-0.114
-724.879	-113.526	-0.070	0.014
-723.864	-145.446	0.024	-0.002
-722.850	790.104	0.074	0.204
-721.835	800.000	0.051	-0.208
-720.821	756.346	0.058	0.158
-719.806	800.000	0.024	0.106
-718.791	-56.717	0.158	-0.070
-717.777	-26.642	-0.054	-0.032
-716.762	-200.000	0.001	-0.006
-715.748	285.777	-0.067	-0.122
-714.733	-200.000	0.007	-0.341
-713.718	-200.000	-0.004	0.095
-712.704	26.743	0.362	-0.306
-711.689	258.949	-0.085	0.147
-710.675	-137.296	-0.204	0.023
-709.660	74.322	-0.074	0.079
-708.645	-98.234	0.122	0.031
-707.631	-89.455	0.056	-0.017
-706.616	-200.000	-0.005	0.263
-705.602	246.832	-0.128	0.218
-704.587	436.214	-0.083	0.181
-703.572	-97.573	0.278	0.073
-702.558	-101.143	-0.107	-0.026
-701.543	204.698	0.122	0.191
-700.529	-151.665	0.358	0.027
-699.514	-37.621	-0.135	0.073
-698.499	-14.272	0.266	-0.172
-697.485	-1.392	-0.078	-0.056
-696.470	-200.000	0.033	-0.220
-695.456	511.856	0.061	0.142
-694.441	-200.000	-0.009	0.202
-693.426	483.094	-0.104	-0.238
-692.412	-139.144	-0.160	0.017
-691.397	-200.000	-0.002	-0.264
-690.383	-200.000	-0.072	0.410
-689.368	-58.817	-0.208	-0.091
-688.354	-6.294	0.223	-0.153
-687.339	-200.000	-0.018	-0.234
-686.324	317.156	-0.059	-0.113
-685.310	800.000	0.066	-0.215
-684.295	24.810	0.216	-0.180
-683.281	-50.533	-0.337	-0.160
-682.266	-70.549	0.311	-0.118
-681.251	274.889	0.089	0.158
-680.237	-84.688	-0.159	-0.050
-679.222	800.000	-0.037	-0.150
-678.208	-89.242	-0.347	0.103
-677.193	800.000	0.061	-0.238
-676.178	800.000	0.094	-0.346
-675.164	-95.291	-0.279	0.075
-674.149	-166.131	0.441	0.019
-673.135	-54.236	-0.278	0.127
-672.120	-157.638	0.170	-0.010
-671.105	-200.000	-0.016	-0.230
-670.091	19.575	-0.319	-0.258
-669.076	61.875	0.221	0.221
-668.062	800.000	-0.091	0.266
-667.047	-200.000	0.030	-0.161
-666.032	-30.966	0.044	-0.025
-665.018	116.116	0.133	-0.164
-664.003	-89.961	0.064	0.019
-662.989	-8.491	0.040	-0.027
-661.974	-88.307	0.251	0.075
-660.959	149.894	0.075	-0.102
-659.945	-200.000	0.033	0.203
-658.930	800.000	0.073	-0.202
-657.916	-115.510	-0.113	-0.021
-656.901	171.850	-0.145	0.210
-655.886	-107.713	-0.165	-0.036
-654.872	-87.452	-0.166	-0.051
-653.857	203.692	-0.174	0.271
-652.843	-10.866	-0.148	0.098
-651.828	98.772	0.230	0.266
-650.814	161.769	-0.330	-0.464
-649.799	302.342	-0.048	-0.090
-648.784	158.328	0.214	0.298
-647.770	-200.000	0.018	0.180
-646.755	93.600	0.385	-0.438
-645.741	800.000	0.054	-0.199
-644.726	-200.000	-0.075	-0.388
-643.711	-200.000	0.015	-0.177
-642.697	653.965	0.014	0.035
-641.682	-200.000	-0.038	-0.177
-640.668	-70.756	-0.112	-0.042
-639.653	590.271	-0.062	-0.152
-638.638	268.662	-0.070	0.124
-637.624	-157.576	0.235	0.014
-636.609	-31.378	0.134	-0.076
-635.595	-156.088	-0.175	0.011
-634.580	232.336	-0.133	-0.219
-633.565	-200.000	0.016	-0.231
-632.551	440.183	-0.073	-0.161
-631.536	800.000	0.016	-0.050
-630.522	92.980	-0.136	0.154
-629.507	-200.000	0.004	0.336
-628.492	-200.000	0.009	-0.135
-627.478	-82.377	-0.426	-0.139
-626.463	800.000	-0.021	-0.062
-625.449	-109.662	0.067	-0.014
-624.434	-40.538	-0.109	-0.057
-623.419	800.000	-0.058	-0.212
-622.405	-200.000	0.005	-0.238
-621.390	255.833	0.258	0.445
-620.376	-200.000	-0.056	-0.265
-619.361	64.606	0.248	-0.251
-618.346	454.632	-0.011	-0.025
-617.332	800.000	-0.075	0.295
-616.317	-200.000	-0.031	-0.280
-615.303	-126.274	0.142	-0.021
-614.288	526.780	-0.125	0.296
-613.273	-105.601	0.093	-0.021
-612.259	-200.000	-0.005	0.132
-611.244	-137.483	-0.266	0.030
-610.230	-73.642	-0.182	0.066
-609.215	800.000	-0.095	-0.325
-608.201	-32.253	-0.215	0.120
-607.186	-29.684	-0.104	0.060
-606.171	-200.000	0.019	-0.171
-605.157	-1.587	-0.105	0.074
-604.142	50.695	-0.061	-0.058
-603.128	-55.018	-0.319	-0.144
-602.113	-200.000	-0.075	0.338
-601.098	-11.813	-0.075	-0.050
-600.084	371.174	-0.195	-0.397
-599.069	-79.780	0.253	-0.086
-598.055	-131.175	0.142	0.019
-597.040	-108.618	-0.289	-0.062
-596.025	46.475	-0.220	-0.205
-595.011	62.275	0.200	-0.200
-593.996	-200.000	-0.025	-0.218
-592.982	-88.286	-0.108	-0.032
-591.967	-200.000	0.026	-0.216
-590.952	-80.936	0.155	-0.052
-589.938	-168.063	0.241	-0.009
-588.923	-64.714	-0.132	-0.054
-587.909	-23.169	-0.302	-0.182
-586.894	41.824	0.167	0.152
-585.879	-200.000	-0.068	-0.347
-584.865	800.000	-0.074	-0.214
-583.850	-200.000	0.022	0.106
-582.836	157.625	0.117	-0.162
-581.821	-65.477	0.250	0.101
-580.806	19.772	-0.338	-0.273
-579.792	-133.883	-0.166	-0.021
-578.777	800.000	0.061	0.170
-577.763	248.651	0.050	-0.085
-576.748	-65.857	-0.478	-0.192
-575.733	-200.000	-0.031	0.165
-574.719	800.000	-0.053	0.163
-573.704	-29.978	0.124	0.071
-572.690	-162.963	-0.135	0.007
-571.675	-43.169	-0.361	-0.183
-570.661	-200.000	-0.011	-0.251
-569.646	93.113	-0.092	-0.104
-568.631	-162.989	0.235	0.011
-567.617	-141.115	-0.367	-0.038
-566.602	-87.537	-0.170	0.051
-565.588	-200.000	0.034	0.150
-564.573	2.173	-0.126	0.091
-563.558	-4.888	-0.122	0.084
-562.544	-200.000	-0.066	-0.384
-561.529	800.000	0.065	-0.217
-560.515	800.000	-0.037	0.141
-559.500	-200.000	0.005	0.154
-558.485	361.049	-0.121	-0.244
-557.471	212.421	0.268	0.423
-556.456	272.351	-0.063	-0.112
-555.442	319.017	-0.039	0.074
-554.427	-92.006	0.197	0.056
-553.412	800.000	-0.048	-0.205
-552.398	-95.810	0.217	-0.058
-551.383	83.945	0.156	0.171
-550.369	-144.030	-0.164	-0.015
-549.354	-172.440	0.339	-0.011
-548.339	84.132	0.198	0.217
-547.325	-200.000	0.029	0.200
-546.310	-200.000	0.058	0.276
-545.296	-81.064	-0.125	-0.041
-544.281	800.000	-0.068	0.278
-543.266	-61.180	0.182	-0.077
-542.252	213.937	-0.089	-0.140
-541.237	104.666	0.157	-0.185
-540.223	483.394	-0.107	0.244
-539.208	104.801	0.110	-0.130
-538.193	-57.047	0.223	-0.098
-537.179	-200.000	-0.001	0.100
-536.164	-27.767	-0.274	-0.159
-535.150	59.194	-0.280	0.276
-534.135	2.787	0.263	-0.191
-533.121	-126.887	0.091	0.013
-532.106	43.585	-0.134	-0.123
-531.091	-69.834	0.076	-0.029
-530.077	35.120	0.193	-0.169
-529.062	-200.000	0.023	0.184
-528.048	-85.530	0.114	-0.036
-527.033	67.892	-0.153	-0.156
-526.018	-71.927	0.080	-0.030
-525.004	-200.000	-0.089	0.472
-523.989	-200.000	0.032	0.281
-522.975	454.440	-0.081	-0.180
-521.960	800.000	0.063	-0.215
-520.945	-124.845	-0.173	0.027
-519.931	-149.333	0.080	0.006
-518.916	-200.000	-0.042	-0.489
-517.902	-200.000	-0.007	-0.079
-516.887	182.156	0.080	0.118
-515.872	-128.158	0.144	-0.021
-514.858	1.267	0.141	0.101
-513.843	145.102	-0.025	-0.034
-512.829	-11.735	0.229	-0.150
-511.814	-200.000	-0.031	-0.198
-510.799	-63.612	-0.158	0.065
-509.785	262.786	-0.161	0.279
-508.770	-164.002	-0.181	-0.008
-507.756	91.404	0.148	-0.166
-506.741	290.172	0.063	0.115
-505.726	-98.341	-0.305	0.078
-504.712	259.002	-0.144	0.248
-503.697	201.022	-0.060	0.093
-502.683	-200.000	-0.012	-0.203
-501.668	-98.079	0.029	-0.008
-500.653	-200.000	-0.019	0.193
-499.639	-200.000	0.003	0.248
-498.624	-71.375	0.243	-0.091
-497.610	-8.102	-0.301	-0.203
-496.595	284.871	0.186	0.335
-495.581	-72.338	-0.051	-0.019
-494.566	657.522	-0.079	-0.203
-493.551	-200.000	0.019	0.141
-492.537	240.952	-0.085	0.141
-491.522	75.430	0.063	0.067
-490.508	-107.721	-0.047	-0.010
-489.493	-44.137	0.183	-0.092
-488.478	176.715	0.061	0.088
-487.464	96.734	0.280	0.320
-486.449	-61.070	-0.256	0.108
-485.435	41.783	0.153	-0.138
-484.420	142.132	-0.056	-0.074
-483.405	-200.000	-0.015	0.066
-482.391	800.000	-0.089	0.351
-481.376	428.178	-0.170	0.366
-480.362	-32.843	-0.207	-0.115
-479.347	800.000	-0.036	0.153
-478.332	9.578	-0.052	-0.039
-477.318	800.000	0.026	0.080
-476.303	572.590	-0.086	0.210
-475.289	-108.128	-0.140	0.030
-474.274	-140.258	-0.165	0.017
-473.259	130.313	-0.182	-0.232
-472.245	-200.000	0.017	-0.191
-471.230	160.668	-0.255	0.355
-470.216	222.394	-0.064	0.102
-469.201	11.332	-0.258	0.197
-468.186	11.635	0.089	-0.068
-467.172	774.287	0.057	0.154
-466.157	-200.000	0.012	0.303
-465.143	478.582	0.076	0.171
-464.128	-19.450	0.076	-0.047
-463.113	209.374	0.174	-0.273
-462.099	472.077	-0.107	0.240
-461.084	-200.000	-0.046	0.284
-460.070	-105.947	-0.015	0.003
-459.055	-16.993	-0.268	-0.169
-458.040	800.000	-0.070	-0.255
-457.026	800.000	0.027	-0.109
-456.011	293.598	0.095	-0.173
-454.997	61.382	0.288	0.286
-453.982	-45.900	0.337	0.166
-452.968	-98.734	0.156	-0.040
-451.953	90.653	-0.259	-0.290
-450.938	-88.559	0.206	-0.061
-449.924	32.395	-0.118	0.102
-448.909	241.225	0.107	-0.178
-447.895	-131.944	0.388	0.050
-446.880	120.081	-0.278	0.343
-445.865	800.000	0.036	-0.129
-444.851	-102.342	-0.126	-0.030
-443.836	-76.143	0.136	-0.048
-442.822	-172.367	-0.276	0.009
-441.807	-61.688	0.022	-0.009
-440.792	800.000	-0.057	-0.245
-439.778	-25.284	-0.252	0.148
-438.763	-69.328	-0.249	0.095
-437.749	56.600	-0.247	0.240
-436.734	800.000	0.029	-0.091
-435.719	-17.694	-0.207	-0.129
-434.705	800.000	0.040	0.145
-433.690	-200.000	-0.008	0.097
-432.676	-34.979	0.288	0.157
-431.661	422.564	0.063	-0.135
-430.646	215.082	0.190	-0.299
-429.632	63.760	-0.241	0.241
-428.617	45.921	0.170	0.157
-427.603	-21.457	-0.205	0.124
-426.588	-55.578	-0.169	0.075
-425.573	-30.512	0.238	0.134
-424.559	-69.116	-0.328	0.126
-423.544	-11.839	0.417	0.272
-422.530	-142.884	0.232	0.022
-421.515	62.497	-0.169	0.168
-420.500	-200.000	-0.004	-0.281
-419.486	-62.360	0.157	-0.065
-418.471	139.146	-0.154	0.202
-417.457	70.109	-0.188	-0.193
-416.442	800.000	0.026	-0.105
-415.428	-200.000	0.003	-0.052
-414.413	800.000	-0.048	-0.156
-413.398	-200.000	-0.000	-0.346
-412.384	-33.905	-0.157	-0.086
-411.369	353.382	-0.097	-0.191
-410.355	69.569	-0.106	0.109
-409.340	749.185	0.094	0.252
-408.325	83.795	0.107	0.116
-407.311	19.532	0.369	0.296
-406.296	452.307	-0.064	-0.140
-405.282	-91.893	-0.252	0.071
-404.267	800.000	0.039	0.124
-403.252	-125.921	0.112	0.017
-402.238	-99.110	-0.181	0.046
-401.223	-147.005	0.286	-0.024
-400.209	-200.000	-0.006	-0.241
-399.194	706.742	0.164	0.432
-398.179	178.260	-0.180	-0.261
-397.165	-110.535	0.324	-0.067
-396.150	272.066	0.127	0.223
-395.136	227.677	0.065	0.105
-394.121	680.583	0.148	0.384
-393.106	-159.893	-0.132	0.007
-392.092	-200.000	0.015	0.120
-391.077	205.426	-0.195	0.301
-390.063	-18.478	-0.182	0.113
-389.048	-96.146	0.628	-0.166
-388.033	-86.435	-0.280	-0.085
-387.019	-74.250	-0.400	0.144
-386.004	-200.000	-0.008	-0.057
-384.990	-38.033	0.149	0.079
-383.975	800.000	0.074	0.217
-382.960	416.452	-0.043	-0.091
-381.946	800.000	-0.077	0.250
-380.931	800.000	0.040	-0.114
-379.917	-33.403	0.259	-0.142
-378.902	-200.000	0.003	-0.306
-377.888	800.000	0.106	-0.342
-376.873	800.000	-0.029	-0.088
-375.858	-9.596	-0.085	0.057
-374.844	-200.000	-0.011	0.153
-373.829	-76.414	0.116	0.040
-372.815	102.542	-0.201	0.234
-371.800	-73.585	0.065	0.024
-370.785	649.813	-0.184	0.468
-369.771	800.000	0.050	0.181
-368.756	-4.352	-0.125	-0.086
-367.742	-117.321	-0.168	0.030
-366.727	-79.763	0.312	-0.104
-365.712	303.488	-0.107	-0.196
-364.698	0.986	0.178	0.127
-363.683	-200.000	-0.012	0.160
-362.669	800.000	-0.060	0.176
-361.654	-20.863	0.226	-0.138
-360.639	-72.365	-0.137	-0.051
-359.625	255.173	0.062	-0.105
-358.610	699.432	0.035	0.091
-357.596	87.102	0.177	-0.195
-356.581	637.115	0.103	-0.260
-355.566	19.265	-0.053	0.043
-354.552	-200.000	0.002	-0.090
-353.537	-187.517	-0.393	0.005
-352.523	-22.821	0.283	0.170
-351.508	800.000	0.083	0.354
-350.493	338.931	-0.158	-0.306
-349.479	-43.902	0.134	0.067
-348.464	47.519	-0.187	-0.173
-347.450	-200.000	-0.021	0.131
-346.435	3.310	0.152	0.110
-345.420	218.416	0.229	0.362
-344.406	800.000	0.014	-0.059
-343.391	-85.863	-0.496	-0.152
-342.377	800.000	0.040	-0.131
-341.362	-200.000	-0.059	-0.258
-340.348	-136.048	0.379	-0.044
-339.333	-200.000	0.029	0.168
-338.318	-200.000	0.017	0.333
-337.304	425.784	0.069	-0.147
-336.289	-200.000	0.041	0.201
-335.275	345.969	0.106	0.207
-334.260	-95.632	-0.266	0.071
-333.245	205.336	0.036	0.055
-332.231	117.645	0.277	-0.338
-331.216	224.832	-0.192	-0.309
-330.202	580.307	0.132	0.320
-329.187	-42.858	0.076	0.038
-328.172	21.566	-0.187	-0.151
-327.158	-200.000	0.023	0.326
-326.143	-7.921	0.023	-0.015
-325.129	728.496	0.051	-0.134
-324.114	-200.000	-0.011	0.272
-323.099	28.854	-0.173	0.145
-322.085	-200.000	0.002	-0.195
-321.070	-200.000	0.024	-0.132
-320.056	26.104	-0.112	0.093
-319.041	681.818	0.107	0.276
-318.026	-23.499	0.111	0.066
-317.012	800.000	0.064	0.259
-315.997	-200.000	-0.011	-0.090
-314.983	-57.809	-0.121	0.052
-313.968	-39.358	0.187	0.097
-312.953	173.390	0.252	-0.360
-311.939	-200.000	0.015	0.153
-310.924	-119.974	0.246	-0.042
-309.910	117.023	-0.040	-0.049
-308.895	-81.990	0.248	0.080
-307.880	637.601	0.055	0.137
-306.866	48.609	0.235	-0.218
-305.851	-200.000	0.012	-0.218
-304.837	-200.000	-0.003	0.107
-303.822	12.106	-0.162	-0.124
-302.807	-108.211	0.085	0.018
-301.793	-200.000	-0.044	0.457
-300.778	-200.000	-0.003	-0.282
-299.764	-148.351	0.085	-0.007
-298.749	800.000	0.047	0.132
-297.735	91.428	0.206	0.230
-296.720	517.922	-0.100	-0.231
-295.705	186.985	0.065	0.096
-294.691	-8.021	-0.271	-0.181
-293.676	202.978	-0.039	-0.060
-292.662	242.553	0.131	-0.218
-291.647	800.000	0.050	0.179
-290.632	511.239	-0.110	0.253
-289.618	97.569	-0.127	0.144
-288.603	-29.751	-0.103	0.058
-287.589	92.135	0.006	-0.007
-286.574	800.000	-0.121	-0.372
-285.559	-66.817	-0.215	0.084
-284.545	-60.139	-0.230	0.097
-283.530	-174.724	-0.230	-0.006
-282.516	-62.089	0.421	-0.174
-281.501	402.771	-0.189	-0.393
-280.486	-71.203	-0.187	-0.070
-279.472	-29.492	-0.299	0.169
-278.457	-53.118	-0.097	0.044
-277.443	-47.674	0.112	-0.054
-276.428	132.420	0.221	0.281
-275.413	-125.431	0.166	0.025
-274.399	13.993	-0.122	-0.094
-273.384	133.501	0.147	-0.188
-272.370	63.667	-0.201	0.200
-271.355	-93.166	0.359	0.099
-270.340	-19.309	0.318	-0.195
-269.326	82.434	-0.060	-0.065
-268.311	-200.000	-0.055	0.311
-267.297	-144.043	0.156	0.014
-266.282	190.240	-0.044	-0.065
-265.267	-113.210	-0.140	0.027
-264.253	120.835	-0.170	-0.209
-263.238	488.544	0.059	-0.133
-262.224	-200.000	-0.007	-0.270
-261.209	-200.000	0.060	-0.405
-260.195	15.903	0.321	0.250
-259.180	31.474	0.036	-0.030
-258.165	-200.000	0.034	0.201
-257.151	152.058	0.122	0.165
-256.136	-200.000	-0.005	0.023
-255.122	44.015	-0.305	-0.277
-254.107	-70.038	-0.296	0.111
-253.092	-200.000	0.086	0.394
-252.078	45.213	0.238	0.217
-251.063	38.396	-0.108	-0.096
-250.049	-120.244	0.264	0.045
-249.034	77.289	0.320	-0.337
-248.019	-200.000	0.015	-0.217
-247.005	-200.000	-0.002	-0.391
-245.990	-182.371	-0.178	-0.003
-244.976	-90.432	0.411	-0.118
-243.961	95.601	-0.172	0.195
-242.946	-157.115	-0.137	-0.008
-241.932	-62.647	0.199	-0.082
-240.917	-89.989	-0.564	-0.163
-239.903	169.338	-0.179	-0.252
-238.888	-22.291	0.133	0.080
-237.873	-82.190	-0.028	-0.009
-236.859	-200.000	0.012	0.252
-235.844	193.308	0.195	0.292
-234.830	-86.006	-0.272	-0.083
-233.815	-92.129	0.198	-0.055
-232.800	-119.484	-0.361	-0.062
-231.786	107.899	-0.169	-0.199
-230.771	414.692	0.080	0.169
-229.757	-160.210	0.333	0.018
-228.742	-121.406	-0.044	0.007
-227.727	144.017	-0.175	-0.231
-226.713	197.502	0.149	0.225
-225.698	-97.330	0.038	-0.010
-224.684	-200.000	0.017	-0.185
-223.669	3.430	0.171	-0.123
-222.655	677.879	0.036	-0.092
-221.640	-200.000	-0.012	-0.331
-220.625	569.500	0.154	-0.370
-219.611	59.214	0.266	0.259
-218.596	226.259	0.101	0.162
-217.582	-200.000	-0.046	0.218
-216.567	14.621	-0.169	0.130
-215.552	27.879	0.155	0.129
-214.538	81.575	0.229	-0.245
-213.523	-188.908	-0.185	-0.002
-212.509	-67.379	-0.183	0.071
-211.494	-34.868	0.226	-0.122
-210.479	-111.987	-0.330	0.066
-209.465	165.922	0.133	-0.187
-208.450	77.017	-0.167	-0.176
-207.436	51.544	0.324	-0.304
-206.421	-106.202	0.205	-0.045
-205.406	23.011	-0.144	-0.117
-204.392	157.411	0.144	0.196
-203.377	626.314	-0.007	0.017
-202.363	256.584	-0.181	-0.307
-201.348	-32.891	-0.109	0.060
-200.333	-63.584	0.320	0.130
-199.319	143.943	0.026	0.034
-198.304	-69.408	-0.119	-0.045
-197.290	800.000	0.079	-0.329
-196.275	-108.812	0.144	-0.030
-195.260	-88.961	0.125	0.037
-194.246	-84.583	-0.200	-0.062
-193.231	0.335	0.106	-0.075
-192.217	57.923	0.180	0.174
-191.202	90.896	0.084	0.093
-190.187	-200.000	0.059	0.279
-189.173	-2.913	-0.211	-0.146
-188.158	-44.122	0.248	-0.123
-187.144	-117.859	-0.156	0.028
-186.129	615.831	0.136	-0.336
-185.114	-200.000	0.025	0.187
-184.100	6.688	-0.027	-0.020
-183.085	-200.000	-0.017	0.327
-182.071	800.000	-0.027	-0.077
-181.056	-131.632	0.527	0.068
-180.042	66.553	-0.057	0.057
-179.027	-168.744	-0.131	-0.005
-178.012	-200.000	0.028	0.178
-176.998	-200.000	0.049	0.398
-175.983	19.479	-0.076	-0.060
-174.969	290.384	0.030	-0.054
-173.954	391.677	0.168	0.343
-172.939	394.788	-0.075	0.154
-171.925	-98.255	0.253	-0.064
-170.910	800.000	-0.099	0.330
-169.896	-135.267	0.052	-0.006
-168.881	-200.000	0.007	-0.184
-167.866	-35.930	-0.228	-0.122
-166.852	30.748	0.066	-0.055
-165.837	154.361	-0.175	-0.237
-164.823	-33.728	0.385	0.210
-163.808	-54.980	0.183	-0.081
-162.793	61.014	0.282	-0.276
-161.779	776.688	-0.075	0.203
-160.764	-174.389	-0.157	0.004
-159.750	-177.821	0.085	-0.002
-158.735	-200.000	0.242	-0.000
-157.720	-200.000	0.027	0.269
-156.706	-142.637	-0.408	-0.039
-155.691	217.639	-0.057	-0.089
-154.677	-174.960	-0.312	0.009
-153.662	-200.000	0.021	-0.105
-152.647	319.735	-0.039	0.072
-151.633	-200.000	-0.007	-0.232
-150.618	298.033	0.087	-0.158
-149.604	230.376	-0.098	-0.158
-148.589	-130.764	-0.069	-0.009
-147.574	535.931	-0.148	0.347
-146.560	-74.550	0.240	0.085
-145.545	49.940	0.201	-0.187
-144.531	244.728	-0.104	-0.173
-143.516	800.000	0.067	0.217
-142.502	293.278	-0.122	-0.220
-141.487	67.659	0.181	0.182
-140.472	66.746	-0.124	-0.124
-139.458	-200.000	0.016	-0.242
-138.443	-9.250	-0.289	-0.190
-137.429	-23.925	0.211	-0.124
-136.414	104.259	0.079	-0.092
-135.399	-126.410	0.418	0.061
-134.385	358.584	-0.116	0.229
-133.370	-200.000	0.044	0.254
-132.356	-88.291	-0.419	-0.124
-131.341	-43.709	0.089	-0.044
-130.326	-88.730	-0.314	0.092
-129.312	38.304	0.435	-0.381
-128.297	-76.302	0.216	-0.075
-127.283	25.306	0.307	0.251
-126.268	109.724	0.127	0.150
-125.253	-114.513	-0.197	-0.037
-124.239	-200.000	0.001	-0.336
-123.224	31.184	0.191	0.161
-122.210	356.390	-0.061	-0.119
-121.195	247.543	-0.179	0.298
-120.180	353.552	0.156	0.306
-119.166	475.988	0.128	0.285
-118.151	-92.195	0.176	-0.049
-117.137	98.343	0.077	0.088
-116.122	99.871	-0.269	0.307
-115.107	109.761	0.089	-0.105
-114.093	-29.403	-0.113	0.064
-113.078	15.795	0.198	0.154
-112.064	156.124	-0.387	0.525
-111.049	-200.000	0.012	-0.490
-110.034	402.227	0.125	0.259
-109.020	193.103	0.201	0.300
-108.005	-65.893	0.135	0.053
-106.991	-106.225	0.132	0.029
-105.976	234.422	0.106	0.171
-104.962	-121.613	-0.128	0.021
-103.947	-200.000	0.002	0.167
-102.932	-200.000	0.013	0.238
-101.918	-200.000	-0.028	-0.331
-100.903	-43.683	0.372	-0.185
-99.889	425.774	0.085	-0.180
-98.874	-198.230	-0.144	-0.001
-97.859	-36.056	0.135	0.072
-96.845	-74.298	0.134	0.048
-95.830	-12.720	-0.221	-0.142
-94.816	-119.753	-0.171	-0.029
-93.801	-200.000	0.028	0.130
-92.786	476.454	-0.080	-0.177
-91.772	77.432	0.213	-0.222
-90.757	-67.252	0.071	0.027
-89.743	-200.000	-0.006	0.155
-88.728	800.000	0.093	-0.263
-87.713	272.857	-0.089	0.155
-86.699	460.114	-0.088	0.192
-85.684	800.000	-0.030	-0.099
-84.670	-158.068	-0.061	-0.003
-83.655	-83.157	-0.284	-0.090
-82.640	102.936	-0.165	-0.190
-81.626	-33.879	0.181	-0.098
-80.611	129.630	0.087	0.109
-79.597	-200.000	0.004	-0.086
-78.582	-200.000	0.097	0.470
-77.567	686.780	0.108	-0.276
-76.553	-122.488	0.429	-0.069
-75.538	-104.378	-0.356	0.081
-74.524	144.087	0.024	-0.032
-73.509	112.889	-0.172	-0.205
-72.494	398.577	-0.182	-0.375
-71.480	-95.614	0.517	-0.136
-70.465	-200.000	-0.066	-0.310
-69.451	433.935	0.122	-0.261
-68.436	-89.990	-0.185	0.053
-67.422	-147.742	-0.382	0.031
-66.407	-200.000	-0.053	-0.408
-65.392	-46.688	-0.159	0.077
-64.378	74.497	-0.070	-0.072
-63.363	-42.891	-0.380	0.189
-62.349	20.529	0.167	0.132
-61.334	50.894	-1.095	-1.018
-60.319	763.023	0.262	0.699
-59.305	-200.000	-0.027	-0.802
-58.290	422.306	0.586	1.235
-57.276	800.000	0.507	1.424
-56.261	-200.000	98.276	602.858
-55.246	611.629	1404.079	3446.839
-54.232	192.071	2594.726	3840.976
-53.217	116.755	2169.426	2613.352
-52.203	42.769	1707.774	1526.950
-51.188	35.280	1521.843	1309.738
-50.173	32.778	1495.629	1270.294
-49.159	51.671	1546.670	1443.562
-48.144	53.605	1563.044	1472.036
-47.130	35.357	1521.842	1310.048
-46.115	32.240	1507.273	1276.333
-45.100	32.132	1503.903	1272.696
-44.086	32.083	1502.142	1270.823
-43.071	32.076	1499.999	1268.911
-42.057	31.969	1498.335	1266.731
-41.042	32.007	1496.878	1265.708
-40.027	32.007	1495.805	1264.751
-39.013	31.951	1494.014	1262.811
-37.998	31.890	1493.157	1261.626
-36.984	31.931	1491.799	1260.698
-35.969	31.939	1490.444	1259.559
-34.954	32.052	1488.717	1258.809
-33.940	32.036	1487.160	1257.332
-32.925	32.076	1485.879	1256.468
-31.911	32.086	1485.074	1255.804
-30.896	32.106	1483.402	1254.477
-29.881	32.088	1482.291	1253.366
-28.867	32.065	1480.615	1251.748
-27.852	32.013	1479.494	1250.403
-26.838	32.045	1478.011	1249.310
-25.823	32.080	1476.195	1247.958
-24.809	32.042	1474.457	1246.188
-23.794	32.002	1473.598	1245.145
-22.779	31.937	1472.204	1243.492
-21.765	32.045	1471.220	1243.325
-20.750	32.026	1470.094	1242.201
-19.736	31.994	1469.309	1241.271
-18.721	32.019	1467.502	1239.863
-17.706	32.030	1466.724	1239.227
-16.692	32.034	1465.407	1238.097
-15.677	32.072	1464.179	1237.257
-14.663	32.017	1463.287	1236.092
-13.648	31.914	1462.365	1234.586
-12.633	31.978	1462.073	1234.710
-11.619	31.954	1461.116	1233.698
-10.604	31.949	1460.470	1233.068
-9.590	31.917	1459.709	1232.167
-8.575	31.978	1458.451	1231.457
-7.560	31.978	1457.572	1230.666
-6.546	32.075	1456.068	1229.982
-5.531	31.927	1455.641	1228.602
-4.517	31.995	1454.560	1228.086
-3.502	31.934	1453.598	1226.830
-2.487	31.978	1452.340	1226.006
-1.473	31.882	1451.382	1224.523
-0.458	31.964	1449.936	1223.788
0.556	29.616	1440.417	1212.740
1.571	26.503	1414.194	1170.453
2.586	23.019	1353.195	1098.268
3.600	21.293	1271.165	1021.516
4.615	20.159	1226.369	979.031
5.629	17.300	1171.266	919.518
6.644	8.457	1086.004	807.975
7.659	0.971	1044.815	740.745
8.673	-0.170	1039.366	731.260
9.688	-0.280	1035.784	728.143
10.702	-0.433	1034.480	726.421
11.717	-0.356	1032.120	725.073
12.731	2.658	1035.958	742.314
13.746	11.624	1048.950	795.361
14.761	18.004	1056.379	832.095
15.775	18.724	1056.488	835.610
16.790	18.703	1055.769	834.866
17.804	18.429	1055.037	832.881
18.819	18.160	1054.103	830.763
19.834	18.296	1053.181	830.623
20.848	18.226	1053.330	830.326
21.863	18.386	1052.449	830.337
22.877	18.361	1052.002	829.791
23.892	18.378	1051.298	829.241
24.907	18.268	1050.593	828.079
25.921	18.374	1050.050	828.093
26.936	18.341	1049.052	827.071
27.950	18.370	1047.852	826.192
28.965	18.394	1046.673	825.308
29.980	18.264	1045.036	823.315
30.994	18.091	1043.746	821.397
32.009	18.342	1042.878	821.848
33.023	18.344	1042.151	821.208
34.038	18.148	1041.198	819.447
35.053	18.181	1039.895	818.508
36.067	18.401	1039.269	818.996
37.082	18.359	1038.518	818.130
38.096	18.466	1037.560	817.810
39.111	18.605	1036.644	817.681
40.126	18.765	1035.362	817.357
41.140	18.546	1034.559	815.609
42.155	18.363	1032.874	813.341
43.169	18.018	1032.064	810.992
44.184	18.199	1030.407	810.476
45.199	18.171	1029.780	809.783
46.213	18.077	1028.592	808.332
47.228	17.945	1027.922	807.108
48.242	18.086	1026.635	806.694
49.257	18.083	1026.017	806.121
50.271	18.300	1024.934	806.220
51.286	18.314	1024.027	805.502
52.301	18.398	1023.254	805.220
53.315	18.348	1022.411	804.247
54.330	18.370	1021.496	803.562
55.344	18.249	1021.126	802.631
56.359	18.301	1019.647	801.641
57.374	18.430	1018.589	801.342
58.388	18.162	1017.884	799.462
59.403	18.294	1016.545	798.959
60.417	18.233	1016.433	798.515
61.432	18.081	1015.063	796.660
62.447	17.985	1014.663	795.828
63.461	18.336	1013.382	796.384
64.476	18.316	1013.125	796.018
65.490	18.220	1011.755	794.428
66.505	18.180	1010.609	793.270
67.520	18.127	1010.631	792.972
68.534	18.315	1009.126	792.594
69.549	18.229	1008.291	791.467
70.563	17.849	1007.348	788.901
71.578	17.828	1006.033	787.704
72.593	18.089	1005.470	788.400
73.607	17.919	1004.016	786.407
74.622	17.858	1003.291	785.486
75.636	18.175	1002.361	786.149
76.651	18.222	1002.104	786.091
77.666	17.937	1001.578	784.301
78.680	17.917	1000.302	783.142
79.695	17.963	999.576	782.716
80.709	18.147	998.991	783.029
81.724	18.196	998.031	782.431
82.739	18.214	997.084	781.700
83.753	18.182	996.059	780.682
84.768	18.285	995.918	780.973
85.782	18.609	994.858	781.552
86.797	18.544	994.196	780.663
87.812	18.521	993.439	779.898
88.826	18.434	992.372	778.593
89.841	18.495	991.207	777.889
90.855	18.593	990.823	777.964
91.870	18.530	990.092	777.035
92.884	18.574	989.514	776.713
93.899	18.373	988.045	774.582
94.914	18.315	987.638	773.931
95.928	18.600	986.532	774.284
96.943	18.566	985.872	773.544
97.957	18.138	984.737	770.655
98.972	18.115	983.003	769.124
99.987	17.954	982.076	767.607
101.001	18.031	981.343	767.312
102.016	18.321	980.961	768.250
103.030	18.435	979.637	767.655
104.045	18.176	978.510	765.543
105.060	18.062	977.499	764.175
106.074	17.945	976.115	762.504
107.089	17.999	975.581	762.262
108.103	18.374	975.411	763.735
109.118	18.577	974.242	763.654
110.133	18.380	973.300	761.971
111.147	18.442	972.197	761.317
112.162	18.265	970.884	759.436
113.176	18.083	969.886	757.782
114.191	18.093	969.302	757.304
115.206	18.112	968.243	756.491
116.220	17.772	967.426	754.284
117.235	17.840	965.843	753.281
118.249	17.919	965.629	753.399
119.264	17.984	964.280	752.566
120.279	17.906	963.324	751.409
121.293	18.001	962.290	750.955
122.308	17.997	961.933	750.591
123.322	18.021	961.258	750.105
124.337	18.092	959.709	749.138
125.352	18.082	957.967	747.668
126.366	17.730	956.050	744.570
127.381	17.433	954.622	742.097
128.395	17.781	954.969	743.820
129.410	18.374	954.433	745.920
130.424	18.546	953.484	745.860
131.439	18.586	952.136	744.913
132.454	18.510	950.811	743.482
133.468	18.524	950.167	742.973
134.483	18.337	949.330	741.443
135.497	18.372	948.409	740.807
136.512	18.563	948.481	741.624
137.527	18.663	947.693	741.375
138.541	18.765	946.459	740.785
139.556	18.607	945.790	739.517
140.570	18.556	944.867	738.506
141.585	18.521	944.071	737.670
142.600	18.610	943.155	737.270
143.614	18.537	941.905	735.918
144.629	18.529	941.759	735.704
145.643	18.806	940.661	735.968
146.658	18.587	940.131	734.548
147.673	18.590	938.653	733.341
148.687	18.504	937.417	731.943
149.702	18.447	936.376	730.823
150.716	18.479	935.411	730.140
151.731	18.355	934.850	729.111
152.746	18.518	933.640	728.796
153.760	18.737	932.976	729.145
154.775	18.690	932.439	728.459
155.789	18.765	931.762	728.186
156.804	18.663	930.834	726.964
157.819	18.756	929.788	726.477
158.833	18.581	929.256	725.257
159.848	18.707	928.236	724.927
160.862	18.705	927.662	724.407
161.877	18.563	926.764	723.041
162.892	18.625	925.945	722.600
163.906	18.757	925.326	722.608
164.921	18.900	924.113	722.198
165.935	18.794	922.795	720.661
166.950	18.722	921.890	719.587
167.964	18.947	920.615	719.471
168.979	18.763	919.954	718.120
169.994	18.666	919.195	717.062
171.008	18.686	917.915	716.082
172.023	18.750	917.226	715.748
173.037	18.749	916.584	715.182
174.052	18.655	915.240	713.678
175.067	18.338	914.314	711.574
176.081	18.385	913.415	711.007
177.096	18.593	912.877	711.387
178.110	18.592	912.124	710.735
179.125	18.375	910.732	708.690
180.140	18.179	909.632	706.959
181.154	18.427	908.478	707.025
182.169	18.518	908.126	707.062
183.183	18.454	908.202	706.795
184.198	18.653	908.143	707.510
185.213	18.652	907.177	706.688
186.227	18.613	906.335	705.809
187.242	18.730	906.025	705.987
188.256	18.732	905.109	705.220
189.271	18.675	904.340	704.324
190.286	18.780	903.465	704.009
191.300	18.936	902.225	703.618
192.315	18.330	901.663	700.639
193.329	17.630	900.286	696.649
194.344	17.391	898.964	694.587
195.359	17.856	899.099	696.530
196.373	18.531	899.528	699.555
197.388	18.855	898.743	700.201
198.402	18.559	897.769	698.176
199.417	18.602	897.208	697.852
200.432	18.622	896.414	697.254
201.446	18.406	895.973	695.971
202.461	18.164	895.181	694.315
203.475	18.270	894.734	694.337
204.490	17.824	893.346	691.391
205.504	16.819	891.331	685.704
206.519	17.345	891.089	687.584
207.534	18.256	891.324	691.386
208.548	18.218	890.745	690.724
209.563	18.557	890.481	691.826
210.577	18.705	889.339	691.474
211.592	18.411	889.231	690.146
212.607	18.660	888.711	690.680
213.621	18.792	887.966	690.575
214.636	18.784	886.990	689.719
215.650	18.884	886.678	689.820
216.665	18.783	886.212	688.989
217.680	18.698	886.067	688.477
218.694	18.891	885.323	688.609
219.709	18.534	884.051	686.131
220.723	18.216	883.010	683.990
221.738	18.518	882.442	684.696
222.753	18.672	882.202	685.067
223.767	18.673	881.204	684.234
224.782	18.583	880.557	683.310
225.796	18.828	879.696	683.557
226.811	18.950	879.176	683.579
227.826	18.630	877.795	681.174
228.840	17.798	876.710	676.970
229.855	17.765	876.174	676.367
230.869	18.021	875.523	676.817
231.884	17.653	874.859	674.790
232.899	17.830	874.108	674.852
233.913	18.574	874.203	677.806
234.928	18.708	873.945	678.075
235.942	18.612	873.143	677.015
236.957	18.666	872.492	676.661
237.972	18.529	871.517	675.307
238.986	18.289	870.592	673.585
240.001	18.551	869.965	674.069
241.015	18.588	869.236	673.592
242.030	18.466	868.675	672.617
243.045	18.718	868.121	673.117
244.059	18.671	867.754	672.591
245.074	19.003	866.810	673.098
246.088	18.879	866.399	672.236
247.103	18.329	865.535	669.354
248.117	18.578	864.843	669.733
249.132	18.811	864.317	670.177
250.147	19.170	864.272	671.483
251.161	19.106	863.546	670.608
252.176	19.426	862.725	671.157
253.190	19.510	861.690	670.617
254.205	19.349	861.553	669.829
255.220	19.606	861.037	670.366
256.234	19.529	860.401	669.511
257.249	19.559	859.647	668.983
258.263	19.318	859.140	667.593
259.278	19.337	858.393	667.031
260.293	19.402	858.080	666.980
261.307	19.419	857.488	666.523
262.322	19.458	856.618	665.938
263.336	19.231	856.099	664.600
264.351	18.784	854.332	661.449
265.366	17.753	852.045	655.659
266.380	17.235	851.758	653.390
267.395	18.156	852.313	657.299
268.409	18.949	851.809	659.894
269.424	18.991	851.250	659.567
270.439	19.167	851.036	660.016
271.453	19.369	850.168	660.057
272.468	19.324	849.554	659.352
273.482	19.475	849.257	659.639
274.497	19.436	849.098	659.308
275.512	19.273	847.504	657.390
276.526	18.744	846.438	654.490
277.541	18.956	845.883	654.812
278.555	19.333	845.546	655.927
279.570	19.237	844.436	654.644
280.585	18.932	843.794	652.929
281.599	18.970	843.229	652.579
282.614	19.078	842.924	652.692
283.628	18.791	841.875	650.737
284.643	18.666	840.700	649.299
285.657	18.900	840.800	650.201
286.672	18.712	839.898	648.738
287.687	18.292	839.219	646.571
288.701	18.664	838.832	647.616
289.716	18.997	838.456	648.528
290.730	18.620	837.587	646.375
291.745	18.502	836.831	645.292
292.760	18.493	835.772	644.382
293.774	18.324	835.233	643.276
294.789	19.056	835.801	646.407
295.803	19.763	835.202	648.541
296.818	19.799	834.954	648.424
297.833	19.937	834.519	648.549
298.847	19.606	833.366	646.356
299.862	19.413	832.036	644.545
300.876	19.544	831.991	644.942
301.891	19.794	831.559	645.484
302.906	19.864	830.684	645.009
303.920	19.394	829.422	642.221
304.935	19.144	828.631	640.622
305.949	19.632	828.772	642.492
306.964	19.764	828.103	642.405
307.979	19.648	827.055	641.106
308.993	19.674	826.832	640.973
310.008	19.919	826.590	641.638
311.022	20.042	825.965	641.552
312.037	19.873	825.533	640.531
313.052	19.733	824.987	639.535
314.066	19.703	824.151	638.720
315.081	19.058	822.958	635.357
316.095	18.415	821.770	632.010
317.110	18.954	822.112	634.209
318.125	19.658	822.030	636.682
319.139	19.283	820.880	634.358
320.154	18.440	819.531	630.158
321.168	17.915	818.673	627.515
322.183	18.474	818.641	629.489
323.197	19.327	818.785	632.673
324.212	19.420	818.756	632.936
325.227	19.653	818.484	633.526
326.241	19.656	818.022	633.125
327.256	19.511	817.726	632.308
328.270	19.587	816.541	631.611
329.285	19.529	815.896	630.848
330.300	19.327	815.712	629.909
331.314	19.278	814.255	628.551
332.329	19.341	813.633	628.244
333.343	19.542	813.573	628.874
334.358	19.685	813.366	629.180
335.373	19.699	812.646	628.617
336.387	19.810	811.885	628.376
337.402	20.065	811.628	629.049
338.416	20.239	811.058	629.181
339.431	20.262	810.101	628.468
340.446	20.027	809.769	627.303
341.460	20.282	809.092	627.646
342.475	20.091	808.983	626.814
343.489	20.043	808.109	625.910
344.504	20.136	807.021	625.346
345.519	20.023	807.294	625.096
346.533	20.273	807.081	625.776
347.548	20.429	806.579	625.892
348.562	20.458	806.141	625.603
349.577	20.591	805.534	625.554
350.592	20.521	804.895	624.751
351.606	20.390	804.722	624.091
352.621	20.458	803.765	623.539
353.635	20.431	803.189	622.940
354.650	20.370	802.790	622.358
355.665	19.901	802.055	620.051
356.679	19.109	800.246	615.767
357.694	18.955	799.973	614.949
358.708	19.468	799.624	616.461
359.723	19.352	799.242	615.699
360.738	19.747	798.941	616.821
361.752	20.195	798.924	618.350
362.767	20.270	798.199	618.001
363.781	20.453	798.163	618.572
364.796	20.689	797.914	619.163
365.810	20.678	797.557	618.793
366.825	20.689	797.247	618.537
367.840	20.710	796.767	618.183
368.854	20.577	796.001	617.063
369.869	20.202	795.274	615.115
370.883	20.195	794.365	614.333
371.898	20.306	794.158	614.512
372.913	20.083	793.228	612.949
373.927	20.076	792.291	612.147
374.942	20.177	792.172	612.355
375.956	20.362	791.729	612.613
376.971	20.575	791.521	613.150
377.986	20.556	790.869	612.523
379.000	20.643	790.523	612.506
380.015	20.759	790.135	612.561
381.029	20.618	789.363	611.412
382.044	20.470	788.847	610.440
383.059	20.561	788.221	610.220
384.073	20.609	787.640	609.882
385.088	20.828	787.095	610.177
386.102	20.853	786.764	609.952
387.117	20.638	786.084	608.620
388.132	20.601	785.581	608.045
389.146	20.449	785.074	607.068
390.161	20.107	784.032	605.014
391.175	20.127	783.866	604.902
392.190	20.384	783.637	605.571
393.205	20.534	783.118	605.639
394.219	19.639	781.509	601.226
395.234	18.283	779.544	594.951
396.248	17.554	778.920	591.891
397.263	18.668	779.428	596.096
398.278	20.251	780.588	602.431
399.292	20.635	780.405	603.570
400.307	20.358	779.968	602.216
401.321	20.382	779.282	601.717
402.336	20.463	779.033	601.751
403.350	20.692	778.819	602.325
404.365	20.975	778.391	602.920
405.380	21.028	778.586	603.203
406.394	21.274	778.020	603.559
407.409	21.478	777.295	603.650
408.423	21.312	777.237	602.978
409.438	21.204	776.363	601.874
410.453	21.217	776.038	601.613
411.467	21.494	775.533	602.121
412.482	21.453	774.881	601.421
413.496	21.338	774.616	600.767
414.511	21.430	774.214	600.720
415.526	21.245	774.227	600.039
416.540	21.388	773.840	600.177
417.555	21.375	773.020	599.443
418.569	21.133	772.256	597.970
419.584	20.992	771.823	597.098
420.599	21.205	771.369	597.424
421.613	157.177	1359.970	1794.088
422.628	135.555	1445.720	1794.183
