DTS Sentinel unit serial number:	SN413079Multiplexer serial number:	ORYXHardware model number:	OX4-SRSoftware version number:	ORYX F/W v4.00 Oryx Data Collector v3.7.2.0data status	okinstallation	princeton_trtdifferential loss correction	single-endedforward channel	channel 3reverse channel	N/Adate	2019/09/11time	16:14:10forward acquisition time	60.00reverse acquisition time	0.00gamma	496.2192k internal	0.2287k external	0.2287temperature offset calibration	0.9989default loss term (dB/km)	0.3790temperature slope calibration	1.0000multiplexer offset coefficient	1.0000multiplexer slope coefficient	1.0000fibre end	0.00T internal ref (°C)	43.31T ext. ref 1 (°C)	1.06T ext. ref 2 (°C)	39.56length (m)	temperature (°C)	Stokes	anti-Stokes-747.200	800.000	-0.066	0.255
-746.185	-66.435	0.221	0.090
-745.171	-200.000	0.009	0.290
-744.156	59.067	-0.142	0.144
-743.142	52.075	0.099	-0.097
-742.127	-96.050	0.123	0.033
-741.112	-43.604	0.180	0.093
-740.098	298.651	-0.233	0.440
-739.083	118.609	0.291	0.368
-738.069	-1.379	-0.241	0.174
-737.054	-98.544	0.145	0.038
-736.039	-131.052	-0.437	-0.060
-735.025	-170.377	0.171	0.006
-734.010	709.125	0.070	0.189
-732.996	800.000	0.008	-0.026
-731.981	428.900	-0.111	0.245
-730.966	-200.000	0.014	-0.322
-729.952	161.012	-0.079	-0.113
-728.937	223.668	-0.207	-0.343
-727.923	337.234	-0.035	-0.069
-726.908	-19.812	-0.302	0.192
-725.894	-46.194	-0.445	0.224
-724.879	590.539	-0.096	0.243
-723.864	-137.742	0.178	-0.020
-722.850	-97.259	-0.131	-0.035
-721.835	-30.425	-0.169	-0.098
-720.821	-200.000	-0.000	0.217
-719.806	39.414	-0.085	0.078
-718.791	265.456	0.011	0.020
-717.777	291.072	0.076	-0.141
-716.762	-84.620	0.104	-0.034
-715.748	-159.445	-0.101	0.006
-714.733	288.729	0.051	0.094
-713.718	-70.798	-0.115	-0.044
-712.704	-127.178	0.092	-0.014
-711.689	-111.117	-0.051	0.011
-710.675	-80.506	0.286	0.098
-709.660	-153.793	-0.116	0.008
-708.645	134.203	-0.026	-0.035
-707.631	-120.371	0.119	0.021
-706.616	-49.043	0.274	0.134
-705.602	-166.317	-0.159	-0.007
-704.587	-200.000	0.004	0.101
-703.572	-62.516	0.136	-0.058
-702.558	800.000	0.065	-0.229
-701.543	-200.000	0.004	0.061
-700.529	-200.000	-0.028	-0.182
-699.514	76.336	0.083	-0.090
-698.499	800.000	0.089	-0.369
-697.485	679.820	-0.012	0.033
-696.470	-4.117	-0.093	-0.066
-695.456	137.516	-0.056	-0.075
-694.441	47.212	0.030	0.028
-693.426	23.519	0.134	0.113
-692.412	-46.671	0.173	-0.087
-691.397	-117.246	-0.260	0.048
-690.383	-116.412	-0.301	-0.057
-689.368	-174.806	-0.119	-0.003
-688.354	83.132	-0.207	0.231
-687.339	7.716	-0.063	-0.048
-686.324	-200.000	0.014	0.293
-685.310	-200.000	0.006	-0.101
-684.295	-96.500	0.159	-0.043
-683.281	-200.000	-0.002	0.025
-682.266	-107.497	-0.314	0.070
-681.251	-15.126	-0.257	-0.168
-680.237	68.395	0.273	0.287
-679.222	273.294	-0.070	-0.127
-678.208	570.700	0.158	-0.393
-677.193	-200.000	-0.051	-0.271
-676.178	569.476	0.081	-0.201
-675.164	800.000	-0.091	-0.281
-674.149	355.374	0.219	-0.446
-673.135	240.622	-0.070	-0.119
-672.120	-131.937	0.194	0.026
-671.105	386.408	-0.125	-0.263
-670.091	-102.912	-0.215	-0.052
-669.076	73.928	-0.124	0.133
-668.062	610.720	-0.084	0.215
-667.047	-200.000	-0.022	0.110
-666.032	800.000	0.059	-0.195
-665.018	-99.238	-0.264	0.068
-664.003	-191.328	-0.248	0.003
-662.989	-200.000	0.002	-0.042
-661.974	91.477	0.116	0.133
-660.959	-200.000	-0.029	-0.261
-659.945	-4.684	0.184	0.130
-658.930	110.489	-0.057	0.070
-657.916	-200.000	-0.014	-0.103
-656.901	513.939	-0.050	-0.119
-655.886	-150.156	0.186	-0.015
-654.872	91.350	-0.233	0.268
-653.857	231.811	-0.056	0.095
-652.843	800.000	-0.009	-0.036
-651.828	-140.195	0.221	-0.024
-650.814	391.482	0.091	0.192
-649.799	-44.384	-0.073	0.037
-648.784	61.891	-0.064	0.065
-647.770	22.322	-0.198	0.166
-646.755	-85.364	0.171	0.054
-645.741	-92.811	0.318	-0.091
-644.726	380.031	-0.164	-0.343
-643.711	-96.755	0.186	-0.050
-642.697	610.918	-0.078	-0.198
-641.682	-96.971	-0.130	-0.035
-640.668	800.000	-0.030	0.095
-639.653	-200.000	-0.013	0.264
-638.638	-66.338	-0.124	0.050
-637.624	-113.890	-0.140	-0.028
-636.609	-135.703	0.107	-0.013
-635.595	-121.748	-0.188	-0.032
-634.580	3.258	-0.200	-0.149
-633.565	327.714	-0.037	0.072
-632.551	-200.000	0.006	-0.304
-631.536	29.413	0.193	-0.168
-630.522	-43.863	0.218	0.112
-629.507	146.510	0.104	-0.143
-628.492	7.027	-0.186	0.141
-627.478	-125.867	-0.140	0.022
-626.463	-4.958	-0.379	-0.266
-625.449	-200.000	0.027	-0.298
-624.434	-62.609	0.217	-0.092
-623.419	27.646	0.073	-0.063
-622.405	43.748	-0.162	-0.152
-621.390	558.399	-0.080	0.198
-620.376	20.721	0.181	-0.150
-619.361	304.138	-0.147	-0.279
-618.346	4.909	0.125	-0.094
-617.332	85.204	0.168	-0.188
-616.317	-200.000	0.079	0.526
-615.303	-70.474	0.369	-0.143
-614.288	184.283	0.166	-0.251
-613.273	-5.095	-0.108	0.076
-612.259	392.750	0.098	0.208
-611.244	175.116	0.126	0.186
-610.230	-32.862	0.114	0.064
-609.215	800.000	0.024	0.070
-608.201	-90.875	0.128	0.038
-607.186	800.000	-0.099	0.283
-606.171	224.948	-0.097	0.161
-605.157	486.816	-0.115	0.267
-604.142	-107.727	-0.488	-0.109
-603.128	188.098	0.195	-0.298
-602.113	-9.518	0.138	0.094
-601.098	1.885	-0.031	0.023
-600.084	-68.248	0.039	-0.015
-599.069	17.954	0.147	0.120
-598.055	-132.662	-0.094	0.012
-597.040	-83.688	-0.221	-0.072
-596.025	73.916	0.169	-0.180
-595.011	-116.713	-0.208	0.039
-593.996	800.000	-0.121	-0.527
-592.982	794.372	0.070	-0.195
-591.967	-53.235	-0.218	0.102
-590.952	-108.415	-0.231	-0.051
-589.938	-200.000	0.025	0.223
-588.923	17.015	-0.163	-0.131
-587.909	-200.000	-0.047	-0.227
-586.894	800.000	0.038	-0.111
-585.879	235.098	0.063	-0.107
-584.865	33.425	0.206	0.182
-583.850	-160.700	0.457	0.025
-582.836	78.737	-0.102	0.111
-581.821	-86.295	-0.471	0.148
-580.806	-200.000	0.026	0.203
-579.792	234.789	-0.043	-0.072
-578.777	-200.000	-0.029	0.236
-577.763	-200.000	-0.007	-0.095
-576.748	800.000	0.130	-0.421
-575.733	-139.238	0.218	-0.024
-574.719	170.759	-0.108	-0.158
-573.704	-166.004	-0.190	0.008
-572.690	117.116	0.091	-0.113
-571.675	-200.000	-0.013	0.167
-570.661	101.875	-0.030	0.036
-569.646	-5.375	0.077	0.054
-568.631	-200.000	-0.023	0.289
-567.617	-83.052	0.288	0.095
-566.602	5.080	0.062	-0.046
-565.588	-69.327	-0.273	0.107
-564.573	331.434	-0.128	-0.251
-563.558	209.687	-0.144	-0.230
-562.544	-130.861	-0.100	-0.014
-561.529	49.889	-0.164	-0.158
-560.515	-61.694	0.060	0.026
-559.500	339.118	0.039	0.077
-558.485	-105.816	-0.138	-0.032
-557.471	-200.000	-0.067	-0.360
-556.456	-187.595	-0.257	0.003
-555.442	800.000	0.088	0.341
-554.427	-149.549	-0.465	-0.037
-553.412	-200.000	-0.015	-0.138
-552.398	142.509	0.168	0.227
-551.383	-200.000	-0.019	0.087
-550.369	-200.000	-0.001	0.204
-549.354	37.186	0.272	-0.245
-548.339	-200.000	-0.029	-0.160
-547.325	28.116	0.057	-0.049
-546.310	475.494	-0.104	0.240
-545.296	36.662	-0.161	0.145
-544.281	800.000	0.049	0.210
-543.266	-27.426	0.259	0.153
-542.252	-200.000	-0.080	0.383
-541.237	5.286	0.068	-0.051
-540.223	-109.116	0.161	0.035
-539.208	-175.867	-0.017	-0.000
-538.193	-131.199	0.435	0.059
-537.179	26.501	0.454	-0.386
-536.164	-6.055	-0.255	0.177
-535.150	-200.000	0.001	0.388
-534.135	-200.000	-0.015	0.315
-533.121	311.302	0.108	-0.206
-532.106	-127.245	-0.153	0.023
-531.091	-49.828	0.144	-0.069
-530.077	550.621	-0.026	-0.063
-529.062	-131.650	-0.053	0.007
-528.048	-75.121	-0.136	-0.049
-527.033	-16.352	-0.198	-0.128
-526.018	398.998	0.199	-0.423
-525.004	-200.000	-0.002	0.056
-523.989	800.000	0.067	0.220
-522.975	-18.697	0.130	-0.083
-521.960	151.004	0.116	0.160
-520.945	-95.705	0.167	-0.045
-519.931	800.000	0.117	0.330
-518.916	20.280	0.071	-0.058
-517.902	-106.852	-0.209	0.047
-516.887	800.000	0.083	-0.242
-515.872	-48.482	0.159	0.078
-514.858	-200.000	-0.163	0.001
-513.843	-178.934	-0.254	0.006
-512.829	105.192	-0.043	-0.052
-511.814	-200.000	0.070	-0.332
-510.799	800.000	0.036	0.112
-509.785	-76.830	0.112	0.040
-508.770	-63.701	-0.289	0.121
-507.756	-67.693	-0.146	-0.058
-506.741	63.212	-0.111	0.113
-505.726	30.188	0.138	0.120
-504.712	56.599	-0.146	0.144
-503.697	195.683	0.127	-0.196
-502.683	191.103	0.093	-0.142
-501.668	82.774	-0.196	0.217
-500.653	-109.979	0.136	0.029
-499.639	42.942	0.296	0.274
-498.624	135.503	-0.176	0.233
-497.610	-200.000	-0.290	-0.001
-496.595	52.768	-0.137	-0.133
-495.581	-200.000	0.017	-0.168
-494.566	-200.000	-0.020	0.483
-493.551	-200.000	0.004	0.165
-492.537	-60.076	-0.142	0.062
-491.522	-45.320	-0.340	0.171
-490.508	800.000	0.005	-0.018
-489.493	-44.926	0.163	0.083
-488.478	800.000	-0.108	-0.359
-487.464	-200.000	-0.011	-0.239
-486.449	-153.588	-0.260	0.018
-485.435	-168.081	-0.122	-0.005
-484.420	119.795	0.262	0.329
-483.405	-94.961	0.063	0.017
-482.391	-113.227	0.316	0.063
-481.376	-35.370	-0.067	-0.037
-480.362	595.251	-0.082	-0.207
-479.347	116.414	0.103	-0.128
-478.332	-47.063	-0.085	0.042
-477.318	375.176	-0.080	0.164
-476.303	-200.000	0.035	0.166
-475.289	-200.000	0.140	0.000
-474.274	338.683	0.200	-0.394
-473.259	-47.833	0.164	-0.081
-472.245	214.391	0.121	-0.194
-471.230	-200.000	0.040	-0.294
-470.216	261.904	-0.110	0.194
-469.201	-89.824	0.099	-0.029
-468.186	577.310	0.090	0.223
-467.172	-200.000	-0.005	-0.151
-466.157	50.520	0.247	0.237
-465.143	-71.518	-0.220	0.083
-464.128	16.006	0.062	0.050
-463.113	25.957	-0.164	0.138
-462.099	-200.000	0.007	-0.164
-461.084	26.352	-0.051	0.044
-460.070	800.000	0.027	0.081
-459.055	-99.883	-0.148	-0.038
-458.040	800.000	-0.044	-0.175
-457.026	372.204	0.087	-0.179
-456.011	103.079	0.064	0.076
-454.997	-39.630	0.070	0.037
-453.982	-200.000	-0.016	-0.147
-452.968	-200.000	-0.037	-0.293
-451.953	800.000	-0.129	-0.367
-450.938	800.000	0.023	-0.094
-449.924	0.897	-0.189	0.138
-448.909	-200.000	-0.001	0.218
-447.895	169.400	0.216	0.313
-446.880	92.847	0.159	-0.182
-445.865	-200.000	-0.009	-0.084
-444.851	316.904	0.043	0.081
-443.836	-94.838	-0.167	0.046
-442.822	556.083	0.043	-0.104
-441.807	12.273	-0.144	0.113
-440.792	-15.046	-0.309	-0.201
-439.778	-200.000	-0.001	-0.180
-438.763	-69.335	-0.037	-0.014
-437.749	196.613	-0.068	-0.104
-436.734	-200.000	0.015	-0.349
-435.719	-30.600	-0.098	0.056
-434.705	119.781	0.198	-0.249
-433.690	-51.942	-0.204	0.096
-432.676	120.483	0.114	-0.143
-431.661	800.000	-0.051	-0.213
-430.646	-154.160	-0.267	0.018
-429.632	-153.969	0.307	0.021
-428.617	-41.389	0.154	0.080
-427.603	-82.908	-0.097	0.032
-426.588	31.677	0.093	0.081
-425.573	-60.647	-0.174	0.075
-424.559	-114.945	-0.079	-0.015
-423.544	-72.242	-0.050	-0.019
-422.530	-92.399	0.185	0.053
-421.515	800.000	0.141	0.522
-420.500	61.287	-0.165	0.166
-419.486	486.998	0.053	-0.122
-418.471	280.682	0.109	-0.198
-417.457	688.422	0.113	0.300
-416.442	-128.069	0.070	-0.010
-415.428	18.925	0.219	0.177
-414.413	603.022	-0.085	-0.215
-413.398	425.179	-0.105	0.228
-412.384	50.723	-0.074	-0.071
-411.369	-139.682	0.037	-0.004
-410.355	-180.706	-0.226	-0.005
-409.340	-200.000	-0.021	0.128
-408.325	-126.465	0.071	0.011
-407.311	-200.000	-0.048	0.263
-406.296	605.869	-0.133	0.335
-405.282	800.000	0.064	-0.259
-404.267	108.534	-0.164	0.199
-403.252	-200.000	0.002	0.248
-402.238	800.000	0.075	0.249
-401.223	-200.000	-0.030	-0.147
-400.209	-200.000	-0.029	0.167
-399.194	548.058	0.076	0.183
-398.179	-61.935	-0.388	-0.164
-397.165	-73.238	0.180	-0.067
-396.150	49.778	-0.240	0.229
-395.136	-141.598	-0.160	-0.016
-394.121	-200.000	0.004	0.159
-393.106	620.658	-0.018	0.046
-392.092	-19.011	0.174	0.109
-391.077	309.084	-0.125	0.235
-390.063	-39.267	-0.182	0.097
-389.048	6.880	0.221	-0.166
-388.033	71.736	0.155	0.163
-387.019	34.065	-0.176	0.155
-386.004	16.171	-0.317	-0.253
-384.990	141.929	-0.096	0.129
-383.975	113.817	0.019	-0.023
-382.960	-112.266	-0.136	-0.028
-381.946	-200.000	-0.001	-0.112
-380.931	-88.284	0.314	-0.095
-379.917	75.626	-0.088	-0.094
-378.902	105.518	-0.113	-0.135
-377.888	-98.671	0.397	-0.102
-376.873	77.940	-0.109	-0.117
-375.858	168.427	-0.081	-0.117
-374.844	800.000	0.062	0.217
-373.829	48.250	-0.177	-0.168
-372.815	-200.000	-0.018	-0.226
-371.800	28.831	-0.173	0.148
-370.785	-200.000	-0.048	-0.491
-369.771	-54.582	0.054	0.025
-368.756	-0.836	-0.112	0.080
-367.742	-177.232	0.216	-0.005
-366.727	800.000	0.044	0.136
-365.712	-200.000	-0.029	-0.205
-364.698	-62.695	0.146	-0.061
-363.683	-99.327	0.238	-0.061
-362.669	-68.875	-0.095	0.037
-361.654	153.170	0.091	0.125
-360.639	-98.374	-0.028	-0.007
-359.625	320.095	-0.219	0.420
-358.610	-200.000	-0.068	-0.336
-357.596	800.000	0.121	-0.341
-356.581	800.000	0.071	-0.306
-355.566	27.966	0.015	0.013
-354.552	61.338	0.103	0.104
-353.537	-101.196	0.165	0.041
-352.523	-39.563	-0.145	0.077
-351.508	-125.738	0.340	-0.052
-350.493	-200.000	-0.026	-0.168
-349.479	74.266	-0.232	-0.247
-348.464	-102.883	-0.311	0.075
-347.450	676.738	-0.070	0.184
-346.435	-200.000	-0.056	0.524
-345.420	-200.000	-0.040	-0.204
-344.406	335.839	0.093	-0.183
-343.391	-200.000	-0.008	-0.119
-342.377	-97.259	-0.093	-0.024
-341.362	-85.736	-0.180	0.056
-340.348	-200.000	0.000	-0.096
-339.333	800.000	-0.110	0.326
-338.318	-59.317	-0.212	-0.092
-337.304	425.316	-0.123	0.267
-336.289	656.075	0.086	0.222
-335.275	800.000	-0.066	-0.266
-334.260	-50.950	0.167	0.079
-333.245	-94.365	0.137	-0.038
-332.231	-200.000	-0.033	-0.227
-331.216	-200.000	0.029	0.130
-330.202	-150.790	-0.232	0.018
-329.187	800.000	0.018	0.062
-328.172	-200.000	0.009	0.084
-327.158	260.174	-0.120	0.210
-326.143	18.940	0.141	0.114
-325.129	374.435	0.168	-0.345
-324.114	5.561	0.090	-0.067
-323.099	-111.894	0.184	0.037
-322.085	128.615	0.027	0.035
-321.070	86.761	-0.068	-0.076
-320.056	-200.000	-0.006	0.032
-319.041	377.705	0.160	-0.330
-318.026	-12.637	0.366	-0.241
-317.012	-94.002	-0.315	0.087
-315.997	800.000	0.059	0.230
-314.983	400.119	0.125	-0.265
-313.968	-83.294	0.169	-0.055
-312.953	100.568	0.100	0.117
-311.939	-200.000	0.008	-0.048
-310.924	187.238	0.048	0.072
-309.910	-131.253	0.134	0.018
-308.895	800.000	-0.047	0.179
-307.880	119.388	0.111	0.139
-306.866	140.844	0.082	-0.109
-305.851	-42.073	-0.113	-0.058
-304.837	-200.000	-0.093	-0.536
-303.822	207.775	-0.068	-0.107
-302.807	697.388	-0.053	0.140
-301.793	692.860	0.125	0.331
-300.778	-54.199	0.057	-0.026
-299.764	-74.447	0.210	-0.076
-298.749	-5.101	-0.197	-0.136
-297.735	-190.051	-0.081	-0.001
-296.720	186.798	0.222	0.334
-295.705	599.986	0.098	-0.246
-294.691	800.000	-0.050	0.141
-293.676	-151.156	0.274	0.021
-292.662	-118.428	0.165	0.030
-291.647	-200.000	-0.011	0.195
-290.632	800.000	0.037	-0.135
-289.618	204.097	-0.048	0.075
-288.603	621.935	0.075	-0.189
-287.589	520.134	0.132	-0.313
-286.574	-42.207	0.320	-0.165
-285.559	32.746	0.208	-0.181
-284.545	245.520	0.231	-0.392
-283.530	-78.086	0.035	-0.012
-282.516	-50.697	0.159	0.075
-281.501	187.201	-0.174	0.261
-280.486	-96.856	-0.157	-0.041
-279.472	778.088	0.123	0.339
-278.457	114.458	-0.111	-0.137
-277.443	-200.000	-0.027	-0.233
-276.428	123.455	-0.073	0.093
-275.413	800.000	0.076	0.253
-274.399	58.536	0.208	-0.205
-273.384	-200.000	0.069	0.372
-272.370	-24.211	0.416	0.250
-271.355	-14.062	0.093	0.060
-270.340	-200.000	0.012	0.080
-269.326	108.105	0.107	-0.128
-268.311	47.113	-0.166	0.156
-267.297	134.029	-0.148	-0.193
-266.282	-200.000	-0.033	0.174
-265.267	2.223	0.119	-0.086
-264.253	-166.929	0.509	-0.021
-263.238	-7.868	0.223	0.152
-262.224	88.799	0.224	0.251
-261.209	-35.037	0.259	0.142
-260.195	-151.162	0.237	-0.018
-259.180	-72.550	0.082	-0.030
-258.165	671.574	0.034	0.088
-257.151	239.981	0.138	0.231
-256.136	-41.253	-0.085	0.044
-255.122	-135.845	-0.177	0.021
-254.107	-200.000	-0.058	0.348
-253.092	800.000	-0.020	-0.078
-252.078	-200.000	0.000	0.306
-251.063	724.073	-0.039	0.103
-250.049	-137.763	0.139	-0.016
-249.034	565.242	-0.080	-0.195
-248.019	-105.823	-0.438	-0.099
-247.005	325.758	0.193	-0.372
-245.990	461.386	-0.045	0.100
-244.976	-200.000	0.052	0.312
-243.961	-103.654	0.198	0.047
-242.946	-9.245	-0.154	-0.103
-241.932	203.453	0.216	0.336
-240.917	112.976	-0.194	0.237
-239.903	-62.163	0.443	0.186
-238.888	-200.000	0.084	-0.576
-237.873	241.980	0.101	0.169
-236.859	-200.000	0.025	0.566
-235.844	190.973	0.050	0.076
-234.830	-85.453	-0.161	0.050
-233.815	-35.556	-0.271	-0.148
-232.800	-32.165	-0.096	-0.054
-231.786	-59.114	-0.376	-0.163
-230.771	285.364	-0.217	-0.394
-229.757	45.299	0.108	-0.100
-228.742	-200.000	-0.081	0.361
-227.727	-200.000	0.012	-0.100
-226.713	-200.000	-0.045	0.223
-225.698	-200.000	-0.021	0.119
-224.684	170.726	-0.088	0.127
-223.669	51.192	0.052	-0.049
-222.655	-128.726	-0.434	-0.062
-221.640	-111.216	0.113	-0.023
-220.625	-200.000	-0.029	-0.243
-219.611	-132.048	-0.205	-0.027
-218.596	-200.000	-0.095	-0.427
-217.582	664.482	0.068	0.177
-216.567	158.152	0.136	0.190
-215.552	74.997	0.091	-0.096
-214.538	-200.000	0.001	0.084
-213.523	216.043	-0.337	-0.539
-212.509	-200.000	-0.028	0.195
-211.494	-200.000	0.029	-0.244
-210.479	-200.000	-0.043	0.221
-209.465	800.000	-0.067	0.290
-208.450	-176.124	0.324	0.009
-207.436	-200.000	0.013	-0.296
-206.421	800.000	-0.037	-0.133
-205.406	-200.000	0.010	0.042
-204.392	-200.000	-0.056	0.293
-203.377	-200.000	0.049	-0.308
-202.363	-138.660	-0.198	0.022
-201.348	165.724	-0.254	-0.360
-200.333	-200.000	-0.024	-0.228
-199.319	-200.000	0.002	0.209
-198.304	758.185	-0.035	0.096
-197.290	22.487	-0.338	-0.277
-196.275	-128.044	-0.193	0.028
-195.260	152.361	0.013	0.018
-194.246	393.054	0.142	0.297
-193.231	49.674	0.025	-0.024
-192.217	205.293	0.139	0.217
-191.202	55.009	-0.257	0.249
-190.187	28.717	-0.148	-0.126
-189.173	800.000	-0.059	-0.256
-188.158	83.789	0.130	-0.142
-187.144	258.597	0.244	0.422
-186.129	-92.670	-0.247	-0.070
-185.114	-147.601	0.306	0.026
-184.100	10.871	-0.336	-0.258
-183.085	800.000	0.046	-0.200
-182.071	214.913	0.165	-0.263
-181.056	-50.559	0.030	0.014
-180.042	42.909	-0.264	-0.241
-179.027	-200.000	-0.026	-0.124
-178.012	-200.000	0.009	-0.122
-176.998	800.000	0.110	-0.325
-175.983	551.661	-0.205	0.494
-174.969	614.796	-0.053	0.132
-173.954	310.316	0.124	-0.232
-172.939	78.318	0.167	-0.178
-171.925	-77.498	0.171	-0.059
-170.910	-5.697	0.317	0.218
-169.896	287.573	0.193	-0.351
-168.881	-200.000	-0.050	0.268
-167.866	-200.000	-0.030	0.142
-166.852	3.811	-0.272	-0.200
-165.837	96.635	0.093	-0.107
-164.823	777.890	0.133	-0.364
-163.808	-122.388	-0.315	-0.051
-162.793	800.000	0.040	0.150
-161.779	32.392	0.228	0.197
-160.764	800.000	0.067	0.222
-159.750	345.612	0.040	0.079
-158.735	800.000	-0.141	-0.570
-157.720	-107.851	-0.294	-0.064
-156.706	-200.000	0.089	0.447
-155.691	500.423	0.061	0.140
-154.677	800.000	-0.111	0.367
-153.662	-200.000	0.002	-0.080
-152.647	-55.465	-0.272	0.122
-151.633	-200.000	0.019	-0.191
-150.618	-93.742	0.273	-0.075
-149.604	800.000	0.014	-0.049
-148.589	-85.398	-0.189	0.059
-147.574	-200.000	-0.005	-0.222
-146.560	64.822	0.155	-0.157
-145.545	800.000	-0.054	0.205
-144.531	328.642	0.209	-0.402
-143.516	21.957	0.229	0.187
-142.502	-178.745	0.425	-0.010
-141.487	-51.742	0.347	-0.162
-140.472	-162.324	0.278	-0.014
-139.458	800.000	0.018	0.076
-138.443	16.876	-0.304	0.241
-137.429	277.423	0.095	-0.170
-136.414	-91.659	-0.182	0.052
-135.399	-38.577	-0.372	-0.197
-134.385	-99.509	0.150	-0.038
-133.370	800.000	-0.032	-0.130
-132.356	42.792	0.114	0.104
-131.341	517.477	0.142	-0.333
-130.326	383.566	-0.165	0.340
-129.312	237.308	0.111	0.184
-128.297	800.000	-0.089	-0.269
-127.283	-200.000	-0.017	0.105
-126.268	-200.000	-0.009	0.084
-125.253	-25.774	0.172	0.101
-124.239	800.000	-0.041	0.139
-123.224	459.642	-0.150	0.334
-122.210	-109.317	-0.172	-0.037
-121.195	49.826	-0.216	0.204
-120.180	-200.000	-0.072	0.348
-119.166	76.492	0.240	0.255
-118.151	1.089	-0.108	0.078
-117.137	464.486	-0.106	0.238
-116.122	800.000	0.067	0.270
-115.107	233.898	-0.062	0.102
-114.093	-182.103	0.058	0.001
-113.078	8.332	0.191	0.144
-112.064	800.000	0.013	0.037
-111.049	-70.351	-0.034	-0.013
-110.034	11.267	-0.156	0.119
-109.020	689.224	-0.108	-0.282
-108.005	24.986	0.125	0.104
-106.991	-138.798	-0.346	0.038
-105.976	-200.000	0.009	0.252
-104.962	-200.000	-0.040	0.251
-103.947	55.024	0.230	0.223
-102.932	-82.554	-0.141	-0.046
-101.918	-200.000	-0.051	-0.232
-100.903	258.778	-0.202	0.349
-99.889	-2.155	0.011	0.007
-98.874	-4.123	-0.022	-0.015
-97.859	-41.398	-0.127	0.065
-96.845	-200.000	0.078	0.360
-95.830	-161.754	-0.156	-0.008
-94.816	60.806	-0.073	0.072
-93.801	202.489	0.164	0.253
-92.786	-54.338	-0.173	0.079
-91.772	-200.000	-0.012	0.133
-90.757	-37.177	-0.381	0.204
-89.743	-72.894	0.262	0.096
-88.728	-200.000	-0.066	0.293
-87.713	-8.103	0.224	0.151
-86.699	-200.000	0.011	-0.115
-85.684	79.552	0.264	0.284
-84.670	349.407	0.101	-0.200
-83.655	-200.000	-0.002	0.121
-82.640	-35.295	-0.374	0.203
-81.626	-100.124	-0.084	0.021
-80.611	-200.000	-0.053	-0.283
-79.597	-86.954	0.183	0.056
-78.582	170.601	-0.057	-0.081
-77.567	143.596	0.065	0.087
-76.553	-120.159	0.270	0.046
-75.538	-24.818	-0.161	-0.095
-74.524	100.817	-0.177	-0.206
-73.509	-70.797	0.257	0.097
-72.494	-60.716	0.215	0.091
-71.480	800.000	0.059	-0.179
-70.465	-48.632	-0.126	-0.060
-69.451	-96.846	-0.338	0.089
-68.436	-200.000	0.017	-0.290
-67.422	-82.778	0.290	-0.094
-66.407	272.859	-0.154	0.271
-65.392	307.024	-0.058	0.107
-64.378	-200.000	-0.066	-0.296
-63.363	-200.000	0.414	0.001
-62.349	394.830	-0.143	0.297
-61.334	-10.592	-0.816	-0.539
-60.319	-89.117	0.377	0.111
-59.305	-200.000	0.121	-0.805
-58.290	417.629	0.285	0.607
-57.276	800.000	0.578	1.647
-56.261	-200.000	72.139	528.089
-55.246	592.095	1282.733	3162.500
-54.232	147.822	2499.673	3364.388
-53.217	121.947	2239.605	2790.302
-52.203	54.925	1761.047	1697.479
-51.188	47.101	1555.407	1444.809
-50.173	44.095	1525.314	1396.156
-49.159	59.309	1559.713	1533.514
-48.144	66.788	1578.979	1604.217
-47.130	47.327	1543.311	1434.915
-46.115	43.610	1528.505	1395.506
-45.100	43.380	1525.539	1391.157
-44.086	43.428	1523.330	1389.422
-43.071	43.279	1521.660	1386.814
-42.057	43.198	1519.696	1384.417
-41.042	43.315	1518.167	1383.769
-40.027	43.355	1516.589	1382.553
-39.013	43.232	1515.608	1380.759
-37.998	43.180	1514.334	1379.189
-36.984	43.259	1513.130	1378.576
-35.969	43.275	1511.639	1377.277
-34.954	43.344	1510.542	1376.690
-33.940	43.429	1508.599	1375.441
-32.925	43.329	1507.180	1373.416
-31.911	43.204	1506.095	1371.519
-30.896	43.365	1504.362	1370.982
-29.881	43.463	1502.681	1370.062
-28.867	43.412	1501.958	1369.002
-27.852	43.403	1500.497	1367.556
-26.838	43.286	1499.280	1365.599
-25.823	43.329	1497.122	1363.870
-24.809	43.354	1495.534	1362.536
-23.794	43.315	1494.612	1361.380
-22.779	43.364	1493.157	1360.335
-21.765	43.382	1492.038	1359.379
-20.750	43.361	1490.746	1358.008
-19.736	43.464	1488.861	1356.928
-18.721	43.420	1487.740	1355.557
-17.706	43.361	1486.839	1354.288
-16.692	43.233	1486.187	1352.783
-15.677	43.259	1484.665	1351.515
-14.663	43.273	1483.939	1350.898
-13.648	43.237	1483.335	1350.048
-12.633	43.296	1481.925	1349.109
-11.619	43.348	1480.862	1348.432
-10.604	43.242	1480.235	1347.103
-9.590	43.334	1479.002	1346.538
-8.575	43.228	1478.224	1345.069
-7.560	43.324	1477.120	1344.654
-6.546	43.299	1476.558	1343.920
-5.531	43.272	1475.755	1342.957
-4.517	43.367	1474.279	1342.191
-3.502	43.187	1474.060	1340.742
-2.487	43.231	1472.472	1339.538
-1.473	43.184	1471.483	1338.274
-0.458	43.182	1470.397	1337.219
0.556	42.577	1461.761	1328.814
1.571	40.416	1434.669	1290.016
2.586	36.842	1373.181	1212.297
3.600	34.788	1290.554	1127.152
4.615	32.602	1242.168	1072.370
5.629	27.054	1182.152	990.318
6.644	13.534	1087.639	842.737
7.659	2.997	1038.439	753.123
8.673	1.286	1032.165	740.170
9.688	1.031	1029.202	736.740
10.702	0.990	1027.516	735.266
11.717	0.943	1025.988	733.883
12.731	5.014	1031.115	757.282
13.746	16.318	1047.701	824.910
14.761	23.364	1056.223	866.115
15.775	23.806	1055.123	867.297
16.790	23.651	1054.540	865.983
17.804	23.450	1053.804	864.322
18.819	23.122	1053.556	862.442
19.834	23.415	1052.642	863.047
20.848	23.405	1051.742	862.182
21.863	23.407	1051.614	862.013
22.877	23.477	1050.712	861.538
23.892	23.507	1050.315	861.279
24.907	23.464	1049.480	860.310
25.921	23.403	1048.785	859.368
26.936	23.370	1047.924	858.430
27.950	23.355	1046.967	857.497
28.965	23.434	1045.605	856.684
29.980	23.313	1044.079	854.774
30.994	23.274	1042.809	853.474
32.009	23.437	1042.412	853.858
33.023	23.488	1042.072	853.749
34.038	23.336	1040.540	851.686
35.053	23.262	1039.456	850.370
36.067	23.494	1038.833	850.900
37.082	23.449	1038.277	850.153
38.096	23.537	1037.357	849.746
39.111	23.623	1036.981	849.771
40.126	23.698	1035.994	849.247
41.140	23.637	1034.905	847.990
42.155	23.418	1033.596	845.795
43.169	23.120	1032.087	843.068
44.184	23.041	1031.467	842.108
45.199	23.083	1030.378	841.343
46.213	23.066	1029.184	840.215
47.228	22.980	1028.491	839.164
48.242	23.271	1027.346	839.539
49.257	23.307	1026.965	839.324
50.271	23.358	1025.878	838.600
51.286	23.473	1025.598	838.840
52.301	23.545	1024.916	838.549
53.315	23.419	1024.368	837.434
54.330	23.584	1023.303	837.265
55.344	23.425	1022.577	835.850
56.359	23.391	1021.592	834.810
57.374	23.407	1020.812	834.175
58.388	23.121	1020.085	832.160
59.403	23.263	1018.831	831.731
60.417	23.124	1018.667	830.872
61.432	23.024	1017.678	829.523
62.447	23.012	1017.141	828.956
63.461	23.080	1016.925	829.025
64.476	23.222	1015.998	828.858
65.490	23.085	1015.133	827.441
66.505	23.107	1013.680	826.283
67.520	23.134	1013.223	825.964
68.534	23.187	1012.642	825.664
69.549	23.190	1011.565	824.729
70.563	22.827	1010.081	821.756
71.578	22.682	1009.331	820.401
72.593	22.765	1008.351	819.914
73.607	22.585	1007.567	818.371
74.622	22.589	1006.766	817.667
75.636	22.898	1006.296	818.646
76.651	23.028	1005.362	818.412
77.666	22.932	1004.378	817.097
78.680	22.940	1003.462	816.314
79.695	22.746	1003.237	815.167
80.709	22.989	1002.349	815.491
81.724	23.105	1001.803	815.510
82.739	23.011	1001.024	814.372
83.753	23.055	1000.147	813.787
84.768	23.306	999.412	814.274
85.782	23.538	998.930	814.874
86.797	23.724	998.092	814.971
87.812	23.805	997.174	814.519
88.826	23.523	996.264	812.415
89.841	23.496	995.657	811.726
90.855	23.655	994.824	811.700
91.870	23.570	994.285	810.802
92.884	23.522	993.679	810.012
93.899	23.652	992.335	809.441
94.914	23.477	991.224	807.663
95.928	23.544	990.687	807.461
96.943	23.631	990.026	807.246
97.957	23.348	988.570	804.702
98.972	23.160	987.227	802.686
99.987	22.906	986.342	800.745
101.001	22.975	985.660	800.430
102.016	23.250	985.157	801.196
103.030	23.376	984.571	801.218
104.045	23.442	983.170	800.308
105.060	23.193	982.153	798.285
106.074	23.084	980.714	796.552
107.089	22.999	980.049	795.562
108.103	23.360	979.918	797.009
109.118	23.565	978.586	796.774
110.133	23.178	977.737	794.277
111.147	23.104	976.909	793.200
112.162	23.068	975.381	791.731
113.176	22.853	974.633	790.090
114.191	22.824	974.357	789.669
115.206	23.113	973.349	790.070
116.220	22.819	972.071	787.652
117.235	22.649	971.024	785.978
118.249	22.736	970.837	786.145
119.264	22.933	969.783	786.097
120.279	22.727	969.149	784.597
121.293	22.744	967.708	783.440
122.308	22.916	967.327	783.824
123.322	22.936	966.577	783.234
124.337	22.925	965.416	782.178
125.352	22.802	964.424	780.759
126.366	22.467	962.588	777.725
127.381	22.062	961.464	774.960
128.395	22.516	960.794	776.352
129.410	23.225	960.308	779.012
130.424	23.357	959.890	779.185
131.439	23.398	959.222	778.753
132.454	23.367	958.092	777.631
133.468	23.308	957.075	776.479
134.483	23.238	956.607	775.725
135.497	23.386	955.691	775.561
136.512	23.591	955.293	776.067
137.527	23.536	954.754	775.317
138.541	23.502	954.236	774.681
139.556	23.731	953.016	774.623
140.570	23.702	951.977	773.584
141.585	23.657	951.389	772.840
142.600	23.736	950.645	772.509
143.614	23.598	949.855	771.200
144.629	23.622	949.603	771.030
145.643	23.857	948.738	771.283
146.658	23.845	947.327	770.015
147.673	23.576	946.390	768.022
148.687	23.456	945.769	766.928
149.702	23.408	944.479	765.610
150.716	23.433	943.109	764.538
151.731	23.272	941.857	762.760
152.746	23.411	941.351	762.884
153.760	23.526	940.961	762.996
154.775	23.707	940.268	763.141
155.789	23.819	939.406	762.855
156.804	23.792	938.722	762.117
157.819	23.766	937.256	760.750
158.833	23.661	936.826	759.882
159.848	23.832	935.715	759.646
160.862	23.871	935.292	759.401
161.877	23.837	934.146	758.260
162.892	23.565	933.464	756.478
163.906	23.760	932.502	756.464
164.921	23.764	931.624	755.702
165.935	23.523	930.718	753.875
166.950	23.599	929.606	753.228
167.964	23.762	928.633	753.066
168.979	23.678	927.537	751.754
169.994	23.562	926.673	750.496
171.008	23.484	925.615	749.242
172.023	23.677	924.860	749.381
173.037	23.600	924.821	748.960
174.052	23.505	923.223	747.196
175.067	23.500	921.865	746.012
176.081	23.219	921.312	744.318
177.096	23.657	920.451	745.396
178.110	23.465	919.868	744.052
179.125	23.293	918.650	742.281
180.140	23.074	917.456	740.332
181.154	22.973	917.080	739.539
182.169	23.112	916.837	739.862
183.183	23.362	916.471	740.544
184.198	23.614	915.846	741.028
185.213	23.595	915.003	740.198
186.227	23.537	914.349	739.363
187.242	23.657	913.661	739.242
188.256	23.686	913.226	738.945
189.271	23.764	912.462	738.586
190.286	23.743	911.602	737.738
191.300	23.516	911.109	736.328
192.315	23.045	909.652	733.137
193.329	22.356	907.986	728.876
194.344	21.939	907.119	726.389
195.359	22.467	907.187	728.563
196.373	23.422	907.071	732.356
197.388	23.584	907.123	732.998
198.402	23.427	906.822	732.046
199.417	23.507	905.895	731.559
200.432	23.566	905.250	731.219
201.446	23.550	904.910	730.814
202.461	23.134	904.052	728.343
203.475	23.146	903.386	727.791
204.490	22.848	902.166	725.520
205.504	21.676	900.089	718.980
206.519	22.017	900.084	720.310
207.534	23.040	900.143	724.487
208.548	23.179	899.695	724.632
209.563	23.508	899.124	725.453
210.577	23.566	898.630	725.228
211.592	23.175	898.164	723.189
212.607	23.502	898.123	724.428
213.621	23.814	897.206	724.899
214.636	23.632	896.879	723.828
215.650	23.787	896.394	724.004
216.665	23.693	895.436	722.785
217.680	23.610	894.896	721.948
218.694	23.819	894.663	722.545
219.709	23.551	893.520	720.468
220.723	23.132	892.730	718.069
221.738	23.263	892.069	718.004
222.753	23.600	891.671	718.985
223.767	23.455	891.017	717.809
224.782	23.582	890.477	717.822
225.796	23.818	889.781	718.151
226.811	23.907	889.005	717.823
227.826	23.347	888.273	714.910
228.840	22.745	886.285	710.819
229.855	22.612	885.520	709.610
230.869	22.942	885.195	710.612
231.884	22.441	884.627	708.080
232.899	22.482	884.193	707.836
233.913	23.374	884.405	711.525
234.928	23.405	883.936	711.208
235.942	23.372	883.158	710.389
236.957	23.564	882.256	710.370
237.972	23.309	881.388	708.586
238.986	23.042	880.812	706.994
240.001	23.273	879.871	707.098
241.015	23.151	879.818	706.504
242.030	23.176	879.051	705.926
243.045	23.467	878.399	706.499
244.059	23.421	878.508	706.341
245.074	23.641	877.916	706.682
246.088	23.604	876.958	705.699
247.103	23.292	876.169	703.763
248.117	23.204	875.378	702.714
249.132	23.671	875.596	704.684
250.147	24.233	875.349	706.651
251.161	24.173	874.827	705.927
252.176	24.388	874.340	706.324
253.190	24.390	873.784	705.819
254.205	24.469	873.409	705.766
255.220	24.614	872.840	705.819
256.234	24.599	872.227	705.200
257.249	24.480	871.745	704.281
258.263	24.183	871.110	702.531
259.278	24.365	870.257	702.500
260.293	24.361	869.748	702.009
261.307	24.431	869.512	702.035
262.322	24.459	868.381	701.170
263.336	24.350	867.519	699.981
264.351	23.873	866.467	697.201
265.366	22.923	864.531	691.862
266.380	22.371	863.458	688.784
267.395	23.098	863.894	691.918
268.409	23.982	863.943	695.350
269.424	24.003	863.209	694.782
270.439	24.119	862.878	694.904
271.453	24.197	862.349	694.724
272.468	24.181	861.991	694.311
273.482	24.407	861.344	694.608
274.497	24.523	860.896	694.636
275.512	24.289	859.973	692.921
276.526	23.669	858.552	689.307
277.541	23.841	858.485	689.860
278.555	24.184	858.309	690.988
279.570	24.250	857.346	690.410
280.585	23.786	857.233	688.458
281.599	23.996	856.240	688.413
282.614	24.131	855.614	688.371
283.628	23.765	854.373	685.898
284.643	23.314	853.848	683.677
285.657	23.703	853.919	685.171
286.672	23.686	852.880	684.214
287.687	23.131	851.946	681.268
288.701	23.398	851.998	682.277
289.716	23.879	851.562	683.716
290.730	23.622	850.769	682.032
291.745	23.516	850.010	680.956
292.760	23.368	849.115	679.611
293.774	23.162	848.437	678.221
294.789	23.973	849.160	681.848
295.803	24.682	849.203	684.537
296.818	24.765	848.603	684.310
297.833	24.939	847.977	684.410
298.847	24.555	847.189	682.247
299.862	24.267	846.022	680.147
300.876	24.386	845.521	680.139
301.891	24.737	845.127	681.099
302.906	24.841	844.652	681.052
303.920	24.357	843.774	678.443
304.935	24.203	842.959	677.142
305.949	24.669	842.792	678.718
306.964	24.795	842.305	678.744
307.979	24.647	841.336	677.342
308.993	24.547	840.951	676.594
310.008	24.835	840.670	677.397
311.022	25.055	840.068	677.687
312.037	24.836	839.893	676.656
313.052	24.542	839.535	675.197
314.066	24.470	838.399	673.949
315.081	23.807	837.017	670.282
316.095	23.042	835.629	666.227
317.110	23.478	836.162	668.236
318.125	24.469	836.312	672.030
319.139	23.920	835.408	669.180
320.154	22.819	833.664	663.590
321.168	22.606	832.204	661.568
322.183	23.060	832.680	663.593
323.197	23.906	833.341	667.237
324.212	24.379	832.884	668.584
325.227	24.445	832.526	668.485
326.241	24.528	832.150	668.434
327.256	24.379	831.474	667.276
328.270	24.472	830.944	667.137
329.285	24.294	830.292	665.891
330.300	24.239	829.173	664.731
331.314	23.911	828.809	663.155
332.329	23.935	828.194	662.695
333.343	24.327	827.744	663.736
334.358	24.720	827.487	664.933
335.373	24.599	827.014	664.044
336.387	24.696	826.579	663.997
337.402	24.745	826.284	663.881
338.416	25.138	825.922	664.992
339.431	25.086	825.140	664.109
340.446	24.958	824.596	663.141
341.460	25.242	824.193	663.805
342.475	25.283	823.300	663.181
343.489	25.128	822.679	662.049
344.504	24.887	822.337	660.826
345.519	25.152	822.330	661.742
346.533	25.578	821.446	662.538
347.548	25.494	821.600	662.294
348.562	25.413	821.081	661.522
349.577	25.455	820.285	660.976
350.592	25.513	819.478	660.481
351.606	25.323	819.382	659.646
352.621	25.337	818.516	658.942
353.635	25.353	817.923	658.463
354.650	25.226	817.567	657.653
355.665	24.991	816.474	655.856
356.679	23.846	815.064	650.478
357.694	23.709	814.403	649.393
358.708	24.307	814.461	651.567
359.723	24.438	813.690	651.370
360.738	24.448	813.680	651.342
361.752	24.983	813.745	653.287
362.767	25.147	813.375	653.530
363.781	25.292	813.181	653.847
364.796	25.654	812.771	654.777
365.810	25.702	812.819	654.931
366.825	25.907	812.233	655.146
367.840	25.885	811.873	654.718
368.854	25.559	811.237	652.964
369.869	25.354	810.223	651.346
370.883	25.204	809.376	650.064
371.898	25.326	808.784	649.972
372.913	25.061	808.416	648.662
373.927	25.071	807.559	647.951
374.942	25.342	806.923	648.363
375.956	25.413	806.896	648.542
376.971	25.377	806.178	647.777
377.986	25.458	805.890	647.780
379.000	25.589	805.603	647.964
380.015	25.817	804.946	648.198
381.029	25.649	804.023	646.792
382.044	25.552	803.541	646.000
383.059	25.643	803.435	646.185
384.073	25.774	802.556	645.891
385.088	25.816	801.920	645.470
386.102	25.777	801.500	644.938
387.117	25.797	800.508	644.154
388.132	25.379	800.030	642.216
389.146	25.355	799.671	641.785
390.161	24.754	798.719	638.820
391.175	24.776	798.445	638.624
392.190	25.314	798.716	640.702
393.205	25.463	798.209	640.773
394.219	24.437	796.835	635.959
395.234	22.916	794.350	628.512
396.248	22.064	792.892	624.274
397.263	23.064	794.002	628.651
398.278	24.844	795.288	635.945
399.292	25.265	795.309	637.399
400.307	25.233	794.406	636.507
401.321	24.970	793.979	635.178
402.336	24.994	793.837	635.090
403.350	25.227	793.634	635.697
404.365	25.852	793.509	637.754
405.380	26.109	792.963	638.169
406.394	26.479	793.138	639.560
407.409	26.472	792.950	639.328
408.423	26.408	792.354	638.566
409.438	26.329	791.483	637.529
410.453	26.427	791.079	637.491
411.467	26.620	790.616	637.743
412.482	26.397	790.104	636.487
413.496	26.495	789.354	636.173
414.511	26.487	789.220	635.979
415.526	26.527	788.638	635.596
416.540	26.520	788.322	635.261
417.555	26.473	787.804	634.621
418.569	26.224	787.094	633.119
419.584	25.991	786.924	632.110
420.599	26.106	786.489	632.106
421.613	85.768	1243.327	1316.291
422.628	72.763	1309.895	1316.410
