DTS Sentinel unit serial number:	SN413079Multiplexer serial number:	ORYXHardware model number:	OX4-SRSoftware version number:	ORYX F/W v4.00 Oryx Data Collector v3.7.2.0data status	okinstallation	princeton_trtdifferential loss correction	single-endedforward channel	channel 3reverse channel	N/Adate	2019/09/11time	10:22:11forward acquisition time	60.00reverse acquisition time	0.00gamma	496.2192k internal	0.2298k external	0.2298temperature offset calibration	0.9939default loss term (dB/km)	0.3790temperature slope calibration	1.0000multiplexer offset coefficient	1.0000multiplexer slope coefficient	1.0000fibre end	0.00T internal ref (°C)	36.16T ext. ref 1 (°C)	0.16T ext. ref 2 (°C)	32.74length (m)	temperature (°C)	Stokes	anti-Stokes-747.200	-200.000	0.004	-0.103
-746.185	132.345	-0.059	0.078
-745.171	12.806	0.123	-0.097
-744.156	14.951	-0.253	0.202
-743.142	-135.347	0.128	-0.016
-742.127	-175.608	-0.020	0.001
-741.112	-107.512	-0.063	-0.014
-740.098	-37.907	-0.219	-0.119
-739.083	493.940	0.050	-0.117
-738.069	-138.704	-0.277	0.031
-737.054	-97.963	-0.448	0.118
-736.039	-136.366	-0.199	-0.024
-735.025	800.000	-0.078	0.246
-734.010	-131.943	-0.121	-0.016
-732.996	-200.000	-0.030	0.235
-731.981	-200.000	0.008	0.258
-730.966	-85.001	-0.110	0.035
-729.952	25.177	0.191	0.162
-728.937	-185.511	-0.196	-0.003
-727.923	146.194	-0.180	0.247
-726.908	-113.661	-0.135	0.027
-725.894	38.234	0.113	0.103
-724.879	678.127	0.110	-0.291
-723.864	2.487	0.008	-0.006
-722.850	-119.277	-0.283	-0.050
-721.835	50.280	-0.233	0.225
-720.821	-66.177	0.072	-0.029
-719.806	-42.774	-0.396	-0.205
-718.791	800.000	0.068	-0.247
-717.777	800.000	0.089	-0.296
-716.762	-200.000	0.006	0.205
-715.748	-11.164	0.341	-0.229
-714.733	-200.000	-0.011	-0.158
-713.718	167.503	-0.030	0.044
-712.704	800.000	-0.050	0.178
-711.689	-7.318	-0.329	-0.227
-710.675	128.390	0.047	-0.061
-709.660	-84.705	0.326	-0.105
-708.645	-65.597	0.045	-0.018
-707.631	-54.802	-0.050	-0.023
-706.616	230.215	0.068	-0.114
-705.602	122.028	-0.124	0.158
-704.587	238.844	-0.161	-0.273
-703.572	-200.000	-0.010	-0.215
-702.558	-130.386	-0.088	-0.012
-701.543	56.176	0.115	0.114
-700.529	-200.000	-0.006	-0.287
-699.514	-200.000	-0.000	-0.121
-698.499	179.309	-0.068	0.102
-697.485	22.638	-0.204	-0.170
-696.470	-54.400	-0.378	-0.175
-695.456	-200.000	-0.035	-0.215
-694.441	-5.543	-0.279	-0.195
-693.426	149.246	-0.021	0.029
-692.412	-200.000	0.002	0.074
-691.397	99.075	0.095	0.111
-690.383	491.127	-0.090	-0.210
-689.368	605.469	0.101	0.255
-688.354	222.860	0.080	0.132
-687.339	-25.197	0.128	-0.077
-686.324	-200.000	-0.506	0.001
-685.310	6.313	0.048	0.036
-684.295	-79.158	-0.113	-0.039
-683.281	182.581	0.235	-0.352
-682.266	-27.266	-0.093	0.055
-681.251	288.182	0.127	0.233
-680.237	-97.340	-0.128	-0.034
-679.222	529.680	0.065	0.156
-678.208	77.546	0.057	-0.061
-677.193	-70.496	-0.281	0.108
-676.178	3.133	-0.197	-0.146
-675.164	-141.032	-0.462	0.048
-674.149	785.509	0.082	0.229
-673.135	401.614	-0.095	-0.202
-672.120	643.116	-0.105	0.271
-671.105	-177.250	0.119	-0.003
-670.091	56.582	-0.120	0.119
-669.076	-49.086	-0.350	-0.170
-668.062	-54.504	-0.185	-0.085
-667.047	358.694	0.146	-0.296
-666.032	121.338	0.065	0.083
-665.018	-71.562	0.203	0.077
-664.003	-200.000	-0.331	-0.001
-662.989	-40.929	-0.145	0.076
-661.974	-65.603	-0.066	-0.027
-660.959	512.150	-0.167	0.396
-659.945	536.357	-0.043	0.103
-658.930	800.000	-0.052	-0.161
-657.916	568.140	0.026	-0.063
-656.901	-103.840	-0.067	-0.016
-655.886	800.000	-0.074	-0.319
-654.872	12.470	-0.102	0.080
-653.857	-200.000	0.007	-0.034
-652.843	-200.000	0.043	-0.292
-651.828	179.863	0.142	-0.212
-650.814	-124.196	0.309	-0.049
-649.799	800.000	-0.024	0.104
-648.784	-200.000	0.047	-0.265
-647.770	643.758	-0.101	-0.262
-646.755	94.179	-0.120	-0.139
-645.741	-150.081	0.196	0.015
-644.726	-200.000	-0.002	-0.240
-643.711	455.034	0.048	-0.108
-642.697	179.138	0.092	-0.137
-641.682	-200.000	0.002	-0.155
-640.668	153.810	0.154	-0.214
-639.653	-13.602	0.354	-0.233
-638.638	800.000	0.062	-0.268
-637.624	34.548	-0.117	-0.104
-636.609	115.763	-0.323	-0.402
-635.595	-200.000	-0.001	-0.165
-634.580	-31.967	0.122	-0.069
-633.565	-65.713	0.242	-0.099
-632.551	37.787	0.193	-0.174
-631.536	126.260	-0.170	-0.219
-630.522	-200.000	0.038	-0.210
-629.507	-57.887	-0.120	-0.053
-628.492	-125.342	0.289	-0.045
-627.478	18.009	-0.234	0.189
-626.463	-27.703	-0.271	-0.160
-625.449	-132.250	0.190	0.025
-624.434	-200.000	-0.002	0.174
-623.419	-137.304	0.547	0.063
-622.405	179.995	-0.088	0.130
-621.390	-200.000	-0.035	0.233
-620.376	537.936	-0.143	0.346
-619.361	-81.417	-0.176	-0.059
-618.346	292.037	0.095	-0.176
-617.332	-144.152	-0.160	-0.015
-616.317	-148.998	0.462	0.038
-615.303	-103.414	-0.166	0.040
-614.288	-200.000	0.052	0.233
-613.273	-57.467	-0.126	-0.056
-612.259	-176.728	-0.228	0.006
-611.244	37.026	0.107	0.096
-610.230	107.554	-0.178	-0.215
-609.215	80.375	0.138	0.151
-608.201	-74.120	0.348	0.128
-607.186	5.687	-0.153	-0.115
-606.171	4.910	-0.131	-0.098
-605.157	-121.002	-0.361	0.062
-604.142	82.060	-0.065	0.071
-603.128	-48.488	0.180	0.088
-602.113	-24.019	-0.206	-0.125
-601.098	47.715	-0.059	0.056
-600.084	-2.780	0.158	0.112
-599.069	390.284	-0.066	0.139
-598.055	-200.000	-0.059	-0.321
-597.040	-200.000	0.022	0.379
-596.025	-200.000	-0.005	0.182
-595.011	-24.873	-0.266	0.160
-593.996	-80.658	-0.036	0.012
-592.982	25.787	0.216	0.183
-591.967	284.652	-0.080	0.146
-590.952	800.000	-0.013	0.054
-589.938	63.253	0.034	0.035
-588.923	-200.000	-0.007	-0.196
-587.909	142.304	-0.078	0.105
-586.894	-9.751	-0.180	0.121
-585.879	24.579	0.057	-0.048
-584.865	800.000	0.091	0.400
-583.850	0.344	-0.269	-0.195
-582.836	-122.429	0.250	0.041
-581.821	738.006	0.070	-0.190
-580.806	535.309	-0.054	-0.130
-579.792	-63.825	-0.264	-0.109
-578.777	-200.000	-0.034	-0.248
-577.763	-200.000	0.014	-0.119
-576.748	-66.616	0.160	0.064
-575.733	60.233	-0.132	0.133
-574.719	-200.000	0.005	-0.079
-573.704	389.872	-0.039	-0.082
-572.690	370.524	-0.096	-0.198
-571.675	153.324	0.221	-0.307
-570.661	-200.000	-0.006	0.065
-569.646	-200.000	-0.019	-0.315
-568.631	-111.797	0.487	0.100
-567.617	-165.076	-0.529	0.024
-566.602	-56.363	0.206	-0.093
-565.588	603.482	0.070	-0.175
-564.573	318.149	-0.150	0.289
-563.558	-200.000	-0.048	-0.223
-562.544	15.879	-0.328	0.261
-561.529	-42.967	0.315	-0.162
-560.515	-138.471	0.227	-0.025
-559.500	-65.918	0.101	0.041
-558.485	-200.000	0.039	-0.301
-557.471	129.104	-0.252	0.326
-556.456	180.382	-0.123	0.183
-555.442	-101.336	0.197	-0.049
-554.427	-119.775	-0.315	-0.055
-553.412	78.219	0.044	-0.048
-552.398	-68.651	-0.174	-0.068
-551.383	-23.599	-0.163	0.099
-550.369	800.000	0.059	-0.171
-549.354	-196.886	-0.241	0.002
-548.339	-133.318	-0.210	-0.027
-547.325	-138.956	-0.135	0.015
-546.310	-65.923	-0.194	0.079
-545.296	49.798	-0.186	-0.178
-544.281	191.010	0.133	-0.203
-543.266	800.000	-0.009	-0.039
-542.252	-70.246	0.258	0.099
-541.237	10.850	-0.204	-0.158
-540.223	800.000	0.039	0.150
-539.208	-200.000	0.090	-0.468
-538.193	-105.601	-0.095	0.022
-537.179	581.568	-0.052	0.129
-536.164	-59.937	0.046	-0.020
-535.150	477.284	0.110	0.252
-534.135	27.595	0.007	-0.006
-533.121	-42.510	0.250	0.129
-532.106	-92.279	0.158	-0.045
-531.091	591.020	0.055	0.138
-530.077	-200.000	-0.024	-0.399
-529.062	-200.000	0.004	-0.214
-528.048	224.728	0.169	0.277
-527.033	56.955	0.191	-0.188
-526.018	57.221	0.024	-0.024
-525.004	318.510	0.113	-0.217
-523.989	-18.257	0.156	-0.099
-522.975	484.744	-0.089	-0.206
-521.960	-35.409	0.266	0.146
-520.945	79.886	-0.229	0.249
-519.931	-200.000	-0.046	0.204
-518.916	620.727	-0.119	0.303
-517.902	800.000	0.057	-0.168
-516.887	49.703	-0.033	0.031
-515.872	-9.853	-0.117	0.079
-514.858	-71.239	-0.184	0.070
-513.843	-76.105	-0.151	0.054
-512.829	273.427	-0.072	0.129
-511.814	63.483	0.119	-0.121
-510.799	-76.631	-0.378	0.134
-509.785	800.000	0.056	0.219
-508.770	-138.328	0.082	0.009
-507.756	724.488	0.107	0.287
-506.741	-64.813	-0.157	0.064
-505.726	-31.346	-0.430	0.245
-504.712	68.352	-0.144	-0.149
-503.697	207.349	-0.174	-0.275
-502.683	-131.391	0.149	-0.020
-501.668	340.891	0.103	0.204
-500.653	-200.000	-0.014	-0.253
-499.639	-156.746	0.115	0.007
-498.624	445.784	-0.038	-0.085
-497.610	-39.521	0.209	-0.111
-496.595	-120.212	-0.236	0.041
-495.581	-83.300	-0.099	-0.032
-494.566	-200.000	-0.024	-0.386
-493.551	-146.892	-0.275	-0.024
-492.537	637.181	0.050	0.127
-491.522	-36.303	-0.169	-0.092
-490.508	-70.710	-0.329	-0.125
-489.493	800.000	-0.030	-0.118
-488.478	-27.875	-0.244	0.143
-487.464	82.743	0.167	0.184
-486.449	25.258	0.224	0.188
-485.435	-200.000	0.015	-0.227
-484.420	-200.000	-0.035	-0.460
-483.405	63.389	-0.102	-0.103
-482.391	-77.804	0.140	0.049
-481.376	-103.250	0.180	-0.043
-480.362	-200.000	-0.030	0.257
-479.347	-200.000	0.038	-0.349
-478.332	-200.000	-0.041	-0.250
-477.318	21.170	0.176	0.145
-476.303	-93.690	0.173	0.048
-475.289	-154.688	-0.244	-0.016
-474.274	-200.000	-0.073	-0.639
-473.259	-9.437	0.202	-0.136
-472.245	-182.647	0.268	-0.005
-471.230	528.915	-0.063	-0.150
-470.216	-85.982	0.144	0.045
-469.201	741.290	-0.102	-0.277
-468.186	-110.739	-0.238	0.050
-467.172	10.493	0.192	-0.147
-466.157	0.068	0.041	0.029
-465.143	116.104	0.237	-0.293
-464.128	800.000	-0.055	0.186
-463.113	-8.594	0.186	-0.126
-462.099	-3.015	-0.179	0.126
-461.084	-43.723	0.142	-0.072
-460.070	305.988	-0.061	-0.114
-459.055	179.289	-0.053	0.078
-458.040	6.680	0.193	-0.145
-457.026	375.520	0.131	-0.270
-456.011	171.145	-0.065	0.094
-454.997	387.252	0.087	-0.181
-453.982	-32.549	0.310	-0.175
-452.968	-31.367	-0.117	0.067
-451.953	-32.023	-0.074	0.042
-450.938	-200.000	0.071	-0.317
-449.924	45.350	0.306	-0.285
-448.909	232.038	-0.215	-0.356
-447.895	132.534	0.174	-0.226
-446.880	800.000	0.053	0.184
-445.865	-126.016	-0.476	0.072
-444.851	-153.188	-0.282	0.020
-443.836	28.196	-0.092	0.079
-442.822	-4.580	-0.156	0.109
-441.807	-156.295	0.024	-0.002
-440.792	723.706	-0.072	0.194
-439.778	-186.187	0.320	0.005
-438.763	425.243	0.077	-0.168
-437.749	-86.887	-0.177	-0.055
-436.734	535.492	0.101	0.241
-435.719	800.000	0.075	0.250
-434.705	-170.408	-0.216	0.008
-433.690	-149.902	0.294	-0.023
-432.676	-200.000	-0.043	-0.305
-431.661	139.385	-0.146	-0.193
-430.646	800.000	-0.025	0.081
-429.632	-200.000	-0.025	-0.206
-428.617	-200.000	-0.004	0.051
-427.603	70.317	-0.192	-0.201
-426.588	215.606	0.106	0.170
-425.573	-169.883	-0.243	-0.009
-424.559	127.942	0.240	0.307
-423.544	21.119	0.244	0.200
-422.530	800.000	-0.049	0.199
-421.515	-57.845	-0.166	0.073
-420.500	800.000	-0.087	-0.253
-419.486	-101.208	-0.219	-0.054
-418.471	-61.684	-0.171	-0.072
-417.457	-176.273	0.263	0.007
-416.442	-200.000	-0.072	0.333
-415.428	136.364	0.155	-0.204
-414.413	-200.000	-0.019	-0.261
-413.398	-200.000	-0.037	0.252
-412.384	-131.261	-0.222	0.030
-411.369	800.000	0.048	0.146
-410.355	233.869	-0.183	0.304
-409.340	197.150	0.161	0.247
-408.325	-173.260	0.205	0.006
-407.311	-57.228	-0.068	-0.030
-406.296	311.320	0.103	-0.195
-405.282	-13.558	0.233	0.152
-404.267	-200.000	-0.006	0.193
-403.252	-80.042	0.461	0.156
-402.238	-137.231	-0.333	-0.038
-401.223	-38.448	-0.377	0.201
-400.209	17.302	0.120	-0.096
-399.194	448.113	0.061	0.136
-398.179	-15.600	-0.027	-0.017
-397.165	800.000	0.123	0.360
-396.150	-70.906	-0.328	-0.124
-395.136	-200.000	-0.060	-0.319
-394.121	-74.482	0.222	-0.081
-393.106	-200.000	0.006	-0.395
-392.092	58.182	-0.164	-0.162
-391.077	-70.732	0.129	0.049
-390.063	-46.841	-0.100	-0.049
-389.048	34.199	-0.242	0.212
-388.033	-96.803	0.101	-0.027
-387.019	800.000	-0.034	0.139
-386.004	14.619	-0.241	0.189
-384.990	-12.284	0.194	0.128
-383.975	134.985	-0.089	-0.117
-382.960	-63.398	0.161	0.067
-381.946	-87.950	-0.173	-0.052
-380.931	-67.596	0.122	0.048
-379.917	-49.263	-0.089	-0.043
-378.902	-95.646	-0.399	0.107
-377.888	-200.000	-0.008	-0.163
-376.873	-200.000	0.010	0.248
-375.858	-200.000	-0.012	-0.177
-374.844	800.000	-0.044	0.132
-373.829	-200.000	0.056	-0.346
-372.815	-82.163	-0.045	0.015
-371.800	358.815	-0.056	-0.112
-370.785	-87.943	0.215	0.065
-369.771	-200.000	-0.058	0.284
-368.756	-163.849	0.084	0.004
-367.742	-111.425	-0.604	-0.124
-366.727	-124.119	0.313	0.049
-365.712	-33.622	0.282	-0.156
-364.698	52.851	0.320	-0.308
-363.683	-87.357	0.042	-0.013
-362.669	-151.162	-0.234	-0.018
-361.654	353.455	-0.008	-0.016
-360.639	-200.000	-0.014	0.117
-359.625	334.032	-0.097	0.188
-358.610	190.337	0.204	-0.307
-357.596	-101.788	0.360	0.088
-356.581	800.000	0.105	-0.378
-355.566	-200.000	-0.035	0.335
-354.552	-26.619	-0.242	0.143
-353.537	-200.000	0.283	-0.000
-352.523	-17.957	0.130	0.082
-351.508	800.000	-0.028	-0.087
-350.493	182.658	-0.094	0.140
-349.479	-14.288	-0.351	-0.227
-348.464	-145.500	0.196	-0.018
-347.450	800.000	0.054	-0.226
-346.435	-34.303	0.162	0.090
-345.420	155.461	-0.173	0.240
-344.406	-163.963	0.183	0.009
-343.391	800.000	-0.086	0.285
-342.377	800.000	0.056	0.169
-341.362	298.423	0.107	-0.197
-340.348	-118.811	-0.197	0.035
-339.333	-200.000	-0.003	-0.101
-338.318	-155.235	0.512	-0.034
-337.304	-200.000	-0.012	0.281
-336.289	98.161	0.066	-0.076
-335.275	-92.541	0.281	0.079
-334.260	-92.581	-0.106	0.030
-333.245	800.000	0.034	-0.140
-332.231	-52.150	0.282	-0.132
-331.216	-200.000	-0.006	0.083
-330.202	66.504	-0.177	-0.181
-329.187	-183.607	0.237	-0.004
-328.172	-167.715	-0.105	-0.004
-327.158	625.526	0.112	0.283
-326.143	800.000	0.067	-0.186
-325.129	-6.336	0.283	0.194
-324.114	-167.091	-0.371	-0.015
-323.099	292.023	0.076	0.139
-322.085	-86.346	-0.202	0.062
-321.070	-28.860	-0.160	-0.093
-320.056	-4.820	-0.266	0.184
-319.041	-73.919	-0.224	-0.082
-318.026	-200.000	0.039	-0.290
-317.012	98.839	-0.121	0.140
-315.997	153.048	-0.265	0.363
-314.983	61.494	-0.250	-0.250
-313.968	21.466	-0.130	-0.106
-312.953	-20.350	-0.415	0.256
-311.939	-200.000	-0.073	0.402
-310.924	-1.996	-0.171	0.120
-309.910	-101.204	0.127	0.031
-308.895	264.680	0.102	0.178
-307.880	103.295	0.133	0.156
-306.866	-172.050	-0.052	0.002
-305.851	86.879	0.194	-0.215
-304.837	-65.497	0.250	0.101
-303.822	-121.371	-0.108	-0.018
-302.807	777.218	0.030	-0.082
-301.793	800.000	0.057	0.234
-300.778	-175.307	0.470	0.013
-299.764	-152.090	0.139	-0.010
-298.749	155.700	-0.174	0.240
-297.735	506.171	0.016	0.036
-296.720	-38.886	-0.314	-0.166
-295.705	556.672	-0.086	-0.207
-294.691	-181.111	-0.226	-0.005
-293.676	140.606	0.084	0.111
-292.662	67.815	-0.077	-0.079
-291.647	-139.729	0.238	-0.025
-290.632	-17.918	0.179	-0.113
-289.618	-200.000	0.048	-0.225
-288.603	800.000	-0.087	0.283
-287.589	800.000	0.052	-0.150
-286.574	-200.000	-0.001	0.340
-285.559	31.611	-0.160	0.138
-284.545	16.524	0.171	-0.136
-283.530	800.000	0.007	-0.020
-282.516	-200.000	-0.007	-0.044
-281.501	18.450	0.083	-0.067
-280.486	-88.774	0.199	0.059
-279.472	-162.184	0.298	0.015
-278.457	202.225	-0.086	-0.134
-277.443	648.554	0.038	-0.097
-276.428	257.551	0.136	0.234
-275.413	91.940	0.127	-0.143
-274.399	-51.607	-0.211	-0.099
-273.384	71.355	-0.203	0.211
-272.370	-116.246	0.304	0.056
-271.355	144.301	-0.122	-0.163
-270.340	-3.654	-0.136	0.095
-269.326	97.878	0.304	0.351
-268.311	21.046	0.142	0.115
-267.297	-21.510	0.137	-0.084
-266.282	-56.127	0.146	-0.065
-265.267	-17.274	0.190	0.120
-264.253	-133.960	-0.181	0.022
-263.238	44.810	-0.277	0.256
-262.224	53.026	0.262	0.251
-261.209	-99.501	-0.189	0.048
-260.195	209.251	-0.119	-0.187
-259.180	471.000	-0.132	0.297
-258.165	-200.000	0.001	0.440
-257.151	21.245	0.259	-0.210
-256.136	800.000	-0.012	-0.050
-255.122	-200.000	0.027	-0.143
-254.107	140.858	-0.076	0.100
-253.092	-200.000	0.014	0.139
-252.078	233.261	-0.158	0.260
-251.063	-59.813	0.218	0.094
-250.049	-95.183	-0.384	0.104
-249.034	-149.331	-0.096	0.008
-248.019	-40.935	0.375	-0.194
-247.005	63.864	0.131	-0.132
-245.990	64.047	-0.198	-0.199
-244.976	30.227	0.294	0.251
-243.961	15.521	0.053	-0.041
-242.946	144.281	-0.286	0.382
-241.932	124.135	-0.025	-0.032
-240.917	-127.893	0.193	0.028
-239.903	-46.206	0.204	0.100
-238.888	299.113	0.126	-0.233
-237.873	61.591	-0.099	-0.098
-236.859	-200.000	0.010	0.189
-235.844	254.270	0.237	-0.406
-234.830	800.000	-0.055	0.223
-233.815	35.063	0.115	-0.101
-232.800	73.441	0.208	-0.218
-231.786	-97.454	-0.116	-0.030
-230.771	-200.000	0.016	-0.251
-229.757	-200.000	0.022	-0.212
-228.742	175.748	-0.099	-0.143
-227.727	221.904	0.127	-0.205
-226.713	-71.843	-0.064	0.024
-225.698	216.230	-0.030	-0.048
-224.684	-200.000	-0.009	0.207
-223.669	-200.000	0.008	0.229
-222.655	-48.150	-0.146	0.071
-221.640	-97.162	0.240	0.063
-220.625	53.680	0.136	-0.130
-219.611	716.183	-0.009	-0.025
-218.596	800.000	-0.020	0.062
-217.582	-179.351	0.346	-0.008
-216.567	176.487	-0.131	0.190
-215.552	-200.000	0.026	0.114
-214.538	-200.000	-0.052	-0.271
-213.523	208.697	-0.051	-0.079
-212.509	576.330	0.070	0.172
-211.494	-58.555	0.442	0.192
-210.479	340.116	-0.141	0.276
-209.465	800.000	-0.041	0.159
-208.450	-200.000	0.014	0.077
-207.436	44.472	-0.232	-0.213
-206.421	-137.062	-0.424	0.048
-205.406	127.517	0.162	0.205
-204.392	-149.153	-0.075	0.006
-203.377	-200.000	-0.023	-0.257
-202.363	-42.777	-0.087	0.044
-201.348	-102.607	0.087	0.021
-200.333	33.927	0.214	-0.186
-199.319	-28.112	0.164	0.095
-198.304	349.541	0.083	0.163
-197.290	-42.312	-0.406	0.207
-196.275	183.034	-0.131	0.193
-195.260	-200.000	-0.076	-0.389
-194.246	-200.000	0.052	-0.257
-193.231	150.999	-0.215	0.292
-192.217	-200.000	0.073	0.455
-191.202	-143.177	0.470	-0.045
-190.187	800.000	-0.098	-0.291
-189.173	63.374	0.084	-0.084
-188.158	-89.552	-0.199	-0.058
-187.144	5.346	-0.168	0.124
-186.129	493.741	0.070	0.160
-185.114	-185.593	-0.279	0.004
-184.100	-200.000	-0.039	-0.265
-183.085	800.000	-0.085	-0.322
-182.071	164.372	-0.052	-0.073
-181.056	85.778	-0.055	-0.060
-180.042	-189.725	0.088	0.001
-179.027	314.626	-0.035	0.066
-178.012	-200.000	-0.012	-0.066
-176.998	-99.385	-0.242	0.061
-175.983	498.567	0.113	0.261
-174.969	800.000	-0.057	0.186
-173.954	800.000	0.190	0.605
-172.939	-53.212	-0.146	0.067
-171.925	-200.000	0.009	0.277
-170.910	45.686	-0.155	0.143
-169.896	629.098	0.123	-0.310
-168.881	-20.522	0.155	-0.095
-167.866	162.219	-0.231	0.323
-166.852	-174.183	0.263	-0.008
-165.837	-200.000	-0.081	0.384
-164.823	-82.064	0.178	0.058
-163.808	-73.071	-0.076	0.028
-162.793	116.961	0.237	-0.290
-161.779	-200.000	-0.014	-0.084
-160.764	387.370	0.072	-0.149
-159.750	71.672	-0.249	0.258
-158.735	-24.999	-0.248	0.147
-157.720	-123.011	0.187	-0.030
-156.706	-28.943	0.166	0.095
-155.691	-200.000	-0.001	-0.093
-154.677	-114.561	0.173	-0.033
-153.662	800.000	-0.100	0.311
-152.647	172.228	0.105	0.150
-151.633	405.203	-0.055	0.117
-150.618	75.464	0.239	0.252
-149.604	-200.000	-0.013	0.227
-148.589	143.409	-0.132	0.175
-147.574	-111.079	0.098	0.020
-146.560	260.441	-0.126	0.218
-145.545	130.742	-0.256	-0.328
-144.531	121.456	-0.092	0.115
-143.516	-152.938	0.337	-0.024
-142.502	-200.000	-0.035	0.229
-141.487	-200.000	-0.009	0.147
-140.472	-106.833	0.161	-0.036
-139.458	198.427	-0.098	-0.149
-138.443	43.521	-0.204	-0.186
-137.429	-89.869	0.120	-0.035
-136.414	-200.000	-0.039	-0.275
-135.399	-200.000	0.016	0.185
-134.385	-139.453	-0.238	-0.025
-133.370	-103.166	-0.091	0.021
-132.356	-12.015	0.236	-0.154
-131.341	-200.000	0.005	-0.100
-130.326	-200.000	0.066	0.293
-129.312	-103.195	-0.421	0.099
-128.297	-200.000	-0.043	-0.225
-127.283	-200.000	0.010	-0.196
-126.268	-200.000	-0.003	0.093
-125.253	-44.653	0.474	0.236
-124.239	-81.810	0.298	-0.097
-123.224	132.843	-0.167	0.215
-122.210	366.041	-0.191	0.384
-121.195	800.000	0.034	0.147
-120.180	-98.232	-0.120	-0.031
-119.166	220.603	0.080	-0.127
-118.151	-105.468	0.100	0.023
-117.137	65.011	-0.051	-0.052
-116.122	441.690	-0.100	0.217
-115.107	42.439	-0.097	0.087
-114.093	519.149	0.038	-0.088
-113.078	800.000	0.025	-0.084
-112.064	-186.132	0.087	-0.001
-111.049	-88.729	0.003	0.001
-110.034	800.000	0.046	-0.157
-109.020	800.000	-0.055	0.194
-108.005	-156.300	-0.073	-0.005
-106.991	-95.965	0.133	-0.035
-105.976	-200.000	0.053	0.271
-104.962	74.402	0.202	0.211
-103.947	-200.000	0.005	0.048
-102.932	800.000	0.018	0.057
-101.918	-100.233	0.321	0.079
-100.903	685.653	-0.074	-0.192
-99.889	8.550	-0.241	0.181
-98.874	-152.537	0.074	0.005
-97.859	573.867	-0.188	-0.455
-96.845	-70.277	0.319	-0.120
-95.830	-200.000	0.015	-0.344
-94.816	148.828	0.142	-0.191
-93.801	84.804	0.377	-0.411
-92.786	-117.901	-0.098	0.017
-91.772	47.647	-0.140	0.130
-90.757	81.453	0.169	-0.182
-89.743	112.111	-0.147	0.176
-88.728	-200.000	-0.015	-0.087
-87.713	-149.630	0.097	0.008
-86.699	163.549	0.064	-0.090
-85.684	376.810	0.200	0.406
-84.670	49.404	-0.223	0.209
-83.655	96.488	0.113	0.129
-82.640	312.990	-0.089	0.166
-81.626	420.429	-0.096	-0.205
-80.611	276.876	-0.050	0.088
-79.597	113.648	0.107	-0.129
-78.582	-200.000	-0.007	0.264
-77.567	69.111	-0.060	0.062
-76.553	766.722	-0.021	0.058
-75.538	-103.095	0.270	0.064
-74.524	0.597	-0.122	0.087
-73.509	-200.000	-0.041	-0.189
-72.494	89.736	-0.167	0.185
-71.480	-133.048	-0.307	0.039
-70.465	131.147	0.170	-0.217
-69.451	-23.343	0.081	0.048
-68.436	84.151	-0.237	0.257
-67.422	493.794	0.102	0.233
-66.407	267.523	-0.167	-0.291
-65.392	-200.000	-0.006	0.045
-64.378	123.607	-0.153	-0.190
-63.363	-77.284	-0.267	0.092
-62.349	204.992	0.059	-0.091
-61.334	104.440	-0.963	-1.127
-60.319	92.597	0.428	0.480
-59.305	-200.000	-0.170	-0.844
-58.290	71.531	0.821	0.847
-57.276	292.158	0.877	1.588
-56.261	-200.000	88.469	500.446
-55.246	538.080	1372.600	3241.368
-54.232	183.708	2609.338	3833.878
-53.217	114.113	2245.176	2713.754
-52.203	45.796	1772.527	1628.168
-51.188	39.153	1578.790	1402.942
-50.173	36.749	1550.468	1360.846
-49.159	53.678	1595.984	1521.867
-48.144	57.334	1615.648	1566.654
-47.130	39.646	1574.320	1402.259
-46.115	36.425	1558.698	1365.557
-45.100	36.207	1555.429	1361.101
-44.086	36.159	1553.503	1359.026
-43.071	36.218	1551.476	1357.613
-42.057	36.131	1549.738	1355.428
-41.042	36.146	1548.490	1354.391
-40.027	36.194	1546.909	1353.290
-39.013	36.121	1545.437	1351.437
-37.998	36.028	1544.464	1349.881
-36.984	36.089	1542.953	1348.933
-35.969	36.268	1540.920	1348.351
-34.954	36.146	1540.152	1346.773
-33.940	36.057	1538.858	1344.971
-32.925	36.144	1536.968	1343.869
-31.911	36.219	1536.174	1343.644
-30.896	36.195	1534.504	1341.961
-29.881	36.281	1532.605	1340.849
-28.867	36.183	1531.552	1339.190
-27.852	36.186	1530.599	1338.323
-26.838	36.301	1528.532	1337.262
-25.823	36.290	1527.043	1335.828
-24.809	36.181	1525.563	1333.729
-23.794	36.193	1523.884	1332.293
-22.779	36.243	1523.011	1331.819
-21.765	36.236	1521.619	1330.503
-20.750	36.226	1520.558	1329.452
-19.736	36.197	1519.548	1328.318
-18.721	36.149	1518.261	1326.811
-17.706	36.200	1517.113	1326.106
-16.692	36.129	1516.013	1324.602
-15.677	36.098	1515.284	1323.702
-14.663	36.153	1514.180	1323.061
-13.648	36.172	1512.983	1322.091
-12.633	36.121	1512.288	1321.080
-11.619	36.128	1511.308	1320.221
-10.604	36.086	1510.876	1319.508
-9.590	36.095	1509.800	1318.578
-8.575	36.100	1508.737	1317.627
-7.560	36.149	1507.761	1317.057
-6.546	36.132	1506.560	1315.840
-5.531	36.060	1506.147	1314.938
-4.517	36.071	1504.737	1313.725
-3.502	36.099	1503.689	1312.952
-2.487	36.225	1502.098	1312.370
-1.473	36.042	1501.419	1310.475
-0.458	36.029	1500.266	1309.329
0.556	34.459	1490.657	1300.248
1.571	31.937	1464.440	1260.348
2.586	28.746	1401.919	1185.868
3.600	27.270	1317.870	1105.705
4.615	25.819	1270.946	1057.729
5.629	21.470	1211.818	984.027
6.644	10.173	1119.538	849.970
7.659	1.527	1073.804	771.451
8.673	0.280	1068.049	760.951
9.688	0.251	1064.730	758.378
10.702	0.068	1062.911	756.096
11.717	0.051	1061.842	755.180
12.731	3.973	1066.670	778.300
13.746	14.638	1082.018	843.591
14.761	21.475	1090.800	885.076
15.775	22.214	1090.819	888.748
16.790	22.062	1090.043	887.271
17.804	22.019	1089.057	886.174
18.819	21.690	1088.856	884.271
19.834	21.856	1087.547	883.967
20.848	22.019	1087.304	884.510
21.863	22.067	1087.015	884.440
22.877	21.881	1086.678	883.153
23.892	22.047	1085.802	883.198
24.907	21.772	1085.251	881.288
25.921	21.927	1084.351	881.257
26.936	21.907	1083.737	880.578
27.950	21.871	1082.507	879.322
28.965	21.890	1081.357	878.407
29.980	21.846	1079.487	876.587
30.994	21.707	1078.577	875.077
32.009	21.847	1077.178	874.566
33.023	22.027	1076.934	875.185
34.038	21.768	1075.912	872.986
35.053	21.892	1074.575	872.440
36.067	22.011	1073.751	872.289
37.082	21.966	1073.282	871.607
38.096	22.005	1072.772	871.309
39.111	22.092	1072.098	871.114
40.126	22.177	1070.984	870.556
41.140	22.087	1069.695	868.984
42.155	21.912	1067.545	866.296
43.169	21.516	1066.979	863.808
44.184	21.504	1065.869	862.772
45.199	21.595	1064.575	862.096
46.213	21.550	1063.553	860.970
47.228	21.506	1062.716	860.000
48.242	21.728	1062.064	860.486
49.257	21.810	1060.823	859.810
50.271	21.733	1060.701	859.254
51.286	21.985	1059.546	859.477
52.301	22.069	1058.476	858.946
53.315	22.015	1058.081	858.281
54.330	22.008	1057.254	857.502
55.344	21.906	1056.434	856.263
56.359	21.835	1055.743	855.283
57.374	22.004	1054.695	855.182
58.388	21.851	1053.589	853.462
59.403	21.702	1052.903	852.110
60.417	21.711	1052.610	851.839
61.432	21.590	1051.457	850.246
62.447	21.488	1050.936	849.251
63.461	21.729	1050.337	849.861
64.476	21.788	1049.191	849.143
65.490	21.800	1048.265	848.381
66.505	21.659	1047.263	846.813
67.520	21.572	1046.411	845.626
68.534	21.621	1046.146	845.572
69.549	21.614	1044.986	844.527
70.563	21.148	1044.232	841.596
71.578	21.178	1043.193	840.829
72.593	21.401	1041.524	840.483
73.607	21.107	1040.914	838.502
74.622	21.186	1040.231	838.259
75.636	21.343	1039.795	838.584
76.651	21.498	1038.758	838.421
77.666	21.411	1037.579	836.979
78.680	21.349	1036.693	835.892
79.695	21.231	1036.353	834.979
80.709	21.417	1035.755	835.311
81.724	21.569	1034.819	835.211
82.739	21.535	1034.037	834.342
83.753	21.526	1033.068	833.445
84.768	21.783	1032.410	834.063
85.782	21.969	1032.197	834.700
86.797	22.155	1031.476	834.926
87.812	22.091	1030.328	833.622
88.826	22.049	1029.355	832.560
89.841	22.064	1028.437	831.813
90.855	22.167	1027.590	831.544
91.870	22.093	1027.001	830.642
92.884	22.046	1026.106	829.626
93.899	22.080	1025.084	828.883
94.914	21.871	1024.391	827.267
95.928	22.071	1022.880	826.913
96.943	22.160	1022.655	827.080
97.957	21.764	1021.291	824.042
98.972	21.618	1020.210	822.410
99.987	21.501	1019.191	820.968
101.001	21.384	1019.005	820.195
102.016	21.778	1018.188	821.311
103.030	21.976	1016.923	821.144
104.045	21.779	1015.818	819.261
105.060	21.630	1014.773	817.648
106.074	21.494	1013.303	815.757
107.089	21.452	1013.099	815.326
108.103	21.847	1013.115	817.105
109.118	21.946	1011.932	816.540
110.133	21.736	1010.536	814.368
111.147	21.686	1009.361	813.113
112.162	21.555	1008.523	811.760
113.176	21.314	1007.853	810.034
114.191	21.471	1006.525	809.622
115.206	21.524	1005.724	809.149
116.220	21.273	1004.305	806.775
117.235	21.173	1003.626	805.697
118.249	21.305	1003.042	805.766
119.264	21.236	1001.951	804.502
120.279	21.308	1000.915	803.932
121.293	21.229	1000.546	803.200
122.308	21.313	999.855	802.959
123.322	21.290	998.814	801.946
124.337	21.323	997.979	801.357
125.352	21.270	996.360	799.745
126.366	20.937	994.871	796.956
127.381	20.560	993.446	794.021
128.395	20.932	993.456	795.656
129.410	21.587	992.926	798.152
130.424	21.718	992.190	798.087
131.439	21.812	991.255	797.691
132.454	21.774	989.682	796.181
133.468	21.842	988.727	795.650
134.483	21.673	988.212	794.400
135.497	21.912	987.503	794.842
136.512	21.947	986.898	794.444
137.527	22.032	986.320	794.292
138.541	22.005	985.345	793.314
139.556	22.006	984.456	792.533
140.570	22.032	983.528	791.833
141.585	21.993	983.011	791.172
142.600	22.050	982.263	790.757
143.614	21.996	981.071	789.486
144.629	22.120	980.264	789.322
145.643	22.353	979.346	789.557
146.658	22.179	978.806	788.274
147.673	22.090	977.132	786.456
148.687	21.995	976.059	785.099
149.702	21.971	975.044	784.106
150.716	21.778	974.006	782.341
151.731	21.881	972.651	781.643
152.746	21.913	972.188	781.345
153.760	22.077	971.832	781.719
154.775	22.105	971.452	781.469
155.789	22.239	969.794	780.659
156.804	22.320	968.429	779.851
157.819	22.117	967.957	778.502
158.833	22.146	967.229	777.977
159.848	22.213	966.664	777.749
160.862	22.315	965.933	777.545
161.877	22.120	964.833	775.727
162.892	22.025	963.730	774.354
163.906	22.178	963.038	774.404
164.921	22.188	961.946	773.500
165.935	22.253	960.618	772.651
166.950	22.218	960.102	772.014
167.964	22.227	958.715	770.869
168.979	22.071	958.269	769.760
169.994	22.060	956.713	768.393
171.008	22.000	955.632	767.194
172.023	22.064	955.123	766.998
173.037	22.249	954.126	766.934
174.052	22.127	952.885	765.339
175.067	21.829	952.249	763.462
176.081	21.862	951.199	762.698
177.096	21.864	950.732	762.264
178.110	21.881	949.711	761.452
179.125	21.657	949.112	759.931
180.140	21.456	947.289	757.534
181.154	21.476	946.863	757.212
182.169	21.631	946.370	757.425
183.183	21.832	945.767	757.741
184.198	22.103	945.745	758.828
185.213	22.070	944.992	758.017
186.227	22.068	943.852	757.024
187.242	22.083	943.914	757.073
188.256	22.135	943.017	756.511
189.271	22.117	941.923	755.487
190.286	22.294	940.806	755.286
191.300	22.114	940.296	754.038
192.315	21.483	939.603	750.706
193.329	20.895	937.431	746.385
194.344	20.479	936.084	743.470
195.359	21.126	936.324	746.360
196.373	21.825	936.995	749.821
197.388	21.926	937.067	750.243
198.402	21.972	935.949	749.477
199.417	21.900	935.494	748.739
200.432	21.889	935.016	748.244
201.446	21.912	934.054	747.505
202.461	21.673	933.273	745.799
203.475	21.691	932.956	745.555
204.490	21.262	931.282	742.328
205.504	20.121	929.230	735.788
206.519	20.633	929.274	737.931
207.534	21.567	929.577	742.065
208.548	21.545	929.060	741.493
209.563	22.059	928.756	743.362
210.577	21.953	928.536	742.672
211.592	21.722	926.831	740.270
212.607	22.145	926.689	741.873
213.621	22.256	926.341	741.996
214.636	22.105	926.032	741.048
215.650	22.262	924.886	740.728
216.665	22.191	924.535	740.081
217.680	22.159	923.981	739.437
218.694	22.231	923.410	739.217
219.709	22.000	922.237	737.243
220.723	21.664	921.175	734.922
221.738	21.791	921.214	735.419
222.753	22.059	920.638	736.017
223.767	22.005	919.567	734.871
224.782	21.980	919.056	734.292
225.796	22.029	918.898	734.306
226.811	22.262	918.060	734.545
227.826	21.877	916.568	731.683
228.840	21.089	915.195	727.239
229.855	21.094	914.475	726.620
230.869	21.385	914.088	727.459
231.884	20.939	912.910	724.604
232.899	20.873	912.759	724.146
233.913	21.852	912.803	728.185
234.928	22.087	912.211	728.624
235.942	21.871	911.702	727.257
236.957	21.962	910.889	726.921
237.972	21.607	910.179	724.821
238.986	21.513	909.070	723.484
240.001	21.670	908.488	723.604
241.015	21.612	908.318	723.168
242.030	21.790	907.551	723.226
243.045	21.893	906.951	723.109
244.059	21.876	906.353	722.499
245.074	22.044	905.957	722.809
246.088	22.116	905.243	722.472
247.103	21.766	904.186	720.126
248.117	21.729	903.441	719.316
249.132	22.256	903.550	721.502
250.147	22.551	903.439	722.561
251.161	22.712	902.487	722.395
252.176	22.837	902.378	722.757
253.190	22.762	901.441	721.633
254.205	22.884	900.878	721.618
255.220	23.037	900.462	721.849
256.234	23.070	899.908	721.472
257.249	22.858	899.439	720.167
258.263	22.893	898.296	719.333
259.278	22.873	897.816	718.802
260.293	22.930	897.722	718.896
261.307	22.959	897.008	718.377
262.322	22.807	896.010	716.899
263.336	22.755	895.409	716.143
264.351	22.256	893.836	712.798
265.366	21.223	892.064	707.144
266.380	20.752	891.453	704.689
267.395	21.562	891.769	708.157
268.409	22.359	891.579	711.164
269.424	22.355	891.027	710.644
270.439	22.395	890.597	710.399
271.453	22.561	890.112	710.621
272.468	22.609	889.234	710.051
273.482	22.682	888.823	709.951
274.497	22.917	888.348	710.455
275.512	22.826	886.949	708.909
276.526	22.130	885.755	705.100
277.541	22.302	885.638	705.634
278.555	22.780	885.332	707.243
279.570	22.537	884.677	705.686
280.585	22.237	883.968	703.857
281.599	22.453	883.321	704.141
282.614	22.727	882.478	704.504
283.628	22.122	881.507	701.253
284.643	21.877	880.715	699.581
285.657	22.305	880.729	701.239
286.672	22.167	879.794	699.882
287.687	21.599	879.007	696.934
288.701	21.878	878.916	697.909
289.716	22.301	878.686	699.349
290.730	22.028	877.609	697.344
291.745	21.975	876.629	696.293
292.760	21.796	875.869	694.917
293.774	21.671	875.094	693.746
294.789	22.488	875.778	697.464
295.803	23.116	875.969	700.040
296.818	23.339	875.439	700.437
297.833	23.367	875.069	700.192
298.847	23.048	873.948	697.971
299.862	22.670	872.895	695.579
300.876	22.935	872.174	695.986
301.891	23.158	872.314	696.917
302.906	23.118	871.619	696.143
303.920	22.828	870.298	693.884
304.935	22.616	869.662	692.484
305.949	23.108	869.306	694.073
306.964	23.144	868.818	693.762
307.979	22.883	868.554	692.467
308.993	22.911	867.746	691.869
310.008	23.265	867.707	693.163
311.022	23.210	867.350	692.603
312.037	23.148	866.570	691.676
313.052	22.889	865.997	690.144
314.066	22.932	864.858	689.345
315.081	22.142	863.511	685.131
316.095	21.532	862.391	681.803
317.110	21.996	862.403	683.562
318.125	22.889	862.634	687.160
319.139	22.481	861.318	684.465
320.154	21.499	859.615	679.241
321.168	20.976	858.704	676.432
322.183	21.616	858.984	679.076
323.197	22.534	859.333	682.851
324.212	22.623	859.146	682.989
325.227	22.822	858.603	683.264
326.241	22.898	858.412	683.348
327.256	22.954	857.505	682.783
328.270	22.809	856.747	681.559
329.285	22.685	856.027	680.447
330.300	22.549	855.700	679.602
331.314	22.301	854.489	677.624
332.329	22.396	854.028	677.563
333.343	22.830	853.739	678.945
334.358	23.130	853.131	679.552
335.373	22.944	853.155	678.800
336.387	23.039	852.534	678.607
337.402	23.343	851.956	679.256
338.416	23.563	851.324	679.533
339.431	23.440	851.149	678.863
340.446	23.532	850.218	678.411
341.460	23.793	849.866	679.069
342.475	23.535	849.614	677.822
343.489	23.524	848.398	676.750
344.504	23.317	848.151	675.703
345.519	23.623	847.662	676.421
346.533	23.810	847.508	676.948
347.548	23.638	847.494	676.224
348.562	23.847	846.391	676.078
349.577	24.022	845.724	676.150
350.592	23.838	845.301	675.053
351.606	23.780	844.866	674.426
352.621	23.765	844.272	673.835
353.635	23.723	843.801	673.240
354.650	23.618	843.005	672.149
355.665	23.334	841.990	670.206
356.679	22.368	840.329	665.174
357.694	22.107	839.896	663.789
358.708	22.701	839.643	665.772
359.723	22.729	839.192	665.461
360.738	23.046	839.077	666.505
361.752	23.412	839.033	667.791
362.767	23.502	838.961	668.014
363.781	23.697	838.719	668.497
364.796	24.066	838.151	669.373
365.810	24.067	838.072	669.255
366.825	24.203	837.388	669.158
367.840	24.185	837.137	668.832
368.854	23.991	836.521	667.553
369.869	23.509	835.941	665.223
370.883	23.467	834.711	664.028
371.898	23.627	834.418	664.336
372.913	23.393	833.618	662.764
373.927	23.483	832.959	662.517
374.942	23.669	832.504	662.793
375.956	23.642	831.999	662.229
376.971	23.773	831.570	662.318
377.986	23.949	830.793	662.298
379.000	24.030	830.492	662.300
380.015	24.058	830.112	662.041
381.029	23.908	829.288	660.771
382.044	23.869	828.654	660.062
383.059	24.012	828.390	660.323
384.073	23.977	828.121	659.921
385.088	23.967	827.469	659.303
386.102	24.137	826.798	659.343
387.117	24.102	825.510	658.127
388.132	23.855	825.344	657.024
389.146	23.707	824.596	655.821
390.161	23.423	823.115	653.540
391.175	23.325	823.170	653.166
392.190	23.821	823.525	655.218
393.205	23.776	823.004	654.579
394.219	22.931	821.101	649.899
395.234	21.374	818.648	642.189
396.248	20.606	817.750	638.608
397.263	21.609	818.865	643.108
398.278	23.237	820.225	650.101
399.292	23.793	819.938	651.858
400.307	23.445	819.012	649.786
401.321	23.469	818.654	649.533
402.336	23.489	818.489	649.419
403.350	23.728	818.142	649.962
404.365	24.216	817.943	651.531
405.380	24.528	817.662	652.387
406.394	24.868	817.924	653.783
407.409	24.946	817.321	653.526
408.423	24.731	816.813	652.277
409.438	24.729	816.131	651.670
410.453	24.683	815.394	650.857
411.467	24.889	815.257	651.439
412.482	24.828	814.652	650.675
413.496	24.836	813.864	650.017
414.511	24.865	813.822	650.032
415.526	24.855	813.437	649.629
416.540	24.940	812.991	649.526
417.555	24.776	812.515	648.494
418.569	24.427	811.632	646.466
419.584	24.437	811.097	646.020
420.599	24.504	810.661	645.858
421.613	150.769	1365.518	1787.332
422.628	130.960	1446.370	1787.429
