DTS Sentinel unit serial number:	SN413079Multiplexer serial number:	ORYXHardware model number:	OX4-SRSoftware version number:	ORYX F/W v4.00 Oryx Data Collector v3.7.2.0data status	okinstallation	princeton_trtdifferential loss correction	single-endedforward channel	channel 3reverse channel	N/Adate	2019/09/11time	08:30:11forward acquisition time	60.00reverse acquisition time	0.00gamma	496.2192k internal	0.2315k external	0.2315temperature offset calibration	0.9942default loss term (dB/km)	0.3790temperature slope calibration	1.0000multiplexer offset coefficient	1.0000multiplexer slope coefficient	1.0000fibre end	0.00T internal ref (°C)	33.11T ext. ref 1 (°C)	0.10T ext. ref 2 (°C)	30.87length (m)	temperature (°C)	Stokes	anti-Stokes-747.200	715.754	0.083	-0.224
-746.185	30.955	0.212	-0.184
-745.171	-71.524	-0.408	0.155
-744.156	444.225	0.110	0.244
-743.142	775.289	0.058	0.162
-742.127	13.959	-0.154	0.122
-741.112	68.634	0.131	0.137
-740.098	-127.398	-0.406	-0.060
-739.083	-101.074	0.188	-0.047
-738.069	800.000	-0.071	0.237
-737.054	-200.000	0.009	-0.056
-736.039	-96.870	-0.186	-0.050
-735.025	800.000	-0.077	0.298
-734.010	-103.952	-0.260	0.061
-732.996	-65.090	-0.133	-0.054
-731.981	-93.349	0.183	0.051
-730.966	-200.000	-0.007	0.179
-729.952	-79.133	-0.394	0.136
-728.937	-200.000	-0.021	0.104
-727.923	258.440	0.073	0.127
-726.908	58.469	-0.030	-0.030
-725.894	347.410	-0.171	-0.342
-724.879	-51.782	-0.143	-0.067
-723.864	598.944	-0.105	-0.264
-722.850	-84.164	-0.118	-0.038
-721.835	-13.752	-0.329	-0.216
-720.821	43.244	-0.180	-0.166
-719.806	156.999	-0.027	0.038
-718.791	-73.067	-0.236	0.088
-717.777	-200.000	0.028	0.176
-716.762	-200.000	-0.017	-0.237
-715.748	603.136	0.069	-0.174
-714.733	-155.722	-0.301	-0.020
-713.718	401.253	-0.137	-0.292
-712.704	157.766	-0.092	0.129
-711.689	84.530	-0.158	-0.175
-710.675	-91.739	0.110	-0.032
-709.660	-200.000	0.001	-0.100
-708.645	218.697	0.312	-0.505
-707.631	183.420	-0.120	-0.180
-706.616	480.014	0.030	-0.070
-705.602	-82.910	0.352	-0.115
-704.587	410.202	0.055	-0.117
-703.572	11.855	-0.221	0.172
-702.558	146.946	0.136	0.185
-701.543	-95.715	0.110	0.030
-700.529	-200.000	-0.003	-0.017
-699.514	11.038	-0.130	-0.101
-698.499	-113.299	-0.329	-0.065
-697.485	165.860	0.050	0.072
-696.470	800.000	-0.028	-0.120
-695.456	36.472	-0.123	0.110
-694.441	-82.210	-0.278	0.092
-693.426	298.733	0.149	0.277
-692.412	33.625	-0.203	0.179
-691.397	-200.000	-0.003	-0.166
-690.383	-112.410	-0.129	0.026
-689.368	778.677	-0.051	-0.141
-688.354	136.838	0.119	-0.157
-687.339	33.322	0.137	0.120
-686.324	-177.130	0.133	-0.003
-685.310	330.547	0.162	-0.315
-684.295	800.000	-0.062	-0.239
-683.281	-200.000	0.037	-0.264
-682.266	49.280	-0.374	-0.356
-681.251	-148.477	0.093	-0.008
-680.237	5.009	0.203	0.151
-679.222	-60.904	0.058	-0.025
-678.208	-200.000	0.041	0.356
-677.193	50.073	0.266	0.254
-676.178	-32.169	-0.145	-0.082
-675.164	-200.000	0.008	-0.629
-674.149	115.951	0.238	-0.295
-673.135	522.035	-0.054	0.127
-672.120	-77.132	-0.141	-0.050
-671.105	114.400	0.062	-0.076
-670.091	-186.788	0.307	0.004
-669.076	-44.773	-0.038	-0.019
-668.062	-200.000	-0.001	0.050
-667.047	800.000	0.101	-0.335
-666.032	-99.718	0.222	-0.056
-665.018	800.000	-0.057	-0.194
-664.003	-200.000	-0.029	-0.255
-662.989	-85.061	0.299	-0.095
-661.974	-22.708	-0.068	0.042
-660.959	656.989	0.059	0.153
-659.945	-200.000	0.005	0.268
-658.930	-86.566	-0.436	-0.135
-657.916	151.090	-0.110	-0.152
-656.901	800.000	0.074	-0.262
-655.886	113.010	0.073	0.089
-654.872	-200.000	-0.061	0.358
-653.857	-139.726	-0.170	0.018
-652.843	-18.588	0.272	0.171
-651.828	247.483	-0.052	-0.089
-650.814	61.302	-0.168	-0.168
-649.799	472.846	0.108	0.245
-648.784	248.995	-0.123	-0.210
-647.770	154.766	0.123	-0.170
-646.755	-29.297	-0.257	-0.149
-645.741	800.000	0.053	-0.189
-644.726	-118.568	0.042	-0.008
-643.711	-97.341	-0.266	0.070
-642.697	-76.744	-0.192	0.068
-641.682	-113.536	-0.469	0.093
-640.668	630.785	-0.132	-0.337
-639.653	182.181	0.100	-0.149
-638.638	30.615	-0.278	-0.240
-637.624	-30.626	0.212	0.121
-636.609	152.461	-0.208	0.286
-635.595	111.675	-0.298	-0.363
-634.580	147.921	-0.110	-0.149
-633.565	-200.000	-0.030	-0.474
-632.551	-140.131	0.266	0.028
-631.536	36.554	-0.230	-0.205
-630.522	800.000	-0.077	-0.294
-629.507	193.509	0.072	-0.110
-628.492	800.000	-0.030	-0.110
-627.478	-83.936	-0.358	-0.115
-626.463	-200.000	-0.016	-0.313
-625.449	-89.119	0.191	-0.057
-624.434	-71.045	0.321	0.122
-623.419	-79.407	-0.280	-0.096
-622.405	-91.596	-0.237	-0.068
-621.390	800.000	0.036	0.156
-620.376	-73.155	0.244	-0.090
-619.361	139.639	-0.105	0.140
-618.346	52.972	0.217	0.209
-617.332	-200.000	0.001	-0.165
-616.317	31.008	0.149	0.129
-615.303	-125.079	-0.188	0.029
-614.288	-45.437	-0.114	0.057
-613.273	385.562	0.035	0.073
-612.259	800.000	0.043	0.152
-611.244	111.767	0.146	0.178
-610.230	53.365	0.071	0.069
-609.215	16.624	-0.194	0.155
-608.201	-6.199	0.214	0.148
-607.186	-168.540	0.272	-0.010
-606.171	-12.906	-0.248	0.163
-605.157	-117.040	0.249	-0.046
-604.142	31.628	0.146	0.127
-603.128	-200.000	0.001	0.073
-602.113	265.143	-0.126	-0.222
-601.098	83.854	-0.072	0.079
-600.084	800.000	-0.119	-0.353
-599.069	-98.687	0.271	-0.070
-598.055	109.239	0.213	-0.257
-597.040	21.978	-0.184	-0.151
-596.025	664.767	0.058	-0.150
-595.011	132.903	-0.133	-0.174
-593.996	-200.000	0.021	-0.198
-592.982	27.124	-0.204	-0.173
-591.967	-200.000	-0.023	-0.135
-590.952	-117.595	0.218	-0.040
-589.938	35.894	0.037	0.032
-588.923	-1.946	0.099	-0.070
-587.909	361.660	-0.097	-0.196
-586.894	18.734	-0.257	-0.207
-585.879	13.828	-0.066	-0.052
-584.865	73.175	-0.188	0.198
-583.850	-27.167	0.121	-0.071
-582.836	800.000	-0.073	0.231
-581.821	111.403	-0.212	-0.257
-580.806	760.147	-0.153	0.419
-579.792	-42.589	-0.132	0.068
-578.777	135.563	0.115	-0.151
-577.763	800.000	0.050	-0.186
-576.748	-48.241	0.109	-0.053
-575.733	204.251	0.167	0.260
-574.719	324.790	-0.016	-0.031
-573.704	800.000	0.105	-0.337
-572.690	-200.000	0.017	-0.201
-571.675	98.724	0.097	-0.113
-570.661	-19.611	0.041	-0.026
-569.646	-42.149	0.176	-0.091
-568.631	-116.458	-0.152	-0.028
-567.617	-49.229	-0.365	-0.176
-566.602	166.853	0.025	0.036
-565.588	-200.000	-0.022	0.158
-564.573	-132.309	-0.288	-0.037
-563.558	150.664	-0.242	0.332
-562.544	21.395	0.119	0.097
-561.529	-200.000	0.022	0.116
-560.515	-4.924	-0.253	-0.175
-559.500	-200.000	-0.013	0.121
-558.485	103.841	-0.117	-0.138
-557.471	-36.102	0.174	0.094
-556.456	-3.815	0.271	-0.189
-555.442	-114.462	-0.241	0.047
-554.427	633.299	-0.182	-0.465
-553.412	-46.782	0.195	0.096
-552.398	154.591	0.150	0.207
-551.383	-93.176	-0.116	0.032
-550.369	-45.185	0.293	0.146
-549.354	-200.000	0.014	-0.600
-548.339	-200.000	-0.200	0.001
-547.325	-154.725	-0.393	-0.026
-546.310	-19.907	0.415	-0.258
-545.296	-99.849	0.090	0.023
-544.281	-200.000	0.002	0.029
-543.266	-134.826	0.311	-0.038
-542.252	800.000	-0.060	-0.237
-541.237	159.277	-0.310	-0.433
-540.223	-104.984	-0.081	0.019
-539.208	179.579	-0.064	-0.094
-538.193	113.956	-0.083	0.101
-537.179	195.407	0.101	0.154
-536.164	-105.580	0.162	-0.037
-535.150	81.706	0.062	0.068
-534.135	451.709	-0.102	-0.226
-533.121	687.722	-0.079	-0.207
-532.106	800.000	-0.005	-0.017
-531.091	159.698	0.044	0.061
-530.077	-146.594	0.323	0.028
-529.062	298.843	-0.068	0.126
-528.048	800.000	-0.048	-0.166
-527.033	560.465	-0.075	-0.183
-526.018	-200.000	-0.027	-0.136
-525.004	800.000	-0.074	-0.234
-523.989	28.610	-0.105	-0.090
-522.975	-200.000	0.027	0.195
-521.960	-47.667	-0.239	0.116
-520.945	-14.364	-0.392	0.253
-519.931	-200.000	0.009	-0.087
-518.916	52.425	-0.141	0.135
-517.902	-200.000	-0.031	0.218
-516.887	-81.638	-0.218	0.072
-515.872	-21.825	-0.191	0.117
-514.858	2.420	0.269	0.196
-513.843	-200.000	-0.014	0.090
-512.829	500.546	-0.078	0.182
-511.814	9.748	-0.221	0.168
-510.799	800.000	0.076	-0.280
-509.785	3.280	0.128	-0.094
-508.770	164.911	-0.070	-0.099
-507.756	-136.547	0.315	0.037
-506.741	-102.078	-0.162	0.039
-505.726	-56.965	0.245	0.108
-504.712	78.730	-0.258	0.278
-503.697	800.000	-0.019	-0.062
-502.683	23.399	-0.143	-0.118
-501.668	-118.024	-0.215	-0.039
-500.653	296.305	-0.111	0.204
-499.639	674.869	0.090	0.235
-498.624	-6.082	0.091	0.062
-497.610	531.256	0.032	0.076
-496.595	267.968	-0.110	0.193
-495.581	-26.081	-0.107	0.063
-494.566	293.320	0.085	-0.156
-493.551	11.387	-0.088	0.067
-492.537	267.724	-0.018	-0.032
-491.522	186.120	0.119	0.178
-490.508	-21.487	0.154	-0.094
-489.493	126.803	-0.038	-0.048
-488.478	319.483	-0.061	0.117
-487.464	-187.329	-0.336	-0.005
-486.449	-200.000	0.087	0.440
-485.435	-200.000	-0.034	0.154
-484.420	91.934	0.053	-0.060
-483.405	39.152	0.137	-0.123
-482.391	-200.000	-0.011	-0.081
-481.376	-78.949	-0.177	0.060
-480.362	-91.595	0.131	-0.037
-479.347	33.891	0.075	0.065
-478.332	-23.705	-0.161	0.097
-477.318	17.958	0.082	-0.065
-476.303	448.290	-0.057	-0.125
-475.289	800.000	0.039	0.139
-474.274	-16.393	0.117	-0.074
-473.259	800.000	-0.076	-0.262
-472.245	-137.387	-0.089	-0.010
-471.230	103.784	-0.061	-0.071
-470.216	-92.762	0.174	-0.049
-469.201	40.508	0.322	-0.291
-468.186	21.890	-0.157	-0.128
-467.172	-23.623	0.173	-0.104
-466.157	46.003	-0.158	-0.147
-465.143	-200.000	-0.365	-0.000
-464.128	472.866	-0.213	-0.482
-463.113	-200.000	0.029	0.233
-462.099	72.368	0.259	-0.270
-461.084	-31.656	0.271	0.153
-460.070	-27.207	-0.176	-0.103
-459.055	-200.000	-0.026	0.286
-458.040	-39.077	-0.156	-0.082
-457.026	-29.989	0.219	0.125
-456.011	-5.643	-0.278	0.191
-454.997	61.898	0.082	0.082
-453.982	-80.119	-0.142	-0.048
-452.968	800.000	-0.048	0.160
-451.953	32.592	0.100	0.087
-450.938	-106.634	-0.047	-0.010
-449.924	47.145	0.159	0.148
-448.909	-87.150	-0.119	0.036
-447.895	-158.437	-0.250	0.015
-446.880	-152.475	0.193	-0.014
-445.865	76.256	-0.117	0.124
-444.851	-200.000	0.006	0.263
-443.836	113.172	-0.084	-0.102
-442.822	-87.124	-0.055	0.017
-441.807	735.614	-0.122	0.327
-440.792	-200.000	0.044	0.273
-439.778	280.907	0.199	0.357
-438.763	-200.000	-0.065	0.313
-437.749	-70.125	0.177	-0.067
-436.734	-89.711	0.209	0.061
-435.719	58.165	-0.104	0.102
-434.705	-124.135	-0.092	-0.014
-433.690	-4.718	0.169	0.117
-432.676	314.435	0.059	-0.111
-431.661	-103.055	0.558	-0.132
-430.646	67.240	0.081	-0.083
-429.632	-200.000	-0.081	0.369
-428.617	662.394	-0.138	-0.356
-427.603	-47.891	0.015	0.007
-426.588	-200.000	-0.012	0.341
-425.573	28.088	0.238	-0.201
-424.559	-23.473	-0.243	0.146
-423.544	57.140	-0.150	-0.146
-422.530	800.000	0.088	-0.265
-421.515	-16.263	0.195	-0.124
-420.500	800.000	0.045	-0.149
-419.486	-200.000	-0.018	0.099
-418.471	-3.947	0.171	0.118
-417.457	-200.000	-0.030	-0.177
-416.442	1.786	0.187	0.135
-415.428	-114.117	0.252	-0.049
-414.413	-35.643	-0.131	-0.071
-413.398	-200.000	-0.019	-0.143
-412.384	800.000	-0.043	-0.173
-411.369	-121.264	0.301	-0.050
-410.355	134.675	-0.124	0.161
-409.340	-50.504	0.088	0.041
-408.325	-200.000	0.017	0.337
-407.311	48.911	0.182	0.171
-406.296	53.148	-0.322	0.309
-405.282	-133.246	-0.396	0.050
-404.267	411.883	0.042	-0.090
-403.252	-200.000	0.013	0.134
-402.238	246.370	0.047	-0.079
-401.223	-200.000	0.019	-0.227
-400.209	649.140	0.112	0.285
-399.194	-94.519	0.311	-0.085
-398.179	-87.003	-0.188	-0.057
-397.165	50.351	-0.164	-0.155
-396.150	-61.748	-0.110	-0.046
-395.136	184.731	0.172	0.255
-394.121	19.499	0.170	-0.136
-393.106	-123.682	0.429	-0.068
-392.092	-24.901	-0.347	0.206
-391.077	-200.000	0.002	0.050
-390.063	-82.122	0.055	-0.018
-389.048	800.000	0.053	-0.172
-388.033	-54.167	0.329	-0.149
-387.019	237.310	0.092	0.152
-386.004	-110.916	0.065	-0.013
-384.990	-116.271	0.082	-0.015
-383.975	200.209	0.026	0.040
-382.960	148.626	0.075	0.101
-381.946	-200.000	0.034	0.180
-380.931	-99.368	0.198	-0.050
-379.917	-19.525	0.258	0.160
-378.902	-26.830	-0.254	0.148
-377.888	-98.108	-0.359	-0.092
-376.873	-84.269	-0.375	0.119
-375.858	-124.864	-0.110	-0.017
-374.844	48.923	0.258	0.242
-373.829	-34.265	-0.245	0.134
-372.815	800.000	-0.027	0.092
-371.800	-57.266	-0.204	-0.090
-370.785	82.200	0.018	0.019
-369.771	12.844	-0.055	0.042
-368.756	-1.178	0.171	0.121
-367.742	29.390	0.250	-0.213
-366.727	163.702	-0.170	-0.239
-365.712	705.388	0.093	-0.245
-364.698	92.266	-0.221	0.249
-363.683	-200.000	-0.014	-0.116
-362.669	-200.000	0.024	-0.325
-361.654	634.515	0.062	0.156
-360.639	422.022	-0.052	-0.112
-359.625	704.184	-0.018	0.047
-358.610	-89.053	-0.261	0.077
-357.596	800.000	-0.022	0.074
-356.581	320.195	-0.105	0.199
-355.566	159.376	0.134	-0.186
-354.552	-128.554	-0.081	-0.011
-353.537	348.671	0.178	0.350
-352.523	409.027	-0.017	-0.036
-351.508	339.509	0.136	0.265
-350.493	-95.033	-0.124	0.033
-349.479	-85.589	0.086	0.027
-348.464	68.667	-0.143	-0.146
-347.450	485.955	0.077	-0.175
-346.435	668.997	-0.059	0.151
-345.420	-148.690	0.214	0.017
-344.406	264.423	-0.094	-0.163
-343.391	-89.657	-0.272	-0.079
-342.377	271.875	0.185	-0.325
-341.362	-6.223	-0.085	0.058
-340.348	342.003	0.049	0.096
-339.333	-54.417	-0.307	-0.139
-338.318	416.889	0.136	0.290
-337.304	-73.281	-0.254	-0.093
-336.289	-200.000	0.022	0.147
-335.275	-82.212	-0.225	0.073
-334.260	-200.000	-0.008	-0.316
-333.245	188.435	-0.150	0.223
-332.231	-21.317	0.394	-0.240
-331.216	-102.180	0.302	-0.072
-330.202	-69.530	0.320	-0.122
-329.187	-102.453	0.121	0.029
-328.172	800.000	0.052	0.200
-327.158	191.159	0.117	-0.175
-326.143	800.000	-0.051	-0.207
-325.129	-24.349	0.164	-0.098
-324.114	-200.000	0.038	0.573
-323.099	120.993	-0.109	0.136
-322.085	-5.333	-0.268	-0.184
-321.070	800.000	0.143	-0.537
-320.056	800.000	0.013	-0.044
-319.041	-200.000	-0.028	0.259
-318.026	500.320	-0.122	-0.281
-317.012	343.068	0.135	-0.264
-315.997	224.044	0.040	0.065
-314.983	632.347	0.101	-0.256
-313.968	13.440	0.108	-0.083
-312.953	800.000	0.060	-0.191
-311.939	-76.545	-0.017	0.006
-310.924	-200.000	0.021	0.562
-309.910	-200.000	0.006	0.198
-308.895	-178.165	-0.179	0.004
-307.880	-117.685	0.117	0.021
-306.866	-74.259	-0.184	0.066
-305.851	-200.000	-0.019	-0.145
-304.837	335.511	0.034	-0.065
-303.822	800.000	-0.027	0.111
-302.807	-134.132	0.226	-0.028
-301.793	-101.013	0.627	0.153
-300.778	-92.386	0.406	0.114
-299.764	-107.718	0.553	-0.120
-298.749	419.523	0.171	0.364
-297.735	-200.000	0.087	0.453
-296.720	-112.083	-0.199	0.040
-295.705	3.674	0.240	0.174
-294.691	285.519	0.108	0.194
-293.676	800.000	0.057	0.160
-292.662	-200.000	0.005	0.045
-291.647	800.000	-0.054	0.190
-290.632	-88.876	0.285	-0.084
-289.618	800.000	-0.051	-0.144
-288.603	-96.008	-0.249	0.066
-287.589	108.571	-0.114	0.135
-286.574	-200.000	0.001	-0.192
-285.559	-6.558	-0.287	0.195
-284.545	25.016	0.055	-0.045
-283.530	-200.000	-0.028	-0.193
-282.516	-92.131	-0.288	-0.081
-281.501	13.559	0.235	0.182
-280.486	-200.000	0.008	-0.308
-279.472	-127.086	-0.573	0.084
-278.457	106.303	0.144	-0.170
-277.443	-79.265	-0.072	0.024
-276.428	280.574	-0.055	-0.098
-275.413	-36.884	-0.298	0.159
-274.399	800.000	0.026	0.087
-273.384	-200.000	0.017	-0.128
-272.370	-95.088	0.355	-0.095
-271.355	-122.058	-0.326	-0.053
-270.340	-46.746	0.251	-0.122
-269.326	-200.000	-0.015	0.182
-268.311	-200.000	-0.022	0.188
-267.297	-10.170	0.259	-0.171
-266.282	800.000	0.044	0.149
-265.267	-60.727	-0.231	0.097
-264.253	-41.501	0.147	-0.075
-263.238	55.132	0.123	0.118
-262.224	-200.000	-0.047	-0.425
-261.209	-46.210	0.217	-0.106
-260.195	800.000	-0.067	0.246
-259.180	-200.000	0.046	-0.408
-258.165	410.416	-0.083	-0.175
-257.151	-200.000	-0.005	0.168
-256.136	-200.000	-0.009	0.130
-255.122	-33.443	0.319	-0.175
-254.107	43.410	0.054	-0.049
-253.092	335.329	0.088	-0.170
-252.078	1.452	-0.300	-0.215
-251.063	-200.000	0.050	0.274
-250.049	325.156	-0.129	0.245
-249.034	679.366	-0.152	-0.394
-248.019	-200.000	0.076	-0.447
-247.005	421.250	0.064	-0.137
-245.990	364.079	-0.021	-0.042
-244.976	-174.579	0.470	0.013
-243.961	120.396	0.175	0.216
-242.946	800.000	-0.055	-0.194
-241.932	-200.000	0.033	0.274
-240.917	209.187	0.152	-0.237
-239.903	800.000	-0.113	-0.348
-238.888	-1.908	-0.366	0.256
-237.873	49.173	0.286	-0.267
-236.859	522.709	-0.031	-0.072
-235.844	-200.000	-0.011	-0.098
-234.830	800.000	0.057	0.221
-233.815	-66.688	-0.172	0.068
-232.800	-200.000	0.008	0.195
-231.786	-129.488	0.287	0.039
-230.771	-200.000	0.044	-0.222
-229.757	-68.505	-0.189	0.073
-228.742	-200.000	-0.023	0.128
-227.727	434.376	0.055	0.119
-226.713	-200.000	-0.036	0.227
-225.698	-18.987	-0.132	0.082
-224.684	-166.671	-0.108	-0.004
-223.669	800.000	0.046	-0.148
-222.655	157.646	-0.178	0.245
-221.640	-52.936	0.407	0.186
-220.625	41.426	-0.216	-0.194
-219.611	243.590	0.065	-0.107
-218.596	800.000	0.049	0.138
-217.582	-12.625	-0.164	0.106
-216.567	-200.000	-0.026	0.209
-215.552	800.000	-0.059	0.163
-214.538	-200.000	0.046	0.000
-213.523	-183.305	-0.199	0.003
-212.509	-35.413	0.065	0.035
-211.494	7.050	-0.100	0.074
-210.479	-144.534	0.281	-0.026
-209.465	800.000	-0.100	0.420
-208.450	-148.196	-0.167	-0.014
-207.436	-182.042	-0.105	0.002
-206.421	-200.000	-0.014	0.063
-205.406	-197.995	-0.394	-0.002
-204.392	214.386	0.052	-0.082
-203.377	800.000	-0.042	-0.136
-202.363	800.000	-0.031	0.115
-201.348	173.387	-0.241	-0.345
-200.333	137.114	0.233	0.302
-199.319	36.045	0.165	-0.144
-198.304	800.000	-0.009	-0.027
-197.290	23.927	-0.056	0.046
-196.275	-187.969	0.184	0.002
-195.260	-41.234	0.240	0.123
-194.246	43.716	-0.253	-0.229
-193.231	-96.597	-0.324	-0.085
-192.217	186.766	0.073	-0.107
-191.202	-200.000	-0.032	-0.216
-190.187	6.914	-0.064	0.047
-189.173	-200.000	0.032	0.153
-188.158	-200.000	0.036	-0.234
-187.144	-200.000	0.037	0.182
-186.129	408.867	-0.190	0.399
-185.114	-193.982	0.204	0.002
-184.100	4.352	0.396	-0.288
-183.085	564.135	-0.066	-0.158
-182.071	-200.000	0.005	0.052
-181.056	41.425	-0.187	0.168
-180.042	103.899	-0.211	-0.246
-179.027	-200.000	-0.012	-0.295
-178.012	-200.000	0.011	0.229
-176.998	-200.000	-0.002	-0.041
-175.983	-76.430	-0.232	0.081
-174.969	-127.297	0.459	-0.066
-173.954	231.236	-0.118	0.191
-172.939	24.837	0.141	-0.116
-171.925	-200.000	0.002	-0.046
-170.910	-200.000	-0.033	0.202
-169.896	163.999	-0.014	0.020
-168.881	-14.246	0.171	-0.109
-167.866	-173.756	0.176	0.005
-166.852	-200.000	-0.090	0.692
-165.837	9.095	0.335	0.251
-164.823	689.743	0.013	-0.035
-163.808	155.122	-0.141	0.192
-162.793	280.606	-0.109	-0.193
-161.779	-10.641	0.134	-0.088
-160.764	-163.233	0.320	-0.015
-159.750	-92.341	-0.246	0.069
-158.735	7.025	0.201	0.148
-157.720	-200.000	0.039	0.252
-156.706	-191.412	-0.143	-0.001
-155.691	141.104	0.100	0.132
-154.677	20.352	0.357	0.286
-153.662	177.039	-0.112	-0.162
-152.647	-157.612	-0.234	0.014
-151.633	-100.322	0.042	-0.010
-150.618	-50.384	0.431	0.202
-149.604	-165.608	0.211	-0.009
-148.589	-107.872	0.318	-0.068
-147.574	-73.066	-0.155	0.056
-146.560	-117.256	-0.156	-0.028
-145.545	-135.008	0.318	0.038
-144.531	223.917	0.101	-0.162
-143.516	575.245	0.125	-0.303
-142.502	-27.091	0.443	-0.256
-141.487	64.604	0.090	0.090
-140.472	-200.000	-0.019	-0.096
-139.458	-20.062	0.197	-0.120
-138.443	-143.033	0.203	0.019
-137.429	-95.759	0.192	0.051
-136.414	-52.394	-0.243	0.111
-135.399	-93.206	0.121	-0.033
-134.385	138.495	-0.092	-0.119
-133.370	-38.383	0.059	-0.031
-132.356	-68.175	0.275	-0.106
-131.341	207.405	0.094	0.145
-130.326	58.354	0.240	0.233
-129.312	-108.431	0.145	-0.031
-128.297	113.504	0.144	-0.173
-127.283	-200.000	0.008	-0.827
-126.268	-80.464	-0.194	-0.064
-125.253	62.782	-0.127	-0.126
-124.239	800.000	0.078	-0.221
-123.224	154.797	0.110	-0.149
-122.210	-46.374	-0.151	-0.074
-121.195	-118.357	0.144	0.025
-120.180	-74.312	-0.159	-0.057
-119.166	-178.400	-0.328	0.008
-118.151	-200.000	-0.002	-0.025
-117.137	-102.205	0.080	0.019
-116.122	-63.669	0.235	-0.095
-115.107	-74.899	-0.160	0.057
-114.093	-106.395	-0.273	-0.060
-113.078	800.000	0.115	-0.320
-112.064	-82.430	0.262	-0.084
-111.049	366.885	-0.093	-0.186
-110.034	68.678	-0.130	-0.132
-109.020	-200.000	0.028	-0.164
-108.005	27.732	0.193	-0.160
-106.991	800.000	0.020	0.056
-105.976	-39.415	-0.277	0.144
-104.962	263.597	0.213	0.367
-103.947	800.000	0.036	-0.134
-102.932	99.170	0.195	-0.223
-101.918	-58.972	-0.348	0.149
-100.903	-21.399	0.059	0.035
-99.889	-14.370	0.218	0.139
-98.874	-146.924	0.384	-0.033
-97.859	47.384	-0.195	-0.180
-96.845	161.739	0.204	-0.283
-95.830	-200.000	-0.025	0.118
-94.816	203.778	0.122	-0.187
-93.801	48.101	0.118	-0.109
-92.786	4.780	0.320	0.232
-91.772	42.495	0.236	0.212
-90.757	343.579	-0.077	0.149
-89.743	11.018	-0.244	0.184
-88.728	439.309	-0.065	0.140
-87.713	-200.000	0.011	-0.098
-86.699	800.000	0.080	0.227
-85.684	-90.167	-0.338	-0.097
-84.670	12.458	0.112	-0.085
-83.655	-139.936	-0.290	0.030
-82.640	174.913	-0.031	0.044
-81.626	267.950	0.196	0.340
-80.611	800.000	0.035	0.131
-79.597	187.772	-0.163	0.241
-78.582	800.000	0.032	-0.090
-77.567	279.819	-0.133	-0.234
-76.553	313.720	-0.088	-0.164
-75.538	151.698	-0.261	-0.352
-74.524	270.188	0.065	-0.113
-73.509	602.135	0.081	-0.199
-72.494	143.571	-0.107	-0.141
-71.480	800.000	-0.076	0.217
-70.465	-67.271	0.248	-0.096
-69.451	800.000	0.101	0.299
-68.436	177.454	-0.139	-0.199
-67.422	76.552	0.171	-0.179
-66.407	80.625	-0.200	0.213
-65.392	600.283	0.041	-0.100
-64.378	35.988	-0.394	0.342
-63.363	125.816	0.219	0.273
-62.349	-2.916	0.233	0.160
-61.334	148.152	-0.853	-1.136
-60.319	77.598	0.579	0.608
-59.305	189.756	-0.529	-0.783
-58.290	166.174	0.571	0.798
-57.276	687.706	0.653	1.685
-56.261	-200.000	102.236	625.320
-55.246	621.264	1441.846	3579.089
-54.232	178.745	2663.841	3840.595
-53.217	119.082	2216.731	2704.235
-52.203	43.910	1743.461	1575.658
-51.188	36.239	1555.526	1352.250
-50.173	33.890	1527.989	1312.060
-49.159	54.100	1580.971	1499.980
-48.144	57.029	1599.446	1537.997
-47.130	36.741	1553.349	1353.653
-46.115	33.365	1537.877	1316.692
-45.100	33.216	1534.387	1312.615
-44.086	33.126	1533.521	1311.197
-43.071	33.124	1531.271	1309.210
-42.057	33.144	1529.421	1307.710
-41.042	33.092	1528.275	1306.325
-40.027	33.198	1526.471	1305.461
-39.013	33.209	1524.482	1303.786
-37.998	33.081	1524.242	1302.648
-36.984	33.181	1522.703	1301.968
-35.969	33.212	1521.006	1300.678
-34.954	33.092	1520.333	1299.224
-33.940	33.098	1519.212	1298.258
-32.925	33.144	1517.182	1296.783
-31.911	33.183	1515.696	1295.732
-30.896	33.223	1514.447	1294.887
-29.881	33.145	1513.333	1293.347
-28.867	33.135	1512.401	1292.432
-27.852	33.230	1510.527	1291.430
-26.838	33.225	1509.030	1290.066
-25.823	33.131	1507.797	1288.319
-24.809	33.155	1505.718	1286.653
-23.794	33.156	1504.487	1285.559
-22.779	33.103	1503.624	1284.410
-21.765	33.237	1502.077	1283.942
-20.750	33.247	1500.607	1282.704
-19.736	33.131	1500.046	1281.389
-18.721	33.133	1498.977	1280.438
-17.706	33.130	1497.532	1279.130
-16.692	33.081	1496.588	1277.947
-15.677	33.024	1496.065	1277.065
-14.663	33.028	1495.227	1276.319
-13.648	33.110	1493.681	1275.503
-12.633	33.097	1492.801	1274.614
-11.619	33.025	1492.267	1273.625
-10.604	33.136	1490.851	1273.112
-9.590	33.049	1490.468	1272.146
-8.575	32.969	1489.597	1270.820
-7.560	33.007	1489.079	1270.577
-6.546	32.964	1488.323	1269.594
-5.531	32.882	1487.304	1268.127
-4.517	33.036	1485.291	1267.395
-3.502	32.916	1484.931	1266.227
-2.487	32.952	1483.782	1265.443
-1.473	33.101	1482.515	1265.310
-0.458	33.073	1481.449	1264.161
0.556	31.458	1472.456	1254.875
1.571	29.234	1446.012	1217.553
2.586	26.230	1385.579	1147.513
3.600	24.906	1303.824	1071.790
4.615	23.346	1258.717	1025.593
5.629	19.084	1199.305	953.537
6.644	8.874	1109.269	829.295
7.659	1.270	1067.012	759.676
8.673	0.264	1061.201	750.463
9.688	0.114	1058.356	747.640
10.702	0.066	1056.384	745.941
11.717	-0.033	1054.742	744.229
12.731	3.324	1058.920	763.776
13.746	13.130	1072.722	822.717
14.761	20.301	1082.558	866.107
15.775	21.830	1083.779	874.642
16.790	21.970	1083.014	874.645
17.804	21.845	1082.038	873.155
18.819	21.660	1081.281	871.547
19.834	21.672	1080.699	871.060
20.848	21.891	1080.214	871.682
21.863	21.877	1079.950	871.321
22.877	21.887	1079.209	870.696
23.892	21.794	1078.907	869.913
24.907	21.698	1077.831	868.491
25.921	21.689	1077.311	867.951
26.936	21.815	1076.394	867.760
27.950	21.813	1074.952	866.513
28.965	21.796	1074.040	865.617
29.980	21.664	1072.416	863.578
30.994	21.680	1071.100	862.520
32.009	21.920	1070.201	862.901
33.023	21.936	1069.739	862.529
34.038	21.671	1068.633	860.264
35.053	21.666	1067.762	859.462
36.067	21.818	1067.093	859.592
37.082	21.859	1066.264	859.048
38.096	21.781	1066.016	858.392
39.111	21.928	1065.227	858.399
40.126	22.106	1064.182	858.351
41.140	22.001	1063.030	856.833
42.155	21.789	1061.370	854.384
43.169	21.508	1060.281	852.065
44.184	21.388	1059.422	850.718
45.199	21.550	1058.285	850.513
46.213	21.487	1057.033	849.130
47.228	21.373	1056.063	847.722
48.242	21.557	1055.396	848.003
49.257	21.706	1054.425	847.866
50.271	21.781	1053.634	847.519
51.286	21.884	1052.995	847.425
52.301	21.901	1052.325	846.898
53.315	21.834	1051.894	846.152
54.330	21.860	1050.569	845.134
55.344	21.717	1050.053	843.958
56.359	21.734	1049.191	843.270
57.374	21.867	1047.876	842.776
58.388	21.706	1047.079	841.291
59.403	21.563	1046.205	839.827
60.417	21.643	1045.591	839.645
61.432	21.457	1044.281	837.627
62.447	21.554	1043.802	837.630
63.461	21.687	1043.235	837.738
64.476	21.661	1042.783	837.180
65.490	21.704	1041.349	836.158
66.505	21.544	1040.312	834.487
67.520	21.536	1039.748	833.923
68.534	21.657	1039.252	834.030
69.549	21.446	1038.315	832.201
70.563	21.234	1036.480	829.650
71.578	21.102	1036.124	828.660
72.593	21.224	1034.869	828.163
73.607	21.031	1033.478	826.063
74.622	21.124	1032.524	825.667
75.636	21.423	1032.227	826.770
76.651	21.391	1031.824	826.226
77.666	21.445	1030.195	825.099
78.680	21.345	1029.286	823.828
79.695	21.305	1029.295	823.575
80.709	21.327	1028.835	823.238
81.724	21.620	1027.681	823.618
82.739	21.442	1026.768	821.976
83.753	21.486	1026.123	821.594
84.768	21.656	1025.753	822.026
85.782	22.098	1024.859	823.306
86.797	22.068	1024.572	822.863
87.812	22.001	1023.739	821.807
88.826	21.851	1022.306	819.883
89.841	21.906	1021.939	819.774
90.855	22.154	1020.862	819.995
91.870	22.099	1020.058	819.021
92.884	22.081	1019.226	818.194
93.899	22.024	1018.287	817.107
94.914	21.814	1017.567	815.480
95.928	21.875	1016.917	815.170
96.943	22.059	1015.789	815.045
97.957	21.667	1014.705	812.289
98.972	21.621	1013.449	810.996
99.987	21.378	1012.615	809.131
101.001	21.408	1011.548	808.349
102.016	21.849	1010.716	809.649
103.030	21.765	1010.323	808.872
104.045	21.767	1008.904	807.676
105.060	21.578	1007.759	805.815
106.074	21.426	1006.400	803.961
107.089	21.498	1005.642	803.616
108.103	21.741	1005.707	804.714
109.118	21.858	1004.273	804.028
110.133	21.635	1003.583	802.386
111.147	21.596	1002.294	801.103
112.162	21.426	1001.238	799.413
113.176	21.344	999.924	797.918
114.191	21.390	999.061	797.367
115.206	21.459	998.052	796.805
116.220	21.275	996.870	794.953
117.235	21.019	996.344	793.301
118.249	21.340	995.620	794.114
119.264	21.256	994.608	792.854
120.279	21.159	993.783	791.686
121.293	21.193	992.789	790.981
122.308	21.270	992.472	791.007
123.322	21.363	991.560	790.629
124.337	21.251	990.655	789.332
125.352	21.192	988.887	787.587
126.366	20.819	987.167	784.468
127.381	20.524	985.781	781.972
128.395	21.115	985.329	784.199
129.410	21.642	985.328	786.495
130.424	21.794	984.381	786.354
131.439	21.800	983.536	785.637
132.454	21.621	982.880	784.240
133.468	21.844	981.251	783.867
134.483	21.654	980.727	782.532
135.497	21.655	980.293	782.119
136.512	21.894	979.820	782.738
137.527	21.929	979.375	782.469
138.541	21.968	978.068	781.532
139.556	22.001	977.164	780.888
140.570	21.940	976.476	779.995
141.585	22.086	975.213	779.565
142.600	22.140	974.437	779.117
143.614	21.899	973.608	777.319
144.629	21.952	973.100	777.076
145.643	22.265	972.088	777.586
146.658	22.201	970.750	776.162
147.673	22.092	969.421	774.552
148.687	21.947	968.725	773.288
149.702	21.863	967.323	771.730
150.716	21.786	966.328	770.529
151.731	21.684	965.380	769.258
152.746	21.745	965.122	769.253
153.760	21.985	964.156	769.465
154.775	22.065	963.864	769.517
155.789	22.093	963.065	768.931
156.804	22.081	961.937	767.911
157.819	22.130	960.257	766.717
158.833	22.094	959.721	766.064
159.848	22.234	959.385	766.339
160.862	22.291	958.579	765.876
161.877	22.060	957.641	764.052
162.892	22.063	956.477	763.071
163.906	22.176	955.476	762.691
164.921	22.073	954.685	761.547
165.935	21.997	953.642	760.320
166.950	22.017	952.790	759.661
167.964	22.061	951.887	759.063
168.979	22.048	950.921	758.170
169.994	22.013	949.529	756.840
171.008	21.926	948.745	755.775
172.023	22.171	947.643	755.885
173.037	22.176	946.835	755.196
174.052	21.900	946.148	753.395
175.067	21.752	944.859	751.666
176.081	21.675	944.481	750.969
177.096	21.891	943.410	750.977
178.110	21.974	942.797	750.776
179.125	21.668	941.585	748.438
180.140	21.490	940.408	746.677
181.154	21.593	939.620	746.423
182.169	21.492	939.715	746.000
183.183	21.812	939.087	746.802
184.198	22.173	938.322	747.661
185.213	21.967	938.086	746.532
186.227	22.029	937.044	745.902
187.242	22.099	936.507	745.703
188.256	22.076	935.934	745.085
189.271	22.110	935.042	744.452
190.286	22.103	934.167	743.662
191.300	21.945	933.414	742.329
192.315	21.427	932.086	739.018
193.329	20.861	930.356	735.191
194.344	20.463	929.405	732.695
195.359	21.159	929.189	735.396
196.373	21.860	929.889	738.838
197.388	22.160	929.300	739.568
198.402	21.974	928.967	738.455
199.417	22.093	927.925	738.059
200.432	21.945	927.306	736.880
201.446	21.778	926.969	735.848
202.461	21.524	926.263	734.157
203.475	21.667	925.880	734.386
204.490	21.232	924.213	731.181
205.504	20.108	922.094	724.742
206.519	20.393	922.182	725.939
207.534	21.448	922.660	730.659
208.548	21.628	922.141	730.935
209.563	21.940	921.697	731.820
210.577	21.913	921.017	731.102
211.592	21.663	920.023	729.208
212.607	21.949	920.126	730.415
213.621	22.185	919.252	730.640
214.636	22.231	918.382	730.073
215.650	22.142	917.896	729.255
216.665	22.058	917.658	728.651
217.680	22.066	917.388	728.407
218.694	22.182	916.759	728.322
219.709	21.871	915.704	726.133
220.723	21.631	914.672	724.259
221.738	21.820	914.065	724.493
222.753	21.956	913.579	724.607
223.767	21.783	913.045	723.405
224.782	21.986	912.007	723.354
225.796	22.155	911.591	723.655
226.811	22.259	911.000	723.553
227.826	21.891	910.029	721.204
228.840	21.120	908.191	716.520
229.855	21.083	907.798	715.994
230.869	21.258	907.666	716.543
231.884	21.007	906.083	714.205
232.899	21.036	905.446	713.758
233.913	21.896	905.851	717.534
234.928	21.921	905.888	717.600
235.942	21.790	905.246	716.491
236.957	21.963	904.099	716.229
237.972	21.638	903.391	714.278
238.986	21.589	902.539	713.342
240.001	21.719	901.540	713.017
241.015	21.596	901.264	712.236
242.030	21.699	900.350	711.869
243.045	21.797	900.068	711.983
244.059	21.948	899.786	712.309
245.074	22.159	899.049	712.518
246.088	22.057	898.222	711.387
247.103	21.609	897.266	708.751
248.117	21.633	896.985	708.565
249.132	22.236	896.897	710.870
250.147	22.670	896.353	712.132
251.161	22.795	895.535	711.920
252.176	22.717	895.576	711.576
253.190	22.857	894.774	711.442
254.205	22.719	894.464	710.575
255.220	22.937	894.070	711.075
256.234	22.886	893.304	710.200
257.249	22.892	892.694	709.675
258.263	22.770	892.011	708.579
259.278	22.797	891.437	708.171
260.293	22.862	891.092	708.095
261.307	22.913	890.428	707.709
262.322	22.858	889.612	706.777
263.336	22.816	888.537	705.690
264.351	22.172	887.391	702.146
265.366	21.129	885.268	696.245
266.380	20.570	884.777	693.572
267.395	21.666	884.855	697.939
268.409	22.436	885.167	701.190
269.424	22.292	884.136	699.741
270.439	22.550	883.808	700.446
271.453	22.646	883.423	700.458
272.468	22.616	882.604	699.629
273.482	22.862	882.061	700.112
274.497	22.956	881.669	700.109
275.512	22.772	880.749	698.591
276.526	22.255	878.922	695.034
277.541	22.319	878.993	695.284
278.555	22.760	878.734	696.760
279.570	22.557	877.967	695.286
280.585	22.284	877.438	693.732
281.599	22.260	876.978	693.212
282.614	22.467	876.051	693.230
283.628	22.205	874.767	691.127
284.643	21.837	874.104	689.094
285.657	22.148	874.345	690.447
286.672	22.033	873.616	689.356
287.687	21.705	872.425	687.072
288.701	21.995	872.497	688.203
289.716	22.298	872.241	689.126
290.730	22.054	871.075	687.193
291.745	21.820	870.663	685.889
292.760	21.752	869.353	684.534
293.774	21.646	868.559	683.433
294.789	22.507	869.267	687.291
295.803	23.217	869.154	689.907
296.818	23.146	869.099	689.527
297.833	23.320	868.451	689.628
298.847	23.045	867.378	687.645
299.862	22.580	866.078	684.750
300.876	22.828	865.891	685.502
301.891	23.167	865.667	686.580
302.906	23.168	864.935	685.943
303.920	22.821	863.896	683.714
304.935	22.756	863.068	682.748
305.949	22.988	862.555	683.178
306.964	23.134	862.583	683.706
307.979	22.949	861.466	682.045
308.993	22.849	861.027	681.252
310.008	23.199	860.871	682.417
311.022	23.297	860.152	682.166
312.037	23.134	859.596	681.037
313.052	22.943	859.038	679.798
314.066	23.015	857.607	678.883
315.081	22.250	856.738	675.199
316.095	21.406	855.823	671.181
317.110	21.972	855.816	673.287
318.125	22.809	856.130	676.685
319.139	22.408	855.199	674.354
320.154	21.416	853.064	668.818
321.168	20.942	852.213	666.278
322.183	21.503	852.418	668.523
323.197	22.292	852.768	671.756
324.212	22.718	852.389	673.024
325.227	22.846	851.974	673.122
326.241	23.076	851.636	673.673
327.256	22.993	850.859	672.684
328.270	22.890	850.169	671.686
329.285	22.703	849.804	670.626
330.300	22.651	848.662	669.469
331.314	22.444	847.990	668.096
332.329	22.446	847.602	667.737
333.343	22.826	847.199	668.799
334.358	22.973	846.929	669.083
335.373	23.049	846.352	668.858
336.387	22.913	846.067	668.058
337.402	23.252	845.840	669.100
338.416	23.431	845.082	669.118
339.431	23.438	844.484	668.611
340.446	23.460	843.762	668.064
341.460	23.506	843.441	667.924
342.475	23.747	842.949	668.383
343.489	23.472	842.066	666.589
344.504	23.480	841.535	666.141
345.519	23.680	841.447	666.762
346.533	23.840	840.906	666.876
347.548	23.842	840.747	666.697
348.562	24.015	839.871	666.591
349.577	23.753	839.616	665.351
350.592	23.811	838.974	665.000
351.606	23.723	838.536	664.266
352.621	23.860	837.894	664.209
353.635	23.641	837.534	663.047
354.650	23.630	836.832	662.392
355.665	23.373	835.762	660.528
356.679	22.234	834.266	655.046
357.694	22.200	833.878	654.557
358.708	22.771	833.676	656.464
359.723	22.593	833.427	655.550
360.738	23.112	832.583	656.754
361.752	23.395	832.599	657.762
362.767	23.519	832.381	657.988
363.781	23.794	831.875	658.551
364.796	24.043	832.078	659.576
365.810	24.013	831.776	659.168
366.825	24.057	831.601	659.134
367.840	24.330	830.819	659.463
368.854	23.917	830.126	657.328
369.869	23.607	829.099	655.312
370.883	23.500	828.607	654.472
371.898	23.650	827.732	654.274
372.913	23.536	826.933	653.165
373.927	23.451	826.282	652.281
374.942	23.712	826.138	653.072
375.956	23.801	825.392	652.752
376.971	23.719	825.485	652.464
377.986	23.956	824.543	652.534
379.000	24.041	824.375	652.654
380.015	24.064	823.657	652.112
381.029	23.945	823.016	651.111
382.044	23.864	822.549	650.388
383.059	24.267	821.897	651.285
384.073	24.188	821.128	650.331
385.088	24.180	820.908	650.072
386.102	24.134	820.453	649.486
387.117	23.887	819.582	647.838
388.132	23.883	819.418	647.638
389.146	23.725	818.482	646.265
390.161	23.026	817.733	643.075
391.175	23.257	817.198	643.435
392.190	23.701	817.102	644.916
393.205	23.790	816.389	644.619
394.219	22.762	815.052	639.782
395.234	21.244	812.681	632.373
396.248	20.436	811.660	628.597
397.263	21.614	812.521	633.474
398.278	23.338	813.711	640.586
399.292	23.727	813.867	642.060
400.307	23.420	813.073	640.267
401.321	23.419	812.540	639.786
402.336	23.502	812.330	639.863
403.350	23.761	812.301	640.720
404.365	24.207	812.081	642.096
405.380	24.631	811.307	642.954
406.394	24.698	811.485	643.280
407.409	24.921	811.210	643.808
408.423	24.724	810.816	642.726
409.438	24.712	810.247	642.177
410.453	24.691	809.950	641.810
411.467	24.753	809.432	641.565
412.482	24.770	808.664	640.960
413.496	24.678	808.304	640.287
414.511	24.696	808.174	640.192
415.526	24.830	807.614	640.170
416.540	24.809	807.070	639.609
417.555	24.856	806.374	639.167
418.569	24.537	805.751	637.481
419.584	24.486	805.079	636.710
420.599	24.555	804.536	636.472
421.613	154.708	1365.458	1793.399
422.628	134.332	1447.193	1793.496
