DTS Sentinel unit serial number:	SN413079Multiplexer serial number:	ORYXHardware model number:	OX4-SRSoftware version number:	ORYX F/W v4.00 Oryx Data Collector v3.7.2.0data status	okinstallation	princeton_trtdifferential loss correction	single-endedforward channel	channel 3reverse channel	N/Adate	2019/09/11time	22:30:11forward acquisition time	60.00reverse acquisition time	0.00gamma	496.2192k internal	0.2314k external	0.2314temperature offset calibration	1.0052default loss term (dB/km)	0.3790temperature slope calibration	1.0000multiplexer offset coefficient	1.0000multiplexer slope coefficient	1.0000fibre end	0.00T internal ref (°C)	35.06T ext. ref 1 (°C)	1.79T ext. ref 2 (°C)	29.40length (m)	temperature (°C)	Stokes	anti-Stokes-747.200	267.417	-0.140	-0.248
-746.185	211.391	0.167	0.267
-745.171	6.556	0.170	-0.128
-744.156	-31.025	-0.364	0.208
-743.142	124.068	0.230	0.293
-742.127	-200.000	0.019	0.435
-741.112	-200.000	-0.027	0.578
-740.098	-151.735	0.175	-0.013
-739.083	800.000	0.066	-0.217
-738.069	474.870	-0.226	0.517
-737.054	-158.860	0.194	-0.011
-736.039	13.534	0.220	-0.173
-735.025	-170.443	0.388	-0.014
-734.010	484.505	-0.100	-0.231
-732.996	99.979	-0.055	-0.065
-731.981	-12.001	0.013	0.009
-730.966	82.107	0.080	-0.088
-729.952	183.348	-0.172	0.258
-728.937	-113.933	-0.077	0.015
-727.923	-29.768	0.112	-0.065
-726.908	160.729	0.254	0.360
-725.894	-58.381	-0.493	0.217
-724.879	-51.717	-0.191	-0.090
-723.864	142.457	0.090	-0.121
-722.850	335.948	-0.112	0.221
-721.835	-200.000	-0.027	0.126
-720.821	-58.373	0.238	0.105
-719.806	36.998	-0.168	-0.150
-718.791	238.727	0.020	-0.034
-717.777	-99.358	-0.157	0.040
-716.762	212.223	-0.174	-0.278
-715.748	-164.325	0.220	-0.010
-714.733	68.761	-0.179	0.186
-713.718	376.930	0.182	0.377
-712.704	-81.771	-0.076	-0.025
-711.689	547.104	0.040	-0.098
-710.675	-22.394	0.124	-0.076
-709.660	-12.964	0.171	-0.113
-708.645	-200.000	0.019	0.124
-707.631	120.790	0.065	-0.082
-706.616	23.132	0.081	-0.068
-705.602	21.549	-0.270	-0.223
-704.587	-200.000	-0.071	-0.437
-703.572	-153.984	0.078	0.005
-702.558	-58.454	-0.320	0.141
-701.543	-140.574	0.038	-0.004
-700.529	-200.000	0.025	-0.504
-699.514	46.821	-0.096	-0.090
-698.499	-53.702	0.228	0.105
-697.485	-111.965	0.327	-0.067
-696.470	337.214	0.088	-0.173
-695.456	-200.000	-0.033	-0.304
-694.441	-134.825	0.376	-0.046
-693.426	-142.552	-0.074	0.007
-692.412	800.000	0.069	-0.235
-691.397	-200.000	0.009	0.103
-690.383	-200.000	0.027	0.296
-689.368	-200.000	0.014	0.321
-688.354	-75.311	0.214	-0.077
-687.339	143.211	0.177	-0.238
-686.324	127.322	-0.175	-0.225
-685.310	-140.628	0.224	0.023
-684.295	69.673	-0.087	-0.090
-683.281	321.716	0.069	0.133
-682.266	-131.162	-0.259	0.035
-681.251	216.868	-0.126	-0.203
-680.237	-117.775	-0.206	0.037
-679.222	-200.000	-0.153	0.000
-678.208	-83.579	0.142	-0.046
-677.193	-159.312	0.235	-0.013
-676.178	66.808	-0.109	0.113
-675.164	800.000	0.014	0.045
-674.149	-200.000	0.020	0.141
-673.135	-79.480	-0.227	0.077
-672.120	105.986	0.227	-0.272
-671.105	-200.000	0.035	0.156
-670.091	-24.718	0.194	0.116
-669.076	800.000	-0.036	0.138
-668.062	273.422	-0.132	0.235
-667.047	800.000	-0.044	-0.165
-666.032	-53.104	-0.102	0.047
-665.018	-110.237	0.168	-0.035
-664.003	-59.373	0.074	-0.032
-662.989	23.677	-0.189	-0.157
-661.974	-128.964	0.104	-0.015
-660.959	-91.271	-0.161	0.047
-659.945	-69.431	0.292	-0.113
-658.930	800.000	0.060	0.252
-657.916	704.106	0.073	0.195
-656.901	30.792	-0.036	-0.031
-655.886	-36.245	0.279	0.152
-654.872	217.991	0.102	0.164
-653.857	-200.000	0.003	-0.044
-652.843	-193.745	-0.334	0.003
-651.828	-200.000	-0.009	-0.498
-650.814	41.718	-0.097	-0.089
-649.799	-11.511	0.385	-0.256
-648.784	800.000	-0.073	0.278
-647.770	37.868	0.062	0.056
-646.755	-89.627	-0.440	0.130
-645.741	-174.315	-0.089	-0.003
-644.726	175.452	-0.106	0.155
-643.711	174.561	-0.094	0.137
-642.697	800.000	-0.082	-0.256
-641.682	800.000	0.064	-0.267
-640.668	69.232	0.146	-0.152
-639.653	-200.000	0.054	-0.266
-638.638	31.613	-0.151	0.131
-637.624	44.457	-0.217	0.202
-636.609	-14.888	-0.247	0.160
-635.595	628.521	0.051	0.129
-634.580	-43.632	0.071	0.036
-633.565	-68.120	-0.118	-0.046
-632.551	132.004	0.178	-0.232
-631.536	800.000	-0.179	-0.622
-630.522	245.282	0.039	0.067
-629.507	19.640	0.053	0.043
-628.492	-132.827	-0.092	-0.012
-627.478	-105.618	-0.098	0.022
-626.463	87.772	-0.037	-0.041
-625.449	174.590	-0.062	-0.090
-624.434	-200.000	-0.004	0.166
-623.419	800.000	-0.052	-0.194
-622.405	-65.885	0.192	-0.078
-621.390	-9.961	0.333	0.223
-620.376	-200.000	-0.005	-0.131
-619.361	199.910	0.056	-0.086
-618.346	350.862	-0.083	0.166
-617.332	800.000	0.057	0.193
-616.317	-68.551	0.208	0.081
-615.303	22.807	-0.209	0.173
-614.288	-34.178	0.131	0.073
-613.273	-110.381	0.340	0.071
-612.259	-110.043	-0.259	-0.055
-611.244	553.535	0.122	0.296
-610.230	151.560	0.090	-0.123
-609.215	-200.000	-0.011	-0.276
-608.201	-106.135	0.256	0.058
-607.186	177.306	-0.197	0.289
-606.171	328.768	0.087	-0.169
-605.157	-200.000	-0.012	-0.163
-604.142	233.240	-0.208	-0.345
-603.128	423.109	0.166	-0.360
-602.113	-200.000	-0.170	0.001
-601.098	12.236	-0.054	0.042
-600.084	86.158	0.104	0.116
-599.069	-158.212	-0.087	0.005
-598.055	800.000	-0.014	0.055
-597.040	-152.499	0.116	0.008
-596.025	543.021	0.090	-0.217
-595.011	-159.461	-0.054	-0.003
-593.996	86.222	0.166	-0.184
-592.982	331.726	-0.142	-0.275
-591.967	31.831	-0.131	0.114
-590.952	-189.262	0.143	0.002
-589.938	800.000	-0.104	-0.302
-588.923	61.595	-0.255	-0.256
-587.909	613.590	0.096	-0.243
-586.894	2.436	-0.277	0.202
-585.879	-119.161	-0.240	0.042
-584.865	178.341	-0.144	-0.212
-583.850	1.910	-0.112	-0.081
-582.836	-68.488	-0.197	0.077
-581.821	96.227	0.305	-0.351
-580.806	-200.000	-0.053	-0.436
-579.792	-200.000	0.004	0.136
-578.777	-200.000	0.018	0.131
-577.763	-106.507	-0.318	0.072
-576.748	-200.000	-0.020	0.314
-575.733	65.977	0.371	-0.379
-574.719	-25.375	0.365	-0.218
-573.704	-154.973	0.055	-0.004
-572.690	-130.805	-0.221	0.030
-571.675	293.499	-0.239	0.440
-570.661	281.745	-0.009	-0.017
-569.646	-12.985	-0.288	-0.189
-568.631	150.244	-0.176	-0.240
-567.617	622.234	0.124	0.314
-566.602	320.129	-0.119	0.228
-565.588	36.735	0.110	-0.098
-564.573	-33.865	-0.166	0.092
-563.558	-26.435	-0.194	0.115
-562.544	-200.000	0.016	0.134
-561.529	-19.719	0.283	0.176
-560.515	-200.000	-0.020	0.283
-559.500	96.879	0.094	0.109
-558.485	-200.000	-0.010	-0.261
-557.471	-118.088	0.247	-0.044
-556.456	-200.000	0.010	-0.060
-555.442	-200.000	0.070	-0.510
-554.427	138.505	0.141	0.186
-553.412	80.365	-0.188	-0.203
-552.398	-12.700	-0.144	-0.095
-551.383	27.655	0.113	-0.096
-550.369	-133.234	-0.141	0.018
-549.354	176.481	0.154	-0.226
-548.339	726.357	-0.006	-0.016
-547.325	88.493	-0.074	-0.082
-546.310	-82.937	0.202	0.065
-545.296	-26.000	-0.227	0.134
-544.281	80.400	-0.190	0.206
-543.266	266.493	0.101	0.177
-542.252	-91.761	0.341	0.098
-541.237	180.841	0.130	0.192
-540.223	-42.301	0.098	-0.050
-539.208	127.033	0.134	0.171
-538.193	-31.111	0.296	-0.168
-537.179	5.911	-0.348	0.259
-536.164	-42.855	-0.323	-0.165
-535.150	22.026	-0.068	-0.056
-534.135	143.726	0.029	-0.039
-533.121	15.428	0.208	-0.164
-532.106	212.711	-0.179	-0.284
-531.091	60.646	-0.141	-0.140
-530.077	-200.000	0.031	0.358
-529.062	79.623	0.118	-0.128
-528.048	123.778	0.112	0.142
-527.033	789.945	-0.031	-0.085
-526.018	-200.000	0.031	0.152
-525.004	351.295	0.210	-0.419
-523.989	-22.849	-0.089	0.054
-522.975	-200.000	0.009	-0.168
-521.960	263.253	-0.092	-0.161
-520.945	139.973	0.059	0.078
-519.931	-200.000	0.081	-0.384
-518.916	120.744	-0.246	0.307
-517.902	-200.000	-0.061	-0.391
-516.887	217.560	-0.095	-0.151
-515.872	-200.000	0.021	-0.275
-514.858	-20.614	-0.236	-0.145
-513.843	-200.000	0.014	-0.088
-512.829	-71.777	-0.202	0.076
-511.814	-200.000	0.083	-0.423
-510.799	-88.416	-0.244	0.073
-509.785	-77.297	-0.461	0.161
-508.770	-200.000	-0.018	0.260
-507.756	800.000	0.043	-0.123
-506.741	-122.637	0.151	0.025
-505.726	-121.451	-0.375	-0.063
-504.712	69.340	-0.020	-0.020
-503.697	176.913	-0.108	-0.157
-502.683	-78.517	0.069	-0.024
-501.668	168.408	-0.103	-0.147
-500.653	-0.690	-0.141	0.100
-499.639	196.874	0.147	0.225
-498.624	666.238	-0.013	0.035
-497.610	22.026	-0.315	0.258
-496.595	800.000	0.093	-0.279
-495.581	230.048	0.031	-0.051
-494.566	176.954	-0.086	-0.125
-493.551	187.023	0.112	-0.167
-492.537	-157.383	0.329	0.020
-491.522	-33.471	-0.171	-0.095
-490.508	-109.025	-0.037	-0.008
-489.493	98.390	0.203	-0.235
-488.478	800.000	-0.105	0.318
-487.464	428.500	-0.046	0.099
-486.449	196.219	0.078	0.119
-485.435	436.150	0.144	-0.314
-484.420	40.982	0.051	0.046
-483.405	424.626	0.092	-0.199
-482.391	30.771	-0.187	0.160
-481.376	-200.000	0.006	0.029
-480.362	302.459	-0.049	0.091
-479.347	373.326	0.074	-0.151
-478.332	342.738	0.026	0.050
-477.318	-19.528	-0.152	0.095
-476.303	-117.071	0.118	-0.022
-475.289	800.000	-0.049	-0.159
-474.274	-92.193	-0.155	-0.044
-473.259	233.573	-0.121	-0.199
-472.245	-200.000	-0.006	-0.127
-471.230	7.608	-0.110	-0.083
-470.216	-200.000	-0.005	0.084
-469.201	-36.724	0.321	0.173
-468.186	32.184	0.252	-0.218
-467.172	-97.457	0.256	0.067
-466.157	664.295	-0.158	0.409
-465.143	-41.840	-0.135	0.070
-464.128	-21.989	0.138	0.084
-463.113	85.192	0.175	0.193
-462.099	-200.000	-0.059	0.299
-461.084	-93.861	0.120	0.033
-460.070	269.008	-0.240	0.422
-459.055	115.908	-0.441	0.542
-458.040	-18.474	0.234	0.147
-457.026	800.000	0.027	0.103
-456.011	18.667	-0.284	0.228
-454.997	65.423	-0.027	0.028
-453.982	-46.024	0.231	0.114
-452.968	-144.511	-0.495	-0.046
-451.953	-122.811	-0.081	-0.013
-450.938	-28.151	-0.421	-0.244
-449.924	518.525	-0.046	-0.109
-448.909	-199.596	-0.214	0.001
-447.895	326.945	-0.092	0.177
-446.880	128.200	-0.060	0.076
-445.865	244.841	0.160	0.270
-444.851	-143.774	0.190	-0.018
-443.836	-68.354	0.131	-0.051
-442.822	-22.056	-0.224	0.136
-441.807	265.503	0.144	0.252
-440.792	155.265	0.112	0.155
-439.778	207.114	0.156	0.243
-438.763	-85.477	0.243	0.076
-437.749	800.000	0.016	0.060
-436.734	151.084	-0.226	-0.308
-435.719	150.313	-0.145	0.197
-434.705	140.208	-0.185	0.244
-433.690	434.235	-0.052	-0.112
-432.676	266.863	0.112	0.196
-431.661	-124.664	0.238	0.037
-430.646	-100.912	-0.309	-0.076
-429.632	6.759	-0.110	-0.082
-428.617	-129.207	-0.120	-0.017
-427.603	-185.790	-0.414	-0.006
-426.588	33.267	-0.198	-0.172
-425.573	800.000	-0.047	-0.174
-424.559	75.829	0.074	0.079
-423.544	-54.104	-0.066	-0.030
-422.530	800.000	0.002	0.007
-421.515	-99.279	0.152	0.038
-420.500	348.082	-0.101	-0.199
-419.486	77.318	0.237	-0.252
-418.471	-174.761	0.485	0.014
-417.457	-14.415	-0.021	-0.013
-416.442	800.000	0.035	-0.109
-415.428	-164.625	0.248	-0.011
-414.413	-32.661	-0.217	-0.121
-413.398	-104.305	0.457	-0.106
-412.384	88.973	0.193	-0.215
-411.369	-123.713	0.094	0.015
-410.355	-68.204	-0.052	0.020
-409.340	-66.640	-0.266	0.106
-408.325	800.000	-0.013	0.046
-407.311	521.579	-0.203	0.476
-406.296	537.031	-0.043	-0.101
-405.282	-122.015	0.101	-0.017
-404.267	564.159	-0.078	-0.188
-403.252	110.941	-0.072	0.087
-402.238	97.599	-0.260	0.299
-401.223	-200.000	-0.004	0.114
-400.209	95.119	0.105	0.119
-399.194	567.192	-0.052	-0.125
-398.179	-102.966	0.238	-0.056
-397.165	-158.610	0.060	0.003
-396.150	30.435	-0.116	-0.099
-395.136	-200.000	-0.000	0.059
-394.121	2.055	0.077	0.055
-393.106	-21.569	-0.123	-0.075
-392.092	-153.282	0.346	-0.024
-391.077	-91.026	-0.109	0.031
-390.063	138.777	0.165	-0.217
-389.048	-12.364	-0.192	-0.125
-388.033	-25.061	0.328	-0.195
-387.019	-200.000	-0.024	0.116
-386.004	-200.000	0.075	0.369
-384.990	642.946	-0.097	-0.246
-383.975	-94.880	-0.218	-0.059
-382.960	87.847	0.087	0.097
-381.946	16.739	-0.139	0.110
-380.931	-7.813	0.179	-0.121
-379.917	-152.543	-0.167	-0.012
-378.902	800.000	-0.025	0.102
-377.888	-200.000	0.030	-0.283
-376.873	518.844	-0.030	-0.071
-375.858	231.980	-0.140	0.230
-374.844	596.188	-0.092	-0.228
-373.829	-33.869	-0.305	0.168
-372.815	-200.000	-0.070	0.511
-371.800	-173.210	0.129	-0.004
-370.785	178.621	-0.113	-0.165
-369.771	-49.653	0.337	-0.160
-368.756	304.773	-0.237	0.439
-367.742	-28.516	-0.206	0.119
-366.727	-200.000	-0.085	0.392
-365.712	145.447	-0.238	0.319
-364.698	246.196	0.181	-0.305
-363.683	-32.830	-0.205	0.114
-362.669	-15.565	-0.131	-0.084
-361.654	-145.689	0.144	0.013
-360.639	-64.053	0.119	-0.049
-359.625	2.311	-0.319	0.230
-358.610	-104.287	0.179	0.042
-357.596	-101.949	0.194	0.047
-356.581	-200.000	0.236	-0.001
-355.566	-200.000	-0.177	0.000
-354.552	1.577	-0.149	0.107
-353.537	78.013	-0.125	-0.133
-352.523	-79.729	0.460	0.155
-351.508	-19.386	0.296	0.183
-350.493	134.779	-0.073	-0.094
-349.479	-20.977	-0.208	0.127
-348.464	-4.511	-0.074	-0.051
-347.450	-200.000	-0.026	0.204
-346.435	124.692	-0.168	-0.211
-345.420	-151.032	0.335	-0.025
-344.406	-200.000	0.029	-0.129
-343.391	103.255	0.121	0.142
-342.377	-92.164	0.161	-0.045
-341.362	32.039	0.195	-0.168
-340.348	229.779	-0.050	-0.082
-339.333	-35.070	-0.179	0.097
-338.318	340.026	0.141	-0.274
-337.304	580.789	0.079	0.192
-336.289	148.740	0.090	0.122
-335.275	-200.000	0.066	0.354
-334.260	-39.780	-0.295	0.154
-333.245	-35.263	-0.206	0.112
-332.231	265.110	-0.215	0.374
-331.216	151.337	0.093	0.127
-330.202	800.000	0.023	0.066
-329.187	-97.178	0.287	0.075
-328.172	-200.000	-0.065	-0.318
-327.158	-200.000	-0.050	-0.256
-326.143	18.128	-0.108	-0.086
-325.129	-147.795	0.303	-0.025
-324.114	179.919	-0.097	-0.142
-323.099	12.724	0.175	0.135
-322.085	-10.557	0.060	0.040
-321.070	174.422	-0.076	-0.109
-320.056	549.039	-0.120	-0.287
-319.041	-200.000	-0.058	-0.347
-318.026	-48.162	0.145	0.070
-317.012	-145.840	0.232	-0.021
-315.997	-154.297	-0.220	-0.015
-314.983	728.196	0.054	-0.143
-313.968	-67.863	-0.279	0.108
-312.953	-200.000	0.003	0.096
-311.939	175.346	-0.081	-0.117
-310.924	800.000	0.094	-0.301
-309.910	-53.647	0.105	0.048
-308.895	1.981	-0.083	-0.059
-307.880	112.139	-0.026	-0.031
-306.866	-81.004	0.331	0.109
-305.851	440.622	-0.096	-0.210
-304.837	-200.000	-0.008	0.095
-303.822	-6.361	0.050	0.034
-302.807	156.791	-0.149	0.205
-301.793	165.268	-0.141	0.199
-300.778	249.297	0.124	-0.210
-299.764	-99.029	-0.083	-0.021
-298.749	-98.515	-0.303	-0.077
-297.735	-65.378	0.531	-0.213
-296.720	-200.000	0.039	-0.217
-295.705	-62.263	0.226	0.094
-294.691	25.401	-0.297	0.246
-293.676	110.732	-0.027	0.032
-292.662	311.720	-0.090	-0.169
-291.647	-98.409	0.332	-0.085
-290.632	-33.968	0.100	-0.055
-289.618	63.772	0.256	-0.256
-288.603	163.534	0.115	0.161
-287.589	159.090	0.120	0.166
-286.574	-200.000	0.042	0.219
-285.559	800.000	-0.101	-0.343
-284.545	200.895	-0.052	0.080
-283.530	-78.218	-0.162	-0.055
-282.516	288.688	0.121	0.218
-281.501	-117.436	0.224	0.040
-280.486	-200.000	0.064	0.326
-279.472	800.000	0.047	0.159
-278.457	165.173	0.034	0.047
-277.443	-110.519	-0.440	0.091
-276.428	231.340	0.143	0.233
-275.413	-36.061	0.082	-0.044
-274.399	-122.556	0.157	-0.025
-273.384	-86.166	0.369	0.113
-272.370	565.877	0.074	0.179
-271.355	-111.334	0.232	0.047
-270.340	-200.000	0.010	0.094
-269.326	-200.000	-0.017	-0.491
-268.311	800.000	-0.065	0.182
-267.297	800.000	-0.126	-0.389
-266.282	-200.000	0.022	-0.108
-265.267	66.518	-0.134	-0.135
-264.253	-36.939	0.092	0.049
-263.238	339.070	-0.139	-0.270
-262.224	-115.565	0.264	-0.049
-261.209	103.772	0.187	0.219
-260.195	-40.132	-0.403	-0.209
-259.180	-107.385	-0.429	-0.094
-258.165	-142.929	0.336	0.032
-257.151	-86.505	-0.100	0.030
-256.136	-82.398	-0.089	-0.029
-255.122	147.573	-0.249	-0.333
-254.107	180.050	-0.107	0.156
-253.092	64.291	-0.098	0.098
-252.078	-140.759	0.196	-0.020
-251.063	141.257	0.084	-0.110
-250.049	-11.108	0.206	0.135
-249.034	-9.785	-0.079	-0.052
-248.019	-49.019	0.131	0.062
-247.005	225.218	0.066	0.106
-245.990	73.535	0.228	-0.238
-244.976	6.362	0.150	0.111
-243.961	-200.000	-0.092	0.443
-242.946	-102.285	0.137	0.033
-241.932	-119.293	0.369	0.064
-240.917	200.167	0.040	0.061
-239.903	-111.975	-0.412	-0.083
-238.888	-91.526	0.086	-0.024
-237.873	-170.373	0.164	-0.006
-236.859	165.617	0.150	-0.210
-235.844	53.944	0.141	-0.135
-234.830	-200.000	-0.057	-0.419
-233.815	-11.924	-0.293	0.191
-232.800	-74.778	0.133	-0.048
-231.786	800.000	0.069	-0.207
-230.771	-152.623	0.243	0.017
-229.757	-200.000	0.297	-0.001
-228.742	113.297	0.207	0.249
-227.727	-117.121	0.200	-0.036
-226.713	167.972	0.112	-0.158
-225.698	-138.370	-0.108	0.012
-224.684	-71.683	0.089	0.033
-223.669	-136.878	0.120	0.014
-222.655	105.354	-0.080	0.094
-221.640	-70.591	-0.058	0.022
-220.625	-88.411	0.190	-0.056
-219.611	336.570	-0.056	-0.109
-218.596	80.854	-0.174	-0.186
-217.582	133.456	-0.078	0.100
-216.567	81.432	0.257	0.276
-215.552	-52.567	-0.261	-0.120
-214.538	2.322	0.128	0.092
-213.523	-49.516	0.042	-0.020
-212.509	381.660	-0.123	0.252
-211.494	-139.002	-0.291	-0.031
-210.479	-28.290	-0.422	0.242
-209.465	573.951	0.086	0.209
-208.450	197.212	-0.109	-0.165
-207.436	-69.921	-0.338	0.128
-206.421	-87.197	0.198	-0.060
-205.406	-26.507	-0.154	-0.089
-204.392	195.938	0.097	-0.147
-203.377	-200.000	0.000	0.013
-202.363	-96.477	0.241	0.063
-201.348	772.305	0.170	0.461
-200.333	-200.000	0.012	0.327
-199.319	653.218	-0.170	0.433
-198.304	-160.641	-0.277	-0.015
-197.290	-59.741	0.133	-0.056
-196.275	304.615	0.138	-0.254
-195.260	-145.361	0.263	0.024
-194.246	-200.000	-0.036	-0.376
-193.231	253.301	-0.116	0.197
-192.217	800.000	-0.064	-0.258
-191.202	89.278	0.374	0.414
-190.187	12.633	-0.216	-0.166
-189.173	49.267	0.209	0.195
-188.158	697.786	0.036	0.093
-187.144	-200.000	-0.010	-0.419
-186.129	800.000	-0.019	0.068
-185.114	800.000	0.096	-0.328
-184.100	4.168	-0.172	-0.125
-183.085	-121.664	0.111	-0.018
-182.071	-66.581	0.209	-0.082
-181.056	-124.285	-0.342	0.053
-180.042	-200.000	-0.032	0.195
-179.027	-200.000	-0.035	-0.278
-178.012	800.000	-0.052	0.152
-176.998	42.852	-0.065	0.059
-175.983	-4.979	0.175	0.119
-174.969	112.604	0.126	0.151
-173.954	800.000	0.016	0.047
-172.939	37.979	0.114	-0.100
-171.925	311.994	-0.151	0.281
-170.910	284.746	-0.093	-0.166
-169.896	125.195	0.136	0.170
-168.881	-200.000	0.024	-0.207
-167.866	-135.829	-0.221	0.026
-166.852	-69.095	0.266	-0.102
-165.837	275.462	-0.066	0.117
-164.823	153.475	0.207	-0.282
-163.808	-165.837	0.158	0.007
-162.793	-200.000	0.040	0.284
-161.779	-14.117	-0.207	-0.132
-160.764	-59.549	-0.182	0.077
-159.750	-200.000	0.030	0.152
-158.735	-107.547	-0.289	-0.063
-157.720	95.223	0.158	-0.178
-156.706	177.134	0.061	0.088
-155.691	151.603	-0.026	0.035
-154.677	39.846	0.166	0.148
-153.662	692.047	0.045	0.116
-152.647	58.576	0.376	-0.366
-151.633	119.919	-0.088	0.108
-150.618	436.741	0.137	0.295
-149.604	-156.259	-0.141	0.009
-148.589	46.255	-0.075	0.069
-147.574	-200.000	-0.006	-0.120
-146.560	-200.000	-0.013	0.341
-145.545	800.000	0.043	-0.153
-144.531	-149.773	-0.087	-0.007
-143.516	-21.261	0.249	0.151
-142.502	1.628	-0.167	0.119
-141.487	66.066	-0.154	0.155
-140.472	-104.215	0.067	0.015
-139.458	-91.233	-0.109	0.031
-138.443	-44.951	-0.266	-0.131
-137.429	-60.000	-0.302	-0.128
-136.414	-200.000	0.018	0.333
-135.399	42.161	0.179	0.161
-134.385	81.962	-0.135	-0.144
-133.370	797.911	-0.050	0.137
-132.356	-200.000	0.062	0.284
-131.341	273.769	0.143	0.250
-130.326	-39.220	0.174	0.090
-129.312	-200.000	0.062	0.312
-128.297	-200.000	-0.039	0.315
-127.283	-200.000	0.013	-0.064
-126.268	556.847	0.059	0.140
-125.253	-65.058	-0.348	0.139
-124.239	475.697	0.092	0.205
-123.224	-43.131	0.205	-0.103
-122.210	92.452	0.180	0.200
-121.195	316.615	-0.135	0.253
-120.180	-200.000	0.018	-0.256
-119.166	-124.352	0.196	0.030
-118.151	-13.903	0.183	0.117
-117.137	-200.000	0.029	0.444
-116.122	-200.000	0.009	-0.041
-115.107	-200.000	0.029	0.195
-114.093	50.512	-0.176	-0.164
-113.078	458.111	-0.184	-0.406
-112.064	-132.606	-0.296	-0.038
-111.049	151.323	-0.067	0.090
-110.034	147.117	-0.017	0.023
-109.020	800.000	-0.074	0.283
-108.005	-200.000	0.081	0.519
-106.991	-35.845	-0.340	-0.182
-105.976	800.000	-0.119	0.334
-104.962	29.656	-0.003	-0.003
-103.947	-70.461	-0.044	-0.017
-102.932	800.000	-0.080	0.330
-101.918	-74.514	-0.348	0.124
-100.903	11.090	-0.082	-0.062
-99.889	-91.627	0.192	0.054
-98.874	552.638	0.086	0.205
-97.859	800.000	-0.044	0.180
-96.845	259.474	0.259	0.441
-95.830	800.000	-0.042	-0.126
-94.816	-68.693	0.212	-0.081
-93.801	800.000	0.097	-0.412
-92.786	-177.274	-0.029	-0.001
-91.772	94.814	-0.069	0.077
-90.757	239.044	-0.117	0.192
-89.743	-200.000	0.006	0.086
-88.728	262.882	0.108	0.185
-87.713	-45.932	0.150	0.073
-86.699	-200.000	0.029	0.285
-85.684	-157.592	-0.192	0.011
-84.670	-129.260	0.233	-0.032
-83.655	31.357	0.336	-0.285
-82.640	-200.000	-0.000	-0.037
-81.626	370.837	-0.042	-0.085
-80.611	-37.226	0.335	0.177
-79.597	-70.669	0.169	0.063
-78.582	-200.000	-0.045	0.379
-77.567	155.151	0.163	0.222
-76.553	237.614	-0.096	0.158
-75.538	-52.979	-0.213	0.097
-74.524	-200.000	0.011	0.142
-73.509	-200.000	-0.046	0.299
-72.494	800.000	0.028	0.097
-71.480	342.679	0.212	0.411
-70.465	35.078	-0.174	0.150
-69.451	800.000	0.086	0.291
-68.436	-200.000	-0.016	0.084
-67.422	640.576	-0.181	0.456
-66.407	363.615	0.112	-0.222
-65.392	-200.000	-0.031	0.166
-64.378	-200.000	0.037	0.266
-63.363	14.787	-0.223	0.172
-62.349	-200.000	-0.043	0.406
-61.334	53.928	-0.822	-0.780
-60.319	323.895	0.221	0.417
-59.305	-200.000	-0.167	-0.770
-58.290	792.539	0.417	1.132
-57.276	800.000	0.449	1.695
-56.261	-200.000	96.323	584.758
-55.246	571.818	1371.808	3297.282
-54.232	154.431	2577.554	3492.117
-53.217	115.647	2178.677	2628.929
-52.203	45.600	1717.906	1565.888
-51.188	38.281	1528.886	1343.476
-50.173	35.702	1502.261	1302.584
-49.159	55.711	1553.211	1485.001
-48.144	59.680	1572.382	1530.565
-47.130	38.548	1527.023	1343.460
-46.115	35.335	1511.124	1307.560
-45.100	35.154	1507.785	1303.385
-44.086	35.108	1506.063	1301.534
-43.071	35.103	1503.714	1299.415
-42.057	35.062	1502.110	1297.704
-41.042	35.050	1501.287	1296.858
-40.027	35.010	1499.875	1295.314
-39.013	35.079	1497.885	1294.011
-37.998	35.025	1497.171	1292.975
-36.984	35.033	1496.070	1292.034
-35.969	35.040	1494.708	1290.848
-34.954	35.059	1493.135	1289.569
-33.940	35.037	1491.762	1288.185
-32.925	35.063	1490.165	1286.928
-31.911	35.081	1489.291	1286.243
-30.896	35.119	1488.051	1285.378
-29.881	35.180	1486.564	1284.447
-28.867	35.030	1485.421	1282.404
-27.852	35.088	1483.447	1281.040
-26.838	35.156	1482.109	1280.288
-25.823	35.093	1480.442	1278.378
-24.809	35.161	1478.814	1277.374
-23.794	35.113	1477.503	1275.867
-22.779	35.053	1476.944	1274.938
-21.765	35.035	1475.851	1273.826
-20.750	35.148	1474.632	1273.473
-19.736	35.054	1473.511	1271.826
-18.721	35.147	1472.059	1271.142
-17.706	35.081	1470.861	1269.619
-16.692	35.049	1469.953	1268.576
-15.677	35.050	1469.278	1267.947
-14.663	35.028	1467.790	1266.465
-13.648	34.990	1467.058	1265.532
-12.633	35.008	1466.192	1264.853
-11.619	35.064	1465.298	1264.402
-10.604	35.055	1464.016	1263.189
-9.590	35.070	1463.216	1262.549
-8.575	35.087	1463.005	1262.427
-7.560	35.054	1462.006	1261.300
-6.546	34.982	1461.229	1260.105
-5.531	35.046	1459.863	1259.296
-4.517	35.029	1459.148	1258.517
-3.502	34.937	1458.269	1257.102
-2.487	35.037	1457.019	1256.632
-1.473	35.003	1456.012	1255.491
-0.458	34.945	1455.309	1254.456
0.556	35.290	1445.575	1243.759
1.571	32.432	1419.200	1202.722
2.586	28.926	1357.792	1129.096
3.600	27.337	1275.914	1051.738
4.615	25.826	1229.057	1004.608
5.629	21.913	1171.689	936.781
6.644	11.432	1084.103	814.630
7.659	3.152	1040.124	741.722
8.673	2.094	1034.598	732.643
9.688	1.761	1031.455	728.758
10.702	1.719	1029.923	727.413
11.717	1.607	1027.945	725.417
12.731	5.605	1032.165	747.444
13.746	15.663	1046.753	806.415
14.761	23.214	1056.004	849.867
15.775	24.769	1057.600	858.550
16.790	24.868	1057.589	858.941
17.804	24.760	1056.338	857.331
18.819	24.553	1055.684	855.733
19.834	24.680	1055.052	855.749
20.848	24.819	1054.420	855.830
21.863	24.833	1053.954	855.439
22.877	24.875	1053.879	855.505
23.892	24.719	1053.419	854.308
24.907	24.792	1051.965	853.404
25.921	24.741	1051.519	852.721
26.936	24.743	1050.708	852.001
27.950	24.587	1050.340	850.882
28.965	24.565	1048.816	849.469
29.980	24.601	1047.125	848.196
30.994	24.550	1045.786	846.791
32.009	24.890	1045.328	847.958
33.023	24.705	1045.239	846.934
34.038	24.715	1043.582	845.565
35.053	24.663	1042.768	844.586
36.067	24.824	1042.152	844.771
37.082	24.728	1041.539	843.748
38.096	24.732	1040.868	843.145
39.111	24.918	1040.071	843.302
40.126	25.068	1039.540	843.504
41.140	25.137	1038.005	842.510
42.155	24.708	1036.453	839.163
43.169	24.354	1035.538	836.685
44.184	24.385	1034.474	835.899
45.199	24.584	1033.084	835.631
46.213	24.467	1032.447	834.497
47.228	24.297	1031.803	833.107
48.242	24.519	1030.782	833.242
49.257	24.725	1030.246	833.699
50.271	24.728	1029.706	833.203
51.286	24.717	1029.184	832.655
52.301	24.950	1027.943	832.658
53.315	24.762	1027.512	831.362
54.330	24.716	1027.136	830.773
55.344	24.726	1026.296	830.065
56.359	24.893	1025.053	829.762
57.374	24.731	1024.591	828.565
58.388	24.566	1023.463	826.813
59.403	24.564	1022.498	825.951
60.417	24.455	1022.099	825.052
61.432	24.438	1021.069	824.070
62.447	24.389	1020.622	823.407
63.461	24.601	1019.618	823.502
64.476	24.471	1019.505	822.743
65.490	24.543	1018.472	822.166
66.505	24.650	1016.843	821.269
67.520	24.485	1016.221	819.935
68.534	24.548	1015.868	819.868
69.549	24.364	1015.189	818.406
70.563	24.079	1013.856	815.950
71.578	23.821	1013.401	814.330
72.593	24.164	1012.228	814.887
73.607	24.030	1010.728	812.993
74.622	23.950	1010.049	812.013
75.636	24.136	1009.993	812.741
76.651	24.425	1009.165	813.321
77.666	24.367	1007.918	811.981
78.680	24.118	1007.166	810.171
79.695	24.224	1006.405	809.970
80.709	24.365	1005.969	810.187
81.724	24.352	1005.443	809.631
82.739	24.396	1004.249	808.796
83.753	24.297	1003.827	807.937
84.768	24.828	1002.490	809.193
85.782	25.041	1001.744	809.481
86.797	25.057	1001.865	809.579
87.812	25.110	1000.446	808.602
88.826	24.823	999.736	806.662
89.841	24.958	999.024	806.623
90.855	25.001	998.256	806.126
91.870	24.942	998.026	805.604
92.884	24.910	997.061	804.609
93.899	25.020	995.515	803.782
94.914	24.811	994.691	802.111
95.928	24.920	994.329	802.235
96.943	24.961	993.416	801.611
97.957	24.736	992.109	799.482
98.972	24.625	990.896	797.938
99.987	24.241	990.179	795.574
101.001	24.346	989.432	795.372
102.016	24.683	989.050	796.498
103.030	24.712	987.966	795.684
104.045	24.729	987.141	795.025
105.060	24.463	985.805	792.697
106.074	24.437	984.702	791.624
107.089	24.304	984.605	790.885
108.103	24.686	983.851	791.902
109.118	24.762	982.984	791.473
110.133	24.494	981.620	789.117
111.147	24.401	980.570	787.796
112.162	24.279	979.609	786.416
113.176	24.246	978.243	785.101
114.191	24.396	977.775	785.320
115.206	24.417	976.878	784.621
116.220	24.115	975.909	782.445
117.235	23.972	974.980	781.006
118.249	24.084	974.526	781.065
119.264	24.098	973.479	780.217
120.279	24.165	972.409	779.581
121.293	24.143	971.858	778.977
122.308	24.206	971.608	778.983
123.322	24.245	970.792	778.431
124.337	24.028	969.383	776.284
125.352	24.090	967.932	775.326
126.366	23.790	966.327	772.663
127.381	23.321	965.343	769.775
128.395	23.824	965.445	771.970
129.410	24.522	964.928	774.516
130.424	24.717	963.628	774.251
131.439	24.679	963.175	773.652
132.454	24.623	962.108	772.485
133.468	24.577	961.490	771.723
134.483	24.623	960.617	771.152
135.497	24.654	959.995	770.718
136.512	24.698	959.578	770.506
137.527	24.866	958.669	770.431
138.541	25.012	957.721	770.228
139.556	25.048	956.957	769.700
140.570	24.876	956.220	768.302
141.585	24.958	955.157	767.732
142.600	24.979	954.812	767.475
143.614	24.854	953.790	766.053
144.629	25.017	952.917	765.980
145.643	25.217	952.126	766.127
146.658	25.142	951.288	765.067
147.673	24.988	949.722	763.084
148.687	24.827	948.968	761.726
149.702	24.898	947.477	760.765
150.716	24.667	946.810	759.181
151.731	24.662	945.810	758.288
152.746	24.828	945.068	758.330
153.760	24.987	944.475	758.462
154.775	25.102	944.043	758.533
155.789	25.147	943.146	757.935
156.804	25.062	942.209	756.759
157.819	25.032	941.255	755.798
158.833	25.034	940.578	755.196
159.848	25.026	940.478	755.013
160.862	25.169	939.214	754.536
161.877	25.130	938.144	753.445
162.892	25.013	937.268	752.183
163.906	25.048	936.565	751.700
164.921	24.964	935.982	750.815
165.935	24.873	934.748	749.376
166.950	25.030	933.745	749.161
167.964	25.092	932.761	748.566
168.979	25.053	931.974	747.704
169.994	24.919	930.515	745.911
171.008	24.746	929.483	744.297
172.023	25.001	928.988	744.894
173.037	25.114	928.166	744.639
174.052	25.064	926.917	743.364
175.067	24.747	926.186	741.398
176.081	24.791	925.255	740.769
177.096	24.768	924.794	740.238
178.110	24.831	924.289	740.032
179.125	24.654	923.034	738.227
180.140	24.375	922.119	736.281
181.154	24.472	921.287	735.950
182.169	24.566	920.935	735.991
183.183	24.727	920.454	736.203
184.198	25.107	920.021	737.355
185.213	25.049	919.512	736.644
186.227	24.944	919.087	735.807
187.242	25.010	918.578	735.606
188.256	25.067	917.659	735.039
189.271	25.051	916.679	734.126
190.286	25.118	916.049	733.827
191.300	24.920	915.217	732.286
192.315	24.491	913.909	729.423
193.329	23.682	912.198	724.692
194.344	23.395	911.290	722.739
195.359	23.929	911.477	724.999
196.373	24.818	911.484	728.565
197.388	24.979	911.709	729.332
198.402	24.828	910.885	727.996
199.417	24.874	910.515	727.824
200.432	25.002	909.512	727.478
201.446	24.819	908.819	726.116
202.461	24.459	908.655	724.457
203.475	24.594	907.846	724.296
204.490	24.157	906.218	721.167
205.504	23.006	904.195	714.842
206.519	23.503	903.981	716.616
207.534	24.442	904.483	720.745
208.548	24.441	904.238	720.481
209.563	24.767	904.330	721.805
210.577	24.871	902.998	721.100
211.592	24.697	902.227	719.718
212.607	24.963	902.271	720.762
213.621	25.239	901.537	721.222
214.636	25.068	900.721	719.816
215.650	25.048	900.171	719.232
216.665	25.105	899.536	718.892
217.680	25.093	899.026	718.371
218.694	25.241	898.584	718.549
219.709	24.854	897.796	716.305
220.723	24.528	896.982	714.288
221.738	24.692	896.847	714.775
222.753	24.838	896.006	714.624
223.767	24.853	894.879	713.721
224.782	24.941	894.543	713.740
225.796	25.093	894.043	713.886
226.811	25.286	893.344	714.030
227.826	24.761	892.379	711.110
228.840	24.058	890.807	707.004
229.855	23.935	890.131	705.916
230.869	24.257	889.543	706.665
231.884	23.903	889.202	704.930
232.899	23.991	888.448	704.618
233.913	24.717	888.433	707.415
234.928	24.954	888.058	707.991
235.942	24.803	887.310	706.735
236.957	24.795	887.037	706.423
237.972	24.533	885.711	704.274
238.986	24.304	885.157	702.867
240.001	24.537	884.575	703.261
241.015	24.495	884.045	702.612
242.030	24.655	883.343	702.619
243.045	24.781	882.845	702.658
244.059	24.825	882.460	702.461
245.074	25.020	882.075	702.858
246.088	25.013	880.897	701.829
247.103	24.630	879.768	699.371
248.117	24.614	879.967	699.402
249.132	25.208	879.488	701.283
250.147	25.572	879.411	702.582
251.161	25.675	878.640	702.308
252.176	25.832	878.528	702.768
253.190	25.835	877.669	702.029
254.205	25.810	877.273	701.553
255.220	25.964	876.920	701.807
256.234	25.968	876.465	701.396
257.249	25.847	875.451	700.055
258.263	25.733	874.866	699.083
259.278	25.722	874.221	698.461
260.293	25.662	874.081	698.055
261.307	25.866	873.481	698.307
262.322	25.893	872.629	697.668
263.336	25.641	871.955	696.090
264.351	25.200	870.515	693.175
265.366	24.019	868.738	687.144
266.380	23.649	867.767	684.886
267.395	24.494	868.226	688.449
268.409	25.348	868.408	691.825
269.424	25.303	867.555	690.909
270.439	25.535	867.059	691.346
271.453	25.640	866.512	691.251
272.468	25.588	865.869	690.480
273.482	25.725	865.874	690.948
274.497	25.887	865.463	691.178
275.512	25.773	864.156	689.639
276.526	25.139	862.592	685.906
277.541	25.411	862.349	686.690
278.555	25.839	861.948	687.945
279.570	25.475	861.362	686.029
280.585	25.193	861.094	684.679
281.599	25.427	860.180	684.782
282.614	25.634	859.861	685.256
283.628	25.168	859.032	682.762
284.643	24.792	857.977	680.433
285.657	25.144	858.463	682.097
286.672	24.943	857.387	680.417
287.687	24.538	856.209	677.885
288.701	24.899	856.406	679.350
289.716	25.309	855.772	680.343
290.730	24.854	855.262	678.153
291.745	24.781	854.412	677.144
292.760	24.658	853.631	675.998
293.774	24.745	852.759	675.577
294.789	25.503	853.417	678.906
295.803	26.082	853.392	681.008
296.818	26.062	853.020	680.577
297.833	26.180	852.874	680.846
298.847	25.865	851.476	678.482
299.862	25.683	850.642	677.074
300.876	25.933	849.689	677.195
301.891	26.119	849.519	677.698
302.906	26.294	848.908	677.807
303.920	25.880	847.578	675.132
304.935	25.659	847.157	673.910
305.949	25.915	847.581	675.146
306.964	26.084	846.919	675.193
307.979	25.795	846.288	673.551
308.993	25.800	845.826	673.140
310.008	26.132	845.100	673.746
311.022	26.483	844.662	674.642
312.037	26.194	844.292	673.212
313.052	25.808	843.801	671.323
314.066	25.802	842.865	670.495
315.081	25.148	841.230	666.705
316.095	24.379	840.068	662.870
317.110	24.838	840.546	664.892
318.125	25.731	840.725	668.293
319.139	25.610	839.197	666.572
320.154	24.237	837.873	660.376
321.168	23.748	836.987	657.810
322.183	24.359	837.025	660.044
323.197	25.275	837.692	663.902
324.212	25.586	837.374	664.741
325.227	25.661	837.099	664.742
326.241	26.048	836.549	665.671
327.256	25.823	836.037	664.376
328.270	25.731	835.473	663.530
329.285	25.713	834.298	662.472
330.300	25.566	833.977	661.618
331.314	25.277	832.964	659.692
332.329	25.428	832.407	659.750
333.343	25.803	832.062	660.793
334.358	26.004	831.795	661.261
335.373	26.087	831.288	661.103
336.387	26.103	830.833	660.739
337.402	26.144	830.860	660.853
338.416	26.367	830.265	661.139
339.431	26.413	829.788	660.865
340.446	26.398	829.069	660.182
341.460	26.614	828.700	660.616
342.475	26.627	828.069	660.102
343.489	26.378	826.995	658.281
344.504	26.284	826.743	657.679
345.519	26.751	826.010	658.739
346.533	26.877	826.307	659.374
347.548	26.862	825.610	658.704
348.562	26.841	825.052	658.126
349.577	26.777	824.735	657.582
350.592	26.713	824.050	656.744
351.606	26.714	823.692	656.404
352.621	26.710	823.230	655.964
353.635	26.509	822.691	654.749
354.650	26.549	821.703	654.049
355.665	26.353	821.197	652.883
356.679	25.253	819.549	647.547
357.694	25.099	819.030	646.525
358.708	25.698	818.853	648.486
359.723	25.633	818.688	648.063
360.738	25.917	818.331	648.747
361.752	26.496	817.898	650.429
362.767	26.389	817.659	649.797
363.781	26.704	817.647	650.862
364.796	26.973	817.519	651.668
365.810	27.179	816.807	651.781
366.825	27.120	816.761	651.474
367.840	27.110	816.727	651.356
368.854	27.075	815.594	650.268
369.869	26.600	814.531	647.662
370.883	26.465	813.791	646.536
371.898	26.514	813.483	646.410
372.913	26.399	812.612	645.248
373.927	26.473	811.906	644.897
374.942	26.713	811.545	645.405
375.956	26.821	810.913	645.232
376.971	26.915	810.562	645.228
377.986	27.070	809.991	645.270
379.000	27.080	809.861	645.144
380.015	27.151	809.047	644.690
381.029	26.890	808.732	643.457
382.044	26.936	808.166	643.112
383.059	27.084	807.820	643.305
384.073	27.079	807.220	642.750
385.088	27.007	806.822	642.124
386.102	27.071	806.452	641.998
387.117	26.999	805.516	640.940
388.132	26.746	804.615	639.275
389.146	26.771	803.666	638.552
390.161	25.953	803.410	635.412
391.175	26.131	803.065	635.709
392.190	26.698	802.471	637.179
393.205	26.823	801.985	637.173
394.219	25.927	800.662	632.923
395.234	24.292	798.215	625.202
396.248	23.458	797.359	621.555
397.263	24.358	798.316	625.406
398.278	26.188	799.713	632.863
399.292	26.619	799.466	634.123
400.307	26.400	798.903	632.851
401.321	26.331	798.778	632.456
402.336	26.341	798.424	632.154
403.350	26.745	798.114	633.265
404.365	27.209	797.531	634.365
405.380	27.589	797.605	635.694
406.394	27.729	797.517	636.056
407.409	27.919	797.241	636.443
408.423	27.943	796.509	635.883
409.438	27.766	795.805	634.649
410.453	27.820	795.405	634.464
411.467	27.906	795.143	634.497
412.482	27.826	794.476	633.630
413.496	27.793	794.145	633.197
414.511	28.016	793.668	633.532
415.526	27.795	793.432	632.523
416.540	27.721	793.121	631.963
417.555	27.805	792.393	631.617
418.569	27.500	791.923	630.133
419.584	27.346	791.436	629.158
420.599	27.617	790.876	629.593
421.613	108.476	1278.981	1444.084
422.628	93.274	1350.092	1444.191
