DTS Sentinel unit serial number:	SN413079Multiplexer serial number:	ORYXHardware model number:	OX4-SRSoftware version number:	ORYX F/W v4.00 Oryx Data Collector v3.7.2.0data status	okinstallation	princeton_trtdifferential loss correction	single-endedforward channel	channel 3reverse channel	N/Adate	2019/09/12time	04:10:11forward acquisition time	60.00reverse acquisition time	0.00gamma	496.2192k internal	0.2323k external	0.2323temperature offset calibration	1.0070default loss term (dB/km)	0.3790temperature slope calibration	1.0000multiplexer offset coefficient	1.0000multiplexer slope coefficient	1.0000fibre end	0.00T internal ref (°C)	31.94T ext. ref 1 (°C)	2.22T ext. ref 2 (°C)	25.48length (m)	temperature (°C)	Stokes	anti-Stokes-747.200	299.543	0.240	0.447
-746.185	-200.000	0.021	0.437
-745.171	105.970	0.390	0.466
-744.156	99.482	0.087	0.102
-743.142	720.426	-0.061	0.164
-742.127	293.443	-0.059	-0.109
-741.112	564.501	0.009	-0.022
-740.098	-5.601	-0.270	0.187
-739.083	-159.021	-0.262	-0.015
-738.069	249.571	0.039	0.067
-737.054	-200.000	0.002	-0.470
-736.039	51.225	0.170	-0.163
-735.025	-126.532	0.391	-0.059
-734.010	800.000	-0.138	-0.384
-732.996	342.366	0.087	0.173
-731.981	-143.727	-0.222	-0.021
-730.966	-166.086	0.303	0.013
-729.952	55.510	-0.216	0.211
-728.937	162.226	-0.067	-0.095
-727.923	-200.000	-0.275	-0.000
-726.908	63.372	-0.012	0.012
-725.894	6.651	-0.051	0.038
-724.879	-88.796	-0.231	-0.069
-723.864	-30.072	-0.100	0.057
-722.850	-200.000	-0.020	-0.150
-721.835	800.000	0.107	0.447
-720.821	-67.701	-0.099	0.039
-719.806	448.599	-0.032	0.071
-718.791	-200.000	-0.048	-0.285
-717.777	170.857	-0.162	-0.234
-716.762	3.223	-0.042	-0.031
-715.748	-103.438	0.229	-0.054
-714.733	21.884	0.143	0.118
-713.718	-43.512	-0.223	0.113
-712.704	40.018	-0.166	-0.150
-711.689	-118.272	-0.145	-0.026
-710.675	385.573	0.058	-0.122
-709.660	-200.000	0.001	0.134
-708.645	495.010	-0.022	0.051
-707.631	220.602	0.077	0.124
-706.616	-116.577	0.092	0.017
-705.602	536.241	-0.189	0.453
-704.587	144.983	-0.194	-0.261
-703.572	-200.000	-0.012	0.324
-702.558	734.056	0.132	-0.358
-701.543	133.322	-0.128	0.166
-700.529	-86.177	0.323	0.101
-699.514	-112.623	0.063	-0.013
-698.499	-99.725	0.072	0.018
-697.485	71.721	0.072	0.075
-696.470	-200.000	0.059	0.285
-695.456	-200.000	-0.015	-0.363
-694.441	800.000	-0.055	0.234
-693.426	800.000	0.029	-0.089
-692.412	-57.508	-0.130	-0.058
-691.397	-133.704	-0.343	0.043
-690.383	1.514	-0.336	-0.244
-689.368	-97.249	0.325	-0.086
-688.354	-200.000	-0.015	0.214
-687.339	-200.000	0.004	0.030
-686.324	72.304	-0.062	0.065
-685.310	47.715	-0.232	-0.218
-684.295	-191.670	0.344	-0.003
-683.281	-27.072	-0.542	0.318
-682.266	-18.142	-0.205	0.129
-681.251	-163.173	0.120	0.006
-680.237	-146.203	-0.161	-0.014
-679.222	536.169	-0.074	-0.177
-678.208	-134.304	-0.255	-0.032
-677.193	-21.693	-0.154	-0.094
-676.178	106.005	0.165	-0.197
-675.164	-2.745	0.155	-0.109
-674.149	-31.382	-0.156	-0.088
-673.135	124.097	0.041	0.052
-672.120	-76.421	-0.212	-0.075
-671.105	280.763	0.210	-0.378
-670.091	209.776	0.085	-0.134
-669.076	8.988	0.191	-0.145
-668.062	-134.433	-0.285	-0.035
-667.047	165.829	-0.135	-0.192
-666.032	26.161	-0.338	-0.284
-665.018	-43.074	-0.071	0.036
-664.003	597.195	0.098	0.243
-662.989	-38.851	-0.231	-0.123
-661.974	800.000	-0.074	0.218
-660.959	103.524	0.086	0.102
-659.945	736.910	-0.196	-0.528
-658.930	194.325	-0.265	0.405
-657.916	39.027	-0.293	0.264
-656.901	-116.874	0.378	-0.070
-655.886	-200.000	-0.033	-0.178
-654.872	-109.429	-0.123	0.026
-653.857	-161.516	-0.252	0.013
-652.843	-108.119	-0.337	-0.074
-651.828	386.982	0.008	0.018
-650.814	-200.000	0.005	0.101
-649.799	189.721	-0.064	0.097
-648.784	369.939	-0.209	0.426
-647.770	8.309	0.108	-0.082
-646.755	500.714	-0.118	-0.274
-645.741	69.027	-0.333	-0.345
-644.726	-69.076	0.468	-0.181
-643.711	-16.289	0.204	-0.131
-642.697	-200.000	-0.030	-0.178
-641.682	-19.059	-0.200	0.125
-640.668	-20.421	-0.298	-0.184
-639.653	167.293	-0.164	0.234
-638.638	237.424	0.105	0.175
-637.624	-79.614	-0.350	0.119
-636.609	346.376	-0.049	0.097
-635.595	800.000	-0.051	0.174
-634.580	-122.791	0.400	-0.065
-633.565	-123.403	-0.244	-0.039
-632.551	0.638	0.056	0.040
-631.536	202.434	-0.056	0.086
-630.522	-139.758	0.156	0.017
-629.507	-127.971	-0.141	-0.020
-628.492	98.430	-0.101	-0.117
-627.478	117.083	0.133	-0.164
-626.463	-95.349	0.382	0.103
-625.449	-57.564	0.126	0.056
-624.434	94.085	-0.133	0.152
-623.419	98.154	0.218	-0.253
-622.405	-105.610	0.128	-0.029
-621.390	-129.887	-0.245	0.034
-620.376	151.776	-0.116	-0.159
-619.361	69.102	-0.095	-0.098
-618.346	-200.000	0.053	-0.528
-617.332	-188.330	0.361	0.005
-616.317	-200.000	-0.063	0.321
-615.303	800.000	-0.060	-0.198
-614.288	27.795	-0.197	0.167
-613.273	-77.255	-0.011	0.004
-612.259	84.573	0.150	0.166
-611.244	172.081	0.115	-0.166
-610.230	-115.780	0.115	-0.022
-609.215	59.918	-0.187	-0.186
-608.201	-49.623	-0.154	-0.074
-607.186	46.663	-0.150	0.140
-606.171	800.000	0.013	-0.053
-605.157	11.214	-0.117	-0.090
-604.142	-93.418	0.268	-0.075
-603.128	-144.841	-0.240	0.022
-602.113	-100.809	0.462	0.114
-601.098	-200.000	0.009	-0.105
-600.084	419.742	-0.145	-0.311
-599.069	-63.633	-0.132	0.054
-598.055	-149.831	0.051	-0.004
-597.040	-200.000	-0.075	-0.380
-596.025	112.845	0.238	-0.290
-595.011	-58.663	0.146	-0.064
-593.996	-54.135	-0.207	-0.094
-592.982	252.504	0.082	0.140
-591.967	99.955	-0.092	0.106
-590.952	44.062	-0.218	-0.200
-589.938	199.304	-0.117	-0.180
-588.923	-200.000	0.047	-0.214
-587.909	-21.467	0.312	0.191
-586.894	7.685	0.327	-0.246
-585.879	-39.102	-0.139	0.073
-584.865	33.611	-0.122	-0.106
-583.850	-154.534	-0.265	-0.018
-582.836	-31.271	-0.154	0.087
-581.821	-200.000	-0.026	-0.186
-580.806	119.699	-0.113	0.141
-579.792	6.223	-0.369	-0.274
-578.777	-7.526	0.029	-0.020
-577.763	800.000	0.054	-0.177
-576.748	740.236	-0.149	-0.401
-575.733	-60.898	0.261	-0.111
-574.719	-200.000	-0.020	0.200
-573.704	800.000	0.070	-0.252
-572.690	-200.000	0.043	-0.235
-571.675	800.000	0.035	-0.125
-570.661	-76.712	0.172	0.060
-569.646	529.285	0.011	-0.026
-568.631	410.021	0.141	-0.300
-567.617	-179.509	0.527	0.012
-566.602	-200.000	0.008	0.392
-565.588	-108.061	-0.209	-0.045
-564.573	800.000	0.074	0.255
-563.558	-100.247	0.101	-0.025
-562.544	800.000	0.032	0.110
-561.529	-122.982	0.277	-0.045
-560.515	-200.000	-0.038	-0.257
-559.500	800.000	-0.039	-0.133
-558.485	228.158	0.078	0.127
-557.471	-123.915	0.075	0.012
-556.456	-86.516	0.227	-0.070
-555.442	-0.778	-0.218	0.155
-554.427	-200.000	0.027	0.282
-553.412	-136.436	-0.411	-0.048
-552.398	141.398	0.125	-0.166
-551.383	-4.600	0.321	0.222
-550.369	508.930	-0.038	0.089
-549.354	130.464	0.206	0.264
-548.339	-57.724	-0.325	0.143
-547.325	706.657	0.109	-0.287
-546.310	34.978	0.271	0.238
-545.296	679.037	-0.097	0.254
-544.281	-200.000	-0.016	0.074
-543.266	-140.460	-0.198	0.021
-542.252	37.703	0.083	-0.074
-541.237	278.005	0.148	-0.264
-540.223	-200.000	0.022	-0.116
-539.208	751.966	-0.045	0.120
-538.193	29.820	-0.045	-0.039
-537.179	-200.000	0.011	-0.071
-536.164	-110.343	-0.310	-0.065
-535.150	108.395	0.127	-0.151
-534.135	-200.000	-0.009	0.076
-533.121	-200.000	0.021	-0.110
-532.106	800.000	0.050	0.204
-531.091	-134.505	-0.294	0.036
-530.077	177.654	-0.050	0.072
-529.062	-18.957	-0.185	-0.116
-528.048	-200.000	0.043	-0.368
-527.033	-176.893	0.012	0.000
-526.018	-73.183	0.154	-0.056
-525.004	163.629	0.264	-0.372
-523.989	-191.378	-0.251	-0.003
-522.975	72.764	-0.259	0.271
-521.960	0.783	0.258	-0.185
-520.945	400.554	0.154	-0.323
-519.931	-200.000	0.036	0.302
-518.916	-67.160	0.325	-0.128
-517.902	-87.504	-0.298	-0.090
-516.887	-80.309	-0.043	0.014
-515.872	-200.000	-0.035	-0.295
-514.858	-178.538	-0.231	0.005
-513.843	-95.259	-0.175	0.047
-512.829	-51.562	0.161	-0.075
-511.814	193.721	0.050	0.076
-510.799	16.955	0.210	0.166
-509.785	-97.446	0.292	0.076
-508.770	-189.473	0.281	0.003
-507.756	-200.000	-0.028	-0.125
-506.741	-103.579	0.438	-0.103
-505.726	-200.000	0.032	-0.332
-504.712	-93.372	-0.161	-0.045
-503.697	-53.007	-0.042	-0.019
-502.683	13.423	0.110	-0.085
-501.668	800.000	0.023	0.073
-500.653	-84.383	-0.395	-0.125
-499.639	800.000	0.057	-0.184
-498.624	216.652	0.106	-0.169
-497.610	193.614	-0.234	-0.354
-496.595	-13.576	0.185	-0.120
-495.581	135.775	0.138	0.179
-494.566	67.779	0.206	-0.210
-493.551	56.774	0.074	-0.072
-492.537	309.426	-0.097	0.181
-491.522	-200.000	-0.004	-0.110
-490.508	14.330	0.079	-0.062
-489.493	78.132	0.061	0.065
-488.478	158.061	0.010	-0.013
-487.464	56.535	-0.141	0.137
-486.449	-68.318	0.266	-0.103
-485.435	86.659	-0.199	-0.219
-484.420	-71.002	-0.167	0.063
-483.405	-101.292	0.103	-0.025
-482.391	-9.727	0.270	-0.180
-481.376	-200.000	0.015	-0.103
-480.362	-104.201	0.301	0.070
-479.347	439.992	-0.072	0.157
-478.332	132.694	-0.165	0.213
-477.318	0.057	-0.047	0.034
-476.303	-200.000	0.013	-0.322
-475.289	-200.000	-0.033	-0.158
-474.274	735.221	0.101	0.271
-473.259	421.061	-0.091	0.194
-472.245	-47.332	-0.229	0.112
-471.230	-200.000	-0.025	-0.135
-470.216	99.204	0.100	0.115
-469.201	800.000	0.059	0.227
-468.186	-155.522	0.318	0.020
-467.172	-166.878	0.203	-0.008
-466.157	-78.900	-0.210	-0.072
-465.143	172.082	0.294	0.422
-464.128	-101.648	0.124	-0.030
-463.113	125.698	0.083	0.104
-462.099	-67.923	0.096	-0.037
-461.084	-91.841	-0.216	-0.061
-460.070	-200.000	-0.041	0.228
-459.055	-200.000	-0.044	0.307
-458.040	490.630	-0.132	-0.302
-457.026	800.000	0.120	-0.439
-456.011	-17.391	-0.161	-0.101
-454.997	-200.000	-0.029	-0.192
-453.982	-200.000	0.016	-0.240
-452.968	800.000	-0.153	-0.650
-451.953	342.860	-0.080	0.156
-450.938	230.672	0.043	0.070
-449.924	650.223	0.119	0.304
-448.909	-40.927	-0.230	0.119
-447.895	800.000	0.028	-0.118
-446.880	412.892	-0.055	-0.117
-445.865	-55.780	-0.246	-0.110
-444.851	12.108	0.168	0.129
-443.836	124.054	0.157	0.196
-442.822	-115.440	-0.419	-0.079
-441.807	-71.873	-0.157	-0.058
-440.792	-47.047	0.321	0.156
-439.778	-73.987	0.172	-0.062
-438.763	-113.927	-0.315	-0.061
-437.749	82.233	-0.135	0.146
-436.734	-113.076	0.260	-0.051
-435.719	44.778	0.288	-0.264
-434.705	-92.732	-0.245	0.068
-433.690	-41.930	-0.073	0.037
-432.676	321.667	0.018	-0.034
-431.661	-99.041	-0.093	0.024
-430.646	50.788	0.124	-0.117
-429.632	224.874	-0.092	0.148
-428.617	-77.800	-0.138	-0.047
-427.603	305.307	0.079	-0.146
-426.588	-60.369	0.301	-0.128
-425.573	-48.389	0.174	0.084
-424.559	-140.134	0.528	0.055
-423.544	58.336	-0.170	0.166
-422.530	0.800	-0.042	-0.030
-421.515	-95.022	0.164	-0.044
-420.500	311.527	0.029	0.054
-419.486	312.332	0.117	0.219
-418.471	-175.417	0.273	-0.007
-417.457	311.370	-0.100	0.187
-416.442	-10.833	-0.226	0.149
-415.428	-200.000	-0.029	0.397
-414.413	-66.212	-0.247	0.098
-413.398	108.168	-0.034	-0.040
-412.384	800.000	-0.096	-0.287
-411.369	169.584	-0.172	0.245
-410.355	87.587	0.181	0.200
-409.340	161.400	0.263	-0.367
-408.325	-56.969	-0.106	-0.046
-407.311	-200.000	0.040	-0.199
-406.296	-17.816	0.109	0.068
-405.282	800.000	0.093	0.266
-404.267	8.870	-0.232	0.175
-403.252	386.870	-0.123	0.252
-402.238	-200.000	0.002	-0.211
-401.223	-92.639	0.122	0.034
-400.209	-136.748	0.199	0.023
-399.194	19.666	0.093	0.075
-398.179	-200.000	0.065	0.343
-397.165	-200.000	0.019	-0.173
-396.150	-13.067	-0.334	-0.216
-395.136	-86.655	0.175	0.053
-394.121	-47.138	0.020	-0.010
-393.106	97.139	-0.141	0.161
-392.092	-42.221	-0.274	-0.139
-391.077	-200.000	0.015	-0.214
-390.063	-120.396	0.217	0.037
-389.048	800.000	0.094	0.262
-388.033	-117.158	-0.069	0.013
-387.019	-84.789	0.206	-0.065
-386.004	-29.923	-0.293	-0.166
-384.990	-125.081	0.353	-0.054
-383.975	-28.542	-0.183	0.105
-382.960	-40.812	0.100	-0.051
-381.946	-200.000	0.075	0.395
-380.931	11.607	-0.083	0.063
-379.917	306.238	-0.218	0.403
-378.902	404.737	-0.036	0.075
-377.888	109.617	0.272	-0.325
-376.873	166.239	0.037	0.052
-375.858	800.000	-0.071	0.239
-374.844	4.410	-0.163	0.119
-373.829	70.976	-0.368	0.379
-372.815	-200.000	0.218	0.001
-371.800	19.578	-0.108	-0.087
-370.785	800.000	0.102	-0.303
-369.771	-76.098	0.167	0.059
-368.756	180.939	0.105	0.153
-367.742	-117.607	0.427	0.077
-366.727	-67.286	-0.400	0.157
-365.712	705.114	-0.085	-0.223
-364.698	800.000	0.035	-0.147
-363.683	-123.782	0.206	0.032
-362.669	-200.000	-0.001	-0.384
-361.654	-29.083	0.152	-0.087
-360.639	800.000	-0.092	-0.301
-359.625	-200.000	-0.022	-0.214
-358.610	-111.861	-0.096	-0.019
-357.596	114.279	0.075	-0.091
-356.581	-43.814	0.439	-0.220
-355.566	-200.000	0.008	-0.134
-354.552	-79.297	0.086	0.029
-353.537	-77.727	-0.105	0.036
-352.523	-188.970	0.234	-0.003
-351.508	-14.253	-0.209	-0.134
-350.493	269.900	0.086	0.151
-349.479	800.000	-0.163	-0.505
-348.464	-9.360	-0.300	0.199
-347.450	796.499	-0.116	0.319
-346.435	75.637	-0.268	0.281
-345.420	-175.751	-0.366	0.010
-344.406	-92.447	-0.122	-0.034
-343.391	82.016	0.205	-0.221
-342.377	800.000	-0.069	0.228
-341.362	-107.959	0.133	0.029
-340.348	101.341	0.091	-0.106
-339.333	684.783	0.010	0.026
-338.318	-200.000	-0.027	-0.585
-337.304	-200.000	0.037	0.239
-336.289	-83.968	-0.319	0.101
-335.275	69.267	0.222	0.227
-334.260	800.000	-0.109	0.314
-333.245	-50.567	0.415	-0.194
-332.231	-170.784	-0.217	-0.007
-331.216	-200.000	0.001	-0.157
-330.202	-200.000	0.045	0.281
-329.187	41.910	0.155	-0.140
-328.172	179.000	0.168	0.244
-327.158	-200.000	0.010	-0.317
-326.143	-200.000	-0.089	-0.541
-325.129	-95.497	-0.161	-0.043
-324.114	800.000	-0.024	-0.075
-323.099	-117.288	0.198	-0.036
-322.085	-5.563	-0.170	0.116
-321.070	-200.000	-0.025	0.456
-320.056	427.654	0.048	0.102
-319.041	-50.808	-0.049	-0.023
-318.026	-64.968	-0.391	0.157
-317.012	-131.617	0.304	0.040
-315.997	-200.000	-0.008	-0.222
-314.983	59.996	0.296	0.290
-313.968	-128.827	0.093	-0.013
-312.953	-200.000	0.045	0.229
-311.939	191.529	-0.133	-0.199
-310.924	-109.128	-0.145	-0.031
-309.910	-151.807	0.130	-0.009
-308.895	133.680	-0.074	0.096
-307.880	529.278	-0.151	0.354
-306.866	269.395	0.126	-0.220
-305.851	-79.206	-0.503	0.169
-304.837	75.005	0.025	0.026
-303.822	-92.225	-0.114	-0.032
-302.807	28.457	-0.154	0.129
-301.793	-177.739	-0.106	0.003
-300.778	-200.000	0.031	0.137
-299.764	-47.483	-0.183	-0.088
-298.749	-200.000	-0.011	-0.076
-297.735	244.993	0.072	-0.120
-296.720	12.883	0.294	0.226
-295.705	-9.518	-0.119	0.078
-294.691	115.717	-0.112	0.136
-293.676	124.573	0.048	-0.060
-292.662	-200.000	0.003	0.103
-291.647	584.596	0.146	0.356
-290.632	800.000	0.056	0.202
-289.618	-200.000	-0.011	-0.366
-288.603	-51.531	0.112	0.052
-287.589	262.573	-0.254	-0.438
-286.574	-56.342	0.130	-0.057
-285.559	6.509	0.116	-0.085
-284.545	52.376	-0.169	0.160
-283.530	-200.000	-0.046	0.202
-282.516	-83.698	0.233	-0.074
-281.501	30.026	0.076	0.064
-280.486	173.504	0.167	0.239
-279.472	161.253	0.068	-0.094
-278.457	202.850	0.132	0.202
-277.443	212.034	0.116	0.180
-276.428	-200.000	-0.005	0.062
-275.413	36.260	0.040	0.035
-274.399	683.308	-0.102	0.263
-273.384	38.066	0.237	0.209
-272.370	157.721	0.127	0.174
-271.355	800.000	-0.090	0.330
-270.340	-138.069	-0.147	-0.016
-269.326	-24.126	-0.145	-0.086
-268.311	7.338	0.409	0.303
-267.297	-5.419	-0.167	-0.114
-266.282	426.550	0.136	-0.291
-265.267	31.523	-0.343	0.292
-264.253	669.689	0.110	-0.282
-263.238	-200.000	-0.014	-0.098
-262.224	49.083	0.229	0.213
-261.209	-200.000	0.052	-0.227
-260.195	-200.000	-0.007	-0.235
-259.180	103.036	0.108	0.125
-258.165	115.936	0.117	0.142
-257.151	-159.806	-0.155	-0.008
-256.136	529.144	-0.164	0.383
-255.122	800.000	-0.031	0.110
-254.107	-200.000	-0.008	0.277
-253.092	-175.433	0.116	0.003
-252.078	128.907	-0.128	0.162
-251.063	-200.000	-0.006	0.281
-250.049	-62.687	0.018	-0.007
-249.034	153.860	-0.263	0.357
-248.019	-103.216	-0.198	-0.046
-247.005	125.839	-0.070	0.087
-245.990	-185.253	0.224	-0.003
-244.976	-4.136	0.127	-0.087
-243.961	-117.093	0.296	-0.053
-242.946	44.644	-0.218	-0.198
-241.932	-146.562	-0.134	0.012
-240.917	91.617	-0.055	0.061
-239.903	-5.176	-0.071	0.048
-238.888	800.000	-0.174	-0.527
-237.873	800.000	0.068	-0.223
-236.859	-60.999	-0.215	0.090
-235.844	-38.401	-0.203	0.107
-234.830	800.000	0.037	-0.117
-233.815	-124.346	-0.426	0.066
-232.800	-35.142	-0.186	-0.100
-231.786	384.282	0.102	-0.207
-230.771	-18.294	-0.211	0.131
-229.757	800.000	-0.042	0.161
-228.742	-187.879	-0.425	-0.005
-227.727	53.634	-0.297	0.282
-226.713	142.714	-0.043	-0.057
-225.698	-51.390	-0.172	0.079
-224.684	-200.000	-0.007	0.167
-223.669	405.586	0.177	0.370
-222.655	19.135	-0.050	0.039
-221.640	47.919	-0.282	-0.261
-220.625	-132.046	-0.207	-0.027
-219.611	-14.998	0.122	-0.077
-218.596	5.230	-0.226	0.165
-217.582	-175.462	-0.180	0.005
-216.567	15.945	-0.102	0.080
-215.552	-43.680	-0.087	-0.043
-214.538	119.931	0.043	0.052
-213.523	-200.000	-0.022	-0.132
-212.509	15.294	-0.169	0.131
-211.494	413.591	-0.165	0.347
-210.479	800.000	-0.037	-0.128
-209.465	-116.335	-0.454	-0.083
-208.450	54.159	-0.264	-0.251
-207.436	171.756	0.190	0.270
-206.421	588.454	-0.089	0.217
-205.406	-152.408	0.296	-0.021
-204.392	-200.000	-0.018	0.203
-203.377	-106.124	-0.146	-0.033
-202.363	-152.010	0.401	0.029
-201.348	800.000	0.044	-0.138
-200.333	337.938	-0.148	0.284
-199.319	-4.402	0.196	0.134
-198.304	-200.000	0.032	-0.153
-197.290	-200.000	-0.093	-0.647
-196.275	-126.617	-0.216	0.032
-195.260	800.000	0.056	0.224
-194.246	-103.135	0.144	0.034
-193.231	-42.699	-0.270	-0.136
-192.217	-200.000	-0.003	0.240
-191.202	-200.000	-0.023	0.185
-190.187	-200.000	0.027	0.426
-189.173	-137.785	-0.333	0.037
-188.158	175.159	0.078	0.112
-187.144	-28.054	0.153	-0.088
-186.129	192.333	-0.170	0.253
-185.114	800.000	-0.036	-0.139
-184.100	-87.981	0.070	0.021
-183.085	-200.000	0.058	-0.391
-182.071	-1.893	0.261	0.182
-181.056	-79.448	0.291	-0.097
-180.042	330.252	0.209	-0.397
-179.027	-200.000	-0.003	0.328
-178.012	-200.000	0.030	0.136
-176.998	-4.791	-0.155	0.106
-175.983	-168.079	0.161	-0.006
-174.969	-200.000	0.050	-0.228
-173.954	-109.589	-0.098	0.020
-172.939	105.795	0.221	0.258
-171.925	133.226	0.157	0.200
-170.910	-53.857	0.275	0.124
-169.896	-88.634	0.097	-0.028
-168.881	45.281	-0.058	-0.053
-167.866	-187.991	0.150	-0.002
-166.852	160.290	0.106	0.146
-165.837	-12.117	0.443	-0.287
-164.823	43.058	0.199	0.179
-163.808	-200.000	0.010	-0.102
-162.793	128.863	-0.121	-0.152
-161.779	-86.340	-0.218	-0.066
-160.764	800.000	-0.034	-0.113
-159.750	-147.178	-0.386	0.032
-158.735	348.339	0.136	-0.265
-157.720	302.608	-0.161	0.295
-156.706	749.673	-0.017	0.044
-155.691	-177.348	0.165	0.004
-154.677	-75.733	0.224	-0.078
-153.662	-25.762	-0.052	-0.030
-152.647	59.774	-0.107	-0.104
-151.633	800.000	0.016	-0.063
-150.618	4.160	0.165	0.119
-149.604	-148.420	0.260	0.021
-148.589	-3.015	-0.214	0.147
-147.574	232.727	0.126	-0.204
-146.560	-200.000	0.032	-0.308
-145.545	17.666	0.058	0.046
-144.531	325.051	-0.023	0.044
-143.516	-127.381	-0.161	-0.023
-142.502	-114.183	-0.079	-0.015
-141.487	-69.166	-0.261	-0.099
-140.472	-200.000	0.017	0.224
-139.458	-200.000	0.018	0.171
-138.443	121.838	-0.127	0.157
-137.429	-2.968	0.139	-0.096
-136.414	800.000	0.112	-0.348
-135.399	-77.849	0.047	-0.016
-134.385	-38.418	0.106	-0.055
-133.370	-113.135	-0.212	0.041
-132.356	-62.349	-0.126	0.052
-131.341	-127.324	0.109	0.016
-130.326	707.584	0.173	-0.450
-129.312	-200.000	-0.011	0.276
-128.297	357.490	-0.085	0.167
-127.283	800.000	-0.018	0.063
-126.268	-71.969	0.367	0.134
-125.253	137.915	0.194	-0.250
-124.239	482.380	-0.196	-0.438
-123.224	4.374	0.247	-0.179
-122.210	63.832	-0.042	-0.042
-121.195	117.324	0.167	0.203
-120.180	-200.000	-0.015	0.093
-119.166	-162.025	-0.113	-0.006
-118.151	290.079	-0.212	0.379
-117.137	-166.703	-0.054	-0.002
-116.122	800.000	0.097	-0.385
-115.107	-87.277	0.215	0.064
-114.093	-157.900	0.189	-0.011
-113.078	800.000	0.061	-0.207
-112.064	-200.000	-0.003	0.113
-111.049	65.020	0.149	0.149
-110.034	-150.541	-0.238	0.018
-109.020	-200.000	0.021	0.196
-108.005	800.000	0.050	0.170
-106.991	-131.243	0.429	-0.056
-105.976	52.992	-0.160	-0.150
-104.962	-119.013	-0.165	0.028
-103.947	569.646	0.102	0.245
-102.932	-200.000	0.009	0.114
-101.918	-98.084	0.148	0.037
-100.903	98.066	-0.155	-0.176
-99.889	421.598	0.081	0.171
-98.874	344.810	-0.058	0.112
-97.859	-49.094	-0.034	0.016
-96.845	-200.000	-0.007	0.128
-95.830	-25.906	0.086	0.050
-94.816	175.768	-0.072	-0.103
-93.801	-24.811	-0.293	0.171
-92.786	-10.166	-0.252	-0.165
-91.772	-145.946	0.243	0.021
-90.757	-200.000	0.001	0.135
-89.743	-15.099	-0.407	-0.257
-88.728	-4.247	0.332	-0.226
-87.713	-100.757	-0.171	0.041
-86.699	87.702	-0.050	-0.055
-85.684	-61.304	0.282	0.117
-84.670	-142.112	-0.260	0.025
-83.655	800.000	-0.103	0.328
-82.640	61.949	-0.095	-0.093
-81.626	532.903	0.081	-0.189
-80.611	58.233	-0.156	-0.151
-79.597	-139.055	0.212	-0.023
-78.582	-74.704	-0.126	0.045
-77.567	-200.000	0.026	-0.246
-76.553	-200.000	-0.019	-0.151
-75.538	18.529	0.209	0.165
-74.524	32.620	0.175	-0.149
-73.509	-78.199	-0.139	0.047
-72.494	-111.728	0.142	-0.028
-71.480	-100.945	0.207	0.050
-70.465	-50.471	0.035	0.016
-69.451	45.766	0.190	0.173
-68.436	105.962	0.218	0.254
-67.422	-200.000	0.047	0.241
-66.407	24.957	-0.243	0.198
-65.392	119.111	0.246	0.299
-64.378	800.000	-0.026	0.083
-63.363	-200.000	-0.002	0.112
-62.349	-95.126	-0.184	0.049
-61.334	2.806	-1.283	-0.915
-60.319	-200.000	0.135	0.721
-59.305	-200.000	-0.059	-0.925
-58.290	492.760	0.474	1.069
-57.276	800.000	0.336	1.284
-56.261	-200.000	96.428	605.603
-55.246	571.287	1362.626	3261.654
-54.232	163.155	2539.866	3508.551
-53.217	112.991	2153.318	2565.907
-52.203	42.658	1700.077	1521.569
-51.188	35.232	1512.926	1303.735
-50.173	32.735	1486.436	1264.144
-49.159	52.230	1535.090	1438.726
-48.144	53.750	1553.748	1466.523
-47.130	35.247	1513.247	1303.909
-46.115	32.192	1498.668	1270.674
-45.100	32.014	1495.386	1266.642
-44.086	32.107	1493.249	1265.407
-43.071	31.976	1491.708	1263.168
-42.057	31.921	1489.559	1260.931
-41.042	31.957	1488.138	1259.917
-40.027	31.911	1486.911	1258.517
-39.013	31.956	1485.714	1257.761
-37.998	31.918	1484.414	1256.354
-36.984	31.886	1483.331	1255.173
-35.969	31.927	1481.811	1254.109
-34.954	32.037	1479.746	1253.045
-33.940	31.935	1479.140	1251.806
-32.925	31.986	1477.713	1250.887
-31.911	31.947	1476.358	1249.427
-30.896	31.997	1474.989	1248.552
-29.881	31.894	1473.832	1246.843
-28.867	32.000	1472.215	1246.129
-27.852	31.970	1470.910	1244.775
-26.838	32.061	1469.199	1243.879
-25.823	31.992	1468.046	1242.400
-24.809	32.023	1465.797	1240.653
-23.794	31.957	1465.062	1239.545
-22.779	31.983	1463.474	1238.322
-21.765	31.997	1462.353	1237.415
-20.750	31.936	1461.601	1236.331
-19.736	31.934	1460.109	1235.007
-18.721	31.968	1459.298	1234.493
-17.706	31.933	1457.882	1233.015
-16.692	31.845	1457.189	1231.804
-15.677	31.938	1455.685	1231.094
-14.663	31.892	1455.314	1230.427
-13.648	31.902	1454.367	1229.645
-12.633	31.857	1453.267	1228.370
-11.619	31.934	1452.364	1228.065
-10.604	31.923	1451.395	1227.123
-9.590	31.973	1450.762	1226.866
-8.575	31.956	1449.728	1225.835
-7.560	31.888	1448.903	1224.643
-6.546	31.942	1447.679	1223.908
-5.531	31.814	1447.419	1222.808
-4.517	31.825	1446.299	1221.883
-3.502	31.770	1445.134	1220.497
-2.487	31.802	1444.218	1219.880
-1.473	31.931	1442.761	1219.439
-0.458	31.893	1441.353	1217.953
0.556	32.381	1432.061	1206.647
1.571	29.530	1408.085	1168.325
2.586	26.892	1353.995	1107.270
3.600	25.844	1276.392	1037.685
4.615	24.759	1229.652	993.576
5.629	21.274	1172.398	928.735
6.644	11.466	1085.240	811.113
7.659	3.593	1042.971	741.733
8.673	2.457	1037.714	732.496
9.688	2.230	1034.295	728.936
10.702	2.050	1032.577	726.805
11.717	2.153	1030.597	725.836
12.731	6.168	1035.481	748.349
13.746	16.113	1048.996	805.791
14.761	23.283	1059.279	848.090
15.775	25.227	1060.450	858.262
16.790	25.610	1059.803	859.495
17.804	25.313	1059.335	857.620
18.819	25.241	1058.550	856.564
19.834	25.358	1057.975	856.580
20.848	25.421	1058.082	856.892
21.863	25.554	1057.582	857.046
22.877	25.640	1056.709	856.672
23.892	25.544	1056.113	855.655
24.907	25.511	1054.954	854.486
25.921	25.459	1054.790	854.026
26.936	25.447	1053.580	852.916
27.950	25.425	1052.791	852.097
28.965	25.496	1051.443	851.267
29.980	25.378	1050.184	849.617
30.994	25.263	1048.923	847.977
32.009	25.452	1048.337	848.319
33.023	25.482	1048.069	848.168
34.038	25.355	1046.726	846.408
35.053	25.376	1045.876	845.747
36.067	25.486	1045.362	845.774
37.082	25.559	1044.541	845.376
38.096	25.443	1044.088	844.388
39.111	25.660	1043.016	844.467
40.126	25.765	1042.333	844.332
41.140	25.751	1040.985	843.100
42.155	25.481	1039.854	840.844
43.169	25.199	1038.338	838.227
44.184	25.041	1037.368	836.633
45.199	25.078	1036.925	836.376
46.213	25.152	1035.473	835.475
47.228	25.156	1034.528	834.659
48.242	25.314	1034.342	835.169
49.257	25.327	1033.376	834.377
50.271	25.423	1032.704	834.202
51.286	25.481	1032.326	834.093
52.301	25.577	1031.513	833.811
53.315	25.511	1031.029	833.035
54.330	25.510	1029.703	831.887
55.344	25.424	1029.130	830.954
56.359	25.420	1028.344	830.228
57.374	25.475	1027.459	829.691
58.388	25.383	1026.272	828.236
59.403	25.309	1025.566	827.251
60.417	25.206	1025.063	826.299
61.432	25.140	1024.333	825.332
62.447	25.155	1023.598	824.738
63.461	25.213	1022.517	824.058
64.476	25.261	1022.161	823.922
65.490	25.248	1021.364	823.147
66.505	25.142	1020.217	821.661
67.520	25.183	1019.555	821.244
68.534	25.219	1018.536	820.517
69.549	25.156	1017.750	819.521
70.563	24.737	1016.848	816.811
71.578	24.780	1015.865	816.143
72.593	24.732	1015.013	815.171
73.607	24.682	1013.798	813.895
74.622	24.588	1013.249	812.952
75.636	24.941	1012.543	813.920
76.651	25.041	1011.873	813.763
77.666	24.962	1010.919	812.565
78.680	24.850	1009.981	811.232
79.695	24.859	1009.378	810.718
80.709	24.928	1009.120	810.752
81.724	25.107	1008.268	810.803
82.739	25.100	1007.394	809.995
83.753	25.071	1006.282	808.900
84.768	25.404	1005.407	809.626
85.782	25.685	1005.209	810.662
86.797	25.842	1004.517	810.738
87.812	25.926	1003.334	810.088
88.826	25.740	1002.466	808.484
89.841	25.576	1001.983	807.287
90.855	25.722	1001.211	807.248
91.870	25.744	1000.616	806.792
92.884	25.635	999.650	805.457
93.899	25.619	998.736	804.575
94.914	25.546	997.481	803.166
95.928	25.605	997.266	803.185
96.943	25.655	996.050	802.359
97.957	25.483	994.996	800.675
98.972	25.039	993.721	797.599
99.987	24.905	993.331	796.619
101.001	25.117	992.244	796.621
102.016	25.413	991.937	797.618
103.030	25.507	990.714	796.981
104.045	25.404	990.014	795.893
105.060	25.216	988.768	793.987
106.074	25.090	987.341	792.215
107.089	25.119	986.811	791.848
108.103	25.436	986.773	793.147
109.118	25.432	985.645	792.152
110.133	25.204	984.217	789.929
111.147	25.122	983.486	788.912
112.162	25.176	982.562	788.340
113.176	24.792	981.279	785.553
114.191	24.861	980.735	785.350
115.206	25.249	979.586	786.063
116.220	24.875	978.355	783.370
117.235	24.674	977.758	781.944
118.249	24.815	977.102	781.966
119.264	24.836	976.429	781.448
120.279	24.645	975.798	780.039
121.293	24.780	974.470	779.498
122.308	24.882	974.002	779.501
123.322	24.821	973.356	778.651
124.337	24.917	971.950	777.872
125.352	24.753	971.281	776.557
126.366	24.341	969.256	773.082
127.381	23.938	968.475	770.643
128.395	24.542	968.000	772.815
129.410	25.125	967.956	775.231
130.424	25.299	967.092	775.222
131.439	25.317	966.103	774.437
132.454	25.284	964.956	773.311
133.468	25.319	964.078	772.688
134.483	25.275	963.190	771.719
135.497	25.380	962.728	771.731
136.512	25.501	962.079	771.664
137.527	25.545	961.879	771.620
138.541	25.638	960.481	770.832
139.556	25.524	960.060	769.936
140.570	25.505	959.120	769.035
141.585	25.692	958.013	768.875
142.600	25.795	957.735	769.027
143.614	25.700	956.648	767.682
144.629	25.750	956.005	767.309
145.643	26.065	955.198	767.933
146.658	25.878	954.252	766.312
147.673	25.570	953.200	764.090
148.687	25.496	951.959	762.713
149.702	25.567	950.841	762.049
150.716	25.422	949.652	760.417
151.731	25.447	948.629	759.636
152.746	25.346	948.903	759.361
153.760	25.526	948.160	759.462
154.775	25.749	947.349	759.684
155.789	25.825	946.535	759.284
156.804	25.785	945.278	758.040
157.819	25.781	944.218	757.109
158.833	25.650	943.976	756.296
159.848	25.768	943.213	756.112
160.862	25.990	942.107	756.089
161.877	25.804	941.216	754.530
162.892	25.711	940.158	753.223
163.906	25.810	939.343	752.920
164.921	25.754	939.036	752.372
165.935	25.837	937.386	751.328
166.950	25.812	936.638	750.560
167.964	25.990	936.008	750.729
168.979	25.702	934.879	748.559
169.994	25.699	933.907	747.703
171.008	25.506	933.003	746.110
172.023	25.634	932.308	746.022
173.037	25.932	931.433	746.489
174.052	25.779	930.208	744.807
175.067	25.526	929.335	742.997
176.081	25.412	928.495	741.791
177.096	25.487	927.887	741.550
178.110	25.639	926.860	741.290
179.125	25.496	926.057	739.991
180.140	25.239	925.120	738.120
181.154	25.254	923.960	737.193
182.169	25.218	924.058	737.055
183.183	25.588	923.714	738.236
184.198	25.615	923.380	738.016
185.213	25.583	922.589	737.184
186.227	25.598	921.665	736.446
187.242	25.721	921.338	736.622
188.256	25.696	920.959	736.150
189.271	25.696	919.697	735.078
190.286	25.840	919.120	735.138
191.300	25.689	918.342	733.837
192.315	25.139	917.196	730.616
193.329	24.329	915.400	725.825
194.344	23.993	914.232	723.466
195.359	24.659	914.731	726.505
196.373	25.475	915.258	730.178
197.388	25.686	914.838	730.635
198.402	25.555	914.456	729.732
199.417	25.611	913.603	729.216
200.432	25.672	913.288	729.146
201.446	25.560	912.589	728.070
202.461	25.321	911.483	726.155
203.475	25.355	911.004	725.850
204.490	24.873	909.619	722.736
205.504	23.769	907.507	716.543
206.519	24.292	907.339	718.454
207.534	25.057	907.943	721.954
208.548	25.090	907.394	721.586
209.563	25.594	907.506	723.640
210.577	25.646	906.528	723.006
211.592	25.394	905.758	721.313
212.607	25.780	905.550	722.634
213.621	25.979	904.856	722.813
214.636	25.824	904.365	721.736
215.650	25.771	903.753	720.971
216.665	25.678	903.234	720.121
217.680	25.973	902.253	720.457
218.694	25.932	902.298	720.264
219.709	25.629	901.089	718.025
220.723	25.268	900.132	715.759
221.738	25.491	900.054	716.524
222.753	25.700	899.357	716.739
223.767	25.745	898.406	716.096
224.782	25.721	897.966	715.585
225.796	25.638	898.019	715.237
226.811	26.181	896.446	716.074
227.826	25.547	895.467	712.714
228.840	24.695	894.412	708.440
229.855	24.620	893.798	707.591
230.869	24.985	893.131	708.447
231.884	24.593	892.145	706.053
232.899	24.679	891.712	705.986
233.913	25.273	892.403	708.818
234.928	25.577	891.816	709.489
235.942	25.416	891.168	708.275
236.957	25.544	890.190	707.939
237.972	25.249	889.496	706.164
238.986	24.995	888.847	704.589
240.001	25.227	888.394	705.079
241.015	25.329	887.389	704.617
242.030	25.369	886.862	704.295
243.045	25.506	886.220	704.261
244.059	25.494	886.270	704.189
245.074	25.793	885.711	704.854
246.088	25.733	884.470	703.568
247.103	25.323	883.908	701.458
248.117	25.585	883.114	701.789
249.132	25.834	883.397	702.923
250.147	26.260	883.208	704.374
251.161	26.435	882.681	704.571
252.176	26.594	882.238	704.772
253.190	26.398	881.789	703.591
254.205	26.633	881.210	703.981
255.220	26.857	880.533	704.246
256.234	26.671	880.139	703.147
257.249	26.548	879.583	702.162
258.263	26.485	878.582	701.056
259.278	26.559	877.725	700.600
260.293	26.603	877.773	700.744
261.307	26.688	877.291	700.627
262.322	26.548	876.637	699.502
263.336	26.545	875.761	698.729
264.351	26.032	874.007	695.292
265.366	24.877	872.375	689.487
266.380	24.348	871.594	686.770
267.395	25.278	872.293	690.841
268.409	26.049	872.193	693.669
269.424	26.141	871.314	693.263
270.439	26.234	870.868	693.201
271.453	26.327	870.377	693.106
272.468	26.337	869.979	692.768
273.482	26.597	869.331	693.184
274.497	26.639	868.892	692.934
275.512	26.498	867.836	691.490
276.526	25.907	866.637	688.220
277.541	26.023	866.445	688.450
278.555	26.391	866.429	689.780
279.570	26.211	865.120	687.989
280.585	26.043	864.536	686.827
281.599	26.207	864.159	687.089
282.614	26.261	863.660	686.836
283.628	25.559	862.773	683.404
284.643	25.493	861.583	682.149
285.657	25.873	861.847	683.742
286.672	25.735	861.109	682.571
287.687	25.228	859.978	679.696
288.701	25.623	859.932	681.093
289.716	25.998	860.019	682.520
290.730	25.682	858.490	680.054
291.745	25.468	858.152	678.918
292.760	25.387	857.124	677.741
293.774	25.435	856.588	677.437
294.789	26.121	857.449	680.644
295.803	26.849	857.318	683.225
296.818	26.841	856.710	682.648
297.833	26.997	856.319	682.864
298.847	26.515	855.416	680.273
299.862	26.333	854.214	678.575
300.876	26.505	853.976	678.971
301.891	26.751	853.484	679.439
302.906	26.863	853.065	679.467
303.920	26.605	851.647	677.313
304.935	26.420	851.132	676.149
305.949	26.768	850.801	677.129
306.964	26.812	850.382	676.901
307.979	26.604	849.623	675.461
308.993	26.623	849.516	675.385
310.008	26.832	849.230	675.877
311.022	27.059	848.486	676.069
312.037	26.887	848.091	675.057
313.052	26.595	847.327	673.302
314.066	26.597	846.793	672.826
315.081	25.905	844.766	668.591
316.095	24.986	844.332	664.779
317.110	25.582	844.218	666.841
318.125	26.368	844.661	670.045
319.139	26.052	843.352	667.777
320.154	24.901	841.493	661.996
321.168	24.435	840.855	659.713
322.183	25.247	841.223	662.943
323.197	26.028	841.216	665.764
324.212	26.423	840.916	666.923
325.227	26.484	840.852	667.040
326.241	26.652	840.219	667.097
327.256	26.552	839.845	666.371
328.270	26.436	838.875	665.118
329.285	26.425	838.421	664.658
330.300	26.304	837.705	663.587
331.314	26.086	836.611	661.862
332.329	26.091	836.168	661.473
333.343	26.556	835.800	662.825
334.358	26.708	835.622	663.183
335.373	26.592	835.126	662.304
336.387	26.707	834.745	662.365
337.402	26.875	834.672	662.863
338.416	27.206	834.107	663.563
339.431	27.214	833.228	662.835
340.446	27.127	832.968	662.253
341.460	27.401	832.841	663.092
342.475	27.440	831.915	662.435
343.489	27.167	831.258	660.861
344.504	27.002	830.787	659.828
345.519	27.385	830.617	661.026
346.533	27.614	830.084	661.374
347.548	27.566	829.616	660.771
348.562	27.526	829.222	660.254
349.577	27.609	828.414	659.852
350.592	27.507	827.855	658.980
351.606	27.380	827.452	658.139
352.621	27.385	827.403	658.061
353.635	27.285	826.712	657.092
354.650	27.182	826.151	656.217
355.665	26.883	824.761	653.977
356.679	26.017	822.993	649.402
357.694	25.794	822.898	648.467
358.708	26.414	823.110	650.808
359.723	26.189	822.667	649.588
360.738	26.654	821.959	650.646
361.752	27.209	821.963	652.584
362.767	27.322	821.646	652.679
363.781	27.462	821.594	653.081
364.796	27.775	821.125	653.771
365.810	27.819	821.112	653.862
366.825	27.956	820.391	653.720
367.840	27.950	820.632	653.833
368.854	27.841	819.381	652.389
369.869	27.429	818.660	650.285
370.883	27.167	818.053	648.809
371.898	27.197	817.730	648.605
372.913	27.301	816.600	648.020
373.927	27.237	815.896	647.178
374.942	27.405	815.581	647.467
375.956	27.615	815.075	647.757
376.971	27.478	814.724	646.934
377.986	27.598	814.405	647.047
379.000	27.895	814.062	647.773
380.015	27.813	813.639	647.089
381.029	27.528	812.662	645.243
382.044	27.513	812.384	644.912
383.059	27.970	811.126	645.472
384.073	27.707	811.371	644.680
385.088	27.871	810.446	644.467
386.102	27.829	810.162	644.037
387.117	27.637	809.461	642.745
388.132	27.795	808.627	642.581
389.146	27.393	808.167	640.746
390.161	26.737	807.244	637.649
391.175	26.927	806.798	637.907
392.190	27.589	806.948	640.299
393.205	27.527	806.619	639.762
394.219	26.407	804.460	634.069
395.234	24.893	802.411	627.099
396.248	24.115	801.048	623.256
397.263	25.208	801.955	627.735
398.278	27.035	803.747	635.482
399.292	27.582	803.315	636.997
400.307	27.124	803.101	635.168
401.321	27.105	802.463	634.541
402.336	26.971	802.115	633.741
403.350	27.468	802.021	635.347
404.365	27.976	801.748	636.846
405.380	28.194	802.072	637.806
406.394	28.496	801.385	638.254
407.409	28.806	800.787	638.799
408.423	28.607	800.863	638.112
409.438	28.498	800.047	637.027
410.453	28.465	799.575	636.478
411.467	28.654	799.250	636.821
412.482	28.673	798.424	636.171
413.496	28.719	797.747	635.734
414.511	28.701	797.393	635.335
415.526	28.540	797.347	634.686
416.540	28.614	796.861	634.496
417.555	28.542	796.532	633.931
418.569	28.258	795.639	632.182
419.584	28.304	794.981	631.764
420.599	28.246	794.793	631.359
421.613	111.807	1286.283	1460.585
422.628	96.327	1357.885	1460.695
