DTS Sentinel unit serial number:	SN413079Multiplexer serial number:	ORYXHardware model number:	OX4-SRSoftware version number:	ORYX F/W v4.00 Oryx Data Collector v3.7.2.0data status	okinstallation	princeton_trtdifferential loss correction	single-endedforward channel	channel 3reverse channel	N/Adate	2019/09/11time	14:18:11forward acquisition time	60.00reverse acquisition time	0.00gamma	496.2192k internal	0.2292k external	0.2292temperature offset calibration	0.9975default loss term (dB/km)	0.3790temperature slope calibration	1.0000multiplexer offset coefficient	1.0000multiplexer slope coefficient	1.0000fibre end	0.00T internal ref (°C)	42.00T ext. ref 1 (°C)	0.87T ext. ref 2 (°C)	38.44length (m)	temperature (°C)	Stokes	anti-Stokes-747.200	-137.123	0.016	-0.002
-746.185	-19.064	-0.120	0.077
-745.171	-35.294	0.138	-0.077
-744.156	-85.572	-0.215	0.068
-743.142	424.677	-0.022	0.048
-742.127	-39.365	-0.168	-0.090
-741.112	501.739	0.123	-0.291
-740.098	-116.953	-0.327	0.061
-739.083	198.799	0.189	0.297
-738.069	-27.231	-0.282	0.168
-737.054	-181.941	-0.200	-0.004
-736.039	-155.026	-0.256	0.017
-735.025	13.551	0.078	-0.062
-734.010	800.000	0.033	-0.107
-732.996	-52.577	-0.221	0.105
-731.981	33.474	0.132	-0.117
-730.966	519.342	-0.032	-0.077
-729.952	-108.429	-0.372	-0.082
-728.937	800.000	0.020	-0.074
-727.923	-200.000	-0.022	0.154
-726.908	-13.600	0.346	0.230
-725.894	-178.146	0.148	-0.004
-724.879	79.748	-0.085	-0.093
-723.864	-200.000	-0.038	-0.330
-722.850	287.575	-0.128	-0.237
-721.835	-133.789	-0.214	0.027
-720.821	82.289	0.106	-0.118
-719.806	-38.745	0.245	-0.132
-718.791	238.598	-0.030	0.051
-717.777	47.139	-0.266	0.254
-716.762	26.760	0.338	-0.289
-715.748	-123.452	0.192	0.031
-714.733	157.942	0.181	0.257
-713.718	-200.000	-0.023	-0.327
-712.704	-200.000	-0.040	-0.334
-711.689	-152.646	0.226	-0.016
-710.675	32.921	-0.270	-0.239
-709.660	-59.443	-0.102	-0.045
-708.645	-156.520	0.061	-0.004
-707.631	-118.099	0.062	0.011
-706.616	-47.857	0.343	0.170
-705.602	-51.081	-0.199	-0.096
-704.587	482.449	-0.034	-0.079
-703.572	127.614	-0.167	-0.217
-702.558	-14.087	0.124	-0.081
-701.543	-12.356	0.092	0.061
-700.529	621.636	0.053	0.136
-699.514	800.000	-0.099	-0.335
-698.499	-134.881	-0.587	0.073
-697.485	-178.053	-0.270	-0.007
-696.470	800.000	-0.098	-0.283
-695.456	-37.714	-0.310	0.169
-694.441	785.152	-0.046	-0.129
-693.426	-200.000	0.002	0.164
-692.412	62.610	0.186	-0.190
-691.397	-200.000	-0.000	-0.082
-690.383	-122.893	-0.193	0.032
-689.368	451.947	0.074	-0.168
-688.354	-1.838	-0.277	-0.199
-687.339	-52.697	-0.429	-0.202
-686.324	800.000	-0.128	-0.383
-685.310	-200.000	0.007	-0.099
-684.295	251.899	-0.129	0.225
-683.281	-200.000	-0.013	-0.198
-682.266	39.369	-0.247	0.225
-681.251	-69.478	-0.186	0.073
-680.237	-48.008	-0.125	-0.061
-679.222	-141.705	0.094	0.010
-678.208	105.370	-0.108	0.130
-677.193	207.817	-0.070	-0.112
-676.178	175.986	-0.015	0.023
-675.164	-36.675	-0.098	0.054
-674.149	-200.000	0.009	-0.374
-673.135	-11.946	-0.077	-0.052
-672.120	-146.856	-0.258	0.023
-671.105	165.725	-0.170	-0.245
-670.091	-55.769	-0.062	-0.028
-669.076	-10.249	0.179	0.121
-668.062	-128.823	-0.127	-0.018
-667.047	607.378	0.210	-0.534
-666.032	146.957	0.238	-0.326
-665.018	81.890	0.158	0.174
-664.003	800.000	0.048	0.160
-662.989	-155.759	-0.416	-0.027
-661.974	-140.362	0.245	0.026
-660.959	194.956	0.013	-0.020
-659.945	126.569	-0.220	0.284
-658.930	247.396	0.183	-0.315
-657.916	-157.616	0.192	0.012
-656.901	-115.839	0.239	0.046
-655.886	-135.533	0.222	0.027
-654.872	-200.000	0.026	0.189
-653.857	788.817	0.094	-0.264
-652.843	-161.359	0.239	-0.013
-651.828	-20.424	-0.120	-0.075
-650.814	619.226	-0.032	0.081
-649.799	44.473	0.064	0.060
-648.784	-200.000	0.062	-0.524
-647.770	-176.789	-0.296	0.008
-646.755	503.584	-0.159	-0.374
-645.741	72.314	0.237	-0.251
-644.726	113.455	0.158	-0.196
-643.711	40.173	0.283	-0.259
-642.697	-90.489	-0.163	-0.048
-641.682	526.978	-0.062	-0.150
-640.668	-41.731	0.154	0.081
-639.653	800.000	-0.166	-0.553
-638.638	264.598	-0.092	-0.163
-637.624	73.461	-0.169	-0.180
-636.609	35.812	-0.198	-0.178
-635.595	222.402	0.080	-0.130
-634.580	117.054	0.122	0.152
-633.565	168.070	-0.082	0.118
-632.551	-60.327	-0.231	-0.100
-631.536	75.859	-0.114	-0.122
-630.522	53.081	0.097	-0.095
-629.507	-200.000	0.011	0.268
-628.492	-119.939	-0.178	0.031
-627.478	38.157	0.046	0.042
-626.463	-151.201	-0.289	0.022
-625.449	-88.348	0.114	0.035
-624.434	-200.000	0.011	0.060
-623.419	-136.724	-0.448	0.053
-622.405	3.052	0.058	-0.043
-621.390	133.222	-0.161	-0.212
-620.376	-4.601	-0.377	-0.265
-619.361	-56.678	0.242	0.109
-618.346	-200.000	0.013	0.261
-617.332	400.463	-0.078	0.166
-616.317	-15.976	0.180	-0.117
-615.303	445.597	-0.064	0.142
-614.288	-21.863	-0.252	-0.156
-613.273	118.370	-0.180	0.227
-612.259	236.448	0.179	0.302
-611.244	-18.731	-0.144	-0.091
-610.230	-37.238	-0.113	-0.061
-609.215	-200.000	0.000	0.017
-608.201	344.473	0.095	0.189
-607.186	-58.806	0.059	0.026
-606.171	-77.087	-0.198	0.070
-605.157	466.462	-0.076	0.173
-604.142	-200.000	0.026	0.345
-603.128	-78.563	0.380	0.132
-602.113	-200.000	0.034	-0.270
-601.098	-200.000	0.002	-0.032
-600.084	-83.568	0.125	-0.041
-599.069	-23.069	0.200	-0.123
-598.055	-89.661	0.165	0.049
-597.040	166.905	-0.214	-0.309
-596.025	-200.000	0.041	0.198
-595.011	2.888	-0.212	0.157
-593.996	43.100	0.131	-0.121
-592.982	240.646	-0.213	-0.361
-591.967	16.652	0.109	0.088
-590.952	-6.470	0.266	0.185
-589.938	60.106	0.070	0.070
-588.923	800.000	0.068	-0.294
-587.909	462.205	0.027	0.062
-586.894	553.818	0.046	0.111
-585.879	276.350	-0.130	0.235
-584.865	523.913	-0.051	-0.122
-583.850	800.000	0.135	-0.394
-582.836	-18.160	-0.078	-0.050
-581.821	-200.000	-0.035	-0.167
-580.806	-30.016	0.319	0.185
-579.792	494.632	0.166	0.387
-578.777	743.836	-0.041	0.111
-577.763	-141.667	-0.225	0.023
-576.748	449.782	-0.066	0.149
-575.733	51.825	-0.321	0.311
-574.719	639.696	0.099	-0.256
-573.704	67.950	0.037	-0.038
-572.690	-69.390	-0.322	0.126
-571.675	-200.000	0.018	0.113
-570.661	-66.351	0.227	0.092
-569.646	-125.790	0.310	0.048
-568.631	-79.935	-0.295	-0.101
-567.617	795.121	-0.047	-0.133
-566.602	-151.366	0.316	-0.024
-565.588	-144.622	-0.032	-0.003
-564.573	553.060	-0.050	-0.123
-563.558	23.313	0.237	0.198
-562.544	-98.168	-0.171	-0.045
-561.529	53.668	0.091	-0.089
-560.515	-200.000	-0.040	0.396
-559.500	361.504	0.103	-0.209
-558.485	218.710	0.121	0.196
-557.471	-200.000	-0.011	0.100
-556.456	-127.173	0.054	-0.008
-555.442	-35.161	-0.141	-0.078
-554.427	132.338	0.127	0.166
-553.412	416.235	0.075	0.162
-552.398	-44.543	-0.379	-0.192
-551.383	-132.826	-0.218	-0.028
-550.369	67.901	0.081	-0.085
-549.354	-170.950	0.352	-0.012
-548.339	-99.838	-0.163	0.041
-547.325	-129.650	-0.179	0.025
-546.310	-200.000	0.002	0.144
-545.296	355.720	-0.045	-0.091
-544.281	-200.000	0.030	-0.233
-543.266	-110.259	-0.250	-0.053
-542.252	-165.877	0.071	0.003
-541.237	144.578	0.057	-0.077
-540.223	-13.971	-0.260	0.170
-539.208	-115.481	0.013	0.003
-538.193	39.662	-0.337	-0.306
-537.179	800.000	-0.027	0.091
-536.164	-11.518	0.235	0.157
-535.150	231.750	0.175	-0.291
-534.135	366.339	0.141	0.289
-533.121	-99.144	-0.047	-0.012
-532.106	351.523	0.037	-0.074
-531.091	-146.517	0.259	-0.023
-530.077	-200.000	-0.008	-0.208
-529.062	-130.912	-0.319	-0.043
-528.048	-200.000	0.048	0.332
-527.033	-159.614	0.287	0.016
-526.018	166.108	-0.093	0.133
-525.004	-77.254	-0.224	-0.079
-523.989	800.000	0.063	0.228
-522.975	-129.026	-0.260	-0.037
-521.960	-96.593	-0.101	0.027
-520.945	-19.144	0.272	-0.171
-519.931	-82.374	-0.253	0.083
-518.916	-189.375	-0.338	-0.004
-517.902	-3.006	-0.201	-0.142
-516.887	192.786	0.158	0.243
-515.872	800.000	-0.026	0.100
-514.858	-73.392	-0.174	0.065
-513.843	-47.944	-0.174	-0.085
-512.829	7.795	0.056	0.042
-511.814	800.000	0.040	-0.113
-510.799	-17.362	-0.076	-0.049
-509.785	51.400	-0.304	0.293
-508.770	82.255	-0.071	0.078
-507.756	397.732	-0.081	-0.172
-506.741	-69.435	0.131	0.051
-505.726	-41.365	0.281	-0.147
-504.712	-200.000	0.011	-0.177
-503.697	-162.204	-0.254	0.013
-502.683	-23.153	0.065	0.040
-501.668	36.978	0.108	0.097
-500.653	180.448	0.110	-0.164
-499.639	-74.745	0.165	0.060
-498.624	490.275	0.119	0.277
-497.610	-15.678	0.273	0.177
-496.595	-64.258	0.287	0.118
-495.581	-200.000	0.026	-0.210
-494.566	800.000	-0.094	-0.315
-493.551	-200.000	0.055	0.322
-492.537	21.178	0.232	-0.191
-491.522	-129.257	0.224	0.032
-490.508	-200.000	0.036	-0.188
-489.493	-15.170	0.248	-0.161
-488.478	77.459	-0.258	0.278
-487.464	-125.656	-0.297	0.046
-486.449	178.561	0.133	0.197
-485.435	329.921	0.073	-0.142
-484.420	-200.000	-0.008	-0.054
-483.405	400.295	-0.110	0.234
-482.391	-200.000	0.003	-0.039
-481.376	-139.007	0.085	-0.009
-480.362	-200.000	0.039	0.184
-479.347	-55.370	-0.088	0.040
-478.332	-200.000	0.108	0.000
-477.318	-174.683	0.265	-0.008
-476.303	-200.000	-0.005	0.187
-475.289	-91.537	-0.298	0.086
-474.274	-200.000	0.223	0.000
-473.259	-86.297	0.155	0.048
-472.245	-175.491	0.102	0.003
-471.230	-73.318	-0.364	-0.135
-470.216	138.442	0.172	-0.229
-469.201	590.854	-0.084	0.211
-468.186	137.769	0.037	-0.049
-467.172	-200.000	0.024	0.290
-466.157	487.600	-0.083	-0.193
-465.143	500.922	0.139	-0.325
-464.128	-200.000	-0.011	0.114
-463.113	-200.000	0.033	-0.178
-462.099	-102.235	0.037	0.009
-461.084	-87.083	0.579	-0.178
-460.070	-200.000	0.002	0.222
-459.055	-200.000	0.017	0.229
-458.040	-39.794	-0.249	0.132
-457.026	-82.197	0.235	0.078
-456.011	60.075	0.353	0.353
-454.997	-20.611	-0.131	0.082
-453.982	800.000	-0.055	-0.184
-452.968	-200.000	0.011	-0.091
-451.953	32.087	0.275	0.240
-450.938	-81.621	-0.042	0.014
-449.924	12.918	-0.404	0.316
-448.909	-45.036	-0.051	0.026
-447.895	81.639	0.186	0.204
-446.880	-200.000	-0.013	0.181
-445.865	48.860	-0.158	0.150
-444.851	-98.073	0.245	-0.064
-443.836	-200.000	-0.020	-0.162
-442.822	-200.000	0.027	0.235
-441.807	698.904	-0.053	-0.141
-440.792	-69.595	0.089	-0.034
-439.778	79.029	-0.077	-0.084
-438.763	40.529	-0.293	-0.267
-437.749	-33.799	0.249	0.139
-436.734	4.095	0.383	-0.284
-435.719	219.050	0.133	-0.214
-434.705	-200.000	0.011	-0.183
-433.690	-84.616	-0.143	0.046
-432.676	800.000	0.055	0.190
-431.661	24.058	0.256	0.213
-430.646	-73.973	-0.202	-0.074
-429.632	9.844	0.171	-0.131
-428.617	-200.000	0.001	0.142
-427.603	46.176	-0.322	0.302
-426.588	800.000	-0.010	0.030
-425.573	16.120	0.093	-0.074
-424.559	-71.737	0.298	0.112
-423.544	800.000	-0.109	0.331
-422.530	-93.159	0.306	0.086
-421.515	137.210	0.048	-0.063
-420.500	-101.760	-0.058	-0.014
-419.486	579.994	0.064	0.158
-418.471	6.357	-0.123	0.092
-417.457	-200.000	0.060	0.319
-416.442	137.042	0.021	0.028
-415.428	153.774	0.192	-0.266
-414.413	-55.739	-0.127	0.057
-413.398	-23.772	0.395	-0.239
-412.384	-18.170	-0.230	0.146
-411.369	124.371	-0.112	-0.142
-410.355	-200.000	-0.058	-0.269
-409.340	-49.501	-0.468	-0.225
-408.325	99.245	-0.165	-0.192
-407.311	137.344	-0.272	0.359
-406.296	147.747	-0.142	-0.193
-405.282	190.113	0.032	0.049
-404.267	-61.954	0.174	-0.073
-403.252	800.000	-0.083	0.318
-402.238	800.000	-0.125	0.391
-401.223	-33.642	0.135	0.075
-400.209	-200.000	0.026	-0.374
-399.194	57.786	0.196	-0.193
-398.179	104.707	0.176	0.210
-397.165	135.332	0.190	0.250
-396.150	-36.630	0.162	0.088
-395.136	-144.341	-0.559	0.053
-394.121	549.953	0.054	-0.132
-393.106	-200.000	0.017	0.261
-392.092	-156.568	-0.087	0.005
-391.077	96.794	0.070	0.081
-390.063	800.000	0.087	-0.268
-389.048	800.000	0.042	0.124
-388.033	-27.215	-0.226	-0.133
-387.019	-109.056	-0.148	-0.032
-386.004	41.657	0.136	-0.125
-384.990	-200.000	0.002	-0.248
-383.975	-146.637	-0.044	0.004
-382.960	140.917	0.283	-0.377
-381.946	-140.151	0.210	0.022
-380.931	56.761	-0.144	0.141
-379.917	-200.000	0.040	-0.221
-378.902	-200.000	-0.006	0.411
-377.888	-181.015	-0.071	0.001
-376.873	-7.365	-0.307	-0.210
-375.858	150.598	0.232	-0.318
-374.844	521.750	0.075	-0.176
-373.829	94.048	0.106	-0.122
-372.815	53.700	-0.334	0.323
-371.800	-200.000	0.034	0.205
-370.785	48.372	-0.095	-0.090
-369.771	800.000	0.074	0.206
-368.756	-41.915	0.420	0.217
-367.742	93.212	-0.155	-0.177
-366.727	800.000	0.036	0.152
-365.712	800.000	-0.052	0.150
-364.698	-16.107	0.092	0.059
-363.683	-200.000	0.013	0.190
-362.669	354.696	0.090	-0.180
-361.654	800.000	0.031	0.088
-360.639	200.113	-0.065	0.101
-359.625	-100.441	-0.375	-0.094
-358.610	-69.896	0.362	-0.139
-357.596	410.823	0.112	0.240
-356.581	-111.401	-0.194	-0.040
-355.566	-145.176	-0.320	-0.029
-354.552	800.000	-0.114	0.347
-353.537	800.000	-0.064	0.194
-352.523	237.556	0.210	0.351
-351.508	-200.000	-0.041	0.187
-350.493	218.788	0.155	-0.249
-349.479	-117.651	0.302	0.055
-348.464	-39.201	0.225	0.119
-347.450	37.373	-0.246	-0.220
-346.435	800.000	0.101	-0.317
-345.420	-47.899	0.185	-0.090
-344.406	-59.823	-0.091	-0.039
-343.391	42.590	0.159	0.146
-342.377	800.000	-0.019	-0.059
-341.362	36.588	0.294	0.262
-340.348	-88.095	-0.466	-0.141
-339.333	800.000	-0.013	0.044
-338.318	-58.706	-0.186	0.081
-337.304	-99.350	-0.294	0.075
-336.289	800.000	-0.065	0.184
-335.275	-55.442	-0.185	0.084
-334.260	-111.259	-0.164	0.034
-333.245	-139.758	0.247	0.026
-332.231	-120.684	0.196	0.033
-331.216	97.666	-0.107	-0.123
-330.202	800.000	0.028	0.111
-329.187	-200.000	-0.015	-0.090
-328.172	-133.650	0.064	-0.008
-327.158	-121.818	-0.186	0.031
-326.143	-200.000	0.008	0.062
-325.129	12.421	-0.198	0.154
-324.114	9.272	-0.089	-0.068
-323.099	450.916	0.077	-0.172
-322.085	-200.000	-0.001	-0.176
-321.070	-200.000	0.047	0.287
-320.056	48.074	0.144	-0.135
-319.041	511.124	0.070	-0.164
-318.026	-200.000	0.023	-0.213
-317.012	-97.688	0.165	0.043
-315.997	-61.411	0.189	-0.080
-314.983	12.817	-0.300	-0.234
-313.968	-200.000	-0.048	-0.328
-312.953	337.726	-0.010	-0.020
-311.939	729.967	-0.076	-0.204
-310.924	50.878	0.318	-0.303
-309.910	556.168	-0.084	-0.202
-308.895	-67.094	-0.398	-0.158
-307.880	394.409	0.093	-0.196
-306.866	161.785	-0.058	0.082
-305.851	-172.655	0.118	-0.004
-304.837	58.923	-0.143	0.141
-303.822	284.530	-0.120	0.218
-302.807	7.750	0.197	0.148
-301.793	-58.766	-0.204	0.089
-300.778	37.760	0.128	0.115
-299.764	-145.962	-0.135	-0.012
-298.749	45.496	-0.056	-0.052
-297.735	-46.997	0.265	0.130
-296.720	-93.808	-0.191	-0.053
-295.705	513.403	0.060	0.142
-294.691	500.408	0.145	-0.336
-293.676	111.986	0.137	-0.166
-292.662	-123.848	0.011	-0.002
-291.647	12.786	-0.120	-0.093
-290.632	21.941	-0.187	-0.153
-289.618	165.135	-0.203	-0.288
-288.603	-42.096	0.137	-0.071
-287.589	114.845	-0.083	0.102
-286.574	-73.311	0.138	-0.051
-285.559	800.000	0.039	-0.163
-284.545	73.819	0.251	-0.265
-283.530	-99.168	0.273	0.069
-282.516	-63.564	-0.355	-0.146
-281.501	30.452	0.052	0.045
-280.486	-115.762	-0.290	0.055
-279.472	-12.179	-0.277	0.182
-278.457	197.662	-0.062	0.095
-277.443	-160.758	-0.073	-0.004
-276.428	412.476	0.071	-0.151
-275.413	58.707	0.269	0.266
-274.399	-10.857	-0.299	-0.198
-273.384	783.548	0.017	-0.047
-272.370	682.288	0.113	0.295
-271.355	-8.656	-0.064	0.043
-270.340	8.035	0.129	-0.097
-269.326	-62.866	-0.196	-0.081
-268.311	179.938	0.062	0.092
-267.297	-41.600	0.073	-0.038
-266.282	15.623	0.232	-0.183
-265.267	67.452	0.111	-0.114
-264.253	129.233	-0.139	-0.179
-263.238	-36.496	-0.148	0.080
-262.224	-200.000	-0.224	-0.001
-261.209	422.524	-0.088	0.191
-260.195	800.000	-0.066	0.193
-259.180	27.020	0.046	0.039
-258.165	-161.968	-0.299	-0.015
-257.151	-200.000	0.013	0.220
-256.136	218.684	0.190	0.304
-255.122	-73.667	-0.146	0.054
-254.107	153.957	-0.077	-0.106
-253.092	50.135	0.188	-0.179
-252.078	-21.664	-0.327	0.200
-251.063	-55.352	0.226	0.102
-250.049	-200.000	-0.030	0.250
-249.034	-95.374	-0.130	0.035
-248.019	-122.583	-0.150	0.024
-247.005	-80.951	-0.093	0.031
-245.990	-140.596	-0.320	-0.033
-244.976	312.951	0.084	-0.158
-243.961	72.763	-0.128	-0.134
-242.946	257.004	-0.074	0.127
-241.932	-200.000	-0.014	-0.061
-240.917	-70.898	-0.180	0.068
-239.903	-55.677	-0.209	0.094
-238.888	800.000	-0.066	0.191
-237.873	592.936	0.089	0.222
-236.859	-200.000	0.002	0.034
-235.844	-115.035	0.312	-0.059
-234.830	184.439	0.037	0.056
-233.815	-26.054	-0.210	-0.124
-232.800	-85.636	-0.214	-0.067
-231.786	179.592	-0.076	0.112
-230.771	398.688	0.022	-0.046
-229.757	800.000	0.029	0.117
-228.742	-200.000	0.001	-0.053
-227.727	94.934	-0.199	0.227
-226.713	-200.000	0.017	0.108
-225.698	-56.906	0.168	-0.075
-224.684	221.304	0.011	-0.018
-223.669	291.000	-0.036	-0.066
-222.655	192.767	-0.115	-0.174
-221.640	-200.000	0.018	-0.349
-220.625	125.918	0.150	0.190
-219.611	-54.254	0.300	-0.136
-218.596	-101.119	0.197	0.048
-217.582	133.710	-0.171	0.222
-216.567	-200.000	0.038	-0.194
-215.552	-200.000	-0.009	-0.271
-214.538	-175.984	0.022	0.001
-213.523	-132.828	0.141	-0.018
-212.509	-46.579	0.197	0.097
-211.494	567.413	-0.043	0.104
-210.479	42.961	-0.308	-0.282
-209.465	-136.566	-0.240	0.028
-208.450	-90.740	0.065	0.019
-207.436	59.565	0.161	-0.159
-206.421	-122.277	-0.176	0.029
-205.406	20.742	0.306	0.249
-204.392	-92.631	0.735	0.207
-203.377	180.437	0.266	-0.392
-202.363	-200.000	-0.062	-0.336
-201.348	-91.378	0.301	0.086
-200.333	86.820	-0.124	0.138
-199.319	18.593	0.250	0.201
-198.304	-200.000	-0.032	0.193
-197.290	800.000	-0.103	0.338
-196.275	8.540	-0.369	0.278
-195.260	-4.935	-0.116	0.080
-194.246	171.310	-0.110	-0.158
-193.231	-94.751	0.073	0.020
-192.217	25.517	0.141	-0.117
-191.202	348.365	0.174	0.343
-190.187	-79.239	-0.188	0.064
-189.173	-52.323	0.463	0.215
-188.158	-200.000	0.019	-0.110
-187.144	-9.435	-0.111	0.074
-186.129	800.000	-0.037	0.133
-185.114	-43.712	0.186	-0.094
-184.100	-11.378	-0.191	-0.126
-183.085	121.326	0.045	-0.056
-182.071	127.181	0.183	-0.232
-181.056	30.534	0.151	0.129
-180.042	20.930	0.122	0.099
-179.027	317.673	0.109	-0.206
-178.012	78.624	0.203	-0.217
-176.998	45.989	-0.088	-0.082
-175.983	800.000	0.065	-0.195
-174.969	-119.708	0.187	-0.032
-173.954	-152.517	-0.302	-0.022
-172.939	-52.979	0.297	-0.137
-171.925	-141.080	0.119	-0.012
-170.910	245.136	0.124	-0.210
-169.896	-8.885	-0.221	-0.149
-168.881	-28.468	-0.192	0.111
-167.866	44.868	-0.033	-0.031
-166.852	576.370	-0.034	0.082
-165.837	355.280	-0.075	0.149
-164.823	82.140	-0.095	-0.103
-163.808	800.000	-0.084	-0.305
-162.793	-5.648	0.086	0.059
-161.779	-74.502	-0.109	0.039
-160.764	-25.627	-0.098	0.058
-159.750	-43.143	0.201	0.102
-158.735	-114.109	0.194	0.038
-157.720	75.297	-0.183	0.193
-156.706	8.675	-0.199	0.150
-155.691	-200.000	0.044	-0.385
-154.677	800.000	-0.059	-0.198
-153.662	448.564	0.168	-0.369
-152.647	188.484	0.213	-0.319
-151.633	64.895	-0.190	-0.192
-150.618	236.261	-0.077	0.127
-149.604	-200.000	-0.048	-0.262
-148.589	5.836	0.219	-0.162
-147.574	-87.899	-0.092	-0.028
-146.560	-57.705	-0.121	0.053
-145.545	13.270	0.169	-0.131
-144.531	-106.606	-0.336	-0.075
-143.516	800.000	-0.009	0.027
-142.502	41.050	-0.159	-0.143
-141.487	-49.144	0.518	0.248
-140.472	800.000	-0.044	0.126
-139.458	-106.178	0.079	-0.018
-138.443	800.000	-0.064	-0.279
-137.429	-26.558	-0.237	0.139
-136.414	-59.847	0.320	-0.137
-135.399	-200.000	0.003	-0.141
-134.385	259.559	0.143	0.246
-133.370	667.349	-0.076	0.197
-132.356	-81.157	-0.289	0.096
-131.341	127.663	-0.050	0.064
-130.326	800.000	0.042	-0.142
-129.312	-16.784	0.070	-0.044
-128.297	-83.760	-0.157	-0.050
-127.283	-200.000	0.003	-0.228
-126.268	-94.821	0.174	-0.047
-125.253	207.755	-0.114	-0.177
-124.239	800.000	-0.060	-0.236
-123.224	44.214	0.208	-0.191
-122.210	800.000	0.036	0.102
-121.195	-97.386	0.034	0.009
-120.180	352.673	-0.194	0.384
-119.166	-86.430	0.237	-0.073
-118.151	-200.000	0.038	0.228
-117.137	67.319	-0.081	-0.083
-116.122	-200.000	0.009	0.177
-115.107	-200.000	-0.050	-0.274
-114.093	39.472	-0.127	0.114
-113.078	557.974	0.071	0.170
-112.064	-59.205	0.179	-0.077
-111.049	129.410	0.211	-0.269
-110.034	800.000	0.038	-0.126
-109.020	-16.878	0.276	-0.174
-108.005	-184.332	0.165	-0.003
-106.991	-59.144	-0.188	-0.081
-105.976	-200.000	-0.025	0.360
-104.962	442.809	0.146	-0.320
-103.947	10.347	0.028	-0.021
-102.932	-200.000	-0.019	-0.315
-101.918	716.108	0.062	0.165
-100.903	800.000	0.011	0.036
-99.889	-200.000	0.305	-0.001
-98.874	553.107	0.043	0.104
-97.859	-89.840	-0.328	-0.096
-96.845	-200.000	-0.036	-0.313
-95.830	-200.000	0.009	-0.066
-94.816	-200.000	-0.003	0.118
-93.801	46.616	0.409	0.379
-92.786	-116.548	-0.052	-0.010
-91.772	-200.000	0.005	-0.046
-90.757	-74.767	0.147	-0.053
-89.743	800.000	-0.111	0.399
-88.728	-147.388	0.242	-0.020
-87.713	-200.000	0.048	-0.289
-86.699	-167.376	0.314	0.013
-85.684	223.784	-0.144	-0.232
-84.670	84.026	0.393	0.428
-83.655	379.986	0.180	0.369
-82.640	48.697	0.044	-0.041
-81.626	24.130	0.207	-0.171
-80.611	15.323	0.089	-0.070
-79.597	-18.439	-0.098	0.061
-78.582	75.350	-0.208	0.219
-77.567	-145.131	-0.240	0.022
-76.553	239.287	0.158	-0.263
-75.538	-15.951	-0.195	-0.124
-74.524	195.596	0.178	-0.270
-73.509	-57.161	0.266	0.117
-72.494	-175.741	-0.049	0.001
-71.480	51.219	-0.354	-0.335
-70.465	311.925	-0.111	-0.207
-69.451	-123.928	0.354	0.056
-68.436	246.204	-0.132	0.222
-67.422	-200.000	0.013	0.276
-66.407	55.321	0.087	-0.084
-65.392	23.939	0.236	0.194
-64.378	71.746	-0.096	-0.100
-63.363	300.261	0.093	-0.171
-62.349	546.928	-0.107	0.254
-61.334	119.468	-0.761	-0.939
-60.319	-106.450	0.337	-0.075
-59.305	-200.000	-0.071	-0.667
-58.290	13.834	0.415	0.322
-57.276	800.000	0.549	1.591
-56.261	-200.000	75.993	537.744
-55.246	566.168	1304.172	3152.140
-54.232	147.121	2539.337	3403.758
-53.217	120.247	2243.070	2773.548
-52.203	53.435	1761.778	1682.896
-51.188	45.602	1557.310	1433.006
-50.173	42.840	1527.273	1386.321
-49.159	58.872	1564.244	1531.667
-48.144	65.428	1583.417	1595.905
-47.130	46.023	1546.388	1425.656
-46.115	42.227	1532.220	1386.348
-45.100	42.252	1528.141	1382.779
-44.086	42.171	1526.633	1380.802
-43.071	41.986	1524.678	1377.706
-42.057	41.926	1522.982	1375.700
-41.042	41.998	1521.215	1374.546
-40.027	42.056	1519.891	1373.691
-39.013	41.977	1518.894	1372.197
-37.998	41.983	1517.372	1370.808
-36.984	41.977	1516.328	1369.771
-35.969	42.006	1515.202	1368.899
-34.954	42.051	1513.382	1367.507
-33.940	42.015	1512.331	1366.256
-32.925	42.148	1509.988	1364.992
-31.911	42.084	1508.854	1363.476
-30.896	42.078	1507.866	1362.487
-29.881	42.096	1506.619	1361.430
-28.867	42.120	1505.258	1360.312
-27.852	42.054	1504.040	1358.709
-26.838	41.995	1502.399	1356.771
-25.823	41.993	1501.140	1355.567
-24.809	41.993	1499.001	1353.579
-23.794	42.040	1497.676	1352.649
-22.779	42.113	1495.939	1351.521
-21.765	42.058	1495.198	1350.425
-20.750	42.118	1494.125	1349.808
-19.736	42.013	1493.571	1348.542
-18.721	42.032	1492.020	1347.215
-17.706	41.854	1491.143	1345.174
-16.692	42.018	1489.226	1344.493
-15.677	41.965	1488.542	1343.470
-14.663	41.833	1488.037	1342.073
-13.648	41.925	1486.607	1341.345
-12.633	42.005	1485.451	1340.785
-11.619	41.868	1485.526	1339.886
-10.604	41.943	1484.063	1339.016
-9.590	41.990	1482.649	1337.999
-8.575	41.953	1482.208	1337.298
-7.560	41.984	1480.921	1336.294
-6.546	41.997	1480.418	1335.875
-5.531	41.976	1479.364	1334.729
-4.517	41.962	1478.489	1333.790
-3.502	41.917	1477.813	1332.831
-2.487	42.023	1476.029	1331.871
-1.473	41.957	1475.201	1330.632
-0.458	42.040	1473.862	1329.927
0.556	41.116	1465.147	1321.252
1.571	38.762	1438.479	1281.721
2.586	35.489	1376.772	1206.110
3.600	33.743	1293.851	1123.047
4.615	31.506	1245.747	1068.436
5.629	25.765	1185.553	985.407
6.644	12.623	1091.746	840.666
7.659	2.529	1043.412	753.888
8.673	1.158	1037.158	742.590
9.688	0.842	1034.366	738.985
10.702	0.750	1033.108	737.573
11.717	0.741	1031.110	736.035
12.731	4.855	1036.533	759.947
13.746	16.230	1052.981	828.044
14.761	23.274	1061.590	869.454
15.775	23.462	1060.276	869.222
16.790	23.286	1059.987	868.049
17.804	23.081	1059.145	866.275
18.819	22.922	1058.177	864.629
19.834	22.945	1057.558	864.158
20.848	23.112	1057.067	864.497
21.863	23.100	1056.759	864.113
22.877	23.154	1055.952	863.641
23.892	23.005	1055.702	862.633
24.907	23.098	1054.168	861.753
25.921	23.064	1053.836	861.241
26.936	22.949	1053.214	860.099
27.950	23.045	1052.198	859.657
28.965	22.945	1051.186	858.267
29.980	22.830	1049.480	856.241
30.994	22.812	1048.348	855.157
32.009	23.017	1047.395	855.297
33.023	23.126	1046.860	855.311
34.038	22.880	1045.558	852.981
35.053	22.892	1044.739	852.298
36.067	23.096	1044.270	852.822
37.082	23.018	1043.422	851.678
38.096	23.221	1042.494	851.824
39.111	23.199	1042.161	851.370
40.126	23.405	1041.134	851.448
41.140	23.321	1039.948	849.995
42.155	22.971	1038.483	847.046
43.169	22.647	1037.455	844.580
44.184	22.573	1036.417	843.307
45.199	22.759	1035.182	843.117
46.213	22.694	1034.298	842.011
47.228	22.589	1033.922	841.129
48.242	22.799	1033.037	841.338
49.257	22.969	1032.198	841.390
50.271	22.927	1031.509	840.551
51.286	22.986	1030.781	840.169
52.301	23.105	1029.988	840.012
53.315	23.146	1029.106	839.411
54.330	22.963	1028.553	838.020
55.344	22.949	1027.776	837.246
56.359	23.051	1027.058	837.067
57.374	22.982	1026.430	836.154
58.388	22.876	1025.390	834.732
59.403	22.788	1024.390	833.429
60.417	22.643	1023.955	832.319
61.432	22.629	1023.167	831.539
62.447	22.731	1022.390	831.315
63.461	22.880	1021.424	831.157
64.476	22.948	1020.455	830.614
65.490	22.877	1020.075	829.900
66.505	22.595	1019.248	827.827
67.520	22.681	1018.037	827.174
68.534	22.833	1017.562	827.426
69.549	22.630	1016.494	825.535
70.563	22.266	1015.621	823.051
71.578	22.294	1014.424	822.137
72.593	22.301	1014.532	822.183
73.607	22.142	1013.008	820.137
74.622	22.332	1011.917	820.067
75.636	22.502	1011.684	820.597
76.651	22.764	1010.222	820.555
77.666	22.598	1009.476	819.106
78.680	22.418	1009.040	817.843
79.695	22.472	1008.090	817.254
80.709	22.647	1007.502	817.515
81.724	22.577	1007.227	816.893
82.739	22.687	1005.923	816.273
83.753	22.558	1005.056	814.901
84.768	22.901	1004.848	816.247
85.782	23.175	1004.198	816.909
86.797	23.452	1002.855	817.024
87.812	23.223	1002.823	815.872
88.826	23.254	1001.298	814.698
89.841	23.237	1001.005	814.309
90.855	23.336	999.804	813.718
91.870	23.432	998.901	813.350
92.884	23.264	998.571	812.239
93.899	23.255	997.714	811.429
94.914	23.094	996.281	809.457
95.928	23.186	995.492	809.161
96.943	23.136	995.004	808.466
97.957	23.024	993.901	806.987
98.972	22.826	992.614	804.969
99.987	22.619	991.692	803.207
101.001	22.661	990.986	802.754
102.016	22.948	990.461	803.564
103.030	23.007	989.562	803.028
104.045	22.927	988.386	801.642
105.060	22.786	987.065	799.860
106.074	22.607	986.103	798.199
107.089	22.623	985.406	797.637
108.103	22.877	985.169	798.523
109.118	22.938	984.774	798.410
110.133	22.826	983.387	796.711
111.147	22.850	982.126	795.726
112.162	22.739	980.451	793.797
113.176	22.456	979.833	791.957
114.191	22.608	978.610	791.577
115.206	22.797	977.634	791.566
116.220	22.396	976.847	789.064
117.235	22.251	975.970	787.637
118.249	22.309	975.816	787.700
119.264	22.325	974.927	786.986
120.279	22.373	973.655	786.101
121.293	22.363	973.187	785.610
122.308	22.471	972.368	785.362
123.322	22.424	971.352	784.263
124.337	22.406	970.601	783.508
125.352	22.443	969.203	782.474
126.366	22.005	967.794	779.325
127.381	21.722	965.966	776.528
128.395	21.970	966.242	777.782
129.410	22.800	965.648	780.906
130.424	22.962	965.236	781.222
131.439	22.975	964.121	780.308
132.454	22.888	963.267	779.162
133.468	23.015	962.090	778.703
134.483	22.832	961.764	777.564
135.497	22.941	960.911	777.285
136.512	23.134	960.208	777.494
137.527	23.209	959.910	777.516
138.541	23.091	959.256	776.398
139.556	23.205	958.165	775.947
140.570	23.250	957.148	775.249
141.585	23.190	956.557	774.442
142.600	23.245	955.793	773.994
143.614	23.283	954.284	772.870
144.629	23.317	953.751	772.519
145.643	23.644	952.762	773.071
146.658	23.449	952.245	771.737
147.673	23.229	951.109	769.789
148.687	23.088	950.227	768.396
149.702	23.141	948.905	767.491
150.716	22.940	948.114	765.910
151.731	22.860	947.157	764.722
152.746	22.967	946.200	764.344
153.760	23.199	945.790	764.951
154.775	23.431	944.614	764.931
155.789	23.454	943.740	764.254
156.804	23.360	942.997	763.183
157.819	23.350	942.031	762.289
158.833	23.411	941.394	761.971
159.848	23.428	940.906	761.580
160.862	23.567	939.656	761.097
161.877	23.326	939.092	759.540
162.892	23.126	938.242	757.928
163.906	23.292	937.072	757.626
164.921	23.309	936.523	757.189
165.935	23.093	935.271	755.187
166.950	23.329	933.873	754.995
167.964	23.385	933.171	754.602
168.979	23.235	932.506	753.357
169.994	23.183	931.009	751.861
171.008	23.077	929.857	750.414
172.023	23.216	929.483	750.635
173.037	23.443	928.888	751.051
174.052	23.174	928.015	749.137
175.067	23.173	926.335	747.714
176.081	23.033	925.451	746.341
177.096	23.174	924.906	746.431
178.110	23.093	924.102	745.373
179.125	22.824	923.088	743.360
180.140	22.848	921.835	742.386
181.154	22.552	921.598	740.885
182.169	22.795	920.757	741.162
183.183	23.079	920.344	741.955
184.198	23.256	920.572	742.818
185.213	23.260	919.627	742.006
186.227	23.154	918.852	740.872
187.242	23.354	918.403	741.279
188.256	23.293	917.799	740.471
189.271	23.167	917.045	739.274
190.286	23.436	916.242	739.684
191.300	23.389	915.299	738.657
192.315	22.799	913.907	735.016
193.329	21.911	912.876	730.427
194.344	21.663	911.404	728.151
195.359	22.080	911.912	730.227
196.373	23.004	911.949	734.033
197.388	23.182	911.945	734.701
198.402	23.102	910.871	733.439
199.417	23.223	910.496	733.577
200.432	23.115	910.080	732.727
201.446	23.208	908.678	731.918
202.461	22.751	908.368	729.715
203.475	22.730	907.976	729.250
204.490	22.444	906.811	727.070
205.504	21.227	904.385	720.043
206.519	21.678	904.289	721.763
207.534	22.703	904.632	726.195
208.548	22.821	904.122	726.206
209.563	23.029	904.232	727.086
210.577	23.099	903.263	726.530
211.592	22.874	902.276	724.747
212.607	23.125	902.414	725.825
213.621	23.390	901.751	726.314
214.636	23.340	900.944	725.395
215.650	23.329	900.415	724.861
216.665	23.270	900.154	724.344
217.680	23.337	899.587	724.097
218.694	23.337	899.224	723.741
219.709	23.059	898.154	721.684
220.723	22.741	897.093	719.471
221.738	22.878	896.666	719.621
222.753	23.278	895.919	720.585
223.767	23.189	895.073	719.480
224.782	23.259	894.477	719.220
225.796	23.279	894.453	719.219
226.811	23.593	893.438	719.612
227.826	23.174	892.019	716.711
228.840	22.189	891.151	711.962
229.855	22.087	890.542	711.002
230.869	22.564	889.909	712.361
231.884	22.242	888.915	710.201
232.899	22.301	888.210	709.814
233.913	22.991	888.740	712.960
234.928	23.198	888.235	713.326
235.942	23.166	887.704	712.707
236.957	23.026	887.009	711.524
237.972	22.695	885.917	709.251
238.986	22.834	884.958	708.981
240.001	22.878	884.538	708.759
241.015	22.934	884.225	708.670
242.030	22.905	883.508	707.913
243.045	23.143	882.892	708.313
244.059	23.225	882.227	708.045
245.074	23.254	882.217	708.090
246.088	23.257	881.301	707.305
247.103	23.088	879.986	705.510
248.117	22.988	879.553	704.702
249.132	23.356	879.663	706.196
250.147	23.761	879.872	707.914
251.161	23.941	878.713	707.637
252.176	24.028	878.420	707.682
253.190	24.045	877.679	707.093
254.205	24.138	876.928	706.794
255.220	24.262	876.548	706.917
256.234	24.251	876.582	706.836
257.249	24.071	875.835	705.458
258.263	23.847	875.206	704.005
259.278	23.930	874.397	703.617
260.293	24.109	874.088	704.017
261.307	24.090	873.280	703.225
262.322	24.018	872.648	702.373
263.336	24.073	871.791	701.837
264.351	23.486	870.589	698.497
265.366	22.435	868.540	692.655
266.380	21.883	867.819	689.849
267.395	22.795	868.229	693.700
268.409	23.532	868.269	696.568
269.424	23.456	867.956	695.958
270.439	23.787	867.247	696.625
271.453	23.940	866.411	696.491
272.468	23.945	865.716	695.888
273.482	24.024	865.644	696.078
274.497	24.150	865.188	696.145
275.512	23.963	864.374	694.696
276.526	23.452	862.901	691.459
277.541	23.579	862.324	691.430
278.555	24.080	862.063	693.113
279.570	23.839	861.434	691.605
280.585	23.689	860.397	690.130
281.599	23.587	860.203	689.517
282.614	23.840	859.673	690.013
283.628	23.353	858.522	687.140
284.643	23.101	857.611	685.374
285.657	23.435	857.525	686.538
286.672	23.346	857.193	685.869
287.687	22.883	855.954	683.023
288.701	23.159	855.810	683.918
289.716	23.645	855.723	685.664
290.730	23.110	855.055	683.002
291.745	23.059	854.135	682.012
292.760	23.030	852.755	680.735
293.774	22.771	852.528	679.498
294.789	23.752	853.089	683.662
295.803	24.522	853.009	686.500
296.818	24.425	852.393	685.569
297.833	24.572	852.288	685.991
298.847	24.177	850.908	683.302
299.862	23.837	850.136	681.321
300.876	24.081	849.652	681.808
301.891	24.315	849.572	682.579
302.906	24.354	848.778	682.030
303.920	24.047	847.652	679.892
304.935	23.837	846.956	678.471
305.949	24.200	846.689	679.584
306.964	24.422	846.306	680.060
307.979	24.119	845.319	678.055
308.993	24.063	845.263	677.736
310.008	24.296	844.756	678.157
311.022	24.608	844.330	678.939
312.037	24.394	843.518	677.413
313.052	24.266	842.932	676.399
314.066	24.189	842.295	675.534
315.081	23.434	840.850	671.457
316.095	22.794	839.228	667.682
317.110	23.238	839.717	669.692
318.125	24.045	840.179	673.055
319.139	23.734	839.115	670.968
320.154	22.721	836.876	665.300
321.168	22.241	836.026	662.756
322.183	22.754	836.391	664.921
323.197	23.631	836.907	668.577
324.212	24.103	836.311	669.819
325.227	24.052	836.101	669.401
326.241	24.270	835.667	669.813
327.256	24.183	835.209	669.058
328.270	24.009	834.557	667.824
329.285	23.945	834.222	667.258
330.300	23.717	833.219	665.541
331.314	23.465	832.550	664.006
332.329	23.554	831.797	663.680
333.343	24.048	831.109	664.918
334.358	24.295	831.026	665.714
335.373	24.378	830.632	665.650
336.387	24.457	829.969	665.352
337.402	24.582	829.810	665.634
338.416	24.786	829.387	665.995
339.431	24.744	828.706	665.233
340.446	24.789	828.029	664.796
341.460	24.891	827.629	664.794
342.475	24.914	827.127	664.420
343.489	24.729	826.439	663.124
344.504	24.720	825.614	662.369
345.519	24.935	825.470	662.989
346.533	25.090	825.391	663.443
347.548	24.995	825.139	662.829
348.562	25.180	824.515	662.952
349.577	25.116	824.011	662.251
350.592	25.004	823.467	661.345
351.606	25.017	822.787	660.787
352.621	25.040	822.290	660.415
353.635	24.901	821.881	659.514
354.650	24.754	821.623	658.709
355.665	24.642	820.290	657.168
356.679	23.562	818.912	652.040
357.694	23.358	818.216	650.678
358.708	24.210	817.844	653.452
359.723	24.001	817.336	652.224
360.738	24.200	817.315	652.875
361.752	24.694	817.192	654.529
362.767	24.691	817.148	654.425
363.781	25.166	816.572	655.643
364.796	25.389	816.584	656.409
365.810	25.384	816.347	656.144
366.825	25.532	815.937	656.295
367.840	25.408	815.613	655.525
368.854	25.341	814.916	654.661
369.869	24.864	814.096	652.208
370.883	24.697	813.436	651.014
371.898	24.862	812.759	651.013
372.913	24.871	811.962	650.351
373.927	24.870	811.280	649.743
374.942	24.993	810.815	649.761
375.956	24.995	810.421	649.394
376.971	25.050	810.351	649.480
377.986	25.242	809.641	649.547
379.000	25.338	809.162	649.453
380.015	25.405	808.908	649.435
381.029	25.293	807.916	648.176
382.044	25.156	807.114	646.983
383.059	25.378	806.947	647.592
384.073	25.282	806.593	646.904
385.088	25.212	806.028	646.141
386.102	25.405	805.385	646.263
387.117	25.153	804.789	644.821
388.132	25.048	804.048	643.794
389.146	24.969	803.506	643.018
390.161	24.372	802.948	640.374
391.175	24.464	802.458	640.255
392.190	25.044	802.104	641.996
393.205	25.037	801.701	641.590
394.219	24.148	800.318	637.248
395.234	22.640	797.814	629.817
396.248	21.794	796.560	625.753
397.263	22.803	797.361	629.927
398.278	24.685	798.943	637.845
399.292	25.102	799.273	639.539
400.307	24.809	798.410	637.748
401.321	24.812	797.650	637.095
402.336	24.655	797.479	636.344
403.350	25.035	797.384	637.565
404.365	25.463	797.290	638.955
405.380	25.861	796.694	639.834
406.394	26.107	796.806	640.739
407.409	26.202	796.466	640.748
408.423	26.029	796.091	639.775
409.438	25.993	795.381	639.020
410.453	26.059	794.854	638.774
411.467	26.174	794.530	638.863
412.482	26.145	793.684	638.024
413.496	25.906	793.542	637.010
414.511	26.114	792.838	637.125
415.526	26.158	792.411	636.880
416.540	26.263	791.986	636.849
417.555	26.086	791.396	635.695
418.569	25.739	790.797	633.939
419.584	25.839	790.247	633.792
420.599	25.764	790.170	633.410
421.613	91.668	1253.102	1355.670
422.628	78.170	1320.566	1355.793
