DTS Sentinel unit serial number:	SN413079Multiplexer serial number:	ORYXHardware model number:	OX4-SRSoftware version number:	ORYX F/W v4.00 Oryx Data Collector v3.7.2.0data status	okinstallation	princeton_trtdifferential loss correction	single-endedforward channel	channel 3reverse channel	N/Adate	2019/09/11time	04:54:10forward acquisition time	60.00reverse acquisition time	0.00gamma	496.2192k internal	0.2331k external	0.2331temperature offset calibration	0.9909default loss term (dB/km)	0.3790temperature slope calibration	1.0000multiplexer offset coefficient	1.0000multiplexer slope coefficient	1.0000fibre end	0.00T internal ref (°C)	29.50T ext. ref 1 (°C)	-0.26T ext. ref 2 (°C)	23.24length (m)	temperature (°C)	Stokes	anti-Stokes-747.200	209.848	-0.105	-0.166
-746.185	20.078	0.190	-0.154
-745.171	104.804	-0.281	0.333
-744.156	-83.754	-0.319	0.102
-743.142	-3.725	0.179	0.125
-742.127	-16.425	0.143	0.092
-741.112	-200.000	-0.006	-0.094
-740.098	-116.796	-0.191	0.035
-739.083	-90.157	0.191	-0.056
-738.069	98.990	-0.079	0.092
-737.054	2.978	0.134	0.098
-736.039	3.644	-0.189	-0.138
-735.025	-109.192	0.398	0.085
-734.010	-99.198	-0.494	-0.126
-732.996	98.041	-0.210	0.243
-731.981	23.319	0.144	-0.119
-730.966	227.437	0.084	-0.138
-729.952	-55.198	0.180	0.081
-728.937	800.000	0.032	0.098
-727.923	-55.591	0.308	0.139
-726.908	-34.045	-0.061	0.034
-725.894	-5.315	0.262	0.181
-724.879	179.886	-0.107	-0.158
-723.864	-200.000	-0.031	-0.267
-722.850	-24.708	0.231	-0.138
-721.835	-42.896	-0.198	-0.101
-720.821	-120.702	0.045	-0.008
-719.806	-93.887	0.224	0.062
-718.791	25.370	-0.145	0.122
-717.777	130.549	-0.203	-0.261
-716.762	36.895	-0.247	-0.219
-715.748	-10.053	-0.176	-0.118
-714.733	-35.597	-0.229	-0.125
-713.718	-200.000	0.045	0.245
-712.704	517.955	-0.039	-0.093
-711.689	695.995	-0.062	-0.164
-710.675	-82.696	-0.127	0.041
-709.660	-100.691	-0.189	0.047
-708.645	48.189	0.123	0.115
-707.631	130.554	0.109	-0.141
-706.616	141.219	0.087	-0.115
-705.602	426.807	-0.130	-0.282
-704.587	-63.324	-0.035	0.015
-703.572	248.972	-0.155	-0.264
-702.558	-24.228	-0.219	0.131
-701.543	800.000	-0.079	-0.253
-700.529	32.791	-0.237	-0.206
-699.514	18.556	0.250	0.201
-698.499	-19.315	-0.408	-0.254
-697.485	-101.320	-0.113	0.028
-696.470	1.371	-0.152	0.110
-695.456	-200.000	0.029	-0.152
-694.441	-14.558	0.103	-0.066
-693.426	50.698	-0.058	-0.055
-692.412	193.529	0.026	0.039
-691.397	122.157	-0.157	-0.197
-690.383	800.000	0.102	-0.380
-689.368	-200.000	-0.020	-0.216
-688.354	216.628	0.122	0.195
-687.339	-140.073	-0.260	0.027
-686.324	-200.000	0.008	-0.173
-685.310	138.004	-0.082	-0.108
-684.295	88.078	0.131	0.146
-683.281	546.278	0.064	0.154
-682.266	-90.580	-0.544	-0.158
-681.251	-200.000	-0.001	0.241
-680.237	177.175	0.136	-0.199
-679.222	-40.848	-0.075	0.039
-678.208	-81.627	0.340	0.112
-677.193	525.844	0.073	-0.173
-676.178	605.212	0.130	0.325
-675.164	-200.000	-0.020	-0.157
-674.149	30.180	0.187	0.160
-673.135	-200.000	0.020	-0.128
-672.120	22.154	-0.321	-0.263
-671.105	398.307	0.098	-0.206
-670.091	-67.736	-0.223	0.087
-669.076	-76.809	0.132	0.046
-668.062	-197.856	-0.251	-0.002
-667.047	241.724	0.201	0.337
-666.032	52.628	-0.253	-0.242
-665.018	800.000	0.018	-0.061
-664.003	-200.000	0.005	0.512
-662.989	177.773	-0.180	-0.263
-661.974	-200.000	-0.039	-0.450
-660.959	-76.631	0.127	0.045
-659.945	-12.035	-0.310	0.204
-658.930	-200.000	0.026	0.121
-657.916	-29.286	0.086	-0.049
-656.901	800.000	-0.054	-0.167
-655.886	109.265	-0.138	0.166
-654.872	-191.971	-0.148	-0.001
-653.857	696.107	-0.043	-0.113
-652.843	-36.574	-0.461	-0.249
-651.828	446.678	-0.082	0.182
-650.814	-26.009	0.122	0.072
-649.799	-143.054	-0.076	0.007
-648.784	379.511	0.044	0.090
-647.770	800.000	-0.053	0.153
-646.755	169.843	0.167	-0.239
-645.741	52.363	-0.272	-0.260
-644.726	618.174	-0.055	0.140
-643.711	-151.639	-0.458	0.034
-642.697	800.000	-0.052	-0.159
-641.682	0.004	0.113	-0.080
-640.668	-200.000	0.031	0.213
-639.653	289.813	0.129	-0.235
-638.638	-200.000	-0.004	-0.191
-637.624	108.955	-0.226	0.270
-636.609	279.291	-0.212	0.380
-635.595	593.008	0.109	0.270
-634.580	-83.954	0.119	-0.038
-633.565	-63.629	0.092	-0.038
-632.551	-90.491	-0.156	0.045
-631.536	-200.000	-0.025	-0.297
-630.522	-90.853	-0.095	-0.027
-629.507	94.254	-0.174	-0.198
-628.492	747.960	0.102	0.274
-627.478	-164.504	-0.232	-0.011
-626.463	-128.111	-0.151	-0.022
-625.449	1.061	-0.267	0.192
-624.434	190.545	0.161	-0.242
-623.419	-200.000	-0.081	-0.000
-622.405	-136.245	-0.348	0.041
-621.390	-200.000	-0.025	-0.228
-620.376	-79.906	0.238	-0.080
-619.361	521.159	-0.069	0.162
-618.346	201.177	-0.135	0.208
-617.332	-118.092	-0.192	-0.034
-616.317	-10.112	-0.167	-0.111
-615.303	308.914	-0.093	-0.175
-614.288	55.972	-0.105	-0.102
-613.273	-64.267	0.310	0.126
-612.259	-22.736	-0.067	-0.040
-611.244	262.100	0.166	-0.288
-610.230	-15.322	0.148	-0.095
-609.215	-169.852	-0.317	0.011
-608.201	7.638	0.176	0.132
-607.186	414.541	-0.087	-0.186
-606.171	20.551	0.293	-0.238
-605.157	-132.811	-0.130	0.017
-604.142	-124.493	0.305	-0.048
-603.128	-122.553	-0.451	-0.073
-602.113	-153.727	0.198	-0.014
-601.098	606.483	0.055	-0.137
-600.084	487.242	0.092	-0.211
-599.069	-200.000	0.013	-0.253
-598.055	-200.000	0.023	0.183
-597.040	-137.116	-0.107	0.012
-596.025	423.380	-0.057	-0.123
-595.011	800.000	0.048	-0.157
-593.996	-110.856	-0.164	-0.034
-592.982	-80.751	0.114	0.038
-591.967	800.000	-0.033	0.133
-590.952	373.021	-0.234	-0.475
-589.938	800.000	-0.057	-0.159
-588.923	798.710	-0.054	-0.150
-587.909	-75.129	0.041	-0.014
-586.894	-200.000	-0.028	0.126
-585.879	-200.000	0.045	0.306
-584.865	-179.441	0.174	0.004
-583.850	249.732	-0.256	0.434
-582.836	-200.000	0.019	-0.138
-581.821	-106.853	-0.245	-0.054
-580.806	-157.886	-0.254	-0.015
-579.792	-152.593	-0.261	-0.019
-578.777	160.323	0.021	-0.029
-577.763	-13.535	-0.177	0.115
-576.748	-200.000	-0.013	0.312
-575.733	33.560	0.025	-0.022
-574.719	-17.861	-0.065	-0.041
-573.704	-200.000	0.008	0.065
-572.690	-200.000	-0.025	0.565
-571.675	-151.081	-0.234	-0.018
-570.661	-104.699	0.098	0.023
-569.646	79.933	0.278	-0.299
-568.631	-200.000	0.038	-0.508
-567.617	203.056	0.063	0.097
-566.602	127.881	-0.087	-0.111
-565.588	800.000	0.063	-0.196
-564.573	-55.626	-0.260	-0.116
-563.558	93.780	0.112	0.127
-562.544	161.219	-0.077	-0.108
-561.529	-158.361	0.082	0.005
-560.515	-123.627	-0.209	0.033
-559.500	441.851	-0.177	-0.388
-558.485	205.727	0.162	-0.251
-557.471	-10.978	-0.103	-0.068
-556.456	-200.000	0.066	0.323
-555.442	33.222	0.298	0.258
-554.427	223.157	-0.058	-0.093
-553.412	134.454	-0.169	-0.219
-552.398	139.093	0.039	0.051
-551.383	299.395	-0.145	-0.266
-550.369	-11.829	0.166	-0.109
-549.354	800.000	0.069	-0.286
-548.339	32.548	0.167	-0.144
-547.325	800.000	0.037	0.146
-546.310	617.694	0.105	0.264
-545.296	-70.781	0.419	-0.158
-544.281	-87.228	0.275	-0.083
-543.266	800.000	-0.172	0.720
-542.252	-200.000	-0.067	0.312
-541.237	184.129	-0.177	0.262
-540.223	-200.000	0.023	-0.320
-539.208	171.823	-0.074	0.105
-538.193	-158.403	0.125	0.007
-537.179	800.000	0.018	0.070
-536.164	-104.335	0.270	-0.062
-535.150	-117.008	0.130	-0.024
-534.135	381.783	-0.168	0.345
-533.121	365.471	-0.087	0.176
-532.106	-101.209	0.290	-0.071
-531.091	110.832	0.066	-0.079
-530.077	-15.195	-0.148	0.094
-529.062	-145.294	0.582	0.053
-528.048	41.919	0.024	0.022
-527.033	199.100	0.053	-0.082
-526.018	17.497	-0.154	-0.122
-525.004	359.125	-0.088	-0.175
-523.989	32.693	0.276	-0.239
-522.975	-99.749	-0.108	-0.027
-521.960	-140.072	-0.317	-0.033
-520.945	-200.000	-0.009	0.053
-519.931	-200.000	0.014	-0.341
-518.916	-87.764	0.193	0.058
-517.902	-200.000	-0.015	0.255
-516.887	-200.000	0.050	0.243
-515.872	166.939	-0.242	0.343
-514.858	-54.295	0.202	0.091
-513.843	-200.000	-0.028	-0.178
-512.829	-200.000	-0.035	0.213
-511.814	463.556	0.088	0.196
-510.799	-154.226	-0.253	-0.017
-509.785	523.112	-0.090	-0.210
-508.770	488.590	-0.133	0.302
-507.756	90.594	-0.419	-0.468
-506.741	800.000	-0.042	-0.169
-505.726	28.628	0.141	0.119
-504.712	-54.530	-0.169	0.076
-503.697	-52.829	0.105	0.048
-502.683	800.000	-0.113	-0.404
-501.668	42.954	0.183	-0.166
-500.653	188.583	0.121	-0.181
-499.639	-72.564	0.108	0.040
-498.624	-200.000	0.005	0.196
-497.610	-200.000	0.001	0.308
-496.595	-72.332	0.264	0.097
-495.581	-200.000	0.060	-0.307
-494.566	7.325	-0.330	-0.246
-493.551	123.581	0.076	-0.096
-492.537	-162.652	-0.178	-0.009
-491.522	-131.927	0.351	0.046
-490.508	800.000	-0.103	0.396
-489.493	187.642	0.109	-0.162
-488.478	800.000	0.051	-0.161
-487.464	-56.298	0.011	-0.005
-486.449	296.269	-0.167	0.305
-485.435	-84.580	-0.208	0.065
-484.420	-200.000	-0.024	0.215
-483.405	-200.000	0.005	0.208
-482.391	227.145	-0.040	-0.064
-481.376	800.000	0.062	0.201
-480.362	316.012	-0.069	-0.130
-479.347	32.720	-0.308	0.265
-478.332	-158.244	-0.267	-0.016
-477.318	-114.876	-0.189	0.036
-476.303	800.000	-0.030	0.085
-475.289	800.000	0.090	-0.264
-474.274	268.221	-0.067	0.117
-473.259	-22.642	0.433	-0.261
-472.245	-200.000	0.037	0.366
-471.230	542.736	-0.150	0.356
-470.216	-66.616	-0.504	0.199
-469.201	-200.000	-0.045	0.207
-468.186	186.225	0.115	-0.171
-467.172	70.813	0.201	-0.207
-466.157	800.000	-0.099	0.311
-465.143	235.223	-0.031	-0.050
-464.128	105.953	0.186	0.220
-463.113	-200.000	-0.039	-0.254
-462.099	-192.396	0.100	0.001
-461.084	-113.438	-0.066	0.013
-460.070	-23.145	0.123	-0.074
-459.055	41.217	-0.222	0.200
-458.040	-8.923	0.197	0.131
-457.026	-49.115	-0.180	0.086
-456.011	107.368	-0.094	0.111
-454.997	-200.000	0.001	0.236
-453.982	-200.000	0.039	0.357
-452.968	-200.000	0.051	-0.420
-451.953	185.465	-0.057	-0.085
-450.938	259.245	0.116	-0.199
-449.924	-200.000	-0.030	0.177
-448.909	594.110	0.042	-0.104
-447.895	-24.687	-0.296	-0.175
-446.880	-87.951	0.445	-0.133
-445.865	409.507	-0.057	-0.119
-444.851	-32.806	-0.303	0.168
-443.836	797.840	-0.078	-0.215
-442.822	-36.296	0.338	-0.182
-441.807	-130.402	0.239	0.032
-440.792	-200.000	0.005	0.164
-439.778	83.448	0.183	-0.199
-438.763	371.625	-0.042	0.085
-437.749	-51.885	-0.525	0.243
-436.734	57.265	0.257	-0.250
-435.719	117.318	0.142	0.174
-434.705	149.046	0.135	0.182
-433.690	360.532	-0.119	-0.236
-432.676	166.500	-0.164	0.231
-431.661	218.094	0.041	0.065
-430.646	800.000	0.039	-0.156
-429.632	45.979	-0.086	-0.079
-428.617	90.850	0.229	0.255
-427.603	-137.286	0.207	-0.023
-426.588	163.834	-0.148	0.207
-425.573	800.000	-0.066	0.220
-424.559	108.414	0.295	0.350
-423.544	40.943	-0.241	-0.216
-422.530	118.253	-0.192	0.236
-421.515	-107.822	-0.068	-0.015
-420.500	14.585	0.159	0.123
-419.486	267.432	-0.031	-0.054
-418.471	-151.783	0.296	0.022
-417.457	389.207	0.023	0.047
-416.442	-200.000	-0.023	-0.113
-415.428	207.122	0.044	0.068
-414.413	-200.000	0.038	-0.317
-413.398	138.979	0.097	-0.126
-412.384	-15.001	0.113	0.072
-411.369	116.305	-0.260	-0.316
-410.355	800.000	0.153	-0.513
-409.340	-200.000	0.073	-0.390
-408.325	108.103	0.150	-0.177
-407.311	-200.000	0.049	0.322
-406.296	-78.253	-0.218	0.074
-405.282	-154.338	-0.243	-0.016
-404.267	-200.000	-0.010	0.047
-403.252	-25.760	0.092	0.054
-402.238	348.644	0.053	0.105
-401.223	-200.000	0.061	-0.346
-400.209	-200.000	-0.055	-0.288
-399.194	506.880	0.064	-0.147
-398.179	-84.619	-0.202	-0.063
-397.165	143.179	-0.221	0.292
-396.150	42.973	-0.224	0.203
-395.136	-200.000	-0.002	0.154
-394.121	-200.000	0.032	0.440
-393.106	123.665	0.091	0.114
-392.092	-74.517	0.284	-0.102
-391.077	-87.208	0.195	0.059
-390.063	-89.222	-0.135	-0.039
-389.048	-64.173	0.188	-0.076
-388.033	102.953	-0.299	-0.347
-387.019	270.631	0.149	-0.260
-386.004	-96.583	0.353	-0.092
-384.990	-106.006	-0.123	-0.027
-383.975	-98.465	0.139	-0.035
-382.960	-200.000	0.155	-0.001
-381.946	800.000	-0.071	0.243
-380.931	456.412	0.131	-0.288
-379.917	-6.500	0.208	-0.140
-378.902	-31.808	-0.236	-0.131
-377.888	-200.000	0.007	-0.187
-376.873	-200.000	-0.013	-0.120
-375.858	-200.000	0.031	0.288
-374.844	44.870	0.141	0.129
-373.829	190.096	-0.193	-0.287
-372.815	182.204	0.136	-0.199
-371.800	-200.000	-0.020	0.238
-370.785	-44.951	-0.302	0.149
-369.771	-200.000	0.005	0.216
-368.756	338.688	0.012	-0.023
-367.742	213.489	-0.094	0.147
-366.727	72.311	-0.399	-0.413
-365.712	-78.959	0.253	-0.085
-364.698	15.756	-0.071	0.056
-363.683	-53.027	0.264	-0.121
-362.669	-32.036	0.272	0.151
-361.654	280.812	-0.109	0.194
-360.639	-200.000	-0.019	-0.123
-359.625	275.193	0.065	0.115
-358.610	97.072	0.067	0.076
-357.596	-76.624	0.226	0.079
-356.581	174.203	0.085	-0.122
-355.566	-200.000	-0.028	-0.249
-354.552	-200.000	0.042	0.271
-353.537	-101.162	-0.129	-0.031
-352.523	9.855	-0.128	0.096
-351.508	374.950	0.118	-0.239
-350.493	-200.000	0.065	-0.446
-349.479	800.000	-0.009	0.038
-348.464	-48.241	-0.080	-0.038
-347.450	-200.000	-0.003	0.091
-346.435	336.003	-0.037	0.072
-345.420	-84.119	0.286	0.090
-344.406	292.368	0.066	0.118
-343.391	-71.434	-0.144	-0.054
-342.377	800.000	-0.100	-0.344
-341.362	-50.274	0.051	-0.024
-340.348	-73.281	0.186	-0.067
-339.333	8.857	0.047	0.035
-338.318	17.556	-0.119	-0.094
-337.304	800.000	-0.011	-0.047
-336.289	-112.086	0.285	-0.057
-335.275	46.573	0.131	0.121
-334.260	6.051	-0.049	0.036
-333.245	-134.910	0.332	-0.040
-332.231	99.936	-0.238	-0.273
-331.216	373.234	0.008	-0.016
-330.202	127.905	-0.048	0.060
-329.187	141.231	-0.072	0.095
-328.172	4.086	-0.339	-0.246
-327.158	-29.504	0.189	-0.107
-326.143	-123.277	0.274	-0.043
-325.129	-200.000	0.034	-0.157
-324.114	115.071	-0.050	0.061
-323.099	71.578	0.065	0.067
-322.085	288.610	0.039	-0.070
-321.070	-84.196	-0.253	0.079
-320.056	-200.000	0.013	0.356
-319.041	-24.885	0.113	0.067
-318.026	-200.000	-0.009	-0.192
-317.012	-133.427	-0.264	0.033
-315.997	-81.891	0.635	-0.206
-314.983	-147.932	0.204	-0.017
-313.968	42.138	0.280	-0.252
-312.953	800.000	-0.065	-0.196
-311.939	-167.310	-0.391	0.016
-310.924	-164.684	-0.339	-0.015
-309.910	-103.118	-0.343	0.080
-308.895	-0.012	-0.104	-0.073
-307.880	-200.000	0.028	0.148
-306.866	-200.000	-0.023	-0.132
-305.851	621.943	0.071	-0.178
-304.837	-110.007	-0.199	-0.041
-303.822	101.928	-0.058	0.067
-302.807	129.687	0.064	-0.081
-301.793	89.409	-0.173	-0.190
-300.778	-143.786	0.260	-0.024
-299.764	391.721	0.096	-0.197
-298.749	-21.393	0.134	0.081
-297.735	800.000	0.105	0.358
-296.720	78.131	0.243	0.256
-295.705	21.816	0.244	0.196
-294.691	-200.000	0.033	0.177
-293.676	40.057	0.136	0.121
-292.662	-129.183	-0.254	0.035
-291.647	-18.470	-0.238	-0.147
-290.632	-157.720	-0.176	0.010
-289.618	-110.470	0.297	-0.061
-288.603	-182.991	0.077	-0.001
-287.589	-44.218	0.225	0.112
-286.574	63.508	-0.207	0.205
-285.559	799.630	0.021	-0.057
-284.545	800.000	-0.082	0.251
-283.530	-68.263	-0.140	-0.054
-282.516	800.000	0.071	-0.293
-281.501	-200.000	0.002	-0.215
-280.486	33.167	0.099	0.085
-279.472	-0.181	0.272	-0.191
-278.457	777.584	0.151	0.407
-277.443	-200.000	-0.010	-0.126
-276.428	-70.508	-0.021	0.008
-275.413	126.267	0.123	0.154
-274.399	-110.994	-0.230	-0.047
-273.384	-114.119	-0.162	-0.031
-272.370	-93.650	-0.200	0.055
-271.355	-92.899	-0.267	-0.074
-270.340	-200.000	0.019	0.108
-269.326	800.000	0.146	0.403
-268.311	-69.315	0.179	-0.068
-267.297	22.897	0.186	0.150
-266.282	-72.369	0.441	0.161
-265.267	53.751	0.337	0.320
-264.253	-69.165	0.209	-0.079
-263.238	800.000	-0.090	-0.259
-262.224	-87.504	0.255	0.076
-261.209	121.221	0.067	-0.083
-260.195	333.535	0.097	0.185
-259.180	-139.268	0.157	-0.017
-258.165	-52.219	0.269	-0.123
-257.151	84.557	-0.145	-0.156
-256.136	322.747	-0.159	0.299
-255.122	-25.109	0.062	0.036
-254.107	81.908	-0.265	0.283
-253.092	-200.000	0.023	-0.132
-252.078	148.722	0.171	-0.228
-251.063	172.627	-0.273	-0.388
-250.049	800.000	-0.022	0.063
-249.034	89.636	0.250	-0.276
-248.019	289.763	0.007	-0.013
-247.005	800.000	0.027	-0.093
-245.990	-1.721	-0.085	-0.059
-244.976	424.665	-0.185	0.392
-243.961	-155.453	0.247	-0.016
-242.946	-194.351	-0.155	0.001
-241.932	-166.751	-0.181	0.007
-240.917	-128.033	0.339	0.048
-239.903	-200.000	-0.064	0.279
-238.888	-64.872	0.214	-0.085
-237.873	24.285	-0.147	0.120
-236.859	396.220	0.099	0.203
-235.844	-200.000	-0.017	-0.261
-234.830	351.460	-0.102	-0.199
-233.815	3.948	-0.090	0.065
-232.800	63.064	0.218	-0.215
-231.786	193.433	0.138	0.207
-230.771	-45.355	0.223	-0.109
-229.757	-123.430	0.168	0.026
-228.742	67.526	0.187	0.189
-227.727	-200.000	0.006	-0.095
-226.713	-59.856	0.366	0.154
-225.698	-15.703	0.169	-0.106
-224.684	-24.465	0.167	-0.098
-223.669	-162.868	0.124	-0.006
-222.655	-200.000	-0.003	-0.220
-221.640	-111.375	-0.140	-0.028
-220.625	734.355	-0.128	0.339
-219.611	793.341	0.107	0.289
-218.596	-49.258	-0.246	0.116
-217.582	-41.026	-0.155	0.079
-216.567	30.956	-0.225	0.190
-215.552	38.223	-0.053	0.047
-214.538	-107.884	0.207	0.044
-213.523	29.333	-0.226	-0.189
-212.509	-200.000	-0.022	-0.161
-211.494	-105.945	-0.059	0.013
-210.479	-200.000	0.015	0.123
-209.465	-114.745	0.278	0.052
-208.450	247.024	-0.188	-0.313
-207.436	-63.593	0.186	-0.075
-206.421	168.674	-0.243	0.342
-205.406	52.286	-0.026	-0.025
-204.392	227.149	-0.085	0.136
-203.377	-49.434	-0.291	-0.137
-202.363	22.457	0.086	0.069
-201.348	486.037	0.066	-0.149
-200.333	800.000	-0.063	-0.259
-199.319	238.799	0.064	-0.105
-198.304	-50.578	0.087	-0.040
-197.290	134.445	0.125	-0.160
-196.275	129.388	-0.051	-0.064
-195.260	-93.289	0.102	0.028
-194.246	800.000	0.103	0.405
-193.231	43.491	-0.209	0.188
-192.217	53.697	0.206	-0.195
-191.202	-200.000	0.057	-0.438
-190.187	-200.000	-0.068	0.407
-189.173	27.450	0.029	-0.024
-188.158	167.672	-0.126	0.177
-187.144	-99.472	0.122	0.030
-186.129	340.840	-0.076	0.146
-185.114	146.745	0.160	0.211
-184.100	163.059	-0.074	-0.102
-183.085	-200.000	-0.015	0.189
-182.071	-166.578	-0.395	0.016
-181.056	-0.903	0.060	-0.042
-180.042	-9.351	-0.238	-0.156
-179.027	-200.000	-0.039	-0.240
-178.012	-200.000	0.049	0.212
-176.998	58.882	-0.196	-0.190
-175.983	398.200	-0.071	0.146
-174.969	-200.000	-0.002	0.122
-173.954	-200.000	0.032	-0.231
-172.939	800.000	0.015	0.060
-171.925	583.225	-0.111	0.268
-170.910	-11.002	-0.180	0.117
-169.896	-120.729	0.249	-0.041
-168.881	-45.137	-0.326	0.160
-167.866	54.651	0.164	-0.156
-166.852	-6.870	-0.153	0.102
-165.837	-122.402	0.152	-0.024
-164.823	-200.000	-0.038	0.338
-163.808	-200.000	0.021	0.117
-162.793	-88.511	-0.312	0.092
-161.779	-145.788	-0.031	0.003
-160.764	-112.578	-0.150	0.029
-159.750	276.812	-0.166	-0.291
-158.735	-13.154	-0.148	0.095
-157.720	800.000	-0.082	-0.246
-156.706	-200.000	-0.025	0.213
-155.691	-70.012	-0.048	-0.018
-154.677	32.289	0.083	0.070
-153.662	26.248	0.236	-0.194
-152.647	608.230	-0.098	-0.240
-151.633	-200.000	-0.021	0.443
-150.618	15.426	-0.154	-0.119
-149.604	-59.086	0.144	0.061
-148.589	-6.513	0.172	0.115
-147.574	-93.293	0.098	0.027
-146.560	-74.077	-0.289	-0.103
-145.545	800.000	0.055	0.182
-144.531	175.590	-0.159	-0.226
-143.516	-200.000	0.016	-0.072
-142.502	790.472	-0.072	0.195
-141.487	86.880	0.148	0.160
-140.472	-200.000	0.041	-0.229
-139.458	23.737	-0.386	-0.312
-138.443	-200.000	-0.008	-0.352
-137.429	-200.000	-0.032	0.425
-136.414	286.719	-0.336	0.597
-135.399	238.033	0.019	0.031
-134.385	-52.847	-0.065	-0.029
-133.370	38.755	-0.362	-0.317
-132.356	-157.173	0.164	-0.010
-131.341	699.022	0.083	0.215
-130.326	800.000	-0.070	-0.204
-129.312	-132.609	-0.220	-0.028
-128.297	-114.263	-0.376	-0.071
-127.283	-200.000	-0.007	-0.635
-126.268	-200.000	-0.059	-0.279
-125.253	800.000	0.112	-0.465
-124.239	25.244	-0.288	0.235
-123.224	-200.000	-0.016	0.317
-122.210	68.838	-0.076	-0.077
-121.195	42.333	-0.135	0.121
-120.180	23.848	-0.185	0.150
-119.166	95.438	0.141	0.158
-118.151	-129.178	-0.265	-0.036
-117.137	483.942	-0.179	-0.400
-116.122	-27.153	0.072	0.041
-115.107	210.400	0.055	-0.084
-114.093	-116.725	0.074	-0.013
-113.078	-200.000	0.001	0.020
-112.064	-186.300	0.347	-0.005
-111.049	800.000	-0.063	-0.261
-110.034	99.501	0.029	-0.033
-109.020	-181.999	0.277	-0.005
-108.005	367.991	0.108	0.215
-106.991	-152.765	-0.294	0.021
-105.976	-99.539	0.243	0.060
-104.962	-130.544	0.229	0.030
-103.947	184.488	-0.162	0.236
-102.932	141.287	0.065	-0.085
-101.918	59.567	0.243	0.235
-100.903	-144.627	0.240	0.022
-99.889	-8.321	0.022	-0.015
-98.874	-59.960	0.538	0.226
-97.859	-61.519	0.165	0.068
-96.845	-158.463	0.377	0.021
-95.830	-200.000	0.022	0.095
-94.816	239.549	0.052	0.085
-93.801	-158.377	0.378	-0.022
-92.786	-3.519	0.148	0.101
-91.772	-130.507	0.293	-0.039
-90.757	-200.000	-0.011	0.260
-89.743	-3.655	-0.222	-0.151
-88.728	-73.718	0.110	-0.039
-87.713	102.179	0.178	0.204
-86.699	-33.236	-0.169	0.092
-85.684	-77.129	0.168	0.058
-84.670	39.241	-0.237	0.208
-83.655	-169.683	0.137	0.005
-82.640	-126.987	-0.413	0.060
-81.626	2.427	-0.219	0.156
-80.611	-200.000	0.025	-0.141
-79.597	435.141	-0.127	0.270
-78.582	282.253	0.014	0.025
-77.567	-200.000	-0.006	0.131
-76.553	11.062	0.186	-0.140
-75.538	292.430	-0.076	-0.136
-74.524	-151.943	-0.366	-0.026
-73.509	68.228	-0.108	0.109
-72.494	70.346	-0.095	0.096
-71.480	800.000	0.087	0.306
-70.465	-200.000	-0.024	-0.154
-69.451	263.862	0.141	-0.241
-68.436	-200.000	-0.018	-0.237
-67.422	30.398	-0.157	0.132
-66.407	88.601	-0.185	0.201
-65.392	-101.873	-0.198	0.047
-64.378	239.831	0.138	-0.225
-63.363	-70.627	-0.118	-0.044
-62.349	61.747	-0.157	0.153
-61.334	118.636	-0.857	-1.037
-60.319	187.370	0.448	0.655
-59.305	800.000	-0.214	-0.727
-58.290	352.487	0.583	1.132
-57.276	374.442	0.632	1.262
-56.261	-200.000	106.106	614.828
-55.246	508.110	1510.443	3435.830
-54.232	176.067	2703.654	3845.648
-53.217	110.625	2186.184	2575.622
-52.203	40.277	1704.678	1502.394
-51.188	32.576	1515.423	1283.330
-50.173	30.227	1488.537	1244.772
-49.159	51.492	1544.241	1437.335
-48.144	51.693	1560.971	1454.226
-47.130	32.849	1516.923	1286.255
-46.115	29.818	1501.667	1252.780
-45.100	29.488	1498.644	1247.976
-44.086	29.461	1496.401	1245.883
-43.071	29.455	1494.203	1243.957
-42.057	29.472	1492.540	1242.638
-41.042	29.508	1491.318	1241.813
-40.027	29.531	1489.690	1240.569
-39.013	29.484	1488.377	1239.110
-37.998	29.404	1486.927	1237.316
-36.984	29.455	1485.900	1236.755
-35.969	29.406	1484.831	1235.488
-34.954	29.414	1482.759	1233.765
-33.940	29.452	1481.819	1233.191
-32.925	29.526	1480.416	1232.464
-31.911	29.549	1478.969	1231.364
-30.896	29.522	1477.592	1229.989
-29.881	29.591	1476.366	1229.381
-28.867	29.696	1474.658	1228.606
-27.852	29.706	1473.637	1227.777
-26.838	29.609	1472.227	1225.904
-25.823	29.604	1470.882	1224.703
-24.809	29.559	1468.971	1222.767
-23.794	29.558	1467.614	1221.586
-22.779	29.595	1466.159	1220.571
-21.765	29.498	1465.710	1219.503
-20.750	29.543	1464.598	1218.826
-19.736	29.512	1463.378	1217.561
-18.721	29.500	1462.201	1216.455
-17.706	29.478	1460.921	1215.193
-16.692	29.560	1459.591	1214.583
-15.677	29.555	1459.027	1214.027
-14.663	29.480	1458.030	1212.661
-13.648	29.463	1457.137	1211.759
-12.633	29.438	1456.308	1210.854
-11.619	29.363	1455.814	1209.907
-10.604	29.400	1454.756	1209.221
-9.590	29.439	1453.714	1208.562
-8.575	29.410	1452.835	1207.592
-7.560	29.514	1451.991	1207.522
-6.546	29.573	1450.981	1207.021
-5.531	29.386	1450.763	1205.570
-4.517	29.394	1449.445	1204.479
-3.502	29.378	1448.413	1203.473
-2.487	29.450	1447.523	1203.154
-1.473	29.382	1446.198	1201.560
-0.458	29.504	1445.030	1201.338
0.556	27.091	1435.477	1190.424
1.571	24.185	1409.891	1150.371
2.586	20.855	1352.369	1082.680
3.600	19.279	1271.614	1008.724
4.615	18.154	1227.390	967.196
5.629	16.090	1172.358	912.586
6.644	8.261	1088.511	807.758
7.659	1.022	1048.921	742.905
8.673	-0.140	1043.177	733.100
9.688	-0.162	1039.440	730.305
10.702	-0.363	1038.166	728.365
11.717	-0.395	1036.323	726.856
12.731	2.997	1039.684	745.622
13.746	11.739	1052.574	797.591
14.761	18.588	1061.441	837.807
15.775	20.547	1062.711	848.305
16.790	20.708	1062.865	849.137
17.804	20.532	1062.117	847.606
18.819	20.434	1060.910	846.092
19.834	20.479	1060.446	845.864
20.848	20.689	1059.736	846.248
21.863	20.742	1059.295	846.078
22.877	20.688	1059.229	845.685
23.892	20.784	1058.205	845.258
24.907	20.619	1057.776	844.042
25.921	20.650	1056.842	843.374
26.936	20.641	1056.386	842.889
27.950	20.761	1054.837	842.163
28.965	20.592	1054.186	840.751
29.980	20.584	1052.001	838.895
30.994	20.460	1050.723	837.201
32.009	20.695	1049.486	837.276
33.023	20.815	1048.643	837.106
34.038	20.566	1047.692	835.074
35.053	20.553	1046.644	834.106
36.067	20.794	1046.093	834.746
37.082	20.769	1045.577	834.142
38.096	20.757	1044.913	833.478
39.111	20.963	1044.189	833.815
40.126	21.036	1043.139	833.251
41.140	20.946	1041.832	831.704
42.155	20.629	1040.034	828.683
43.169	20.303	1038.850	826.114
44.184	20.340	1037.923	825.481
45.199	20.329	1037.194	824.779
46.213	20.233	1035.776	823.119
47.228	20.204	1035.003	822.298
48.242	20.544	1033.911	822.965
49.257	20.562	1033.570	822.708
50.271	20.574	1032.506	821.846
51.286	20.686	1032.218	822.073
52.301	20.831	1030.898	821.629
53.315	20.699	1030.178	820.361
54.330	20.657	1029.789	819.782
55.344	20.526	1029.224	818.644
56.359	20.630	1028.231	818.270
57.374	20.731	1026.953	817.654
58.388	20.504	1025.806	815.605
59.403	20.463	1025.366	814.988
60.417	20.707	1024.251	815.175
61.432	20.235	1023.916	812.627
62.447	20.386	1023.106	812.617
63.461	20.368	1022.675	812.118
64.476	20.626	1021.968	812.693
65.490	20.553	1020.633	811.215
66.505	20.390	1019.880	809.786
67.520	20.426	1018.814	809.038
68.534	20.448	1018.515	808.831
69.549	20.306	1017.526	807.312
70.563	20.038	1016.134	804.892
71.578	19.892	1015.108	803.332
72.593	20.021	1014.451	803.339
73.607	19.937	1013.454	802.087
74.622	19.958	1012.164	801.094
75.636	20.335	1011.100	801.923
76.651	20.155	1011.298	801.176
77.666	20.252	1009.921	800.464
78.680	20.186	1008.887	799.268
79.695	20.186	1008.430	798.833
80.709	20.253	1008.186	798.879
81.724	20.272	1007.066	798.010
82.739	20.299	1005.972	797.197
83.753	20.352	1005.224	796.775
84.768	20.576	1004.717	797.332
85.782	20.979	1003.703	798.300
86.797	21.049	1003.504	798.394
87.812	20.943	1002.243	796.834
88.826	20.753	1001.522	795.323
89.841	20.903	1000.276	794.948
90.855	20.782	999.918	794.040
91.870	20.936	998.972	793.920
92.884	20.883	998.192	792.988
93.899	20.806	997.043	791.654
94.914	20.654	996.421	790.400
95.928	20.871	995.342	790.458
96.943	20.957	994.332	789.978
97.957	20.529	993.375	787.211
98.972	20.425	992.487	785.965
99.987	20.222	991.236	783.990
101.001	20.373	990.794	784.249
102.016	20.594	990.325	784.806
103.030	20.646	989.017	783.938
104.045	20.557	987.753	782.467
105.060	20.472	986.649	781.137
106.074	20.295	985.141	779.083
107.089	20.333	984.814	778.926
108.103	20.706	984.596	780.353
109.118	20.742	983.808	779.824
110.133	20.424	982.479	777.279
111.147	20.452	981.473	776.541
112.162	20.329	980.360	775.039
113.176	20.084	978.680	772.550
114.191	20.216	978.208	772.698
115.206	20.449	977.046	772.750
116.220	20.080	975.911	770.142
117.235	19.883	975.044	768.514
118.249	20.119	974.532	769.090
119.264	20.053	973.693	768.070
120.279	19.943	972.996	766.963
121.293	20.032	972.010	766.512
122.308	20.067	971.571	766.253
123.322	20.200	970.527	765.950
124.337	20.114	969.368	764.588
125.352	20.051	968.182	763.307
126.366	19.647	965.922	759.683
127.381	19.341	965.017	757.560
128.395	19.883	964.262	759.278
129.410	20.406	964.576	761.754
130.424	20.594	963.590	761.730
131.439	20.749	962.576	761.538
132.454	20.509	960.808	759.026
133.468	20.609	959.976	758.736
134.483	20.480	959.330	757.598
135.497	20.518	958.488	757.032
136.512	20.829	958.301	758.169
137.527	20.773	957.740	757.416
138.541	20.719	956.481	756.119
139.556	20.841	955.971	756.176
140.570	20.724	955.156	754.959
141.585	20.900	953.844	754.617
142.600	20.841	953.141	753.740
143.614	20.820	952.322	752.934
144.629	20.955	951.489	752.792
145.643	21.076	951.075	752.918
146.658	21.065	949.817	751.811
147.673	20.915	948.194	749.812
148.687	20.731	947.437	748.357
149.702	20.789	946.072	747.461
150.716	20.672	945.279	746.267
151.731	20.481	944.511	744.775
152.746	20.628	943.882	744.846
153.760	20.938	943.152	745.530
154.775	21.011	942.088	744.934
155.789	20.999	941.564	744.403
156.804	20.933	940.398	743.132
157.819	20.939	939.342	742.259
158.833	20.996	938.968	742.141
159.848	21.044	937.946	741.471
160.862	21.084	937.415	741.154
161.877	20.811	936.490	739.201
162.892	20.751	935.874	738.394
163.906	20.964	934.745	738.340
164.921	20.958	933.797	737.499
165.935	20.947	931.991	735.961
166.950	20.886	931.602	735.332
167.964	21.047	930.619	735.171
168.979	21.045	929.500	734.212
169.994	20.783	928.845	732.526
171.008	20.844	927.517	731.674
172.023	21.014	926.744	731.712
173.037	21.132	925.964	731.527
174.052	20.966	924.798	729.843
175.067	20.711	923.910	728.015
176.081	20.746	922.764	727.190
177.096	20.903	922.273	727.397
178.110	20.842	921.388	726.378
179.125	20.632	920.070	724.401
180.140	20.334	919.402	722.571
181.154	20.504	918.653	722.626
182.169	20.526	918.564	722.582
183.183	20.713	918.120	722.946
184.198	21.073	917.520	723.902
185.213	20.847	917.104	722.575
186.227	20.883	916.011	721.797
187.242	20.951	915.774	721.829
188.256	20.920	915.176	721.163
189.271	20.937	914.207	720.409
190.286	21.223	913.221	720.747
191.300	20.974	912.150	718.814
192.315	20.568	910.598	715.854
193.329	19.760	909.353	711.490
194.344	19.332	908.416	708.932
195.359	19.998	908.737	711.861
196.373	20.726	908.522	714.617
197.388	20.999	908.192	715.418
198.402	20.826	907.739	714.288
199.417	20.780	907.073	713.512
200.432	20.927	906.240	713.394
201.446	20.661	906.049	712.092
202.461	20.395	905.437	710.462
203.475	20.286	904.961	709.579
204.490	20.107	902.897	707.168
205.504	18.943	901.332	701.133
206.519	19.497	901.163	703.197
207.534	20.417	901.107	706.838
208.548	20.417	900.775	706.515
209.563	20.848	900.521	708.008
210.577	20.886	899.909	707.617
211.592	20.468	899.197	705.299
212.607	20.945	898.777	706.841
213.621	21.091	898.233	706.943
214.636	20.879	897.977	705.821
215.650	21.057	897.309	705.954
216.665	21.077	896.469	705.312
217.680	21.012	896.270	704.827
218.694	21.216	895.662	705.112
219.709	20.808	894.191	702.246
220.723	20.470	893.494	700.275
221.738	20.612	893.641	700.901
222.753	20.961	892.060	701.002
223.767	20.814	891.498	699.906
224.782	20.829	891.040	699.547
225.796	21.063	890.403	699.925
226.811	21.073	890.233	699.769
227.826	20.718	889.018	697.330
228.840	20.000	887.535	693.233
229.855	19.862	886.690	691.958
230.869	20.276	886.553	693.444
231.884	19.936	885.170	690.945
232.899	19.875	885.131	690.610
233.913	20.577	885.416	693.571
234.928	21.010	884.564	694.568
235.942	20.818	883.728	693.085
236.957	20.951	883.524	693.396
237.972	20.554	882.034	690.587
238.986	20.438	881.490	689.638
240.001	20.594	880.754	689.622
241.015	20.587	880.322	689.196
242.030	20.614	879.865	688.882
243.045	20.657	879.726	688.883
244.059	20.799	879.042	688.847
245.074	21.009	878.333	689.063
246.088	21.018	876.948	687.950
247.103	20.609	876.599	686.003
248.117	20.667	876.279	685.920
249.132	21.072	876.437	687.577
250.147	21.531	876.185	689.126
251.161	21.440	875.466	688.142
252.176	21.491	874.818	687.773
253.190	21.620	874.053	687.617
254.205	21.784	873.321	687.626
255.220	21.961	873.064	688.057
256.234	21.905	872.630	687.433
257.249	21.880	871.354	686.271
258.263	21.476	871.270	684.564
259.278	21.603	870.473	684.374
260.293	21.712	869.796	684.206
261.307	21.792	869.424	684.162
262.322	21.619	868.893	683.010
263.336	21.499	868.226	681.956
264.351	21.063	866.707	679.008
265.366	19.832	865.221	672.996
266.380	19.627	863.615	670.893
267.395	20.521	863.921	674.543
268.409	21.285	864.262	677.716
269.424	21.347	863.442	677.252
270.439	21.451	863.340	677.513
271.453	21.462	862.297	676.679
272.468	21.497	862.004	676.525
273.482	21.494	861.597	676.132
274.497	21.758	860.912	676.554
275.512	21.675	859.487	675.055
276.526	20.936	858.695	671.528
277.541	21.194	858.461	672.278
278.555	21.689	857.971	673.740
279.570	21.371	857.462	672.057
280.585	21.210	856.480	670.611
281.599	21.234	856.377	670.561
282.614	21.487	855.436	670.736
283.628	20.951	854.629	667.993
284.643	20.722	853.791	666.400
285.657	21.071	853.532	667.476
286.672	20.758	853.499	666.194
287.687	20.413	851.928	663.589
288.701	20.886	851.987	665.382
289.716	21.212	851.468	666.164
290.730	20.943	850.381	664.229
291.745	20.766	849.922	663.138
292.760	20.498	849.021	661.356
293.774	20.559	848.208	660.896
294.789	21.448	848.906	664.762
295.803	22.052	848.780	666.898
296.818	22.104	848.010	666.432
297.833	22.264	847.677	666.716
298.847	21.963	846.524	664.611
299.862	21.574	846.090	662.739
300.876	21.741	845.031	662.485
301.891	22.084	844.702	663.463
302.906	22.053	844.296	662.970
303.920	21.608	843.255	660.415
304.935	21.638	842.377	659.779
305.949	21.886	842.298	660.596
306.964	22.055	841.769	660.759
307.979	21.875	841.062	659.469
308.993	21.598	840.951	658.282
310.008	22.060	840.593	659.677
311.022	22.101	840.174	659.446
312.037	21.952	839.505	658.300
313.052	21.769	838.541	656.801
314.066	21.836	837.637	656.286
315.081	21.131	836.312	652.555
316.095	20.354	835.461	648.930
317.110	20.875	835.561	650.897
318.125	21.748	835.906	654.369
319.139	21.211	834.654	651.328
320.154	20.179	832.876	646.041
321.168	19.735	832.096	643.728
322.183	20.331	832.277	646.028
323.197	21.414	832.466	650.146
324.212	21.729	832.082	650.958
325.227	21.667	832.017	650.621
326.241	21.968	831.361	651.166
327.256	21.888	830.551	650.179
328.270	21.722	830.131	649.179
329.285	21.559	829.694	648.175
330.300	21.475	828.814	647.121
331.314	21.340	827.901	645.852
332.329	21.326	827.598	645.506
333.343	21.809	826.880	646.671
334.358	21.896	826.750	646.831
335.373	21.947	826.440	646.720
336.387	21.953	826.083	646.406
337.402	22.185	825.617	646.838
338.416	22.347	825.203	647.052
339.431	22.236	824.297	645.876
340.446	22.333	823.836	645.816
341.460	22.466	823.350	645.863
342.475	22.581	822.416	645.496
343.489	22.200	822.404	644.034
344.504	22.248	821.692	643.594
345.519	22.490	821.496	644.269
346.533	22.706	820.755	644.419
347.548	22.849	820.534	644.713
348.562	22.810	820.288	644.319
349.577	22.645	819.847	643.315
350.592	22.780	819.178	643.223
351.606	22.643	818.684	642.280
352.621	22.585	818.023	641.492
353.635	22.632	817.434	641.146
354.650	22.416	817.375	640.257
355.665	22.276	815.911	638.544
356.679	21.130	814.435	633.178
357.694	21.003	814.170	632.458
358.708	21.837	813.606	634.982
359.723	21.536	813.219	633.535
360.738	21.867	813.235	634.692
361.752	22.311	813.144	636.168
362.767	22.456	812.514	636.143
363.781	22.676	812.390	636.786
364.796	22.988	812.123	637.646
365.810	23.111	811.749	637.740
366.825	23.033	811.114	636.902
367.840	22.972	811.082	636.600
368.854	22.845	810.384	635.541
369.869	22.362	809.483	633.042
370.883	22.522	808.369	632.689
371.898	22.388	808.385	632.164
372.913	22.295	807.786	631.303
373.927	22.286	807.015	630.613
374.942	22.430	806.381	630.579
375.956	22.564	806.351	630.980
376.971	22.658	805.926	630.927
377.986	22.844	804.825	630.674
379.000	22.933	804.717	630.852
380.015	22.834	804.237	630.067
381.029	22.812	803.393	629.269
382.044	22.867	802.882	629.011
383.059	23.003	801.960	628.714
384.073	22.971	801.823	628.439
385.088	22.821	801.411	627.528
386.102	23.029	800.955	627.852
387.117	22.948	800.099	626.840
388.132	22.772	799.437	625.643
389.146	22.674	798.404	624.430
390.161	22.064	797.810	621.753
391.175	22.346	797.414	622.388
392.190	22.631	797.579	623.469
393.205	22.740	797.235	623.528
394.219	21.655	795.465	618.264
395.234	20.321	792.970	611.570
396.248	19.513	792.295	608.151
397.263	20.661	793.366	612.966
398.278	22.329	794.497	619.665
399.292	22.613	794.285	620.446
400.307	22.400	793.753	619.225
401.321	22.464	793.048	618.845
402.336	22.466	793.195	618.913
403.350	22.683	793.082	619.531
404.365	23.206	792.764	621.065
405.380	23.405	792.345	621.380
406.394	23.660	791.980	621.930
407.409	23.658	791.842	621.761
408.423	23.663	791.061	621.112
409.438	23.780	790.743	621.214
410.453	23.654	790.341	620.402
411.467	23.687	790.090	620.267
412.482	23.601	789.442	619.402
413.496	23.525	789.114	618.826
414.511	23.655	788.464	618.715
415.526	23.933	787.856	619.149
416.540	23.667	787.976	618.265
417.555	23.560	787.427	617.406
418.569	23.449	786.396	616.157
419.584	23.340	785.958	615.381
420.599	23.384	785.394	615.036
421.613	157.521	1364.646	1799.487
422.628	136.245	1449.036	1799.551
