DTS Sentinel unit serial number:	SN413079Multiplexer serial number:	ORYXHardware model number:	OX4-SRSoftware version number:	ORYX F/W v4.00 Oryx Data Collector v3.7.2.0data status	okinstallation	princeton_trtdifferential loss correction	single-endedforward channel	channel 3reverse channel	N/Adate	2019/09/11time	07:46:11forward acquisition time	60.00reverse acquisition time	0.00gamma	496.2192k internal	0.2323k external	0.2323temperature offset calibration	0.9905default loss term (dB/km)	0.3790temperature slope calibration	1.0000multiplexer offset coefficient	1.0000multiplexer slope coefficient	1.0000fibre end	0.00T internal ref (°C)	31.62T ext. ref 1 (°C)	0.09T ext. ref 2 (°C)	28.05length (m)	temperature (°C)	Stokes	anti-Stokes-747.200	-141.138	-0.247	0.025
-746.185	291.214	-0.089	0.163
-745.171	468.355	0.022	0.050
-744.156	-94.414	-0.156	-0.043
-743.142	147.302	-0.131	-0.178
-742.127	120.950	-0.173	0.217
-741.112	28.531	-0.157	0.134
-740.098	-8.398	-0.348	-0.236
-739.083	-200.000	-0.040	0.282
-738.069	-200.000	-0.022	0.246
-737.054	-84.945	-0.221	-0.070
-736.039	-49.802	-0.258	0.124
-735.025	800.000	0.041	0.124
-734.010	738.367	-0.140	-0.379
-732.996	363.849	-0.102	0.207
-731.981	123.972	0.152	-0.193
-730.966	-50.277	-0.056	0.027
-729.952	-168.347	-0.339	-0.013
-728.937	-103.318	-0.111	-0.026
-727.923	490.668	-0.072	-0.167
-726.908	-107.610	-0.404	0.089
-725.894	4.998	-0.122	0.091
-724.879	-200.000	-0.024	-0.472
-723.864	354.374	-0.076	0.152
-722.850	47.021	-0.176	0.165
-721.835	210.966	0.037	-0.059
-720.821	68.490	-0.191	-0.198
-719.806	-17.380	-0.407	0.258
-718.791	-200.000	0.013	0.273
-717.777	800.000	-0.029	-0.096
-716.762	-131.532	0.145	-0.019
-715.748	-48.661	0.196	0.095
-714.733	-109.970	-0.240	0.051
-713.718	-25.500	-0.361	-0.215
-712.704	137.911	0.191	-0.252
-711.689	-107.524	-0.142	-0.031
-710.675	177.091	-0.182	-0.268
-709.660	-112.653	0.110	-0.022
-708.645	-148.849	0.202	-0.016
-707.631	-200.000	0.031	0.138
-706.616	-61.479	-0.332	0.141
-705.602	389.320	-0.086	0.179
-704.587	-79.432	-0.358	-0.122
-703.572	-74.456	0.341	-0.124
-702.558	-111.078	0.247	-0.051
-701.543	-102.192	-0.159	0.038
-700.529	-71.050	0.251	-0.095
-699.514	-70.571	0.409	-0.156
-698.499	92.223	0.085	0.097
-697.485	119.810	-0.137	-0.171
-696.470	-93.779	0.083	-0.023
-695.456	3.462	-0.110	0.081
-694.441	-61.888	0.181	0.076
-693.426	800.000	-0.063	0.215
-692.412	-200.000	0.034	-0.207
-691.397	23.669	-0.130	-0.108
-690.383	-83.549	-0.347	0.112
-689.368	207.997	0.162	0.255
-688.354	-200.000	0.011	-0.137
-687.339	-118.301	0.265	-0.048
-686.324	753.866	-0.098	-0.267
-685.310	800.000	0.091	-0.353
-684.295	86.840	0.174	-0.193
-683.281	-189.073	0.556	0.007
-682.266	-200.000	0.004	0.052
-681.251	-41.956	0.137	0.070
-680.237	164.949	0.292	-0.415
-679.222	-171.549	0.183	0.006
-678.208	-181.556	0.100	-0.002
-677.193	-200.000	-0.074	-0.380
-676.178	265.482	0.235	-0.413
-675.164	-200.000	0.006	-0.109
-674.149	-200.000	-0.026	-0.204
-673.135	237.793	-0.008	0.014
-672.120	-41.893	0.182	0.094
-671.105	158.611	-0.036	-0.050
-670.091	100.143	-0.313	-0.366
-669.076	50.362	-0.190	-0.180
-668.062	460.227	0.097	0.219
-667.047	800.000	-0.019	0.073
-666.032	-40.994	0.207	-0.108
-665.018	28.488	-0.153	0.130
-664.003	800.000	-0.047	-0.181
-662.989	-200.000	-0.047	0.275
-661.974	206.738	0.132	-0.207
-660.959	12.998	-0.196	0.152
-659.945	-78.995	-0.069	0.024
-658.930	355.998	0.153	0.307
-657.916	-64.794	0.339	0.138
-656.901	-200.000	-0.007	0.093
-655.886	199.698	0.077	0.119
-654.872	262.569	-0.030	-0.052
-653.857	168.063	0.178	-0.255
-652.843	404.842	-0.087	0.184
-651.828	-90.215	0.030	-0.009
-650.814	-200.000	0.014	-0.304
-649.799	49.783	0.156	-0.148
-648.784	-200.000	-0.033	0.172
-647.770	188.984	-0.174	0.262
-646.755	800.000	0.088	-0.254
-645.741	-56.521	-0.284	-0.127
-644.726	-127.885	-0.183	-0.027
-643.711	-21.432	-0.038	0.024
-642.697	56.952	0.137	-0.134
-641.682	206.653	0.077	0.121
-640.668	-200.000	-0.069	-0.399
-639.653	146.207	0.083	-0.112
-638.638	284.227	0.182	-0.329
-637.624	289.979	0.042	0.076
-636.609	-100.744	0.205	-0.051
-635.595	274.068	-0.043	0.076
-634.580	-37.433	-0.161	-0.087
-633.565	109.862	-0.185	0.223
-632.551	-190.301	0.219	0.002
-631.536	-115.027	0.197	-0.038
-630.522	800.000	0.080	0.303
-629.507	269.646	-0.083	-0.147
-628.492	800.000	-0.032	0.095
-627.478	162.911	0.030	-0.043
-626.463	-105.131	0.347	-0.080
-625.449	800.000	-0.116	0.387
-624.434	144.080	0.051	-0.069
-623.419	658.041	0.153	-0.396
-622.405	-200.000	0.027	-0.166
-621.390	-36.241	0.123	0.067
-620.376	-200.000	-0.011	0.112
-619.361	-200.000	0.013	-0.181
-618.346	-46.121	-0.220	-0.109
-617.332	-200.000	0.057	0.281
-616.317	-19.233	0.345	0.215
-615.303	-116.263	0.178	-0.033
-614.288	-160.193	-0.112	0.006
-613.273	800.000	0.015	0.051
-612.259	-14.869	0.277	0.178
-611.244	-144.591	-0.070	0.006
-610.230	-143.625	0.133	-0.013
-609.215	-135.906	0.636	-0.075
-608.201	164.385	0.212	-0.300
-607.186	-170.734	-0.095	-0.003
-606.171	-200.000	0.035	0.155
-605.157	-200.000	-0.052	0.227
-604.142	800.000	-0.032	-0.139
-603.128	-200.000	-0.020	0.159
-602.113	-200.000	-0.236	-0.001
-601.098	-124.931	-0.180	-0.028
-600.084	-40.604	0.172	0.090
-599.069	28.422	-0.151	-0.128
-598.055	-153.165	-0.313	-0.022
-597.040	-200.000	-0.094	-0.473
-596.025	-200.000	0.017	-0.170
-595.011	-131.898	-0.260	-0.034
-593.996	-200.000	0.018	-0.112
-592.982	-52.192	-0.141	0.066
-591.967	-118.008	0.076	0.014
-590.952	-134.717	-0.099	-0.012
-589.938	13.901	0.275	0.215
-588.923	123.627	-0.121	-0.152
-587.909	-78.238	-0.260	-0.090
-586.894	800.000	0.019	0.063
-585.879	-152.374	0.205	-0.015
-584.865	-111.311	-0.088	-0.018
-583.850	40.033	-0.184	0.166
-582.836	218.521	-0.183	-0.293
-581.821	800.000	0.063	-0.195
-580.806	225.717	-0.178	-0.290
-579.792	800.000	-0.043	-0.182
-578.777	6.712	0.353	-0.264
-577.763	70.355	-0.364	0.378
-576.748	15.184	0.117	0.092
-575.733	113.381	-0.269	-0.328
-574.719	-65.681	-0.326	0.131
-573.704	800.000	0.045	-0.161
-572.690	-4.109	0.246	-0.171
-571.675	800.000	0.082	-0.285
-570.661	-200.000	-0.115	-0.595
-569.646	-108.913	0.074	0.016
-568.631	-100.520	-0.208	-0.051
-567.617	-73.223	0.101	-0.037
-566.602	6.301	-0.177	0.132
-565.588	-190.476	0.337	-0.004
-564.573	-23.613	0.171	0.103
-563.558	-76.120	-0.282	0.100
-562.544	-68.920	-0.163	0.063
-561.529	-200.000	-0.004	0.019
-560.515	607.105	-0.078	0.195
-559.500	-200.000	0.066	0.357
-558.485	-102.925	0.195	0.047
-557.471	-138.712	0.178	0.019
-556.456	120.857	-0.156	-0.194
-555.442	172.865	-0.195	0.282
-554.427	66.155	0.132	-0.134
-553.412	-200.000	0.030	-0.238
-552.398	-22.705	0.163	0.099
-551.383	111.609	-0.038	0.045
-550.369	135.201	0.066	0.086
-549.354	-13.466	0.231	0.150
-548.339	520.120	0.183	-0.431
-547.325	239.685	0.094	-0.156
-546.310	139.088	-0.203	-0.267
-545.296	764.736	-0.112	-0.304
-544.281	-87.544	0.044	0.013
-543.266	245.808	0.073	-0.123
-542.252	70.515	0.036	-0.037
-541.237	-95.023	0.180	0.049
-540.223	-200.000	0.024	0.246
-539.208	-200.000	-0.021	0.110
-538.193	12.732	-0.111	0.086
-537.179	-38.524	0.239	-0.127
-536.164	444.862	-0.050	-0.110
-535.150	-200.000	-0.029	-0.231
-534.135	-7.084	0.165	0.112
-533.121	-141.059	-0.180	-0.018
-532.106	-34.906	0.100	-0.055
-531.091	523.628	0.064	-0.152
-530.077	131.364	-0.019	0.025
-529.062	-154.925	0.023	0.002
-528.048	-73.304	-0.112	0.041
-527.033	40.347	0.278	-0.251
-526.018	-200.000	-0.002	0.048
-525.004	595.474	0.070	0.173
-523.989	-23.941	0.186	0.111
-522.975	637.712	-0.080	0.204
-521.960	-53.802	-0.299	0.137
-520.945	-200.000	0.019	-0.210
-519.931	-114.661	-0.268	0.051
-518.916	215.844	-0.049	-0.078
-517.902	-170.326	0.182	-0.006
-516.887	-200.000	0.022	-0.353
-515.872	800.000	0.092	0.255
-514.858	144.212	0.093	0.124
-513.843	800.000	0.024	0.091
-512.829	-101.483	-0.221	0.054
-511.814	800.000	-0.045	-0.148
-510.799	66.562	-0.054	-0.055
-509.785	-200.000	-0.025	-0.422
-508.770	-187.940	-0.191	-0.002
-507.756	-96.415	-0.120	0.032
-506.741	-20.797	0.136	0.084
-505.726	-94.369	-0.468	0.128
-504.712	-93.097	-0.028	0.008
-503.697	-80.319	-0.098	-0.033
-502.683	6.116	0.216	-0.160
-501.668	1.847	-0.139	-0.100
-500.653	383.961	-0.039	0.080
-499.639	-132.623	0.031	0.004
-498.624	-85.517	-0.079	-0.025
-497.610	800.000	0.039	0.164
-496.595	-200.000	-0.038	-0.178
-495.581	107.422	-0.199	0.236
-494.566	-152.380	0.318	0.023
-493.551	77.666	0.242	0.257
-492.537	-35.735	0.312	0.169
-491.522	40.395	0.168	-0.152
-490.508	32.576	0.126	0.109
-489.493	295.451	-0.097	-0.178
-488.478	117.377	-0.205	0.252
-487.464	-47.799	0.144	-0.070
-486.449	167.180	0.081	0.115
-485.435	80.361	0.084	0.090
-484.420	207.093	-0.045	-0.070
-483.405	-121.728	0.259	0.043
-482.391	-200.000	-0.001	0.370
-481.376	34.577	0.236	0.206
-480.362	209.383	-0.230	-0.360
-479.347	-0.807	-0.035	-0.025
-478.332	-85.226	-0.154	-0.048
-477.318	316.492	0.201	0.380
-476.303	109.985	-0.303	0.364
-475.289	453.523	0.025	-0.055
-474.274	375.084	0.156	0.317
-473.259	659.609	-0.103	0.265
-472.245	-200.000	0.024	0.236
-471.230	294.822	-0.043	-0.078
-470.216	-173.741	0.126	0.004
-469.201	-84.690	0.167	0.053
-468.186	111.436	0.101	0.122
-467.172	-200.000	0.015	-0.165
-466.157	20.037	0.181	-0.146
-465.143	-12.937	-0.147	0.096
-464.128	756.869	0.097	0.263
-463.113	752.689	0.073	-0.197
-462.099	-68.707	0.090	-0.035
-461.084	-23.303	0.171	-0.103
-460.070	-200.000	0.022	-0.186
-459.055	-122.329	0.224	-0.037
-458.040	77.174	-0.013	-0.014
-457.026	-127.151	-0.123	0.018
-456.011	283.835	-0.109	-0.195
-454.997	556.436	0.136	-0.326
-453.982	153.324	-0.202	-0.276
-452.968	-200.000	-0.005	0.190
-451.953	533.651	0.013	0.030
-450.938	46.559	0.168	-0.156
-449.924	-102.150	-0.055	-0.013
-448.909	403.046	0.053	0.111
-447.895	101.864	0.190	-0.221
-446.880	157.444	0.049	-0.068
-445.865	-200.000	-0.026	-0.144
-444.851	800.000	-0.021	-0.059
-443.836	-90.599	-0.076	-0.022
-442.822	32.579	0.150	-0.129
-441.807	-200.000	0.016	0.166
-440.792	365.944	-0.069	0.140
-439.778	568.869	-0.015	0.035
-438.763	721.593	-0.075	-0.198
-437.749	-81.982	0.228	0.074
-436.734	773.494	0.096	0.262
-435.719	-83.508	-0.238	-0.076
-434.705	-60.831	0.124	0.052
-433.690	-112.200	-0.296	-0.059
-432.676	427.529	-0.166	-0.358
-431.661	238.278	0.010	0.017
-430.646	708.498	0.120	0.315
-429.632	150.545	0.264	-0.358
-428.617	-200.000	-0.092	-0.494
-427.603	61.666	-0.203	-0.201
-426.588	-200.000	0.023	-0.143
-425.573	-200.000	0.040	-0.339
-424.559	88.359	-0.137	0.151
-423.544	123.022	-0.118	0.147
-422.530	-60.985	0.365	0.154
-421.515	32.799	-0.280	0.241
-420.500	100.490	0.163	0.188
-419.486	113.595	-0.056	-0.068
-418.471	-200.000	-0.024	-0.232
-417.457	16.387	-0.225	-0.177
-416.442	153.240	0.055	-0.075
-415.428	-55.595	-0.084	-0.038
-414.413	222.373	0.118	0.189
-413.398	-200.000	-0.125	-0.557
-412.384	127.411	-0.196	-0.248
-411.369	-89.662	-0.258	0.076
-410.355	-90.425	-0.135	0.039
-409.340	800.000	0.032	-0.118
-408.325	-200.000	-0.029	0.354
-407.311	-67.511	0.117	0.046
-406.296	762.677	-0.058	-0.157
-405.282	800.000	0.031	-0.100
-404.267	376.059	-0.203	-0.414
-403.252	-20.498	0.054	-0.033
-402.238	-200.000	-0.043	0.229
-401.223	-40.059	0.287	-0.149
-400.209	182.029	0.141	-0.206
-399.194	-82.220	-0.456	-0.148
-398.179	-169.797	-0.222	0.008
-397.165	-68.105	-0.182	0.070
-396.150	800.000	0.005	-0.013
-395.136	129.412	-0.162	0.206
-394.121	230.290	0.079	0.129
-393.106	96.839	0.370	0.422
-392.092	52.952	-0.069	0.066
-391.077	674.624	0.152	0.392
-390.063	224.993	0.051	-0.082
-389.048	-200.000	-0.003	-0.045
-388.033	-50.142	0.141	-0.066
-387.019	-35.132	-0.160	-0.087
-386.004	-200.000	0.007	-0.034
-384.990	-13.486	-0.310	-0.200
-383.975	18.982	-0.062	0.049
-382.960	-64.388	-0.152	-0.062
-381.946	800.000	-0.034	0.121
-380.931	-75.944	0.306	0.108
-379.917	-19.884	0.211	-0.130
-378.902	-200.000	0.013	-0.238
-377.888	6.497	0.180	-0.133
-376.873	332.895	-0.244	0.469
-375.858	-10.709	0.092	-0.061
-374.844	380.061	-0.041	-0.084
-373.829	639.847	-0.015	-0.038
-372.815	-49.739	0.145	-0.069
-371.800	278.108	0.170	-0.301
-370.785	-101.490	0.189	0.046
-369.771	145.787	-0.196	-0.261
-368.756	-200.000	0.033	-0.214
-367.742	-200.000	0.025	-0.164
-366.727	44.072	0.179	0.163
-365.712	-131.344	-0.266	0.035
-364.698	-200.000	0.016	-0.111
-363.683	89.896	0.066	-0.074
-362.669	-65.029	0.289	0.116
-361.654	398.505	0.139	-0.289
-360.639	519.903	0.091	-0.212
-359.625	40.340	0.167	0.149
-358.610	7.236	-0.167	0.124
-357.596	45.267	-0.138	0.127
-356.581	70.372	-0.097	-0.100
-355.566	-94.192	-0.461	-0.126
-354.552	557.106	-0.139	0.333
-353.537	260.632	-0.116	0.200
-352.523	-200.000	-0.012	-0.067
-351.508	-17.861	0.528	-0.330
-350.493	-68.771	-0.313	-0.120
-349.479	228.689	-0.156	0.254
-348.464	-200.000	0.014	-0.125
-347.450	22.774	0.337	-0.275
-346.435	23.336	0.409	0.334
-345.420	749.720	-0.079	-0.212
-344.406	-98.197	0.191	0.049
-343.391	800.000	0.080	0.233
-342.377	596.084	0.115	-0.284
-341.362	149.259	-0.197	-0.265
-340.348	-185.688	0.126	-0.002
-339.333	510.866	-0.090	-0.207
-338.318	198.030	-0.230	0.350
-337.304	-200.000	0.016	0.217
-336.289	443.927	-0.183	0.399
-335.275	655.312	0.029	0.073
-334.260	46.707	-0.219	-0.202
-333.245	-30.842	-0.190	0.107
-332.231	800.000	-0.019	-0.059
-331.216	-155.731	0.178	-0.011
-330.202	82.461	0.076	0.082
-329.187	586.123	0.010	0.025
-328.172	207.213	0.057	-0.088
-327.158	-162.502	-0.333	-0.016
-326.143	800.000	0.091	0.279
-325.129	92.368	-0.131	0.147
-324.114	163.528	-0.237	-0.331
-323.099	-39.028	-0.162	0.085
-322.085	69.498	-0.116	0.119
-321.070	-6.458	-0.253	0.171
-320.056	-102.452	-0.227	-0.054
-319.041	110.777	-0.016	0.019
-318.026	237.436	0.203	0.335
-317.012	800.000	0.041	0.163
-315.997	32.345	-0.388	-0.333
-314.983	-141.857	0.262	0.026
-313.968	-123.010	-0.425	0.068
-312.953	-78.380	0.309	-0.105
-311.939	-200.000	0.008	-0.109
-310.924	-174.350	-0.012	-0.000
-309.910	115.556	0.202	-0.245
-308.895	800.000	-0.120	0.350
-307.880	-94.008	0.247	-0.067
-306.866	-200.000	-0.002	-0.146
-305.851	-5.219	-0.162	0.110
-304.837	-156.016	0.036	-0.002
-303.822	-21.315	-0.004	-0.003
-302.807	-30.458	-0.288	-0.162
-301.793	-200.000	0.027	0.169
-300.778	147.389	0.022	0.029
-299.764	-200.000	0.095	0.455
-298.749	-51.584	0.187	-0.087
-297.735	-68.242	-0.379	-0.146
-296.720	96.721	-0.143	-0.162
-295.705	-161.107	0.394	-0.020
-294.691	-22.899	-0.112	0.067
-293.676	308.654	0.099	-0.183
-292.662	192.481	0.067	-0.101
-291.647	-107.906	-0.295	-0.064
-290.632	798.449	0.041	0.112
-289.618	484.112	0.123	0.279
-288.603	-83.128	0.059	-0.019
-287.589	113.429	0.126	0.152
-286.574	-133.071	-0.168	-0.021
-285.559	-107.424	0.229	0.050
-284.545	196.753	-0.183	-0.277
-283.530	410.008	-0.130	0.274
-282.516	686.895	0.019	0.051
-281.501	507.279	0.084	-0.194
-280.486	626.482	-0.116	0.292
-279.472	-92.910	0.319	-0.088
-278.457	725.830	0.042	-0.112
-277.443	-137.692	0.362	0.040
-276.428	-145.314	-0.106	0.009
-275.413	-146.967	0.257	0.022
-274.399	-121.480	0.068	0.011
-273.384	-200.000	-0.055	-0.401
-272.370	54.587	0.044	-0.042
-271.355	91.417	-0.186	0.208
-270.340	-187.287	-0.317	0.004
-269.326	-200.000	0.011	0.104
-268.311	-56.205	0.151	-0.067
-267.297	21.781	-0.268	-0.216
-266.282	41.569	0.138	-0.124
-265.267	168.140	0.116	0.164
-264.253	-76.963	0.373	-0.129
-263.238	-200.000	-0.010	-0.246
-262.224	-200.000	0.028	0.180
-261.209	261.334	-0.089	-0.152
-260.195	417.928	-0.124	0.262
-259.180	4.953	0.013	0.009
-258.165	220.303	0.137	0.218
-257.151	771.103	0.056	0.151
-256.136	502.016	0.102	0.233
-255.122	-200.000	0.031	0.459
-254.107	119.593	0.082	-0.101
-253.092	-200.000	-0.014	-0.211
-252.078	800.000	-0.063	-0.261
-251.063	-200.000	0.010	-0.130
-250.049	-100.451	-0.226	-0.056
-249.034	800.000	0.126	0.392
-248.019	-61.715	0.116	0.048
-247.005	-17.966	-0.004	0.002
-245.990	-200.000	0.009	0.235
-244.976	500.843	-0.156	0.358
-243.961	17.416	0.172	0.136
-242.946	-192.690	-0.526	0.005
-241.932	129.272	0.160	-0.202
-240.917	-60.958	-0.242	-0.101
-239.903	8.636	-0.086	0.064
-238.888	-200.000	0.021	0.232
-237.873	-121.939	-0.196	0.032
-236.859	-200.000	-0.049	0.253
-235.844	-200.000	0.022	-0.288
-234.830	-98.154	0.130	-0.033
-233.815	161.886	-0.193	0.268
-232.800	756.218	-0.062	-0.167
-231.786	-21.704	-0.264	-0.159
-230.771	-200.000	-0.053	-0.343
-229.757	-200.000	-0.042	0.187
-228.742	76.020	0.253	0.265
-227.727	74.054	0.104	0.108
-226.713	-28.506	-0.322	0.184
-225.698	115.561	0.131	0.158
-224.684	-200.000	-0.016	0.176
-223.669	-200.000	-0.027	-0.244
-222.655	-200.000	0.030	-0.134
-221.640	-200.000	0.046	0.373
-220.625	-36.451	0.137	0.073
-219.611	315.107	-0.164	0.307
-218.596	-114.853	0.106	0.020
-217.582	-200.000	0.006	-0.120
-216.567	-13.335	-0.159	-0.102
-215.552	-200.000	-0.007	0.042
-214.538	25.765	-0.261	0.216
-213.523	-200.000	0.024	-0.298
-212.509	-200.000	-0.005	0.143
-211.494	201.624	-0.095	0.144
-210.479	49.801	-0.112	0.104
-209.465	66.173	-0.202	-0.203
-208.450	-98.896	-0.105	-0.027
-207.436	290.793	0.158	-0.284
-206.421	-40.988	-0.227	0.116
-205.406	336.969	0.038	0.073
-204.392	317.456	-0.105	0.197
-203.377	-138.398	0.322	0.035
-202.363	72.950	0.195	0.202
-201.348	800.000	-0.025	0.099
-200.333	-7.889	0.249	0.166
-199.319	-147.283	-0.025	-0.002
-198.304	567.030	0.086	-0.207
-197.290	54.775	-0.276	0.264
-196.275	-200.000	-0.010	0.394
-195.260	-111.167	0.236	0.048
-194.246	-200.000	0.012	-0.060
-193.231	800.000	0.034	-0.100
-192.217	-32.964	-0.137	-0.075
-191.202	378.197	-0.154	0.311
-190.187	-102.825	0.219	-0.052
-189.173	216.375	-0.165	0.259
-188.158	-103.693	0.315	-0.073
-187.144	36.986	0.190	0.166
-186.129	10.707	0.255	0.192
-185.114	800.000	-0.061	0.178
-184.100	171.007	0.093	-0.131
-183.085	51.913	0.177	0.167
-182.071	-51.021	0.099	0.046
-181.056	184.211	-0.112	0.165
-180.042	-177.572	0.353	0.008
-179.027	-71.003	-0.068	0.025
-178.012	-57.846	-0.177	-0.077
-176.998	-149.188	-0.273	-0.022
-175.983	158.918	-0.089	0.122
-174.969	298.538	-0.057	0.104
-173.954	-200.000	-0.002	-0.089
-172.939	253.619	-0.040	0.067
-171.925	19.781	-0.236	0.187
-170.910	-200.000	-0.007	-0.276
-169.896	-143.273	-0.199	0.019
-168.881	-200.000	-0.055	0.248
-167.866	2.549	0.118	-0.085
-166.852	168.024	0.105	-0.148
-165.837	-63.313	-0.355	0.144
-164.823	-54.472	-0.127	0.057
-163.808	38.591	-0.172	-0.152
-162.793	-34.677	0.443	0.239
-161.779	528.635	0.079	0.184
-160.764	-6.798	0.275	0.184
-159.750	-200.000	-0.043	-0.400
-158.735	800.000	0.034	-0.098
-157.720	213.710	0.096	-0.150
-156.706	-22.329	-0.071	-0.042
-155.691	32.684	0.087	0.074
-154.677	200.413	-0.061	-0.093
-153.662	277.761	-0.165	-0.289
-152.647	-62.086	0.234	0.097
-151.633	100.869	-0.116	0.133
-150.618	-98.155	0.449	0.114
-149.604	217.013	0.055	-0.087
-148.589	236.329	-0.082	0.134
-147.574	-142.003	-0.300	-0.029
-146.560	-200.000	0.003	-0.078
-145.545	-200.000	0.004	-0.171
-144.531	800.000	0.060	-0.187
-143.516	482.513	0.078	-0.175
-142.502	-200.000	-0.005	0.038
-141.487	-195.456	0.361	-0.003
-140.472	174.597	0.106	-0.151
-139.458	60.618	-0.187	-0.182
-138.443	341.904	-0.154	-0.297
-137.429	-200.000	0.035	0.196
-136.414	800.000	-0.079	0.252
-135.399	-84.375	-0.091	0.028
-134.385	-72.579	-0.081	-0.029
-133.370	-82.154	0.242	-0.078
-132.356	441.757	0.153	-0.330
-131.341	11.365	0.249	0.188
-130.326	273.323	0.031	-0.054
-129.312	746.873	0.067	-0.178
-128.297	409.021	0.199	-0.415
-127.283	800.000	-0.087	-0.275
-126.268	88.743	0.188	0.206
-125.253	184.957	-0.044	-0.064
-124.239	-14.714	0.267	-0.169
-123.224	-103.700	0.103	0.024
-122.210	-145.786	-0.212	0.019
-121.195	9.758	0.099	-0.074
-120.180	66.900	0.245	0.246
-119.166	69.129	0.177	-0.179
-118.151	-200.000	-0.053	-0.402
-117.137	66.918	-0.059	-0.059
-116.122	5.192	0.161	0.117
-115.107	381.699	0.177	0.359
-114.093	82.254	0.137	-0.147
-113.078	25.816	0.153	0.126
-112.064	-36.542	-0.091	-0.048
-111.049	800.000	0.047	-0.134
-110.034	-200.000	-0.012	0.123
-109.020	-127.041	0.230	0.033
-108.005	60.468	-0.056	-0.055
-106.991	-77.883	-0.403	0.137
-105.976	-200.000	-0.027	0.259
-104.962	250.443	-0.217	0.364
-103.947	22.821	0.156	0.126
-102.932	3.640	-0.140	0.101
-101.918	800.000	0.036	0.120
-100.903	-200.000	-0.022	0.271
-99.889	-200.000	-0.059	-0.284
-98.874	-200.000	-0.036	0.239
-97.859	120.519	-0.123	-0.150
-96.845	680.649	-0.054	-0.139
-95.830	-176.768	0.215	-0.005
-94.816	162.741	0.055	-0.076
-93.801	376.021	-0.093	0.187
-92.786	10.674	0.279	-0.210
-91.772	-68.018	0.275	0.106
-90.757	116.505	-0.178	0.215
-89.743	-184.860	0.149	0.002
-88.728	98.052	-0.129	-0.146
-87.713	53.463	-0.072	-0.068
-86.699	482.468	0.062	-0.139
-85.684	-145.304	-0.170	-0.015
-84.670	8.198	-0.144	0.106
-83.655	314.899	0.196	0.364
-82.640	-53.746	-0.339	0.152
-81.626	30.003	-0.087	0.073
-80.611	-169.142	0.123	0.004
-79.597	-169.027	-0.060	0.002
-78.582	28.922	0.127	-0.106
-77.567	-200.000	0.040	-0.194
-76.553	-81.751	-0.550	-0.177
-75.538	11.708	0.159	-0.120
-74.524	800.000	-0.017	0.057
-73.509	800.000	-0.068	0.189
-72.494	46.608	0.049	0.045
-71.480	794.805	-0.095	-0.259
-70.465	-200.000	-0.019	0.173
-69.451	-34.428	0.327	0.176
-68.436	132.349	-0.108	-0.137
-67.422	62.618	0.197	-0.193
-66.407	-200.000	0.001	-0.185
-65.392	-200.000	0.059	0.290
-64.378	-90.569	-0.150	-0.043
-63.363	-22.126	0.165	-0.099
-62.349	104.452	0.063	-0.073
-61.334	88.673	-0.898	-0.982
-60.319	800.000	0.199	0.578
-59.305	-200.000	-0.224	-1.107
-58.290	466.035	0.556	1.224
-57.276	178.813	0.897	1.289
-56.261	-200.000	100.276	632.274
-55.246	618.542	1443.836	3565.571
-54.232	182.371	2650.789	3841.970
-53.217	116.942	2198.478	2654.198
-52.203	42.598	1726.007	1544.404
-51.188	34.729	1538.700	1322.543
-50.173	32.468	1511.475	1283.690
-49.159	53.338	1562.776	1472.364
-48.144	54.703	1579.402	1497.411
-47.130	35.191	1537.273	1324.299
-46.115	31.932	1522.815	1289.432
-45.100	31.721	1519.329	1284.985
-44.086	31.782	1517.226	1283.575
-43.071	31.649	1515.950	1281.534
-42.057	31.627	1514.261	1279.906
-41.042	31.695	1512.527	1278.852
-40.027	31.713	1510.817	1277.479
-39.013	31.617	1509.299	1275.493
-37.998	31.639	1508.158	1274.628
-36.984	31.656	1507.012	1273.719
-35.969	31.737	1505.570	1273.005
-34.954	31.687	1504.085	1271.356
-33.940	31.646	1502.601	1269.773
-32.925	31.713	1500.978	1268.806
-31.911	31.659	1500.440	1267.935
-30.896	31.607	1498.995	1266.311
-29.881	31.726	1497.496	1265.799
-28.867	31.738	1495.891	1264.475
-27.852	31.627	1494.833	1262.779
-26.838	31.621	1493.181	1261.297
-25.823	31.678	1491.430	1260.147
-24.809	31.623	1490.135	1258.636
-23.794	31.627	1488.922	1257.589
-22.779	31.697	1487.319	1256.654
-21.765	31.653	1486.424	1255.555
-20.750	31.650	1485.204	1254.452
-19.736	31.694	1484.076	1253.742
-18.721	31.570	1483.429	1252.320
-17.706	31.745	1481.695	1251.970
-16.692	31.565	1481.081	1250.203
-15.677	31.549	1480.384	1249.455
-14.663	31.665	1478.846	1248.885
-13.648	31.560	1478.148	1247.548
-12.633	31.597	1477.128	1246.879
-11.619	31.568	1476.573	1246.167
-10.604	31.542	1475.625	1245.144
-9.590	31.486	1474.509	1243.782
-8.575	31.659	1473.124	1243.716
-7.560	31.533	1472.381	1242.204
-6.546	31.572	1471.910	1242.011
-5.531	31.584	1470.911	1241.203
-4.517	31.521	1470.084	1240.034
-3.502	31.546	1468.926	1239.178
-2.487	31.585	1467.628	1238.288
-1.473	31.581	1466.654	1237.392
-0.458	31.542	1465.297	1235.938
0.556	29.194	1456.252	1226.383
1.571	26.888	1430.512	1189.494
2.586	24.043	1370.612	1121.689
3.600	22.769	1289.148	1047.373
4.615	21.215	1244.397	1002.014
5.629	18.521	1188.280	941.961
6.644	9.608	1102.438	828.205
7.659	1.726	1059.734	756.988
8.673	0.237	1053.847	745.351
9.688	0.023	1050.493	741.856
10.702	0.036	1048.373	740.359
11.717	0.074	1046.784	739.360
12.731	3.456	1051.717	759.456
13.746	12.748	1064.606	814.846
14.761	19.466	1073.043	854.615
15.775	21.010	1074.237	863.140
16.790	21.219	1073.766	863.720
17.804	21.063	1073.178	862.398
18.819	20.808	1072.501	860.517
19.834	20.941	1071.576	860.357
20.848	21.024	1071.315	860.482
21.863	21.122	1071.093	860.710
22.877	20.993	1070.584	859.586
23.892	21.012	1069.586	858.802
24.907	20.764	1069.457	857.402
25.921	20.916	1068.376	857.207
26.936	20.991	1067.599	856.878
27.950	20.919	1066.326	855.426
28.965	20.928	1065.160	854.461
29.980	20.901	1063.428	852.865
30.994	20.770	1062.250	851.203
32.009	21.087	1061.082	851.739
33.023	21.065	1060.351	850.969
34.038	20.948	1059.354	849.525
35.053	20.876	1058.551	848.454
36.067	21.057	1058.042	848.851
37.082	20.981	1057.333	847.836
38.096	20.905	1056.797	846.963
39.111	21.271	1055.880	847.929
40.126	21.408	1054.568	847.467
41.140	21.147	1053.519	845.286
42.155	20.962	1052.016	843.109
43.169	20.699	1050.389	840.460
44.184	20.626	1049.537	839.351
45.199	20.755	1048.325	838.933
46.213	20.622	1047.043	837.191
47.228	20.581	1046.840	836.756
48.242	20.750	1046.124	836.924
49.257	20.898	1045.065	836.713
50.271	20.861	1044.683	836.155
51.286	20.899	1043.611	835.404
52.301	21.055	1042.865	835.481
53.315	21.135	1042.187	835.248
54.330	21.065	1041.531	834.311
55.344	20.891	1040.632	832.690
56.359	21.008	1039.821	832.525
57.374	21.034	1038.755	831.720
58.388	20.768	1038.119	829.868
59.403	20.920	1036.801	829.464
60.417	20.657	1036.801	828.141
61.432	20.660	1035.612	827.130
62.447	20.587	1034.854	826.109
63.461	20.698	1034.357	826.161
64.476	20.919	1033.395	826.371
65.490	20.814	1032.209	824.850
66.505	20.741	1031.273	823.683
67.520	20.682	1030.800	822.957
68.534	20.776	1030.259	822.896
69.549	20.602	1028.924	820.934
70.563	20.394	1027.358	818.631
71.578	20.224	1027.201	817.635
72.593	20.407	1026.105	817.551
73.607	20.235	1025.139	815.901
74.622	20.220	1024.148	814.971
75.636	20.542	1023.287	815.724
76.651	20.719	1022.544	815.887
77.666	20.528	1021.677	814.230
78.680	20.355	1020.921	812.743
79.695	20.495	1020.034	812.620
80.709	20.531	1019.651	812.414
81.724	20.631	1019.187	812.439
82.739	20.531	1018.026	810.976
83.753	20.658	1016.753	810.481
84.768	20.969	1016.562	811.703
85.782	21.170	1016.294	812.355
86.797	21.279	1015.161	811.885
87.812	21.235	1014.034	810.707
88.826	21.070	1013.057	809.086
89.841	21.073	1012.734	808.771
90.855	21.222	1011.654	808.528
91.870	21.107	1011.457	807.769
92.884	21.264	1010.103	807.341
93.899	21.155	1009.173	806.021
94.914	21.006	1008.251	804.525
95.928	21.151	1007.758	804.731
96.943	21.172	1006.976	804.133
97.957	20.838	1005.681	801.491
98.972	20.734	1004.169	799.737
99.987	20.470	1003.760	798.125
101.001	20.624	1003.124	798.257
102.016	20.889	1002.299	798.744
103.030	21.006	1001.151	798.296
104.045	20.878	1000.161	796.851
105.060	20.696	998.994	795.020
106.074	20.644	997.844	793.796
107.089	20.674	997.009	793.199
108.103	20.948	996.901	794.292
109.118	21.203	995.583	794.330
110.133	20.808	994.499	791.600
111.147	20.817	993.657	790.900
112.162	20.577	992.464	788.792
113.176	20.439	991.518	787.346
114.191	20.630	990.533	787.357
115.206	20.627	989.799	786.694
116.220	20.368	988.389	784.333
117.235	20.186	988.105	783.213
118.249	20.504	986.725	783.486
119.264	20.371	985.975	782.221
120.279	20.265	985.173	781.037
121.293	20.232	984.422	780.227
122.308	20.568	983.455	780.900
123.322	20.362	983.104	779.627
124.337	20.371	981.701	778.486
125.352	20.453	980.280	777.658
126.366	19.898	978.687	773.844
127.381	19.680	977.098	771.545
128.395	20.201	976.860	773.613
129.410	20.893	976.442	776.302
130.424	20.969	975.904	776.140
131.439	20.951	975.036	775.300
132.454	20.834	974.166	774.021
133.468	20.889	973.032	773.298
134.483	20.833	972.142	772.271
135.497	20.953	971.376	772.130
136.512	21.162	970.567	772.341
137.527	21.244	970.271	772.401
138.541	21.097	969.160	770.799
139.556	21.138	968.708	770.549
140.570	21.042	967.589	769.169
141.585	21.265	966.054	768.864
142.600	21.188	966.099	768.494
143.614	21.127	964.902	767.203
144.629	21.255	964.331	767.242
145.643	21.467	963.805	767.689
146.658	21.310	962.503	765.895
147.673	21.174	961.305	764.279
148.687	21.015	960.166	762.611
149.702	21.043	959.338	762.006
150.716	20.907	958.324	760.540
151.731	20.887	957.080	759.399
152.746	20.922	956.610	759.113
153.760	21.227	955.361	759.382
154.775	21.283	955.106	759.351
155.789	21.359	954.269	758.949
156.804	21.390	953.353	758.290
157.819	21.253	952.478	756.934
158.833	21.150	952.037	756.071
159.848	21.387	951.113	756.295
160.862	21.437	950.265	755.770
161.877	21.305	948.929	754.068
162.892	21.239	948.317	753.231
163.906	21.388	947.731	753.341
164.921	21.323	947.116	752.507
165.935	21.316	945.658	751.251
166.950	21.300	944.638	750.306
167.964	21.334	943.742	749.674
168.979	21.306	942.571	748.556
169.994	21.296	941.482	747.584
171.008	21.075	940.986	746.180
172.023	21.235	939.981	745.999
173.037	21.367	939.113	745.807
174.052	21.246	937.928	744.283
175.067	20.891	937.092	742.045
176.081	20.983	936.173	741.643
177.096	21.161	934.815	741.258
178.110	21.072	934.395	740.480
179.125	20.797	933.526	738.558
180.140	20.668	931.955	736.704
181.154	20.668	931.756	736.482
182.169	20.839	931.129	736.644
183.183	21.009	931.210	737.363
184.198	21.256	930.589	737.851
185.213	21.285	929.896	737.356
186.227	21.158	928.895	735.962
187.242	21.231	928.735	736.078
188.256	21.309	927.797	735.600
189.271	21.379	927.008	735.202
190.286	21.460	926.316	734.927
191.300	21.266	925.692	733.554
192.315	20.707	924.304	730.044
193.329	20.136	922.461	726.134
194.344	19.632	921.835	723.466
195.359	20.168	921.796	725.617
196.373	20.968	922.161	729.187
197.388	21.321	921.633	730.179
198.402	21.023	921.130	728.471
199.417	21.184	920.082	728.252
200.432	21.188	919.902	728.059
201.446	20.870	919.419	726.288
202.461	20.720	918.393	724.789
203.475	20.830	917.986	724.859
204.490	20.380	916.095	721.434
205.504	19.298	913.980	715.218
206.519	19.714	914.038	716.926
207.534	20.665	914.451	721.128
208.548	20.673	913.842	720.620
209.563	21.068	913.766	722.129
210.577	21.059	913.093	721.497
211.592	20.827	912.151	719.729
212.607	21.180	912.349	721.280
213.621	21.477	911.212	721.545
214.636	21.407	910.332	720.496
215.650	21.434	909.912	720.212
216.665	21.256	909.606	719.171
217.680	21.277	909.207	718.881
218.694	21.496	908.237	718.947
219.709	21.148	907.304	716.718
220.723	20.786	906.474	714.515
221.738	20.893	906.026	714.538
222.753	21.146	905.668	715.226
223.767	21.173	904.825	714.609
224.782	21.211	904.022	714.067
225.796	21.441	902.940	714.089
226.811	21.677	902.011	714.252
227.826	21.138	901.616	711.679
228.840	20.318	900.117	707.095
229.855	20.367	899.344	706.625
230.869	20.564	898.906	707.018
231.884	20.102	898.105	704.450
232.899	20.225	897.827	704.668
233.913	21.025	898.191	708.139
234.928	21.121	897.699	708.080
235.942	21.087	897.116	707.420
236.957	21.181	895.974	706.837
237.972	20.816	895.277	704.746
238.986	20.711	894.344	703.527
240.001	20.794	894.010	703.538
241.015	20.998	893.354	703.783
242.030	20.921	892.697	702.892
243.045	21.029	892.472	703.088
244.059	21.125	891.591	702.719
245.074	21.347	891.172	703.219
246.088	21.303	890.416	702.384
247.103	21.039	889.095	700.217
248.117	20.921	888.774	699.431
249.132	21.459	888.833	701.574
250.147	21.840	888.441	702.731
251.161	21.846	888.193	702.494
252.176	21.937	887.228	702.036
253.190	22.000	886.196	701.407
254.205	22.066	886.078	701.517
255.220	22.235	885.606	701.753
256.234	22.092	885.112	700.731
257.249	22.092	884.427	700.125
258.263	21.963	883.887	699.123
259.278	21.921	883.288	698.420
260.293	22.042	882.754	698.416
261.307	22.227	881.762	698.304
262.322	22.018	881.365	697.099
263.336	21.862	880.583	695.799
264.351	21.423	879.161	692.877
265.366	20.154	877.306	686.332
266.380	19.904	876.537	684.681
267.395	20.820	876.607	688.298
268.409	21.510	876.862	691.163
269.424	21.656	876.005	691.001
270.439	21.721	875.595	690.874
271.453	21.920	874.638	690.840
272.468	21.844	874.659	690.499
273.482	21.872	874.103	690.108
274.497	22.071	873.359	690.243
275.512	21.798	872.426	688.370
276.526	21.313	871.028	685.305
277.541	21.594	870.888	686.238
278.555	22.008	870.539	687.524
279.570	21.788	869.579	685.842
280.585	21.423	869.312	684.145
281.599	21.723	868.119	684.316
282.614	21.804	867.955	684.441
283.628	21.350	866.566	681.518
284.643	20.947	866.361	679.725
285.657	21.461	866.184	681.528
286.672	21.340	865.314	680.315
287.687	20.668	864.527	677.021
288.701	21.083	864.570	678.606
289.716	21.555	864.009	679.943
290.730	21.126	862.742	677.220
291.745	21.003	862.532	676.517
292.760	20.917	861.387	675.226
293.774	20.750	860.975	674.198
294.789	21.718	861.365	678.192
295.803	22.451	861.288	680.907
296.818	22.419	861.120	680.589
297.833	22.534	860.441	680.438
298.847	22.336	858.989	678.466
299.862	21.966	857.756	676.007
300.876	22.101	857.414	676.199
301.891	22.278	857.776	677.104
302.906	22.380	856.893	676.740
303.920	22.024	855.527	674.233
304.935	22.008	855.080	673.761
305.949	22.285	854.796	674.541
306.964	22.472	854.217	674.739
307.979	22.054	853.863	672.801
308.993	22.126	853.110	672.421
310.008	22.374	853.095	673.301
311.022	22.533	852.882	673.682
312.037	22.417	852.059	672.529
313.052	22.059	851.665	670.788
314.066	22.014	850.662	669.769
315.081	21.470	848.683	666.079
316.095	20.671	847.844	662.324
317.110	21.293	848.006	664.758
318.125	21.931	848.458	667.481
319.139	21.534	847.586	665.227
320.154	20.550	845.186	659.553
321.168	20.106	844.390	657.192
322.183	20.735	845.149	660.110
323.197	21.679	845.268	663.723
324.212	21.841	845.039	664.098
325.227	22.015	844.285	664.105
326.241	22.168	843.962	664.371
327.256	22.111	843.148	663.454
328.270	21.962	843.097	662.793
329.285	21.922	842.090	661.791
330.300	21.779	841.314	660.585
331.314	21.526	840.444	658.893
332.329	21.522	840.311	658.712
333.343	21.980	839.758	659.945
334.358	22.329	839.117	660.692
335.373	22.279	838.651	660.081
336.387	22.293	837.895	659.477
337.402	22.559	837.881	660.406
338.416	22.638	837.433	660.292
339.431	22.614	836.862	659.694
340.446	22.626	836.385	659.301
341.460	22.742	836.070	659.429
342.475	22.749	835.507	658.953
343.489	22.489	834.380	657.036
344.504	22.512	833.937	656.714
345.519	22.688	833.497	656.968
346.533	23.044	833.430	658.182
347.548	23.105	833.370	658.301
348.562	23.159	832.308	657.606
349.577	23.107	831.468	656.691
350.592	22.993	831.231	656.023
351.606	22.972	830.635	655.417
352.621	23.014	830.163	655.141
353.635	23.002	829.720	654.691
354.650	22.744	829.267	653.318
355.665	22.599	828.022	651.745
356.679	21.533	826.386	646.465
357.694	21.368	826.142	645.606
358.708	21.923	826.062	647.537
359.723	21.944	825.342	646.990
360.738	22.175	825.350	647.791
361.752	22.702	824.920	649.336
362.767	22.720	824.747	649.210
363.781	23.014	824.619	650.133
364.796	23.122	824.440	650.330
365.810	23.254	823.727	650.195
366.825	23.385	823.719	650.612
367.840	23.476	823.006	650.325
368.854	23.191	822.667	648.956
369.869	22.930	821.389	646.935
370.883	22.663	820.689	645.351
371.898	22.809	820.165	645.414
372.913	22.764	819.514	644.680
373.927	22.652	818.680	643.558
374.942	22.810	818.342	643.812
375.956	22.911	817.714	643.630
376.971	23.021	817.517	643.817
377.986	23.272	816.854	644.152
379.000	23.382	816.556	644.260
380.015	23.351	816.156	643.775
381.029	23.071	815.831	642.443
382.044	23.178	814.953	642.083
383.059	23.357	814.327	642.183
384.073	23.298	813.985	641.642
385.088	23.281	813.356	641.028
386.102	23.384	812.740	640.861
387.117	23.288	811.882	639.777
388.132	23.155	811.123	638.643
389.146	22.984	810.457	637.447
390.161	22.289	809.762	634.337
391.175	22.402	809.710	634.649
392.190	22.859	809.643	636.187
393.205	23.003	809.218	636.317
394.219	22.010	807.118	631.042
395.234	20.374	805.431	623.793
396.248	19.774	804.056	620.521
397.263	20.747	805.233	624.869
398.278	22.558	806.370	632.200
399.292	23.149	806.262	634.177
400.307	22.768	805.554	632.198
401.321	22.639	804.991	631.241
402.336	22.833	804.433	631.442
403.350	23.109	804.599	632.501
404.365	23.494	804.178	633.489
405.380	23.749	804.232	634.388
406.394	23.997	803.832	634.901
407.409	24.113	803.851	635.275
408.423	23.958	802.965	633.964
409.438	23.842	802.430	633.073
410.453	23.941	802.128	633.133
411.467	24.178	801.757	633.627
412.482	23.985	801.206	632.449
413.496	23.766	800.488	631.047
414.511	23.999	800.081	631.499
415.526	24.034	800.001	631.502
416.540	24.114	799.322	631.194
417.555	23.951	799.079	630.369
418.569	23.698	798.148	628.683
419.584	23.605	797.697	627.946
420.599	23.634	796.951	627.405
421.613	154.859	1365.707	1794.993
422.628	134.211	1448.572	1795.090
