DTS Sentinel unit serial number:	SN413079Multiplexer serial number:	ORYXHardware model number:	OX4-SRSoftware version number:	ORYX F/W v4.00 Oryx Data Collector v3.7.2.0data status	okinstallation	princeton_trtdifferential loss correction	single-endedforward channel	channel 3reverse channel	N/Adate	2019/09/10time	23:14:10forward acquisition time	60.00reverse acquisition time	0.00gamma	496.2192k internal	0.2331k external	0.2331temperature offset calibration	0.9919default loss term (dB/km)	0.3790temperature slope calibration	1.0000multiplexer offset coefficient	1.0000multiplexer slope coefficient	1.0000fibre end	0.00T internal ref (°C)	29.89T ext. ref 1 (°C)	-0.30T ext. ref 2 (°C)	23.50length (m)	temperature (°C)	Stokes	anti-Stokes-747.200	-70.004	-0.283	0.109
-746.185	-54.820	-0.303	-0.138
-745.171	-128.130	0.281	-0.041
-744.156	495.303	0.098	0.226
-743.142	-23.838	-0.110	-0.066
-742.127	68.062	0.062	-0.064
-741.112	-200.000	0.108	0.724
-740.098	429.361	-0.065	0.140
-739.083	800.000	-0.058	-0.224
-738.069	26.193	-0.182	0.153
-737.054	-200.000	-0.021	-0.183
-736.039	321.970	0.078	-0.149
-735.025	-51.457	0.172	-0.081
-734.010	-200.000	-0.136	-0.610
-732.996	-24.036	-0.286	-0.172
-731.981	193.502	0.108	-0.164
-730.966	2.922	0.265	0.194
-729.952	-125.455	-0.332	0.051
-728.937	62.541	-0.071	0.072
-727.923	-85.835	-0.176	0.055
-726.908	-200.000	-0.068	-0.303
-725.894	-14.106	0.141	-0.092
-724.879	130.434	0.125	-0.161
-723.864	65.581	0.327	-0.333
-722.850	-200.000	0.022	0.129
-721.835	-70.667	-0.009	0.003
-720.821	-72.731	0.225	-0.083
-719.806	10.339	0.076	0.058
-718.791	-200.000	0.029	-0.252
-717.777	-120.039	-0.080	0.014
-716.762	671.639	-0.121	0.315
-715.748	-76.442	-0.205	0.072
-714.733	-200.000	0.049	-0.225
-713.718	44.382	0.065	-0.060
-712.704	598.343	-0.124	-0.310
-711.689	68.157	-0.257	0.264
-710.675	-108.135	-0.144	0.031
-709.660	-182.559	0.028	-0.001
-708.645	-200.000	-0.026	0.122
-707.631	28.453	0.303	0.258
-706.616	95.833	-0.364	-0.417
-705.602	-200.000	-0.016	-0.240
-704.587	-106.297	-0.165	0.037
-703.572	-45.276	-0.270	0.135
-702.558	-153.137	0.150	-0.011
-701.543	3.227	-0.174	-0.127
-700.529	-162.887	0.072	0.004
-699.514	-20.483	-0.035	-0.022
-698.499	-92.198	-0.250	0.071
-697.485	-91.074	-0.419	0.121
-696.470	203.718	0.117	0.182
-695.456	-200.000	0.006	-0.047
-694.441	-112.248	-0.168	-0.034
-693.426	73.962	0.153	0.162
-692.412	-77.352	-0.151	0.053
-691.397	-9.068	-0.273	0.184
-690.383	-128.269	0.344	0.049
-689.368	-200.000	0.003	0.086
-688.354	-20.731	-0.270	-0.166
-687.339	-200.000	-0.096	0.483
-686.324	-200.000	0.025	-0.122
-685.310	-105.504	0.234	0.053
-684.295	-87.038	-0.108	-0.033
-683.281	800.000	-0.079	0.345
-682.266	704.510	0.109	-0.289
-681.251	5.861	-0.201	0.149
-680.237	-116.437	0.164	0.030
-679.222	204.871	0.083	-0.130
-678.208	56.894	-0.150	-0.147
-677.193	37.079	-0.291	0.258
-676.178	103.734	-0.192	-0.226
-675.164	-172.629	0.261	0.008
-674.149	317.178	0.106	-0.201
-673.135	42.591	-0.181	-0.165
-672.120	105.243	0.154	-0.182
-671.105	-144.857	0.178	0.016
-670.091	526.461	-0.048	-0.113
-669.076	-70.316	0.276	-0.105
-668.062	-2.756	0.254	-0.178
-667.047	91.508	0.093	0.104
-666.032	-200.000	0.073	0.637
-665.018	604.626	-0.089	-0.223
-664.003	800.000	-0.063	-0.195
-662.989	-143.696	0.280	-0.027
-661.974	234.782	-0.128	-0.212
-660.959	800.000	-0.101	-0.315
-659.945	-8.393	-0.329	0.222
-658.930	592.690	0.080	0.197
-657.916	2.497	-0.271	0.197
-656.901	276.298	0.065	0.115
-655.886	166.775	0.061	0.087
-654.872	800.000	0.084	-0.286
-653.857	-200.000	0.020	0.160
-652.843	184.281	-0.105	0.156
-651.828	42.915	0.179	0.164
-650.814	-200.000	0.004	0.177
-649.799	-18.356	0.249	0.156
-648.784	512.152	-0.094	0.219
-647.770	800.000	-0.075	-0.249
-646.755	-200.000	-0.039	0.331
-645.741	-86.357	-0.144	-0.045
-644.726	-78.129	0.170	0.059
-643.711	-108.084	-0.225	-0.049
-642.697	512.722	-0.059	0.139
-641.682	-200.000	-0.049	-0.388
-640.668	800.000	-0.059	0.224
-639.653	34.912	-0.190	0.167
-638.638	-71.090	-0.210	0.079
-637.624	13.034	0.339	0.263
-636.609	56.149	-0.313	-0.305
-635.595	-11.638	0.258	-0.170
-634.580	9.006	0.062	-0.047
-633.565	-200.000	-0.008	-0.188
-632.551	-163.743	0.348	0.016
-631.536	-115.427	0.186	-0.035
-630.522	108.060	-0.093	-0.111
-629.507	234.352	-0.173	-0.286
-628.492	-200.000	-0.008	-0.131
-627.478	-200.000	-0.002	-0.054
-626.463	228.775	-0.066	0.108
-625.449	101.353	-0.086	0.100
-624.434	-7.899	0.089	0.060
-623.419	800.000	0.067	0.219
-622.405	800.000	-0.028	0.114
-621.390	-200.000	0.050	-0.312
-620.376	-200.000	0.038	0.277
-619.361	170.809	-0.142	-0.203
-618.346	639.870	-0.087	-0.221
-617.332	800.000	0.069	-0.234
-616.317	-184.659	-0.280	-0.005
-615.303	800.000	0.038	-0.135
-614.288	81.257	0.044	-0.048
-613.273	480.159	0.118	0.268
-612.259	-200.000	-0.001	-0.261
-611.244	-32.005	-0.178	0.100
-610.230	35.211	-0.135	-0.119
-609.215	-200.000	0.017	-0.117
-608.201	-99.291	-0.256	-0.065
-607.186	599.336	-0.116	0.287
-606.171	415.991	0.250	0.534
-605.157	506.506	0.088	0.203
-604.142	449.788	0.062	0.137
-603.128	-80.277	-0.110	0.037
-602.113	-153.883	-0.183	-0.013
-601.098	800.000	-0.072	0.208
-600.084	-200.000	0.017	0.253
-599.069	800.000	-0.041	0.175
-598.055	-91.039	0.073	-0.021
-597.040	479.040	0.039	-0.089
-596.025	-118.152	-0.175	-0.031
-595.011	-10.586	0.301	-0.199
-593.996	334.929	0.035	-0.068
-592.982	-200.000	0.069	-0.318
-591.967	80.486	-0.112	0.121
-590.952	190.571	0.101	0.152
-589.938	111.364	0.281	-0.339
-588.923	-95.307	-0.197	0.053
-587.909	54.600	0.086	-0.083
-586.894	-62.416	-0.154	0.064
-585.879	-81.747	-0.123	0.040
-584.865	-29.069	0.178	-0.102
-583.850	-58.189	-0.166	0.072
-582.836	-112.346	0.203	0.041
-581.821	222.789	0.067	0.108
-580.806	-200.000	0.029	-0.354
-579.792	-57.853	-0.194	0.085
-578.777	-44.212	-0.332	-0.166
-577.763	-200.000	0.023	0.375
-576.748	-116.450	-0.184	0.034
-575.733	64.773	0.158	-0.159
-574.719	-200.000	0.082	-0.421
-573.704	800.000	-0.042	0.133
-572.690	-84.505	0.249	-0.078
-571.675	800.000	-0.126	-0.438
-570.661	314.591	-0.199	0.374
-569.646	-27.644	-0.187	-0.109
-568.631	-200.000	0.000	0.018
-567.617	-200.000	-0.020	-0.112
-566.602	-89.979	-0.249	0.073
-565.588	-29.143	-0.113	0.065
-564.573	-96.240	-0.243	-0.064
-563.558	800.000	-0.009	0.031
-562.544	-32.818	-0.095	-0.053
-561.529	175.739	0.104	0.151
-560.515	78.053	-0.159	-0.170
-559.500	62.958	0.301	0.302
-558.485	249.717	0.073	0.123
-557.471	-56.426	0.176	-0.078
-556.456	231.653	-0.053	-0.086
-555.442	800.000	0.021	0.061
-554.427	136.451	-0.055	-0.071
-553.412	-14.855	0.135	0.087
-552.398	61.191	0.124	-0.123
-551.383	8.134	0.331	0.248
-550.369	-96.427	-0.182	0.048
-549.354	800.000	0.105	0.323
-548.339	-200.000	0.068	0.304
-547.325	75.358	0.118	0.124
-546.310	-97.306	-0.227	-0.059
-545.296	67.235	-0.149	0.151
-544.281	-134.814	0.355	-0.043
-543.266	-200.000	0.014	0.204
-542.252	211.608	-0.251	-0.395
-541.237	54.103	0.129	-0.124
-540.223	-200.000	0.022	-0.178
-539.208	-200.000	0.031	-0.356
-538.193	235.694	0.172	0.283
-537.179	-200.000	-0.024	0.128
-536.164	800.000	0.059	-0.213
-535.150	773.120	0.010	-0.028
-534.135	-84.859	0.080	0.025
-533.121	-27.427	0.163	0.095
-532.106	-200.000	-0.019	0.308
-531.091	800.000	0.044	-0.122
-530.077	800.000	0.056	0.156
-529.062	-200.000	0.015	-0.118
-528.048	280.953	-0.021	0.038
-527.033	97.321	0.124	-0.142
-526.018	102.320	0.133	-0.156
-525.004	-200.000	0.047	-0.205
-523.989	-68.514	0.104	0.040
-522.975	-30.928	0.059	-0.033
-521.960	263.580	0.138	0.240
-520.945	-100.038	0.108	0.027
-519.931	-133.210	-0.332	0.042
-518.916	-38.041	-0.262	-0.139
-517.902	-72.270	0.169	-0.062
-516.887	800.000	-0.043	-0.137
-515.872	-200.000	0.047	0.208
-514.858	-200.000	-0.015	-0.301
-513.843	-152.731	0.453	0.032
-512.829	-42.001	0.271	0.138
-511.814	8.587	0.184	0.138
-510.799	249.937	0.096	0.163
-509.785	67.191	0.181	-0.184
-508.770	-200.000	0.001	0.049
-507.756	73.899	-0.239	-0.250
-506.741	-157.351	-0.290	0.017
-505.726	-29.217	-0.250	-0.143
-504.712	54.952	-0.221	0.213
-503.697	87.035	0.167	0.184
-502.683	-15.376	-0.268	0.171
-501.668	-110.530	-0.305	0.063
-500.653	24.909	0.213	0.176
-499.639	182.106	-0.258	-0.378
-498.624	-8.159	-0.259	-0.174
-497.610	-200.000	-0.011	0.224
-496.595	-200.000	-0.034	0.228
-495.581	-200.000	-0.011	-0.132
-494.566	800.000	0.038	0.130
-493.551	-200.000	0.039	-0.208
-492.537	612.175	0.043	-0.106
-491.522	-83.429	0.135	-0.043
-490.508	-85.882	0.139	-0.043
-489.493	256.886	0.084	0.144
-488.478	138.736	-0.164	0.215
-487.464	800.000	0.028	-0.089
-486.449	315.917	-0.157	0.295
-485.435	-122.554	-0.262	0.042
-484.420	-3.129	0.065	-0.045
-483.405	-7.699	-0.050	-0.034
-482.391	-200.000	-0.016	-0.294
-481.376	162.827	0.196	-0.275
-480.362	-21.496	0.173	-0.105
-479.347	52.007	-0.213	0.202
-478.332	266.831	-0.015	-0.027
-477.318	631.501	-0.077	-0.193
-476.303	-109.268	-0.341	0.072
-475.289	-98.429	0.240	-0.061
-474.274	51.657	0.155	0.147
-473.259	-122.666	0.305	-0.049
-472.245	-67.926	0.203	-0.079
-471.230	-161.128	0.331	-0.017
-470.216	-91.996	-0.147	-0.041
-469.201	734.041	-0.076	0.204
-468.186	-139.259	-0.092	0.010
-467.172	-54.645	-0.268	-0.121
-466.157	800.000	-0.129	0.365
-465.143	800.000	0.074	0.277
-464.128	-43.510	-0.172	0.087
-463.113	713.290	0.047	0.123
-462.099	-16.429	0.248	-0.157
-461.084	-9.867	-0.246	-0.163
-460.070	-42.843	0.133	0.067
-459.055	800.000	0.095	0.288
-458.040	-35.859	-0.156	-0.084
-457.026	282.805	-0.036	-0.064
-456.011	-73.370	-0.135	-0.049
-454.997	15.189	0.203	0.158
-453.982	-42.306	-0.053	-0.027
-452.968	800.000	0.040	-0.131
-451.953	319.581	-0.088	-0.166
-450.938	142.182	0.164	0.216
-449.924	5.141	-0.322	-0.236
-448.909	36.099	0.329	-0.288
-447.895	36.845	0.015	-0.014
-446.880	30.166	-0.104	-0.089
-445.865	409.215	0.146	0.307
-444.851	41.462	0.366	0.329
-443.836	786.438	0.119	0.324
-442.822	-100.651	0.150	0.037
-441.807	289.046	-0.105	0.189
-440.792	-109.471	-0.188	0.040
-439.778	333.035	-0.064	-0.123
-438.763	800.000	0.045	-0.123
-437.749	800.000	-0.034	-0.133
-436.734	130.643	-0.312	-0.398
-435.719	-81.560	0.327	-0.107
-434.705	-82.826	-0.209	0.067
-433.690	-2.166	-0.267	0.186
-432.676	-200.000	0.012	-0.182
-431.661	-168.450	-0.201	0.008
-430.646	28.718	-0.082	-0.069
-429.632	-100.259	-0.479	-0.118
-428.617	-1.880	0.141	-0.099
-427.603	-200.000	-0.050	-0.266
-426.588	-126.056	-0.253	-0.038
-425.573	800.000	-0.082	-0.275
-424.559	108.645	-0.476	-0.565
-423.544	32.692	0.190	0.163
-422.530	-26.670	-0.223	0.130
-421.515	136.238	0.135	0.174
-420.500	-200.000	0.021	0.568
-419.486	-200.000	0.002	-0.034
-418.471	12.647	0.190	-0.146
-417.457	251.921	-0.137	-0.232
-416.442	-136.081	0.291	-0.034
-415.428	279.214	-0.173	-0.307
-414.413	148.406	-0.125	-0.168
-413.398	-200.000	0.038	0.325
-412.384	-59.934	0.184	-0.078
-411.369	-196.134	-0.137	-0.001
-410.355	95.103	0.125	0.141
-409.340	-56.809	0.112	-0.049
-408.325	800.000	-0.046	0.199
-407.311	-48.863	-0.172	0.082
-406.296	-112.250	-0.213	-0.042
-405.282	29.350	-0.120	-0.101
-404.267	800.000	0.124	0.383
-403.252	-200.000	-0.011	0.071
-402.238	0.598	0.090	0.064
-401.223	767.933	-0.060	0.162
-400.209	-200.000	0.033	0.211
-399.194	800.000	-0.079	-0.236
-398.179	-200.000	-0.028	0.449
-397.165	-123.828	0.169	-0.026
-396.150	763.840	-0.043	-0.116
-395.136	363.650	-0.053	0.105
-394.121	-200.000	-0.004	0.120
-393.106	142.486	-0.208	0.274
-392.092	-200.000	-0.017	0.150
-391.077	-60.894	-0.083	-0.035
-390.063	-42.731	-0.342	0.172
-389.048	-123.013	-0.261	0.042
-388.033	81.466	0.122	0.131
-387.019	80.961	0.218	-0.234
-386.004	64.975	0.333	0.333
-384.990	-58.289	0.098	0.042
-383.975	-102.090	-0.223	-0.053
-382.960	-138.921	0.309	-0.033
-381.946	-200.000	-0.057	0.298
-380.931	-76.304	0.112	0.039
-379.917	-200.000	-0.017	0.091
-378.902	25.131	0.118	-0.097
-377.888	82.821	-0.120	-0.130
-376.873	29.607	0.217	-0.184
-375.858	-200.000	0.016	-0.119
-374.844	-30.064	0.091	-0.051
-373.829	-139.178	-0.146	-0.016
-372.815	0.823	0.110	-0.078
-371.800	-71.253	0.137	0.051
-370.785	11.054	-0.108	0.082
-369.771	-200.000	-0.026	-0.224
-368.756	-11.414	0.260	-0.170
-367.742	-106.977	-0.278	0.061
-366.727	-50.322	-0.336	0.158
-365.712	-105.805	0.375	-0.084
-364.698	-200.000	0.045	-0.208
-363.683	-102.849	-0.238	0.056
-362.669	104.624	0.178	0.208
-361.654	-6.268	-0.213	-0.144
-360.639	800.000	0.052	0.204
-359.625	132.738	0.123	-0.158
-358.610	77.049	0.066	0.069
-357.596	-20.326	-0.179	-0.109
-356.581	-135.421	-0.437	-0.052
-355.566	-127.485	0.524	-0.076
-354.552	-17.047	0.161	0.100
-353.537	97.098	0.108	0.123
-352.523	-147.408	-0.124	-0.010
-351.508	800.000	-0.010	0.038
-350.493	800.000	0.069	-0.209
-349.479	800.000	0.086	0.319
-348.464	76.708	0.146	0.154
-347.450	254.384	0.088	-0.148
-346.435	34.733	0.154	0.133
-345.420	-3.465	-0.213	-0.147
-344.406	-130.304	-0.136	-0.018
-343.391	-200.000	0.012	-0.221
-342.377	1.803	0.255	-0.182
-341.362	-70.417	0.354	-0.133
-340.348	-47.097	0.048	0.023
-339.333	-76.658	-0.208	-0.072
-338.318	162.047	-0.058	0.080
-337.304	693.041	-0.022	-0.056
-336.289	800.000	0.044	0.144
-335.275	298.799	-0.103	-0.187
-334.260	-44.512	0.034	-0.017
-333.245	-200.000	0.074	-0.445
-332.231	-67.745	0.220	-0.085
-331.216	-142.980	0.232	-0.022
-330.202	285.257	-0.105	-0.187
-329.187	288.717	0.057	0.103
-328.172	-32.672	-0.244	0.134
-327.158	-13.696	-0.240	0.154
-326.143	-136.029	-0.510	-0.059
-325.129	252.724	-0.053	0.090
-324.114	374.835	0.040	0.082
-323.099	32.270	-0.096	-0.082
-322.085	-22.545	-0.350	0.210
-321.070	-200.000	-0.010	-0.043
-320.056	-200.000	-0.003	-0.214
-319.041	226.342	-0.106	-0.170
-318.026	225.291	-0.151	-0.243
-317.012	-142.817	-0.104	0.010
-315.997	-35.099	-0.179	0.097
-314.983	-121.730	0.103	0.017
-313.968	65.941	0.421	-0.422
-312.953	-64.854	-0.290	-0.116
-311.939	-68.214	-0.236	-0.091
-310.924	128.291	-0.079	0.099
-309.910	-184.480	0.079	0.001
-308.895	-34.032	-0.107	-0.058
-307.880	-200.000	0.005	-0.098
-306.866	-72.958	-0.310	-0.113
-305.851	-36.471	0.180	0.096
-304.837	-117.164	0.218	-0.039
-303.822	305.458	0.056	-0.102
-302.807	29.358	-0.169	0.142
-301.793	84.715	-0.122	0.132
-300.778	122.549	-0.127	-0.157
-299.764	-38.573	0.164	0.086
-298.749	520.177	-0.108	0.250
-297.735	-99.139	0.102	-0.026
-296.720	-105.733	-0.192	0.043
-295.705	-33.586	-0.008	-0.004
-294.691	-200.000	-0.045	0.239
-293.676	-200.000	0.018	0.087
-292.662	800.000	0.065	-0.267
-291.647	800.000	0.040	-0.137
-290.632	-25.256	-0.232	0.136
-289.618	86.702	-0.258	-0.281
-288.603	-122.047	0.199	-0.032
-287.589	278.462	0.117	-0.207
-286.574	-63.877	0.415	-0.168
-285.559	400.584	0.118	0.244
-284.545	13.315	0.114	-0.087
-283.530	177.564	-0.028	-0.040
-282.516	106.963	0.080	0.094
-281.501	-96.510	-0.153	0.040
-280.486	667.597	0.068	-0.175
-279.472	107.644	0.304	-0.358
-278.457	-80.739	0.144	-0.047
-277.443	42.840	0.460	-0.414
-276.428	13.757	-0.063	-0.048
-275.413	-35.795	-0.021	-0.011
-274.399	-200.000	-0.058	-0.257
-273.384	800.000	0.051	0.184
-272.370	-14.372	0.190	0.121
-271.355	-200.000	0.028	-0.125
-270.340	-73.456	0.517	0.187
-269.326	570.760	0.130	0.313
-268.311	-18.556	-0.140	-0.086
-267.297	-4.948	0.112	-0.076
-266.282	-151.550	-0.548	-0.040
-265.267	-200.000	-0.051	0.239
-264.253	203.991	0.148	-0.226
-263.238	-200.000	0.006	-0.265
-262.224	-81.347	0.096	0.031
-261.209	800.000	-0.044	-0.146
-260.195	123.706	-0.151	0.188
-259.180	25.478	0.197	-0.162
-258.165	295.791	0.014	-0.025
-257.151	20.362	0.038	-0.030
-256.136	-200.000	-0.055	0.368
-255.122	-200.000	-0.007	0.135
-254.107	37.069	-0.134	-0.117
-253.092	0.640	-0.197	0.139
-252.078	-60.945	-0.155	-0.065
-251.063	-200.000	-0.021	0.320
-250.049	279.090	-0.158	0.278
-249.034	-200.000	-0.034	-0.151
-248.019	44.982	0.093	0.084
-247.005	800.000	0.052	-0.176
-245.990	-121.225	-0.273	-0.045
-244.976	-50.410	0.332	-0.155
-243.961	-6.350	0.084	-0.056
-242.946	69.575	0.282	-0.287
-241.932	-27.526	0.037	-0.021
-240.917	178.276	0.088	0.127
-239.903	800.000	-0.108	0.355
-238.888	-172.324	0.364	-0.011
-237.873	55.619	0.140	0.134
-236.859	-200.000	-0.029	0.139
-235.844	-185.438	0.326	-0.005
-234.830	135.718	-0.207	0.266
-233.815	800.000	0.008	-0.032
-232.800	-200.000	0.022	0.240
-231.786	645.164	-0.192	0.484
-230.771	-153.235	0.094	0.006
-229.757	-200.000	-0.045	0.215
-228.742	461.244	0.109	-0.240
-227.727	465.222	0.114	-0.251
-226.713	-5.075	0.164	-0.111
-225.698	-131.303	-0.123	-0.016
-224.684	-200.000	0.014	0.096
-223.669	-200.000	-0.008	0.098
-222.655	-5.808	-0.248	-0.167
-221.640	16.155	0.132	0.102
-220.625	80.558	-0.187	0.198
-219.611	-200.000	-0.040	-0.282
-218.596	46.647	-0.159	0.145
-217.582	-102.496	0.148	0.035
-216.567	-147.549	0.279	-0.023
-215.552	-200.000	0.039	0.248
-214.538	-120.797	0.176	0.029
-213.523	391.898	0.061	-0.125
-212.509	800.000	0.055	-0.167
-211.494	800.000	-0.059	-0.187
-210.479	800.000	0.094	-0.329
-209.465	-155.908	0.229	0.014
-208.450	34.878	0.126	-0.108
-207.436	38.442	0.070	-0.062
-206.421	320.590	-0.088	-0.164
-205.406	71.294	0.156	-0.159
-204.392	-49.604	-0.067	0.031
-203.377	13.552	0.064	0.049
-202.363	64.513	0.250	-0.248
-201.348	-200.000	0.008	0.264
-200.333	-200.000	-0.044	0.439
-199.319	9.893	-0.167	0.125
-198.304	-13.581	-0.120	0.077
-197.290	-136.520	-0.268	0.031
-196.275	25.148	0.040	-0.033
-195.260	53.427	-0.177	-0.167
-194.246	604.686	-0.122	-0.300
-193.231	800.000	0.063	0.216
-192.217	136.705	-0.037	0.048
-191.202	-200.000	0.033	-0.299
-190.187	-131.508	-0.275	-0.036
-189.173	-63.332	0.169	0.069
-188.158	800.000	-0.019	0.072
-187.144	7.705	0.132	-0.098
-186.129	-200.000	0.006	-0.050
-185.114	623.110	-0.125	0.309
-184.100	-31.198	0.093	0.052
-183.085	-200.000	0.026	-0.241
-182.071	-13.971	0.102	0.065
-181.056	-55.177	0.270	-0.120
-180.042	594.809	0.077	-0.187
-179.027	-167.700	-0.320	-0.012
-178.012	513.059	0.201	0.460
-176.998	3.024	0.058	0.042
-175.983	69.908	0.121	-0.123
-174.969	800.000	0.124	0.357
-173.954	20.811	-0.071	0.056
-172.939	14.699	-0.097	0.074
-171.925	-47.719	-0.108	-0.052
-170.910	-17.727	-0.415	-0.256
-169.896	90.076	0.109	-0.120
-168.881	-105.350	0.253	0.057
-167.866	220.257	-0.042	0.067
-166.852	-95.348	0.200	0.053
-165.837	-200.000	0.007	-0.239
-164.823	-82.159	0.087	-0.028
-163.808	-154.821	-0.078	-0.005
-162.793	-76.094	0.031	0.011
-161.779	-200.000	-0.107	-0.491
-160.764	-71.566	0.131	-0.048
-159.750	219.144	0.070	0.111
-158.735	-200.000	-0.038	-0.295
-157.720	-200.000	0.002	0.044
-156.706	-200.000	-0.029	0.203
-155.691	-43.091	-0.148	0.074
-154.677	-200.000	0.009	0.408
-153.662	17.236	-0.251	0.196
-152.647	800.000	0.086	0.354
-151.633	-35.511	-0.035	0.019
-150.618	299.712	-0.092	-0.167
-149.604	-64.001	-0.370	0.149
-148.589	-42.402	-0.241	0.121
-147.574	-144.619	-0.491	-0.045
-146.560	800.000	0.031	0.127
-145.545	136.241	-0.109	0.140
-144.531	-20.840	0.134	0.081
-143.516	-169.721	-0.386	-0.014
-142.502	-119.338	0.307	0.052
-141.487	43.592	0.074	-0.067
-140.472	535.271	0.073	-0.170
-139.458	56.060	0.124	-0.119
-138.443	-84.428	-0.239	0.074
-137.429	800.000	-0.029	0.107
-136.414	-8.056	-0.098	-0.065
-135.399	-135.206	0.187	-0.022
-134.385	-200.000	-0.003	0.024
-133.370	280.880	0.143	-0.252
-132.356	-91.922	-0.159	-0.044
-131.341	-187.823	0.145	0.002
-130.326	358.910	-0.043	-0.085
-129.312	-62.677	0.184	-0.075
-128.297	-143.354	-0.126	0.012
-127.283	-200.000	0.012	0.095
-126.268	-168.506	0.202	-0.008
-125.253	115.569	-0.172	0.206
-124.239	-200.000	-0.007	-0.165
-123.224	-139.178	0.096	0.010
-122.210	209.542	0.084	0.129
-121.195	-200.000	0.012	-0.232
-120.180	11.523	0.290	-0.219
-119.166	393.910	-0.165	0.338
-118.151	800.000	-0.101	0.343
-117.137	250.694	0.116	0.194
-116.122	94.056	0.013	0.015
-115.107	-200.000	-0.085	-0.397
-114.093	148.755	-0.186	0.247
-113.078	-134.766	0.175	0.021
-112.064	292.443	0.218	-0.390
-111.049	-122.493	-0.052	0.008
-110.034	84.789	-0.239	0.257
-109.020	800.000	-0.110	0.354
-108.005	-179.859	-0.360	-0.008
-106.991	82.211	-0.091	0.097
-105.976	373.749	0.062	-0.124
-104.962	-98.148	-0.141	0.036
-103.947	38.679	0.099	-0.086
-102.932	-32.568	-0.283	0.154
-101.918	-200.000	-0.080	0.418
-100.903	35.341	0.235	0.202
-99.889	35.997	-0.108	-0.093
-98.874	-200.000	-0.024	0.235
-97.859	-62.336	0.202	0.082
-96.845	-84.634	-0.166	-0.051
-95.830	-83.672	0.174	-0.054
-94.816	-68.569	-0.165	-0.063
-93.801	383.236	-0.088	0.177
-92.786	88.836	0.027	-0.029
-91.772	78.493	0.096	0.100
-90.757	12.309	0.080	0.060
-89.743	-80.231	0.256	0.084
-88.728	113.094	-0.116	-0.138
-87.713	-133.267	-0.102	0.013
-86.699	14.868	0.222	0.170
-85.684	-200.000	-0.015	0.233
-84.670	207.374	0.074	0.114
-83.655	-200.000	0.022	0.338
-82.640	-200.000	0.007	0.048
-81.626	287.843	0.084	-0.149
-80.611	172.675	0.111	0.156
-79.597	-2.296	0.094	-0.065
-78.582	-60.980	0.151	-0.062
-77.567	-164.854	0.105	-0.005
-76.553	190.761	0.196	-0.288
-75.538	238.862	0.080	0.131
-74.524	240.645	0.025	0.041
-73.509	434.589	0.034	-0.072
-72.494	342.618	0.099	0.191
-71.480	-200.000	-0.045	0.235
-70.465	-109.684	0.140	-0.029
-69.451	-200.000	0.027	0.443
-68.436	800.000	0.037	0.126
-67.422	-47.480	-0.079	-0.038
-66.407	35.768	-0.235	0.203
-65.392	-200.000	0.022	-0.175
-64.378	800.000	0.094	-0.366
-63.363	-200.000	0.052	0.347
-62.349	-67.505	-0.305	0.117
-61.334	132.945	-0.854	-1.081
-60.319	86.973	0.354	0.383
-59.305	498.467	-0.590	-1.331
-58.290	474.185	0.511	1.130
-57.276	800.000	0.441	1.525
-56.261	-200.000	104.883	613.688
-55.246	517.720	1491.367	3418.482
-54.232	178.886	2684.298	3844.237
-53.217	112.163	2174.588	2575.035
-52.203	40.552	1695.602	1496.363
-51.188	33.014	1505.762	1278.024
-50.173	30.623	1479.203	1239.519
-49.159	51.429	1534.123	1427.392
-48.144	52.067	1551.638	1447.967
-47.130	33.358	1506.591	1280.849
-46.115	30.134	1492.414	1247.103
-45.100	29.991	1488.564	1242.875
-44.086	29.926	1486.791	1240.912
-43.071	29.849	1484.851	1238.724
-42.057	29.849	1482.878	1237.030
-41.042	29.947	1481.637	1236.603
-40.027	29.965	1479.951	1235.267
-39.013	29.862	1478.543	1233.356
-37.998	29.788	1477.208	1231.699
-36.984	29.849	1476.339	1231.333
-35.969	29.903	1474.883	1230.425
-34.954	29.805	1473.576	1228.637
-33.940	29.847	1472.351	1227.846
-32.925	29.963	1470.143	1226.721
-31.911	29.965	1469.591	1226.228
-30.896	30.008	1468.078	1225.201
-29.881	29.930	1466.940	1223.684
-28.867	29.924	1465.628	1222.507
-27.852	29.922	1464.157	1221.213
-26.838	29.946	1462.683	1220.095
-25.823	29.882	1461.000	1218.222
-24.809	29.974	1459.407	1217.453
-23.794	29.905	1457.988	1215.767
-22.779	29.982	1456.838	1215.266
-21.765	29.934	1456.113	1214.299
-20.750	29.992	1455.245	1213.906
-19.736	29.920	1454.301	1212.595
-18.721	29.867	1453.190	1211.277
-17.706	29.989	1451.722	1210.801
-16.692	29.868	1450.773	1209.173
-15.677	29.870	1449.832	1208.353
-14.663	29.888	1448.997	1207.723
-13.648	29.894	1447.910	1206.808
-12.633	29.876	1446.657	1205.604
-11.619	29.838	1445.776	1204.572
-10.604	29.847	1445.433	1204.297
-9.590	29.878	1444.518	1203.685
-8.575	29.870	1443.030	1202.351
-7.560	29.885	1442.162	1201.675
-6.546	29.847	1441.479	1200.811
-5.531	29.801	1441.127	1200.169
-4.517	29.819	1440.137	1199.419
-3.502	29.828	1438.912	1198.407
-2.487	29.838	1438.027	1197.690
-1.473	29.883	1436.546	1196.698
-0.458	29.910	1435.474	1195.934
0.556	27.677	1426.164	1185.178
1.571	24.459	1400.910	1143.512
2.586	20.956	1341.483	1073.375
3.600	19.414	1259.687	998.917
4.615	18.232	1215.219	956.958
5.629	15.595	1160.454	899.654
6.644	7.399	1077.307	794.224
7.659	0.814	1038.021	733.348
8.673	-0.189	1032.573	724.592
9.688	-0.296	1029.284	721.705
10.702	-0.411	1027.764	720.026
11.717	-0.304	1025.609	718.966
12.731	2.759	1028.503	735.635
13.746	11.372	1041.417	786.475
14.761	18.040	1049.732	824.983
15.775	19.601	1050.990	833.441
16.790	19.831	1050.726	834.265
17.804	19.620	1049.518	832.217
18.819	19.245	1049.196	830.081
19.834	19.505	1048.624	830.806
20.848	19.558	1048.103	830.577
21.863	19.525	1047.541	829.896
22.877	19.562	1047.326	829.831
23.892	19.616	1046.204	829.127
24.907	19.296	1046.018	827.370
25.921	19.472	1045.226	827.516
26.936	19.599	1044.301	827.319
27.950	19.535	1043.023	825.929
28.965	19.493	1042.052	824.885
29.980	19.412	1039.979	822.786
30.994	19.376	1038.414	821.300
32.009	19.624	1037.374	821.585
33.023	19.636	1037.225	821.454
34.038	19.474	1035.708	819.410
35.053	19.357	1035.490	818.607
36.067	19.535	1035.151	819.114
37.082	19.722	1033.642	818.734
38.096	19.660	1033.029	817.881
39.111	19.783	1032.165	817.708
40.126	19.984	1030.970	817.637
41.140	19.791	1029.939	815.837
42.155	19.504	1028.640	813.384
43.169	19.266	1027.562	811.336
44.184	19.343	1025.847	810.274
45.199	19.305	1025.158	809.477
46.213	19.284	1024.332	808.657
47.228	19.206	1023.265	807.376
48.242	19.295	1021.910	806.654
49.257	19.460	1020.975	806.616
50.271	19.526	1020.492	806.472
51.286	19.678	1019.617	806.417
52.301	19.618	1019.163	805.706
53.315	19.622	1018.069	804.791
54.330	19.380	1017.688	803.292
55.344	19.546	1016.382	802.961
56.359	19.583	1015.286	802.198
57.374	19.632	1014.883	802.034
58.388	19.464	1013.705	800.252
59.403	19.506	1012.998	799.818
60.417	19.524	1012.033	799.069
61.432	19.260	1011.288	797.188
62.447	19.312	1010.576	796.797
63.461	19.306	1010.249	796.441
64.476	19.586	1009.164	796.808
65.490	19.570	1008.105	795.829
66.505	19.338	1007.227	793.994
67.520	19.426	1006.370	793.654
68.534	19.400	1006.024	793.192
69.549	19.303	1004.666	791.608
70.563	19.174	1003.037	789.661
71.578	18.908	1002.753	788.148
72.593	19.075	1001.626	787.959
73.607	18.977	1000.780	786.774
74.622	18.889	999.761	785.500
75.636	19.206	999.205	786.444
76.651	19.384	998.233	786.417
77.666	19.246	997.179	784.889
78.680	19.166	996.201	783.687
79.695	19.082	995.907	783.003
80.709	19.257	995.152	783.137
81.724	19.324	994.215	782.633
82.739	19.298	993.403	781.809
83.753	19.247	992.435	780.747
84.768	19.529	992.026	781.631
85.782	19.736	991.430	782.031
86.797	19.857	990.465	781.747
87.812	19.829	989.367	780.683
88.826	19.666	988.939	779.541
89.841	19.776	987.816	779.082
90.855	19.828	987.270	778.818
91.870	19.806	986.276	777.865
92.884	19.889	985.052	777.206
93.899	19.747	984.597	776.141
94.914	19.559	983.633	774.468
95.928	19.746	982.682	774.488
96.943	19.751	981.919	773.841
97.957	19.424	980.973	771.564
98.972	19.334	979.445	769.892
99.987	19.067	978.605	767.973
101.001	19.090	978.148	767.650
102.016	19.434	977.579	768.669
103.030	19.705	976.343	768.832
104.045	19.599	974.979	767.221
105.060	19.380	973.845	765.290
106.074	19.141	972.512	763.115
107.089	19.192	972.510	763.273
108.103	19.570	972.083	764.542
109.118	19.701	971.185	764.349
110.133	19.500	969.898	762.380
111.147	19.512	969.012	761.667
112.162	19.406	967.689	760.094
113.176	19.178	966.655	758.212
114.191	19.297	966.023	758.170
115.206	19.378	964.896	757.576
116.220	19.111	963.833	755.502
117.235	18.895	963.069	753.889
118.249	19.069	962.166	753.879
119.264	19.078	961.262	753.141
120.279	19.043	960.264	752.143
121.293	19.096	959.584	751.773
122.308	19.149	958.981	751.466
123.322	19.172	958.184	750.876
124.337	19.216	956.504	749.683
125.352	19.108	955.515	748.374
126.366	18.693	953.232	744.720
127.381	18.573	951.852	743.053
128.395	18.957	952.162	744.896
129.410	19.512	951.480	746.699
130.424	19.632	950.876	746.675
131.439	19.649	949.389	745.515
132.454	19.644	948.282	744.559
133.468	19.559	947.528	743.534
134.483	19.501	946.757	742.615
135.497	19.575	946.013	742.282
136.512	19.657	945.804	742.407
137.527	19.720	944.949	741.940
138.541	19.744	944.118	741.325
139.556	19.793	943.163	740.720
140.570	19.818	942.215	740.015
141.585	19.738	941.567	739.099
142.600	19.904	940.374	738.808
143.614	19.774	939.520	737.514
144.629	19.845	939.146	737.459
145.643	20.014	938.757	737.808
146.658	19.904	937.362	736.180
147.673	19.869	936.053	734.937
148.687	19.747	935.000	733.527
149.702	19.669	934.136	732.454
150.716	19.544	933.033	730.997
151.731	19.604	931.790	730.210
152.746	19.566	931.169	729.499
153.760	19.862	930.606	730.243
154.775	19.969	929.976	730.133
155.789	19.964	929.153	729.405
156.804	19.932	928.468	728.665
157.819	19.928	927.027	727.454
158.833	19.889	926.480	726.797
159.848	20.087	925.802	727.032
160.862	19.974	925.468	726.229
161.877	19.864	924.091	724.625
162.892	19.810	923.312	723.723
163.906	19.970	922.482	723.680
164.921	20.031	921.569	723.151
165.935	20.028	920.283	722.067
166.950	19.962	919.556	721.156
167.964	19.985	918.293	720.201
168.979	19.954	917.040	719.024
169.994	19.745	916.477	717.651
171.008	19.798	915.251	716.846
172.023	19.936	914.443	716.723
173.037	20.016	913.619	716.344
174.052	19.900	912.463	714.897
175.067	19.627	911.582	713.017
176.081	19.603	910.993	712.395
177.096	19.939	909.565	712.597
178.110	19.770	909.407	711.716
179.125	19.657	908.308	710.327
180.140	19.291	907.276	707.953
181.154	19.552	906.531	708.382
182.169	19.465	906.087	707.614
183.183	19.666	905.459	707.884
184.198	19.989	904.939	708.739
185.213	19.823	904.413	707.585
186.227	19.846	903.641	707.012
187.242	19.939	903.039	706.856
188.256	20.035	902.432	706.713
189.271	19.962	901.352	705.505
190.286	19.874	901.247	705.003
191.300	19.666	900.582	703.572
192.315	19.562	898.612	701.550
193.329	18.895	896.889	697.436
194.344	18.496	896.072	695.121
195.359	19.061	896.100	697.372
196.373	19.814	896.433	700.622
197.388	19.983	896.575	701.355
198.402	19.705	895.706	699.489
199.417	19.685	895.140	698.906
200.432	19.755	894.653	698.745
201.446	19.715	893.516	697.635
202.461	19.287	892.871	695.341
203.475	19.244	892.324	694.679
204.490	18.940	890.470	691.954
205.504	17.969	888.874	686.748
206.519	18.433	888.798	688.495
207.534	19.427	889.070	692.636
208.548	19.553	888.395	692.557
209.563	19.811	888.042	693.254
210.577	19.868	887.312	692.849
211.592	19.498	886.971	691.043
212.607	19.846	886.594	692.081
213.621	20.015	886.045	692.263
214.636	19.960	885.385	691.469
215.650	20.006	884.474	690.880
216.665	19.994	883.970	690.375
217.680	19.994	883.663	690.073
218.694	20.090	883.204	690.040
219.709	19.701	882.168	687.623
220.723	19.346	881.070	685.294
221.738	19.681	880.496	686.115
222.753	19.871	880.091	686.495
223.767	19.785	879.199	685.395
224.782	20.011	878.451	685.646
225.796	20.048	877.898	685.304
226.811	20.132	877.873	685.552
227.826	19.629	876.671	682.565
228.840	18.981	874.925	678.593
229.855	19.090	874.399	678.552
230.869	19.168	873.729	678.280
231.884	18.924	872.725	676.483
232.899	18.848	872.567	675.999
233.913	19.760	872.584	679.540
234.928	19.992	871.985	679.922
235.942	19.901	871.235	678.921
236.957	19.961	870.614	678.613
237.972	19.496	870.138	676.361
238.986	19.617	868.841	675.767
240.001	19.607	868.894	675.709
241.015	19.555	867.991	674.744
242.030	19.705	866.926	674.440
243.045	19.857	866.415	674.577
244.059	19.853	866.499	674.566
245.074	19.959	865.758	674.344
246.088	20.030	865.050	674.009
247.103	19.575	864.079	671.423
248.117	19.667	863.195	671.032
249.132	20.214	862.751	672.752
250.147	20.378	862.531	673.157
251.161	20.448	862.209	673.117
252.176	20.545	861.570	672.935
253.190	20.539	860.869	672.303
254.205	20.538	860.493	671.947
255.220	20.633	860.270	672.079
256.234	20.765	859.228	671.715
257.249	20.522	858.892	670.458
258.263	20.581	857.958	669.895
259.278	20.552	857.626	669.466
260.293	20.637	856.798	669.087
261.307	20.790	856.262	669.196
262.322	20.712	855.092	667.924
263.336	20.505	854.518	666.622
264.351	19.975	853.391	663.653
265.366	18.988	851.266	658.167
266.380	18.366	850.605	655.217
267.395	19.397	850.787	659.242
268.409	20.365	850.565	662.710
269.424	20.183	850.165	661.645
270.439	20.372	849.567	661.842
271.453	20.776	848.580	662.552
272.468	20.690	848.088	661.784
273.482	20.676	847.818	661.459
274.497	20.878	847.595	661.997
275.512	20.726	846.278	660.330
276.526	20.140	844.690	656.813
277.541	20.193	844.733	656.991
278.555	20.549	844.521	658.115
279.570	20.440	843.598	656.928
280.585	20.170	842.313	654.850
281.599	20.113	842.176	654.469
282.614	20.152	842.030	654.444
283.628	19.824	841.132	652.453
284.643	19.711	839.885	651.002
285.657	20.170	839.854	652.645
286.672	19.965	838.869	651.052
287.687	19.406	838.427	648.551
288.701	19.831	838.093	649.831
289.716	20.171	837.357	650.480
290.730	19.809	836.892	648.706
291.745	19.712	836.105	647.671
292.760	19.515	835.077	646.081
293.774	19.511	834.698	645.716
294.789	20.274	834.970	648.726
295.803	21.008	834.809	651.282
296.818	21.022	834.358	650.928
297.833	21.077	834.175	650.932
298.847	20.816	832.907	648.912
299.862	20.605	831.854	647.249
300.876	20.672	831.025	646.797
301.891	20.973	830.997	647.834
302.906	21.066	830.277	647.562
303.920	20.631	829.107	644.980
304.935	20.547	828.744	644.328
305.949	20.732	828.485	644.756
306.964	20.889	828.111	644.988
307.979	20.792	827.423	644.038
308.993	20.710	826.732	643.140
310.008	20.924	826.480	643.678
311.022	21.142	826.297	644.282
312.037	21.043	825.413	643.170
313.052	20.954	824.438	642.027
314.066	20.702	824.565	641.140
315.081	20.134	822.382	637.301
316.095	19.464	821.306	633.948
317.110	19.881	821.999	635.959
318.125	20.853	821.905	639.399
319.139	20.233	820.700	636.132
320.154	19.419	818.855	631.666
321.168	18.923	818.208	629.298
322.183	19.374	818.772	631.327
323.197	20.325	818.945	634.884
324.212	20.621	818.358	635.456
325.227	20.693	818.054	635.427
326.241	20.754	817.446	635.118
327.256	20.669	817.092	634.479
328.270	20.669	816.356	633.849
329.285	20.559	815.638	632.838
330.300	20.527	814.844	632.049
331.314	20.200	814.024	630.167
332.329	20.314	813.676	630.257
333.343	20.632	813.414	631.151
334.358	21.047	812.672	632.026
335.373	20.977	811.990	631.184
336.387	21.182	811.282	631.320
337.402	21.233	811.215	631.395
338.416	21.296	810.934	631.351
339.431	21.287	810.128	630.634
340.446	21.057	809.723	629.434
341.460	21.348	809.346	630.134
342.475	21.347	808.492	629.410
343.489	21.171	807.606	628.031
344.504	21.197	807.010	627.607
345.519	21.390	807.259	628.436
346.533	21.592	806.769	628.728
347.548	21.661	806.565	628.759
348.562	21.709	805.981	628.420
349.577	21.759	805.079	627.842
350.592	21.544	804.579	626.626
351.606	21.609	804.133	626.457
352.621	21.563	803.783	625.961
353.635	21.658	803.111	625.724
354.650	21.463	802.789	624.722
355.665	21.220	801.787	623.017
356.679	20.050	800.384	617.705
357.694	20.139	799.465	617.258
358.708	20.766	799.630	619.563
359.723	20.653	798.902	618.541
360.738	20.904	798.775	619.281
361.752	21.291	798.602	620.466
362.767	21.480	797.948	620.574
363.781	21.682	797.746	621.079
364.796	21.884	797.640	621.656
365.810	22.044	796.891	621.585
366.825	22.006	797.131	621.582
367.840	22.065	796.465	621.217
368.854	21.889	795.926	620.117
369.869	21.447	794.883	617.689
370.883	21.220	794.578	616.597
371.898	21.331	794.045	616.520
372.913	21.292	793.135	615.622
373.927	21.290	792.744	615.256
374.942	21.566	792.013	615.608
375.956	21.787	791.604	616.011
376.971	21.675	791.149	615.210
377.986	21.711	790.524	614.796
379.000	21.846	790.341	615.070
380.015	21.900	789.730	614.732
381.029	21.736	789.178	613.671
382.044	21.694	788.515	612.955
383.059	21.903	788.569	613.675
384.073	21.779	787.719	612.526
385.088	21.950	787.085	612.575
386.102	21.936	786.930	612.351
387.117	21.889	786.242	611.597
388.132	21.595	785.452	609.904
389.146	21.597	784.833	609.377
390.161	21.079	783.906	606.802
391.175	21.099	783.622	606.600
392.190	21.472	783.659	607.870
393.205	21.753	783.304	608.519
394.219	20.613	781.462	603.080
395.234	19.309	779.109	596.702
396.248	18.721	778.242	593.951
397.263	19.709	779.164	598.023
398.278	21.444	780.273	604.826
399.292	21.830	780.087	605.964
400.307	21.493	779.948	604.638
401.321	21.406	778.882	603.455
402.336	21.395	778.883	603.365
403.350	21.700	778.795	604.295
404.365	22.174	778.603	605.726
405.380	22.283	778.504	605.973
406.394	22.579	777.973	606.525
407.409	22.624	777.619	606.351
408.423	22.661	776.925	605.880
409.438	22.563	776.380	605.066
410.453	22.570	776.200	604.898
411.467	22.777	775.432	604.956
412.482	22.599	774.858	603.842
413.496	22.499	774.964	603.532
414.511	22.657	774.295	603.496
415.526	22.407	774.425	602.689
416.540	22.704	773.509	602.939
417.555	22.642	773.168	602.407
418.569	22.161	772.534	600.216
419.584	22.243	771.592	599.711
420.599	22.428	771.438	600.170
421.613	158.381	1361.784	1797.809
422.628	136.611	1447.771	1797.894
