DTS Sentinel unit serial number:	SN413079Multiplexer serial number:	ORYXHardware model number:	OX4-SRSoftware version number:	ORYX F/W v4.00 Oryx Data Collector v3.7.2.0data status	okinstallation	princeton_trtdifferential loss correction	single-endedforward channel	channel 3reverse channel	N/Adate	2019/09/11time	21:26:11forward acquisition time	60.00reverse acquisition time	0.00gamma	496.2192k internal	0.2309k external	0.2309temperature offset calibration	1.0034default loss term (dB/km)	0.3790temperature slope calibration	1.0000multiplexer offset coefficient	1.0000multiplexer slope coefficient	1.0000fibre end	0.00T internal ref (°C)	36.11T ext. ref 1 (°C)	1.59T ext. ref 2 (°C)	29.92length (m)	temperature (°C)	Stokes	anti-Stokes-747.200	623.800	-0.028	0.071
-746.185	52.308	-0.117	0.113
-745.171	-87.507	0.201	0.062
-744.156	800.000	-0.047	0.163
-743.142	-145.603	-0.320	-0.029
-742.127	-18.041	-0.194	0.123
-741.112	79.592	0.049	-0.053
-740.098	92.366	-0.211	0.242
-739.083	665.207	0.095	-0.250
-738.069	45.866	0.225	0.212
-737.054	-105.062	-0.083	-0.019
-736.039	632.347	-0.030	0.076
-735.025	800.000	-0.085	0.264
-734.010	-82.205	0.136	0.045
-732.996	-126.515	-0.235	0.035
-731.981	4.538	-0.123	0.092
-730.966	-163.022	0.178	0.009
-729.952	-200.000	0.050	0.222
-728.937	342.357	-0.145	-0.289
-727.923	321.109	-0.058	0.112
-726.908	-200.000	0.024	-0.166
-725.894	-112.329	0.104	-0.021
-724.879	165.808	-0.199	0.285
-723.864	-200.000	-0.010	0.267
-722.850	-13.937	0.347	0.228
-721.835	-200.000	-0.024	-0.239
-720.821	-158.017	0.266	-0.016
-719.806	28.174	-0.190	-0.163
-718.791	-200.000	-0.048	-0.611
-717.777	-136.868	-0.094	-0.011
-716.762	-159.771	-0.144	-0.008
-715.748	388.996	-0.103	-0.215
-714.733	-68.713	0.260	0.102
-713.718	-64.638	-0.330	-0.136
-712.704	800.000	0.022	0.078
-711.689	-117.239	-0.268	0.049
-710.675	-163.460	0.190	0.009
-709.660	-17.107	0.158	-0.101
-708.645	-177.762	0.400	-0.010
-707.631	20.013	-0.172	-0.140
-706.616	294.562	0.163	-0.302
-705.602	152.764	-0.290	-0.403
-704.587	-88.115	-0.397	-0.121
-703.572	191.639	-0.171	-0.261
-702.558	-160.762	-0.395	-0.021
-701.543	-31.711	0.112	0.064
-700.529	800.000	-0.035	0.114
-699.514	786.408	-0.013	0.035
-698.499	50.639	-0.146	-0.140
-697.485	800.000	-0.149	-0.441
-696.470	-96.695	0.079	-0.021
-695.456	-8.549	-0.308	-0.210
-694.441	-51.165	-0.088	-0.042
-693.426	-4.164	-0.149	0.105
-692.412	-61.902	0.194	-0.082
-691.397	-82.186	-0.117	0.039
-690.383	-125.122	0.197	-0.031
-689.368	618.559	0.076	-0.193
-688.354	-200.000	0.001	-0.083
-687.339	-200.000	-0.022	0.113
-686.324	-124.829	-0.278	-0.043
-685.310	-23.179	-0.374	-0.228
-684.295	-200.000	-0.013	0.127
-683.281	800.000	0.045	0.136
-682.266	800.000	0.075	-0.214
-681.251	-200.000	0.026	0.299
-680.237	800.000	-0.072	-0.245
-679.222	195.879	0.059	-0.091
-678.208	255.942	0.110	-0.191
-677.193	-23.022	0.137	-0.083
-676.178	800.000	0.088	-0.250
-675.164	-200.000	-0.005	0.079
-674.149	-31.005	0.211	-0.121
-673.135	-200.000	0.004	-0.087
-672.120	-103.476	-0.311	0.074
-671.105	412.708	0.039	-0.085
-670.091	46.062	-0.247	0.232
-669.076	-90.596	0.178	0.052
-668.062	-10.919	-0.143	0.096
-667.047	-4.121	0.307	-0.215
-666.032	-200.000	-0.023	0.242
-665.018	-78.066	-0.073	-0.026
-664.003	-200.000	0.019	0.096
-662.989	-200.000	-0.011	-0.072
-661.974	-84.259	0.224	-0.072
-660.959	-200.000	-0.043	-0.319
-659.945	46.569	0.104	-0.098
-658.930	800.000	-0.040	-0.167
-657.916	45.039	0.062	0.058
-656.901	191.878	-0.106	-0.162
-655.886	62.441	-0.206	-0.208
-654.872	34.311	-0.075	0.067
-653.857	800.000	-0.012	-0.036
-652.843	800.000	0.035	0.151
-651.828	99.659	-0.004	0.004
-650.814	32.950	0.321	-0.281
-649.799	-29.387	0.380	0.220
-648.784	342.259	0.085	-0.169
-647.770	-57.208	-0.250	-0.111
-646.755	800.000	0.084	0.280
-645.741	-200.000	0.040	0.224
-644.726	77.087	-0.228	0.245
-643.711	-98.467	-0.134	0.035
-642.697	800.000	0.042	0.163
-641.682	111.271	-0.007	0.008
-640.668	333.398	0.124	-0.242
-639.653	-56.531	-0.268	-0.120
-638.638	800.000	-0.070	-0.241
-637.624	89.972	-0.104	-0.118
-636.609	800.000	-0.058	-0.246
-635.595	800.000	0.078	0.297
-634.580	-90.259	0.070	0.021
-633.565	75.100	-0.250	-0.267
-632.551	-86.573	-0.198	0.061
-631.536	353.922	0.057	0.115
-630.522	-200.000	-0.070	-0.541
-629.507	15.317	-0.027	0.021
-628.492	-126.323	-0.105	0.016
-627.478	-200.000	0.005	-0.023
-626.463	-54.155	-0.230	-0.106
-625.449	442.945	0.081	-0.181
-624.434	-200.000	-0.016	-0.093
-623.419	-60.381	-0.245	0.105
-622.405	-200.000	0.056	-0.431
-621.390	187.745	-0.191	-0.288
-620.376	82.339	0.233	-0.256
-619.361	66.793	0.173	-0.178
-618.346	36.863	-0.175	-0.157
-617.332	-49.611	-0.278	0.134
-616.317	-108.309	-0.289	0.063
-615.303	-200.000	0.022	-0.128
-614.288	-13.775	-0.264	0.172
-613.273	800.000	0.018	0.067
-612.259	217.001	-0.092	0.148
-611.244	-105.859	0.258	-0.059
-610.230	-83.464	-0.098	-0.032
-609.215	-200.000	0.013	-0.094
-608.201	-84.334	0.095	-0.030
-607.186	775.492	-0.082	0.227
-606.171	-200.000	0.001	0.347
-605.157	-152.164	0.166	-0.012
-604.142	800.000	0.032	-0.123
-603.128	-200.000	0.064	0.326
-602.113	-200.000	0.022	0.441
-601.098	800.000	-0.061	-0.270
-600.084	-23.952	-0.239	0.145
-599.069	-77.348	-0.161	-0.056
-598.055	-200.000	-0.047	-0.231
-597.040	-197.056	0.158	0.001
-596.025	800.000	0.081	-0.351
-595.011	-100.994	0.085	-0.021
-593.996	183.107	0.112	-0.168
-592.982	67.255	0.098	-0.101
-591.967	-200.000	0.001	0.142
-590.952	-172.260	0.133	0.004
-589.938	-34.804	0.131	0.072
-588.923	609.128	-0.137	-0.346
-587.909	310.272	-0.191	-0.361
-586.894	8.039	-0.087	0.066
-585.879	-200.000	-0.066	-0.354
-584.865	800.000	0.051	-0.192
-583.850	36.433	0.295	-0.262
-582.836	80.229	0.070	-0.076
-581.821	-66.523	0.323	0.130
-580.806	-3.803	-0.342	-0.240
-579.792	243.288	0.099	0.168
-578.777	800.000	-0.058	0.195
-577.763	-60.949	-0.310	-0.132
-576.748	-200.000	0.037	-0.424
-575.733	3.636	0.174	-0.128
-574.719	-200.000	0.000	0.055
-573.704	800.000	0.064	0.207
-572.690	80.387	0.089	-0.097
-571.675	-200.000	0.033	-0.155
-570.661	551.054	-0.079	0.191
-569.646	-200.000	-0.002	0.064
-568.631	-200.000	-0.004	0.316
-567.617	-76.763	-0.086	-0.030
-566.602	151.609	-0.217	0.299
-565.588	800.000	0.007	0.030
-564.573	-103.537	0.371	0.088
-563.558	240.430	0.070	-0.117
-562.544	-200.000	0.032	0.224
-561.529	659.063	-0.111	0.287
-560.515	-200.000	-0.072	0.332
-559.500	252.802	0.040	-0.069
-558.485	-157.897	-0.142	0.008
-557.471	-158.541	-0.083	0.005
-556.456	178.253	-0.071	-0.104
-555.442	-200.000	-0.033	0.499
-554.427	248.806	0.206	0.352
-553.412	-121.008	0.406	-0.069
-552.398	-200.000	-0.008	-0.209
-551.383	-164.482	-0.334	-0.015
-550.369	-44.737	-0.170	0.086
-549.354	285.992	0.111	-0.201
-548.339	-65.067	-0.047	-0.019
-547.325	-200.000	0.012	0.381
-546.310	452.381	-0.102	0.228
-545.296	-60.915	0.116	0.049
-544.281	187.204	0.056	-0.085
-543.266	-46.481	0.351	-0.174
-542.252	135.575	-0.076	-0.100
-541.237	185.433	0.048	0.072
-540.223	224.365	0.084	-0.136
-539.208	157.616	0.121	-0.169
-538.193	183.390	0.116	0.173
-537.179	-200.000	0.023	0.135
-536.164	-68.731	-0.207	-0.081
-535.150	-200.000	-0.029	-0.149
-534.135	89.353	-0.167	-0.187
-533.121	-78.761	0.096	0.033
-532.106	-35.962	0.266	-0.145
-531.091	-38.989	-0.190	-0.101
-530.077	21.323	-0.241	-0.197
-529.062	88.525	0.252	0.282
-528.048	144.705	-0.224	-0.302
-527.033	-92.442	-0.540	0.153
-526.018	146.324	-0.121	0.164
-525.004	-163.193	0.146	0.007
-523.989	355.232	-0.074	-0.149
-522.975	-27.540	0.136	-0.080
-521.960	-200.000	0.001	0.142
-520.945	82.640	0.121	-0.132
-519.931	-200.000	-0.053	-0.266
-518.916	800.000	-0.029	0.101
-517.902	146.485	0.197	0.267
-516.887	-200.000	-0.036	0.187
-515.872	34.923	0.181	0.160
-514.858	-99.437	-0.305	0.077
-513.843	-200.000	-0.013	-0.154
-512.829	-14.996	-0.155	0.100
-511.814	-53.522	0.230	0.106
-510.799	-200.000	-0.018	0.249
-509.785	-58.684	0.304	0.132
-508.770	-122.940	-0.694	-0.112
-507.756	12.265	-0.122	0.094
-506.741	-149.931	-0.201	-0.016
-505.726	-116.901	-0.362	-0.067
-504.712	-48.780	-0.333	0.161
-503.697	-200.000	0.006	0.145
-502.683	181.850	0.174	0.258
-501.668	-15.662	0.067	0.043
-500.653	-200.000	0.012	0.146
-499.639	176.156	-0.118	-0.172
-498.624	-200.000	-0.002	-0.134
-497.610	63.092	0.146	0.147
-496.595	135.271	0.124	0.162
-495.581	8.802	0.090	-0.068
-494.566	800.000	0.021	0.084
-493.551	-140.042	0.153	-0.016
-492.537	-43.915	-0.205	0.104
-491.522	-12.559	-0.090	0.059
-490.508	435.039	-0.015	-0.033
-489.493	9.927	0.092	0.071
-488.478	-146.173	-0.269	0.024
-487.464	-200.000	0.001	0.010
-486.449	145.492	-0.245	0.330
-485.435	-130.334	-0.240	0.033
-484.420	127.985	0.065	0.083
-483.405	360.933	-0.089	-0.180
-482.391	800.000	0.044	-0.132
-481.376	-200.000	-0.019	0.101
-480.362	103.016	-0.058	-0.068
-479.347	-86.461	-0.219	0.068
-478.332	153.688	-0.106	0.146
-477.318	213.449	0.136	0.216
-476.303	-135.820	0.079	-0.009
-475.289	-200.000	0.029	0.171
-474.274	-26.269	0.133	0.078
-473.259	-200.000	-0.033	0.356
-472.245	47.042	-0.134	-0.125
-471.230	549.301	-0.120	0.289
-470.216	616.972	-0.048	0.120
-469.201	-112.115	-0.142	0.029
-468.186	-200.000	-0.039	-0.269
-467.172	-200.000	-0.017	0.207
-466.157	-123.925	0.048	-0.008
-465.143	-45.526	0.175	0.087
-464.128	-34.969	0.343	-0.188
-463.113	-47.708	-0.104	0.051
-462.099	-191.341	0.330	0.003
-461.084	-200.000	0.018	-0.142
-460.070	-28.572	-0.195	-0.113
-459.055	85.826	0.049	0.054
-458.040	117.979	0.113	0.140
-457.026	-73.447	-0.284	-0.104
-456.011	5.979	0.040	-0.030
-454.997	-60.361	-0.304	-0.130
-453.982	-200.000	0.011	0.416
-452.968	-130.626	0.135	-0.018
-451.953	-76.561	-0.143	-0.050
-450.938	-18.930	0.108	-0.067
-449.924	513.763	-0.110	0.258
-448.909	800.000	0.047	0.135
-447.895	-104.566	0.156	-0.036
-446.880	-143.364	0.154	0.015
-445.865	-200.000	-0.011	0.070
-444.851	-173.614	-0.123	0.004
-443.836	147.548	0.107	-0.145
-442.822	355.159	-0.061	-0.122
-441.807	-69.715	-0.433	-0.166
-440.792	264.853	-0.200	-0.349
-439.778	56.875	0.135	0.132
-438.763	-56.940	-0.155	0.069
-437.749	278.763	-0.110	0.198
-436.734	-200.000	-0.006	-0.156
-435.719	-39.260	0.152	0.080
-434.705	-200.000	-0.005	0.050
-433.690	-20.957	-0.051	-0.031
-432.676	-200.000	0.001	-0.166
-431.661	454.551	0.141	0.313
-430.646	-19.657	0.197	0.122
-429.632	-108.261	0.188	-0.041
-428.617	677.770	0.061	0.160
-427.603	340.712	0.137	0.269
-426.588	-28.485	0.234	0.135
-425.573	-81.773	0.351	-0.116
-424.559	80.706	0.067	-0.072
-423.544	590.750	0.059	-0.146
-422.530	800.000	-0.029	-0.085
-421.515	22.945	-0.071	0.059
-420.500	-102.238	0.130	0.031
-419.486	-163.541	-0.071	0.003
-418.471	-200.000	0.041	0.213
-417.457	26.178	0.120	0.100
-416.442	800.000	-0.037	0.148
-415.428	-127.214	-0.270	-0.040
-414.413	39.595	0.140	-0.126
-413.398	-40.662	-0.218	-0.114
-412.384	175.729	0.205	-0.298
-411.369	800.000	-0.059	-0.183
-410.355	517.124	-0.110	-0.259
-409.340	800.000	0.102	-0.375
-408.325	62.711	0.161	-0.162
-407.311	-41.369	-0.237	0.122
-406.296	-200.000	0.010	-0.099
-405.282	-200.000	-0.015	-0.097
-404.267	109.977	0.082	0.099
-403.252	12.490	0.020	-0.015
-402.238	115.427	0.138	-0.170
-401.223	240.375	0.027	-0.045
-400.209	-157.274	0.186	-0.011
-399.194	-72.245	-0.077	0.028
-398.179	-89.738	-0.297	-0.087
-397.165	-42.628	0.033	0.017
-396.150	35.658	-0.074	0.065
-395.136	-51.179	0.098	0.046
-394.121	373.282	0.068	0.139
-393.106	-75.354	0.380	-0.136
-392.092	-131.428	-0.108	-0.014
-391.077	-200.000	-0.020	-0.213
-390.063	198.247	0.189	0.290
-389.048	-65.324	0.363	-0.146
-388.033	-151.599	-0.196	0.015
-387.019	-61.396	-0.063	-0.026
-386.004	800.000	0.040	-0.159
-384.990	800.000	0.060	0.181
-383.975	-200.000	0.027	0.136
-382.960	15.848	-0.426	-0.336
-381.946	-85.198	-0.116	-0.036
-380.931	-54.845	0.286	0.129
-379.917	-200.000	-0.003	-0.156
-378.902	307.709	-0.080	0.149
-377.888	-47.152	0.262	0.128
-376.873	-52.810	-0.277	0.128
-375.858	-200.000	0.018	0.169
-374.844	-200.000	-0.057	0.261
-373.829	-200.000	-0.045	-0.294
-372.815	47.056	-0.319	-0.298
-371.800	121.888	-0.072	0.089
-370.785	284.956	-0.056	-0.102
-369.771	306.495	-0.219	-0.407
-368.756	134.396	-0.186	-0.241
-367.742	-200.000	-0.062	0.362
-366.727	-27.236	0.165	-0.096
-365.712	-200.000	-0.006	0.035
-364.698	137.369	-0.081	0.106
-363.683	387.812	0.137	-0.283
-362.669	523.139	0.037	-0.087
-361.654	-200.000	0.025	0.239
-360.639	115.986	-0.311	0.381
-359.625	-90.742	0.309	-0.089
-358.610	-200.000	0.013	0.105
-357.596	-158.286	0.321	-0.019
-356.581	488.821	0.099	0.226
-355.566	147.867	-0.171	0.231
-354.552	-200.000	0.004	0.350
-353.537	-200.000	-0.013	0.061
-352.523	107.708	0.123	0.147
-351.508	-120.056	0.193	0.033
-350.493	-43.528	0.235	-0.119
-349.479	130.376	0.175	0.224
-348.464	-65.129	0.274	-0.111
-347.450	-129.482	0.276	-0.038
-346.435	471.929	0.078	-0.175
-345.420	764.207	-0.029	0.080
-344.406	-116.520	-0.170	0.031
-343.391	-40.753	-0.165	0.086
-342.377	-72.406	-0.229	-0.085
-341.362	800.000	-0.075	0.225
-340.348	-19.461	0.183	-0.113
-339.333	316.910	-0.121	0.229
-338.318	6.368	0.056	-0.041
-337.304	277.561	0.125	-0.222
-336.289	-171.388	-0.096	0.003
-335.275	21.602	-0.111	-0.090
-334.260	-197.221	0.240	-0.002
-333.245	-96.761	-0.124	0.033
-332.231	-106.712	0.085	0.019
-331.216	42.700	0.154	-0.140
-330.202	-200.000	0.011	-0.256
-329.187	-17.116	0.232	-0.146
-328.172	26.813	0.162	0.135
-327.158	-113.919	0.205	-0.040
-326.143	200.234	0.163	-0.250
-325.129	-74.579	0.174	-0.062
-324.114	-100.063	0.258	-0.064
-323.099	-160.431	0.354	0.019
-322.085	195.446	0.068	-0.103
-321.070	245.754	-0.021	-0.036
-320.056	-200.000	0.020	-0.260
-319.041	298.242	0.161	-0.296
-318.026	800.000	0.070	-0.297
-317.012	97.108	0.041	0.047
-315.997	-185.029	-0.182	-0.003
-314.983	-78.392	0.229	0.079
-313.968	-200.000	0.014	0.149
-312.953	-200.000	0.018	-0.134
-311.939	465.645	0.125	0.280
-310.924	-121.225	-0.505	0.084
-309.910	77.893	0.081	-0.087
-308.895	92.941	-0.135	-0.152
-307.880	-82.926	-0.339	-0.109
-306.866	78.046	0.108	0.116
-305.851	-26.694	-0.214	-0.125
-304.837	-34.032	0.226	-0.124
-303.822	415.887	0.142	-0.302
-302.807	-123.400	-0.175	0.028
-301.793	-200.000	-0.037	0.386
-300.778	10.169	-0.183	0.139
-299.764	-100.059	-0.186	-0.046
-298.749	-20.143	0.125	-0.077
-297.735	-57.494	-0.262	-0.115
-296.720	-200.000	-0.031	-0.270
-295.705	-46.393	-0.410	0.201
-294.691	-151.129	-0.176	-0.013
-293.676	-20.192	0.196	0.120
-292.662	-70.299	-0.242	-0.092
-291.647	-200.000	0.073	0.000
-290.632	-55.217	-0.085	0.038
-289.618	-200.000	-0.018	0.124
-288.603	-148.573	0.105	0.009
-287.589	72.345	-0.017	0.018
-286.574	374.803	-0.085	-0.172
-285.559	-64.738	0.209	0.084
-284.545	-89.899	-0.147	-0.043
-283.530	800.000	0.086	0.311
-282.516	364.074	0.080	-0.160
-281.501	216.953	0.084	0.133
-280.486	-33.074	-0.087	0.048
-279.472	-84.708	0.153	0.048
-278.457	-184.013	-0.045	-0.001
-277.443	350.709	0.088	0.173
-276.428	253.928	-0.099	-0.168
-275.413	-200.000	-0.009	-0.063
-274.399	80.820	-0.065	0.070
-273.384	126.334	0.246	0.310
-272.370	-156.920	0.296	0.018
-271.355	602.094	-0.086	-0.214
-270.340	279.258	-0.112	0.199
-269.326	197.369	0.288	-0.438
-268.311	583.179	0.120	-0.295
-267.297	-177.182	-0.360	-0.009
-266.282	-200.000	0.013	0.195
-265.267	183.903	0.025	0.036
-264.253	800.000	-0.047	0.145
-263.238	-5.517	0.081	0.055
-262.224	-200.000	0.001	0.113
-261.209	82.494	-0.062	-0.067
-260.195	34.691	0.079	-0.069
-259.180	-18.508	0.130	0.081
-258.165	156.537	-0.064	0.087
-257.151	-129.058	-0.133	-0.019
-256.136	-200.000	-0.056	-0.287
-255.122	152.338	-0.106	0.144
-254.107	130.800	0.132	0.169
-253.092	-42.408	-0.030	0.015
-252.078	563.136	0.033	-0.080
-251.063	187.641	-0.173	-0.258
-250.049	800.000	0.127	-0.353
-249.034	366.367	-0.024	0.048
-248.019	504.880	-0.132	-0.305
-247.005	-101.640	0.081	-0.019
-245.990	142.698	0.180	0.239
-244.976	-34.517	-0.105	0.057
-243.961	-149.564	-0.285	-0.022
-242.946	800.000	-0.036	-0.155
-241.932	-200.000	0.045	-0.265
-240.917	-151.045	0.090	-0.007
-239.903	322.170	-0.072	-0.136
-238.888	-57.795	-0.068	0.029
-237.873	-133.493	0.290	-0.036
-236.859	419.640	0.098	0.208
-235.844	-35.591	0.165	0.089
-234.830	151.530	-0.084	0.113
-233.815	-140.535	-0.060	-0.006
-232.800	500.840	-0.008	0.018
-231.786	357.035	0.146	0.290
-230.771	196.937	0.097	0.148
-229.757	800.000	0.033	-0.103
-228.742	800.000	0.069	-0.241
-227.727	310.572	-0.101	0.188
-226.713	67.181	0.217	0.220
-225.698	1.046	0.219	-0.156
-224.684	-115.691	0.077	-0.014
-223.669	10.115	0.317	0.240
-222.655	-69.176	0.146	0.056
-221.640	-200.000	-0.012	-0.301
-220.625	-1.537	-0.360	0.253
-219.611	75.338	-0.188	0.197
-218.596	215.646	0.212	0.335
-217.582	-125.646	0.271	-0.041
-216.567	-156.649	0.088	0.005
-215.552	800.000	-0.049	-0.199
-214.538	85.202	0.043	-0.047
-213.523	-200.000	0.047	0.365
-212.509	-43.729	-0.375	-0.188
-211.494	-193.445	0.139	-0.001
-210.479	10.858	0.228	0.173
-209.465	-33.886	-0.475	-0.260
-208.450	-181.537	-0.258	0.005
-207.436	-21.256	-0.183	-0.111
-206.421	267.367	-0.174	-0.302
-205.406	-182.195	0.406	0.008
-204.392	-3.359	0.166	-0.115
-203.377	-200.000	-0.000	0.174
-202.363	-111.982	0.210	-0.042
-201.348	58.993	0.151	-0.148
-200.333	-21.372	0.144	-0.088
-199.319	14.930	-0.259	0.202
-198.304	-90.117	0.264	0.076
-197.290	-75.074	-0.420	-0.149
-196.275	-118.656	0.184	-0.032
-195.260	-200.000	0.011	-0.065
-194.246	-44.586	0.462	0.229
-193.231	153.781	0.174	0.237
-192.217	163.133	0.145	-0.203
-191.202	800.000	-0.014	0.041
-190.187	156.416	0.147	-0.202
-189.173	-200.000	0.029	0.311
-188.158	487.582	-0.070	0.160
-187.144	-115.841	0.246	0.046
-186.129	-47.210	-0.287	0.139
-185.114	-136.330	-0.073	-0.008
-184.100	-200.000	0.009	0.410
-183.085	-144.967	-0.105	0.009
-182.071	-200.000	-0.016	-0.151
-181.056	59.003	-0.221	-0.216
-180.042	144.748	0.126	-0.168
-179.027	311.797	-0.198	0.369
-178.012	-27.920	-0.149	-0.086
-176.998	-200.000	-0.037	0.185
-175.983	-151.143	-0.223	-0.017
-174.969	-105.586	-0.261	0.059
-173.954	-180.051	0.157	-0.003
-172.939	-10.776	0.079	0.052
-171.925	554.641	0.093	-0.222
-170.910	-200.000	-0.039	0.367
-169.896	82.488	0.077	-0.083
-168.881	800.000	-0.057	-0.205
-167.866	-41.489	0.072	-0.037
-166.852	9.450	-0.142	0.107
-165.837	-56.888	-0.014	0.006
-164.823	-200.000	-0.016	-0.265
-163.808	9.671	0.117	-0.088
-162.793	-42.014	0.387	-0.197
-161.779	-200.000	-0.008	0.117
-160.764	-200.000	0.021	0.258
-159.750	400.507	-0.076	-0.157
-158.735	-34.939	-0.121	0.066
-157.720	35.948	-0.348	-0.304
-156.706	771.010	-0.070	-0.190
-155.691	-111.963	0.223	-0.045
-154.677	447.391	-0.052	-0.114
-153.662	328.550	-0.119	-0.227
-152.647	800.000	0.046	-0.167
-151.633	303.639	-0.155	0.285
-150.618	781.016	0.055	-0.149
-149.604	-102.026	0.306	0.073
-148.589	-200.000	-0.031	-0.135
-147.574	-121.242	-0.171	0.028
-146.560	-200.000	0.035	-0.153
-145.545	170.944	0.031	0.044
-144.531	53.824	-0.183	-0.174
-143.516	800.000	0.053	-0.196
-142.502	-159.447	0.282	-0.016
-141.487	-200.000	-0.007	-0.082
-140.472	-46.784	0.088	-0.043
-139.458	-200.000	0.029	-0.141
-138.443	-200.000	-0.063	-0.305
-137.429	-121.693	-0.211	-0.035
-136.414	-200.000	0.006	0.118
-135.399	370.370	0.130	0.262
-134.385	-96.079	-0.203	-0.053
-133.370	-93.182	0.049	0.013
-132.356	-200.000	-0.014	0.095
-131.341	-171.218	-0.232	-0.008
-130.326	-200.000	-0.009	-0.098
-129.312	27.659	-0.164	0.137
-128.297	-200.000	-0.004	0.342
-127.283	-64.077	-0.132	-0.053
-126.268	106.754	-0.300	-0.353
-125.253	46.790	-0.259	-0.239
-124.239	-200.000	0.034	-0.180
-123.224	-84.595	0.507	0.159
-122.210	192.692	0.100	-0.149
-121.195	800.000	0.075	-0.264
-120.180	651.322	0.111	0.283
-119.166	170.422	-0.160	-0.227
-118.151	64.583	0.090	0.090
-117.137	-200.000	-0.014	-0.500
-116.122	800.000	-0.054	-0.211
-115.107	74.912	-0.195	0.204
-114.093	800.000	-0.057	0.237
-113.078	24.248	0.059	-0.048
-112.064	119.214	0.245	-0.301
-111.049	-200.000	0.025	-0.395
-110.034	120.987	-0.172	0.212
-109.020	-200.000	0.018	-0.120
-108.005	-200.000	-0.040	-0.263
-106.991	800.000	0.023	0.074
-105.976	-56.440	0.096	-0.042
-104.962	-200.000	-0.028	-0.300
-103.947	10.419	0.276	0.208
-102.932	-83.072	-0.187	-0.060
-101.918	155.084	0.117	-0.160
-100.903	747.258	-0.075	0.200
-99.889	598.693	0.171	-0.421
-98.874	-69.675	0.030	0.011
-97.859	-200.000	-0.064	-0.349
-96.845	-200.000	0.059	-0.270
-95.830	33.930	0.151	-0.130
-94.816	-200.000	-0.034	0.187
-93.801	-129.921	-0.219	-0.030
-92.786	-200.000	-0.030	0.160
-91.772	273.657	-0.038	0.067
-90.757	-6.995	-0.256	0.172
-89.743	6.382	-0.057	-0.042
-88.728	-48.016	0.270	0.129
-87.713	-200.000	-0.007	-0.181
-86.699	-200.000	0.014	0.166
-85.684	800.000	-0.041	-0.145
-84.670	-50.166	-0.129	0.060
-83.655	-200.000	-0.022	-0.104
-82.640	-134.494	0.454	-0.055
-81.626	-174.007	-0.183	0.005
-80.611	-177.744	-0.194	-0.005
-79.597	17.812	-0.102	-0.080
-78.582	135.889	-0.070	0.090
-77.567	-13.677	0.163	0.104
-76.553	155.559	-0.132	-0.180
-75.538	-52.546	-0.248	0.113
-74.524	-13.261	-0.080	-0.052
-73.509	-133.612	0.223	-0.028
-72.494	-12.699	0.124	-0.080
-71.480	49.028	0.160	-0.148
-70.465	238.493	0.126	-0.207
-69.451	95.354	-0.135	-0.152
-68.436	115.059	0.185	-0.223
-67.422	-178.236	0.096	-0.002
-66.407	-120.634	0.258	0.043
-65.392	-109.912	0.069	-0.014
-64.378	-146.832	0.194	-0.017
-63.363	-63.978	0.188	-0.076
-62.349	227.603	0.217	0.348
-61.334	251.086	-0.421	-0.709
-60.319	90.771	0.256	0.284
-59.305	800.000	-0.321	-0.960
-58.290	800.000	0.490	1.364
-57.276	310.072	0.976	1.805
-56.261	-200.000	92.957	558.750
-55.246	547.288	1366.300	3233.132
-54.232	153.164	2574.255	3482.370
-53.217	115.882	2185.607	2644.442
-52.203	46.654	1724.571	1583.107
-51.188	39.330	1534.604	1358.361
-50.173	36.717	1507.776	1316.808
-49.159	55.744	1557.004	1491.735
-48.144	59.411	1576.998	1536.178
-47.130	39.637	1532.317	1358.235
-46.115	36.416	1516.920	1322.523
-45.100	36.235	1513.775	1318.490
-44.086	36.215	1511.699	1316.493
-43.071	36.075	1509.890	1313.912
-42.057	35.993	1508.878	1312.423
-41.042	36.011	1507.065	1310.918
-40.027	35.990	1505.934	1309.733
-39.013	36.095	1503.892	1308.617
-37.998	36.029	1502.794	1307.164
-36.984	35.989	1501.986	1306.143
-35.969	36.069	1500.120	1305.010
-34.954	36.069	1498.862	1303.860
-33.940	36.092	1497.388	1302.682
-32.925	36.139	1495.896	1301.652
-31.911	36.149	1494.598	1300.538
-30.896	36.151	1493.348	1299.412
-29.881	36.125	1492.461	1298.412
-28.867	36.202	1490.697	1297.345
-27.852	36.210	1489.210	1296.052
-26.838	36.142	1487.792	1294.310
-25.823	36.167	1486.251	1293.086
-24.809	36.175	1484.156	1291.264
-23.794	36.166	1483.031	1290.174
-22.779	36.155	1481.824	1289.001
-21.765	36.122	1481.426	1288.385
-20.750	36.189	1479.709	1287.287
-19.736	36.150	1478.654	1286.056
-18.721	36.127	1477.765	1285.079
-17.706	36.168	1476.336	1284.058
-16.692	36.142	1475.498	1283.105
-15.677	36.147	1474.847	1282.519
-14.663	36.102	1473.898	1281.344
-13.648	36.028	1472.720	1279.778
-12.633	36.118	1471.371	1279.152
-11.619	36.117	1470.425	1278.274
-10.604	36.081	1469.683	1277.341
-9.590	36.024	1469.372	1276.640
-8.575	36.002	1468.752	1275.904
-7.560	36.119	1467.224	1275.302
-6.546	36.108	1466.086	1274.188
-5.531	36.099	1465.128	1273.245
-4.517	36.019	1464.543	1272.157
-3.502	36.100	1463.406	1271.654
-2.487	35.988	1462.901	1270.428
-1.473	36.010	1461.343	1269.166
-0.458	36.077	1459.885	1268.294
0.556	35.967	1450.378	1256.893
1.571	32.802	1424.171	1213.752
2.586	29.171	1362.550	1138.732
3.600	27.396	1279.225	1058.690
4.615	25.909	1232.097	1011.256
5.629	21.859	1174.792	942.424
6.644	11.235	1086.630	818.538
7.659	3.051	1042.458	745.631
8.673	1.737	1037.070	735.368
9.688	1.606	1033.608	732.218
10.702	1.508	1031.811	730.410
11.717	1.509	1030.215	729.220
12.731	5.186	1034.620	749.961
13.746	15.500	1048.697	810.091
14.761	22.933	1058.760	853.859
15.775	24.420	1059.537	861.596
16.790	24.514	1059.241	861.732
17.804	24.519	1058.260	860.885
18.819	24.158	1057.576	858.513
19.834	24.320	1056.687	858.492
20.848	24.460	1056.198	858.694
21.863	24.477	1056.164	858.674
22.877	24.683	1055.532	859.071
23.892	24.511	1055.125	857.840
24.907	24.287	1054.188	855.928
25.921	24.452	1053.379	855.984
26.936	24.351	1052.809	854.962
27.950	24.345	1052.150	854.324
28.965	24.302	1050.756	852.909
29.980	24.266	1049.118	851.331
30.994	24.408	1047.522	850.638
32.009	24.495	1047.361	850.846
33.023	24.464	1046.685	850.074
34.038	24.281	1045.702	848.328
35.053	24.142	1044.763	846.835
36.067	24.411	1043.812	847.266
37.082	24.442	1043.209	846.847
38.096	24.541	1042.278	846.485
39.111	24.627	1041.661	846.320
40.126	24.797	1040.662	846.237
41.140	24.666	1039.736	844.787
42.155	24.346	1038.282	842.022
43.169	23.982	1037.067	839.247
44.184	24.132	1035.776	838.831
45.199	24.167	1035.068	838.351
46.213	24.019	1034.200	836.876
47.228	24.023	1033.171	835.989
48.242	24.156	1032.569	836.053
49.257	24.306	1032.059	836.268
50.271	24.355	1031.083	835.636
51.286	24.387	1030.670	835.376
52.301	24.522	1029.978	835.371
53.315	24.428	1029.097	834.143
54.330	24.382	1028.672	833.509
55.344	24.320	1027.582	832.266
56.359	24.340	1026.797	831.650
57.374	24.428	1025.597	831.011
58.388	24.162	1024.660	828.945
59.403	24.195	1024.018	828.503
60.417	24.187	1023.493	827.966
61.432	23.998	1022.623	826.312
62.447	24.076	1022.034	826.125
63.461	24.226	1021.365	826.209
64.476	24.162	1020.552	825.183
65.490	24.161	1019.768	824.470
66.505	24.162	1018.717	823.548
67.520	24.081	1018.062	822.575
68.534	24.239	1017.265	822.589
69.549	24.145	1015.974	821.038
70.563	23.790	1015.071	818.598
71.578	23.581	1014.596	817.179
72.593	23.706	1013.527	816.822
73.607	23.603	1012.674	815.590
74.622	23.578	1011.470	814.432
75.636	23.838	1011.033	815.203
76.651	24.044	1010.289	815.473
77.666	23.792	1009.316	813.463
78.680	23.782	1008.511	812.697
79.695	23.815	1008.142	812.479
80.709	23.923	1007.522	812.400
81.724	24.026	1006.302	811.815
82.739	24.028	1005.438	811.053
83.753	23.902	1004.961	810.022
84.768	24.192	1004.238	810.689
85.782	24.597	1003.813	812.115
86.797	24.735	1003.322	812.275
87.812	24.772	1002.193	811.457
88.826	24.553	1001.026	809.445
89.841	24.510	1000.644	808.871
90.855	24.613	999.761	808.553
91.870	24.658	999.130	808.176
92.884	24.660	998.320	807.455
93.899	24.662	997.225	806.510
94.914	24.476	996.650	805.135
95.928	24.587	995.918	804.970
96.943	24.633	994.804	804.205
97.957	24.285	994.015	801.931
98.972	24.297	992.202	800.454
99.987	23.878	991.733	798.122
101.001	24.005	991.358	798.322
102.016	24.217	990.962	798.881
103.030	24.455	989.485	798.685
104.045	24.298	988.917	797.455
105.060	24.149	987.537	795.605
106.074	24.086	986.295	794.254
107.089	24.039	985.275	793.151
108.103	24.284	985.191	794.104
109.118	24.435	984.231	793.931
110.133	24.141	983.416	791.899
111.147	24.164	982.145	790.907
112.162	23.966	980.863	788.928
113.176	23.830	979.626	787.258
114.191	23.996	979.139	787.533
115.206	24.097	978.304	787.241
116.220	23.624	977.611	784.521
117.235	23.549	976.778	783.451
118.249	23.737	975.858	783.475
119.264	23.907	974.988	783.454
120.279	23.642	974.122	781.526
121.293	23.721	973.325	781.161
122.308	23.863	972.764	781.269
123.322	23.883	971.653	780.394
124.337	23.790	970.566	779.044
125.352	23.715	969.384	777.700
126.366	23.310	967.942	774.703
127.381	22.987	966.361	771.957
128.395	23.421	966.512	773.906
129.410	24.113	966.054	776.487
130.424	24.247	965.201	776.318
131.439	24.413	963.911	775.934
132.454	24.311	963.063	774.740
133.468	24.227	962.063	773.502
134.483	24.203	961.664	773.008
135.497	24.306	961.116	772.946
136.512	24.453	960.398	772.935
137.527	24.520	959.633	772.540
138.541	24.564	958.677	771.892
139.556	24.546	957.830	771.067
140.570	24.479	957.357	770.330
141.585	24.551	956.262	769.688
142.600	24.656	955.810	769.708
143.614	24.517	954.969	768.368
144.629	24.570	953.987	767.734
145.643	24.832	953.373	768.299
146.658	24.969	951.793	767.546
147.673	24.484	950.784	764.588
148.687	24.423	949.768	763.439
149.702	24.439	948.538	762.453
150.716	24.405	947.356	761.291
151.731	24.219	946.773	759.963
152.746	24.404	946.066	760.116
153.760	24.484	945.859	760.222
154.775	24.598	945.179	760.094
155.789	24.699	944.266	759.723
156.804	24.732	943.442	759.129
157.819	24.627	942.500	757.861
158.833	24.749	941.262	757.316
159.848	24.762	941.024	757.111
160.862	24.736	940.322	756.369
161.877	24.770	939.286	755.615
162.892	24.478	938.679	753.823
163.906	24.553	937.957	753.493
164.921	24.493	936.735	752.193
165.935	24.569	935.389	751.368
166.950	24.719	934.379	751.120
167.964	24.710	933.547	750.344
168.979	24.717	932.174	749.203
169.994	24.599	931.423	748.040
171.008	24.425	930.436	746.456
172.023	24.607	929.904	746.724
173.037	24.726	929.137	746.538
174.052	24.606	927.935	745.004
175.067	24.342	926.615	742.780
176.081	24.425	925.790	742.398
177.096	24.495	924.927	741.929
178.110	24.423	924.323	741.082
179.125	24.211	923.447	739.434
180.140	23.981	922.431	737.603
181.154	24.017	921.421	736.879
182.169	24.071	921.647	737.216
183.183	24.286	921.209	737.694
184.198	24.557	920.606	738.266
185.213	24.498	920.061	737.517
186.227	24.451	919.558	736.854
187.242	24.589	918.761	736.721
188.256	24.737	917.746	736.452
189.271	24.585	917.269	735.377
190.286	24.820	916.239	735.454
191.300	24.549	915.694	733.837
192.315	24.034	914.148	730.421
193.329	23.129	912.982	725.714
194.344	22.919	911.485	723.602
195.359	23.552	912.126	726.637
196.373	24.317	912.158	729.729
197.388	24.540	912.046	730.490
198.402	24.453	911.759	729.839
199.417	24.381	910.727	728.652
200.432	24.457	910.421	728.653
201.446	24.421	909.492	727.700
202.461	23.941	908.882	725.191
203.475	24.171	907.824	725.219
204.490	23.755	906.879	722.707
205.504	22.610	904.667	716.232
206.519	22.848	904.745	717.197
207.534	23.973	904.856	721.788
208.548	24.119	904.200	721.792
209.563	24.449	904.089	722.978
210.577	24.401	903.535	722.278
211.592	24.137	902.775	720.536
212.607	24.545	902.734	722.093
213.621	24.568	902.435	721.881
214.636	24.590	901.572	721.215
215.650	24.624	901.000	720.831
216.665	24.722	899.978	720.345
217.680	24.762	899.644	720.174
218.694	24.738	899.322	719.758
219.709	24.458	898.337	717.779
220.723	24.065	897.237	715.259
221.738	24.395	896.796	716.169
222.753	24.543	896.275	716.284
223.767	24.547	895.281	715.440
224.782	24.599	894.889	715.271
225.796	24.733	894.653	715.554
226.811	24.755	894.475	715.439
227.826	24.456	892.703	712.762
228.840	23.709	891.024	708.382
229.855	23.522	890.802	707.399
230.869	23.797	890.283	708.020
231.884	23.575	889.248	706.251
232.899	23.441	889.064	705.508
233.913	24.294	889.138	708.897
234.928	24.555	888.772	709.579
235.942	24.460	888.132	708.629
236.957	24.350	887.672	707.763
237.972	24.149	886.603	706.049
238.986	24.079	885.711	704.999
240.001	24.132	885.251	704.783
241.015	24.229	884.491	704.497
242.030	24.198	883.903	703.844
243.045	24.453	883.316	704.322
244.059	24.335	883.037	703.570
245.074	24.638	882.567	704.329
246.088	24.432	882.204	703.167
247.103	24.205	880.964	701.220
248.117	24.212	880.257	700.623
249.132	24.769	880.295	702.782
250.147	25.117	880.144	703.967
251.161	25.253	879.252	703.725
252.176	25.414	879.218	704.264
253.190	25.336	878.339	703.192
254.205	25.295	878.293	702.933
255.220	25.729	877.471	703.911
256.234	25.585	877.159	703.036
257.249	25.497	876.322	701.958
258.263	25.325	875.696	700.725
259.278	25.425	875.229	700.678
260.293	25.513	874.996	700.773
261.307	25.508	874.361	700.185
262.322	25.339	873.598	698.851
263.336	25.321	872.775	698.061
264.351	24.696	871.790	694.783
265.366	23.791	869.559	689.436
266.380	23.120	868.581	685.999
267.395	24.160	869.035	690.329
268.409	24.940	869.056	693.303
269.424	24.976	868.449	692.897
270.439	25.050	867.792	692.599
271.453	25.196	867.538	692.900
272.468	25.206	866.813	692.296
273.482	25.313	866.284	692.226
274.497	25.560	865.698	692.650
275.512	25.295	864.844	690.882
276.526	24.893	863.331	688.069
277.541	25.059	862.831	688.247
278.555	25.294	863.006	689.229
279.570	24.903	862.395	687.180
280.585	24.839	861.640	686.271
281.599	24.905	861.626	686.451
282.614	25.297	860.636	687.104
283.628	24.583	859.643	683.521
284.643	24.296	858.712	681.623
285.657	24.813	858.613	683.460
286.672	24.656	857.921	682.248
287.687	24.123	856.998	679.421
288.701	24.443	857.111	680.670
289.716	24.854	856.868	681.983
290.730	24.550	855.839	679.948
291.745	24.397	855.381	678.943
292.760	24.117	854.320	676.977
293.774	24.086	853.579	676.212
294.789	25.064	854.422	680.534
295.803	25.720	854.249	682.826
296.818	25.674	853.740	682.183
297.833	26.025	852.935	682.811
298.847	25.656	851.951	680.567
299.862	25.127	851.044	677.781
300.876	25.337	850.659	678.208
301.891	25.726	850.297	679.330
302.906	25.721	849.820	678.870
303.920	25.371	848.837	676.703
304.935	25.261	848.033	675.588
305.949	25.625	848.078	676.936
306.964	25.773	847.303	676.813
307.979	25.542	846.515	675.257
308.993	25.537	846.137	674.878
310.008	25.509	846.509	675.009
311.022	25.792	845.678	675.347
312.037	25.788	844.754	674.535
313.052	25.524	844.560	673.329
314.066	25.341	843.787	671.970
315.081	24.703	842.091	668.176
316.095	23.979	840.834	664.416
317.110	24.446	841.089	666.305
318.125	25.289	841.298	669.559
319.139	24.947	839.953	667.156
320.154	23.811	838.598	661.790
321.168	23.380	837.667	659.395
322.183	24.070	837.645	661.886
323.197	24.727	838.366	664.838
324.212	25.203	837.874	666.158
325.227	25.455	837.573	666.794
326.241	25.507	837.289	666.704
327.256	25.500	836.648	666.106
328.270	25.384	835.832	664.972
329.285	25.253	835.277	663.985
330.300	25.104	834.394	662.675
331.314	24.918	833.373	661.118
332.329	24.838	833.201	660.628
333.343	25.266	832.948	661.945
334.358	25.640	832.511	662.921
335.373	25.764	831.724	662.691
336.387	25.752	831.231	662.196
337.402	25.824	831.280	662.439
338.416	26.087	830.632	662.831
339.431	25.927	830.275	661.898
340.446	25.974	829.788	661.626
341.460	26.242	829.008	661.928
342.475	26.161	828.414	661.097
343.489	26.035	827.753	660.053
344.504	25.974	827.133	659.275
345.519	26.141	827.183	659.869
346.533	26.474	826.359	660.368
347.548	26.390	826.274	659.934
348.562	26.623	825.780	660.330
349.577	26.437	825.320	659.228
350.592	26.252	824.616	657.931
351.606	26.115	824.560	657.331
352.621	26.280	823.733	657.214
353.635	26.404	822.966	656.994
354.650	26.054	822.458	655.258
355.665	25.908	821.684	654.055
356.679	24.959	819.752	649.024
357.694	24.618	819.446	647.486
358.708	25.246	819.661	649.875
359.723	25.218	818.631	648.898
360.738	25.581	818.477	650.031
361.752	26.131	818.555	652.024
362.767	26.145	818.146	651.692
363.781	26.275	818.342	652.260
364.796	26.548	817.897	652.831
365.810	26.720	817.237	652.866
366.825	26.737	817.017	652.695
367.840	26.925	816.500	652.901
368.854	26.619	815.887	651.253
369.869	26.255	815.056	649.224
370.883	26.040	814.382	647.856
371.898	25.999	814.379	647.649
372.913	25.815	813.745	646.429
373.927	25.957	812.938	646.238
374.942	26.301	812.083	646.735
375.956	26.251	811.647	646.150
376.971	26.289	811.093	645.789
377.986	26.329	810.949	645.758
379.000	26.674	810.428	646.517
380.015	26.691	809.856	646.067
381.029	26.490	809.284	644.836
382.044	26.551	808.522	644.390
383.059	26.655	808.017	644.298
384.073	26.577	807.590	643.624
385.088	26.745	807.269	643.909
386.102	26.764	806.463	643.276
387.117	26.509	805.882	641.851
388.132	26.467	805.146	641.061
389.146	26.218	804.238	639.399
390.161	25.754	803.392	637.030
391.175	25.702	803.406	636.799
392.190	26.250	803.256	638.561
393.205	26.278	802.975	638.382
394.219	25.196	801.543	633.367
395.234	23.616	799.198	625.890
396.248	23.048	797.685	622.653
397.263	24.079	798.672	626.998
398.278	25.749	800.175	634.011
399.292	26.341	800.076	635.959
400.307	26.069	799.250	634.290
401.321	25.953	798.884	633.534
402.336	26.026	798.359	633.321
403.350	26.273	798.517	634.257
404.365	26.720	798.506	635.761
405.380	27.064	797.902	636.429
406.394	27.264	797.828	637.012
407.409	27.601	797.754	638.079
408.423	27.385	797.328	636.924
409.438	27.242	796.295	635.543
410.453	27.435	796.103	636.007
411.467	27.475	795.984	635.998
412.482	27.417	794.991	634.944
413.496	27.259	794.490	633.937
414.511	27.402	794.395	634.304
415.526	27.500	793.811	634.124
416.540	27.367	793.650	633.476
417.555	27.271	793.352	632.849
418.569	27.186	791.916	631.353
419.584	26.930	791.932	630.418
420.599	27.024	791.432	630.292
421.613	105.866	1277.052	1434.302
422.628	90.918	1347.808	1434.422
