DTS Sentinel unit serial number:	SN413079Multiplexer serial number:	ORYXHardware model number:	OX4-SRSoftware version number:	ORYX F/W v4.00 Oryx Data Collector v3.7.2.0data status	okinstallation	princeton_trtdifferential loss correction	single-endedforward channel	channel 3reverse channel	N/Adate	2019/09/11time	01:26:11forward acquisition time	60.00reverse acquisition time	0.00gamma	496.2192k internal	0.2332k external	0.2332temperature offset calibration	0.9910default loss term (dB/km)	0.3790temperature slope calibration	1.0000multiplexer offset coefficient	1.0000multiplexer slope coefficient	1.0000fibre end	0.00T internal ref (°C)	29.12T ext. ref 1 (°C)	-0.31T ext. ref 2 (°C)	23.42length (m)	temperature (°C)	Stokes	anti-Stokes-747.200	437.044	-0.112	0.247
-746.185	-42.523	-0.257	-0.132
-745.171	0.380	-0.221	-0.159
-744.156	800.000	-0.108	0.408
-743.142	-108.347	0.074	-0.016
-742.127	442.610	-0.032	0.070
-741.112	-142.703	0.194	-0.019
-740.098	127.848	0.073	-0.094
-739.083	96.039	-0.051	0.059
-738.069	-163.331	-0.136	-0.007
-737.054	-133.845	-0.336	-0.042
-736.039	-200.000	-0.073	0.445
-735.025	-143.920	0.274	-0.026
-734.010	800.000	0.071	-0.197
-732.996	50.918	-0.329	-0.314
-731.981	-200.000	-0.009	-0.057
-730.966	455.320	-0.051	0.114
-729.952	44.032	-0.039	0.036
-728.937	355.768	-0.123	-0.245
-727.923	491.995	0.072	-0.165
-726.908	394.304	-0.092	0.193
-725.894	-200.000	-0.057	-0.315
-724.879	800.000	0.086	-0.258
-723.864	-200.000	0.026	-0.347
-722.850	144.262	-0.163	0.219
-721.835	-106.908	0.136	-0.030
-720.821	-150.343	-0.245	-0.019
-719.806	-59.946	-0.075	0.032
-718.791	-66.614	0.026	0.010
-717.777	-143.363	0.308	0.030
-716.762	-200.000	0.007	-0.099
-715.748	-200.000	-0.011	-0.191
-714.733	64.199	-0.151	-0.153
-713.718	-131.318	-0.275	-0.037
-712.704	28.042	-0.217	0.184
-711.689	-188.094	0.287	-0.004
-710.675	-12.322	-0.180	0.118
-709.660	-51.688	0.047	-0.022
-708.645	220.277	-0.209	-0.336
-707.631	309.304	-0.203	-0.380
-706.616	-135.900	-0.714	-0.085
-705.602	213.144	0.081	0.128
-704.587	-167.118	-0.331	-0.014
-703.572	-31.090	-0.480	0.272
-702.558	586.927	-0.181	-0.448
-701.543	-200.000	-0.004	-0.267
-700.529	255.026	0.186	0.319
-699.514	17.109	-0.148	-0.118
-698.499	99.614	0.128	-0.149
-697.485	-156.137	0.208	0.013
-696.470	226.676	0.129	-0.210
-695.456	139.850	-0.022	-0.029
-694.441	300.357	0.025	0.047
-693.426	-15.177	-0.109	-0.070
-692.412	-185.647	-0.115	0.002
-691.397	800.000	0.039	0.130
-690.383	-158.209	0.157	-0.009
-689.368	-115.136	0.058	0.011
-688.354	2.825	0.115	-0.084
-687.339	135.057	-0.260	-0.339
-686.324	302.970	-0.080	0.149
-685.310	121.076	-0.247	0.309
-684.295	-142.964	-0.276	-0.027
-683.281	-86.862	-0.083	-0.025
-682.266	-35.858	-0.229	-0.125
-681.251	-200.000	0.000	0.120
-680.237	23.890	-0.124	-0.103
-679.222	145.140	0.138	0.186
-678.208	457.847	-0.075	0.168
-677.193	-112.359	-0.219	0.044
-676.178	-26.435	0.213	-0.125
-675.164	28.112	0.162	0.137
-674.149	157.606	-0.031	0.044
-673.135	-52.029	0.281	-0.131
-672.120	200.795	0.184	0.284
-671.105	100.871	-0.078	0.091
-670.091	-200.000	0.008	-0.116
-669.076	-173.254	0.315	-0.010
-668.062	-48.080	-0.276	0.134
-667.047	-164.347	-0.252	-0.012
-666.032	-114.021	-0.136	0.026
-665.018	113.338	0.045	0.055
-664.003	357.777	0.198	-0.396
-662.989	118.937	-0.065	-0.081
-661.974	247.160	0.117	-0.198
-660.959	800.000	-0.145	-0.417
-659.945	-9.130	-0.222	-0.149
-658.930	33.791	-0.260	0.227
-657.916	17.984	-0.098	0.078
-656.901	262.655	0.081	-0.141
-655.886	362.501	-0.191	-0.385
-654.872	76.425	0.292	-0.310
-653.857	-136.022	-0.321	0.038
-652.843	800.000	-0.027	-0.106
-651.828	-16.700	0.326	-0.207
-650.814	17.424	-0.115	-0.091
-649.799	800.000	0.041	0.138
-648.784	34.523	0.250	-0.219
-647.770	235.823	-0.268	0.445
-646.755	-106.113	-0.152	-0.034
-645.741	430.935	0.033	-0.072
-644.726	-73.414	0.126	0.046
-643.711	238.231	-0.094	0.157
-642.697	-190.078	-0.067	0.001
-641.682	44.214	0.130	0.120
-640.668	2.643	0.098	-0.071
-639.653	49.897	-0.162	-0.153
-638.638	-21.261	0.165	-0.101
-637.624	-200.000	0.012	-0.239
-636.609	800.000	-0.064	-0.277
-635.595	-143.920	-0.261	-0.025
-634.580	-116.555	0.214	-0.040
-633.565	127.910	0.049	-0.062
-632.551	142.589	-0.129	0.172
-631.536	-188.382	0.139	0.002
-630.522	-85.549	-0.207	-0.065
-629.507	800.000	-0.043	-0.166
-628.492	47.742	0.096	-0.090
-627.478	70.306	0.163	0.168
-626.463	-159.304	0.074	0.004
-625.449	39.182	-0.150	-0.134
-624.434	248.881	-0.128	0.217
-623.419	31.147	-0.127	0.109
-622.405	-200.000	-0.035	-0.165
-621.390	283.627	-0.050	-0.090
-620.376	373.074	0.057	-0.115
-619.361	-71.351	-0.451	0.169
-618.346	-36.549	0.283	-0.153
-617.332	800.000	0.064	-0.231
-616.317	800.000	-0.099	-0.371
-615.303	-200.000	-0.017	-0.274
-614.288	25.068	-0.352	-0.292
-613.273	-178.134	-0.484	-0.011
-612.259	37.774	0.103	-0.092
-611.244	188.026	0.116	-0.173
-610.230	-86.090	-0.166	0.051
-609.215	119.498	-0.356	-0.442
-608.201	58.076	-0.059	0.058
-607.186	-96.695	-0.239	0.063
-606.171	-33.637	-0.247	-0.136
-605.157	4.204	-0.037	0.027
-604.142	-106.278	-0.218	-0.049
-603.128	-1.953	-0.082	-0.057
-602.113	-200.000	-0.002	-0.281
-601.098	-200.000	-0.026	0.195
-600.084	101.562	-0.240	0.280
-599.069	-80.939	-0.091	0.030
-598.055	37.766	0.266	0.237
-597.040	-90.739	-0.169	0.049
-596.025	-155.363	0.126	-0.008
-595.011	-136.058	-0.202	-0.024
-593.996	21.441	-0.150	0.122
-592.982	145.687	0.088	-0.118
-591.967	102.155	0.224	-0.261
-590.952	-91.115	-0.249	-0.072
-589.938	90.036	0.069	0.077
-588.923	800.000	-0.071	-0.241
-587.909	63.071	0.168	-0.168
-586.894	255.342	0.122	-0.208
-585.879	598.043	0.154	0.381
-584.865	-200.000	0.052	-0.446
-583.850	20.944	0.116	0.094
-582.836	-26.909	0.144	0.084
-581.821	-126.009	0.201	-0.030
-580.806	69.742	0.125	-0.129
-579.792	107.709	-0.048	0.058
-578.777	85.514	-0.237	-0.260
-577.763	49.118	-0.202	-0.190
-576.748	800.000	0.056	0.215
-575.733	800.000	0.040	-0.113
-574.719	-200.000	0.006	0.348
-573.704	-30.057	-0.157	0.089
-572.690	261.382	-0.068	-0.117
-571.675	-200.000	-0.025	0.261
-570.661	-130.161	-0.143	-0.019
-569.646	-106.155	-0.190	-0.043
-568.631	109.637	0.209	0.250
-567.617	-200.000	0.061	0.351
-566.602	15.649	0.304	-0.239
-565.588	14.897	-0.116	0.091
-564.573	-19.036	-0.021	-0.013
-563.558	147.487	-0.222	0.298
-562.544	87.784	0.063	0.069
-561.529	84.341	-0.127	-0.139
-560.515	-66.852	0.084	0.033
-559.500	-6.581	0.302	-0.206
-558.485	479.018	-0.082	0.185
-557.471	-49.593	-0.151	-0.072
-556.456	22.475	-0.214	-0.175
-555.442	-200.000	0.074	-0.465
-554.427	12.819	0.268	-0.207
-553.412	-145.045	-0.157	0.014
-552.398	-162.887	-0.143	0.007
-551.383	-27.390	-0.162	0.094
-550.369	800.000	0.040	0.167
-549.354	-38.244	0.071	-0.037
-548.339	693.995	0.052	0.137
-547.325	417.909	0.148	-0.316
-546.310	800.000	-0.070	-0.231
-545.296	-200.000	0.059	-0.394
-544.281	62.017	0.197	-0.196
-543.266	-41.030	0.427	0.220
-542.252	-116.521	0.020	0.004
-541.237	-131.964	0.435	0.057
-540.223	175.764	0.251	-0.364
-539.208	638.364	0.103	-0.262
-538.193	800.000	-0.088	-0.322
-537.179	-200.000	-0.075	-0.385
-536.164	161.981	-0.131	-0.184
-535.150	-200.000	0.021	0.099
-534.135	-74.349	-0.181	0.065
-533.121	-85.576	-0.326	0.101
-532.106	102.058	-0.162	-0.188
-531.091	424.162	-0.124	-0.267
-530.077	-200.000	0.003	0.104
-529.062	800.000	-0.055	0.155
-528.048	-77.063	-0.171	0.060
-527.033	-144.264	-0.185	-0.017
-526.018	-107.284	0.517	0.114
-525.004	8.271	0.119	0.089
-523.989	631.947	-0.072	0.181
-522.975	-37.753	0.062	0.033
-521.960	183.615	0.036	0.053
-520.945	-200.000	-0.035	0.378
-519.931	146.566	0.072	-0.097
-518.916	-152.086	0.151	-0.011
-517.902	-108.212	-0.341	-0.074
-516.887	-70.359	-0.318	-0.120
-515.872	60.481	0.139	0.137
-514.858	-200.000	0.020	-0.161
-513.843	-200.000	-0.004	-0.026
-512.829	-200.000	-0.056	0.261
-511.814	267.696	0.056	-0.099
-510.799	146.195	0.056	-0.075
-509.785	-166.450	0.161	-0.007
-508.770	-183.207	0.076	-0.001
-507.756	-142.100	-0.126	-0.012
-506.741	211.098	0.065	0.102
-505.726	-23.296	0.127	-0.076
-504.712	114.842	-0.188	-0.228
-503.697	215.989	-0.183	-0.290
-502.683	-200.000	-0.016	-0.086
-501.668	165.061	0.202	0.284
-500.653	-78.885	-0.218	-0.074
-499.639	32.500	-0.201	-0.173
-498.624	404.538	-0.102	0.214
-497.610	-18.613	0.293	-0.182
-496.595	396.303	0.045	0.094
-495.581	93.278	-0.055	0.062
-494.566	-64.475	-0.264	0.107
-493.551	33.655	0.215	-0.187
-492.537	-133.234	-0.277	0.035
-491.522	-130.629	0.273	-0.037
-490.508	-133.501	0.241	-0.030
-489.493	64.771	-0.211	0.212
-488.478	-48.904	-0.108	0.051
-487.464	-28.778	-0.143	-0.082
-486.449	-109.193	-0.111	0.023
-485.435	-48.270	-0.329	-0.158
-484.420	-129.283	-0.091	-0.013
-483.405	-118.517	0.082	-0.014
-482.391	65.396	-0.120	-0.121
-481.376	-37.181	0.147	-0.078
-480.362	-200.000	-0.010	0.090
-479.347	-151.009	-0.211	0.016
-478.332	636.203	-0.087	0.220
-477.318	-158.132	-0.101	0.006
-476.303	-9.595	-0.188	-0.125
-475.289	-47.750	0.073	0.035
-474.274	521.608	0.026	-0.061
-473.259	754.720	-0.029	0.078
-472.245	-73.427	0.075	-0.027
-471.230	-100.742	0.226	-0.055
-470.216	643.132	-0.045	0.114
-469.201	-200.000	0.013	-0.123
-468.186	-149.465	0.109	0.009
-467.172	21.523	-0.175	-0.141
-466.157	-47.123	-0.045	0.022
-465.143	-200.000	-0.014	-0.084
-464.128	-58.933	0.160	-0.069
-463.113	-129.807	-0.164	-0.022
-462.099	68.235	-0.040	-0.041
-461.084	112.290	0.210	0.253
-460.070	-146.906	-0.016	-0.001
-459.055	42.637	-0.089	0.081
-458.040	87.452	0.371	-0.408
-457.026	-200.000	0.000	-0.061
-456.011	800.000	0.016	-0.052
-454.997	126.601	0.050	0.063
-453.982	800.000	-0.044	0.129
-452.968	481.115	0.039	-0.087
-451.953	-88.145	0.064	-0.019
-450.938	130.985	0.160	0.205
-449.924	-2.178	0.209	0.146
-448.909	-22.690	-0.201	0.121
-447.895	79.428	0.229	-0.244
-446.880	-49.711	-0.172	-0.081
-445.865	-39.175	-0.184	0.096
-444.851	14.072	-0.337	0.261
-443.836	151.925	-0.118	0.160
-442.822	800.000	0.040	-0.128
-441.807	-57.026	-0.137	0.060
-440.792	283.436	0.093	-0.166
-439.778	-95.796	0.133	-0.035
-438.763	-25.773	0.317	0.186
-437.749	11.087	-0.185	0.140
-436.734	-81.027	-0.174	-0.057
-435.719	26.836	0.276	-0.230
-434.705	631.392	-0.190	0.479
-433.690	800.000	-0.036	0.139
-432.676	-200.000	0.037	-0.162
-431.661	-8.862	-0.070	-0.047
-430.646	82.154	0.220	0.237
-429.632	800.000	0.097	-0.305
-428.617	-87.777	0.245	-0.073
-427.603	-33.056	0.178	0.098
-426.588	-69.514	0.044	0.017
-425.573	166.765	-0.240	0.338
-424.559	800.000	-0.055	0.186
-423.544	29.427	-0.203	0.171
-422.530	-200.000	-0.023	-0.428
-421.515	-200.000	-0.012	-0.201
-420.500	45.285	-0.021	0.019
-419.486	168.258	-0.190	-0.269
-418.471	-189.185	0.129	-0.002
-417.457	-159.418	-0.334	0.019
-416.442	-120.480	0.239	-0.040
-415.428	140.845	-0.056	0.073
-414.413	321.480	-0.135	-0.255
-413.398	-200.000	0.026	0.306
-412.384	-200.000	-0.015	0.126
-411.369	-200.000	-0.113	0.497
-410.355	-161.511	0.323	-0.016
-409.340	-73.099	-0.079	-0.029
-408.325	-200.000	0.030	0.489
-407.311	-23.238	0.243	0.145
-406.296	-49.267	0.066	0.031
-405.282	62.448	0.219	-0.217
-404.267	-131.257	0.079	0.010
-403.252	30.683	-0.219	0.186
-402.238	-49.218	-0.301	0.143
-401.223	800.000	0.058	0.179
-400.209	800.000	0.038	0.139
-399.194	683.304	-0.114	0.296
-398.179	416.574	0.059	0.124
-397.165	418.521	0.042	0.089
-396.150	15.770	0.287	0.224
-395.136	45.577	0.141	0.129
-394.121	-200.000	0.070	-0.538
-393.106	28.649	0.123	-0.103
-392.092	-73.850	-0.262	-0.094
-391.077	215.574	-0.093	-0.147
-390.063	87.305	0.285	0.312
-389.048	-200.000	0.041	0.289
-388.033	-200.000	-0.014	0.569
-387.019	-200.000	0.042	0.279
-386.004	420.625	-0.072	-0.153
-384.990	8.630	-0.383	-0.286
-383.975	-200.000	0.013	-0.088
-382.960	-190.670	0.335	-0.004
-381.946	800.000	-0.054	0.215
-380.931	42.211	0.083	-0.075
-379.917	261.603	0.144	0.247
-378.902	-4.962	0.097	-0.067
-377.888	800.000	0.108	0.300
-376.873	-180.220	0.463	0.010
-375.858	-200.000	0.021	0.108
-374.844	800.000	-0.035	0.139
-373.829	133.233	-0.176	-0.226
-372.815	-102.226	-0.263	0.063
-371.800	370.502	0.183	-0.367
-370.785	-200.000	0.034	-0.250
-369.771	-200.000	-0.052	0.247
-368.756	-200.000	0.011	0.055
-367.742	-149.589	-0.244	0.019
-366.727	-101.208	-0.092	-0.022
-365.712	-200.000	0.034	0.169
-364.698	2.159	-0.161	0.115
-363.683	-107.021	0.159	0.035
-362.669	-109.706	-0.414	-0.086
-361.654	-200.000	0.044	-0.485
-360.639	54.864	0.055	0.053
-359.625	-144.126	-0.453	-0.042
-358.610	-123.063	-0.115	-0.018
-357.596	-124.353	-0.223	-0.034
-356.581	70.248	-0.108	0.110
-355.566	9.232	-0.171	0.128
-354.552	-147.233	0.232	-0.020
-353.537	-200.000	-0.007	0.133
-352.523	-200.000	0.025	0.235
-351.508	-43.408	-0.411	-0.206
-350.493	513.992	0.070	-0.161
-349.479	331.410	0.108	0.207
-348.464	8.353	-0.160	-0.119
-347.450	49.435	-0.084	-0.078
-346.435	800.000	0.075	0.307
-345.420	36.276	-0.244	-0.213
-344.406	36.467	0.360	0.315
-343.391	-178.447	-0.160	0.004
-342.377	1.101	0.124	-0.088
-341.362	-109.007	0.132	-0.028
-340.348	800.000	0.055	0.162
-339.333	131.428	-0.092	-0.117
-338.318	-121.971	0.218	-0.036
-337.304	-37.043	-0.227	-0.120
-336.289	-200.000	0.019	-0.349
-335.275	38.140	-0.093	-0.082
-334.260	476.301	-0.163	0.364
-333.245	84.417	0.177	0.192
-332.231	143.330	0.142	0.187
-331.216	800.000	-0.037	0.158
-330.202	-36.700	-0.077	-0.041
-329.187	-42.667	0.195	-0.098
-328.172	295.951	-0.093	0.168
-327.158	-200.000	0.057	-0.311
-326.143	-148.154	0.437	0.036
-325.129	800.000	0.028	-0.096
-324.114	769.677	0.144	0.388
-323.099	-59.765	0.302	0.128
-322.085	-200.000	0.048	0.228
-321.070	-90.634	-0.185	0.053
-320.056	-165.147	0.102	0.004
-319.041	475.438	-0.058	-0.129
-318.026	203.314	0.114	0.175
-317.012	-200.000	-0.003	-0.087
-315.997	136.705	-0.118	-0.153
-314.983	14.998	0.106	0.082
-313.968	800.000	-0.072	-0.241
-312.953	-9.795	-0.236	-0.155
-311.939	-66.128	0.440	-0.174
-310.924	314.323	-0.050	0.093
-309.910	-118.682	-0.313	-0.055
-308.895	-200.000	0.029	0.400
-307.880	395.427	0.116	0.240
-306.866	-17.197	0.193	0.120
-305.851	767.758	-0.080	0.216
-304.837	151.978	0.119	0.161
-303.822	-39.763	0.025	-0.013
-302.807	-200.000	-0.003	0.054
-301.793	-40.083	-0.078	-0.040
-300.778	653.028	-0.159	-0.403
-299.764	-200.000	0.010	0.226
-298.749	-200.000	-0.042	0.287
-297.735	-9.649	-0.068	0.045
-296.720	-141.017	-0.177	-0.018
-295.705	98.724	0.159	0.181
-294.691	322.271	0.089	0.167
-293.676	128.064	-0.089	0.112
-292.662	250.012	-0.070	-0.117
-291.647	-200.000	0.037	-0.173
-290.632	-61.779	0.192	-0.080
-289.618	771.386	-0.120	-0.323
-288.603	800.000	0.083	0.246
-287.589	79.846	-0.020	0.021
-286.574	-26.049	0.098	-0.057
-285.559	343.942	-0.109	-0.211
-284.545	800.000	-0.027	-0.112
-283.530	-13.527	-0.075	-0.048
-282.516	-95.336	0.389	0.103
-281.501	28.824	-0.207	-0.174
-280.486	800.000	0.106	-0.419
-279.472	-92.731	0.325	0.090
-278.457	-200.000	0.042	0.204
-277.443	-200.000	0.001	-0.219
-276.428	82.783	0.159	0.171
-275.413	121.935	0.120	-0.148
-274.399	32.933	0.319	0.273
-273.384	800.000	-0.072	0.204
-272.370	132.706	0.087	0.111
-271.355	548.693	-0.064	0.151
-270.340	-200.000	0.033	0.313
-269.326	-12.223	0.236	0.153
-268.311	800.000	-0.080	-0.281
-267.297	153.504	-0.127	0.171
-266.282	-200.000	-0.002	0.198
-265.267	-116.578	-0.263	-0.048
-264.253	-51.239	0.142	-0.066
-263.238	-8.791	-0.114	0.076
-262.224	-119.047	0.088	0.015
-261.209	-41.366	-0.184	0.094
-260.195	160.142	0.129	0.177
-259.180	-200.000	0.016	-0.560
-258.165	-134.046	0.325	0.040
-257.151	-97.512	0.067	-0.017
-256.136	760.939	-0.030	-0.081
-255.122	800.000	0.070	-0.226
-254.107	800.000	0.026	-0.112
-253.092	-43.618	-0.233	-0.116
-252.078	-76.579	-0.126	-0.043
-251.063	-200.000	0.055	0.242
-250.049	116.885	0.094	-0.113
-249.034	-180.318	-0.022	0.000
-248.019	800.000	-0.031	-0.116
-247.005	-200.000	-0.082	-0.410
-245.990	10.107	-0.141	0.106
-244.976	-200.000	-0.129	0.560
-243.961	-170.317	0.334	-0.012
-242.946	-138.638	0.135	0.015
-241.932	-200.000	-0.006	-0.125
-240.917	201.917	0.132	-0.201
-239.903	-105.447	0.115	-0.026
-238.888	16.897	0.116	-0.091
-237.873	-70.866	-0.217	0.081
-236.859	742.538	0.132	0.350
-235.844	800.000	0.076	-0.285
-234.830	-79.677	-0.159	0.053
-233.815	-80.389	-0.521	0.172
-232.800	-200.000	0.029	-0.185
-231.786	-74.055	-0.354	-0.126
-230.771	-43.312	-0.297	0.148
-229.757	-117.680	0.356	0.063
-228.742	110.336	0.189	-0.224
-227.727	-127.115	0.157	-0.023
-226.713	-65.528	-0.127	-0.050
-225.698	-200.000	-0.005	0.100
-224.684	800.000	-0.111	-0.402
-223.669	-60.629	0.304	0.127
-222.655	-30.898	0.222	0.124
-221.640	145.709	-0.161	-0.213
-220.625	-154.193	0.296	-0.020
-219.611	86.126	0.143	0.155
-218.596	177.377	-0.085	0.121
-217.582	220.553	-0.082	-0.129
-216.567	-96.647	-0.300	-0.078
-215.552	337.998	0.073	-0.141
-214.538	53.517	-0.105	0.100
-213.523	-7.908	0.082	0.054
-212.509	-142.173	0.219	0.021
-211.494	-76.412	-0.427	0.148
-210.479	-37.436	0.191	-0.100
-209.465	800.000	0.061	0.187
-208.450	175.460	0.043	0.061
-207.436	123.581	-0.161	0.198
-206.421	-200.000	-0.032	0.233
-205.406	-40.022	0.124	0.064
-204.392	60.247	-0.184	0.179
-203.377	-149.963	0.276	-0.021
-202.363	-200.000	-0.076	-0.379
-201.348	91.078	-0.179	-0.198
-200.333	-200.000	0.030	-0.343
-199.319	-200.000	0.050	-0.258
-198.304	-76.668	-0.294	0.102
-197.290	61.215	-0.131	-0.129
-196.275	-0.953	-0.320	0.223
-195.260	91.165	0.133	0.147
-194.246	-196.693	0.226	-0.001
-193.231	-86.073	0.250	-0.076
-192.217	28.448	0.206	-0.172
-191.202	284.368	-0.019	0.033
-190.187	-32.887	-0.180	-0.099
-189.173	-75.500	0.147	0.052
-188.158	800.000	-0.115	-0.427
-187.144	-200.000	-0.019	0.126
-186.129	-39.351	-0.198	-0.102
-185.114	-69.179	0.067	-0.025
-184.100	-53.189	0.195	-0.088
-183.085	800.000	0.141	-0.397
-182.071	-26.971	-0.131	-0.075
-181.056	800.000	-0.065	-0.217
-180.042	639.144	-0.020	-0.049
-179.027	-63.232	-0.288	-0.117
-178.012	-23.997	-0.156	-0.092
-176.998	-42.094	0.235	0.118
-175.983	800.000	-0.040	0.120
-174.969	-67.195	-0.011	-0.004
-173.954	-146.365	0.305	-0.026
-172.939	592.313	-0.082	-0.200
-171.925	-25.343	0.257	-0.149
-170.910	186.192	-0.176	0.258
-169.896	-83.371	0.194	0.061
-168.881	277.590	0.106	0.186
-167.866	-63.555	0.124	-0.050
-166.852	242.986	0.060	0.098
-165.837	86.752	-0.064	-0.070
-164.823	67.950	0.367	0.369
-163.808	99.721	0.097	0.110
-162.793	-102.422	0.204	0.048
-161.779	-119.132	-0.040	0.007
-160.764	800.000	0.080	0.308
-159.750	-106.927	0.234	0.051
-158.735	134.264	0.053	0.068
-157.720	297.052	0.061	0.110
-156.706	41.973	-0.314	0.281
-155.691	51.505	0.206	0.192
-154.677	39.012	0.264	-0.232
-153.662	12.030	0.099	-0.075
-152.647	80.792	-0.208	0.220
-151.633	-200.000	0.031	0.280
-150.618	88.735	0.011	-0.012
-149.604	93.804	0.330	0.368
-148.589	-140.323	0.125	0.013
-147.574	488.916	-0.031	-0.070
-146.560	800.000	-0.063	-0.190
-145.545	-200.000	0.030	0.222
-144.531	-81.848	0.077	-0.025
-143.516	237.355	-0.133	0.217
-142.502	110.702	0.059	0.070
-141.487	800.000	-0.101	-0.361
-140.472	323.606	0.112	0.209
-139.458	423.778	-0.089	0.188
-138.443	-101.194	0.209	-0.050
-137.429	532.033	-0.151	-0.352
-136.414	33.701	0.230	-0.196
-135.399	541.589	-0.096	0.224
-134.385	800.000	0.095	-0.316
-133.370	234.716	-0.021	0.035
-132.356	243.544	-0.076	-0.125
-131.341	-61.433	0.090	0.037
-130.326	-200.000	0.039	0.267
-129.312	-200.000	0.030	-0.191
-128.297	-186.478	0.473	0.007
-127.283	4.180	0.183	-0.131
-126.268	-110.162	0.190	-0.039
-125.253	-79.447	0.277	0.092
-124.239	-200.000	0.018	0.129
-123.224	-200.000	0.038	0.221
-122.210	31.003	0.146	0.123
-121.195	-200.000	-0.002	0.208
-120.180	-60.142	-0.276	0.116
-119.166	-139.303	-0.216	0.023
-118.151	-200.000	0.013	0.180
-117.137	-200.000	0.024	-0.392
-116.122	-110.333	0.030	0.006
-115.107	6.252	0.083	-0.061
-114.093	-200.000	-0.022	0.286
-113.078	-13.235	-0.145	0.092
-112.064	-19.223	0.239	-0.146
-111.049	-28.732	-0.251	-0.142
-110.034	-120.100	-0.231	-0.039
-109.020	582.960	0.133	0.320
-108.005	37.363	0.084	-0.073
-106.991	-200.000	0.073	-0.444
-105.976	88.553	-0.069	0.076
-104.962	345.853	0.167	-0.323
-103.947	800.000	0.070	-0.234
-102.932	-200.000	0.001	0.074
-101.918	800.000	0.070	0.212
-100.903	226.456	0.051	0.081
-99.889	-21.398	0.092	-0.055
-98.874	-65.489	-0.129	-0.051
-97.859	-185.131	-0.041	-0.001
-96.845	-133.260	0.249	0.031
-95.830	129.579	-0.191	-0.240
-94.816	-200.000	0.022	-0.097
-93.801	-95.894	-0.131	-0.034
-92.786	76.545	0.122	-0.127
-91.772	479.059	0.153	0.340
-90.757	-3.196	-0.172	-0.117
-89.743	362.202	0.096	-0.190
-88.728	-200.000	-0.010	-0.101
-87.713	800.000	-0.071	0.227
-86.699	-200.000	-0.007	0.172
-85.684	70.325	-0.088	-0.089
-84.670	-64.952	0.225	0.089
-83.655	800.000	0.048	-0.146
-82.640	11.050	0.123	-0.092
-81.626	180.983	0.125	-0.180
-80.611	328.414	0.093	0.175
-79.597	32.867	0.245	0.208
-78.582	-131.183	0.154	0.020
-77.567	19.496	0.262	0.207
-76.553	800.000	0.074	0.277
-75.538	-137.187	0.045	-0.005
-74.524	9.093	0.119	0.088
-73.509	102.571	-0.097	-0.111
-72.494	-132.026	-0.167	0.021
-71.480	-15.653	-0.185	0.116
-70.465	-116.483	0.230	-0.042
-69.451	-86.403	0.225	0.068
-68.436	-133.657	-0.286	0.035
-67.422	147.217	-0.096	0.127
-66.407	-67.840	-0.100	0.038
-65.392	-82.636	-0.287	-0.091
-64.378	-93.529	0.314	0.085
-63.363	709.538	0.094	-0.243
-62.349	800.000	0.058	-0.175
-61.334	92.045	-0.967	-1.067
-60.319	307.145	0.394	0.719
-59.305	-200.000	-0.302	-1.327
-58.290	241.382	0.739	1.208
-57.276	540.203	0.706	1.646
-56.261	-200.000	107.784	628.401
-55.246	522.118	1515.344	3484.335
-54.232	176.114	2703.952	3844.940
-53.217	110.962	2183.169	2573.937
-52.203	39.902	1705.608	1499.754
-51.188	32.313	1518.548	1283.655
-50.173	29.932	1492.626	1245.696
-49.159	50.657	1549.268	1435.756
-48.144	50.872	1565.488	1452.205
-47.130	32.472	1520.534	1286.221
-46.115	29.376	1506.177	1253.028
-45.100	29.161	1503.180	1249.031
-44.086	29.250	1500.355	1247.236
-43.071	29.188	1498.214	1244.984
-42.057	29.080	1496.829	1243.058
-41.042	29.206	1495.438	1242.704
-40.027	29.202	1493.757	1241.225
-39.013	29.080	1492.343	1239.181
-37.998	29.031	1491.159	1237.822
-36.984	29.018	1490.063	1236.774
-35.969	29.071	1488.655	1235.911
-34.954	29.046	1487.637	1234.852
-33.940	29.056	1486.182	1233.659
-32.925	29.119	1484.278	1232.457
-31.911	29.129	1482.999	1231.407
-30.896	29.157	1482.100	1230.800
-29.881	29.179	1480.912	1229.911
-28.867	29.266	1479.352	1229.147
-27.852	29.247	1478.056	1227.895
-26.838	29.206	1476.708	1226.455
-25.823	29.094	1475.664	1224.793
-24.809	29.160	1473.406	1223.311
-23.794	29.195	1472.137	1222.439
-22.779	29.195	1470.818	1221.299
-21.765	29.176	1469.831	1220.302
-20.750	29.184	1469.169	1219.755
-19.736	29.059	1468.142	1218.029
-18.721	29.176	1466.612	1217.483
-17.706	29.096	1465.851	1216.273
-16.692	29.212	1464.478	1215.854
-15.677	29.117	1463.473	1214.347
-14.663	29.236	1462.017	1213.872
-13.648	29.101	1461.465	1212.480
-12.633	29.120	1460.406	1211.674
-11.619	29.145	1459.617	1211.139
-10.604	29.146	1458.795	1210.416
-9.590	29.065	1458.314	1209.433
-8.575	29.105	1457.051	1208.598
-7.560	29.109	1456.090	1207.784
-6.546	29.093	1455.434	1207.085
-5.531	29.108	1454.435	1206.308
-4.517	29.115	1454.066	1206.002
-3.502	29.113	1452.645	1204.759
-2.487	29.142	1451.423	1203.887
-1.473	29.031	1450.789	1202.591
-0.458	29.119	1449.012	1201.646
0.556	26.686	1440.091	1190.951
1.571	23.960	1414.737	1152.254
2.586	20.803	1355.625	1084.384
3.600	19.338	1274.374	1010.715
4.615	18.239	1229.873	969.118
5.629	15.772	1174.137	911.761
6.644	7.609	1090.158	805.241
7.659	0.809	1050.456	742.547
8.673	-0.246	1044.946	733.431
9.688	-0.310	1041.518	730.651
10.702	-0.388	1039.857	729.039
11.717	-0.305	1037.402	727.656
12.731	2.516	1041.144	743.936
13.746	11.315	1053.625	795.892
14.761	18.230	1063.129	836.940
15.775	20.030	1064.236	846.543
16.790	20.250	1063.207	846.720
17.804	20.012	1062.758	845.128
18.819	19.806	1062.099	843.526
19.834	19.924	1061.499	843.550
20.848	19.965	1061.205	843.439
21.863	20.085	1061.056	843.829
22.877	20.070	1060.486	843.230
23.892	20.139	1058.927	842.253
24.907	19.868	1058.528	840.543
25.921	20.107	1057.859	841.096
26.936	20.115	1057.267	840.589
27.950	20.083	1055.943	839.308
28.965	20.118	1054.798	838.492
29.980	20.024	1053.151	836.657
30.994	19.879	1052.015	834.979
32.009	20.075	1050.897	834.966
33.023	20.250	1049.947	834.976
34.038	19.934	1049.021	832.647
35.053	20.021	1047.891	832.096
36.067	20.211	1047.691	832.774
37.082	20.118	1046.503	831.310
38.096	20.199	1045.747	831.026
39.111	20.134	1045.744	830.638
40.126	20.539	1044.019	831.129
41.140	20.287	1042.923	828.981
42.155	19.968	1041.830	826.515
43.169	19.919	1040.341	825.029
44.184	19.835	1039.400	823.810
45.199	19.867	1038.144	822.893
46.213	19.820	1036.831	821.556
47.228	19.791	1036.148	820.805
48.242	19.851	1035.835	820.770
49.257	19.874	1034.339	819.622
50.271	20.088	1033.812	820.142
51.286	20.180	1032.363	819.356
52.301	20.109	1032.017	818.673
53.315	20.198	1031.324	818.471
54.330	20.047	1030.655	817.155
55.344	20.090	1029.438	816.322
56.359	20.131	1028.660	815.826
57.374	20.085	1027.565	814.666
58.388	19.922	1026.674	813.123
59.403	19.911	1026.249	812.662
60.417	20.100	1024.869	812.387
61.432	19.848	1024.163	810.571
62.447	19.754	1023.600	809.615
63.461	19.992	1022.822	810.042
64.476	19.963	1022.369	809.475
65.490	19.916	1021.291	808.333
66.505	19.841	1020.002	806.890
67.520	19.786	1019.241	805.961
68.534	19.950	1018.485	806.055
69.549	19.932	1017.464	805.090
70.563	19.490	1016.444	802.159
71.578	19.419	1015.674	801.152
72.593	19.586	1014.791	801.158
73.607	19.418	1013.382	799.195
74.622	19.404	1012.728	798.546
75.636	19.692	1012.042	799.267
76.651	19.936	1011.157	799.624
77.666	19.726	1010.401	797.988
78.680	19.767	1009.029	797.020
79.695	19.580	1009.167	796.196
80.709	19.671	1008.803	796.261
81.724	19.808	1007.704	795.950
82.739	19.759	1007.017	795.111
83.753	19.794	1005.799	794.242
84.768	19.945	1005.567	794.682
85.782	20.289	1004.410	795.275
86.797	20.459	1004.058	795.703
87.812	20.525	1002.374	794.600
88.826	20.264	1001.629	792.748
89.841	20.356	1000.872	792.497
90.855	20.338	1000.162	791.783
91.870	20.360	999.158	791.019
92.884	20.374	998.422	790.430
93.899	20.284	997.383	789.128
94.914	20.281	996.423	788.286
95.928	20.239	996.076	787.751
96.943	20.284	994.745	786.831
97.957	20.080	993.796	785.086
98.972	19.955	992.399	783.350
99.987	19.641	991.564	781.202
101.001	19.619	990.962	780.557
102.016	19.990	990.849	782.076
103.030	20.143	989.658	781.759
104.045	20.145	988.174	780.525
105.060	19.878	986.947	778.284
106.074	19.808	985.448	776.721
107.089	19.759	985.040	776.110
108.103	20.060	985.024	777.378
109.118	20.246	983.821	777.192
110.133	20.082	982.312	775.200
111.147	20.013	981.632	774.287
112.162	19.791	980.669	772.468
113.176	19.654	979.358	770.754
114.191	19.854	978.329	770.769
115.206	19.927	977.464	770.341
116.220	19.474	976.462	767.472
117.235	19.290	975.600	765.908
118.249	19.502	974.751	766.114
119.264	19.592	973.643	765.578
120.279	19.608	972.633	764.784
121.293	19.680	971.969	764.515
122.308	19.680	971.462	764.044
123.322	19.563	970.677	762.846
124.337	19.725	969.221	762.345
125.352	19.672	967.670	760.827
126.366	19.235	965.964	757.495
127.381	19.040	964.584	755.491
128.395	19.343	964.981	757.068
129.410	19.892	964.667	759.161
130.424	20.073	963.232	758.758
131.439	19.942	962.711	757.709
132.454	20.063	961.487	757.205
133.468	20.033	960.483	756.218
134.483	20.093	959.288	755.470
135.497	19.998	958.798	754.606
136.512	20.130	958.096	754.561
137.527	20.325	957.630	754.972
138.541	20.298	956.609	753.988
139.556	20.248	955.884	753.131
140.570	20.273	955.116	752.566
141.585	20.261	954.250	751.767
142.600	20.341	953.226	751.239
143.614	20.283	952.205	750.119
144.629	20.310	951.795	749.843
145.643	20.478	950.944	749.833
146.658	20.467	950.073	749.032
147.673	20.348	948.631	747.316
148.687	20.316	947.543	746.256
149.702	20.256	946.625	745.209
150.716	20.175	945.640	744.020
151.731	20.084	944.887	742.972
152.746	20.316	944.046	743.238
153.760	20.381	943.474	743.003
154.775	20.424	943.016	742.760
155.789	20.472	941.911	742.027
156.804	20.237	941.512	740.644
157.819	20.375	940.101	740.059
158.833	20.451	939.313	739.694
159.848	20.591	938.164	739.321
160.862	20.516	937.576	738.472
161.877	20.344	936.958	737.190
162.892	20.433	935.660	736.479
163.906	20.556	934.873	736.317
164.921	20.385	934.166	734.973
165.935	20.208	933.213	733.408
166.950	20.402	931.990	733.203
167.964	20.477	930.729	732.462
168.979	20.328	930.085	731.261
169.994	20.312	928.912	730.208
171.008	20.332	927.561	729.166
172.023	20.460	926.647	728.920
173.037	20.634	925.843	728.953
174.052	20.215	925.330	726.727
175.067	20.056	924.200	725.111
176.081	20.038	923.458	724.387
177.096	20.304	922.507	724.691
178.110	20.355	921.127	723.753
179.125	20.133	920.264	722.088
180.140	19.816	919.190	719.860
181.154	19.944	918.494	719.784
182.169	19.972	918.152	719.571
183.183	20.137	918.038	720.103
184.198	20.431	917.272	720.657
185.213	20.366	916.670	719.850
186.227	20.373	915.432	718.843
187.242	20.390	915.303	718.750
188.256	20.485	914.434	718.398
189.271	20.463	913.598	717.584
190.286	20.493	912.804	717.023
191.300	20.403	912.150	716.073
192.315	19.894	910.789	712.844
193.329	19.231	909.169	708.788
194.344	18.839	908.440	706.544
195.359	19.347	909.224	709.183
196.373	20.298	908.645	712.575
197.388	20.457	908.561	713.099
198.402	20.287	907.509	711.513
199.417	20.272	907.073	711.046
200.432	20.301	906.557	710.697
201.446	20.215	905.465	709.427
202.461	19.812	905.249	707.548
203.475	19.882	904.387	707.096
204.490	19.599	902.735	704.589
205.504	18.268	901.176	697.888
206.519	18.886	901.404	700.520
207.534	19.827	901.511	704.376
208.548	20.056	900.885	704.754
209.563	20.331	900.717	705.681
210.577	20.310	899.817	704.828
211.592	19.955	899.369	702.973
212.607	20.338	899.419	704.506
213.621	20.324	898.421	703.604
214.636	20.308	897.889	703.060
215.650	20.498	897.171	703.207
216.665	20.380	896.248	701.941
217.680	20.388	895.722	701.502
218.694	20.537	895.379	701.772
219.709	20.100	894.112	698.955
220.723	20.024	892.936	697.667
221.738	20.056	892.791	697.619
222.753	20.440	891.880	698.393
223.767	20.111	891.606	696.792
224.782	20.315	890.857	696.964
225.796	20.448	890.291	696.994
226.811	20.549	889.829	696.973
227.826	20.090	888.689	694.181
228.840	19.356	887.358	690.147
229.855	19.315	886.510	689.260
230.869	19.623	886.060	690.081
231.884	19.275	884.845	687.683
232.899	19.383	884.507	687.791
233.913	20.159	885.121	691.302
234.928	20.198	884.515	690.926
235.942	20.270	883.677	690.494
236.957	20.401	882.403	689.958
237.972	20.003	881.954	687.968
238.986	19.942	881.264	687.127
240.001	19.927	881.279	687.015
241.015	19.950	880.315	686.297
242.030	20.104	879.397	686.130
243.045	20.195	878.927	686.061
244.059	20.292	878.423	685.990
245.074	20.517	877.674	686.232
246.088	20.414	877.188	685.385
247.103	19.997	876.393	683.062
248.117	20.102	875.642	682.827
249.132	20.534	875.574	684.417
250.147	20.888	874.817	685.155
251.161	20.959	874.592	685.198
252.176	21.070	873.911	685.038
253.190	21.173	873.033	684.696
254.205	21.015	872.766	683.807
255.220	21.265	872.527	684.538
256.234	21.283	871.751	683.940
257.249	21.083	871.348	682.781
258.263	21.019	870.224	681.590
259.278	20.963	870.102	681.213
260.293	21.148	869.366	681.300
261.307	21.150	868.772	680.781
262.322	21.089	867.791	679.714
263.336	21.088	867.131	679.136
264.351	20.559	865.579	675.803
265.366	19.488	863.774	670.175
266.380	19.092	862.654	667.711
267.395	19.915	863.624	671.599
268.409	20.714	863.357	674.430
269.424	20.658	862.623	673.580
270.439	20.782	862.374	673.805
271.453	21.037	861.661	674.174
272.468	20.856	861.287	673.123
273.482	21.165	860.467	673.617
274.497	21.209	860.251	673.556
275.512	21.047	859.219	672.064
276.526	20.485	857.442	668.455
277.541	20.619	857.382	668.862
278.555	20.988	857.452	670.276
279.570	20.917	856.159	668.934
280.585	20.605	855.251	666.971
281.599	20.754	854.891	667.201
282.614	20.903	854.852	667.685
283.628	20.501	853.499	665.028
284.643	20.196	852.528	663.049
285.657	20.610	852.187	664.306
286.672	20.421	851.615	663.077
287.687	20.081	850.479	660.839
288.701	20.271	850.695	661.673
289.716	20.703	850.337	662.983
290.730	20.194	849.361	660.228
291.745	20.074	848.912	659.362
292.760	19.976	847.778	658.049
293.774	19.910	847.142	657.248
294.789	20.888	847.737	661.365
295.803	21.483	847.668	663.510
296.818	21.455	847.004	662.826
297.833	21.657	846.388	663.049
298.847	21.381	845.182	661.004
299.862	21.086	844.121	659.001
300.876	21.204	843.975	659.274
301.891	21.435	843.704	659.876
302.906	21.568	842.826	659.632
303.920	20.983	841.917	656.660
304.935	20.869	841.189	655.605
305.949	21.427	840.496	657.104
306.964	21.601	840.254	657.510
307.979	21.167	839.656	655.355
308.993	21.190	839.084	654.936
310.008	21.424	838.947	655.649
311.022	21.556	838.585	655.801
312.037	21.438	837.549	654.492
313.052	21.294	837.188	653.616
314.066	21.205	836.353	652.573
315.081	20.618	834.733	649.061
316.095	19.979	833.537	645.691
317.110	20.432	833.880	647.590
318.125	21.236	834.050	650.661
319.139	20.759	833.302	648.244
320.154	19.739	831.382	642.903
321.168	19.306	830.620	640.648
322.183	20.047	831.060	643.682
323.197	20.711	831.207	646.207
324.212	21.047	831.154	647.357
325.227	21.257	830.492	647.560
326.241	21.570	829.648	648.004
327.256	21.295	829.298	646.655
328.270	21.216	828.744	645.874
329.285	21.176	827.722	644.873
330.300	20.909	827.454	643.622
331.314	20.704	826.576	642.124
332.329	20.814	825.980	642.012
333.343	21.095	825.740	642.803
334.358	21.410	825.306	643.567
335.373	21.393	824.865	643.104
336.387	21.339	824.199	642.330
337.402	21.733	823.602	643.253
338.416	21.755	823.525	643.220
339.431	21.740	822.275	642.129
340.446	21.827	821.954	642.143
341.460	21.943	821.731	642.336
342.475	21.866	820.885	641.334
343.489	21.659	820.288	640.056
344.504	21.500	820.110	639.279
345.519	21.744	819.609	639.722
346.533	22.054	819.010	640.330
347.548	22.075	818.754	640.151
348.562	22.190	818.140	640.032
349.577	22.163	817.794	639.605
350.592	21.995	817.223	638.492
351.606	22.128	816.447	638.314
352.621	22.095	815.863	637.678
353.635	22.063	815.508	637.227
354.650	21.981	815.132	636.580
355.665	21.603	814.246	634.462
356.679	20.669	812.584	629.734
357.694	20.509	812.042	628.681
358.708	21.175	811.826	630.864
359.723	20.946	811.441	629.682
360.738	21.299	811.250	630.753
361.752	21.672	811.082	631.911
362.767	21.800	810.762	632.067
363.781	22.135	810.164	632.753
364.796	22.399	810.379	633.814
365.810	22.357	809.797	633.153
366.825	22.496	809.261	633.178
367.840	22.638	808.976	633.407
368.854	22.322	808.445	631.802
369.869	21.738	807.715	629.081
370.883	21.767	806.934	628.520
371.898	21.881	806.078	628.206
372.913	21.846	805.367	627.472
373.927	21.754	804.992	626.793
374.942	21.990	804.467	627.173
375.956	21.909	804.102	626.542
376.971	22.146	803.560	626.914
377.986	22.434	802.721	627.226
379.000	22.432	802.672	627.127
380.015	22.427	802.425	626.860
381.029	22.223	801.554	625.398
382.044	22.018	801.215	624.351
383.059	22.369	800.348	624.865
384.073	22.389	799.882	624.516
385.088	22.327	799.498	623.944
386.102	22.529	799.066	624.265
387.117	22.338	798.161	622.828
388.132	22.282	797.817	622.305
389.146	22.050	797.079	620.857
390.161	21.472	795.941	617.875
391.175	21.640	795.591	618.141
392.190	22.161	795.571	619.907
393.205	22.134	795.246	619.503
394.219	21.117	793.576	614.569
395.234	19.675	791.301	607.686
396.248	18.991	790.352	604.500
397.263	20.060	791.533	609.111
398.278	21.820	792.501	615.989
399.292	22.111	792.211	616.732
400.307	21.785	791.905	615.297
401.321	21.918	791.231	615.185
402.336	22.063	790.818	615.314
403.350	22.308	790.432	615.819
404.365	22.641	790.633	617.086
405.380	22.803	790.481	617.478
406.394	23.154	790.042	618.310
407.409	23.164	789.759	618.069
408.423	23.061	789.785	617.672
409.438	23.195	788.315	616.939
410.453	23.090	787.920	616.208
411.467	22.925	787.908	615.569
412.482	23.056	786.953	615.222
413.496	23.067	786.666	614.984
414.511	23.088	786.605	614.955
415.526	22.966	786.039	614.032
416.540	23.006	785.833	613.958
417.555	22.903	785.164	613.022
418.569	22.815	784.377	612.048
419.584	22.750	783.935	611.425
420.599	22.828	783.307	611.152
421.613	157.796	1363.603	1798.470
422.628	136.449	1448.144	1798.565
