DTS Sentinel unit serial number:	SN413079Multiplexer serial number:	ORYXHardware model number:	OX4-SRSoftware version number:	ORYX F/W v4.00 Oryx Data Collector v3.7.2.0data status	okinstallation	princeton_trtdifferential loss correction	single-endedforward channel	channel 3reverse channel	N/Adate	2019/09/11time	12:46:11forward acquisition time	60.00reverse acquisition time	0.00gamma	496.2192k internal	0.2293k external	0.2293temperature offset calibration	0.9936default loss term (dB/km)	0.3790temperature slope calibration	1.0000multiplexer offset coefficient	1.0000multiplexer slope coefficient	1.0000fibre end	0.00T internal ref (°C)	41.06T ext. ref 1 (°C)	0.25T ext. ref 2 (°C)	38.78length (m)	temperature (°C)	Stokes	anti-Stokes-747.200	-200.000	-0.025	0.211
-746.185	-62.589	-0.446	0.189
-745.171	332.567	-0.136	0.269
-744.156	-70.993	-0.268	0.103
-743.142	-200.000	-0.017	-0.400
-742.127	-200.000	-0.029	0.142
-741.112	-200.000	0.012	0.470
-740.098	-200.000	-0.005	0.394
-739.083	72.063	0.154	-0.164
-738.069	2.524	0.132	-0.097
-737.054	-200.000	0.031	0.248
-736.039	17.796	0.181	0.148
-735.025	91.911	0.142	-0.163
-734.010	-179.740	0.146	0.003
-732.996	-82.309	-0.240	-0.080
-731.981	-53.328	-0.150	0.070
-730.966	251.760	-0.158	0.275
-729.952	-147.838	0.365	-0.031
-728.937	531.322	-0.111	0.269
-727.923	800.000	0.029	0.087
-726.908	15.944	-0.142	-0.114
-725.894	-119.331	0.065	0.012
-724.879	85.216	0.106	-0.119
-723.864	92.193	-0.086	-0.099
-722.850	-135.457	-0.047	-0.006
-721.835	-12.211	0.149	-0.099
-720.821	413.431	-0.090	-0.196
-719.806	21.271	0.175	-0.145
-718.791	-10.605	0.209	-0.142
-717.777	-4.282	-0.281	-0.199
-716.762	11.619	-0.165	-0.129
-715.748	-44.792	-0.336	-0.171
-714.733	-21.906	0.065	0.040
-713.718	59.368	0.065	-0.066
-712.704	-40.520	0.089	0.047
-711.689	542.971	0.128	0.313
-710.675	-131.604	0.270	0.036
-709.660	-170.093	0.257	0.009
-708.645	-122.269	0.158	0.026
-707.631	-36.184	-0.213	-0.118
-706.616	121.709	-0.147	0.187
-705.602	46.935	-0.217	0.207
-704.587	-200.000	-0.022	0.362
-703.572	77.278	0.248	-0.270
-702.558	319.199	-0.162	-0.313
-701.543	-147.376	-0.118	0.010
-700.529	95.572	-0.211	-0.246
-699.514	-10.063	0.128	0.087
-698.499	800.000	0.033	0.094
-697.485	266.480	0.311	-0.554
-696.470	-119.421	0.187	0.033
-695.456	116.830	0.140	-0.175
-694.441	-62.795	-0.181	-0.077
-693.426	480.281	-0.107	0.249
-692.412	-53.303	-0.155	-0.072
-691.397	-87.015	0.064	-0.020
-690.383	74.659	-0.122	-0.131
-689.368	800.000	-0.036	-0.138
-688.354	36.089	0.311	-0.279
-687.339	302.657	0.092	0.174
-686.324	333.754	0.073	-0.143
-685.310	-105.033	0.062	-0.015
-684.295	-62.445	-0.028	0.012
-683.281	176.707	-0.099	0.146
-682.266	-181.115	-0.332	0.007
-681.251	341.465	-0.092	0.184
-680.237	-200.000	-0.006	-0.031
-679.222	155.947	-0.261	-0.367
-678.208	-5.338	0.159	-0.112
-677.193	-199.101	0.129	0.001
-676.178	-96.296	0.248	0.067
-675.164	800.000	-0.178	-0.539
-674.149	674.093	0.093	-0.247
-673.135	-159.883	-0.121	0.007
-672.120	-141.828	0.415	0.042
-671.105	784.880	0.055	0.155
-670.091	-75.615	-0.418	0.151
-669.076	116.292	-0.052	0.065
-668.062	72.189	0.148	0.157
-667.047	-99.280	-0.072	0.019
-666.032	-22.273	-0.158	0.098
-665.018	-71.545	0.233	0.089
-664.003	67.427	0.334	-0.348
-662.989	-103.975	-0.325	-0.077
-661.974	-17.853	-0.360	-0.230
-660.959	-70.247	0.036	-0.014
-659.945	217.622	-0.080	0.130
-658.930	-131.635	-0.293	0.039
-657.916	-80.307	-0.205	-0.070
-656.901	26.013	0.117	0.100
-655.886	33.173	-0.268	-0.237
-654.872	-200.000	0.003	-0.081
-653.857	-200.000	0.000	0.125
-652.843	342.097	-0.028	-0.055
-651.828	-32.150	0.228	-0.130
-650.814	800.000	0.033	-0.098
-649.799	-91.796	-0.223	-0.065
-648.784	-200.000	0.012	0.062
-647.770	-84.693	0.112	-0.036
-646.755	800.000	-0.119	0.447
-645.741	-147.195	0.378	-0.033
-644.726	-115.326	0.206	0.040
-643.711	203.630	-0.091	-0.144
-642.697	228.906	0.162	-0.270
-641.682	146.101	-0.034	0.046
-640.668	410.983	-0.098	0.211
-639.653	27.979	0.033	-0.028
-638.638	-20.008	-0.129	0.081
-637.624	477.969	-0.086	0.199
-636.609	-116.430	0.214	-0.040
-635.595	299.555	0.044	0.082
-634.580	-142.879	-0.622	0.062
-633.565	305.837	0.051	0.097
-632.551	-182.719	-0.130	-0.002
-631.536	-200.000	-0.018	-0.240
-630.522	49.625	0.176	0.169
-629.507	33.710	0.157	0.139
-628.492	-200.000	-0.005	-0.098
-627.478	8.087	0.428	-0.327
-626.463	-83.318	-0.191	0.062
-625.449	800.000	0.055	0.159
-624.434	-200.000	0.014	0.171
-623.419	-200.000	-0.102	-0.555
-622.405	-143.077	0.248	-0.024
-621.390	-114.211	-0.131	-0.026
-620.376	53.078	-0.055	-0.054
-619.361	10.391	0.207	0.160
-618.346	43.618	0.132	0.123
-617.332	-80.243	-0.131	0.045
-616.317	788.089	-0.074	0.206
-615.303	-25.560	0.139	-0.084
-614.288	61.071	-0.259	0.262
-613.273	-35.107	0.061	0.034
-612.259	-135.654	-0.153	-0.018
-611.244	-11.734	0.055	0.036
-610.230	93.781	-0.237	-0.273
-609.215	-200.000	-0.025	0.254
-608.201	728.260	-0.103	0.279
-607.186	-107.247	-0.362	-0.081
-606.171	519.882	-0.103	-0.246
-605.157	49.208	-0.343	-0.328
-604.142	800.000	0.053	-0.181
-603.128	-200.000	0.019	-0.112
-602.113	108.351	0.210	0.255
-601.098	3.449	-0.156	0.116
-600.084	-182.936	-0.547	-0.010
-599.069	-9.479	0.084	0.057
-598.055	-139.065	0.249	-0.027
-597.040	-129.084	-0.367	-0.052
-596.025	-83.542	-0.256	0.083
-595.011	-109.360	-0.070	0.015
-593.996	-65.064	-0.050	0.020
-592.982	232.580	0.014	0.023
-591.967	-92.084	-0.397	-0.114
-590.952	800.000	-0.022	-0.094
-589.938	800.000	-0.100	0.310
-588.923	127.075	0.116	0.150
-587.909	-77.117	-0.141	-0.050
-586.894	376.795	0.079	-0.164
-585.879	800.000	0.080	0.317
-584.865	15.424	-0.052	-0.042
-583.850	-18.979	-0.080	-0.051
-582.836	-45.859	0.261	0.131
-581.821	-58.916	0.245	-0.108
-580.806	-200.000	0.004	0.201
-579.792	-134.854	0.195	-0.024
-578.777	-45.722	-0.074	-0.037
-577.763	-200.000	-0.016	0.125
-576.748	184.770	-0.052	0.079
-575.733	264.869	0.089	-0.157
-574.719	-200.000	-0.015	0.177
-573.704	-200.000	-0.001	0.020
-572.690	-159.376	-0.393	-0.022
-571.675	140.780	0.207	-0.278
-570.661	237.533	-0.082	-0.138
-569.646	-200.000	-0.017	0.131
-568.631	3.648	-0.115	0.085
-567.617	357.447	0.065	-0.132
-566.602	-130.957	0.113	0.015
-565.588	-146.019	-0.244	0.022
-564.573	-200.000	-0.023	-0.197
-563.558	62.893	-0.274	-0.279
-562.544	-121.621	0.062	-0.010
-561.529	-200.000	-0.071	-0.327
-560.515	-69.539	-0.155	-0.060
-559.500	174.360	0.129	-0.190
-558.485	800.000	0.046	0.137
-557.471	14.835	0.417	-0.331
-556.456	116.045	-0.025	-0.031
-555.442	277.168	-0.096	-0.174
-554.427	-114.983	-0.292	-0.056
-553.412	54.431	-0.105	-0.102
-552.398	-200.000	-0.032	-0.308
-551.383	-25.895	0.318	-0.190
-550.369	552.136	0.040	-0.099
-549.354	235.433	-0.125	-0.210
-548.339	-157.512	-0.081	-0.005
-547.325	-173.736	0.131	0.004
-546.310	143.405	0.054	0.072
-545.296	-89.110	-0.286	-0.086
-544.281	-200.000	-0.018	0.148
-543.266	-89.609	0.416	0.124
-542.252	31.288	0.112	0.097
-541.237	190.616	0.101	-0.155
-540.223	-95.746	0.567	0.154
-539.208	109.731	0.188	-0.229
-538.193	225.185	-0.129	-0.212
-537.179	-85.136	-0.319	0.101
-536.164	-140.991	0.160	0.017
-535.150	-31.753	-0.211	-0.120
-534.135	-122.485	-0.116	-0.019
-533.121	505.089	0.075	-0.176
-532.106	-79.708	0.197	-0.067
-531.091	-53.809	-0.251	-0.116
-530.077	-200.000	-0.023	0.141
-529.062	205.547	0.207	0.326
-528.048	6.321	-0.032	-0.024
-527.033	-95.380	0.058	-0.016
-526.018	-100.656	-0.230	0.058
-525.004	34.432	-0.202	-0.179
-523.989	238.885	-0.033	-0.056
-522.975	800.000	-0.102	0.402
-521.960	187.510	-0.082	-0.124
-520.945	-200.000	-0.002	-0.292
-519.931	305.918	-0.092	-0.173
-518.916	-200.000	-0.013	-0.145
-517.902	58.792	-0.162	-0.162
-516.887	-23.095	0.078	-0.048
-515.872	-16.945	0.121	0.078
-514.858	38.884	0.365	-0.330
-513.843	9.709	0.262	-0.201
-512.829	-43.515	-0.182	0.093
-511.814	-200.000	-0.010	0.485
-510.799	-65.666	0.237	-0.096
-509.785	385.243	0.037	-0.077
-508.770	-110.040	-0.132	-0.028
-507.756	7.059	-0.334	0.253
-506.741	-2.976	-0.336	0.238
-505.726	274.460	-0.116	0.209
-504.712	-55.365	0.079	-0.036
-503.697	-200.000	0.032	-0.209
-502.683	784.779	-0.039	-0.109
-501.668	800.000	0.074	0.209
-500.653	800.000	-0.072	0.239
-499.639	-158.114	0.273	0.016
-498.624	-31.332	0.318	0.181
-497.610	-72.714	-0.469	0.175
-496.595	-97.387	-0.678	-0.179
-495.581	-107.294	-0.324	-0.072
-494.566	-200.000	-0.073	-0.419
-493.551	-161.042	0.189	0.010
-492.537	-13.693	0.197	0.129
-491.522	-103.032	0.218	0.052
-490.508	40.962	-0.079	-0.072
-489.493	31.143	0.148	0.129
-488.478	-108.073	0.293	0.064
-487.464	-151.644	-0.241	0.018
-486.449	10.711	0.241	0.186
-485.435	-200.000	-0.021	0.365
-484.420	-132.451	0.298	-0.039
-483.405	-200.000	-0.025	-0.142
-482.391	-107.146	-0.244	-0.054
-481.376	-113.886	0.084	-0.017
-480.362	-111.033	0.041	-0.008
-479.347	136.924	-0.114	-0.150
-478.332	-106.265	-0.266	0.060
-477.318	-31.095	-0.129	-0.074
-476.303	-200.000	0.008	-0.055
-475.289	-44.363	0.070	0.036
-474.274	765.826	-0.153	0.420
-473.259	800.000	-0.020	-0.068
-472.245	-81.658	-0.060	0.020
-471.230	-200.000	0.022	0.126
-470.216	118.802	-0.105	0.131
-469.201	146.372	0.241	-0.327
-468.186	336.808	0.158	0.311
-467.172	-8.355	-0.318	0.216
-466.157	-39.342	-0.290	0.154
-465.143	-25.655	0.282	-0.168
-464.128	-200.000	0.019	0.088
-463.113	-122.872	-0.458	-0.075
-462.099	-70.806	-0.115	0.044
-461.084	8.864	-0.363	0.277
-460.070	39.991	-0.334	-0.303
-459.055	-200.000	-0.028	0.424
-458.040	-68.407	0.075	-0.030
-457.026	-11.277	0.181	0.120
-456.011	306.571	0.142	0.267
-454.997	135.822	-0.035	-0.046
-453.982	-200.000	-0.002	-0.214
-452.968	-123.292	0.245	0.040
-451.953	174.600	-0.065	-0.095
-450.938	-200.000	-0.028	-0.136
-449.924	-99.077	-0.551	-0.141
-448.909	-137.758	0.210	-0.024
-447.895	110.246	-0.192	-0.233
-446.880	-18.788	-0.203	-0.128
-445.865	634.370	-0.041	0.104
-444.851	-149.395	-0.108	-0.009
-443.836	800.000	-0.040	-0.157
-442.822	-4.026	-0.191	0.134
-441.807	800.000	0.055	-0.241
-440.792	225.831	-0.245	0.401
-439.778	-200.000	0.026	0.218
-438.763	-54.296	0.161	-0.074
-437.749	800.000	0.066	-0.202
-436.734	-200.000	0.001	0.020
-435.719	99.458	-0.219	0.256
-434.705	3.165	-0.124	0.091
-433.690	-21.509	-0.267	0.165
-432.676	-200.000	-0.017	0.150
-431.661	372.371	-0.249	0.511
-430.646	13.122	-0.109	0.085
-429.632	-83.319	0.151	-0.049
-428.617	84.879	0.100	-0.110
-427.603	-200.000	0.033	0.174
-426.588	183.505	0.208	-0.310
-425.573	-14.681	0.306	-0.199
-424.559	-60.895	-0.170	-0.073
-423.544	-88.559	-0.271	-0.081
-422.530	-155.353	-0.094	-0.006
-421.515	197.731	0.091	0.141
-420.500	-54.029	0.064	-0.029
-419.486	800.000	-0.022	-0.067
-418.471	-45.241	-0.112	-0.056
-417.457	24.212	-0.246	0.205
-416.442	6.438	-0.179	-0.134
-415.428	-138.106	0.098	-0.011
-414.413	153.012	0.152	-0.210
-413.398	800.000	-0.033	0.142
-412.384	-29.482	0.231	-0.133
-411.369	509.576	0.085	0.199
-410.355	153.029	0.229	-0.317
-409.340	8.572	-0.258	-0.196
-408.325	91.924	-0.082	-0.093
-407.311	-27.940	-0.242	0.141
-406.296	443.627	-0.198	-0.439
-405.282	88.878	0.091	-0.103
-404.267	800.000	-0.156	-0.507
-403.252	2.825	-0.021	0.015
-402.238	16.961	0.329	0.263
-401.223	-124.893	0.298	-0.046
-400.209	700.726	-0.075	0.200
-399.194	800.000	-0.075	0.217
-398.179	156.711	0.069	0.096
-397.165	-130.860	0.266	-0.036
-396.150	-200.000	-0.026	0.311
-395.136	310.636	0.101	0.190
-394.121	155.674	0.214	0.297
-393.106	-80.071	0.398	-0.135
-392.092	800.000	-0.054	0.175
-391.077	0.800	-0.303	-0.219
-390.063	-40.276	0.153	-0.080
-389.048	-38.036	0.342	0.183
-388.033	289.496	-0.062	0.114
-387.019	184.133	0.113	0.169
-386.004	5.921	-0.245	-0.183
-384.990	232.796	-0.052	-0.087
-383.975	9.924	-0.259	0.199
-382.960	53.566	-0.087	0.084
-381.946	-80.324	0.373	0.126
-380.931	-15.717	-0.093	-0.060
-379.917	800.000	-0.021	0.075
-378.902	199.354	0.227	-0.351
-377.888	74.057	0.171	0.181
-376.873	774.401	0.060	0.164
-375.858	89.029	0.427	0.480
-374.844	-192.414	0.160	-0.002
-373.829	-159.462	-0.128	-0.007
-372.815	790.327	-0.047	0.129
-371.800	472.454	-0.117	-0.266
-370.785	-43.395	0.135	0.069
-369.771	-81.398	0.046	-0.015
-368.756	800.000	0.040	-0.132
-367.742	-51.246	-0.221	-0.104
-366.727	44.851	-0.022	0.021
-365.712	19.315	-0.131	0.106
-364.698	-158.369	0.054	-0.003
-363.683	-200.000	-0.003	-0.124
-362.669	-87.629	0.065	0.020
-361.654	0.256	-0.091	0.066
-360.639	61.141	0.107	0.107
-359.625	77.100	0.032	0.034
-358.610	800.000	-0.119	-0.420
-357.596	-200.000	-0.014	-0.105
-356.581	64.201	0.290	0.294
-355.566	204.963	0.054	0.085
-354.552	-56.364	0.398	0.178
-353.537	-106.361	-0.151	-0.034
-352.523	-2.070	-0.231	-0.163
-351.508	-74.597	-0.322	-0.117
-350.493	24.284	-0.115	-0.096
-349.479	-200.000	0.000	-0.103
-348.464	800.000	0.131	-0.481
-347.450	-32.317	0.303	-0.170
-346.435	-200.000	0.059	0.282
-345.420	70.187	0.059	-0.061
-344.406	46.677	0.144	-0.135
-343.391	-8.799	-0.195	0.132
-342.377	131.551	-0.162	-0.210
-341.362	-138.711	0.041	0.005
-340.348	351.361	0.018	0.035
-339.333	67.186	0.128	-0.131
-338.318	126.119	0.120	0.153
-337.304	37.208	-0.187	0.167
-336.289	42.433	0.446	-0.408
-335.275	-191.448	0.196	-0.002
-334.260	500.342	0.123	0.286
-333.245	421.930	0.165	0.355
-332.231	510.637	-0.040	-0.094
-331.216	63.848	-0.078	0.079
-330.202	-32.057	-0.166	0.093
-329.187	262.891	0.169	-0.295
-328.172	-43.457	-0.318	0.162
-327.158	-50.367	0.228	-0.108
-326.143	186.548	0.097	0.145
-325.129	-104.760	-0.151	0.035
-324.114	-200.000	-0.017	-0.354
-323.099	-12.698	-0.094	0.062
-322.085	115.647	0.176	-0.217
-321.070	-157.292	0.094	0.006
-320.056	639.951	0.103	0.262
-319.041	26.220	0.157	0.132
-318.026	83.477	0.286	0.313
-317.012	-141.377	0.087	0.009
-315.997	800.000	0.099	0.305
-314.983	374.923	0.115	0.236
-313.968	-147.809	-0.110	-0.009
-312.953	131.290	-0.089	-0.115
-311.939	800.000	0.095	0.355
-310.924	-136.755	0.047	-0.005
-309.910	580.771	0.060	0.149
-308.895	146.994	-0.159	0.215
-307.880	-81.883	-0.144	0.047
-306.866	-0.519	-0.139	-0.099
-305.851	402.298	0.179	0.379
-304.837	-58.996	0.155	0.067
-303.822	800.000	0.057	-0.170
-302.807	-200.000	-0.005	0.133
-301.793	227.026	-0.134	-0.218
-300.778	68.411	-0.303	-0.312
-299.764	156.405	0.280	-0.388
-298.749	-127.723	-0.204	-0.030
-297.735	-1.132	0.070	-0.050
-296.720	-43.155	-0.181	-0.092
-295.705	-200.000	0.020	-0.174
-294.691	800.000	-0.096	-0.306
-293.676	-121.493	0.162	0.027
-292.662	800.000	-0.059	0.194
-291.647	-9.288	-0.071	0.048
-290.632	-95.149	-0.068	0.018
-289.618	-58.180	0.335	-0.147
-288.603	492.076	0.178	0.411
-287.589	-200.000	-0.001	0.125
-286.574	-200.000	-0.029	0.151
-285.559	-200.000	-0.015	0.124
-284.545	-42.673	0.088	-0.045
-283.530	-111.284	0.281	0.058
-282.516	327.726	0.110	-0.211
-281.501	199.572	0.148	-0.229
-280.486	190.819	-0.096	-0.144
-279.472	-56.958	0.323	-0.143
-278.457	60.632	-0.248	-0.247
-277.443	-105.750	0.167	-0.038
-276.428	-35.957	0.025	0.014
-275.413	800.000	0.119	-0.363
-274.399	547.479	0.007	-0.018
-273.384	57.252	0.104	-0.102
-272.370	36.374	-0.185	-0.164
-271.355	-91.909	0.169	-0.048
-270.340	-165.425	0.083	0.004
-269.326	-81.197	0.228	-0.076
-268.311	235.855	0.063	0.104
-267.297	-147.443	0.056	-0.005
-266.282	319.146	-0.079	0.150
-265.267	-157.425	-0.031	0.002
-264.253	-101.635	0.202	0.049
-263.238	800.000	-0.039	0.109
-262.224	-200.000	0.046	0.283
-261.209	357.225	-0.159	-0.319
-260.195	17.894	0.154	-0.123
-259.180	141.997	0.175	0.234
-258.165	-200.000	-0.063	-0.296
-257.151	800.000	0.070	-0.237
-256.136	188.986	-0.182	-0.274
-255.122	760.790	0.056	-0.151
-254.107	205.365	-0.044	-0.068
-253.092	205.289	-0.212	0.331
-252.078	800.000	0.056	0.155
-251.063	-13.578	-0.115	0.075
-250.049	1.233	0.042	-0.031
-249.034	-151.788	-0.223	0.016
-248.019	11.230	0.072	0.055
-247.005	-165.694	0.120	-0.005
-245.990	54.500	-0.165	-0.159
-244.976	800.000	-0.088	-0.274
-243.961	-39.484	0.244	0.129
-242.946	-65.294	0.230	-0.093
-241.932	2.338	0.183	0.133
-240.917	361.901	-0.043	0.086
-239.903	-27.145	-0.087	-0.051
-238.888	-22.427	-0.197	-0.120
-237.873	-134.631	-0.105	-0.013
-236.859	-200.000	-0.027	-0.494
-235.844	-200.000	0.015	-0.113
-234.830	-200.000	-0.027	-0.139
-233.815	-143.238	-0.122	-0.012
-232.800	212.909	0.070	0.110
-231.786	141.344	-0.048	0.064
-230.771	-47.034	0.131	0.064
-229.757	-72.927	-0.053	-0.020
-228.742	-28.110	-0.333	0.193
-227.727	-15.816	0.085	0.055
-226.713	-91.683	0.238	0.068
-225.698	800.000	0.053	0.196
-224.684	-200.000	-0.009	-0.274
-223.669	84.511	-0.124	-0.136
-222.655	-60.929	0.280	0.119
-221.640	-200.000	-0.027	-0.119
-220.625	-200.000	0.058	0.326
-219.611	-200.000	-0.023	-0.407
-218.596	-25.861	-0.392	0.231
-217.582	68.284	0.140	-0.143
-216.567	101.150	-0.006	0.007
-215.552	-82.935	0.393	-0.127
-214.538	800.000	-0.090	0.348
-213.523	224.210	0.323	0.523
-212.509	-200.000	0.026	-0.175
-211.494	-200.000	0.002	0.147
-210.479	800.000	0.031	0.114
-209.465	-106.198	0.220	0.049
-208.450	-29.864	-0.568	0.324
-207.436	-131.385	0.329	0.044
-206.421	-200.000	-0.037	0.207
-205.406	800.000	0.014	0.041
-204.392	-200.000	0.006	0.304
-203.377	14.963	0.124	-0.097
-202.363	81.202	-0.243	0.263
-201.348	143.976	0.085	0.113
-200.333	261.150	0.081	-0.140
-199.319	131.197	-0.068	-0.088
-198.304	27.820	-0.070	0.059
-197.290	74.777	0.050	0.052
-196.275	-136.452	0.046	-0.005
-195.260	-106.765	-0.037	-0.008
-194.246	-19.606	-0.096	-0.060
-193.231	-52.013	0.190	0.088
-192.217	800.000	0.101	0.281
-191.202	321.650	-0.129	0.246
-190.187	-26.761	0.107	0.063
-189.173	-107.984	-0.075	-0.016
-188.158	-116.189	-0.145	-0.027
-187.144	-36.388	0.250	-0.135
-186.129	-11.974	0.253	-0.166
-185.114	-5.671	-0.147	-0.101
-184.100	75.521	0.102	-0.108
-183.085	-200.000	0.015	-0.105
-182.071	800.000	0.060	-0.250
-181.056	104.385	0.243	0.286
-180.042	369.560	-0.187	0.378
-179.027	-100.142	-0.388	0.097
-178.012	-153.279	-0.210	0.015
-176.998	-200.000	0.009	0.098
-175.983	35.858	0.056	-0.049
-174.969	-200.000	0.010	0.052
-173.954	62.938	-0.124	0.125
-172.939	-153.821	0.196	0.013
-171.925	-88.860	-0.340	-0.101
-170.910	-200.000	-0.001	-0.227
-169.896	21.164	-0.035	0.029
-168.881	-128.343	-0.193	-0.028
-167.866	-98.904	-0.160	0.041
-166.852	-114.927	0.272	-0.052
-165.837	-132.782	0.115	0.015
-164.823	-139.774	0.131	-0.014
-163.808	-200.000	0.049	-0.269
-162.793	800.000	0.056	-0.216
-161.779	65.776	0.106	0.107
-160.764	-8.669	-0.167	0.112
-159.750	-200.000	-0.023	0.157
-158.735	518.333	0.077	-0.181
-157.720	187.949	0.082	-0.123
-156.706	55.258	0.084	0.082
-155.691	-200.000	-0.046	-0.217
-154.677	-177.939	0.121	0.003
-153.662	-200.000	-0.000	-0.087
-152.647	-200.000	-0.026	-0.212
-151.633	372.328	0.160	-0.325
-150.618	-200.000	-0.005	-0.186
-149.604	47.805	-0.035	0.033
-148.589	51.984	0.092	-0.088
-147.574	800.000	0.087	-0.298
-146.560	-41.217	-0.036	-0.018
-145.545	432.777	-0.102	0.221
-144.531	-150.602	0.419	0.032
-143.516	143.620	-0.073	0.097
-142.502	-31.348	0.207	-0.117
-141.487	-38.186	0.165	-0.087
-140.472	29.040	-0.301	0.255
-139.458	-26.431	-0.075	-0.044
-138.443	-73.390	-0.049	0.018
-137.429	-100.416	-0.141	0.035
-136.414	-35.161	-0.083	-0.045
-135.399	247.883	-0.093	-0.157
-134.385	-51.706	-0.098	-0.046
-133.370	-200.000	0.037	0.340
-132.356	145.225	0.055	0.073
-131.341	684.276	0.065	-0.169
-130.326	-200.000	-0.054	-0.401
-129.312	-200.000	0.001	0.147
-128.297	-29.487	-0.330	0.188
-127.283	-29.797	0.186	-0.106
-126.268	-89.294	0.254	-0.075
-125.253	-200.000	0.014	-0.100
-124.239	800.000	-0.090	-0.255
-123.224	-77.502	0.264	0.091
-122.210	275.945	-0.213	-0.377
-121.195	-200.000	-0.050	0.300
-120.180	-52.848	-0.171	-0.079
-119.166	4.220	0.206	0.150
-118.151	169.461	-0.127	0.180
-117.137	800.000	0.114	-0.358
-116.122	175.943	0.068	0.099
-115.107	177.539	-0.158	0.229
-114.093	351.337	-0.015	-0.030
-113.078	2.998	0.118	0.086
-112.064	63.857	-0.258	0.259
-111.049	800.000	0.067	0.211
-110.034	-200.000	0.045	-0.439
-109.020	-145.345	0.313	-0.028
-108.005	-200.000	0.042	0.278
-106.991	46.314	-0.091	0.084
-105.976	80.274	-0.135	-0.145
-104.962	-27.393	-0.051	-0.030
-103.947	-200.000	-0.010	0.350
-102.932	-109.993	-0.099	0.021
-101.918	-200.000	-0.016	0.127
-100.903	151.042	0.049	0.066
-99.889	799.393	0.090	-0.247
-98.874	-157.693	-0.359	0.021
-97.859	-40.071	0.226	0.118
-96.845	481.122	0.031	-0.070
-95.830	-167.688	-0.306	0.012
-94.816	-144.504	0.244	0.023
-93.801	800.000	0.098	0.344
-92.786	-21.447	-0.169	-0.103
-91.772	-158.962	-0.059	-0.003
-90.757	253.446	-0.051	0.086
-89.743	419.164	-0.150	-0.319
-88.728	25.315	0.121	0.101
-87.713	17.873	0.117	-0.093
-86.699	-89.996	-0.112	-0.033
-85.684	800.000	-0.040	0.143
-84.670	-64.990	0.103	0.041
-83.655	-176.571	0.258	0.007
-82.640	-100.595	0.149	0.037
-81.626	363.854	-0.130	-0.260
-80.611	-77.665	-0.182	-0.063
-79.597	-200.000	-0.018	0.222
-78.582	171.589	0.143	-0.205
-77.567	-200.000	-0.029	0.257
-76.553	800.000	0.045	0.190
-75.538	222.903	0.251	0.404
-74.524	-200.000	0.095	0.000
-73.509	190.265	0.075	-0.112
-72.494	-8.684	-0.258	-0.172
-71.480	184.829	-0.061	-0.089
-70.465	-194.069	-0.285	0.002
-69.451	-111.978	-0.200	-0.040
-68.436	59.828	0.208	-0.204
-67.422	-62.307	-0.200	0.083
-66.407	-200.000	-0.028	-0.150
-65.392	54.750	0.243	-0.234
-64.378	-84.522	-0.149	-0.047
-63.363	547.227	0.045	-0.107
-62.349	-46.778	-0.102	-0.050
-61.334	10.175	-1.173	-0.889
-60.319	404.066	0.252	0.529
-59.305	-200.000	0.035	-0.705
-58.290	193.954	0.478	0.720
-57.276	538.688	0.599	1.419
-56.261	-200.000	75.588	515.678
-55.246	536.196	1316.243	3110.498
-54.232	144.428	2569.604	3416.090
-53.217	116.030	2263.911	2759.608
-52.203	52.062	1782.915	1691.151
-51.188	44.584	1578.735	1444.604
-50.173	41.845	1548.813	1398.049
-49.159	57.572	1585.943	1542.863
-48.144	63.417	1605.399	1602.958
-47.130	44.871	1568.816	1437.323
-46.115	41.381	1553.791	1399.064
-45.100	41.152	1550.750	1394.667
-44.086	41.098	1548.884	1392.557
-43.071	41.106	1546.765	1390.650
-42.057	41.017	1545.089	1388.471
-41.042	40.945	1543.566	1386.546
-40.027	41.076	1542.457	1386.408
-39.013	41.052	1540.569	1384.484
-37.998	41.019	1539.182	1382.954
-36.984	41.133	1537.746	1382.405
-35.969	41.103	1536.713	1381.212
-34.954	41.113	1535.136	1379.810
-33.940	41.002	1534.268	1378.206
-32.925	41.128	1532.333	1377.286
-31.911	41.204	1530.871	1376.437
-30.896	41.112	1529.358	1374.387
-29.881	41.217	1527.832	1373.690
-28.867	41.124	1526.914	1372.169
-27.852	41.177	1525.433	1371.149
-26.838	41.071	1524.318	1369.361
-25.823	41.138	1522.194	1367.859
-24.809	41.113	1520.618	1366.217
-23.794	41.143	1518.868	1364.795
-22.779	41.164	1517.607	1363.754
-21.765	41.054	1516.953	1362.356
-20.750	41.085	1515.611	1361.313
-19.736	41.130	1514.314	1360.395
-18.721	40.996	1513.191	1358.417
-17.706	41.054	1511.960	1357.658
-16.692	41.035	1510.600	1356.249
-15.677	41.130	1509.290	1355.671
-14.663	41.073	1508.497	1354.512
-13.648	40.976	1507.700	1353.088
-12.633	41.008	1506.603	1352.267
-11.619	41.001	1506.097	1351.709
-10.604	40.914	1505.719	1350.728
-9.590	41.009	1504.232	1349.983
-8.575	40.955	1503.313	1348.735
-7.560	40.948	1502.651	1348.046
-6.546	40.985	1501.636	1347.331
-5.531	40.993	1500.712	1346.502
-4.517	40.910	1499.638	1344.921
-3.502	40.952	1498.450	1344.085
-2.487	40.934	1497.361	1342.938
-1.473	41.008	1496.289	1342.424
-0.458	41.027	1495.181	1341.501
0.556	39.385	1486.617	1333.273
1.571	37.231	1459.494	1294.484
2.586	34.061	1396.606	1218.330
3.600	32.327	1312.814	1134.682
4.615	30.266	1264.035	1080.441
5.629	24.896	1203.788	998.978
6.644	11.910	1108.557	852.682
7.659	1.993	1059.947	765.643
8.673	0.501	1054.008	753.836
9.688	0.247	1050.671	750.115
10.702	0.168	1049.373	748.731
11.717	0.085	1047.451	746.879
12.731	4.448	1053.270	772.708
13.746	16.022	1070.671	843.654
14.761	23.001	1078.736	885.009
15.775	22.576	1077.660	881.923
16.790	22.549	1076.504	880.763
17.804	22.318	1075.502	878.711
18.819	22.152	1074.552	877.032
19.834	22.089	1074.502	876.597
20.848	22.221	1073.720	876.542
21.863	22.208	1073.702	876.382
22.877	22.361	1072.634	876.194
23.892	22.229	1072.619	875.446
24.907	22.199	1071.077	873.965
25.921	22.134	1070.695	873.253
26.936	22.150	1069.848	872.561
27.950	22.168	1068.676	871.621
28.965	22.107	1067.556	870.324
29.980	22.073	1066.027	868.833
30.994	22.116	1064.389	867.634
32.009	22.180	1063.986	867.545
33.023	22.343	1063.298	867.713
34.038	22.030	1062.443	865.395
35.053	22.017	1061.255	864.287
36.067	22.285	1060.233	864.697
37.082	22.240	1059.537	863.829
38.096	22.387	1058.780	863.858
39.111	22.352	1058.461	863.350
40.126	22.545	1056.787	862.855
41.140	22.361	1056.356	861.524
42.155	22.045	1054.616	858.484
43.169	21.859	1053.622	856.691
44.184	21.860	1052.232	855.492
45.199	21.946	1051.357	855.123
46.213	21.786	1050.975	853.954
47.228	21.655	1050.048	852.491
48.242	21.885	1049.262	852.895
49.257	22.012	1048.507	852.820
50.271	22.199	1047.534	852.861
51.286	22.343	1046.557	852.691
52.301	22.334	1046.180	852.261
53.315	22.209	1045.386	850.936
54.330	22.169	1044.825	850.212
55.344	22.074	1043.675	848.742
56.359	22.131	1043.077	848.457
57.374	22.186	1042.075	847.831
58.388	22.005	1041.079	846.071
59.403	22.002	1040.308	845.356
60.417	21.973	1040.260	845.104
61.432	21.832	1038.798	843.165
62.447	21.890	1037.924	842.655
63.461	22.020	1037.710	843.035
64.476	22.109	1036.627	842.506
65.490	21.973	1035.970	841.243
66.505	21.808	1035.287	839.824
67.520	21.868	1034.411	839.328
68.534	22.077	1033.288	839.342
69.549	21.900	1032.599	837.864
70.563	21.449	1031.649	834.866
71.578	21.490	1030.997	834.458
72.593	21.511	1030.089	833.751
73.607	21.478	1028.826	832.496
74.622	21.353	1027.795	830.993
75.636	21.640	1027.148	831.763
76.651	21.790	1026.662	832.006
77.666	21.757	1025.264	830.643
78.680	21.616	1024.418	829.215
79.695	21.677	1024.011	829.103
80.709	21.725	1023.295	828.677
81.724	21.803	1022.649	828.448
82.739	21.765	1021.445	827.224
83.753	21.873	1020.682	827.038
84.768	22.016	1020.481	827.477
85.782	22.372	1019.889	828.603
86.797	22.476	1019.290	828.531
87.812	22.447	1018.175	827.415
88.826	22.385	1016.970	826.069
89.841	22.277	1016.133	824.812
90.855	22.482	1015.484	825.174
91.870	22.570	1014.575	824.771
92.884	22.443	1014.379	823.944
93.899	22.321	1012.821	822.037
94.914	22.322	1011.626	820.998
95.928	22.399	1011.124	820.877
96.943	22.338	1010.599	820.094
97.957	22.177	1009.110	818.064
98.972	21.956	1008.146	816.182
99.987	21.686	1006.995	813.924
101.001	21.808	1006.284	813.845
102.016	22.059	1005.965	814.681
103.030	22.101	1005.078	814.086
104.045	22.076	1004.132	813.130
105.060	21.955	1002.289	811.008
106.074	21.870	1001.080	809.563
107.089	21.840	1000.493	808.879
108.103	22.151	1000.231	810.032
109.118	22.285	999.114	809.671
110.133	21.915	998.150	807.115
111.147	21.902	997.077	806.116
112.162	21.803	995.985	804.710
113.176	21.712	994.406	802.947
114.191	21.632	993.975	802.161
115.206	21.900	993.324	802.787
116.220	21.498	992.047	799.847
117.235	21.500	990.767	798.753
118.249	21.578	990.105	798.505
119.264	21.648	989.409	798.194
120.279	21.474	988.608	796.683
121.293	21.404	988.019	795.820
122.308	21.732	987.017	796.436
123.322	21.643	986.336	795.409
124.337	21.572	985.309	794.188
125.352	21.538	983.852	792.789
126.366	21.204	981.958	789.683
127.381	20.841	981.041	787.238
128.395	21.333	980.783	789.182
129.410	21.968	980.537	791.781
130.424	22.221	979.956	792.380
131.439	22.182	978.851	791.243
132.454	22.120	977.938	790.157
133.468	22.219	976.715	789.544
134.483	21.940	976.357	787.930
135.497	22.105	975.543	787.945
136.512	22.341	974.825	788.351
137.527	22.434	973.962	788.002
138.541	22.347	973.409	787.095
139.556	22.321	972.716	786.348
140.570	22.240	971.899	785.257
141.585	22.371	971.097	785.121
142.600	22.449	970.171	784.653
143.614	22.381	969.074	783.394
144.629	22.431	968.550	783.121
145.643	22.642	967.978	783.529
146.658	22.641	966.816	782.513
147.673	22.438	965.647	780.600
148.687	22.357	964.532	779.269
149.702	22.204	963.581	777.757
150.716	22.173	962.887	776.990
151.731	22.158	961.419	775.669
152.746	22.192	961.041	775.448
153.760	22.468	959.894	775.669
154.775	22.491	959.849	775.664
155.789	22.462	958.975	774.763
156.804	22.556	957.839	774.188
157.819	22.395	957.122	772.835
158.833	22.479	956.292	772.465
159.848	22.640	955.327	772.323
160.862	22.549	954.874	771.487
161.877	22.407	953.902	770.012
162.892	22.457	952.723	769.210
163.906	22.435	952.394	768.782
164.921	22.580	951.078	768.283
165.935	22.421	950.205	766.818
166.950	22.500	949.050	766.161
167.964	22.488	947.802	765.037
168.979	22.463	946.618	763.901
169.994	22.333	945.828	762.633
171.008	22.189	945.119	761.374
172.023	22.262	944.713	761.294
173.037	22.663	943.306	761.826
174.052	22.412	942.020	759.638
175.067	22.113	941.213	757.630
176.081	22.075	940.617	756.918
177.096	22.332	939.939	757.411
178.110	22.365	938.762	756.540
179.125	22.034	938.305	754.683
180.140	21.892	937.039	752.989
181.154	21.851	936.281	752.136
182.169	21.929	935.740	751.970
183.183	22.155	935.526	752.698
184.198	22.351	935.141	753.159
185.213	22.493	934.027	752.804
186.227	22.232	933.549	751.237
187.242	22.409	932.994	751.479
188.256	22.408	932.810	751.262
189.271	22.449	931.639	750.426
190.286	22.499	930.873	749.956
191.300	22.385	930.331	748.969
192.315	21.919	928.528	745.470
193.329	21.337	926.733	741.495
194.344	20.795	926.020	738.561
195.359	21.370	926.181	741.062
196.373	22.063	926.776	744.412
197.388	22.383	926.169	745.212
198.402	22.365	925.506	744.538
199.417	22.203	925.094	743.453
200.432	22.352	924.715	743.715
201.446	22.214	923.881	742.393
202.461	21.924	922.981	740.380
203.475	22.052	922.289	740.300
204.490	21.561	921.032	737.159
205.504	20.528	918.828	730.987
206.519	20.762	918.816	731.896
207.534	21.672	919.295	736.041
208.548	21.868	918.882	736.468
209.563	22.267	918.541	737.802
210.577	22.285	917.467	736.950
211.592	22.155	916.500	735.563
212.607	22.417	916.607	736.683
213.621	22.525	916.159	736.709
214.636	22.361	915.662	735.560
215.650	22.497	914.924	735.468
216.665	22.524	913.977	734.754
217.680	22.432	913.507	733.927
218.694	22.538	913.266	734.110
219.709	22.264	912.331	732.154
220.723	21.935	911.156	729.777
221.738	22.091	910.722	730.014
222.753	22.297	910.171	730.363
223.767	22.264	909.434	729.569
224.782	22.366	908.535	729.208
225.796	22.568	908.015	729.562
226.811	22.622	907.466	729.279
227.826	22.455	906.031	727.371
228.840	21.625	904.714	722.826
229.855	21.444	904.148	721.563
230.869	21.672	904.077	722.382
231.884	21.434	902.721	720.257
232.899	21.257	902.687	719.437
233.913	22.043	903.075	722.918
234.928	22.419	902.163	723.670
235.942	22.295	901.579	722.629
236.957	22.368	900.713	722.170
237.972	22.021	899.940	720.062
238.986	21.934	899.121	718.986
240.001	21.976	898.728	718.780
241.015	22.147	897.667	718.571
242.030	22.224	896.764	718.097
243.045	22.239	896.451	717.845
244.059	22.318	896.109	717.831
245.074	22.624	895.636	718.632
246.088	22.439	895.125	717.406
247.103	22.004	894.146	714.788
248.117	22.128	893.476	714.695
249.132	22.593	893.556	716.587
250.147	22.985	893.291	717.904
251.161	23.104	892.617	717.778
252.176	23.106	892.124	717.328
253.190	23.222	891.333	717.099
254.205	23.199	890.931	716.618
255.220	23.289	890.786	716.802
256.234	23.381	889.870	716.376
257.249	23.266	889.057	715.193
258.263	23.224	888.670	714.648
259.278	23.082	888.073	713.534
260.293	23.174	887.446	713.336
261.307	23.198	886.928	712.952
262.322	23.101	886.391	712.067
263.336	23.103	885.961	711.667
264.351	22.616	884.124	708.175
265.366	21.656	882.114	702.651
266.380	21.099	881.428	699.809
267.395	21.871	881.744	703.094
268.409	22.719	881.567	706.289
269.424	22.752	881.079	705.967
270.439	22.881	880.691	706.108
271.453	23.095	879.946	706.304
272.468	23.061	879.318	705.603
273.482	23.242	879.008	706.013
274.497	23.227	878.647	705.599
275.512	23.068	877.317	703.834
276.526	22.563	875.869	700.605
277.541	22.769	875.677	701.210
278.555	23.088	875.602	702.355
279.570	22.869	874.775	700.759
280.585	22.760	873.971	699.620
281.599	22.738	874.091	699.569
282.614	22.878	873.224	699.367
283.628	22.560	871.899	696.987
284.643	22.128	871.439	694.848
285.657	22.521	871.453	696.351
286.672	22.406	870.646	695.191
287.687	22.007	869.173	692.381
288.701	22.346	869.223	693.695
289.716	22.773	869.122	695.234
290.730	22.399	867.784	692.634
291.745	22.329	867.348	691.950
292.760	22.189	866.780	690.886
293.774	21.863	865.812	688.773
294.789	22.904	866.244	693.143
295.803	23.606	866.200	695.798
296.818	23.473	866.093	695.130
297.833	23.727	865.515	695.599
298.847	23.443	864.105	693.292
299.862	22.988	863.305	690.810
300.876	23.254	863.120	691.643
301.891	23.424	862.634	691.857
302.906	23.413	862.401	691.562
303.920	23.176	861.162	689.587
304.935	23.140	860.094	688.532
305.949	23.416	860.122	689.566
306.964	23.512	859.742	689.574
307.979	23.452	858.915	688.617
308.993	23.283	858.435	687.515
310.008	23.769	857.964	688.961
311.022	23.713	857.805	688.553
312.037	23.451	857.076	686.892
313.052	23.307	856.157	685.540
314.066	23.243	855.379	684.608
315.081	22.647	854.134	681.250
316.095	21.850	852.855	677.093
317.110	22.328	853.161	679.121
318.125	23.222	853.510	682.790
319.139	22.824	852.559	680.432
320.154	21.733	850.644	674.646
321.168	21.349	849.617	672.299
322.183	21.881	849.853	674.470
323.197	22.820	850.518	678.550
324.212	23.078	849.872	678.966
325.227	23.261	849.846	679.585
326.241	23.339	849.408	679.478
327.256	23.236	848.623	678.394
328.270	23.167	847.864	677.462
329.285	23.083	847.345	676.667
330.300	22.955	846.540	675.476
331.314	22.725	845.719	673.881
332.329	22.617	845.239	673.025
333.343	23.177	844.641	674.626
334.358	23.397	844.173	675.032
335.373	23.349	844.025	674.668
336.387	23.514	843.435	674.765
337.402	23.640	843.081	674.902
338.416	23.907	842.628	675.493
339.431	23.819	841.743	674.391
340.446	23.721	841.692	673.920
341.460	24.006	841.360	674.675
342.475	24.008	839.982	673.516
343.489	23.848	839.383	672.372
344.504	23.779	839.046	671.782
345.519	23.960	838.866	672.261
346.533	24.205	838.318	672.687
347.548	24.332	837.836	672.720
348.562	24.271	837.566	672.215
349.577	24.213	836.895	671.398
350.592	24.162	836.502	670.830
351.606	24.145	835.717	670.080
352.621	24.205	835.114	669.760
353.635	24.103	834.724	669.005
354.650	24.035	834.224	668.289
355.665	23.750	833.346	666.461
356.679	22.715	831.446	661.006
357.694	22.628	830.637	659.978
358.708	23.203	831.221	662.538
359.723	23.113	830.440	661.518
360.738	23.299	830.187	661.956
361.752	23.811	830.341	663.931
362.767	23.886	830.193	664.033
363.781	24.098	830.092	664.687
364.796	24.448	829.867	665.752
365.810	24.580	829.365	665.785
366.825	24.639	828.789	665.483
367.840	24.559	828.342	664.769
368.854	24.455	827.815	663.900
369.869	24.032	826.557	661.259
370.883	23.840	826.005	660.046
371.898	23.848	825.864	659.903
372.913	23.871	825.090	659.313
373.927	23.751	824.518	658.355
374.942	24.004	823.785	658.648
375.956	23.983	823.468	658.258
376.971	24.151	822.513	658.054
377.986	24.324	821.987	658.215
379.000	24.466	821.486	658.281
380.015	24.616	821.051	658.427
381.029	24.584	820.228	657.590
382.044	24.258	820.013	656.159
383.059	24.443	819.569	656.425
384.073	24.370	819.413	655.974
385.088	24.471	818.507	655.563
386.102	24.523	817.778	655.113
387.117	24.442	817.163	654.264
388.132	24.312	816.737	653.389
389.146	24.113	816.179	652.155
390.161	23.440	815.245	648.889
391.175	23.613	814.481	648.857
392.190	24.115	814.777	650.869
393.205	24.269	813.924	650.692
394.219	23.384	812.502	646.272
395.234	21.758	810.324	638.563
396.248	20.970	808.962	634.567
397.263	21.797	810.106	638.420
398.278	23.707	811.449	646.384
399.292	24.195	811.332	648.008
400.307	23.846	810.975	646.395
401.321	23.683	810.250	645.169
402.336	23.757	810.154	645.306
403.350	24.095	809.900	646.272
404.365	24.650	809.492	647.901
405.380	24.866	809.301	648.472
406.394	25.212	809.200	649.590
407.409	25.335	808.831	649.682
408.423	25.239	808.254	648.812
409.438	25.145	807.336	647.679
410.453	25.086	807.403	647.460
411.467	25.221	806.943	647.523
412.482	25.151	806.228	646.639
413.496	25.197	805.667	646.298
414.511	25.266	805.315	646.206
415.526	25.351	804.867	646.095
416.540	25.322	804.569	645.694
417.555	25.216	803.962	644.769
418.569	24.961	803.269	643.241
419.584	24.941	802.585	642.566
420.599	25.021	802.309	642.575
421.613	92.199	1257.872	1367.964
422.628	78.920	1324.262	1368.128
