DTS Sentinel unit serial number:	SN413079Multiplexer serial number:	ORYXHardware model number:	OX4-SRSoftware version number:	ORYX F/W v4.00 Oryx Data Collector v3.7.2.0data status	okinstallation	princeton_trtdifferential loss correction	single-endedforward channel	channel 3reverse channel	N/Adate	2019/09/11time	12:42:11forward acquisition time	60.00reverse acquisition time	0.00gamma	496.2192k internal	0.2293k external	0.2293temperature offset calibration	0.9940default loss term (dB/km)	0.3790temperature slope calibration	1.0000multiplexer offset coefficient	1.0000multiplexer slope coefficient	1.0000fibre end	0.00T internal ref (°C)	40.92T ext. ref 1 (°C)	0.20T ext. ref 2 (°C)	38.67length (m)	temperature (°C)	Stokes	anti-Stokes-747.200	800.000	0.036	0.134
-746.185	-91.806	0.442	-0.128
-745.171	800.000	0.029	-0.117
-744.156	800.000	0.071	0.301
-743.142	296.759	0.176	0.329
-742.127	-200.000	0.045	0.288
-741.112	800.000	-0.082	-0.238
-740.098	800.000	0.080	0.260
-739.083	-94.703	0.213	0.059
-738.069	108.853	-0.209	-0.256
-737.054	-200.000	-0.021	-0.131
-736.039	-200.000	-0.005	0.226
-735.025	800.000	0.074	0.270
-734.010	-12.157	0.321	0.215
-732.996	-52.599	-0.138	0.065
-731.981	719.373	-0.117	-0.317
-730.966	-130.757	0.085	0.012
-729.952	-200.000	0.334	-0.001
-728.937	85.026	-0.205	0.229
-727.923	14.678	-0.307	-0.245
-726.908	110.056	-0.069	0.085
-725.894	487.273	-0.035	-0.082
-724.879	569.293	0.050	-0.124
-723.864	-123.854	-0.128	-0.021
-722.850	-178.426	-0.040	0.001
-721.835	-92.392	-0.251	0.072
-720.821	-40.593	-0.227	0.120
-719.806	800.000	-0.069	-0.240
-718.791	-20.147	-0.163	-0.103
-717.777	-177.703	-0.314	0.008
-716.762	48.565	0.118	0.113
-715.748	341.489	-0.066	0.132
-714.733	-110.021	-0.209	-0.045
-713.718	-26.603	0.032	0.019
-712.704	-98.919	-0.189	0.049
-711.689	97.075	-0.029	0.033
-710.675	206.499	-0.098	0.156
-709.660	70.363	-0.224	0.236
-708.645	11.263	0.023	-0.018
-707.631	800.000	0.042	-0.178
-706.616	-60.636	-0.224	-0.097
-705.602	-200.000	-0.009	-0.252
-704.587	-42.852	0.148	-0.077
-703.572	35.296	-0.187	-0.168
-702.558	152.512	0.121	-0.168
-701.543	173.029	-0.075	-0.111
-700.529	259.886	-0.064	0.113
-699.514	60.480	-0.041	0.041
-698.499	-135.896	-0.094	-0.011
-697.485	82.499	-0.115	0.127
-696.470	-200.000	-0.016	0.174
-695.456	58.684	0.155	-0.155
-694.441	-84.054	0.241	-0.078
-693.426	-8.660	0.092	-0.063
-692.412	582.658	0.075	-0.187
-691.397	43.382	-0.185	0.173
-690.383	800.000	0.133	-0.403
-689.368	383.294	0.102	0.215
-688.354	-200.000	-0.050	0.302
-687.339	-12.800	-0.071	0.047
-686.324	116.864	0.099	-0.124
-685.310	-85.788	-0.206	-0.065
-684.295	67.127	-0.077	-0.080
-683.281	-136.048	0.174	0.021
-682.266	-200.000	-0.009	-0.053
-681.251	-21.772	0.131	0.081
-680.237	-200.000	0.029	-0.217
-679.222	52.556	0.198	0.193
-678.208	-98.774	-0.070	-0.018
-677.193	286.435	-0.154	-0.283
-676.178	-200.000	-0.037	-0.200
-675.164	625.887	0.044	0.112
-674.149	-27.577	-0.100	-0.060
-673.135	-30.643	-0.077	0.044
-672.120	-83.781	0.239	0.078
-671.105	56.454	0.058	0.058
-670.091	-55.037	0.081	0.037
-669.076	-200.000	-0.011	-0.129
-668.062	-124.856	0.344	-0.054
-667.047	-150.732	-0.196	-0.015
-666.032	1.121	0.219	-0.160
-665.018	88.858	0.088	0.100
-664.003	-200.000	-0.010	-0.180
-662.989	-200.000	-0.015	-0.084
-661.974	-135.835	-0.161	0.019
-660.959	-134.723	-0.303	0.038
-659.945	-200.000	-0.006	-0.056
-658.930	-118.932	-0.228	0.041
-657.916	2.417	-0.165	0.121
-656.901	-64.666	-0.085	-0.035
-655.886	-14.207	-0.056	-0.037
-654.872	59.886	-0.295	-0.296
-653.857	17.793	-0.063	-0.051
-652.843	99.996	-0.042	0.049
-651.828	80.082	-0.171	0.188
-650.814	800.000	0.048	-0.167
-649.799	32.751	-0.087	-0.076
-648.784	-200.000	-0.020	-0.220
-647.770	341.265	-0.045	-0.089
-646.755	25.891	0.139	0.118
-645.741	107.285	-0.167	-0.202
-644.726	-200.000	0.007	-0.081
-643.711	79.374	0.146	0.159
-642.697	570.395	-0.021	0.053
-641.682	-76.870	-0.293	-0.104
-640.668	-77.331	0.209	-0.074
-639.653	376.579	-0.103	0.213
-638.638	-72.811	0.108	-0.041
-637.624	-68.685	0.169	-0.067
-636.609	149.232	-0.070	-0.097
-635.595	585.553	0.050	0.126
-634.580	-109.583	-0.187	0.040
-633.565	19.823	0.218	-0.179
-632.551	-157.861	0.131	0.008
-631.536	759.503	-0.114	0.316
-630.522	-53.667	0.204	0.095
-629.507	800.000	0.089	0.352
-628.492	800.000	-0.076	0.243
-627.478	-119.462	0.208	0.037
-626.463	112.489	0.045	-0.056
-625.449	800.000	0.062	-0.199
-624.434	-156.933	-0.415	-0.026
-623.419	24.072	0.076	-0.064
-622.405	-31.035	-0.195	-0.112
-621.390	800.000	-0.063	-0.187
-620.376	30.866	0.206	0.180
-619.361	720.324	-0.090	0.243
-618.346	-42.562	0.141	0.073
-617.332	-4.033	0.260	0.183
-616.317	159.701	-0.144	0.203
-615.303	-200.000	-0.034	0.228
-614.288	800.000	0.073	0.224
-613.273	503.333	0.121	0.285
-612.259	-200.000	-0.024	-0.180
-611.244	-91.237	0.275	0.080
-610.230	-161.484	0.245	-0.013
-609.215	101.378	0.276	-0.327
-608.201	-25.850	-0.163	0.098
-607.186	33.653	0.230	0.203
-606.171	-59.286	0.038	0.017
-605.157	-200.000	-0.010	0.084
-604.142	769.216	0.080	0.221
-603.128	-136.456	-0.361	0.043
-602.113	-102.986	-0.154	-0.037
-601.098	-47.062	0.405	0.201
-600.084	96.653	0.235	-0.274
-599.069	-200.000	0.003	0.018
-598.055	-134.280	0.159	0.020
-597.040	-200.000	0.031	0.155
-596.025	-52.779	0.280	0.132
-595.011	-172.814	0.115	-0.004
-593.996	-137.232	-0.179	-0.021
-592.982	-200.000	0.003	-0.189
-591.967	16.570	0.036	0.029
-590.952	745.489	-0.036	-0.099
-589.938	0.325	-0.211	-0.153
-588.923	-110.181	-0.115	0.024
-587.909	93.312	0.141	0.162
-586.894	-41.101	-0.215	0.113
-585.879	-200.000	-0.008	0.163
-584.865	-200.000	-0.022	-0.154
-583.850	-92.934	0.264	0.075
-582.836	-59.035	-0.238	-0.104
-581.821	-77.650	0.072	-0.025
-580.806	-83.735	-0.330	0.107
-579.792	-32.147	-0.220	0.125
-578.777	-150.405	-0.274	0.021
-577.763	800.000	0.126	0.439
-576.748	800.000	-0.027	0.112
-575.733	-88.527	-0.418	0.127
-574.719	-200.000	0.036	-0.171
-573.704	-172.628	0.170	-0.005
-572.690	12.632	-0.100	-0.078
-571.675	-112.618	-0.486	-0.098
-570.661	347.556	-0.030	0.061
-569.646	122.574	-0.061	0.078
-568.631	-105.442	0.100	-0.023
-567.617	-84.499	-0.081	-0.026
-566.602	-82.600	-0.472	0.156
-565.588	686.307	0.136	0.362
-564.573	128.333	0.304	0.394
-563.558	-107.161	0.168	0.038
-562.544	-123.288	-0.315	-0.051
-561.529	-200.000	0.030	-0.361
-560.515	-129.960	0.128	-0.018
-559.500	-74.609	0.128	0.047
-558.485	535.526	-0.113	-0.273
-557.471	-85.630	0.240	0.076
-556.456	-17.537	0.231	-0.147
-555.442	-10.624	0.036	0.024
-554.427	66.286	-0.161	0.166
-553.412	510.217	-0.108	-0.256
-552.398	17.941	0.056	0.045
-551.383	-200.000	-0.003	-0.045
-550.369	192.047	0.108	-0.165
-549.354	40.583	0.238	0.218
-548.339	-58.206	-0.107	0.047
-547.325	548.088	0.080	0.193
-546.310	300.155	0.111	-0.208
-545.296	389.673	-0.038	0.080
-544.281	85.452	0.080	0.089
-543.266	-99.296	-0.146	0.037
-542.252	52.456	0.080	0.078
-541.237	-147.571	0.190	0.016
-540.223	-94.979	0.148	0.041
-539.208	-200.000	0.063	0.556
-538.193	560.481	0.065	-0.158
-537.179	-149.098	-0.312	-0.025
-536.164	-200.000	-0.045	0.240
-535.150	367.685	-0.026	0.053
-534.135	-3.975	0.113	-0.080
-533.121	-200.000	0.026	0.176
-532.106	675.255	0.074	0.196
-531.091	739.974	-0.077	0.208
-530.077	303.941	-0.064	-0.121
-529.062	-200.000	0.028	-0.178
-528.048	49.973	0.148	0.141
-527.033	-46.008	0.186	0.093
-526.018	-200.000	-0.002	0.027
-525.004	98.101	0.109	0.127
-523.989	270.839	-0.193	-0.344
-522.975	60.652	0.265	0.266
-521.960	-200.000	0.002	-0.102
-520.945	-0.434	0.497	-0.358
-519.931	-114.292	0.138	0.027
-518.916	-200.000	-0.004	0.028
-517.902	800.000	0.087	-0.359
-516.887	336.755	0.104	-0.205
-515.872	30.491	0.098	-0.085
-514.858	601.878	0.152	-0.383
-513.843	-136.638	0.130	0.015
-512.829	-7.602	0.193	-0.132
-511.814	-200.000	0.019	0.185
-510.799	104.914	-0.276	0.330
-509.785	-109.616	-0.208	-0.045
-508.770	750.142	-0.097	0.265
-507.756	800.000	-0.028	-0.098
-506.741	800.000	0.066	-0.223
-505.726	-124.763	0.361	-0.057
-504.712	-200.000	0.028	-0.197
-503.697	-184.269	0.377	0.006
-502.683	109.715	-0.162	-0.196
-501.668	-61.115	-0.235	-0.100
-500.653	-126.751	-0.172	-0.026
-499.639	-147.218	-0.260	-0.022
-498.624	75.164	-0.146	-0.156
-497.610	86.115	-0.032	0.036
-496.595	-200.000	-0.013	-0.354
-495.581	783.141	0.060	-0.168
-494.566	236.788	0.230	0.386
-493.551	800.000	0.015	0.046
-492.537	-117.205	0.256	-0.047
-491.522	249.034	0.135	0.231
-490.508	-200.000	0.022	-0.168
-489.493	-200.000	-0.060	-0.315
-488.478	31.382	0.275	0.239
-487.464	49.025	0.121	0.115
-486.449	-81.897	-0.065	-0.021
-485.435	-122.948	-0.174	-0.028
-484.420	-51.587	-0.087	-0.041
-483.405	323.717	0.121	0.233
-482.391	208.235	0.082	-0.130
-481.376	-110.088	0.162	-0.034
-480.362	-38.079	0.163	0.088
-479.347	61.118	-0.139	-0.139
-478.332	395.567	0.090	-0.191
-477.318	-21.679	0.072	-0.045
-476.303	-139.397	-0.091	-0.010
-475.289	3.147	-0.162	0.120
-474.274	-134.389	-0.086	0.011
-473.259	-200.000	-0.002	0.273
-472.245	36.578	0.109	-0.097
-471.230	8.193	0.080	0.061
-470.216	-87.423	-0.131	0.040
-469.201	-161.496	-0.220	0.011
-468.186	-63.892	0.218	-0.090
-467.172	14.036	0.302	-0.238
-466.157	542.094	-0.113	-0.272
-465.143	127.644	-0.074	0.095
-464.128	538.234	0.060	-0.145
-463.113	25.199	-0.327	-0.275
-462.099	133.547	-0.171	-0.224
-461.084	800.000	0.071	-0.231
-460.070	-200.000	0.009	-0.159
-459.055	-200.000	-0.018	0.266
-458.040	-144.802	-0.343	-0.032
-457.026	87.501	-0.189	-0.212
-456.011	-77.794	-0.130	-0.045
-454.997	-121.036	-0.268	-0.045
-453.982	-162.849	0.290	-0.014
-452.968	104.933	0.127	0.151
-451.953	-27.075	0.190	0.112
-450.938	-149.656	0.055	-0.004
-449.924	-200.000	0.032	-0.714
-448.909	273.814	-0.148	0.265
-447.895	-72.567	-0.042	0.016
-446.880	-18.369	0.230	0.145
-445.865	-19.376	-0.330	0.207
-444.851	-189.332	-0.281	-0.003
-443.836	128.782	-0.213	-0.275
-442.822	234.608	-0.082	-0.137
-441.807	-4.390	0.132	-0.092
-440.792	-80.691	-0.224	-0.075
-439.778	204.909	0.151	-0.238
-438.763	63.625	-0.049	-0.050
-437.749	-128.630	0.065	0.009
-436.734	-200.000	-0.026	0.198
-435.719	219.239	-0.174	-0.282
-434.705	59.510	-0.124	-0.124
-433.690	-128.908	0.200	-0.028
-432.676	147.693	0.036	0.049
-431.661	214.383	-0.040	0.064
-430.646	142.816	-0.098	-0.132
-429.632	-200.000	0.012	-0.117
-428.617	-74.690	-0.137	-0.050
-427.603	73.284	-0.388	0.410
-426.588	-15.945	-0.066	-0.042
-425.573	-200.000	-0.004	0.096
-424.559	-4.733	-0.252	0.176
-423.544	-42.352	0.067	0.035
-422.530	-40.968	-0.242	-0.126
-421.515	-52.737	-0.272	-0.127
-420.500	-200.000	-0.025	-0.117
-419.486	-28.501	0.385	-0.224
-418.471	-138.935	-0.271	-0.030
-417.457	-200.000	-0.016	-0.338
-416.442	800.000	-0.077	0.246
-415.428	800.000	-0.091	-0.259
-414.413	349.467	0.009	0.017
-413.398	-60.190	-0.189	0.081
-412.384	27.561	-0.235	-0.199
-411.369	162.731	-0.141	0.199
-410.355	-48.053	-0.238	-0.116
-409.340	-200.000	-0.004	-0.241
-408.325	17.288	-0.187	0.149
-407.311	-30.089	0.150	0.086
-406.296	-20.400	-0.173	0.107
-405.282	800.000	-0.071	0.284
-404.267	800.000	-0.034	-0.142
-403.252	189.200	0.124	-0.187
-402.238	276.615	0.055	0.100
-401.223	136.904	-0.076	-0.100
-400.209	-200.000	-0.007	-0.242
-399.194	-68.585	-0.153	0.060
-398.179	-57.700	0.186	0.082
-397.165	-97.162	-0.106	0.028
-396.150	-125.192	-0.460	0.071
-395.136	-93.428	-0.175	0.049
-394.121	800.000	-0.047	0.154
-393.106	800.000	-0.046	-0.178
-392.092	-10.997	0.228	-0.152
-391.077	-102.530	-0.387	0.093
-390.063	275.649	0.157	0.280
-389.048	-109.727	-0.252	0.053
-388.033	-148.964	-0.108	0.009
-387.019	46.643	0.147	-0.138
-386.004	-125.367	0.202	0.031
-384.990	-60.232	0.040	-0.017
-383.975	-158.159	-0.247	0.015
-382.960	-18.832	0.213	-0.134
-381.946	-62.154	0.177	0.074
-380.931	566.591	-0.056	0.138
-379.917	432.177	0.135	0.295
-378.902	-123.178	0.131	-0.021
-377.888	135.420	0.200	-0.263
-376.873	3.188	0.199	-0.146
-375.858	-46.715	0.265	-0.131
-374.844	-200.000	-0.007	0.082
-373.829	-155.537	-0.200	-0.013
-372.815	103.695	-0.096	0.114
-371.800	-200.000	-0.017	-0.145
-370.785	278.329	-0.010	0.017
-369.771	800.000	0.042	0.125
-368.756	800.000	0.080	0.319
-367.742	685.626	-0.081	0.212
-366.727	800.000	-0.082	0.316
-365.712	-152.283	0.131	-0.010
-364.698	206.156	-0.334	-0.524
-363.683	-200.000	-0.006	-0.136
-362.669	-105.903	0.323	-0.073
-361.654	579.377	0.018	0.045
-360.639	154.737	-0.122	0.169
-359.625	-81.407	-0.144	0.048
-358.610	-84.148	-0.056	-0.018
-357.596	-89.931	-0.207	-0.061
-356.581	-182.106	-0.184	-0.003
-355.566	-200.000	0.010	0.248
-354.552	-198.336	-0.117	-0.001
-353.537	50.301	0.101	0.097
-352.523	78.818	-0.154	0.166
-351.508	348.432	-0.029	-0.058
-350.493	-126.634	-0.269	0.040
-349.479	-200.000	-0.007	0.443
-348.464	-200.000	0.014	-0.182
-347.450	800.000	0.026	0.089
-346.435	59.943	-0.194	-0.193
-345.420	261.447	0.185	0.323
-344.406	20.076	0.123	0.100
-343.391	800.000	0.044	0.126
-342.377	-200.000	0.028	-0.303
-341.362	-61.386	-0.220	0.093
-340.348	-43.808	-0.197	0.100
-339.333	-123.816	-0.212	-0.034
-338.318	78.239	-0.038	-0.041
-337.304	-81.579	0.256	-0.085
-336.289	-154.286	0.078	-0.005
-335.275	800.000	-0.088	-0.256
-334.260	-88.879	-0.093	0.028
-333.245	253.382	-0.097	-0.167
-332.231	-61.974	-0.038	-0.016
-331.216	91.627	0.181	-0.205
-330.202	-106.317	0.342	0.077
-329.187	318.933	0.108	-0.206
-328.172	-200.000	0.018	-0.184
-327.158	60.826	-0.005	-0.005
-326.143	189.372	0.090	0.135
-325.129	800.000	0.080	0.241
-324.114	231.908	-0.159	0.263
-323.099	800.000	0.062	0.239
-322.085	-53.571	0.238	0.109
-321.070	800.000	0.032	-0.118
-320.056	-200.000	-0.037	-0.182
-319.041	-1.201	-0.228	-0.162
-318.026	620.096	0.118	0.299
-317.012	-200.000	-0.023	-0.419
-315.997	800.000	0.026	-0.083
-314.983	-183.106	0.088	-0.002
-313.968	-40.537	-0.241	-0.126
-312.953	-200.000	0.015	-0.143
-311.939	-48.046	-0.221	-0.107
-310.924	-46.749	0.004	0.002
-309.910	-89.397	-0.115	0.034
-308.895	-200.000	0.002	-0.018
-307.880	-86.683	-0.266	0.082
-306.866	800.000	0.132	0.500
-305.851	688.665	-0.035	0.091
-304.837	800.000	-0.026	-0.091
-303.822	-39.546	-0.057	0.030
-302.807	-200.000	0.071	-0.516
-301.793	127.917	-0.155	-0.198
-300.778	-44.539	0.295	-0.148
-299.764	-101.179	-0.243	0.060
-298.749	242.287	-0.115	-0.193
-297.735	7.108	0.056	0.042
-296.720	800.000	-0.085	-0.277
-295.705	-86.394	0.170	-0.053
-294.691	417.093	-0.052	-0.112
-293.676	21.166	0.111	-0.091
-292.662	-189.375	-0.132	-0.002
-291.647	-200.000	-0.034	-0.165
-290.632	800.000	0.096	0.409
-289.618	331.485	-0.108	0.210
-288.603	-60.450	0.038	-0.016
-287.589	800.000	-0.035	0.147
-286.574	-88.248	-0.278	0.084
-285.559	800.000	0.026	-0.111
-284.545	-200.000	-0.017	-0.108
-283.530	-200.000	-0.017	-0.403
-282.516	36.161	0.292	0.259
-281.501	-139.219	-0.295	0.032
-280.486	-82.235	0.136	-0.044
-279.472	121.249	-0.135	0.169
-278.457	-75.471	0.155	0.055
-277.443	-39.527	0.171	0.090
-276.428	201.373	0.208	0.321
-275.413	201.906	-0.130	0.201
-274.399	-46.687	0.260	-0.128
-273.384	-42.941	-0.284	0.145
-272.370	211.371	0.129	-0.204
-271.355	-112.749	0.323	0.065
-270.340	-200.000	0.012	-0.107
-269.326	-102.858	-0.217	-0.052
-268.311	-101.369	-0.118	-0.029
-267.297	-200.000	-0.032	-0.181
-266.282	-140.675	-0.493	-0.051
-265.267	-43.908	-0.170	0.086
-264.253	-200.000	-0.013	-0.070
-263.238	108.309	0.051	-0.061
-262.224	124.602	-0.154	0.194
-261.209	218.161	-0.062	-0.099
-260.195	-200.000	-0.022	0.224
-259.180	301.661	-0.076	0.141
-258.165	-83.460	0.354	0.114
-257.151	-82.776	-0.208	0.067
-256.136	312.770	0.145	-0.274
-255.122	800.000	-0.020	-0.056
-254.107	-55.787	0.292	-0.131
-253.092	56.143	0.249	0.243
-252.078	-29.345	0.172	-0.099
-251.063	47.287	-0.101	-0.095
-250.049	-14.753	0.206	0.133
-249.034	22.171	0.199	0.163
-248.019	251.896	0.161	-0.276
-247.005	-200.000	-0.018	-0.375
-245.990	126.694	0.084	0.106
-244.976	-106.537	0.143	0.032
-243.961	-104.689	0.138	-0.032
-242.946	-119.797	-0.212	-0.037
-241.932	55.352	0.034	-0.033
-240.917	800.000	-0.082	0.322
-239.903	-200.000	-0.033	0.239
-238.888	-200.000	0.045	0.248
-237.873	-152.209	0.164	0.012
-236.859	10.581	0.308	0.235
-235.844	-200.000	-0.030	0.195
-234.830	-200.000	0.009	0.044
-233.815	246.259	0.115	-0.194
-232.800	-145.397	0.170	-0.015
-231.786	-200.000	0.000	0.059
-230.771	-97.912	0.480	0.124
-229.757	-200.000	0.020	-0.229
-228.742	454.745	0.159	0.354
-227.727	-200.000	0.000	-0.097
-226.713	153.479	0.128	-0.176
-225.698	-52.471	-0.585	0.271
-224.684	106.953	0.157	-0.187
-223.669	-200.000	0.028	-0.205
-222.655	-71.630	-0.409	-0.153
-221.640	94.385	-0.132	0.150
-220.625	-109.174	0.302	0.064
-219.611	142.854	-0.117	0.156
-218.596	29.676	-0.167	0.143
-217.582	111.396	0.051	0.061
-216.567	800.000	0.078	-0.331
-215.552	-80.935	0.497	-0.165
-214.538	-200.000	-0.012	0.119
-213.523	800.000	0.144	0.411
-212.509	231.013	0.099	0.162
-211.494	75.828	-0.113	0.119
-210.479	-200.000	-0.046	-0.254
-209.465	79.788	0.024	-0.025
-208.450	577.256	0.102	0.250
-207.436	171.708	-0.076	-0.109
-206.421	800.000	0.019	-0.065
-205.406	-136.166	-0.442	0.052
-204.392	-200.000	0.026	-0.169
-203.377	800.000	0.086	-0.249
-202.363	200.140	-0.244	-0.375
-201.348	-32.357	0.335	-0.187
-200.333	467.720	0.185	0.416
-199.319	80.013	-0.068	-0.073
-198.304	-106.809	-0.333	-0.074
-197.290	513.859	-0.034	-0.079
-196.275	-17.421	-0.087	0.055
-195.260	185.751	0.092	-0.137
-194.246	-96.118	0.132	0.035
-193.231	-126.128	-0.153	-0.023
-192.217	144.559	0.202	0.270
-191.202	-167.537	0.187	-0.007
-190.187	711.567	-0.077	-0.204
-189.173	165.667	0.189	-0.268
-188.158	-200.000	-0.019	0.388
-187.144	342.522	0.174	-0.340
-186.129	-145.899	0.052	0.005
-185.114	81.841	0.158	-0.171
-184.100	118.980	-0.109	0.135
-183.085	-21.631	0.232	0.141
-182.071	223.698	0.171	-0.276
-181.056	-200.000	0.021	0.148
-180.042	2.322	-0.269	-0.195
-179.027	27.705	-0.278	-0.234
-178.012	43.864	0.089	0.082
-176.998	755.870	0.036	-0.098
-175.983	-176.227	0.319	0.008
-174.969	-169.881	-0.180	-0.006
-173.954	688.769	-0.054	-0.140
-172.939	-200.000	-0.010	-0.281
-171.925	81.998	-0.110	-0.119
-170.910	-15.733	-0.328	-0.209
-169.896	74.129	-0.116	0.122
-168.881	800.000	-0.117	0.407
-167.866	135.453	0.143	-0.186
-166.852	800.000	0.074	-0.226
-165.837	-142.429	0.211	0.021
-164.823	-200.000	0.014	0.268
-163.808	44.630	0.013	0.012
-162.793	-94.525	-0.551	-0.150
-161.779	-200.000	0.036	0.273
-160.764	-43.062	-0.143	0.072
-159.750	153.344	0.153	-0.210
-158.735	-200.000	0.052	0.281
-157.720	-112.098	-0.097	-0.020
-156.706	800.000	-0.073	0.303
-155.691	-49.372	0.181	-0.086
-154.677	-122.112	0.500	0.082
-153.662	9.425	0.014	-0.011
-152.647	125.957	0.070	0.088
-151.633	-200.000	-0.021	0.193
-150.618	800.000	-0.028	-0.099
-149.604	469.716	-0.015	-0.034
-148.589	160.885	-0.135	0.189
-147.574	800.000	-0.184	-0.550
-146.560	800.000	-0.025	0.085
-145.545	-27.173	0.363	-0.211
-144.531	168.955	0.161	-0.230
-143.516	-40.431	-0.227	0.118
-142.502	-89.348	-0.314	0.092
-141.487	18.415	0.290	-0.232
-140.472	-63.936	0.132	-0.054
-139.458	-200.000	-0.024	-0.271
-138.443	-98.769	-0.468	-0.119
-137.429	-47.668	-0.339	-0.164
-136.414	-200.000	-0.048	0.227
-135.399	800.000	-0.121	-0.378
-134.385	-4.589	-0.071	0.049
-133.370	-85.929	0.394	-0.122
-132.356	-164.588	-0.375	-0.017
-131.341	-200.000	-0.048	0.290
-130.326	-117.517	0.114	0.021
-129.312	-140.380	-0.214	0.022
-128.297	121.727	0.291	-0.362
-127.283	-173.900	-0.082	0.002
-126.268	313.215	-0.068	-0.128
-125.253	57.647	-0.297	0.290
-124.239	-200.000	-0.028	-0.444
-123.224	10.993	-0.112	-0.086
-122.210	-60.485	0.086	0.037
-121.195	145.693	-0.143	0.191
-120.180	-122.688	0.180	0.029
-119.166	-200.000	0.006	-0.074
-118.151	-36.479	-0.262	0.141
-117.137	-69.467	-0.078	0.030
-116.122	-138.576	0.288	0.031
-115.107	-148.381	-0.289	-0.024
-114.093	512.307	-0.104	0.242
-113.078	-115.530	-0.307	0.058
-112.064	48.889	-0.105	0.099
-111.049	-200.000	-0.047	-0.431
-110.034	-200.000	-0.008	0.045
-109.020	-200.000	-0.070	-0.473
-108.005	153.712	-0.287	-0.392
-106.991	-35.984	0.211	-0.114
-105.976	79.004	0.109	0.116
-104.962	306.136	-0.199	-0.369
-103.947	-52.812	0.266	0.122
-102.932	134.359	-0.108	0.140
-101.918	131.424	-0.090	-0.116
-100.903	-8.658	0.189	0.126
-99.889	-10.253	0.306	0.203
-98.874	132.907	0.187	0.241
-97.859	-200.000	0.043	0.276
-96.845	104.156	0.155	-0.182
-95.830	244.414	-0.084	-0.140
-94.816	-80.675	0.244	-0.081
-93.801	608.372	0.098	-0.244
-92.786	-200.000	0.017	0.106
-91.772	107.970	0.245	0.291
-90.757	14.260	0.195	-0.152
-89.743	101.310	-0.088	-0.102
-88.728	-24.710	-0.256	-0.152
-87.713	514.041	-0.135	0.315
-86.699	-37.780	0.174	-0.092
-85.684	8.680	-0.161	-0.121
-84.670	-79.417	-0.426	-0.144
-83.655	95.830	-0.077	-0.088
-82.640	-72.765	-0.284	0.104
-81.626	-10.708	0.123	0.081
-80.611	124.209	-0.303	-0.379
-79.597	-131.314	-0.198	-0.026
-78.582	-97.943	-0.126	0.032
-77.567	147.999	-0.015	-0.020
-76.553	33.313	-0.183	0.158
-75.538	374.990	0.081	-0.164
-74.524	-200.000	0.002	0.191
-73.509	178.541	0.183	0.267
-72.494	120.723	-0.114	0.142
-71.480	-85.179	0.166	0.052
-70.465	692.959	-0.080	-0.208
-69.451	99.564	0.122	-0.141
-68.436	225.225	-0.100	0.161
-67.422	-154.978	0.216	0.014
-66.407	215.713	-0.234	-0.370
-65.392	38.935	0.062	-0.055
-64.378	-25.176	-0.502	0.296
-63.363	398.427	0.189	0.393
-62.349	-163.227	0.033	-0.002
-61.334	32.527	-0.735	-0.633
-60.319	742.052	0.100	0.267
-59.305	800.000	-0.193	-0.685
-58.290	-200.000	0.213	0.977
-57.276	417.581	0.762	1.622
-56.261	-200.000	75.885	513.529
-55.246	534.000	1320.862	3116.327
-54.232	144.270	2572.979	3419.172
-53.217	115.626	2264.489	2756.766
-52.203	51.757	1784.165	1689.979
-51.188	44.366	1580.442	1444.666
-50.173	41.746	1550.488	1398.923
-49.159	57.326	1587.365	1542.586
-48.144	63.176	1607.349	1603.273
-47.130	44.773	1570.600	1438.318
-46.115	41.299	1555.950	1400.488
-45.100	41.111	1552.354	1395.875
-44.086	41.041	1550.453	1393.619
-43.071	40.985	1548.287	1391.226
-42.057	40.936	1546.553	1389.270
-41.042	40.898	1544.821	1387.394
-40.027	40.910	1543.360	1386.114
-39.013	40.890	1542.111	1384.796
-37.998	40.906	1540.436	1383.350
-36.984	40.907	1539.769	1382.701
-35.969	40.929	1538.210	1381.401
-34.954	41.065	1536.224	1380.505
-33.940	40.964	1535.347	1378.962
-32.925	40.918	1533.823	1377.217
-31.911	40.992	1532.481	1376.470
-30.896	41.010	1530.808	1375.036
-29.881	41.081	1529.357	1374.169
-28.867	41.045	1528.365	1372.975
-27.852	40.983	1527.036	1371.302
-26.838	40.935	1525.702	1369.715
-25.823	40.965	1523.772	1368.139
-24.809	40.944	1522.398	1366.707
-23.794	40.950	1520.740	1365.202
-22.779	40.956	1519.308	1363.908
-21.765	41.011	1517.972	1363.028
-20.750	41.047	1517.099	1362.434
-19.736	40.851	1515.975	1360.034
-18.721	40.918	1514.649	1359.245
-17.706	40.856	1513.229	1357.495
-16.692	40.896	1512.324	1356.903
-15.677	40.853	1511.105	1355.458
-14.663	40.898	1509.983	1354.705
-13.648	40.937	1509.227	1354.245
-12.633	40.922	1507.785	1352.792
-11.619	40.877	1507.257	1351.955
-10.604	40.904	1506.279	1351.208
-9.590	40.821	1505.873	1350.229
-8.575	40.817	1505.161	1349.507
-7.560	40.846	1504.236	1348.823
-6.546	40.882	1503.352	1348.222
-5.531	40.811	1502.459	1346.888
-4.517	40.828	1501.171	1345.796
-3.502	40.792	1500.223	1344.645
-2.487	40.864	1499.227	1344.187
-1.473	40.815	1498.127	1342.814
-0.458	40.885	1496.989	1342.217
0.556	39.308	1488.274	1333.821
1.571	37.202	1460.711	1294.973
2.586	33.990	1397.670	1218.433
3.600	32.060	1313.350	1133.187
4.615	29.927	1264.594	1078.607
5.629	24.518	1203.699	996.486
6.644	11.714	1108.381	851.260
7.659	1.919	1060.218	765.230
8.673	0.407	1054.565	753.533
9.688	0.177	1051.473	750.110
10.702	0.183	1050.038	749.046
11.717	0.053	1048.406	747.174
12.731	4.105	1053.701	771.077
13.746	15.528	1069.907	840.324
14.761	22.509	1078.102	881.754
15.775	22.576	1077.732	881.711
16.790	22.508	1076.737	880.478
17.804	22.145	1076.709	878.563
18.819	22.111	1075.342	877.201
19.834	22.206	1074.150	876.625
20.848	22.163	1074.327	876.476
21.863	22.384	1073.166	876.552
22.877	22.218	1073.300	875.756
23.892	22.205	1072.635	875.071
24.907	22.075	1071.866	873.723
25.921	22.292	1071.045	874.051
26.936	22.090	1070.635	872.639
27.950	22.181	1068.793	871.512
28.965	22.191	1067.676	870.573
29.980	22.113	1066.023	868.761
30.994	22.039	1064.804	867.327
32.009	22.212	1064.139	867.563
33.023	22.221	1063.666	867.141
34.038	21.993	1062.796	865.231
35.053	21.919	1061.748	863.937
36.067	22.181	1061.134	864.650
37.082	22.162	1060.429	863.908
38.096	22.409	1059.199	864.043
39.111	22.333	1058.977	863.411
40.126	22.424	1058.143	863.101
41.140	22.436	1056.600	861.824
42.155	22.278	1054.876	859.571
43.169	21.898	1053.937	856.874
44.184	21.807	1053.277	855.818
45.199	21.874	1052.393	855.349
46.213	21.769	1051.136	853.742
47.228	21.726	1050.270	852.754
48.242	21.987	1049.307	853.165
49.257	21.974	1048.670	852.508
50.271	22.089	1047.814	852.293
51.286	22.266	1047.413	852.752
52.301	22.338	1046.493	852.277
53.315	22.350	1045.748	851.653
54.330	22.300	1044.701	850.483
55.344	22.267	1043.512	849.277
56.359	22.196	1043.304	848.691
57.374	22.230	1042.812	848.379
58.388	21.919	1042.005	846.148
59.403	21.997	1040.741	845.426
60.417	21.897	1040.207	844.432
61.432	21.763	1039.237	842.929
62.447	21.823	1038.527	842.566
63.461	22.016	1037.719	842.760
64.476	21.992	1037.436	842.344
65.490	22.036	1036.267	841.530
66.505	22.037	1034.937	840.378
67.520	21.980	1034.560	839.726
68.534	22.004	1034.008	839.320
69.549	21.885	1032.413	837.381
70.563	21.607	1031.026	834.858
71.578	21.417	1030.444	833.408
72.593	21.604	1029.572	833.520
73.607	21.475	1028.647	832.084
74.622	21.479	1027.428	831.043
75.636	21.722	1027.191	831.928
76.651	21.842	1026.235	831.651
77.666	21.725	1025.340	830.297
78.680	21.616	1024.705	829.193
79.695	21.647	1023.905	828.619
80.709	21.730	1023.234	828.396
81.724	21.835	1022.486	828.212
82.739	21.866	1021.408	827.412
83.753	21.887	1020.610	826.794
84.768	22.080	1020.206	827.302
85.782	22.317	1020.106	828.261
86.797	22.586	1018.822	828.410
87.812	22.571	1017.661	827.323
88.826	22.318	1016.729	825.307
89.841	22.327	1016.307	824.932
90.855	22.357	1016.081	824.816
91.870	22.365	1015.028	823.924
92.884	22.495	1013.811	823.474
93.899	22.379	1013.134	822.307
94.914	22.374	1011.856	821.174
95.928	22.369	1011.649	820.913
96.943	22.435	1010.973	820.600
97.957	22.093	1009.801	817.982
98.972	21.864	1008.798	816.033
99.987	21.710	1007.452	814.155
101.001	21.809	1006.764	813.986
102.016	21.988	1006.619	814.627
103.030	22.197	1005.422	814.558
104.045	22.124	1004.059	813.044
105.060	21.951	1002.617	811.002
106.074	21.834	1001.212	809.257
107.089	21.870	1000.976	809.159
108.103	22.044	1000.538	809.535
109.118	22.273	999.688	809.829
110.133	21.924	998.311	807.039
111.147	21.998	997.480	806.638
112.162	21.797	996.084	804.515
113.176	21.616	995.071	802.796
114.191	21.845	994.040	802.941
115.206	21.861	993.510	802.512
116.220	21.628	992.255	800.366
117.235	21.477	991.381	798.900
118.249	21.515	991.004	798.696
119.264	21.733	989.929	798.757
120.279	21.663	989.073	797.674
121.293	21.498	988.186	796.138
122.308	21.632	988.003	796.529
123.322	21.663	986.867	795.685
124.337	21.625	985.616	794.432
125.352	21.456	984.313	792.547
126.366	21.255	982.596	790.182
127.381	20.810	981.232	787.009
128.395	21.251	981.456	789.110
129.410	21.949	980.706	791.587
130.424	22.036	980.300	791.581
131.439	22.137	979.199	791.078
132.454	22.263	977.674	790.342
133.468	22.103	977.052	789.051
134.483	22.052	976.378	788.207
135.497	22.093	975.957	787.981
136.512	22.225	975.400	788.052
137.527	22.418	974.555	788.165
138.541	22.362	973.551	787.034
139.556	22.409	972.492	786.318
140.570	22.312	971.962	785.388
141.585	22.460	970.691	784.948
142.600	22.565	970.306	785.035
143.614	22.386	969.435	783.466
144.629	22.398	968.849	782.975
145.643	22.688	967.833	783.373
146.658	22.523	966.793	781.731
147.673	22.468	965.377	780.274
148.687	22.344	964.620	779.043
149.702	22.189	963.793	777.620
150.716	22.078	963.003	776.424
151.731	22.001	961.757	775.010
152.746	22.294	960.687	775.373
153.760	22.417	960.432	775.641
154.775	22.522	959.570	775.337
155.789	22.594	958.901	775.042
156.804	22.517	957.763	773.720
157.819	22.384	956.677	772.187
158.833	22.421	956.208	771.905
159.848	22.673	955.682	772.514
160.862	22.762	954.462	771.852
161.877	22.383	954.071	769.810
162.892	22.286	953.184	768.599
163.906	22.455	952.497	768.716
164.921	22.439	951.232	767.557
165.935	22.484	950.011	766.702
166.950	22.567	948.805	766.019
167.964	22.529	948.038	765.170
168.979	22.444	947.278	764.116
169.994	22.463	946.046	763.141
171.008	22.381	944.959	761.841
172.023	22.534	944.305	761.908
173.037	22.467	944.113	761.394
174.052	22.483	942.675	760.237
175.067	22.190	941.963	758.330
176.081	22.192	940.888	757.406
177.096	22.255	940.123	756.997
178.110	22.339	939.255	756.591
179.125	22.112	938.174	754.679
180.140	21.861	937.175	752.731
181.154	21.875	936.874	752.484
182.169	21.941	936.259	752.207
183.183	22.229	935.607	752.849
184.198	22.521	935.494	753.941
185.213	22.378	934.649	752.581
186.227	22.297	934.069	751.703
187.242	22.395	933.445	751.549
188.256	22.516	932.653	751.364
189.271	22.438	931.895	750.355
190.286	22.603	931.230	750.456
191.300	22.643	929.942	749.519
192.315	21.871	928.909	745.341
193.329	21.248	927.306	741.348
194.344	20.691	926.353	738.156
195.359	21.200	926.607	740.453
196.373	22.092	926.865	744.377
197.388	22.402	926.511	745.337
198.402	22.498	925.673	745.006
199.417	22.343	924.988	743.732
200.432	22.412	924.897	743.883
201.446	22.327	924.009	742.748
202.461	22.045	923.031	740.704
203.475	22.028	922.539	740.173
204.490	21.551	921.098	736.944
205.504	20.495	918.676	730.503
206.519	20.951	918.709	732.383
207.534	21.736	919.348	736.123
208.548	21.817	918.654	735.843
209.563	22.219	918.406	737.267
210.577	22.423	918.127	737.832
211.592	22.196	917.000	735.909
212.607	22.481	916.806	736.883
213.621	22.460	916.558	736.531
214.636	22.433	915.456	735.468
215.650	22.536	915.046	735.500
216.665	22.368	914.483	734.282
217.680	22.568	913.862	734.554
218.694	22.613	913.452	734.346
219.709	22.282	912.303	731.980
220.723	21.961	911.081	729.602
221.738	22.046	911.358	730.110
222.753	22.462	910.056	730.730
223.767	22.435	909.585	730.177
224.782	22.326	909.313	729.440
225.796	22.707	908.225	730.080
226.811	22.719	907.908	729.811
227.826	22.261	906.658	726.850
228.840	21.503	904.949	722.288
229.855	21.302	904.842	721.309
230.869	21.558	904.499	722.029
231.884	21.437	903.160	720.396
232.899	21.466	902.266	719.738
233.913	22.082	903.003	722.799
234.928	22.264	902.786	723.308
235.942	22.278	901.816	722.525
236.957	22.332	900.898	721.947
237.972	21.909	900.651	719.949
238.986	21.940	899.485	719.083
240.001	21.945	899.038	718.681
241.015	21.988	898.303	718.207
242.030	22.113	897.391	717.923
243.045	22.193	897.061	717.924
244.059	22.439	896.539	718.445
245.074	22.406	896.622	718.315
246.088	22.344	895.541	717.133
247.103	22.230	894.335	715.641
248.117	22.105	894.003	714.801
249.132	22.594	893.884	716.633
250.147	22.962	893.741	717.949
251.161	23.145	892.701	717.794
252.176	23.258	892.621	718.123
253.190	23.200	892.021	717.342
254.205	23.127	891.447	716.522
255.220	23.494	890.970	717.558
256.234	23.370	890.468	716.592
257.249	23.353	889.593	715.755
258.263	23.114	888.869	714.145
259.278	23.129	888.252	713.644
260.293	23.208	887.907	713.624
261.307	23.231	887.407	713.252
262.322	23.306	886.288	712.591
263.336	23.181	885.938	711.743
264.351	22.645	884.556	708.417
265.366	21.699	882.385	702.822
266.380	21.052	881.756	699.665
267.395	22.023	881.828	703.554
268.409	22.736	882.131	706.589
269.424	22.775	881.760	706.388
270.439	22.972	880.683	706.248
271.453	23.105	880.210	706.337
272.468	23.075	880.066	706.042
273.482	23.127	879.423	705.668
274.497	23.348	878.833	706.012
275.512	23.175	877.784	704.421
276.526	22.556	876.860	701.153
277.541	22.687	876.145	701.039
278.555	23.178	875.862	702.702
279.570	23.071	875.144	701.640
280.585	22.864	874.525	700.259
281.599	22.855	873.952	699.702
282.614	23.026	873.437	699.907
283.628	22.617	872.362	697.364
284.643	22.105	872.008	694.996
285.657	22.510	871.760	696.339
286.672	22.590	870.672	695.723
287.687	21.928	870.184	692.658
288.701	22.461	869.752	694.358
289.716	22.762	869.534	695.306
290.730	22.306	868.770	692.840
291.745	22.214	867.927	691.745
292.760	22.074	866.930	690.337
293.774	22.047	866.404	689.754
294.789	22.902	866.786	693.354
295.803	23.576	866.683	695.854
296.818	23.569	866.213	695.388
297.833	23.716	865.603	695.412
298.847	23.448	864.571	693.474
299.862	23.130	863.467	691.285
300.876	23.299	862.971	691.487
301.891	23.540	862.496	691.986
302.906	23.648	862.192	692.098
303.920	23.306	860.931	689.695
304.935	23.165	860.495	688.734
305.949	23.467	860.500	689.854
306.964	23.467	859.964	689.362
307.979	23.219	859.396	687.883
308.993	23.166	859.000	687.300
310.008	23.655	858.004	688.338
311.022	23.696	858.003	688.436
312.037	23.337	857.525	686.599
313.052	23.344	856.680	685.890
314.066	23.226	856.048	684.867
315.081	22.700	854.321	681.393
316.095	21.960	853.020	677.442
317.110	22.371	853.159	679.077
318.125	23.240	853.517	682.652
319.139	23.066	852.299	680.948
320.154	21.761	850.790	674.662
321.168	21.260	849.856	671.937
322.183	21.872	849.980	674.329
323.197	22.771	850.288	677.969
324.212	23.130	849.981	679.041
325.227	23.303	849.423	679.202
326.241	23.361	849.575	679.485
327.256	23.291	848.542	678.331
328.270	23.128	848.079	677.275
329.285	23.246	846.918	676.740
330.300	23.067	846.468	675.637
331.314	22.827	845.631	673.993
332.329	22.757	845.268	673.375
333.343	23.277	844.794	674.922
334.358	23.543	844.285	675.467
335.373	23.488	844.076	675.030
336.387	23.509	843.454	674.554
337.402	23.638	843.523	675.039
338.416	23.965	842.570	675.462
339.431	23.897	841.924	674.625
340.446	23.868	841.644	674.230
341.460	24.028	841.360	674.549
342.475	24.132	840.449	674.152
343.489	23.809	839.274	671.928
344.504	23.791	839.126	671.684
345.519	23.995	839.119	672.390
346.533	24.213	838.673	672.798
347.548	24.334	838.270	672.870
348.562	24.380	837.782	672.591
349.577	24.165	837.173	671.234
350.592	24.266	836.473	670.993
351.606	24.307	835.773	670.528
352.621	24.009	835.756	669.334
353.635	24.010	834.963	668.643
354.650	23.847	834.746	667.798
355.665	23.667	833.511	666.074
356.679	22.609	831.860	660.731
357.694	22.566	831.118	659.923
358.708	23.259	830.956	662.331
359.723	23.102	830.482	661.308
360.738	23.413	830.360	662.313
361.752	23.672	830.658	663.460
362.767	23.955	829.799	663.772
363.781	24.252	829.565	664.633
364.796	24.434	829.664	665.335
365.810	24.542	829.224	665.325
366.825	24.593	828.902	665.195
367.840	24.580	828.689	664.919
368.854	24.444	827.949	663.759
369.869	24.142	827.016	661.831
370.883	23.872	826.314	660.209
371.898	24.111	825.374	660.286
372.913	24.022	824.951	659.558
373.927	23.977	824.303	658.817
374.942	24.140	823.619	658.815
375.956	24.136	823.174	658.384
376.971	24.046	823.304	658.096
377.986	24.323	822.403	658.342
379.000	24.372	822.245	658.339
380.015	24.438	822.023	658.346
381.029	24.406	820.775	657.169
382.044	24.374	819.881	656.279
383.059	24.562	819.611	656.695
384.073	24.545	819.069	656.142
385.088	24.462	818.861	655.612
386.102	24.481	818.169	655.069
387.117	24.304	817.670	653.962
388.132	24.304	816.650	653.088
389.146	24.117	816.140	651.937
390.161	23.533	815.371	649.129
391.175	23.594	814.988	648.991
392.190	24.120	815.003	650.870
393.205	24.151	814.330	650.388
394.219	23.330	812.893	646.185
395.234	21.710	810.504	638.336
396.248	20.796	809.694	634.311
397.263	21.961	810.124	638.835
398.278	23.729	811.482	646.288
399.292	24.165	811.357	647.718
400.307	23.752	810.730	645.659
401.321	23.770	810.567	645.538
402.336	23.784	810.278	645.302
403.350	24.236	809.823	646.524
404.365	24.725	809.647	648.097
405.380	24.970	809.457	648.777
406.394	25.053	809.511	649.064
407.409	25.174	809.174	649.173
408.423	25.171	808.452	648.524
409.438	25.045	807.835	647.518
410.453	25.073	807.448	647.250
411.467	25.204	807.221	647.484
412.482	25.240	806.353	646.859
413.496	25.299	805.484	646.317
414.511	25.248	805.578	646.153
415.526	25.182	805.272	645.614
416.540	25.224	804.746	645.285
417.555	25.163	804.220	644.588
418.569	25.003	803.464	643.351
419.584	24.811	802.967	642.205
420.599	24.811	802.873	642.072
421.613	92.683	1258.882	1371.105
422.628	79.357	1325.334	1371.205
