DTS Sentinel unit serial number:	SN413079Multiplexer serial number:	ORYXHardware model number:	OX4-SRSoftware version number:	ORYX F/W v4.00 Oryx Data Collector v3.7.2.0data status	okinstallation	princeton_trtdifferential loss correction	single-endedforward channel	channel 3reverse channel	N/Adate	2019/09/11time	09:10:10forward acquisition time	60.00reverse acquisition time	0.00gamma	496.2192k internal	0.2308k external	0.2308temperature offset calibration	0.9942default loss term (dB/km)	0.3790temperature slope calibration	1.0000multiplexer offset coefficient	1.0000multiplexer slope coefficient	1.0000fibre end	0.00T internal ref (°C)	34.27T ext. ref 1 (°C)	0.12T ext. ref 2 (°C)	30.00length (m)	temperature (°C)	Stokes	anti-Stokes-747.200	87.520	0.055	-0.062
-746.185	-75.516	-0.501	0.181
-745.171	-156.212	-0.054	0.003
-744.156	109.252	-0.197	0.240
-743.142	800.000	0.046	0.193
-742.127	800.000	-0.095	0.272
-741.112	185.581	0.211	-0.319
-740.098	189.779	-0.228	0.348
-739.083	800.000	-0.083	-0.354
-738.069	550.915	-0.134	-0.326
-737.054	-156.551	0.178	-0.011
-736.039	-178.163	0.133	-0.003
-735.025	76.282	-0.131	-0.141
-734.010	-90.571	-0.103	-0.030
-732.996	479.939	-0.063	-0.144
-731.981	76.079	-0.080	-0.087
-730.966	-27.888	-0.221	-0.130
-729.952	-2.849	0.039	0.028
-728.937	135.731	0.237	-0.313
-727.923	-76.683	-0.130	-0.046
-726.908	-97.904	-0.104	-0.027
-725.894	-129.731	-0.131	-0.018
-724.879	98.583	-0.205	-0.241
-723.864	53.213	-0.177	0.172
-722.850	71.347	0.301	0.317
-721.835	-154.968	-0.840	-0.056
-720.821	-81.991	-0.384	0.127
-719.806	-1.005	0.089	0.064
-718.791	-3.169	0.135	0.096
-717.777	-82.696	-0.172	0.057
-716.762	112.227	-0.222	0.273
-715.748	26.742	0.246	0.209
-714.733	-22.495	0.056	0.035
-713.718	90.229	0.163	0.185
-712.704	-62.862	-0.184	0.077
-711.689	401.796	0.141	-0.300
-710.675	-133.198	-0.205	-0.026
-709.660	65.693	0.105	0.108
-708.645	-200.000	-0.009	-0.118
-707.631	585.375	-0.087	0.218
-706.616	-200.000	-0.037	-0.195
-705.602	238.152	0.172	0.290
-704.587	490.190	-0.031	0.073
-703.572	-100.755	-0.250	-0.063
-702.558	-200.000	-0.031	0.212
-701.543	-106.887	0.322	0.072
-700.529	-163.076	0.259	-0.013
-699.514	697.499	0.104	-0.278
-698.499	-200.000	0.001	-0.039
-697.485	800.000	0.032	-0.124
-696.470	-63.199	-0.110	-0.046
-695.456	-200.000	0.013	-0.148
-694.441	800.000	-0.067	-0.217
-693.426	-200.000	-0.000	0.019
-692.412	224.255	-0.221	-0.363
-691.397	42.106	-0.168	0.154
-690.383	517.862	-0.080	-0.191
-689.368	-125.707	-0.222	-0.034
-688.354	-175.760	-0.031	-0.001
-687.339	217.020	0.176	-0.284
-686.324	31.088	0.223	-0.194
-685.310	800.000	0.131	-0.381
-684.295	13.416	0.238	-0.187
-683.281	556.403	-0.050	0.123
-682.266	546.505	0.099	-0.240
-681.251	-56.501	-0.402	-0.181
-680.237	230.663	0.234	0.388
-679.222	9.061	0.176	0.135
-678.208	66.809	-0.233	-0.240
-677.193	-200.000	-0.039	-0.224
-676.178	171.556	0.153	0.222
-675.164	58.374	-0.295	-0.293
-674.149	-35.609	0.157	-0.086
-673.135	-55.606	0.275	0.125
-672.120	225.847	0.006	-0.010
-671.105	577.865	0.080	-0.197
-670.091	-200.000	-0.056	-0.286
-669.076	-200.000	-0.244	0.000
-668.062	-169.204	0.033	0.001
-667.047	-152.884	0.367	-0.026
-666.032	68.087	-0.172	0.178
-665.018	641.059	-0.094	-0.241
-664.003	7.603	-0.350	0.266
-662.989	-50.515	-0.282	-0.135
-661.974	129.065	0.066	-0.086
-660.959	-181.087	-0.231	0.005
-659.945	237.064	0.079	-0.132
-658.930	-200.000	0.045	-0.411
-657.916	28.275	0.320	-0.274
-656.901	800.000	-0.030	0.114
-655.886	-145.120	-0.164	-0.015
-654.872	-90.397	0.073	0.022
-653.857	-200.000	0.017	-0.076
-652.843	432.996	-0.094	-0.206
-651.828	-200.000	-0.022	-0.116
-650.814	51.782	-0.222	-0.213
-649.799	-200.000	0.013	-0.243
-648.784	-40.182	0.306	-0.161
-647.770	192.739	-0.178	0.273
-646.755	220.282	0.078	-0.127
-645.741	-70.298	-0.072	-0.028
-644.726	-15.524	-0.537	-0.347
-643.711	48.316	-0.252	0.239
-642.697	-146.608	0.107	-0.009
-641.682	-162.779	-0.145	0.007
-640.668	-20.606	0.043	0.027
-639.653	-32.358	-0.269	0.152
-638.638	79.980	-0.138	0.150
-637.624	-190.341	0.156	-0.002
-636.609	-200.000	0.003	-0.414
-635.595	549.157	-0.122	-0.295
-634.580	800.000	0.046	0.135
-633.565	-200.000	-0.183	-0.000
-632.551	6.361	0.030	-0.022
-631.536	-118.943	0.229	-0.041
-630.522	260.865	0.117	0.205
-629.507	-166.192	-0.476	-0.020
-628.492	-200.000	-0.051	0.322
-627.478	607.695	0.063	-0.158
-626.463	-200.000	0.000	-0.107
-625.449	39.276	0.148	-0.134
-624.434	-27.412	0.246	0.145
-623.419	296.597	-0.083	-0.154
-622.405	433.498	0.157	-0.345
-621.390	-158.351	-0.084	0.005
-620.376	-149.574	0.220	-0.018
-619.361	54.435	-0.238	0.232
-618.346	-46.849	-0.303	-0.150
-617.332	150.581	0.294	-0.405
-616.317	-13.904	0.133	0.087
-615.303	800.000	-0.053	0.224
-614.288	233.850	-0.148	-0.247
-613.273	90.087	0.146	0.165
-612.259	21.898	-0.153	-0.126
-611.244	800.000	-0.051	-0.165
-610.230	-146.062	-0.011	-0.001
-609.215	266.227	0.031	-0.055
-608.201	-200.000	-0.229	0.001
-607.186	-29.202	-0.202	0.117
-606.171	-21.579	0.103	-0.064
-605.157	305.040	-0.067	0.126
-604.142	74.948	0.241	-0.256
-603.128	-46.282	-0.178	-0.088
-602.113	38.620	0.201	0.181
-601.098	800.000	-0.054	0.156
-600.084	-67.194	-0.090	0.036
-599.069	73.481	-0.179	-0.190
-598.055	16.546	-0.210	0.168
-597.040	-4.338	-0.121	0.085
-596.025	-101.432	0.120	-0.029
-595.011	-12.019	-0.148	-0.098
-593.996	800.000	-0.064	-0.188
-592.982	-143.653	0.169	-0.016
-591.967	412.613	-0.134	0.287
-590.952	-163.943	-0.399	-0.019
-589.938	107.192	-0.251	-0.301
-588.923	-77.855	0.227	0.079
-587.909	-200.000	0.007	0.106
-586.894	-97.616	-0.191	0.050
-585.879	-136.771	-0.219	0.025
-584.865	-145.577	0.096	-0.009
-583.850	-189.548	0.171	0.002
-582.836	-14.946	-0.100	0.065
-581.821	-92.486	0.246	-0.070
-580.806	-46.648	-0.256	0.127
-579.792	-177.006	0.248	-0.006
-578.777	197.542	0.168	0.259
-577.763	9.335	-0.229	-0.175
-576.748	2.141	0.236	-0.172
-575.733	-98.144	-0.383	-0.099
-574.719	-45.449	0.070	-0.035
-573.704	800.000	-0.043	-0.174
-572.690	-200.000	0.047	0.411
-571.675	-29.200	-0.013	-0.008
-570.661	61.607	0.090	-0.090
-569.646	800.000	-0.063	0.191
-568.631	158.102	-0.364	0.509
-567.617	509.480	-0.009	-0.022
-566.602	800.000	0.077	-0.228
-565.588	14.480	0.249	0.197
-564.573	-200.000	-0.025	-0.283
-563.558	268.911	0.147	0.261
-562.544	425.698	-0.086	0.187
-561.529	800.000	-0.089	0.260
-560.515	168.614	-0.084	-0.121
-559.500	151.990	0.097	0.134
-558.485	800.000	0.019	0.068
-557.471	-58.854	0.144	-0.063
-556.456	-71.614	0.268	-0.101
-555.442	-55.958	0.082	-0.037
-554.427	-39.365	-0.116	-0.062
-553.412	62.349	0.186	-0.187
-552.398	-200.000	0.005	0.026
-551.383	800.000	0.069	-0.218
-550.369	48.920	-0.125	0.119
-549.354	-200.000	0.002	0.220
-548.339	-110.892	-0.249	-0.052
-547.325	-200.000	0.002	-0.320
-546.310	-100.735	0.402	0.100
-545.296	19.790	-0.255	-0.207
-544.281	11.420	-0.209	0.162
-543.266	719.660	-0.090	-0.240
-542.252	-51.715	0.187	-0.088
-541.237	-51.863	-0.108	0.051
-540.223	-87.336	-0.373	0.114
-539.208	418.526	-0.017	0.037
-538.193	104.729	0.125	0.148
-537.179	34.581	0.169	0.149
-536.164	146.816	-0.150	-0.203
-535.150	5.045	-0.073	-0.054
-534.135	30.114	0.112	0.096
-533.121	-86.177	0.246	0.076
-532.106	800.000	0.044	0.130
-531.091	800.000	0.064	-0.241
-530.077	800.000	-0.059	-0.201
-529.062	800.000	-0.038	0.147
-528.048	-88.296	0.299	-0.090
-527.033	161.164	0.249	0.351
-526.018	800.000	0.041	0.128
-525.004	-169.956	0.200	0.007
-523.989	-45.814	0.103	0.052
-522.975	-141.059	-0.166	0.017
-521.960	-136.015	0.366	-0.043
-520.945	800.000	0.144	0.419
-519.931	-58.897	-0.147	0.064
-518.916	-68.842	-0.402	0.156
-517.902	-139.772	-0.235	-0.025
-516.887	18.296	-0.193	-0.156
-515.872	303.444	0.064	0.119
-514.858	-140.295	0.051	-0.005
-513.843	-101.702	-0.186	-0.045
-512.829	147.060	-0.065	0.088
-511.814	27.071	0.293	0.247
-510.799	216.837	-0.149	0.238
-509.785	-200.000	-0.015	0.207
-508.770	-131.853	0.163	0.021
-507.756	-14.281	-0.189	-0.123
-506.741	-128.036	0.339	-0.049
-505.726	-51.209	-0.317	-0.150
-504.712	800.000	-0.089	-0.376
-503.697	235.996	0.028	-0.046
-502.683	204.326	0.169	0.263
-501.668	94.580	-0.209	-0.239
-500.653	-200.000	0.066	-0.342
-499.639	462.133	0.079	-0.178
-498.624	-200.000	-0.003	-0.061
-497.610	800.000	-0.083	-0.306
-496.595	-137.209	0.222	0.025
-495.581	404.860	-0.073	0.155
-494.566	-79.671	-0.334	0.113
-493.551	-200.000	-0.036	-0.204
-492.537	95.988	-0.173	0.199
-491.522	800.000	-0.073	-0.242
-490.508	-200.000	0.000	-0.191
-489.493	112.588	0.158	-0.193
-488.478	-200.000	-0.012	0.109
-487.464	584.963	-0.135	-0.334
-486.449	449.683	0.179	-0.397
-485.435	-44.347	0.210	-0.106
-484.420	341.836	0.092	0.180
-483.405	-3.837	-0.284	0.198
-482.391	-107.623	0.360	0.079
-481.376	-93.539	0.046	-0.013
-480.362	290.804	0.146	-0.266
-479.347	-46.085	0.247	-0.122
-478.332	-158.595	0.462	0.027
-477.318	-53.450	-0.339	-0.156
-476.303	42.515	-0.149	-0.136
-475.289	459.166	0.204	0.457
-474.274	-200.000	-0.066	0.562
-473.259	-200.000	0.028	0.560
-472.245	56.162	0.126	0.123
-471.230	87.765	0.115	0.128
-470.216	275.111	0.160	0.285
-469.201	181.245	0.066	-0.097
-468.186	7.077	-0.077	0.057
-467.172	344.540	-0.132	-0.260
-466.157	348.060	0.083	0.165
-465.143	-200.000	0.044	0.222
-464.128	-169.991	-0.246	-0.009
-463.113	-73.968	0.223	-0.082
-462.099	372.351	0.112	-0.229
-461.084	-200.000	0.008	-0.349
-460.070	800.000	-0.076	0.214
-459.055	560.282	-0.106	-0.257
-458.040	208.461	0.140	-0.221
-457.026	747.460	-0.080	0.215
-456.011	800.000	-0.040	-0.163
-454.997	-200.000	0.070	-0.384
-453.982	-124.342	-0.098	0.015
-452.968	23.010	0.130	0.107
-451.953	-29.200	-0.181	0.104
-450.938	800.000	0.062	-0.188
-449.924	-72.082	0.299	0.112
-448.909	-200.000	0.008	-0.174
-447.895	800.000	-0.028	0.109
-446.880	-121.947	0.036	-0.006
-445.865	92.002	-0.123	0.139
-444.851	-54.909	0.150	0.068
-443.836	180.802	-0.170	-0.250
-442.822	-200.000	0.002	-0.113
-441.807	800.000	0.074	-0.207
-440.792	-77.501	0.214	0.074
-439.778	-14.622	-0.096	-0.062
-438.763	138.502	0.146	0.193
-437.749	-5.520	-0.112	-0.077
-436.734	-200.000	0.056	0.336
-435.719	49.412	-0.378	-0.357
-434.705	112.398	0.304	-0.369
-433.690	-185.930	-0.085	0.001
-432.676	-151.677	-0.011	-0.001
-431.661	-154.748	0.104	-0.007
-430.646	7.330	0.086	0.064
-429.632	29.997	0.147	-0.126
-428.617	29.461	-0.201	0.172
-427.603	265.859	0.105	0.185
-426.588	-139.012	-0.261	0.028
-425.573	-81.910	-0.235	0.077
-424.559	118.899	0.191	-0.237
-423.544	-52.026	0.175	0.081
-422.530	-200.000	-0.012	0.208
-421.515	-70.932	0.139	-0.053
-420.500	202.486	-0.140	0.216
-419.486	31.758	0.182	0.157
-418.471	800.000	-0.036	-0.131
-417.457	-200.000	-0.008	-0.077
-416.442	642.993	0.114	0.292
-415.428	800.000	-0.092	0.273
-414.413	201.381	0.098	-0.152
-413.398	608.012	-0.071	0.177
-412.384	-186.805	-0.070	-0.001
-411.369	185.063	0.149	0.222
-410.355	209.315	0.148	-0.232
-409.340	-158.156	-0.042	-0.002
-408.325	-200.000	0.006	-0.050
-407.311	11.553	-0.102	0.078
-406.296	-151.152	-0.129	-0.010
-405.282	126.038	-0.177	0.225
-404.267	30.405	0.239	-0.205
-403.252	-29.686	0.330	-0.189
-402.238	-200.000	0.013	-0.173
-401.223	-136.501	-0.191	0.022
-400.209	198.029	0.102	0.156
-399.194	-30.241	0.100	-0.057
-398.179	13.247	-0.286	-0.222
-397.165	-4.171	-0.048	0.033
-396.150	-13.261	0.154	0.100
-395.136	493.603	0.165	-0.379
-394.121	-100.072	0.051	-0.013
-393.106	-123.730	0.453	-0.072
-392.092	113.380	-0.211	-0.257
-391.077	151.484	-0.023	0.031
-390.063	-200.000	-0.026	0.170
-389.048	-200.000	-0.021	0.201
-388.033	-77.450	-0.247	0.086
-387.019	800.000	0.078	-0.238
-386.004	54.536	0.024	0.023
-384.990	-125.706	-0.310	0.047
-383.975	271.683	0.059	-0.104
-382.960	22.728	0.141	0.116
-381.946	800.000	0.090	-0.337
-380.931	-64.532	-0.149	-0.061
-379.917	-200.000	0.012	0.072
-378.902	-45.694	0.205	-0.102
-377.888	54.313	0.182	-0.175
-376.873	-144.717	-0.147	-0.014
-375.858	-200.000	-0.305	-0.001
-374.844	-122.751	-0.063	-0.010
-373.829	30.743	0.277	0.237
-372.815	138.086	0.220	0.289
-371.800	54.312	-0.200	0.193
-370.785	282.869	0.098	0.176
-369.771	320.301	-0.270	-0.513
-368.756	-106.802	-0.393	-0.087
-367.742	800.000	0.105	-0.300
-366.727	800.000	-0.079	-0.258
-365.712	-46.337	-0.148	0.073
-364.698	43.625	0.338	0.309
-363.683	800.000	0.079	0.285
-362.669	231.386	-0.203	0.334
-361.654	-200.000	0.002	0.083
-360.639	52.565	-0.130	0.124
-359.625	-14.464	0.201	0.129
-358.610	-136.482	0.026	-0.003
-357.596	-200.000	-0.055	0.289
-356.581	38.796	-0.164	-0.147
-355.566	-38.447	0.140	0.074
-354.552	27.486	0.227	-0.191
-353.537	-37.574	-0.196	-0.104
-352.523	-200.000	-0.060	-0.264
-351.508	-61.239	0.260	0.110
-350.493	113.728	-0.142	-0.173
-349.479	-200.000	-0.085	-0.000
-348.464	374.728	0.103	-0.209
-347.450	172.261	-0.030	-0.043
-346.435	-44.231	0.187	0.094
-345.420	-168.017	0.241	-0.009
-344.406	336.433	0.120	-0.232
-343.391	-62.870	-0.357	-0.148
-342.377	-200.000	-0.024	-0.126
-341.362	-108.686	0.361	-0.078
-340.348	-29.241	0.109	0.063
-339.333	-136.322	-0.118	-0.014
-338.318	424.273	0.115	-0.247
-337.304	104.768	0.209	-0.247
-336.289	-200.000	0.071	-0.519
-335.275	294.608	0.109	-0.200
-334.260	-159.560	0.060	0.003
-333.245	100.380	0.115	0.133
-332.231	123.009	0.098	0.123
-331.216	800.000	0.058	-0.166
-330.202	293.811	0.181	0.331
-329.187	-196.059	-0.352	-0.002
-328.172	-82.726	-0.168	-0.054
-327.158	-106.857	-0.221	0.049
-326.143	-35.223	-0.046	0.025
-325.129	9.341	0.203	-0.154
-324.114	-22.609	-0.080	-0.048
-323.099	-51.204	-0.387	-0.181
-322.085	-67.417	-0.468	0.184
-321.070	-200.000	0.007	0.206
-320.056	396.727	-0.045	-0.095
-319.041	271.566	-0.064	0.112
-318.026	713.752	0.054	0.143
-317.012	-200.000	-0.017	-0.287
-315.997	-133.337	-0.108	0.014
-314.983	-24.819	-0.300	-0.178
-313.968	-200.000	-0.013	0.076
-312.953	184.924	-0.183	-0.271
-311.939	-111.783	-0.417	0.084
-310.924	-43.368	0.077	-0.039
-309.910	-149.120	0.299	0.024
-308.895	278.645	0.071	-0.126
-307.880	662.621	0.075	0.193
-306.866	80.221	-0.167	-0.179
-305.851	577.077	0.033	0.080
-304.837	-58.369	-0.082	-0.036
-303.822	-91.458	-0.212	-0.060
-302.807	37.676	-0.058	0.051
-301.793	-101.358	-0.337	0.082
-300.778	17.303	-0.104	-0.083
-299.764	30.985	0.082	-0.071
-298.749	236.472	0.099	-0.163
-297.735	251.592	-0.210	0.356
-296.720	21.202	-0.448	-0.364
-295.705	174.065	-0.031	-0.045
-294.691	265.144	0.289	0.503
-293.676	-57.842	-0.141	-0.062
-292.662	-25.752	-0.153	-0.090
-291.647	-107.859	0.336	-0.073
-290.632	-200.000	-0.026	0.237
-289.618	557.278	-0.114	-0.274
-288.603	-74.560	-0.077	-0.028
-287.589	158.147	0.242	-0.335
-286.574	-55.272	-0.203	0.091
-285.559	800.000	0.052	0.205
-284.545	163.156	0.210	0.295
-283.530	-200.000	-0.005	-0.119
-282.516	203.579	-0.054	-0.083
-281.501	4.673	-0.210	-0.154
-280.486	153.775	-0.131	-0.179
-279.472	-78.039	0.133	0.046
-278.457	63.576	-0.163	0.163
-277.443	800.000	-0.103	-0.336
-276.428	26.280	-0.095	0.080
-275.413	13.276	0.246	0.190
-274.399	-103.471	0.267	0.063
-273.384	11.939	-0.247	-0.190
-272.370	-200.000	-0.060	0.296
-271.355	-158.809	-0.246	0.014
-270.340	-200.000	0.013	0.348
-269.326	-149.230	-0.003	-0.000
-268.311	56.924	0.173	0.168
-267.297	-128.288	0.198	-0.028
-266.282	-77.915	0.205	-0.071
-265.267	-200.000	-0.018	-0.223
-264.253	-134.996	0.403	-0.049
-263.238	-134.650	-0.200	0.024
-262.224	18.941	0.345	-0.276
-261.209	50.212	0.207	0.195
-260.195	-62.595	0.269	0.111
-259.180	-103.224	-0.012	-0.003
-258.165	-200.000	0.030	-0.266
-257.151	-126.121	-0.367	0.055
-256.136	-82.964	0.197	0.063
-255.122	-80.259	0.036	-0.012
-254.107	203.968	0.187	-0.289
-253.092	253.352	-0.092	-0.157
-252.078	513.336	0.125	-0.290
-251.063	-22.371	0.123	-0.074
-250.049	-14.547	0.157	-0.100
-249.034	-2.461	-0.133	0.093
-248.019	-200.000	-0.027	-0.138
-247.005	104.528	-0.246	-0.289
-245.990	800.000	0.084	0.346
-244.976	-51.440	0.203	0.094
-243.961	-200.000	0.253	-0.001
-242.946	800.000	-0.072	0.239
-241.932	-200.000	-0.051	-0.271
-240.917	-30.382	-0.230	0.130
-239.903	-109.550	0.288	-0.061
-238.888	292.466	0.042	0.076
-237.873	-200.000	0.032	-0.275
-236.859	-95.886	0.153	-0.041
-235.844	-89.182	0.239	0.070
-234.830	-200.000	-0.640	-0.001
-233.815	516.615	0.113	0.263
-232.800	-74.159	-0.150	0.054
-231.786	20.479	0.157	0.127
-230.771	-16.021	0.239	0.151
-229.757	169.059	-0.130	0.185
-228.742	-81.815	0.253	-0.083
-227.727	-200.000	-0.018	-0.372
-226.713	337.235	-0.231	0.448
-225.698	-200.000	-0.023	-0.215
-224.684	26.852	0.109	-0.091
-223.669	40.588	0.459	0.412
-222.655	-50.803	-0.274	0.129
-221.640	71.183	-0.201	-0.207
-220.625	548.868	0.116	-0.276
-219.611	800.000	0.041	0.147
-218.596	-129.544	0.124	-0.017
-217.582	800.000	-0.168	0.463
-216.567	-147.514	0.347	0.029
-215.552	-98.708	-0.132	-0.034
-214.538	55.283	0.143	0.138
-213.523	45.269	-0.070	0.065
-212.509	-200.000	0.010	0.364
-211.494	32.518	-0.239	0.205
-210.479	70.933	-0.184	0.190
-209.465	-148.305	0.093	0.008
-208.450	800.000	0.075	-0.313
-207.436	230.491	0.156	-0.254
-206.421	-13.708	0.213	0.137
-205.406	-200.000	-0.035	-0.154
-204.392	2.459	-0.118	0.085
-203.377	-105.190	-0.058	0.013
-202.363	-200.000	0.010	0.100
-201.348	800.000	-0.097	0.321
-200.333	131.785	-0.137	-0.176
-199.319	-115.448	0.334	0.063
-198.304	231.621	0.243	0.397
-197.290	-200.000	-0.049	0.279
-196.275	57.918	-0.240	-0.233
-195.260	-114.137	-0.091	0.018
-194.246	-136.623	0.409	-0.047
-193.231	-138.990	-0.237	0.026
-192.217	248.703	0.135	0.227
-191.202	77.791	0.172	0.182
-190.187	-70.837	0.247	0.092
-189.173	-74.532	-0.104	0.037
-188.158	451.376	-0.045	0.099
-187.144	-44.550	0.175	-0.087
-186.129	-200.000	0.013	-0.071
-185.114	704.640	0.047	-0.124
-184.100	-86.543	-0.343	0.105
-183.085	151.948	-0.212	0.287
-182.071	642.605	-0.070	0.177
-181.056	800.000	-0.040	0.127
-180.042	507.156	-0.055	0.126
-179.027	-185.046	0.270	0.004
-178.012	800.000	-0.077	-0.276
-176.998	344.011	0.051	0.099
-175.983	148.915	0.231	0.310
-174.969	149.452	-0.108	0.145
-173.954	800.000	-0.099	0.273
-172.939	-200.000	0.006	0.144
-171.925	-71.602	-0.108	-0.040
-170.910	583.079	0.104	-0.254
-169.896	134.674	-0.130	-0.168
-168.881	-200.000	-0.074	0.383
-167.866	-200.000	0.031	-0.238
-166.852	-112.670	0.229	-0.045
-165.837	-4.697	-0.148	-0.101
-164.823	-42.506	-0.166	0.084
-163.808	800.000	-0.105	-0.299
-162.793	-200.000	0.054	0.457
-161.779	-68.652	0.185	0.071
-160.764	31.282	0.113	0.097
-159.750	-48.615	0.282	-0.135
-158.735	6.598	0.085	0.063
-157.720	-41.204	-0.394	0.202
-156.706	-200.000	0.013	-0.398
-155.691	20.348	-0.225	-0.180
-154.677	-62.403	-0.210	0.087
-153.662	33.917	0.143	-0.124
-152.647	-200.000	0.018	0.246
-151.633	-34.645	0.068	-0.037
-150.618	-73.568	0.110	0.040
-149.604	800.000	-0.081	-0.229
-148.589	235.409	0.089	0.146
-147.574	274.343	-0.178	0.313
-146.560	-6.279	0.136	0.092
-145.545	-45.762	-0.398	0.195
-144.531	-84.245	0.216	0.068
-143.516	25.002	-0.045	0.037
-142.502	230.035	0.109	0.177
-141.487	-66.114	-0.312	0.123
-140.472	-200.000	0.027	-0.381
-139.458	-18.750	-0.140	-0.086
-138.443	800.000	-0.056	-0.220
-137.429	800.000	-0.014	-0.060
-136.414	800.000	0.013	0.042
-135.399	297.310	-0.058	-0.106
-134.385	110.261	-0.132	-0.158
-133.370	37.790	-0.017	-0.015
-132.356	-122.684	0.144	0.023
-131.341	-102.678	0.176	-0.042
-130.326	800.000	-0.035	0.111
-129.312	800.000	0.048	0.199
-128.297	-200.000	-0.025	0.208
-127.283	800.000	0.072	-0.236
-126.268	23.533	-0.198	-0.162
-125.253	-58.922	-0.026	-0.011
-124.239	800.000	0.055	0.154
-123.224	-57.833	0.312	-0.135
-122.210	-66.360	-0.389	-0.154
-121.195	36.941	-0.310	0.272
-120.180	41.184	-0.032	-0.029
-119.166	-94.059	-0.176	0.048
-118.151	-200.000	-0.051	-0.239
-117.137	72.134	-0.149	0.154
-116.122	-200.000	0.035	0.294
-115.107	-200.000	-0.006	0.081
-114.093	14.088	0.281	-0.217
-113.078	-94.489	0.140	-0.038
-112.064	64.216	0.119	0.118
-111.049	-54.639	-0.072	-0.032
-110.034	42.635	-0.091	0.082
-109.020	-46.983	-0.286	0.139
-108.005	-29.542	0.198	-0.112
-106.991	-179.934	0.221	0.005
-105.976	800.000	-0.065	0.212
-104.962	-138.176	0.183	0.020
-103.947	2.878	0.261	-0.188
-102.932	81.729	-0.071	0.076
-101.918	122.560	0.139	0.172
-100.903	256.014	-0.124	0.211
-99.889	-32.722	0.250	-0.138
-98.874	1.291	-0.368	0.262
-97.859	-16.224	0.181	0.114
-96.845	759.829	-0.177	0.476
-95.830	-200.000	0.013	-0.136
-94.816	-72.929	-0.080	-0.029
-93.801	800.000	0.039	-0.158
-92.786	-69.699	-0.387	-0.146
-91.772	330.469	-0.083	0.158
-90.757	-118.739	0.214	-0.037
-89.743	-7.771	0.181	-0.121
-88.728	57.322	-0.132	0.128
-87.713	127.539	-0.114	0.143
-86.699	-98.416	-0.276	-0.070
-85.684	-37.356	0.161	-0.085
-84.670	-200.000	-0.061	-0.288
-83.655	-200.000	-0.003	-0.115
-82.640	147.485	-0.107	-0.143
-81.626	36.373	-0.191	0.167
-80.611	800.000	-0.122	0.453
-79.597	-66.092	0.191	0.075
-78.582	54.101	-0.126	-0.120
-77.567	-16.599	0.133	0.084
-76.553	92.010	-0.135	-0.151
-75.538	-72.585	0.057	-0.021
-74.524	264.145	0.041	-0.071
-73.509	-139.505	0.216	0.023
-72.494	-42.753	-0.283	-0.143
-71.480	800.000	-0.032	0.111
-70.465	800.000	0.144	0.430
-69.451	-164.865	-0.213	-0.009
-68.436	31.497	0.089	-0.076
-67.422	800.000	0.162	-0.445
-66.407	-200.000	0.018	0.497
-65.392	800.000	0.069	0.192
-64.378	-200.000	0.000	0.031
-63.363	656.516	0.106	0.270
-62.349	-200.000	-0.080	0.396
-61.334	70.364	-0.679	-0.694
-60.319	61.772	0.522	0.514
-59.305	389.663	-0.485	-0.996
-58.290	67.278	0.682	0.689
-57.276	305.461	0.633	1.164
-56.261	-200.000	96.595	545.006
-55.246	582.533	1395.602	3388.135
-54.232	182.661	2631.934	3841.610
-53.217	117.029	2223.880	2702.734
-52.203	44.605	1753.825	1595.047
-51.188	37.436	1562.651	1370.810
-50.173	34.995	1534.829	1329.416
-49.159	53.147	1586.259	1502.671
-48.144	56.563	1604.296	1543.832
-47.130	37.794	1559.703	1370.521
-46.115	34.537	1543.704	1333.691
-45.100	34.362	1540.607	1329.743
-44.086	34.386	1538.784	1328.281
-43.071	34.318	1536.976	1326.194
-42.057	34.186	1535.566	1324.007
-41.042	34.215	1534.072	1322.868
-40.027	34.356	1531.958	1321.975
-39.013	34.193	1531.280	1320.204
-37.998	34.153	1530.128	1318.885
-36.984	34.216	1528.829	1318.146
-35.969	34.223	1527.628	1317.110
-34.954	34.254	1525.977	1315.847
-33.940	34.263	1524.382	1314.476
-32.925	34.281	1522.722	1313.123
-31.911	34.231	1521.991	1312.091
-30.896	34.350	1520.772	1311.807
-29.881	34.394	1518.899	1310.441
-28.867	34.279	1517.791	1308.649
-27.852	34.396	1515.899	1307.763
-26.838	34.389	1514.715	1306.644
-25.823	34.368	1513.054	1305.014
-24.809	34.284	1511.708	1303.228
-23.794	34.342	1510.130	1302.210
-22.779	34.272	1509.503	1301.143
-21.765	34.285	1508.443	1300.263
-20.750	34.303	1506.630	1298.773
-19.736	34.303	1505.328	1297.600
-18.721	34.325	1504.387	1296.891
-17.706	34.258	1503.388	1295.517
-16.692	34.315	1502.452	1295.050
-15.677	34.334	1501.227	1294.067
-14.663	34.203	1500.357	1292.383
-13.648	34.228	1499.440	1291.710
-12.633	34.206	1498.469	1290.670
-11.619	34.276	1497.472	1290.238
-10.604	34.193	1496.774	1289.024
-9.590	34.221	1495.623	1288.165
-8.575	34.209	1494.932	1287.440
-7.560	34.250	1493.888	1286.766
-6.546	34.260	1493.169	1286.162
-5.531	34.221	1492.565	1285.331
-4.517	34.275	1491.606	1284.814
-3.502	34.265	1490.247	1283.529
-2.487	34.199	1489.515	1282.401
-1.473	34.333	1488.401	1282.291
-0.458	34.175	1487.174	1280.126
0.556	32.514	1477.505	1270.004
1.571	29.867	1450.942	1229.500
2.586	26.596	1389.593	1156.558
3.600	25.106	1308.255	1079.795
4.615	23.783	1261.979	1033.818
5.629	19.689	1203.086	962.725
6.644	9.239	1113.084	836.490
7.659	1.299	1069.600	763.903
8.673	0.285	1063.543	754.436
9.688	0.228	1060.342	751.815
10.702	-0.042	1059.271	749.644
11.717	-0.001	1057.120	748.255
12.731	3.869	1061.754	770.787
13.746	13.904	1076.574	831.977
14.761	20.858	1085.261	873.614
15.775	21.932	1086.200	879.679
16.790	22.077	1085.525	879.784
17.804	21.886	1084.699	878.080
18.819	21.648	1083.770	876.060
19.834	21.838	1083.144	876.424
20.848	21.894	1082.652	876.231
21.863	21.971	1082.148	876.130
22.877	21.904	1081.936	875.544
23.892	21.959	1081.030	875.006
24.907	21.762	1080.242	873.311
25.921	21.823	1079.358	872.825
26.936	21.815	1079.014	872.426
27.950	21.789	1077.688	871.147
28.965	21.829	1076.418	870.244
29.980	21.666	1075.114	868.303
30.994	21.586	1073.592	866.605
32.009	21.668	1073.490	866.848
33.023	21.995	1072.117	867.281
34.038	21.778	1070.782	865.051
35.053	21.661	1070.202	863.932
36.067	21.747	1069.945	864.069
37.082	21.951	1068.390	863.744
38.096	22.026	1067.686	863.465
39.111	22.015	1067.591	863.258
40.126	22.090	1066.387	862.576
41.140	21.979	1065.090	860.907
42.155	21.780	1063.796	858.809
43.169	21.469	1062.753	856.371
44.184	21.494	1061.307	855.254
45.199	21.572	1060.838	855.178
46.213	21.458	1059.268	853.282
47.228	21.575	1058.117	852.851
48.242	21.530	1057.953	852.424
49.257	21.590	1057.348	852.152
50.271	21.861	1056.042	852.339
51.286	21.905	1055.075	851.696
52.301	21.842	1054.480	850.838
53.315	21.895	1053.766	850.445
54.330	21.879	1052.831	849.536
55.344	21.810	1051.724	848.234
56.359	21.922	1050.921	848.052
57.374	21.814	1050.358	846.999
58.388	21.666	1049.513	845.533
59.403	21.600	1048.297	844.158
60.417	21.726	1047.562	844.096
61.432	21.580	1046.701	842.624
62.447	21.559	1046.137	841.999
63.461	21.519	1046.117	841.715
64.476	21.745	1044.561	841.474
65.490	21.683	1043.694	840.403
66.505	21.548	1042.425	838.661
67.520	21.621	1041.602	838.274
68.534	21.494	1041.518	837.525
69.549	21.504	1040.743	836.872
70.563	21.303	1038.812	834.289
71.578	21.192	1037.870	832.927
72.593	21.149	1037.289	832.182
73.607	21.239	1035.957	831.467
74.622	21.127	1035.076	830.154
75.636	21.301	1034.809	830.696
76.651	21.544	1034.272	831.347
77.666	21.341	1033.171	829.423
78.680	21.249	1032.293	828.207
79.695	21.281	1031.611	827.738
80.709	21.401	1031.201	827.904
81.724	21.556	1029.866	827.496
82.739	21.493	1028.920	826.362
83.753	21.516	1027.950	825.618
84.768	21.608	1028.015	826.033
85.782	21.926	1027.337	826.915
86.797	22.171	1026.947	827.681
87.812	22.086	1025.410	825.970
88.826	21.937	1024.365	824.353
89.841	21.931	1023.704	823.719
90.855	22.126	1022.862	823.886
91.870	22.065	1022.421	823.168
92.884	22.013	1021.307	821.955
93.899	21.919	1020.188	820.543
94.914	21.914	1019.214	819.667
95.928	21.954	1018.480	819.191
96.943	21.971	1017.651	818.530
97.957	21.777	1016.520	816.644
98.972	21.560	1015.135	814.448
99.987	21.261	1014.101	812.156
101.001	21.425	1013.353	812.247
102.016	21.701	1012.950	813.133
103.030	21.716	1012.267	812.586
104.045	21.762	1010.931	811.651
105.060	21.551	1009.992	809.852
106.074	21.415	1008.402	807.875
107.089	21.618	1007.512	808.028
108.103	21.801	1007.657	808.915
109.118	21.994	1006.358	808.690
110.133	21.673	1005.050	806.093
111.147	21.582	1004.181	804.905
112.162	21.579	1002.896	803.792
113.176	21.247	1001.845	801.354
114.191	21.429	1001.375	801.743
115.206	21.528	1000.082	801.088
116.220	21.263	999.032	798.964
117.235	21.113	998.054	797.426
118.249	21.135	997.850	797.292
119.264	21.301	996.571	796.959
120.279	21.139	995.678	795.437
121.293	21.119	995.110	794.821
122.308	21.218	994.384	794.621
123.322	21.209	993.708	793.971
124.337	21.265	992.246	792.987
125.352	21.323	990.213	791.555
126.366	20.792	989.490	788.501
127.381	20.490	987.969	785.856
128.395	21.016	987.896	788.107
129.410	21.652	987.344	790.467
130.424	21.790	986.692	790.497
131.439	21.739	985.372	789.141
132.454	21.816	984.407	788.645
133.468	21.753	983.300	787.405
134.483	21.750	982.251	786.479
135.497	21.781	981.871	786.247
136.512	21.956	981.124	786.363
137.527	21.918	981.049	786.061
138.541	21.934	979.872	785.120
139.556	21.978	978.872	784.445
140.570	21.936	978.351	783.771
141.585	21.983	977.290	783.061
142.600	22.161	976.413	783.086
143.614	21.865	975.636	781.072
144.629	22.131	974.570	781.333
145.643	22.170	973.980	780.967
146.658	22.176	972.999	780.135
147.673	21.872	971.780	777.740
148.687	21.865	970.224	776.397
149.702	21.943	969.228	775.878
150.716	21.736	968.339	774.181
151.731	21.720	967.164	773.102
152.746	21.825	966.474	772.945
153.760	21.950	965.991	773.044
154.775	22.084	965.385	773.080
155.789	22.202	964.124	772.519
156.804	22.193	963.206	771.675
157.819	22.083	962.449	770.517
158.833	22.119	961.652	769.972
159.848	22.119	961.173	769.516
160.862	22.207	959.859	768.785
161.877	22.125	959.026	767.689
162.892	21.988	958.336	766.470
163.906	22.077	958.068	766.575
164.921	22.150	956.476	765.553
165.935	22.072	955.251	764.165
166.950	22.229	954.304	764.025
167.964	22.232	953.642	763.439
168.979	22.028	952.709	761.740
169.994	22.047	951.088	760.456
171.008	21.834	950.472	758.975
172.023	22.091	949.456	759.210
173.037	22.158	948.802	758.907
174.052	22.021	947.639	757.322
175.067	21.742	946.668	755.273
176.081	21.773	945.904	754.731
177.096	21.865	945.128	754.440
178.110	21.792	944.397	753.479
179.125	21.729	943.316	752.280
180.140	21.430	942.020	749.898
181.154	21.474	941.238	749.396
182.169	21.475	940.872	749.041
183.183	21.740	940.470	749.790
184.198	22.095	940.178	751.007
185.213	22.020	939.450	750.040
186.227	22.069	938.536	749.453
187.242	22.070	938.303	749.206
188.256	21.950	937.730	748.168
189.271	22.231	936.777	748.541
190.286	22.269	936.127	748.115
191.300	21.965	935.051	745.900
192.315	21.509	933.885	742.965
193.329	20.790	932.469	738.724
194.344	20.620	930.611	736.467
195.359	21.118	931.399	739.138
196.373	21.810	932.125	742.581
197.388	22.081	931.356	743.047
198.402	22.022	930.721	742.227
199.417	21.834	929.937	740.738
200.432	22.149	929.736	741.844
201.446	21.945	929.055	740.374
202.461	21.657	927.851	738.135
203.475	21.584	927.896	737.800
204.490	21.248	926.153	734.935
205.504	20.067	923.997	728.199
206.519	20.592	923.799	730.184
207.534	21.476	924.344	734.264
208.548	21.599	924.044	734.475
209.563	22.056	923.453	735.853
210.577	21.878	923.083	734.747
211.592	21.757	921.996	733.314
212.607	21.960	921.917	734.033
213.621	22.152	921.356	734.324
214.636	22.055	920.640	733.283
215.650	22.097	920.073	732.942
216.665	22.303	919.330	733.147
217.680	22.135	918.783	731.945
218.694	22.224	918.223	731.805
219.709	21.944	917.062	729.649
220.723	21.454	916.973	727.477
221.738	21.699	916.004	727.661
222.753	21.971	915.415	728.257
223.767	21.852	914.981	727.357
224.782	21.996	913.975	727.088
225.796	22.135	913.180	726.967
226.811	22.191	913.129	727.094
227.826	21.926	911.638	724.748
228.840	21.086	910.237	720.103
229.855	21.014	909.399	719.078
230.869	21.292	909.026	719.866
231.884	20.997	907.933	717.725
232.899	20.926	907.630	717.128
233.913	21.843	907.602	720.812
234.928	21.921	907.458	720.955
235.942	21.772	906.598	719.596
236.957	21.866	905.956	719.410
237.972	21.611	904.936	717.492
238.986	21.375	904.425	716.054
240.001	21.641	903.686	716.494
241.015	21.565	902.773	715.400
242.030	21.814	902.134	715.845
243.045	21.891	902.032	716.017
244.059	21.953	901.320	715.641
245.074	21.961	900.934	715.302
246.088	22.052	900.165	714.997
247.103	21.579	899.133	712.190
248.117	21.641	898.555	711.922
249.132	22.157	898.649	714.033
250.147	22.649	898.035	715.476
251.161	22.664	897.452	715.012
252.176	22.820	897.047	715.256
253.190	22.872	896.325	714.827
254.205	22.767	896.184	714.226
255.220	22.912	896.049	714.642
256.234	22.990	895.031	714.082
257.249	22.892	894.440	713.154
258.263	22.756	893.490	711.784
259.278	22.721	892.811	711.041
260.293	22.828	892.471	711.135
261.307	22.907	891.921	710.952
262.322	22.611	891.290	709.195
263.336	22.671	890.384	708.656
264.351	22.232	888.544	705.367
265.366	21.093	886.993	699.508
266.380	20.677	886.063	697.049
267.395	21.694	886.165	701.140
268.409	22.440	886.863	704.615
269.424	22.312	886.264	703.563
270.439	22.347	885.649	703.155
271.453	22.619	884.566	703.317
272.468	22.697	884.218	703.290
273.482	22.707	884.091	703.166
274.497	23.073	883.041	703.727
275.512	22.560	882.750	701.392
276.526	22.150	880.731	698.096
277.541	22.287	880.785	698.620
278.555	22.713	880.262	699.835
279.570	22.398	879.867	698.209
280.585	22.233	878.993	696.800
281.599	22.288	878.179	696.311
282.614	22.590	877.655	697.029
283.628	22.012	876.840	694.037
284.643	21.833	875.727	692.386
285.657	22.284	875.906	694.249
286.672	22.128	875.328	693.114
287.687	21.616	874.237	690.169
288.701	21.977	873.534	690.975
289.716	22.388	873.672	692.641
290.730	21.996	872.737	690.297
291.745	21.947	872.068	689.515
292.760	21.719	870.851	687.598
293.774	21.642	870.156	686.685
294.789	22.544	870.938	690.779
295.803	23.223	870.803	693.271
296.818	23.164	870.749	692.937
297.833	23.333	869.894	692.855
298.847	23.113	868.621	690.921
299.862	22.735	867.813	688.743
300.876	22.823	867.445	688.731
301.891	23.088	867.266	689.562
302.906	23.296	866.578	689.763
303.920	22.880	865.287	687.058
304.935	22.694	864.777	685.870
305.949	23.042	864.497	686.941
306.964	23.138	863.933	686.804
307.979	22.956	863.050	685.336
308.993	22.923	862.710	684.875
310.008	23.159	862.448	685.521
311.022	23.249	862.051	685.492
312.037	22.958	861.746	684.065
313.052	22.767	861.002	682.673
314.066	22.827	860.032	682.075
315.081	22.143	858.698	678.318
316.095	21.378	857.464	674.333
317.110	22.101	857.406	677.017
318.125	22.852	857.848	680.198
319.139	22.479	856.553	677.677
320.154	21.162	855.304	671.566
321.168	20.925	853.676	669.317
322.183	21.454	854.105	671.628
323.197	22.371	854.500	675.401
324.212	22.655	854.252	676.235
325.227	22.754	853.729	676.137
326.241	22.972	853.281	676.559
327.256	22.964	852.586	675.918
328.270	22.744	852.034	674.578
329.285	22.681	851.235	673.645
330.300	22.506	851.164	672.861
331.314	22.274	850.094	671.070
332.329	22.354	849.303	670.691
333.343	22.713	848.677	671.504
334.358	22.986	848.504	672.348
335.373	22.974	848.118	671.938
336.387	23.067	847.334	671.611
337.402	23.331	847.042	672.322
338.416	23.374	846.715	672.164
339.431	23.444	845.855	671.688
340.446	23.417	845.160	670.976
341.460	23.594	844.775	671.279
342.475	23.570	844.228	670.696
343.489	23.410	843.555	669.497
344.504	23.272	843.487	668.863
345.519	23.552	843.038	669.503
346.533	23.747	842.733	669.936
347.548	23.887	841.944	669.777
348.562	23.982	841.519	669.738
349.577	23.729	840.997	668.310
350.592	23.804	840.308	667.989
351.606	23.719	840.145	667.479
352.621	23.727	839.366	666.832
353.635	23.521	839.194	665.863
354.650	23.572	838.366	665.337
355.665	23.285	837.349	663.398
356.679	22.403	835.386	658.484
357.694	22.094	835.428	657.305
358.708	22.890	835.118	659.978
359.723	22.819	834.269	658.983
360.738	23.055	834.077	659.655
361.752	23.454	834.047	661.061
362.767	23.562	833.945	661.324
363.781	23.658	833.983	661.654
364.796	24.032	833.780	662.825
365.810	24.035	833.138	662.268
366.825	24.154	833.110	662.630
367.840	24.124	832.364	661.865
368.854	23.932	831.658	660.533
369.869	23.628	830.749	658.626
370.883	23.464	830.027	657.385
371.898	23.543	829.478	657.187
372.913	23.257	829.159	655.815
373.927	23.456	828.299	655.813
374.942	23.762	827.454	656.218
375.956	23.617	827.314	655.514
376.971	23.872	826.720	655.927
377.986	23.865	826.198	655.428
379.000	23.837	826.336	655.376
380.015	24.039	825.581	655.464
381.029	24.022	824.253	654.287
382.044	23.956	823.605	653.472
383.059	23.989	823.734	653.637
384.073	24.077	822.867	653.215
385.088	24.134	822.233	652.864
386.102	24.196	821.869	652.745
387.117	23.893	821.262	651.093
388.132	23.785	820.658	650.163
389.146	23.690	819.891	649.150
390.161	23.249	819.080	646.841
391.175	23.205	818.880	646.463
392.190	23.638	818.697	647.843
393.205	23.864	818.015	648.070
394.219	22.860	816.127	642.864
395.234	21.221	814.279	635.394
396.248	20.502	813.218	631.896
397.263	21.518	814.084	636.210
398.278	23.349	815.045	643.560
399.292	23.823	814.993	645.184
400.307	23.576	814.152	643.568
401.321	23.557	813.549	642.962
402.336	23.618	813.471	643.066
403.350	23.745	813.593	643.565
404.365	23.967	813.733	644.423
405.380	24.424	813.535	645.866
406.394	24.685	813.302	646.569
407.409	24.734	812.839	646.318
408.423	24.812	812.004	645.880
409.438	24.652	811.597	644.920
410.453	24.728	811.038	644.694
411.467	24.885	810.737	644.964
412.482	24.858	809.821	644.081
413.496	24.650	809.690	643.171
414.511	24.902	809.183	643.617
415.526	24.862	808.814	643.120
416.540	24.940	808.370	642.994
417.555	24.743	808.176	642.074
418.569	24.549	807.211	640.555
419.584	24.504	806.683	639.918
420.599	24.446	806.002	639.113
421.613	154.082	1364.607	1794.495
422.628	133.841	1445.980	1794.618
