DTS Sentinel unit serial number:	SN413079Multiplexer serial number:	ORYXHardware model number:	OX4-SRSoftware version number:	ORYX F/W v4.00 Oryx Data Collector v3.7.2.0data status	okinstallation	princeton_trtdifferential loss correction	single-endedforward channel	channel 3reverse channel	N/Adate	2019/09/11time	13:02:11forward acquisition time	60.00reverse acquisition time	0.00gamma	496.2192k internal	0.2293k external	0.2293temperature offset calibration	0.9932default loss term (dB/km)	0.3790temperature slope calibration	1.0000multiplexer offset coefficient	1.0000multiplexer slope coefficient	1.0000fibre end	0.00T internal ref (°C)	41.62T ext. ref 1 (°C)	0.25T ext. ref 2 (°C)	38.94length (m)	temperature (°C)	Stokes	anti-Stokes-747.200	800.000	0.070	-0.275
-746.185	169.352	0.232	0.339
-745.171	-200.000	-0.076	0.346
-744.156	-200.000	0.029	0.167
-743.142	269.616	-0.083	-0.150
-742.127	-200.000	0.013	0.063
-741.112	-40.285	0.196	-0.104
-740.098	-200.000	0.043	-0.287
-739.083	86.753	0.351	-0.396
-738.069	-1.923	-0.063	-0.045
-737.054	108.590	-0.130	-0.158
-736.039	-99.782	-0.225	0.058
-735.025	28.018	-0.060	0.052
-734.010	347.315	-0.216	-0.435
-732.996	-132.606	0.251	-0.033
-731.981	-115.464	-0.361	0.069
-730.966	-57.749	-0.105	0.047
-729.952	-200.000	0.191	-0.000
-728.937	-200.000	-0.006	0.231
-727.923	94.582	0.038	-0.044
-726.908	-31.576	-0.253	-0.145
-725.894	23.698	-0.133	0.112
-724.879	-200.000	-0.032	-0.265
-723.864	19.260	-0.194	0.159
-722.850	800.000	-0.032	-0.111
-721.835	-200.000	-0.044	-0.333
-720.821	-41.936	-0.343	-0.180
-719.806	-54.166	-0.103	-0.048
-718.791	-50.844	-0.312	0.150
-717.777	-200.000	0.046	0.241
-716.762	-82.970	-0.289	0.095
-715.748	-122.653	-0.253	-0.042
-714.733	-76.873	-0.230	0.082
-713.718	-55.455	-0.168	0.077
-712.704	-134.329	0.157	-0.020
-711.689	275.345	0.067	0.122
-710.675	-136.816	0.248	0.029
-709.660	-97.912	-0.242	-0.064
-708.645	-200.000	0.030	0.319
-707.631	-76.167	0.196	0.070
-706.616	-113.063	-0.422	-0.085
-705.602	-200.000	-0.013	0.122
-704.587	579.505	-0.064	-0.160
-703.572	116.272	0.142	0.177
-702.558	-200.000	0.030	-0.248
-701.543	-48.076	-0.163	-0.080
-700.529	-108.859	-0.365	-0.080
-699.514	-32.893	0.099	0.056
-698.499	-200.000	0.033	0.498
-697.485	-200.000	-0.001	0.116
-696.470	-73.805	-0.107	-0.040
-695.456	800.000	-0.007	-0.023
-694.441	800.000	-0.071	-0.223
-693.426	800.000	-0.075	-0.230
-692.412	800.000	0.095	0.387
-691.397	800.000	0.087	0.252
-690.383	-94.269	-0.261	0.073
-689.368	-89.716	-0.113	-0.034
-688.354	-156.097	-0.165	0.011
-687.339	800.000	-0.091	0.269
-686.324	59.533	0.268	0.269
-685.310	-200.000	-0.021	0.153
-684.295	135.016	-0.257	0.340
-683.281	800.000	-0.048	0.179
-682.266	-200.000	-0.011	-0.091
-681.251	525.704	-0.102	-0.246
-680.237	796.200	0.057	0.162
-679.222	-75.848	0.293	-0.106
-678.208	-156.328	-0.242	-0.015
-677.193	76.960	0.207	-0.224
-676.178	63.012	0.280	-0.286
-675.164	800.000	0.041	0.164
-674.149	-58.838	0.201	0.089
-673.135	-200.000	-0.077	-0.431
-672.120	-29.006	-0.425	-0.249
-671.105	-100.195	0.349	0.088
-670.091	-200.000	0.000	-0.035
-669.076	140.748	0.051	0.069
-668.062	111.418	-0.144	0.177
-667.047	800.000	-0.055	0.175
-666.032	800.000	0.084	-0.359
-665.018	800.000	-0.076	0.313
-664.003	-200.000	0.006	-0.248
-662.989	6.214	0.088	0.067
-661.974	-54.893	-0.019	0.009
-660.959	-151.832	0.166	-0.012
-659.945	-128.074	0.350	0.051
-658.930	-200.000	0.034	0.246
-657.916	-37.788	-0.334	-0.181
-656.901	76.944	-0.103	0.111
-655.886	800.000	0.143	-0.435
-654.872	308.449	0.114	-0.217
-653.857	-200.000	0.004	-0.301
-652.843	-69.084	0.114	0.045
-651.828	-180.999	-0.588	-0.012
-650.814	68.886	-0.124	-0.129
-649.799	-18.677	0.086	0.054
-648.784	31.651	0.194	0.170
-647.770	800.000	-0.039	-0.138
-646.755	195.677	0.046	0.072
-645.741	210.406	-0.150	-0.241
-644.726	-169.695	0.160	-0.006
-643.711	383.695	0.040	-0.085
-642.697	160.373	-0.087	-0.123
-641.682	-113.425	0.164	0.033
-640.668	-45.647	-0.215	-0.108
-639.653	10.678	0.184	0.143
-638.638	800.000	-0.037	0.160
-637.624	242.870	0.086	0.146
-636.609	800.000	0.130	-0.427
-635.595	-87.009	0.388	-0.120
-634.580	800.000	-0.039	-0.115
-633.565	-200.000	0.053	0.318
-632.551	-95.451	-0.236	-0.065
-631.536	-200.000	0.052	0.327
-630.522	-200.000	-0.053	-0.250
-629.507	17.112	-0.220	0.177
-628.492	7.972	0.183	0.140
-627.478	-200.000	-0.037	-0.252
-626.463	800.000	0.005	0.019
-625.449	-134.188	-0.170	-0.021
-624.434	-200.000	0.028	-0.278
-623.419	800.000	-0.030	0.116
-622.405	69.632	-0.152	0.160
-621.390	-88.960	-0.323	-0.097
-620.376	451.569	0.108	0.242
-619.361	-48.856	0.088	-0.043
-618.346	-109.318	0.201	-0.043
-617.332	-82.522	-0.196	-0.065
-616.317	82.901	0.070	-0.078
-615.303	800.000	-0.069	-0.230
-614.288	-127.572	-0.074	0.011
-613.273	-5.990	0.099	-0.069
-612.259	-98.701	-0.121	-0.031
-611.244	-200.000	-0.022	-0.331
-610.230	-200.000	-0.022	-0.293
-609.215	-200.000	-0.045	-0.328
-608.201	-114.903	-0.110	0.021
-607.186	150.423	-0.035	0.049
-606.171	-134.602	-0.227	-0.028
-605.157	-44.415	0.273	0.139
-604.142	-200.000	0.034	-0.295
-603.128	-68.619	-0.086	-0.034
-602.113	18.995	-0.212	-0.173
-601.098	800.000	0.098	0.310
-600.084	-66.349	-0.458	-0.185
-599.069	341.531	-0.104	-0.206
-598.055	-152.580	-0.078	0.006
-597.040	800.000	-0.097	0.362
-596.025	96.408	0.070	0.081
-595.011	406.884	-0.046	-0.098
-593.996	-82.922	-0.195	-0.064
-592.982	-45.590	-0.187	-0.094
-591.967	69.657	0.127	0.133
-590.952	98.443	-0.281	-0.330
-589.938	492.804	0.036	-0.084
-588.923	244.955	-0.102	0.174
-587.909	753.191	-0.061	0.167
-586.894	-45.293	0.142	-0.072
-585.879	1.170	0.081	0.059
-584.865	409.304	0.101	0.218
-583.850	52.479	0.216	0.210
-582.836	800.000	0.057	-0.238
-581.821	-121.170	0.277	-0.047
-580.806	-78.455	0.120	0.042
-579.792	-70.945	0.393	-0.151
-578.777	-54.457	0.095	0.044
-577.763	19.167	0.092	0.075
-576.748	-200.000	0.018	-0.139
-575.733	-67.676	-0.284	-0.113
-574.719	361.512	-0.015	-0.030
-573.704	193.212	-0.113	0.174
-572.690	120.141	-0.105	0.133
-571.675	74.983	0.185	0.198
-570.661	-110.953	-0.125	0.026
-569.646	47.450	-0.162	0.153
-568.631	80.293	-0.165	0.181
-567.617	110.407	0.210	0.257
-566.602	47.922	0.146	-0.139
-565.588	0.358	0.300	-0.218
-564.573	500.106	-0.115	-0.270
-563.558	-73.101	-0.153	0.057
-562.544	-68.529	-0.302	0.119
-561.529	51.692	-0.026	-0.025
-560.515	-2.549	0.286	-0.204
-559.500	20.782	0.210	0.173
-558.485	11.602	-0.075	-0.058
-557.471	-47.233	-0.203	-0.100
-556.456	96.148	-0.021	0.025
-555.442	-19.876	0.229	-0.144
-554.427	-0.372	-0.230	-0.166
-553.412	-127.875	-0.297	0.043
-552.398	303.855	0.092	-0.172
-551.383	-50.971	-0.078	0.037
-550.369	131.799	-0.171	0.223
-549.354	-152.201	0.058	-0.004
-548.339	459.508	-0.129	0.292
-547.325	-144.909	0.217	-0.020
-546.310	-72.122	0.349	-0.132
-545.296	-82.773	-0.476	-0.156
-544.281	-123.080	-0.251	-0.041
-543.266	59.219	-0.154	0.154
-542.252	-77.820	0.141	0.049
-541.237	-158.253	0.171	0.010
-540.223	137.376	-0.259	0.344
-539.208	-200.000	-0.020	-0.346
-538.193	-9.824	-0.118	-0.080
-537.179	146.309	-0.304	-0.413
-536.164	-44.324	-0.297	-0.151
-535.150	204.746	-0.029	-0.046
-534.135	37.915	0.227	-0.205
-533.121	-75.109	0.032	0.012
-532.106	-149.513	0.359	-0.029
-531.091	1.156	-0.063	-0.046
-530.077	-163.051	-0.240	-0.012
-529.062	-184.387	0.145	0.002
-528.048	-15.592	0.210	0.136
-527.033	-37.011	0.083	-0.045
-526.018	-66.063	-0.293	0.119
-525.004	-78.790	-0.308	0.107
-523.989	89.062	-0.151	-0.170
-522.975	-200.000	-0.026	0.155
-521.960	-82.282	0.275	0.091
-520.945	145.975	-0.100	0.136
-519.931	20.441	0.268	-0.220
-518.916	73.401	-0.232	-0.247
-517.902	-138.470	-0.239	0.027
-516.887	-65.344	0.106	0.043
-515.872	-200.000	0.053	-0.248
-514.858	-200.000	0.007	0.062
-513.843	-118.532	0.182	-0.033
-512.829	-114.829	-0.115	-0.022
-511.814	-180.667	-0.373	-0.008
-510.799	-200.000	0.056	0.262
-509.785	79.262	-0.151	0.164
-508.770	147.958	0.106	0.144
-507.756	92.117	-0.100	0.114
-506.741	-200.000	-0.033	-0.231
-505.726	-123.155	0.218	-0.035
-504.712	174.633	-0.037	-0.054
-503.697	-195.177	0.094	0.001
-502.683	215.253	-0.217	-0.348
-501.668	358.857	-0.141	-0.286
-500.653	-200.000	-0.009	0.127
-499.639	50.061	-0.080	-0.076
-498.624	-115.285	-0.270	0.052
-497.610	232.334	-0.123	0.204
-496.595	193.762	-0.094	0.144
-495.581	257.978	0.077	-0.134
-494.566	-153.572	0.161	0.011
-493.551	-87.073	0.137	0.042
-492.537	-47.081	0.448	-0.221
-491.522	1.792	0.289	0.211
-490.508	800.000	0.075	0.331
-489.493	146.206	0.174	-0.237
-488.478	10.315	-0.154	0.119
-487.464	-163.476	0.376	0.018
-486.449	86.821	-0.187	-0.209
-485.435	-122.870	0.091	-0.015
-484.420	-200.000	0.033	0.260
-483.405	-185.907	0.100	-0.002
-482.391	-200.000	0.000	-0.154
-481.376	-4.584	0.294	0.206
-480.362	-117.582	0.179	-0.033
-479.347	771.840	0.068	0.187
-478.332	-200.000	-0.015	0.127
-477.318	-174.638	0.231	0.007
-476.303	-98.988	0.243	0.062
-475.289	733.238	-0.084	0.227
-474.274	-29.251	-0.389	-0.225
-473.259	800.000	-0.029	0.098
-472.245	202.855	0.127	-0.199
-471.230	54.081	0.107	-0.104
-470.216	-55.053	-0.095	0.043
-469.201	-42.325	-0.355	0.184
-468.186	-81.579	-0.352	0.117
-467.172	-9.004	-0.109	-0.074
-466.157	-61.200	-0.144	0.061
-465.143	363.847	0.174	-0.354
-464.128	-200.000	-0.014	0.143
-463.113	-56.782	-0.174	0.078
-462.099	24.595	0.195	-0.163
-461.084	-182.827	0.104	0.002
-460.070	90.039	-0.132	-0.149
-459.055	-200.000	0.002	-0.030
-458.040	-131.806	0.228	0.030
-457.026	46.117	-0.218	0.204
-456.011	-200.000	-0.001	0.069
-454.997	275.916	0.165	0.296
-453.982	-200.000	-0.008	-0.100
-452.968	800.000	0.016	-0.062
-451.953	55.953	-0.134	-0.131
-450.938	91.567	-0.190	0.216
-449.924	-200.000	-0.017	-0.157
-448.909	-119.922	0.131	-0.023
-447.895	-90.487	0.233	0.068
-446.880	89.977	-0.135	-0.153
-445.865	-67.548	-0.202	-0.080
-444.851	212.447	-0.223	-0.356
-443.836	-200.000	0.006	0.083
-442.822	-48.857	-0.220	0.107
-441.807	800.000	-0.096	0.388
-440.792	566.331	-0.054	-0.132
-439.778	-134.435	0.117	-0.015
-438.763	800.000	-0.009	0.034
-437.749	-75.879	0.109	-0.039
-436.734	-200.000	0.040	0.200
-435.719	-73.392	0.246	-0.091
-434.705	-64.912	-0.273	0.112
-433.690	-53.091	-0.359	-0.167
-432.676	-55.514	-0.262	-0.119
-431.661	126.479	0.119	0.152
-430.646	-67.832	-0.269	-0.106
-429.632	7.687	0.121	0.091
-428.617	-12.940	0.154	0.101
-427.603	-15.164	-0.188	0.121
-426.588	105.810	-0.307	-0.367
-425.573	800.000	-0.075	0.250
-424.559	423.885	-0.101	-0.218
-423.544	228.402	-0.009	-0.014
-422.530	-1.322	0.332	0.237
-421.515	-34.328	-0.119	-0.066
-420.500	-58.788	0.072	-0.031
-419.486	137.253	0.105	0.139
-418.471	-157.993	-0.194	0.012
-417.457	83.031	0.192	0.211
-416.442	-158.724	-0.277	-0.016
-415.428	-174.032	0.291	0.009
-414.413	143.840	0.028	-0.038
-413.398	-200.000	-0.033	-0.237
-412.384	-161.203	-0.166	0.009
-411.369	77.498	0.150	-0.162
-410.355	151.055	-0.290	-0.399
-409.340	-200.000	0.065	-0.320
-408.325	-200.000	0.017	-0.119
-407.311	-200.000	0.026	-0.135
-406.296	230.050	0.039	0.064
-405.282	-60.381	-0.161	0.069
-404.267	-39.165	0.049	-0.026
-403.252	5.192	-0.180	0.134
-402.238	223.408	-0.043	0.069
-401.223	-200.000	-0.019	-0.246
-400.209	592.031	-0.126	-0.315
-399.194	-82.768	-0.222	0.073
-398.179	157.356	0.244	-0.340
-397.165	162.312	0.128	0.182
-396.150	18.904	0.113	-0.092
-395.136	-200.000	0.004	-0.092
-394.121	63.220	-0.163	-0.165
-393.106	-56.110	-0.220	-0.099
-392.092	157.640	-0.250	0.350
-391.077	209.858	0.111	-0.175
-390.063	-198.417	-0.441	-0.003
-389.048	721.378	-0.053	-0.143
-388.033	-145.205	0.095	0.009
-387.019	-85.512	0.091	0.029
-386.004	45.723	-0.023	-0.022
-384.990	23.041	0.151	-0.125
-383.975	196.994	0.116	0.178
-382.960	3.419	0.305	0.224
-381.946	-200.000	0.036	0.221
-380.931	-200.000	0.000	-0.186
-379.917	-47.801	-0.236	0.115
-378.902	189.676	0.049	-0.073
-377.888	666.684	0.073	0.192
-376.873	-54.022	0.213	-0.098
-375.858	-50.991	0.295	0.139
-374.844	-200.000	-0.030	0.203
-373.829	123.353	-0.090	0.114
-372.815	-200.000	0.041	-0.214
-371.800	-200.000	0.015	-0.108
-370.785	-40.782	0.294	-0.153
-369.771	293.904	0.161	-0.297
-368.756	667.160	-0.070	0.183
-367.742	-25.067	-0.038	0.023
-366.727	-67.110	-0.084	-0.033
-365.712	-16.670	-0.377	-0.240
-364.698	-156.570	0.426	-0.027
-363.683	12.451	0.144	0.112
-362.669	-15.716	-0.150	0.096
-361.654	256.998	-0.083	0.144
-360.639	510.423	-0.086	0.201
-359.625	-200.000	0.024	0.117
-358.610	11.073	-0.089	-0.068
-357.596	-144.105	0.192	-0.018
-356.581	-43.343	0.266	0.135
-355.566	-180.952	-0.111	-0.002
-354.552	-128.158	-0.035	-0.005
-353.537	-119.327	0.170	0.030
-352.523	-17.571	-0.121	-0.076
-351.508	5.865	-0.182	0.136
-350.493	-26.927	-0.133	-0.078
-349.479	-200.000	0.003	-0.243
-348.464	-79.329	-0.321	-0.110
-347.450	-200.000	-0.013	-0.098
-346.435	-54.906	-0.198	-0.090
-345.420	-123.262	0.204	0.033
-344.406	106.316	-0.072	-0.086
-343.391	132.244	-0.129	-0.167
-342.377	-137.704	-0.176	0.020
-341.362	-99.446	0.178	0.045
-340.348	41.926	-0.116	0.106
-339.333	58.434	0.104	0.103
-338.318	267.546	-0.038	-0.067
-337.304	176.195	-0.223	0.326
-336.289	48.619	-0.047	-0.045
-335.275	-200.000	-0.035	-0.234
-334.260	-127.432	0.190	0.028
-333.245	69.333	-0.060	-0.062
-332.231	179.474	-0.127	0.188
-331.216	589.886	0.140	0.346
-330.202	-151.791	-0.349	-0.026
-329.187	-107.981	-0.403	-0.088
-328.172	-166.691	0.149	-0.006
-327.158	800.000	0.058	0.171
-326.143	-200.000	0.006	-0.136
-325.129	-0.416	0.097	-0.070
-324.114	-58.762	-0.196	0.085
-323.099	-200.000	0.016	-0.328
-322.085	-86.481	-0.218	0.067
-321.070	-200.000	0.009	-0.133
-320.056	-6.218	-0.128	0.088
-319.041	-19.901	0.127	0.079
-318.026	299.762	0.221	0.409
-317.012	-42.895	0.057	0.029
-315.997	-200.000	0.010	-0.173
-314.983	-51.388	0.516	-0.243
-313.968	-55.074	-0.238	-0.108
-312.953	-131.146	0.099	-0.013
-311.939	254.013	0.264	-0.454
-310.924	-200.000	-0.026	0.121
-309.910	-200.000	-0.028	0.159
-308.895	800.000	-0.027	0.109
-307.880	800.000	-0.027	0.104
-306.866	800.000	-0.030	0.114
-305.851	205.155	0.220	-0.344
-304.837	-172.240	-0.383	-0.012
-303.822	390.850	0.159	0.331
-302.807	-102.651	-0.257	-0.062
-301.793	-56.357	0.262	0.117
-300.778	-120.682	-0.076	-0.013
-299.764	-36.545	0.206	-0.111
-298.749	-78.886	0.342	0.117
-297.735	-3.123	-0.091	-0.064
-296.720	-102.854	0.093	-0.022
-295.705	-200.000	-0.046	-0.252
-294.691	285.780	0.171	-0.311
-293.676	322.301	-0.081	-0.155
-292.662	800.000	0.005	0.017
-291.647	183.478	-0.081	-0.121
-290.632	-92.415	-0.170	0.048
-289.618	800.000	-0.022	-0.068
-288.603	-133.626	-0.192	0.024
-287.589	-26.259	0.193	0.114
-286.574	286.684	0.128	-0.232
-285.559	-200.000	-0.004	0.033
-284.545	-200.000	0.006	0.097
-283.530	478.524	0.067	0.152
-282.516	-42.819	-0.252	0.129
-281.501	-109.348	0.028	-0.006
-280.486	234.736	-0.072	0.119
-279.472	165.808	0.177	-0.252
-278.457	-200.000	0.010	-0.229
-277.443	800.000	-0.051	0.224
-276.428	800.000	0.068	0.232
-275.413	-26.391	0.166	0.098
-274.399	-103.271	-0.150	-0.035
-273.384	800.000	0.038	-0.164
-272.370	-200.000	-0.003	0.231
-271.355	800.000	0.047	-0.137
-270.340	-30.930	0.081	-0.046
-269.326	83.990	0.226	0.248
-268.311	82.145	0.129	-0.140
-267.297	388.408	0.064	0.134
-266.282	-121.949	-0.065	0.011
-265.267	-153.210	-0.157	0.011
-264.253	0.694	0.108	0.077
-263.238	-97.910	-0.318	-0.082
-262.224	800.000	0.087	-0.307
-261.209	-200.000	0.059	-0.497
-260.195	33.723	0.063	-0.055
-259.180	351.392	0.083	0.164
-258.165	-100.563	-0.182	0.045
-257.151	-112.882	0.265	-0.053
-256.136	-24.356	-0.231	0.138
-255.122	800.000	-0.095	-0.355
-254.107	22.679	0.135	0.111
-253.092	-6.422	0.152	0.104
-252.078	-200.000	0.008	0.284
-251.063	-200.000	-0.027	0.153
-250.049	-114.932	-0.013	-0.002
-249.034	75.778	0.183	-0.194
-248.019	291.739	0.051	0.093
-247.005	-200.000	0.022	-0.106
-245.990	-66.473	0.347	0.138
-244.976	-200.000	-0.030	-0.187
-243.961	-40.903	0.307	0.159
-242.946	-200.000	0.014	0.228
-241.932	-45.666	0.285	0.142
-240.917	90.511	-0.075	0.084
-239.903	33.935	-0.117	-0.102
-238.888	688.730	-0.093	0.244
-237.873	-52.491	-0.158	0.073
-236.859	-155.256	-0.177	-0.012
-235.844	-200.000	-0.021	0.344
-234.830	-37.020	0.275	0.148
-233.815	-88.942	-0.100	-0.030
-232.800	260.209	-0.129	0.223
-231.786	-144.038	-0.245	-0.023
-230.771	-111.918	0.033	0.007
-229.757	-109.534	0.284	0.060
-228.742	40.054	-0.175	0.157
-227.727	50.834	-0.091	0.086
-226.713	-141.245	-0.054	-0.005
-225.698	421.830	0.070	-0.151
-224.684	165.250	-0.031	0.044
-223.669	111.709	0.248	-0.300
-222.655	800.000	-0.072	0.276
-221.640	-13.330	0.333	0.216
-220.625	-109.280	0.256	0.054
-219.611	800.000	-0.080	-0.246
-218.596	425.384	0.030	-0.064
-217.582	106.595	0.073	0.086
-216.567	8.332	-0.138	0.104
-215.552	13.923	0.273	0.213
-214.538	249.015	0.120	0.203
-213.523	236.599	0.196	-0.325
-212.509	-200.000	-0.056	-0.000
-211.494	77.579	0.058	-0.061
-210.479	-118.825	-0.275	-0.048
-209.465	-15.224	0.203	-0.130
-208.450	-31.302	0.229	0.129
-207.436	-70.865	0.303	0.114
-206.421	71.580	-0.159	0.165
-205.406	-200.000	0.017	-0.153
-204.392	800.000	0.028	0.110
-203.377	261.423	0.199	0.346
-202.363	-200.000	0.014	0.465
-201.348	136.486	-0.021	-0.027
-200.333	127.131	0.157	0.199
-199.319	-41.592	0.133	0.068
-198.304	20.515	0.103	0.083
-197.290	-166.854	0.483	-0.020
-196.275	-78.833	0.336	-0.115
-195.260	-37.056	0.225	-0.121
-194.246	-124.535	0.280	0.044
-193.231	800.000	0.111	-0.350
-192.217	186.834	0.297	-0.443
-191.202	-155.364	-0.183	-0.012
-190.187	800.000	-0.029	-0.110
-189.173	-155.492	0.198	-0.013
-188.158	296.212	0.109	0.200
-187.144	-180.714	0.110	-0.002
-186.129	-200.000	-0.019	0.103
-185.114	-200.000	0.000	-0.165
-184.100	800.000	-0.074	0.278
-183.085	-145.695	0.221	0.020
-182.071	-200.000	0.005	-0.150
-181.056	143.269	-0.107	0.143
-180.042	1.444	-0.192	-0.138
-179.027	-116.117	-0.127	-0.024
-178.012	-60.061	0.093	0.040
-176.998	26.521	-0.376	0.315
-175.983	279.977	-0.063	-0.112
-174.969	234.367	0.350	0.578
-173.954	-81.881	-0.053	0.017
-172.939	-48.277	0.384	0.185
-171.925	-115.967	-0.136	-0.025
-170.910	-200.000	0.023	-0.300
-169.896	800.000	0.064	0.207
-168.881	-157.538	-0.440	0.026
-167.866	-109.569	-0.313	-0.066
-166.852	122.259	-0.169	-0.211
-165.837	-11.826	-0.171	0.112
-164.823	486.952	0.023	0.053
-163.808	97.949	0.144	0.165
-162.793	158.406	-0.187	-0.260
-161.779	-69.304	-0.216	0.083
-160.764	192.385	-0.136	0.205
-159.750	375.270	0.163	0.331
-158.735	170.526	-0.270	0.386
-157.720	-181.521	-0.146	0.003
-156.706	-127.458	0.034	-0.005
-155.691	-146.966	0.375	-0.032
-154.677	-84.154	-0.129	-0.041
-153.662	-173.251	-0.015	0.000
-152.647	268.138	-0.011	0.019
-151.633	-200.000	0.003	-0.134
-150.618	-38.271	0.301	-0.160
-149.604	-29.577	0.183	0.104
-148.589	-125.975	-0.507	-0.076
-147.574	134.765	-0.184	0.239
-146.560	46.448	-0.270	0.250
-145.545	25.193	0.085	0.070
-144.531	-38.787	-0.357	0.188
-143.516	-14.947	0.210	-0.134
-142.502	-131.681	0.150	0.020
-141.487	-75.762	-0.232	0.082
-140.472	46.402	0.033	0.031
-139.458	39.334	0.257	0.230
-138.443	-31.862	-0.150	-0.084
-137.429	1.628	-0.423	-0.305
-136.414	221.512	-0.109	-0.176
-135.399	-105.568	-0.056	-0.013
-134.385	-55.623	0.130	-0.058
-133.370	13.332	0.211	-0.163
-132.356	-14.916	0.222	-0.142
-131.341	-160.276	0.250	-0.013
-130.326	23.355	-0.144	-0.118
-129.312	-149.284	-0.201	0.016
-128.297	800.000	0.068	-0.295
-127.283	32.613	0.085	0.073
-126.268	-200.000	-0.002	-0.038
-125.253	373.160	0.046	-0.094
-124.239	259.585	0.056	-0.096
-123.224	-200.000	0.010	-0.185
-122.210	-115.296	0.203	-0.038
-121.195	-200.000	0.029	-0.245
-120.180	492.619	-0.165	0.377
-119.166	-102.976	-0.369	-0.087
-118.151	165.646	0.106	0.150
-117.137	458.594	0.014	-0.031
-116.122	117.634	0.043	-0.053
-115.107	-200.000	-0.052	0.285
-114.093	-27.534	0.313	-0.181
-113.078	-51.840	0.274	0.127
-112.064	56.387	0.434	0.421
-111.049	605.459	-0.136	0.338
-110.034	127.722	0.114	0.145
-109.020	-43.258	-0.229	0.116
-108.005	422.548	0.064	0.136
-106.991	800.000	-0.038	0.112
-105.976	30.303	0.169	0.144
-104.962	54.217	-0.122	0.117
-103.947	-56.140	-0.082	-0.036
-102.932	27.609	0.118	0.099
-101.918	-200.000	0.037	0.222
-100.903	-115.696	0.377	-0.071
-99.889	142.366	-0.018	-0.023
-98.874	210.739	0.150	-0.235
-97.859	800.000	0.037	-0.115
-96.845	-200.000	-0.000	0.210
-95.830	-40.241	0.272	-0.141
-94.816	-200.000	-0.001	-0.195
-93.801	-17.865	-0.187	0.117
-92.786	800.000	-0.057	0.170
-91.772	-47.771	0.142	-0.069
-90.757	10.231	-0.123	0.093
-89.743	-129.352	-0.181	-0.025
-88.728	-69.919	0.219	-0.083
-87.713	-200.000	0.005	-0.076
-86.699	-69.565	-0.146	-0.056
-85.684	-58.121	-0.216	0.094
-84.670	90.475	0.081	0.090
-83.655	273.743	0.101	0.177
-82.640	21.934	0.145	-0.118
-81.626	-61.744	-0.051	0.021
-80.611	385.330	-0.048	-0.099
-79.597	9.715	-0.176	0.133
-78.582	-200.000	-0.049	-0.242
-77.567	-98.773	-0.100	-0.025
-76.553	65.850	0.201	0.203
-75.538	255.424	0.174	0.297
-74.524	-200.000	0.022	0.297
-73.509	30.846	-0.152	-0.130
-72.494	86.602	0.076	0.084
-71.480	270.237	0.153	-0.269
-70.465	-200.000	-0.000	-0.353
-69.451	583.076	0.064	-0.157
-68.436	-200.000	0.007	0.035
-67.422	-200.000	-0.011	-0.207
-66.407	-200.000	0.012	0.298
-65.392	-44.480	0.076	0.038
-64.378	585.301	-0.172	0.421
-63.363	-200.000	-0.007	-0.094
-62.349	-119.409	-0.124	0.022
-61.334	22.642	-0.839	-0.684
-60.319	800.000	0.078	0.269
-59.305	-200.000	-0.096	-0.502
-58.290	336.412	0.283	0.548
-57.276	693.114	0.506	1.322
-56.261	-200.000	75.224	523.468
-55.246	552.040	1307.505	3126.814
-54.232	144.920	2557.598	3405.303
-53.217	117.661	2263.329	2773.951
-52.203	52.806	1779.505	1694.007
-51.188	45.319	1574.344	1445.961
-50.173	42.385	1544.933	1398.481
-49.159	58.138	1580.850	1542.048
-48.144	64.418	1600.894	1605.657
-47.130	45.553	1563.861	1437.747
-46.115	41.890	1549.208	1398.670
-45.100	41.631	1546.239	1394.121
-44.086	41.631	1544.199	1392.233
-43.071	41.601	1542.299	1390.251
-42.057	41.564	1540.145	1387.999
-41.042	41.646	1538.235	1386.791
-40.027	41.632	1537.509	1385.982
-39.013	41.673	1535.571	1384.469
-37.998	41.578	1534.796	1383.057
-36.984	41.638	1533.377	1382.136
-35.969	41.586	1532.154	1380.620
-34.954	41.767	1530.529	1380.353
-33.940	41.577	1529.259	1377.843
-32.925	41.660	1527.541	1376.806
-31.911	41.695	1525.645	1375.285
-30.896	41.762	1524.315	1374.496
-29.881	41.715	1523.188	1373.098
-28.867	41.711	1522.046	1371.992
-27.852	41.710	1520.541	1370.570
-26.838	41.713	1519.374	1369.486
-25.823	41.669	1517.528	1367.465
-24.809	41.667	1515.854	1365.892
-23.794	41.587	1514.728	1364.275
-22.779	41.678	1513.226	1363.486
-21.765	41.620	1512.546	1362.428
-20.750	41.652	1511.192	1361.369
-19.736	41.772	1509.595	1360.692
-18.721	41.697	1508.531	1359.172
-17.706	41.558	1507.212	1356.982
-16.692	41.563	1506.413	1356.242
-15.677	41.605	1505.177	1355.365
-14.663	41.644	1504.093	1354.598
-13.648	41.543	1503.257	1353.107
-12.633	41.439	1502.948	1352.071
-11.619	41.584	1501.783	1351.950
-10.604	41.571	1500.903	1351.016
-9.590	41.601	1499.662	1350.046
-8.575	41.512	1499.094	1348.882
-7.560	41.536	1498.149	1348.138
-6.546	41.645	1496.824	1347.633
-5.531	41.579	1496.302	1346.659
-4.517	41.633	1494.979	1345.778
-3.502	41.586	1494.225	1344.731
-2.487	41.562	1493.318	1343.698
-1.473	41.539	1492.326	1342.597
-0.458	41.560	1490.840	1341.351
0.556	39.753	1482.670	1332.969
1.571	37.618	1455.055	1293.851
2.586	34.155	1392.583	1216.113
3.600	32.254	1308.817	1131.430
4.615	30.097	1260.487	1077.037
5.629	24.827	1199.509	995.606
6.644	11.899	1104.536	850.013
7.659	1.853	1055.928	762.472
8.673	0.492	1049.421	750.935
9.688	0.305	1046.216	747.645
10.702	0.116	1044.864	745.680
11.717	0.088	1043.030	744.165
12.731	4.184	1049.042	768.731
13.746	15.642	1065.439	838.116
14.761	22.714	1073.881	880.094
15.775	22.544	1072.608	878.128
16.790	22.333	1071.915	876.429
17.804	22.287	1071.069	875.432
18.819	22.004	1070.481	873.469
19.834	22.057	1069.733	873.044
20.848	22.109	1069.087	872.694
21.863	22.121	1068.903	872.526
22.877	22.077	1068.928	872.253
23.892	22.125	1067.983	871.643
24.907	22.090	1066.663	870.316
25.921	22.114	1066.293	870.056
26.936	22.181	1065.189	869.411
27.950	22.162	1063.953	868.231
28.965	22.134	1063.084	867.305
29.980	21.879	1061.682	864.827
30.994	21.912	1059.829	863.406
32.009	22.127	1059.413	864.044
33.023	22.230	1058.623	863.833
34.038	21.942	1057.493	861.419
35.053	21.998	1056.358	860.695
36.067	22.019	1056.194	860.586
37.082	22.173	1055.382	860.600
38.096	22.182	1054.558	859.900
39.111	22.306	1054.337	860.247
40.126	22.496	1053.043	860.043
41.140	22.425	1051.679	858.509
42.155	22.099	1050.347	855.756
43.169	21.826	1049.005	853.262
44.184	21.759	1047.894	851.958
45.199	21.993	1046.919	852.224
46.213	21.751	1046.651	850.757
47.228	21.811	1045.351	849.912
48.242	21.906	1044.531	849.634
49.257	21.982	1044.294	849.732
50.271	22.035	1043.065	848.915
51.286	22.191	1042.231	848.913
52.301	22.281	1041.255	848.479
53.315	22.377	1040.563	848.299
54.330	22.189	1040.253	847.068
55.344	22.095	1039.396	845.843
56.359	22.130	1038.199	844.961
57.374	22.165	1037.791	844.722
58.388	21.898	1036.795	842.556
59.403	21.929	1035.376	841.474
60.417	21.983	1035.123	841.453
61.432	21.736	1034.618	839.785
62.447	21.814	1033.543	839.211
63.461	21.942	1033.153	839.434
64.476	21.927	1032.473	838.738
65.490	21.912	1031.166	837.527
66.505	21.884	1030.087	836.443
67.520	21.761	1029.668	835.446
68.534	21.921	1028.520	835.201
69.549	21.912	1027.554	834.301
70.563	21.594	1026.376	831.760
71.578	21.396	1025.707	830.202
72.593	21.506	1025.083	830.146
73.607	21.327	1023.909	828.274
74.622	21.302	1022.893	827.259
75.636	21.692	1021.804	828.152
76.651	21.984	1021.194	828.960
77.666	21.598	1020.475	826.484
78.680	21.594	1019.442	825.555
79.695	21.576	1019.191	825.192
80.709	21.747	1018.272	825.181
81.724	21.734	1017.830	824.688
82.739	21.872	1016.639	824.298
83.753	21.791	1015.925	823.268
84.768	22.029	1015.648	824.089
85.782	22.357	1014.903	824.945
86.797	22.479	1014.407	825.042
87.812	22.493	1013.097	823.972
88.826	22.283	1012.035	822.053
89.841	22.302	1011.604	821.720
90.855	22.415	1010.849	821.561
91.870	22.369	1010.116	820.674
92.884	22.267	1009.415	819.557
93.899	22.309	1008.284	818.762
94.914	22.269	1007.038	817.493
95.928	22.253	1006.392	816.822
96.943	22.407	1005.851	817.026
97.957	22.068	1004.526	814.307
98.972	21.797	1003.455	812.111
99.987	21.619	1002.733	810.631
101.001	21.709	1001.992	810.375
102.016	22.014	1001.387	811.226
103.030	22.220	1000.319	811.238
104.045	22.049	999.032	809.333
105.060	21.946	997.787	807.782
106.074	21.743	996.856	806.023
107.089	21.756	996.407	805.648
108.103	22.083	995.780	806.571
109.118	22.157	994.987	806.198
110.133	22.003	994.090	804.690
111.147	21.926	992.636	803.093
112.162	21.844	991.499	801.727
113.176	21.581	990.446	799.603
114.191	21.627	989.722	799.156
115.206	21.788	989.240	799.433
116.220	21.502	987.943	797.009
117.235	21.323	986.873	795.264
118.249	21.345	986.467	794.963
119.264	21.552	985.853	795.338
120.279	21.490	984.476	793.876
121.293	21.520	983.579	793.219
122.308	21.507	983.196	792.783
123.322	21.537	982.312	792.133
124.337	21.546	980.527	790.665
125.352	21.354	979.623	789.000
126.366	21.082	978.077	786.458
127.381	20.792	976.854	784.102
128.395	21.257	976.439	785.793
129.410	21.918	976.380	788.648
130.424	22.119	975.470	788.743
131.439	22.182	974.451	788.133
132.454	22.068	973.429	786.727
133.468	22.003	972.943	785.970
134.483	21.996	972.237	785.300
135.497	22.033	971.889	785.118
136.512	22.193	970.992	785.035
137.527	22.360	970.105	784.993
138.541	22.318	969.197	784.003
139.556	22.330	968.518	783.438
140.570	22.431	967.591	783.066
141.585	22.362	966.969	782.188
142.600	22.455	966.166	781.884
143.614	22.349	965.335	780.672
144.629	22.318	964.784	780.019
145.643	22.640	963.469	780.312
146.658	22.607	962.355	779.197
147.673	22.379	961.330	777.289
148.687	22.293	960.385	776.076
149.702	22.222	959.312	774.827
150.716	22.138	958.088	773.404
151.731	21.972	957.713	772.302
152.746	22.113	956.393	771.785
153.760	22.212	955.898	771.753
154.775	22.467	955.180	772.224
155.789	22.608	954.000	771.820
156.804	22.402	953.534	770.472
157.819	22.487	952.210	769.705
158.833	22.395	951.587	768.732
159.848	22.567	950.706	768.701
160.862	22.525	950.302	768.127
161.877	22.512	948.776	766.769
162.892	22.377	948.107	765.570
163.906	22.390	947.478	765.052
164.921	22.411	946.483	764.275
165.935	22.448	944.964	763.139
166.950	22.366	944.562	762.392
167.964	22.420	943.292	761.531
168.979	22.511	942.002	760.819
169.994	22.338	941.139	759.307
171.008	22.149	940.435	757.857
172.023	22.398	939.703	758.270
173.037	22.483	938.900	757.922
174.052	22.317	937.699	756.175
175.067	22.043	936.690	754.114
176.081	22.167	935.505	753.629
177.096	22.062	935.262	752.913
178.110	22.309	934.094	752.963
179.125	22.022	933.081	750.852
180.140	21.757	932.096	748.863
181.154	21.755	931.351	748.191
182.169	21.898	930.812	748.302
183.183	22.169	930.557	749.184
184.198	22.398	930.517	750.061
185.213	22.302	929.668	748.902
186.227	22.290	928.794	748.079
187.242	22.306	928.893	748.163
188.256	22.355	927.607	747.268
189.271	22.333	927.078	746.685
190.286	22.525	926.330	746.829
191.300	22.430	925.005	745.291
192.315	21.916	923.437	741.793
193.329	21.194	922.035	737.552
194.344	20.730	921.419	735.034
195.359	21.338	921.418	737.534
196.373	22.126	921.884	741.168
197.388	22.446	921.240	741.933
198.402	22.347	920.367	740.748
199.417	22.191	920.287	739.959
200.432	22.254	919.708	739.694
201.446	22.125	919.165	738.651
202.461	21.848	918.315	736.739
203.475	21.896	917.461	736.188
204.490	21.657	916.177	734.093
205.504	20.453	914.215	727.418
206.519	20.740	914.124	728.480
207.534	21.714	914.403	732.715
208.548	21.869	913.967	732.949
209.563	22.308	913.080	734.005
210.577	22.278	912.581	733.414
211.592	22.021	911.853	731.694
212.607	22.390	912.076	733.345
213.621	22.646	911.237	733.669
214.636	22.442	910.589	732.235
215.650	22.485	910.251	732.077
216.665	22.468	909.199	731.094
217.680	22.558	909.300	731.486
218.694	22.570	908.579	730.888
219.709	22.153	907.597	728.310
220.723	21.800	906.861	726.193
221.738	22.054	906.175	726.628
222.753	22.327	905.594	727.226
223.767	22.215	904.887	726.133
224.782	22.261	904.542	725.979
225.796	22.496	903.807	726.298
226.811	22.619	903.509	726.498
227.826	22.315	901.900	723.890
228.840	21.292	900.658	718.626
229.855	21.349	899.595	717.947
230.869	21.635	899.235	718.770
231.884	21.304	898.367	716.656
232.899	21.213	897.962	715.896
233.913	22.099	897.858	719.377
234.928	22.345	897.878	720.338
235.942	22.191	896.920	718.876
236.957	22.344	895.990	718.692
237.972	22.007	894.808	716.308
238.986	21.950	894.328	715.628
240.001	22.118	893.680	715.730
241.015	21.968	893.223	714.689
242.030	22.083	892.812	714.764
243.045	22.253	892.358	715.027
244.059	22.252	891.959	714.643
245.074	22.455	891.219	714.812
246.088	22.436	890.551	714.135
247.103	22.154	889.446	712.042
248.117	21.960	889.478	711.220
249.132	22.442	889.252	712.926
250.147	22.784	889.166	714.181
251.161	22.963	888.408	714.232
252.176	23.166	887.733	714.446
253.190	23.211	887.062	714.024
254.205	23.203	886.672	713.614
255.220	23.312	886.486	713.840
256.234	23.242	885.831	712.966
257.249	23.134	885.060	711.848
258.263	22.998	884.137	710.497
259.278	22.903	883.815	709.795
260.293	23.099	883.268	710.081
261.307	23.287	882.512	710.163
262.322	23.140	881.896	709.014
263.336	23.027	881.058	707.826
264.351	22.680	879.832	705.391
265.366	21.624	877.968	699.619
266.380	21.066	876.837	696.428
267.395	21.990	877.066	700.236
268.409	22.596	877.716	703.110
269.424	22.696	876.799	702.711
270.439	22.783	876.438	702.705
271.453	23.012	875.806	703.051
272.468	23.091	875.021	702.672
273.482	23.100	874.843	702.500
274.497	23.233	874.480	702.677
275.512	23.134	873.129	701.134
276.526	22.661	871.704	698.059
277.541	22.634	871.529	697.750
278.555	22.999	871.603	699.188
279.570	22.821	870.673	697.680
280.585	22.772	869.656	696.608
281.599	22.631	869.557	695.910
282.614	22.712	869.044	695.760
283.628	22.486	867.769	693.786
284.643	22.091	866.809	691.402
285.657	22.348	867.259	692.714
286.672	22.452	865.901	691.975
287.687	21.974	865.200	689.476
288.701	22.222	864.851	690.110
289.716	22.631	864.729	691.557
290.730	22.362	863.654	689.584
291.745	22.126	862.817	687.930
292.760	22.024	862.108	686.906
293.774	21.984	861.426	686.142
294.789	22.904	861.767	689.951
295.803	23.488	861.894	692.272
296.818	23.571	861.669	692.354
297.833	23.556	861.099	691.777
298.847	23.398	859.877	690.117
299.862	23.048	858.718	687.766
300.876	23.252	858.401	688.244
301.891	23.391	858.351	688.682
302.906	23.527	857.607	688.553
303.920	23.148	856.358	686.018
304.935	22.984	855.754	684.839
305.949	23.351	855.522	686.014
306.964	23.463	855.033	685.995
307.979	23.177	854.207	684.166
308.993	23.122	853.945	683.683
310.008	23.564	853.477	684.956
311.022	23.709	853.473	685.449
312.037	23.472	852.762	683.905
313.052	23.406	851.714	682.749
314.066	23.203	851.297	681.575
315.081	22.625	849.833	678.117
316.095	21.853	848.248	673.829
317.110	22.316	848.615	675.840
318.125	23.229	849.075	679.654
319.139	22.668	847.948	676.542
320.154	21.897	846.049	672.013
321.168	21.276	845.150	668.860
322.183	21.982	845.297	671.622
323.197	22.674	845.762	674.578
324.212	23.015	845.523	675.634
325.227	23.133	844.920	675.542
326.241	23.383	844.893	676.415
327.256	23.211	844.307	675.231
328.270	23.046	843.772	674.115
329.285	23.169	842.695	673.661
330.300	23.032	842.188	672.674
331.314	22.760	841.051	670.675
332.329	22.690	840.666	670.043
333.343	23.273	840.269	671.877
334.358	23.344	840.023	671.891
335.373	23.376	839.441	671.488
336.387	23.517	838.547	671.247
337.402	23.597	838.778	671.678
338.416	23.852	838.263	672.169
339.431	23.877	837.329	671.455
340.446	23.848	837.110	671.109
341.460	23.884	836.739	670.888
342.475	24.057	835.910	670.817
343.489	23.609	835.271	668.559
344.504	23.752	834.688	668.571
345.519	23.900	834.562	668.969
346.533	24.317	833.897	669.940
347.548	24.182	833.847	669.334
348.562	24.223	833.014	668.760
349.577	24.183	832.560	668.186
350.592	24.062	832.130	667.330
351.606	24.039	831.491	666.671
352.621	24.035	831.149	666.322
353.635	23.989	830.770	665.790
354.650	23.976	829.959	665.030
355.665	23.553	829.203	662.786
356.679	22.737	827.327	658.186
357.694	22.518	826.359	656.542
358.708	22.979	826.772	658.530
359.723	23.119	825.881	658.285
360.738	23.302	826.001	659.001
361.752	23.644	826.174	660.355
362.767	23.926	825.603	660.887
363.781	24.129	825.486	661.487
364.796	24.357	825.292	662.120
365.810	24.368	824.775	661.688
366.825	24.519	824.292	661.803
367.840	24.570	823.744	661.494
368.854	24.214	823.431	659.865
369.869	23.953	822.134	657.800
370.883	23.890	821.891	657.316
371.898	23.972	820.907	656.774
372.913	23.844	820.470	655.894
373.927	23.848	819.548	655.114
374.942	24.010	819.214	655.385
375.956	24.103	818.803	655.342
376.971	24.132	818.382	655.052
377.986	24.349	817.677	655.228
379.000	24.442	817.536	655.397
380.015	24.426	817.097	654.929
381.029	24.270	816.509	653.829
382.044	24.323	815.730	653.340
383.059	24.416	815.223	653.215
384.073	24.482	814.624	652.922
385.088	24.464	814.244	652.493
386.102	24.677	813.134	652.323
387.117	24.337	813.033	650.941
388.132	24.168	812.467	649.816
389.146	24.089	811.697	648.855
390.161	23.515	811.109	646.239
391.175	23.533	810.515	645.770
392.190	24.028	810.740	647.697
393.205	24.083	810.268	647.460
394.219	23.368	808.234	643.184
395.234	21.659	806.278	635.376
396.248	20.765	804.930	631.018
397.263	21.780	806.080	635.548
398.278	23.474	807.506	642.761
399.292	24.118	807.181	644.777
400.307	23.717	806.508	642.735
401.321	23.820	805.909	642.573
402.336	23.833	805.824	642.495
403.350	24.146	805.454	643.273
404.365	24.560	805.069	644.402
405.380	24.775	804.996	645.063
406.394	25.115	804.687	645.981
407.409	25.159	804.381	645.839
408.423	25.222	804.115	645.796
409.438	25.143	803.277	644.779
410.453	25.139	803.070	644.544
411.467	25.328	802.587	644.778
412.482	25.254	801.812	643.831
413.496	25.161	801.149	642.909
414.511	25.194	800.990	642.841
415.526	25.183	800.960	642.722
416.540	25.045	800.583	641.867
417.555	25.127	799.540	641.268
418.569	24.879	799.027	639.913
419.584	24.637	798.738	638.760
420.599	24.873	798.439	639.309
421.613	90.714	1254.196	1357.198
422.628	77.492	1320.628	1357.333
