DTS Sentinel unit serial number:	SN413079Multiplexer serial number:	ORYXHardware model number:	OX4-SRSoftware version number:	ORYX F/W v4.00 Oryx Data Collector v3.7.2.0data status	okinstallation	princeton_trtdifferential loss correction	single-endedforward channel	channel 3reverse channel	N/Adate	2019/09/10time	15:42:10forward acquisition time	60.00reverse acquisition time	0.00gamma	496.2192k internal	0.2298k external	0.2298temperature offset calibration	0.9912default loss term (dB/km)	0.3790temperature slope calibration	1.0000multiplexer offset coefficient	1.0000multiplexer slope coefficient	1.0000fibre end	0.00T internal ref (°C)	38.03T ext. ref 1 (°C)	-0.28T ext. ref 2 (°C)	31.72length (m)	temperature (°C)	Stokes	anti-Stokes-747.200	-155.074	0.086	-0.006
-746.185	-91.793	0.181	0.052
-745.171	-26.382	0.118	0.070
-744.156	-155.362	-0.099	0.007
-743.142	-184.425	-0.116	0.002
-742.127	-107.746	0.339	0.076
-741.112	9.353	0.208	0.161
-740.098	-20.051	0.073	-0.046
-739.083	-99.130	0.241	0.062
-738.069	-35.950	0.205	0.113
-737.054	-44.578	-0.298	-0.152
-736.039	-200.000	0.073	-0.351
-735.025	-200.000	0.044	0.380
-734.010	288.281	-0.283	0.524
-732.996	-115.774	-0.414	-0.079
-731.981	405.934	-0.110	0.236
-730.966	1.871	-0.252	-0.186
-729.952	46.485	0.100	-0.095
-728.937	-97.019	-0.396	-0.106
-727.923	-38.778	-0.191	-0.103
-726.908	103.730	0.223	-0.267
-725.894	-193.727	-0.109	0.001
-724.879	-47.117	0.102	-0.051
-723.864	-96.667	-0.190	0.051
-722.850	150.401	-0.159	-0.220
-721.835	-98.535	-0.183	0.048
-720.821	524.883	-0.119	0.287
-719.806	21.099	0.040	-0.033
-718.791	-133.188	0.117	0.015
-717.777	562.740	-0.086	-0.212
-716.762	-200.000	-0.002	0.047
-715.748	-6.295	0.047	0.032
-714.733	-118.456	0.363	0.066
-713.718	800.000	-0.060	0.267
-712.704	-200.000	0.047	-0.313
-711.689	-95.500	-0.244	-0.067
-710.675	-70.703	-0.385	-0.148
-709.660	-13.235	0.257	0.170
-708.645	125.998	0.137	0.176
-707.631	-200.000	-0.262	-0.000
-706.616	-200.000	-0.011	-0.050
-705.602	-132.481	-0.035	0.005
-704.587	-18.708	0.218	-0.139
-703.572	800.000	-0.027	-0.089
-702.558	360.571	0.191	0.389
-701.543	-100.136	-0.431	0.109
-700.529	231.794	-0.130	-0.217
-699.514	-66.531	-0.148	-0.060
-698.499	-200.000	0.070	-0.370
-697.485	-68.137	0.061	-0.024
-696.470	-129.734	-0.111	0.016
-695.456	-20.112	-0.120	-0.075
-694.441	800.000	-0.137	-0.418
-693.426	-200.000	-0.046	-0.314
-692.412	-147.901	-0.356	-0.030
-691.397	-113.447	0.058	-0.012
-690.383	-143.784	-0.171	0.016
-689.368	333.422	-0.145	0.286
-688.354	-101.927	0.126	-0.031
-687.339	536.215	0.136	0.328
-686.324	-169.353	-0.155	0.006
-685.310	224.673	0.127	0.210
-684.295	-200.000	0.009	-0.165
-683.281	800.000	0.039	0.147
-682.266	136.663	0.143	-0.190
-681.251	41.243	0.199	0.183
-680.237	-200.000	0.003	-0.217
-679.222	-141.832	-0.429	-0.044
-678.208	-109.043	0.038	0.008
-677.193	167.301	-0.226	0.326
-676.178	-200.000	-0.025	-0.145
-675.164	-42.202	0.237	0.123
-674.149	-200.000	-0.004	-0.398
-673.135	131.731	0.211	0.276
-672.120	-155.118	-0.174	0.012
-671.105	-78.735	0.226	0.079
-670.091	-53.942	-0.379	-0.176
-669.076	-200.000	-0.004	-0.090
-668.062	560.125	-0.096	-0.237
-667.047	-115.223	0.248	0.048
-666.032	-200.000	0.032	-0.294
-665.018	-200.000	0.055	0.335
-664.003	195.169	-0.106	-0.164
-662.989	-176.690	0.607	0.016
-661.974	-40.689	-0.438	0.231
-660.959	-143.973	0.466	-0.045
-659.945	147.808	-0.277	-0.380
-658.930	800.000	-0.033	0.137
-657.916	481.174	0.076	0.174
-656.901	-200.000	-0.027	0.215
-655.886	-200.000	0.004	-0.187
-654.872	-66.078	-0.112	-0.045
-653.857	-16.498	0.165	0.107
-652.843	74.619	0.118	-0.127
-651.828	191.370	-0.185	-0.284
-650.814	486.385	0.117	0.271
-649.799	-7.924	0.105	0.072
-648.784	45.948	0.197	0.185
-647.770	244.468	0.093	0.159
-646.755	-147.920	-0.207	0.018
-645.741	662.525	0.048	-0.126
-644.726	-23.689	-0.299	-0.182
-643.711	-109.968	-0.141	0.030
-642.697	164.994	0.262	-0.376
-641.682	-140.222	-0.308	-0.033
-640.668	-37.361	-0.050	-0.027
-639.653	-57.090	-0.197	-0.088
-638.638	15.210	-0.170	0.135
-637.624	42.510	-0.115	0.107
-636.609	-137.947	0.152	0.017
-635.595	-6.257	-0.074	0.052
-634.580	456.218	0.103	-0.233
-633.565	56.585	0.045	-0.044
-632.551	800.000	0.049	0.198
-631.536	800.000	0.018	0.072
-630.522	167.920	-0.083	0.119
-629.507	-12.191	0.189	0.125
-628.492	-130.509	-0.191	-0.026
-627.478	-200.000	-0.025	0.538
-626.463	175.862	0.139	-0.205
-625.449	-200.000	-0.025	-0.345
-624.434	-200.000	0.004	0.056
-623.419	493.744	-0.159	-0.371
-622.405	-200.000	-0.074	-0.535
-621.390	91.486	0.209	-0.239
-620.376	-200.000	0.076	0.394
-619.361	-163.602	0.213	0.010
-618.346	66.639	0.092	0.095
-617.332	-68.584	-0.009	0.004
-616.317	-121.859	0.275	-0.046
-615.303	69.207	-0.328	0.343
-614.288	84.907	-0.153	0.170
-613.273	72.791	0.070	-0.075
-612.259	800.000	-0.034	-0.114
-611.244	390.986	-0.082	-0.173
-610.230	164.440	-0.158	-0.227
-609.215	-81.373	-0.284	-0.095
-608.201	201.943	0.102	-0.159
-607.186	-126.006	0.115	0.018
-606.171	-41.695	-0.181	-0.094
-605.157	138.188	-0.160	-0.213
-604.142	-200.000	0.019	0.272
-603.128	68.744	0.137	-0.142
-602.113	-7.104	-0.221	0.152
-601.098	632.182	-0.003	0.008
-600.084	302.889	-0.068	-0.129
-599.069	-200.000	-0.010	-0.331
-598.055	-200.000	-0.035	-0.161
-597.040	267.630	0.185	0.328
-596.025	-200.000	-0.001	0.058
-595.011	-122.950	-0.116	0.019
-593.996	800.000	0.030	-0.130
-592.982	131.272	0.119	-0.155
-591.967	63.855	0.096	-0.098
-590.952	-200.000	0.004	-0.053
-589.938	1.530	0.297	0.217
-588.923	-36.581	0.124	0.068
-587.909	432.478	0.061	0.135
-586.894	284.963	0.095	-0.174
-585.879	-79.960	0.150	0.051
-584.865	-30.250	-0.108	0.062
-583.850	800.000	0.028	-0.078
-582.836	388.426	-0.183	-0.385
-581.821	800.000	-0.038	-0.122
-580.806	74.168	0.214	-0.228
-579.792	800.000	-0.046	-0.189
-578.777	490.290	-0.112	-0.259
-577.763	155.977	0.133	-0.186
-576.748	-84.554	-0.068	0.022
-575.733	247.234	0.058	-0.100
-574.719	-11.760	0.351	0.234
-573.704	8.727	0.225	-0.172
-572.690	-111.157	0.130	-0.027
-571.675	800.000	0.091	-0.383
-570.661	800.000	-0.118	-0.345
-569.646	-99.492	0.211	-0.054
-568.631	682.848	-0.112	-0.297
-567.617	379.592	-0.095	-0.198
-566.602	800.000	0.076	0.213
-565.588	166.863	0.034	0.049
-564.573	-46.972	0.112	-0.056
-563.558	-47.507	0.040	0.020
-562.544	-27.228	0.367	0.217
-561.529	165.517	-0.198	0.284
-560.515	51.352	-0.188	-0.180
-559.500	800.000	-0.030	0.124
-558.485	-200.000	0.025	-0.179
-557.471	-117.295	0.201	0.037
-556.456	546.982	-0.104	-0.252
-555.442	64.880	0.049	0.050
-554.427	-200.000	0.000	0.078
-553.412	-130.057	0.126	0.017
-552.398	-200.000	0.004	0.121
-551.383	-110.461	0.175	-0.037
-550.369	362.900	0.104	-0.213
-549.354	-109.629	0.230	-0.049
-548.339	-63.356	-0.397	0.166
-547.325	-112.318	0.147	-0.030
-546.310	-200.000	0.002	-0.077
-545.296	-39.121	-0.150	0.080
-544.281	73.564	-0.250	0.265
-543.266	103.533	-0.194	-0.230
-542.252	-102.006	0.211	-0.052
-541.237	-200.000	-0.019	0.190
-540.223	199.260	-0.080	-0.124
-539.208	-105.682	0.157	0.036
-538.193	-138.459	0.114	-0.013
-537.179	-30.598	-0.357	0.205
-536.164	169.653	-0.136	0.196
-535.150	501.252	0.088	-0.205
-534.135	-200.000	-0.034	0.250
-533.121	-98.206	0.297	0.077
-532.106	62.100	0.087	-0.088
-531.091	71.755	-0.206	-0.217
-530.077	-199.925	-0.206	0.001
-529.062	800.000	-0.141	0.417
-528.048	-46.751	0.281	0.139
-527.033	-98.860	0.325	-0.084
-526.018	508.382	-0.213	-0.501
-525.004	-77.837	0.181	0.063
-523.989	158.094	-0.134	0.188
-522.975	79.286	-0.076	0.082
-521.960	-200.000	-0.016	-0.142
-520.945	24.824	-0.040	0.034
-519.931	-88.221	-0.217	0.066
-518.916	-46.835	-0.013	-0.006
-517.902	-30.470	-0.204	0.117
-516.887	-6.719	-0.109	0.075
-515.872	-155.885	-0.214	0.014
-514.858	-162.395	0.090	0.005
-513.843	800.000	0.106	0.376
-512.829	432.111	-0.088	-0.193
-511.814	800.000	0.023	-0.070
-510.799	-33.041	-0.136	-0.076
-509.785	159.345	0.037	0.052
-508.770	70.951	0.070	0.073
-507.756	-81.250	0.174	0.058
-506.741	-200.000	-0.038	-0.267
-505.726	800.000	0.044	-0.126
-504.712	321.387	0.066	-0.126
-503.697	-1.435	0.287	-0.205
-502.683	-200.000	-0.001	0.025
-501.668	259.491	-0.111	-0.193
-500.653	385.211	0.045	0.094
-499.639	145.898	-0.103	-0.140
-498.624	48.327	-0.184	-0.174
-497.610	-18.841	0.163	-0.103
-496.595	27.416	-0.059	0.050
-495.581	800.000	0.049	0.198
-494.566	800.000	0.144	-0.432
-493.551	256.994	-0.165	0.287
-492.537	-64.461	0.111	0.045
-491.522	-33.852	0.092	-0.051
-490.508	142.876	-0.270	-0.362
-489.493	-76.970	0.170	-0.060
-488.478	-200.000	0.007	0.184
-487.464	-128.831	-0.273	0.039
-486.449	212.230	0.153	0.243
-485.435	-181.602	0.341	0.007
-484.420	-180.069	-0.203	0.004
-483.405	652.987	0.105	-0.273
-482.391	-104.501	0.362	0.085
-481.376	-200.000	0.009	0.177
-480.362	-200.000	0.104	0.492
-479.347	48.103	-0.245	-0.231
-478.332	-200.000	0.007	-0.179
-477.318	377.814	-0.159	-0.328
-476.303	-81.105	0.273	-0.091
-475.289	-143.658	-0.022	-0.002
-474.274	51.425	-0.119	-0.114
-473.259	343.337	-0.169	-0.334
-472.245	126.203	-0.082	0.105
-471.230	-10.137	-0.218	0.146
-470.216	360.236	-0.176	-0.355
-469.201	800.000	0.056	-0.158
-468.186	366.486	-0.162	0.329
-467.172	-200.000	0.004	0.378
-466.157	-25.500	-0.267	-0.159
-465.143	164.035	-0.059	-0.084
-464.128	-39.430	0.321	0.170
-463.113	21.837	0.133	0.110
-462.099	52.762	-0.156	0.150
-461.084	6.871	-0.100	-0.075
-460.070	-112.177	0.219	-0.044
-459.055	695.806	-0.079	-0.209
-458.040	15.839	-0.169	0.134
-457.026	-200.000	0.076	0.373
-456.011	800.000	0.065	-0.212
-454.997	118.973	0.045	-0.056
-453.982	-81.677	-0.280	0.093
-452.968	-60.669	0.207	-0.089
-451.953	-13.926	-0.129	-0.084
-450.938	800.000	-0.046	0.146
-449.924	-49.221	0.144	-0.069
-448.909	-42.713	0.205	0.105
-447.895	42.098	0.090	-0.083
-446.880	77.922	0.074	-0.079
-445.865	-33.932	0.262	-0.145
-444.851	-6.375	-0.103	-0.071
-443.836	436.883	0.049	-0.107
-442.822	-49.764	-0.075	-0.036
-441.807	211.488	-0.118	0.187
-440.792	800.000	0.049	0.153
-439.778	198.053	-0.182	-0.281
-438.763	-160.013	0.186	-0.010
-437.749	-40.422	-0.419	0.219
-436.734	89.647	0.089	0.101
-435.719	-200.000	-0.022	0.286
-434.705	-6.578	-0.355	0.244
-433.690	800.000	-0.062	-0.223
-432.676	468.167	0.099	0.224
-431.661	-200.000	-0.064	-0.298
-430.646	82.181	-0.040	-0.044
-429.632	41.291	0.086	-0.078
-428.617	136.169	-0.242	0.318
-427.603	605.729	0.023	0.057
-426.588	800.000	0.013	-0.053
-425.573	-76.630	-0.227	0.080
-424.559	800.000	-0.019	0.079
-423.544	-83.895	-0.164	-0.053
-422.530	-200.000	-0.036	-0.185
-421.515	-200.000	-0.006	0.284
-420.500	-200.000	-0.008	-0.104
-419.486	254.153	0.146	-0.251
-418.471	800.000	0.116	-0.377
-417.457	-114.279	-0.084	-0.016
-416.442	800.000	0.096	0.286
-415.428	-200.000	-0.093	-0.563
-414.413	93.209	-0.027	-0.031
-413.398	-200.000	0.047	0.228
-412.384	800.000	0.050	-0.171
-411.369	-102.920	-0.286	-0.068
-410.355	-93.603	0.197	0.055
-409.340	115.576	-0.133	-0.164
-408.325	268.158	-0.116	-0.204
-407.311	-200.000	0.072	-0.472
-406.296	-102.730	0.251	-0.060
-405.282	2.743	0.189	0.138
-404.267	-71.948	0.292	0.110
-403.252	-123.234	-0.437	-0.070
-402.238	-180.363	-0.501	-0.011
-401.223	110.573	-0.161	-0.195
-400.209	-200.000	-0.020	0.162
-399.194	-48.992	0.161	-0.078
-398.179	110.200	-0.197	-0.238
-397.165	100.881	-0.109	0.127
-396.150	-200.000	-0.032	-0.180
-395.136	-49.943	0.146	0.070
-394.121	-65.614	-0.020	-0.008
-393.106	64.903	-0.191	0.194
-392.092	364.597	0.092	-0.187
-391.077	-200.000	0.044	0.293
-390.063	-180.968	-0.205	0.004
-389.048	62.436	-0.061	0.061
-388.033	359.299	-0.104	0.209
-387.019	56.655	-0.180	0.176
-386.004	95.492	0.259	0.297
-384.990	-57.257	-0.245	-0.108
-383.975	-200.000	0.000	0.279
-382.960	-69.895	0.161	-0.062
-381.946	191.640	0.248	-0.376
-380.931	-141.234	-0.303	-0.031
-379.917	-153.286	-0.228	0.016
-378.902	-132.069	-0.196	-0.026
-377.888	800.000	-0.075	0.283
-376.873	46.770	-0.181	0.169
-375.858	-166.321	0.175	-0.007
-374.844	85.268	-0.120	0.132
-373.829	47.593	0.289	0.272
-372.815	-72.481	-0.303	0.113
-371.800	800.000	0.052	-0.208
-370.785	776.444	0.087	0.239
-369.771	26.437	-0.118	0.099
-368.756	-200.000	0.002	0.431
-367.742	537.494	-0.134	0.319
-366.727	-149.030	-0.135	0.011
-365.712	55.024	0.096	-0.093
-364.698	-75.250	0.233	-0.084
-363.683	-129.489	0.028	-0.004
-362.669	157.031	0.244	0.339
-361.654	-200.000	0.015	-0.092
-360.639	99.815	-0.192	-0.224
-359.625	-200.000	0.001	-0.162
-358.610	-89.498	-0.297	-0.088
-357.596	-200.000	-0.004	-0.303
-356.581	295.397	0.177	-0.325
-355.566	-200.000	0.014	-0.248
-354.552	-31.290	0.091	-0.052
-353.537	800.000	0.022	0.076
-352.523	95.230	0.216	0.247
-351.508	-29.959	-0.272	0.156
-350.493	-83.982	0.222	0.071
-349.479	-111.745	0.208	0.042
-348.464	-200.000	-0.016	-0.216
-347.450	-166.238	-0.112	-0.005
-346.435	83.295	-0.077	0.085
-345.420	-200.000	0.030	-0.178
-344.406	547.043	-0.124	-0.297
-343.391	-63.786	0.229	-0.094
-342.377	98.288	0.150	0.174
-341.362	243.347	-0.053	0.089
-340.348	147.773	-0.098	0.133
-339.333	738.289	-0.076	-0.204
-338.318	-200.000	0.016	0.109
-337.304	-200.000	0.011	0.136
-336.289	-92.440	-0.053	-0.015
-335.275	-158.799	-0.434	-0.025
-334.260	-41.130	-0.157	-0.081
-333.245	-200.000	0.000	0.125
-332.231	800.000	-0.043	0.144
-331.216	-200.000	0.019	0.259
-330.202	-200.000	0.010	0.291
-329.187	-180.443	-0.284	-0.006
-328.172	-88.748	-0.114	-0.034
-327.158	10.386	0.110	0.084
-326.143	-200.000	-0.018	-0.137
-325.129	68.723	-0.152	-0.157
-324.114	290.207	-0.059	-0.108
-323.099	6.862	0.065	0.049
-322.085	151.960	-0.093	0.128
-321.070	-200.000	0.033	-0.439
-320.056	222.924	0.113	-0.182
-319.041	38.166	0.092	-0.083
-318.026	-200.000	0.030	-0.172
-317.012	-103.940	0.345	-0.081
-315.997	123.833	0.085	-0.108
-314.983	-39.494	0.082	0.043
-313.968	30.080	-0.053	-0.045
-312.953	-200.000	-0.011	0.179
-311.939	-200.000	0.001	0.028
-310.924	-65.463	-0.282	-0.114
-309.910	-78.817	-0.381	0.130
-308.895	-164.487	-0.198	0.009
-307.880	-19.870	0.101	-0.063
-306.866	-79.689	-0.206	-0.070
-305.851	-64.599	0.569	0.232
-304.837	800.000	0.015	-0.060
-303.822	691.813	0.042	0.111
-302.807	-117.043	0.228	0.042
-301.793	223.261	0.218	-0.353
-300.778	27.745	0.282	-0.239
-299.764	-126.820	-0.211	-0.031
-298.749	379.886	0.158	-0.324
-297.735	800.000	-0.081	0.262
-296.720	-200.000	-0.071	0.355
-295.705	41.123	-0.154	-0.140
-294.691	-171.587	-0.371	-0.012
-293.676	-151.134	0.338	-0.025
-292.662	-200.000	-0.043	0.204
-291.647	170.689	0.217	0.312
-290.632	-200.000	0.035	0.202
-289.618	411.143	0.026	0.056
-288.603	137.897	-0.047	0.061
-287.589	203.295	0.099	0.153
-286.574	23.750	-0.159	0.131
-285.559	197.549	0.127	-0.195
-284.545	89.798	0.069	0.077
-283.530	800.000	-0.045	-0.187
-282.516	759.987	0.066	-0.178
-281.501	-155.156	0.506	-0.033
-280.486	386.938	-0.072	-0.150
-279.472	-49.091	0.113	0.054
-278.457	15.783	-0.068	-0.054
-277.443	-200.000	-0.027	0.239
-276.428	-86.614	-0.157	0.048
-275.413	59.581	-0.096	-0.094
-274.399	8.622	-0.266	0.201
-273.384	-98.318	0.195	0.050
-272.370	92.835	-0.097	0.110
-271.355	721.542	-0.080	0.214
-270.340	-200.000	-0.022	-0.149
-269.326	26.886	-0.117	-0.098
-268.311	-165.466	0.142	0.006
-267.297	92.421	-0.086	-0.098
-266.282	-200.000	0.011	-0.093
-265.267	544.929	-0.061	0.146
-264.253	31.311	0.146	-0.125
-263.238	-69.115	0.099	0.038
-262.224	-42.163	-0.302	0.155
-261.209	-170.352	0.107	0.004
-260.195	-200.000	0.013	0.283
-259.180	5.662	-0.330	-0.244
-258.165	-55.597	-0.615	0.276
-257.151	18.162	-0.121	-0.097
-256.136	66.937	0.050	0.051
-255.122	-59.147	0.021	0.009
-254.107	51.198	-0.091	0.086
-253.092	-134.550	0.386	0.047
-252.078	-76.429	0.241	0.085
-251.063	-111.142	0.128	0.026
-250.049	-101.047	0.238	0.058
-249.034	-39.561	-0.378	0.198
-248.019	800.000	-0.079	-0.272
-247.005	106.191	0.216	-0.256
-245.990	78.636	0.018	-0.019
-244.976	764.345	-0.082	0.222
-243.961	4.673	-0.070	-0.051
-242.946	800.000	0.057	0.165
-241.932	-200.000	0.017	-0.139
-240.917	144.717	-0.100	-0.134
-239.903	219.221	-0.086	-0.138
-238.888	105.185	0.049	-0.058
-237.873	-7.432	-0.272	-0.184
-236.859	-200.000	-0.018	0.117
-235.844	-200.000	-0.005	-0.105
-234.830	-44.645	-0.140	0.070
-233.815	431.961	-0.062	-0.135
-232.800	-200.000	0.085	0.000
-231.786	-200.000	-0.052	-0.364
-230.771	-141.419	-0.241	-0.024
-229.757	278.068	-0.107	-0.190
-228.742	271.160	0.057	-0.101
-227.727	800.000	0.144	0.465
-226.713	14.063	0.192	-0.149
-225.698	116.799	0.307	-0.377
-224.684	-200.000	0.009	-0.359
-223.669	-200.000	0.029	0.502
-222.655	267.177	-0.074	0.130
-221.640	-145.981	0.282	0.025
-220.625	406.892	0.063	0.133
-219.611	202.374	-0.129	-0.199
-218.596	-200.000	-0.003	-0.016
-217.582	115.748	-0.189	-0.231
-216.567	-156.260	-0.310	0.019
-215.552	-200.000	0.002	-0.089
-214.538	-200.000	0.162	0.001
-213.523	-71.498	0.132	-0.049
-212.509	-64.603	0.228	-0.093
-211.494	-117.228	0.264	0.048
-210.479	149.499	0.185	0.250
-209.465	-61.560	0.363	0.152
-208.450	800.000	0.058	0.207
-207.436	-65.248	0.063	0.025
-206.421	-200.000	-0.032	0.235
-205.406	-179.428	0.378	-0.008
-204.392	800.000	0.072	-0.240
-203.377	48.231	0.208	-0.195
-202.363	-200.000	-0.026	-0.212
-201.348	-104.865	-0.065	-0.015
-200.333	51.788	0.175	-0.167
-199.319	-200.000	0.016	0.156
-198.304	-110.023	-0.318	0.066
-197.290	404.640	-0.088	0.186
-196.275	63.913	0.225	0.225
-195.260	-200.000	0.012	0.104
-194.246	-150.691	-0.157	0.012
-193.231	-48.437	-0.307	0.148
-192.217	-95.196	0.365	0.098
-191.202	800.000	0.032	0.135
-190.187	139.246	-0.091	-0.119
-189.173	-20.333	0.187	0.115
-188.158	-200.000	-0.004	0.154
-187.144	-200.000	-0.042	0.202
-186.129	-41.197	0.322	0.166
-185.114	243.700	0.150	-0.251
-184.100	5.359	0.103	-0.076
-183.085	-153.397	0.256	0.018
-182.071	-96.006	0.105	-0.028
-181.056	446.538	-0.086	-0.189
-180.042	97.989	0.153	0.176
-179.027	-72.100	0.306	0.114
-178.012	-200.000	-0.039	0.181
-176.998	147.274	0.035	-0.047
-175.983	-104.048	-0.199	-0.046
-174.969	-200.000	-0.037	0.246
-173.954	-19.961	-0.379	0.233
-172.939	-200.000	0.009	0.248
-171.925	-100.408	-0.092	-0.023
-170.910	-111.825	0.307	0.062
-169.896	-89.249	0.234	-0.069
-168.881	-200.000	0.016	0.418
-167.866	109.460	-0.133	-0.159
-166.852	-200.000	-0.025	0.303
-165.837	-44.959	-0.471	0.234
-164.823	-26.089	-0.198	0.116
-163.808	125.076	0.144	0.181
-162.793	197.172	0.157	0.239
-161.779	9.429	-0.174	0.132
-160.764	200.045	-0.161	0.247
-159.750	-24.953	0.155	0.092
-158.735	-56.112	0.283	-0.126
-157.720	255.079	0.086	-0.147
-156.706	-75.993	-0.164	0.058
-155.691	218.877	0.169	0.269
-154.677	45.090	0.290	0.267
-153.662	9.597	0.085	-0.064
-152.647	117.406	0.061	0.075
-151.633	-200.000	-0.001	0.071
-150.618	77.870	0.204	-0.217
-149.604	-3.956	0.098	0.068
-148.589	800.000	-0.140	-0.480
-147.574	256.035	0.115	-0.197
-146.560	529.615	-0.092	0.216
-145.545	-6.829	-0.020	-0.014
-144.531	-18.578	-0.212	0.132
-143.516	124.350	0.144	-0.181
-142.502	-200.000	0.070	-0.375
-141.487	-143.856	-0.271	-0.025
-140.472	172.629	-0.074	-0.106
-139.458	-200.000	-0.000	0.017
-138.443	-50.896	-0.201	0.094
-137.429	31.731	-0.120	0.103
-136.414	160.046	-0.244	-0.339
-135.399	-200.000	-0.026	-0.236
-134.385	-200.000	0.009	0.183
-133.370	-200.000	0.009	-0.095
-132.356	-200.000	-0.022	0.107
-131.341	-53.198	-0.104	0.047
-130.326	-12.114	-0.043	-0.028
-129.312	317.112	-0.100	-0.189
-128.297	-63.911	-0.237	0.097
-127.283	33.865	0.319	-0.276
-126.268	-18.255	-0.375	0.234
-125.253	172.709	-0.047	0.068
-124.239	-200.000	-0.014	0.128
-123.224	-106.297	0.172	0.038
-122.210	-123.819	0.146	0.023
-121.195	-200.000	-0.007	-0.325
-120.180	-121.958	-0.066	0.011
-119.166	-76.845	0.233	0.081
-118.151	126.663	0.133	0.168
-117.137	-56.018	-0.220	-0.098
-116.122	-114.008	-0.293	0.057
-115.107	-76.011	0.184	-0.065
-114.093	-200.000	-0.031	0.357
-113.078	34.350	-0.294	0.255
-112.064	94.552	-0.066	0.074
-111.049	800.000	0.094	-0.336
-110.034	-8.283	0.335	-0.224
-109.020	-6.036	0.138	-0.094
-108.005	-116.907	-0.167	0.030
-106.991	-133.091	0.173	-0.022
-105.976	800.000	-0.089	0.260
-104.962	-62.202	-0.153	0.064
-103.947	-200.000	-0.034	-0.350
-102.932	-79.766	-0.344	-0.115
-101.918	-11.353	-0.218	0.143
-100.903	49.494	-0.107	-0.100
-99.889	120.436	0.140	0.174
-98.874	427.861	0.110	-0.236
-97.859	-200.000	0.010	-0.193
-96.845	12.224	0.087	0.066
-95.830	123.463	0.172	-0.215
-94.816	-141.446	0.177	0.018
-93.801	-99.510	-0.361	0.090
-92.786	85.398	0.329	0.360
-91.772	-106.661	-0.214	-0.047
-90.757	-130.075	-0.197	-0.027
-89.743	204.035	-0.197	-0.304
-88.728	-25.964	0.209	0.122
-87.713	-200.000	0.005	0.028
-86.699	800.000	0.048	0.178
-85.684	-200.000	0.010	0.091
-84.670	30.424	0.189	0.161
-83.655	-47.508	0.188	0.091
-82.640	30.589	-0.151	-0.128
-81.626	800.000	0.058	-0.196
-80.611	68.489	0.111	-0.114
-79.597	-6.732	-0.103	0.070
-78.582	769.613	0.113	0.306
-77.567	302.438	0.227	-0.417
-76.553	-200.000	-0.039	0.225
-75.538	-48.874	0.128	0.061
-74.524	318.976	0.057	0.107
-73.509	-80.080	-0.250	-0.083
-72.494	800.000	-0.046	-0.180
-71.480	800.000	0.130	0.377
-70.465	10.933	0.071	0.054
-69.451	-200.000	-0.009	-0.334
-68.436	-200.000	0.033	-0.261
-67.422	39.961	0.298	0.266
-66.407	-200.000	-0.007	0.300
-65.392	-42.466	0.073	0.037
-64.378	484.815	0.109	-0.246
-63.363	90.294	0.015	0.017
-62.349	67.022	0.089	0.090
-61.334	28.382	-0.873	-0.733
-60.319	157.743	0.191	0.263
-59.305	522.937	0.178	-0.416
-58.290	468.177	0.367	0.818
-57.276	800.000	0.333	1.438
-56.261	-200.000	82.328	503.238
-55.246	550.405	1388.715	3309.571
-54.232	175.736	2652.151	3822.317
-53.217	118.924	2308.269	2834.215
-52.203	47.964	1830.592	1699.249
-51.188	40.948	1634.372	1465.581
-50.173	38.580	1605.635	1422.578
-49.159	54.618	1646.326	1576.715
-48.144	58.594	1666.360	1625.061
-47.130	41.596	1627.917	1464.315
-46.115	38.244	1613.316	1426.702
-45.100	38.154	1609.812	1422.891
-44.086	38.056	1607.971	1420.497
-43.071	37.948	1606.651	1418.486
-42.057	37.993	1604.362	1416.734
-41.042	37.943	1603.297	1415.375
-40.027	38.036	1601.559	1414.462
-39.013	37.995	1599.983	1412.715
-37.998	37.876	1598.794	1410.746
-36.984	38.010	1596.989	1410.065
-35.969	38.000	1596.135	1409.188
-34.954	37.996	1594.144	1407.344
-33.940	38.090	1592.550	1406.558
-32.925	38.072	1591.043	1405.041
-31.911	38.013	1589.897	1403.549
-30.896	38.061	1588.439	1402.554
-29.881	38.096	1587.172	1401.626
-28.867	38.136	1585.831	1400.678
-27.852	38.088	1584.407	1399.015
-26.838	38.092	1582.874	1397.637
-25.823	38.180	1581.086	1396.635
-24.809	38.165	1579.548	1395.110
-23.794	38.086	1577.949	1393.080
-22.779	38.141	1576.611	1392.237
-21.765	38.074	1575.515	1390.737
-20.750	38.114	1574.814	1390.344
-19.736	38.109	1573.456	1389.058
-18.721	38.087	1571.472	1387.095
-17.706	38.013	1570.660	1385.795
-16.692	38.010	1569.561	1384.749
-15.677	38.052	1568.539	1384.090
-14.663	37.974	1567.461	1382.535
-13.648	37.974	1566.622	1381.740
-12.633	37.928	1565.520	1380.382
-11.619	37.967	1564.691	1379.874
-10.604	37.916	1564.166	1378.996
-9.590	37.979	1562.837	1378.216
-8.575	38.040	1561.319	1377.252
-7.560	37.959	1560.754	1376.130
-6.546	38.046	1559.508	1375.589
-5.531	37.968	1559.092	1374.616
-4.517	38.036	1558.144	1374.203
-3.502	37.879	1557.438	1372.425
-2.487	37.933	1555.534	1371.068
-1.473	37.906	1554.593	1369.998
-0.458	37.942	1553.475	1369.207
0.556	35.631	1543.498	1358.213
1.571	32.721	1514.214	1312.112
2.586	28.921	1447.857	1229.155
3.600	27.118	1360.018	1143.153
4.615	25.630	1312.602	1094.156
5.629	22.531	1254.245	1027.378
6.644	11.709	1159.279	890.857
7.659	1.883	1109.785	801.293
8.673	0.028	1102.491	786.265
9.688	-0.319	1099.840	782.495
10.702	-0.478	1098.247	780.468
11.717	-0.349	1096.183	779.599
12.731	4.165	1102.573	807.637
13.746	14.695	1117.856	874.147
14.761	18.574	1122.105	897.740
15.775	15.625	1116.489	877.786
16.790	13.970	1113.562	866.779
17.804	13.223	1111.814	861.448
18.819	12.809	1110.647	858.311
19.834	12.704	1109.368	856.704
20.848	12.554	1108.420	855.113
21.863	12.396	1107.490	853.503
22.877	12.147	1107.406	852.066
23.892	12.179	1106.573	851.517
24.907	12.076	1105.417	850.020
25.921	12.124	1104.420	849.424
26.936	12.231	1104.061	849.626
27.950	12.226	1102.772	848.533
28.965	12.218	1101.489	847.432
29.980	12.288	1099.777	846.401
30.994	12.163	1098.549	844.737
32.009	12.149	1097.740	843.967
33.023	12.197	1096.621	843.280
34.038	12.221	1095.532	842.489
35.053	12.279	1094.292	841.760
36.067	12.254	1093.789	841.169
37.082	12.267	1092.668	840.299
38.096	12.275	1091.765	839.572
39.111	12.320	1090.691	838.903
40.126	12.385	1089.669	838.375
41.140	12.314	1088.901	837.348
42.155	12.242	1087.601	835.905
43.169	12.179	1086.675	834.798
44.184	12.230	1085.379	833.989
45.199	12.193	1084.035	832.698
46.213	12.119	1083.236	831.632
47.228	12.199	1081.487	830.623
48.242	12.100	1080.661	829.414
49.257	12.185	1079.594	828.951
50.271	12.148	1078.407	827.778
51.286	12.157	1077.893	827.356
52.301	12.283	1076.739	827.032
53.315	12.322	1075.422	826.144
54.330	12.263	1074.757	825.264
55.344	12.262	1073.882	824.512
56.359	12.161	1073.289	823.480
57.374	12.284	1071.770	822.857
58.388	12.162	1070.995	821.578
59.403	12.324	1069.855	821.439
60.417	12.184	1069.547	820.433
61.432	12.242	1068.452	819.807
62.447	12.189	1067.572	818.795
63.461	12.159	1066.908	818.067
64.476	12.193	1065.791	817.307
65.490	12.253	1064.643	816.653
66.505	12.253	1063.486	815.692
67.520	12.256	1062.983	815.248
68.534	12.232	1062.209	814.466
69.549	12.215	1061.268	813.584
70.563	12.215	1060.509	812.930
71.578	12.259	1059.987	812.680
72.593	12.290	1058.765	811.822
73.607	12.358	1057.349	811.002
74.622	12.325	1056.600	810.193
75.636	12.226	1056.050	809.210
76.651	12.348	1055.296	809.164
77.666	12.310	1054.400	808.213
78.680	12.239	1053.198	806.876
79.695	12.171	1053.445	806.660
80.709	12.289	1052.609	806.523
81.724	12.358	1051.179	805.697
82.739	12.256	1050.955	804.952
83.753	12.399	1049.292	804.311
84.768	12.386	1048.632	803.668
85.782	12.436	1047.659	803.095
86.797	12.398	1046.802	802.182
87.812	12.339	1045.979	801.192
88.826	12.408	1045.106	800.788
89.841	12.329	1044.225	799.661
90.855	12.389	1042.852	798.828
91.870	12.389	1042.223	798.274
92.884	12.436	1041.745	798.068
93.899	12.375	1040.959	797.097
94.914	12.454	1040.061	796.722
95.928	12.334	1039.517	795.655
96.943	12.528	1038.573	795.803
97.957	12.343	1037.978	794.379
98.972	12.460	1036.014	793.369
99.987	12.293	1035.528	792.124
101.001	12.122	1035.095	790.895
102.016	12.461	1033.869	791.523
103.030	12.528	1032.862	791.007
104.045	12.439	1031.690	789.608
105.060	12.305	1030.518	787.998
106.074	12.321	1029.418	787.165
107.089	12.346	1029.019	786.913
108.103	12.420	1028.151	786.532
109.118	12.515	1027.001	786.035
110.133	12.324	1026.524	784.689
111.147	12.540	1025.259	784.682
112.162	12.443	1024.282	783.405
113.176	12.386	1023.425	782.408
114.191	12.578	1021.880	782.069
115.206	12.530	1021.259	781.300
116.220	12.448	1020.433	780.207
117.235	12.322	1019.790	779.047
118.249	12.415	1018.555	778.477
119.264	12.472	1017.490	777.864
120.279	12.685	1016.363	777.939
121.293	12.674	1015.281	776.990
122.308	12.578	1014.715	776.038
123.322	12.545	1013.892	775.184
124.337	12.602	1012.598	774.394
125.352	12.629	1011.152	773.346
126.366	12.428	1009.962	771.423
127.381	12.274	1008.664	769.644
128.395	12.450	1007.637	769.613
129.410	12.615	1006.787	769.667
130.424	12.702	1005.494	769.021
131.439	12.689	1004.646	768.240
132.454	12.552	1003.673	766.792
133.468	12.646	1002.938	766.599
134.483	12.700	1001.857	765.956
135.497	12.608	1001.330	765.061
136.512	12.667	1000.884	764.924
137.527	12.737	999.491	764.114
138.541	12.706	998.392	763.066
139.556	12.770	997.812	762.851
140.570	12.756	997.038	762.125
141.585	12.589	996.155	760.613
142.600	12.737	995.219	760.514
143.614	12.668	993.886	759.110
144.629	12.723	993.535	759.030
145.643	12.781	992.372	758.338
146.658	12.677	991.908	757.437
147.673	12.681	990.758	756.511
148.687	12.654	989.720	755.531
149.702	12.649	989.050	754.928
150.716	12.606	988.274	754.072
151.731	12.770	986.750	753.594
152.746	12.687	986.141	752.679
153.760	12.877	985.023	752.629
154.775	12.754	984.772	751.809
155.789	12.817	983.927	751.384
156.804	12.819	982.569	750.291
157.819	12.799	982.006	749.702
158.833	12.701	981.291	748.648
159.848	12.862	980.674	748.840
160.862	12.760	979.965	747.770
161.877	12.741	978.983	746.867
162.892	12.828	978.138	746.551
163.906	13.009	977.087	746.501
164.921	13.032	976.183	745.850
165.935	12.914	975.233	744.525
166.950	12.968	973.956	743.727
167.964	13.003	972.544	742.740
168.979	13.036	971.557	742.072
169.994	12.863	970.781	740.636
171.008	12.904	970.008	740.164
172.023	12.881	969.125	739.323
173.037	12.896	968.562	738.895
174.052	12.838	967.244	737.563
175.067	12.762	966.352	736.477
176.081	12.910	965.530	736.447
177.096	12.970	964.906	736.173
178.110	12.985	963.760	735.298
179.125	12.873	962.866	734.053
180.140	12.921	962.027	733.563
181.154	12.911	961.484	733.039
182.169	13.081	960.293	732.823
183.183	13.086	959.604	732.254
184.198	13.015	959.400	731.720
185.213	13.031	958.335	730.914
186.227	13.136	957.495	730.673
187.242	13.068	957.011	729.935
188.256	13.233	956.198	729.980
189.271	13.201	955.418	729.182
190.286	13.186	954.720	728.515
191.300	13.115	953.822	727.453
192.315	13.057	952.959	726.475
193.329	12.945	951.734	724.987
194.344	12.819	951.218	723.974
195.359	12.861	950.838	723.805
196.373	13.027	950.480	724.198
197.388	13.117	949.193	723.549
198.402	13.135	948.611	723.121
199.417	13.081	948.222	722.520
200.432	13.147	947.423	722.136
201.446	13.025	946.597	720.913
202.461	12.955	945.904	720.016
203.475	12.923	945.704	719.657
204.490	12.926	944.913	719.007
205.504	12.671	943.911	717.068
206.519	12.808	943.180	717.045
207.534	13.094	942.684	717.850
208.548	12.985	941.908	716.723
209.563	13.271	940.766	717.030
210.577	13.219	940.457	716.506
211.592	13.181	939.562	715.595
212.607	13.302	939.162	715.753
213.621	13.293	937.826	714.631
214.636	13.265	937.561	714.245
215.650	13.260	936.792	713.577
216.665	13.389	936.253	713.658
217.680	13.270	936.126	712.984
218.694	13.411	935.080	712.734
219.709	13.336	933.946	711.481
220.723	13.276	933.348	710.706
221.738	13.279	932.887	710.307
222.753	13.528	932.193	710.782
223.767	13.499	931.165	709.813
224.782	13.530	930.332	709.248
225.796	13.491	929.695	708.530
226.811	13.505	928.821	707.862
227.826	13.506	928.070	707.233
228.840	13.270	927.330	705.598
229.855	13.188	926.799	704.781
230.869	13.279	925.842	704.379
231.884	13.331	924.891	703.813
232.899	13.261	924.179	702.911
233.913	13.509	923.649	703.500
234.928	13.605	923.178	703.486
235.942	13.544	922.751	702.842
236.957	13.689	922.038	702.850
237.972	13.593	920.979	701.573
238.986	13.496	920.251	700.547
240.001	13.654	919.652	700.698
241.015	13.749	918.822	700.402
242.030	13.678	918.149	699.530
243.045	13.699	917.245	698.867
244.059	13.722	916.773	698.543
245.074	13.682	916.185	697.867
246.088	13.741	915.218	697.314
247.103	13.548	914.718	696.061
248.117	13.585	913.470	695.208
249.132	13.753	912.780	695.324
250.147	13.717	912.523	694.913
251.161	13.710	911.965	694.400
252.176	13.741	910.817	693.592
253.190	13.833	910.064	693.343
254.205	13.912	909.267	693.004
255.220	13.848	908.688	692.234
256.234	13.990	908.025	692.258
257.249	14.000	907.515	691.851
258.263	13.902	906.942	690.944
259.278	14.016	905.803	690.490
260.293	14.020	905.497	690.213
261.307	14.059	904.433	689.504
262.322	13.947	903.799	688.493
263.336	14.120	902.786	688.379
264.351	13.844	902.155	686.693
265.366	13.675	901.151	685.171
266.380	13.609	900.539	684.372
267.395	13.681	900.248	684.385
268.409	13.802	899.851	684.523
269.424	13.904	898.833	684.110
270.439	14.035	898.059	683.998
271.453	14.068	897.140	683.374
272.468	14.028	896.616	682.749
273.482	14.108	896.029	682.573
274.497	14.118	895.032	681.793
275.512	14.060	894.443	681.044
276.526	13.906	893.347	679.520
277.541	14.034	892.615	679.426
278.555	14.040	892.082	678.985
279.570	13.953	891.591	678.197
280.585	14.045	890.483	677.670
281.599	13.949	890.066	676.899
282.614	14.037	889.769	676.972
283.628	14.165	888.475	676.449
284.643	14.003	888.014	675.381
285.657	14.094	887.794	675.524
286.672	14.057	886.847	674.591
287.687	14.008	886.717	674.235
288.701	14.122	885.709	673.872
289.716	14.190	885.051	673.585
290.730	14.151	884.699	673.101
291.745	14.149	884.077	672.560
292.760	14.077	883.053	671.431
293.774	14.097	882.588	671.099
294.789	14.156	881.969	670.805
295.803	14.369	880.962	670.837
296.818	14.241	880.519	669.926
297.833	14.333	880.156	669.963
298.847	14.286	879.136	668.938
299.862	14.308	877.964	668.076
300.876	14.311	877.426	667.618
301.891	14.373	876.621	667.193
302.906	14.234	876.037	666.135
303.920	14.441	875.293	666.338
304.935	14.388	874.656	665.582
305.949	14.437	873.938	665.173
306.964	14.336	873.425	664.318
307.979	14.439	872.885	664.261
308.993	14.405	872.290	663.616
310.008	14.356	871.448	662.722
311.022	14.328	871.018	662.224
312.037	14.316	870.846	661.985
313.052	14.562	869.855	662.152
314.066	14.608	869.138	661.728
315.081	14.551	868.450	660.920
316.095	14.510	868.072	660.414
317.110	14.531	867.768	660.206
318.125	14.499	866.989	659.430
319.139	14.508	866.441	658.990
320.154	14.545	865.851	658.627
321.168	14.473	865.074	657.695
322.183	14.553	864.837	657.770
323.197	14.422	864.664	657.065
324.212	14.596	863.151	656.541
325.227	14.466	863.276	656.068
326.241	14.621	862.404	655.958
327.256	14.434	862.039	654.883
328.270	14.558	861.081	654.586
329.285	14.401	861.154	653.967
330.300	14.481	859.982	653.332
331.314	14.672	859.292	653.500
332.329	14.602	858.469	652.542
333.343	14.625	857.750	652.027
334.358	14.528	857.274	651.231
335.373	14.537	856.828	650.867
336.387	14.542	856.398	650.502
337.402	14.607	855.599	650.089
338.416	14.661	854.629	649.508
339.431	14.602	854.451	649.085
340.446	14.549	854.067	648.528
341.460	14.621	853.127	648.038
342.475	14.656	852.508	647.647
343.489	14.721	852.086	647.520
344.504	14.826	851.404	647.351
345.519	14.684	850.741	646.240
346.533	14.660	850.486	645.898
347.548	14.671	849.614	645.218
348.562	14.787	849.245	645.333
349.577	14.482	849.096	643.984
350.592	14.539	848.276	643.525
351.606	14.653	847.537	643.345
352.621	14.708	846.689	642.857
353.635	14.610	846.406	642.206
354.650	14.784	845.953	642.476
355.665	14.762	845.776	642.200
356.679	14.994	844.962	642.416
357.694	15.018	844.480	642.084
358.708	14.992	843.997	641.562
359.723	14.896	843.384	640.671
360.738	14.854	842.746	639.968
361.752	14.791	842.085	639.168
362.767	14.638	841.923	638.404
363.781	14.704	841.199	638.049
364.796	14.653	840.633	637.371
365.810	14.625	840.321	636.970
366.825	14.532	839.549	635.975
367.840	14.706	838.989	636.159
368.854	14.701	839.228	636.263
369.869	14.711	838.930	636.018
370.883	14.801	837.865	635.496
371.898	14.898	836.984	635.142
372.913	14.935	836.745	635.047
373.927	15.033	836.244	634.981
374.942	14.908	835.254	633.699
375.956	14.665	834.629	632.248
376.971	14.849	833.777	632.243
377.986	14.725	833.331	631.380
379.000	14.814	833.054	631.450
380.015	14.636	832.362	630.198
381.029	14.864	831.358	630.242
382.044	14.831	830.974	629.770
383.059	14.934	830.428	629.688
384.073	14.846	830.336	629.232
385.088	14.794	829.505	628.351
386.102	14.779	828.903	627.783
387.117	14.565	828.352	626.507
388.132	14.775	827.389	626.510
389.146	14.786	827.577	626.638
390.161	14.974	827.433	627.180
391.175	15.275	826.654	627.660
392.190	15.070	826.169	626.468
393.205	14.957	825.908	625.794
394.219	15.214	825.888	626.686
395.234	15.406	825.658	627.172
396.248	15.578	825.206	627.413
397.263	15.315	824.224	625.634
398.278	14.862	823.339	623.215
399.292	14.695	822.478	621.889
400.307	14.909	822.248	622.454
401.321	14.672	822.147	621.443
402.336	14.710	821.228	620.833
403.350	14.775	820.525	620.490
404.365	14.761	820.310	620.219
405.380	14.611	820.037	619.402
406.394	14.693	819.096	618.940
407.409	14.509	818.556	617.796
408.423	14.650	818.084	617.906
409.438	14.716	817.980	618.018
410.453	14.485	817.342	616.625
411.467	14.635	816.427	616.435
412.482	14.419	815.971	615.239
413.496	14.574	815.034	615.051
414.511	14.584	814.713	614.789
415.526	14.414	814.686	614.089
416.540	14.434	814.186	613.730
417.555	14.631	813.560	613.929
418.569	14.768	813.543	614.365
419.584	14.896	812.619	614.083
420.599	14.866	812.372	613.732
421.613	149.734	1356.054	1774.580
422.628	130.263	1435.292	1774.693
