DTS Sentinel unit serial number:	SN413079Multiplexer serial number:	ORYXHardware model number:	OX4-SRSoftware version number:	ORYX F/W v4.00 Oryx Data Collector v3.7.2.0data status	okinstallation	princeton_trtdifferential loss correction	single-endedforward channel	channel 3reverse channel	N/Adate	2019/09/10time	20:38:11forward acquisition time	60.00reverse acquisition time	0.00gamma	496.2192k internal	0.2327k external	0.2327temperature offset calibration	0.9914default loss term (dB/km)	0.3790temperature slope calibration	1.0000multiplexer offset coefficient	1.0000multiplexer slope coefficient	1.0000fibre end	0.00T internal ref (°C)	31.92T ext. ref 1 (°C)	-0.32T ext. ref 2 (°C)	25.25length (m)	temperature (°C)	Stokes	anti-Stokes-747.200	-200.000	-0.010	0.105
-746.185	241.104	-0.139	0.235
-745.171	800.000	0.085	0.257
-744.156	499.716	0.022	0.052
-743.142	-38.736	0.190	0.101
-742.127	-129.303	-0.072	0.010
-741.112	151.800	-0.192	-0.264
-740.098	-128.242	0.343	-0.049
-739.083	622.647	-0.009	-0.023
-738.069	314.315	0.100	0.191
-737.054	-70.913	-0.210	-0.080
-736.039	32.687	-0.055	-0.048
-735.025	-55.729	0.202	-0.091
-734.010	-44.979	-0.175	0.088
-732.996	68.889	0.216	-0.224
-731.981	122.845	-0.193	-0.243
-730.966	-50.142	-0.221	-0.106
-729.952	-52.952	0.169	-0.078
-728.937	160.983	-0.266	-0.375
-727.923	-35.765	-0.210	0.115
-726.908	-200.000	-0.006	0.110
-725.894	-29.887	-0.038	-0.022
-724.879	-200.000	0.042	-0.388
-723.864	-55.406	0.233	0.105
-722.850	147.528	-0.076	0.103
-721.835	-200.000	0.009	-0.160
-720.821	-15.287	0.221	-0.142
-719.806	253.563	0.033	-0.057
-718.791	183.429	0.032	-0.048
-717.777	-59.590	-0.233	-0.101
-716.762	-96.827	-0.207	0.055
-715.748	-194.079	0.218	-0.002
-714.733	-40.316	-0.155	-0.081
-713.718	57.525	0.113	0.111
-712.704	184.993	0.158	-0.236
-711.689	75.800	0.111	-0.118
-710.675	17.729	0.198	-0.158
-709.660	-53.337	-0.223	0.103
-708.645	-120.073	0.254	0.044
-707.631	-58.359	0.199	-0.087
-706.616	-111.005	-0.243	0.050
-705.602	-82.126	-0.109	0.036
-704.587	-46.721	-0.117	0.058
-703.572	-105.889	0.475	0.108
-702.558	-200.000	0.418	0.001
-701.543	-104.128	-0.324	-0.076
-700.529	-62.036	0.166	0.070
-699.514	-200.000	0.057	-0.294
-698.499	-100.185	-0.151	-0.038
-697.485	192.150	-0.159	-0.242
-696.470	-143.835	-0.252	0.024
-695.456	-17.307	-0.145	0.092
-694.441	-200.000	-0.015	0.266
-693.426	199.614	-0.180	0.278
-692.412	-200.000	0.062	-0.294
-691.397	262.194	-0.264	-0.460
-690.383	511.634	-0.064	-0.150
-689.368	18.416	0.293	-0.236
-688.354	-160.635	0.262	-0.014
-687.339	212.769	0.046	0.074
-686.324	-105.774	-0.248	-0.056
-685.310	-107.639	-0.058	0.013
-684.295	65.384	0.082	0.083
-683.281	-200.000	0.019	-0.138
-682.266	-200.000	0.039	-0.215
-681.251	-85.393	-0.115	0.036
-680.237	0.522	0.061	0.044
-679.222	-68.236	-0.191	0.075
-678.208	-25.273	0.219	-0.130
-677.193	-97.892	-0.049	-0.013
-676.178	323.630	-0.126	0.241
-675.164	110.484	-0.133	-0.161
-674.149	276.407	-0.055	0.099
-673.135	-52.305	0.166	-0.077
-672.120	-177.193	0.348	-0.009
-671.105	-14.402	-0.143	0.093
-670.091	189.635	0.097	-0.146
-669.076	49.478	0.040	-0.038
-668.062	-131.665	-0.234	-0.031
-667.047	212.550	-0.080	0.126
-666.032	-200.000	-0.017	0.233
-665.018	-57.382	0.190	-0.084
-664.003	-8.514	-0.332	0.224
-662.989	-200.000	0.005	-0.186
-661.974	-117.903	0.527	-0.095
-660.959	-75.743	-0.127	-0.045
-659.945	-136.658	-0.158	-0.018
-658.930	-150.041	0.356	0.028
-657.916	89.802	0.128	0.144
-656.901	-84.041	0.206	0.066
-655.886	67.972	0.126	0.130
-654.872	-14.827	0.130	-0.084
-653.857	12.123	-0.128	0.099
-652.843	-159.417	0.077	-0.004
-651.828	631.415	-0.056	-0.141
-650.814	-200.000	-0.027	0.337
-649.799	-14.598	-0.125	0.080
-648.784	46.383	-0.172	0.160
-647.770	231.544	-0.083	-0.137
-646.755	800.000	-0.108	-0.469
-645.741	188.707	-0.139	-0.209
-644.726	-200.000	0.059	0.452
-643.711	-41.779	-0.212	0.109
-642.697	292.342	-0.211	0.387
-641.682	276.651	-0.146	-0.260
-640.668	-84.988	-0.123	0.039
-639.653	-96.492	0.128	0.034
-638.638	800.000	0.031	-0.132
-637.624	-81.088	-0.164	0.055
-636.609	-29.584	-0.182	-0.104
-635.595	18.060	-0.080	-0.064
-634.580	554.479	-0.034	-0.081
-633.565	159.218	-0.057	-0.079
-632.551	37.730	0.111	0.099
-631.536	435.221	0.260	-0.568
-630.522	324.945	-0.190	-0.364
-629.507	282.145	-0.049	-0.088
-628.492	-52.527	0.178	0.082
-627.478	-113.368	-0.388	-0.076
-626.463	234.533	0.084	0.139
-625.449	306.471	-0.031	0.059
-624.434	66.593	0.074	-0.076
-623.419	-200.000	-0.034	0.183
-622.405	-111.572	0.273	0.056
-621.390	-20.455	0.186	0.115
-620.376	-16.459	0.046	0.029
-619.361	153.619	0.040	-0.055
-618.346	-200.000	-0.036	0.158
-617.332	-122.903	0.065	-0.010
-616.317	-200.000	-0.053	-0.304
-615.303	-115.348	0.153	-0.029
-614.288	189.703	-0.205	-0.309
-613.273	-48.357	-0.166	0.080
-612.259	-200.000	0.013	-0.126
-611.244	65.013	-0.114	-0.115
-610.230	-167.722	-0.376	0.015
-609.215	-200.000	0.010	0.110
-608.201	-200.000	-0.008	0.479
-607.186	-0.098	-0.142	0.101
-606.171	338.380	-0.118	-0.230
-605.157	-200.000	-0.007	-0.044
-604.142	-200.000	0.002	0.085
-603.128	-200.000	-0.006	0.055
-602.113	-26.559	0.338	0.198
-601.098	-96.901	-0.214	0.056
-600.084	271.971	0.027	0.047
-599.069	-200.000	0.056	-0.383
-598.055	800.000	-0.061	0.187
-597.040	-157.774	0.074	-0.004
-596.025	-50.300	0.169	0.080
-595.011	181.526	0.091	-0.134
-593.996	129.686	-0.126	-0.161
-592.982	-88.559	-0.364	0.109
-591.967	-200.000	-0.039	-0.395
-590.952	-77.907	-0.190	0.066
-589.938	-71.575	0.126	-0.047
-588.923	297.466	-0.161	-0.297
-587.909	-200.000	-0.008	0.140
-586.894	122.383	0.075	0.093
-585.879	-79.049	-0.247	-0.084
-584.865	-132.555	-0.225	0.029
-583.850	282.850	-0.177	0.319
-582.836	-200.000	0.021	-0.270
-581.821	-143.857	-0.050	0.005
-580.806	10.249	0.118	-0.090
-579.792	-95.403	-0.141	-0.038
-578.777	146.647	0.189	0.254
-577.763	653.369	-0.115	0.296
-576.748	-200.000	-0.012	0.216
-575.733	-200.000	-0.051	0.322
-574.719	241.582	-0.072	-0.121
-573.704	-5.007	0.216	-0.149
-572.690	-200.000	0.021	-0.104
-571.675	-40.224	-0.025	-0.013
-570.661	-152.900	-0.472	0.033
-569.646	-0.069	0.191	-0.136
-568.631	-200.000	0.010	-0.208
-567.617	-122.601	-0.191	0.031
-566.602	35.302	-0.216	-0.190
-565.588	208.180	0.082	0.129
-564.573	94.003	0.054	-0.061
-563.558	-106.873	-0.206	0.046
-562.544	-50.816	-0.232	-0.109
-561.529	-200.000	0.030	0.139
-560.515	-105.257	-0.389	0.089
-559.500	56.932	-0.178	0.173
-558.485	-33.376	0.252	-0.140
-557.471	25.033	-0.101	-0.084
-556.456	88.174	0.229	0.254
-555.442	208.559	-0.058	-0.090
-554.427	36.797	-0.130	-0.115
-553.412	148.350	0.215	-0.291
-552.398	-34.011	0.153	0.084
-551.383	-200.000	-0.042	-0.213
-550.369	800.000	0.097	-0.422
-549.354	45.429	-0.151	-0.140
-548.339	42.905	0.104	-0.095
-547.325	-61.336	-0.261	-0.110
-546.310	76.612	-0.201	0.213
-545.296	204.079	-0.052	-0.081
-544.281	119.116	0.319	0.395
-543.266	-115.697	0.252	-0.047
-542.252	-152.516	0.301	0.022
-541.237	-81.588	0.166	0.055
-540.223	-104.389	-0.231	0.054
-539.208	-72.141	-0.166	-0.062
-538.193	-200.000	0.064	-0.358
-537.179	-200.000	-0.062	-0.320
-536.164	87.765	-0.062	-0.069
-535.150	-200.000	-0.014	0.171
-534.135	84.189	-0.027	0.029
-533.121	800.000	-0.088	0.285
-532.106	132.682	-0.204	0.264
-531.091	-90.693	-0.044	-0.013
-530.077	64.501	0.149	0.150
-529.062	-56.411	0.174	-0.077
-528.048	674.444	-0.086	0.224
-527.033	-40.014	0.009	0.005
-526.018	-18.410	0.091	0.057
-525.004	262.871	0.225	-0.390
-523.989	800.000	0.045	0.180
-522.975	455.278	-0.104	0.230
-521.960	-72.957	-0.273	-0.100
-520.945	-142.282	-0.147	-0.015
-519.931	163.810	-0.141	-0.199
-518.916	-115.038	-0.243	-0.046
-517.902	-67.995	-0.445	-0.174
-516.887	231.518	0.078	0.128
-515.872	-200.000	0.045	0.314
-514.858	-66.460	0.298	0.118
-513.843	96.371	0.118	0.135
-512.829	454.508	-0.095	0.210
-511.814	-200.000	-0.005	0.084
-510.799	-22.026	0.216	-0.131
-509.785	-200.000	-0.069	-0.577
-508.770	-200.000	0.025	-0.429
-507.756	-149.784	-0.170	-0.013
-506.741	-200.000	0.022	-0.219
-505.726	26.230	0.262	-0.219
-504.712	-29.152	0.176	-0.101
-503.697	-200.000	0.026	-0.389
-502.683	-161.322	-0.190	-0.010
-501.668	259.968	0.079	0.136
-500.653	-74.524	0.150	0.054
-499.639	800.000	-0.028	-0.092
-498.624	117.694	0.058	0.071
-497.610	42.688	-0.104	0.094
-496.595	-128.825	0.096	0.013
-495.581	188.091	0.140	-0.209
-494.566	-161.533	0.177	-0.009
-493.551	-59.072	0.249	-0.107
-492.537	70.581	0.182	-0.188
-491.522	-170.905	0.147	-0.005
-490.508	134.221	-0.177	-0.229
-489.493	108.553	-0.154	-0.184
-488.478	-35.072	0.090	0.049
-487.464	-114.384	0.207	0.040
-486.449	-200.000	-0.018	0.123
-485.435	88.688	0.212	-0.236
-484.420	-32.152	0.147	0.082
-483.405	-25.481	0.230	0.135
-482.391	-15.713	-0.257	0.164
-481.376	800.000	-0.067	-0.215
-480.362	14.972	0.219	-0.171
-479.347	330.170	0.093	0.179
-478.332	-72.460	-0.194	-0.072
-477.318	-13.838	-0.094	-0.061
-476.303	-200.000	0.049	0.341
-475.289	-78.464	-0.185	-0.063
-474.274	-110.810	0.073	0.015
-473.259	-115.750	-0.382	0.071
-472.245	22.239	-0.007	-0.006
-471.230	303.254	-0.192	-0.355
-470.216	373.852	-0.042	0.085
-469.201	-47.955	0.107	-0.051
-468.186	-136.636	-0.105	0.012
-467.172	-200.000	0.048	0.310
-466.157	-127.563	-0.218	0.032
-465.143	173.586	-0.109	-0.157
-464.128	199.081	-0.063	-0.097
-463.113	-200.000	-0.021	0.269
-462.099	40.985	-0.169	0.152
-461.084	800.000	0.073	0.230
-460.070	800.000	-0.035	0.098
-459.055	304.778	-0.079	-0.147
-458.040	224.024	0.159	0.256
-457.026	-200.000	-0.018	-0.262
-456.011	-200.000	-0.018	0.156
-454.997	800.000	0.095	-0.292
-453.982	145.653	-0.135	0.180
-452.968	592.546	-0.151	-0.372
-451.953	800.000	-0.061	-0.174
-450.938	-31.920	0.264	0.148
-449.924	0.936	-0.304	-0.217
-448.909	32.246	0.183	0.157
-447.895	-68.404	0.332	-0.128
-446.880	800.000	0.138	0.489
-445.865	-83.058	-0.210	-0.068
-444.851	800.000	0.111	0.309
-443.836	800.000	-0.095	0.319
-442.822	179.911	0.058	-0.084
-441.807	-200.000	-0.032	-0.352
-440.792	-34.614	-0.440	-0.240
-439.778	131.805	0.084	0.108
-438.763	542.713	0.098	0.233
-437.749	157.206	-0.129	0.178
-436.734	59.287	-0.054	-0.053
-435.719	-21.624	0.174	-0.106
-434.705	-23.352	-0.134	0.080
-433.690	219.598	-0.277	0.442
-432.676	525.479	-0.027	-0.063
-431.661	800.000	0.031	0.106
-430.646	11.869	0.217	0.166
-429.632	-137.464	0.013	0.001
-428.617	475.879	0.031	-0.069
-427.603	-200.000	-0.016	-0.140
-426.588	-122.244	-0.298	-0.049
-425.573	476.249	-0.150	0.336
-424.559	137.648	0.096	0.125
-423.544	-180.121	0.238	0.005
-422.530	-65.526	0.378	0.151
-421.515	41.491	0.140	0.126
-420.500	93.514	0.266	0.299
-419.486	-154.695	-0.567	0.037
-418.471	-200.000	-0.062	-0.544
-417.457	566.010	0.154	0.372
-416.442	-200.000	0.021	-0.114
-415.428	46.717	0.208	-0.192
-414.413	-200.000	-0.056	0.367
-413.398	34.790	0.155	0.135
-412.384	260.893	0.025	0.044
-411.369	18.214	-0.008	0.006
-410.355	174.757	0.056	-0.080
-409.340	366.782	0.037	0.074
-408.325	-54.954	0.157	-0.071
-407.311	800.000	0.090	-0.294
-406.296	-200.000	-0.002	-0.119
-405.282	25.551	0.251	-0.207
-404.267	285.862	-0.181	0.325
-403.252	-62.945	0.246	-0.101
-402.238	800.000	-0.031	0.129
-401.223	800.000	0.040	-0.143
-400.209	-200.000	-0.012	-0.069
-399.194	-153.159	0.472	0.033
-398.179	439.922	-0.080	-0.174
-397.165	33.382	0.138	0.119
-396.150	-74.612	-0.133	0.047
-395.136	1.123	-0.194	-0.139
-394.121	182.513	0.127	-0.186
-393.106	35.684	-0.110	-0.097
-392.092	800.000	0.016	-0.066
-391.077	-200.000	-0.018	0.229
-390.063	-59.844	0.255	0.108
-389.048	683.904	-0.084	-0.217
-388.033	121.623	0.101	0.126
-387.019	-60.012	0.379	-0.161
-386.004	-106.506	0.244	-0.054
-384.990	800.000	-0.057	0.236
-383.975	9.859	-0.027	-0.020
-382.960	-129.073	0.166	0.023
-381.946	-99.561	0.099	-0.025
-380.931	800.000	0.086	-0.237
-379.917	-193.287	0.149	-0.001
-378.902	-52.383	0.436	-0.201
-377.888	627.490	0.059	0.148
-376.873	-13.019	-0.279	-0.180
-375.858	-33.571	0.194	-0.107
-374.844	124.443	-0.058	-0.073
-373.829	-20.427	-0.316	-0.193
-372.815	-168.519	-0.234	0.009
-371.800	24.655	0.088	-0.073
-370.785	127.858	0.153	0.193
-369.771	-143.305	-0.190	0.018
-368.756	-86.586	0.354	0.108
-367.742	43.883	0.287	0.262
-366.727	-71.282	0.227	-0.085
-365.712	5.714	0.258	-0.189
-364.698	366.645	0.035	0.070
-363.683	639.500	0.036	0.091
-362.669	-145.411	0.078	0.007
-361.654	-89.984	-0.138	-0.040
-360.639	-132.228	-0.525	0.068
-359.625	-11.847	0.171	0.112
-358.610	176.506	-0.033	-0.047
-357.596	-57.419	-0.133	0.058
-356.581	51.348	-0.112	-0.105
-355.566	21.929	-0.339	0.275
-354.552	-48.894	-0.151	-0.072
-353.537	-82.941	0.330	0.106
-352.523	34.510	-0.310	0.269
-351.508	800.000	-0.103	0.300
-350.493	-200.000	-0.033	-0.469
-349.479	132.038	0.087	-0.111
-348.464	-105.196	-0.095	0.022
-347.450	-16.387	0.207	-0.131
-346.435	372.990	-0.151	0.304
-345.420	-132.240	0.482	0.062
-344.406	800.000	-0.063	-0.208
-343.391	271.857	0.134	0.234
-342.377	800.000	0.068	-0.221
-341.362	162.473	0.223	-0.310
-340.348	-200.000	0.015	-0.100
-339.333	21.016	-0.280	0.225
-338.318	121.989	0.165	0.205
-337.304	-200.000	-0.108	0.470
-336.289	-24.081	0.288	-0.171
-335.275	-176.232	-0.027	-0.001
-334.260	-19.412	0.242	-0.149
-333.245	-147.653	-0.132	0.011
-332.231	-200.000	-0.009	-0.181
-331.216	-145.123	-0.202	-0.018
-330.202	-200.000	0.044	0.205
-329.187	212.439	-0.087	-0.136
-328.172	12.992	0.122	-0.093
-327.158	-200.000	-0.038	0.347
-326.143	79.908	-0.231	0.246
-325.129	180.353	0.053	0.077
-324.114	-200.000	-0.040	0.265
-323.099	-55.634	0.245	-0.109
-322.085	800.000	0.127	0.384
-321.070	-41.647	-0.147	0.075
-320.056	371.049	-0.141	-0.284
-319.041	-200.000	0.018	0.093
-318.026	-119.919	-0.406	-0.069
-317.012	800.000	-0.081	-0.314
-315.997	-80.237	-0.177	-0.059
-314.983	-61.969	0.244	-0.101
-313.968	34.646	0.138	0.119
-312.953	-108.326	0.385	0.082
-311.939	316.794	0.156	0.292
-310.924	18.506	0.259	0.205
-309.910	-39.789	0.408	-0.212
-308.895	-95.495	0.301	-0.080
-307.880	-76.233	0.161	-0.056
-306.866	-200.000	-0.013	-0.307
-305.851	358.901	-0.078	-0.154
-304.837	-133.075	0.148	-0.019
-303.822	-200.000	-0.016	0.220
-302.807	138.432	-0.118	-0.153
-301.793	-71.225	0.267	-0.099
-300.778	-108.908	-0.174	-0.037
-299.764	238.777	0.154	-0.254
-298.749	448.275	-0.076	0.167
-297.735	-100.472	0.383	0.094
-296.720	800.000	-0.065	0.197
-295.705	177.556	-0.158	-0.228
-294.691	409.098	-0.028	0.058
-293.676	-48.358	0.083	0.040
-292.662	-80.788	-0.282	-0.093
-291.647	62.540	0.259	-0.257
-290.632	151.244	0.186	0.251
-289.618	226.605	-0.029	0.047
-288.603	-147.385	-0.212	-0.018
-287.589	529.246	-0.121	0.282
-286.574	208.693	0.117	0.181
-285.559	159.716	-0.138	0.190
-284.545	-48.380	-0.318	-0.152
-283.530	51.945	-0.096	-0.091
-282.516	-12.718	-0.124	-0.080
-281.501	-57.915	-0.229	-0.099
-280.486	391.348	-0.085	0.174
-279.472	-68.934	0.599	0.229
-278.457	-200.000	0.031	0.211
-277.443	-65.327	0.298	-0.119
-276.428	-133.286	0.232	-0.029
-275.413	-200.000	-0.026	-0.174
-274.399	-153.105	0.453	0.031
-273.384	564.144	-0.055	-0.133
-272.370	800.000	-0.116	-0.322
-271.355	-200.000	-0.009	-0.175
-270.340	-114.526	0.359	-0.068
-269.326	800.000	0.021	-0.074
-268.311	-60.182	0.046	0.020
-267.297	213.832	0.155	-0.243
-266.282	-200.000	0.045	0.256
-265.267	-200.000	-0.025	-0.174
-264.253	242.038	0.114	-0.189
-263.238	-200.000	0.009	0.100
-262.224	800.000	-0.058	0.162
-261.209	33.400	0.228	-0.196
-260.195	-86.340	-0.145	0.044
-259.180	800.000	0.060	-0.191
-258.165	141.311	-0.048	0.063
-257.151	800.000	-0.065	-0.195
-256.136	-125.570	-0.084	0.013
-255.122	800.000	-0.014	0.047
-254.107	35.947	-0.218	0.190
-253.092	208.245	-0.206	0.319
-252.078	249.548	0.061	-0.102
-251.063	93.033	0.099	0.111
-250.049	153.331	-0.035	0.047
-249.034	153.227	-0.071	0.096
-248.019	66.473	-0.117	-0.118
-247.005	-200.000	0.027	0.265
-245.990	-200.000	0.024	-0.238
-244.976	145.291	-0.198	-0.261
-243.961	40.869	-0.161	0.144
-242.946	-200.000	-0.042	0.198
-241.932	24.843	-0.195	0.160
-240.917	-200.000	-0.021	-0.276
-239.903	-104.089	0.213	0.049
-238.888	-71.767	0.359	-0.132
-237.873	148.421	-0.108	0.145
-236.859	-129.696	-0.317	-0.043
-235.844	756.043	0.154	0.413
-234.830	136.598	0.140	-0.180
-233.815	98.274	0.151	-0.172
-232.800	103.346	-0.220	0.255
-231.786	-32.780	-0.069	-0.038
-230.771	49.911	-0.133	-0.124
-229.757	-200.000	0.014	0.181
-228.742	800.000	0.048	-0.202
-227.727	19.300	-0.104	-0.083
-226.713	-20.391	-0.100	-0.061
-225.698	-42.421	-0.277	0.140
-224.684	-200.000	0.298	-0.001
-223.669	26.944	-0.349	-0.289
-222.655	-191.422	0.181	-0.002
-221.640	32.141	0.163	0.139
-220.625	800.000	-0.051	0.164
-219.611	282.311	-0.240	0.425
-218.596	211.077	-0.218	0.339
-217.582	2.417	-0.110	-0.078
-216.567	135.540	0.154	0.198
-215.552	-39.102	-0.156	-0.081
-214.538	-144.802	0.011	0.001
-213.523	-31.750	0.037	-0.021
-212.509	-34.813	0.318	0.172
-211.494	-200.000	0.058	-0.290
-210.479	31.716	0.209	0.178
-209.465	-151.490	0.145	-0.011
-208.450	800.000	0.010	-0.030
-207.436	110.122	-0.051	0.060
-206.421	-55.766	-0.178	-0.078
-205.406	103.632	0.065	-0.075
-204.392	17.945	-0.101	0.079
-203.377	127.606	0.025	-0.032
-202.363	214.189	-0.139	0.217
-201.348	-200.000	0.021	0.237
-200.333	800.000	-0.056	-0.169
-199.319	283.999	0.016	0.029
-198.304	298.879	0.092	-0.167
-197.290	-141.457	0.144	-0.014
-196.275	281.026	-0.127	-0.224
-195.260	-200.000	-0.026	0.128
-194.246	-149.133	-0.390	-0.031
-193.231	-200.000	-0.020	0.126
-192.217	148.274	0.005	0.007
-191.202	-41.624	0.232	-0.117
-190.187	-106.101	-0.488	-0.108
-189.173	25.186	-0.036	-0.029
-188.158	-28.144	-0.413	0.236
-187.144	26.334	-0.164	-0.135
-186.129	55.530	-0.069	-0.066
-185.114	-15.270	0.018	-0.011
-184.100	155.471	-0.140	-0.190
-183.085	157.052	0.108	0.148
-182.071	272.977	0.025	-0.044
-181.056	800.000	-0.068	-0.198
-180.042	-200.000	0.026	0.292
-179.027	-200.000	0.039	0.314
-178.012	-171.556	0.416	0.014
-176.998	-200.000	-0.062	-0.308
-175.983	372.595	-0.075	-0.150
-174.969	-127.373	-0.207	-0.030
-173.954	-51.664	0.060	0.027
-172.939	-40.138	0.206	0.106
-171.925	292.425	-0.039	0.070
-170.910	-90.336	0.014	-0.004
-169.896	-193.381	-0.083	0.001
-168.881	110.545	-0.344	-0.408
-167.866	-200.000	0.016	-0.090
-166.852	98.831	0.194	-0.221
-165.837	-59.029	-0.218	0.093
-164.823	29.074	0.255	0.213
-163.808	-98.152	-0.320	0.081
-162.793	-79.798	-0.041	-0.014
-161.779	5.249	0.204	-0.148
-160.764	-108.957	-0.142	-0.030
-159.750	35.982	0.162	0.141
-158.735	800.000	0.092	0.322
-157.720	-200.000	0.021	0.181
-156.706	221.064	0.157	0.249
-155.691	-120.627	-0.022	-0.004
-154.677	-141.828	0.133	0.013
-153.662	75.145	0.303	0.314
-152.647	311.367	0.119	-0.219
-151.633	214.074	-0.117	0.182
-150.618	657.497	-0.044	-0.113
-149.604	164.314	0.265	0.368
-148.589	-57.575	0.155	-0.067
-147.574	-200.000	0.015	-0.288
-146.560	-163.274	0.419	0.020
-145.545	-200.000	0.030	-0.166
-144.531	-200.000	-0.011	-0.216
-143.516	116.111	-0.187	0.225
-142.502	-43.896	0.064	0.032
-141.487	267.909	0.165	-0.284
-140.472	-144.787	0.146	0.013
-139.458	168.141	-0.185	-0.260
-138.443	-200.000	0.000	-0.318
-137.429	218.882	0.078	-0.123
-136.414	53.306	0.081	-0.076
-135.399	-45.780	-0.091	0.044
-134.385	36.926	0.344	0.300
-133.370	-2.578	0.150	0.103
-132.356	-80.745	0.436	-0.143
-131.341	-46.513	0.342	0.165
-130.326	363.507	0.080	0.159
-129.312	276.043	-0.026	0.045
-128.297	-200.000	-0.041	0.492
-127.283	-33.649	0.154	0.084
-126.268	-200.000	-0.039	0.244
-125.253	263.345	0.021	-0.035
-124.239	-157.012	0.394	-0.024
-123.224	48.827	-0.221	-0.204
-122.210	230.527	-0.065	0.104
-121.195	115.754	0.218	0.263
-120.180	-116.541	-0.213	-0.039
-119.166	-67.183	-0.103	0.040
-118.151	-200.000	0.027	0.119
-117.137	451.114	0.129	-0.280
-116.122	25.676	-0.090	-0.074
-115.107	-26.792	0.248	0.143
-114.093	800.000	0.063	-0.266
-113.078	-200.000	-0.031	-0.402
-112.064	-52.507	0.169	-0.077
-111.049	200.301	0.139	0.210
-110.034	-72.225	0.322	0.117
-109.020	152.061	-0.167	-0.224
-108.005	-64.179	0.483	-0.194
-106.991	419.001	-0.015	0.032
-105.976	800.000	-0.066	-0.198
-104.962	-62.927	-0.190	-0.077
-103.947	-144.140	-0.188	-0.017
-102.932	-33.282	0.323	-0.176
-101.918	-58.991	-0.119	0.051
-100.903	-200.000	0.065	-0.353
-99.889	583.443	-0.042	-0.103
-98.874	706.444	0.061	-0.159
-97.859	10.127	0.228	-0.171
-96.845	145.025	0.208	0.273
-95.830	411.280	-0.088	0.183
-94.816	-72.324	0.410	-0.149
-93.801	-200.000	-0.016	-0.296
-92.786	-200.000	0.027	-0.239
-91.772	-90.900	-0.038	-0.011
-90.757	-40.332	0.118	0.060
-89.743	37.498	-0.098	0.085
-88.728	800.000	-0.078	-0.219
-87.713	-149.615	0.142	0.011
-86.699	800.000	-0.048	-0.133
-85.684	-200.000	0.038	0.311
-84.670	-117.721	-0.032	-0.006
-83.655	32.248	0.350	-0.297
-82.640	-60.177	-0.202	0.084
-81.626	40.509	0.275	0.243
-80.611	142.310	0.300	0.391
-79.597	-114.887	0.307	-0.058
-78.582	159.294	0.270	-0.369
-77.567	-200.000	-0.009	-0.296
-76.553	-24.132	0.375	0.220
-75.538	283.700	0.152	-0.268
-74.524	306.176	-0.182	-0.333
-73.509	196.348	-0.142	-0.213
-72.494	-166.581	0.276	-0.011
-71.480	-106.154	-0.327	0.072
-70.465	103.387	-0.139	0.160
-69.451	33.736	0.107	0.091
-68.436	800.000	-0.010	0.041
-67.422	-200.000	0.042	-0.185
-66.407	800.000	-0.050	-0.142
-65.392	-13.557	-0.173	-0.110
-64.378	261.953	-0.092	0.156
-63.363	-200.000	0.082	-0.485
-62.349	-200.000	0.002	0.200
-61.334	16.666	-1.073	-0.833
-60.319	-7.487	0.558	0.371
-59.305	680.840	-0.373	-0.954
-58.290	248.258	0.621	1.032
-57.276	245.948	1.020	1.687
-56.261	-200.000	97.664	610.673
-55.246	619.170	1401.101	3455.509
-54.232	192.731	2591.356	3841.384
-53.217	117.078	2167.862	2613.945
-52.203	42.649	1706.686	1524.905
-51.188	35.234	1520.155	1307.828
-50.173	32.714	1494.344	1268.640
-49.159	51.709	1544.859	1441.979
-48.144	53.464	1561.576	1469.535
-47.130	35.322	1520.250	1308.305
-46.115	32.191	1505.585	1274.433
-45.100	31.927	1502.870	1270.297
-44.086	32.021	1500.532	1268.910
-43.071	31.928	1498.841	1266.799
-42.057	31.944	1496.739	1265.079
-41.042	31.941	1495.447	1263.918
-40.027	31.950	1494.321	1262.980
-39.013	31.941	1492.770	1261.554
-37.998	31.868	1491.435	1259.888
-36.984	31.890	1490.008	1258.779
-35.969	31.942	1488.925	1258.163
-34.954	31.880	1487.609	1256.583
-33.940	31.885	1486.385	1255.533
-32.925	31.974	1484.282	1254.305
-31.911	31.999	1483.310	1253.603
-30.896	32.065	1482.005	1252.888
-29.881	32.035	1480.704	1251.540
-28.867	32.010	1479.207	1250.057
-27.852	32.055	1477.807	1249.126
-26.838	31.967	1476.099	1247.048
-25.823	31.968	1474.823	1245.926
-24.809	32.007	1473.049	1244.634
-23.794	31.922	1472.130	1243.249
-22.779	31.936	1470.269	1241.715
-21.765	32.028	1469.147	1241.330
-20.750	31.988	1468.468	1240.443
-19.736	31.876	1467.624	1238.938
-18.721	31.906	1466.315	1237.984
-17.706	31.930	1465.432	1237.350
-16.692	32.004	1463.936	1236.524
-15.677	31.896	1463.523	1235.414
-14.663	31.866	1462.092	1233.960
-13.648	31.812	1461.381	1232.953
-12.633	31.818	1460.754	1232.416
-11.619	31.811	1459.838	1231.551
-10.604	31.854	1459.135	1231.190
-9.590	31.877	1458.089	1230.408
-8.575	31.893	1457.168	1229.687
-7.560	31.882	1456.109	1228.677
-6.546	31.945	1454.969	1228.071
-5.531	31.842	1454.415	1226.888
-4.517	31.823	1453.212	1225.696
-3.502	31.746	1452.137	1224.238
-2.487	31.803	1451.544	1224.061
-1.473	31.934	1449.964	1223.533
-0.458	31.817	1448.829	1221.765
0.556	29.454	1439.228	1210.504
1.571	26.447	1412.831	1168.802
2.586	22.829	1351.844	1095.840
3.600	21.213	1269.116	1019.262
4.615	19.980	1224.067	976.048
5.629	17.257	1168.701	917.144
6.644	8.156	1083.764	804.679
7.659	0.780	1042.456	738.040
8.673	-0.098	1036.382	729.411
9.688	-0.290	1033.301	726.248
10.702	-0.496	1032.159	724.389
11.717	-0.385	1029.665	723.105
12.731	2.570	1032.869	739.575
13.746	11.428	1045.969	792.039
14.761	17.885	1053.964	829.499
15.775	18.837	1053.712	833.848
16.790	18.758	1053.023	832.847
17.804	18.654	1052.355	831.739
18.819	18.304	1051.396	829.216
19.834	18.330	1051.170	829.088
20.848	18.546	1050.122	829.232
21.863	18.527	1049.819	828.828
22.877	18.449	1049.656	828.251
23.892	18.448	1048.927	827.598
24.907	18.293	1048.330	826.301
25.921	18.399	1047.517	826.099
26.936	18.493	1046.574	825.735
27.950	18.535	1045.196	824.780
28.965	18.472	1043.977	823.442
29.980	18.235	1042.690	821.218
30.994	18.181	1041.033	819.577
32.009	18.581	1040.037	820.638
33.023	18.574	1039.736	820.295
34.038	18.438	1038.153	818.320
35.053	18.278	1037.416	816.908
36.067	18.520	1036.962	817.630
37.082	18.437	1036.501	816.798
38.096	18.572	1035.278	816.403
39.111	18.680	1034.847	816.507
40.126	18.720	1033.502	815.563
41.140	18.783	1032.070	814.660
42.155	18.429	1031.044	812.103
43.169	18.178	1029.782	809.844
44.184	18.128	1028.598	808.606
45.199	18.282	1027.155	808.130
46.213	18.321	1025.597	807.016
47.228	18.165	1025.130	805.840
48.242	18.213	1024.254	805.309
49.257	18.246	1023.328	804.665
50.271	18.256	1022.684	804.134
51.286	18.438	1021.775	804.203
52.301	18.446	1020.978	803.540
53.315	18.370	1020.169	802.474
54.330	18.378	1019.018	801.537
55.344	18.395	1018.459	801.106
56.359	18.503	1017.215	800.562
57.374	18.507	1016.375	799.849
58.388	18.307	1015.500	798.158
59.403	18.394	1014.435	797.655
60.417	18.371	1013.945	797.090
61.432	18.190	1013.110	795.524
62.447	18.143	1012.490	794.746
63.461	18.317	1011.919	795.034
64.476	18.379	1010.775	794.356
65.490	18.442	1009.574	793.631
66.505	18.117	1009.027	791.628
67.520	18.313	1008.104	791.738
68.534	18.294	1007.473	791.087
69.549	18.219	1006.470	789.884
70.563	17.965	1004.962	787.456
71.578	17.916	1004.015	786.420
72.593	18.178	1002.527	786.392
73.607	17.812	1002.284	784.451
74.622	17.856	1001.162	783.700
75.636	18.108	1000.645	784.385
76.651	18.228	999.965	784.335
77.666	18.124	999.000	783.031
78.680	17.960	997.951	781.388
79.695	18.065	997.366	781.340
80.709	18.058	997.378	781.251
81.724	18.155	996.238	780.733
82.739	18.194	995.450	780.220
83.753	18.187	994.220	779.157
84.768	18.481	993.345	779.738
85.782	18.630	992.898	779.997
86.797	18.672	991.795	779.255
87.812	18.550	991.213	778.170
88.826	18.449	990.408	777.011
89.841	18.606	989.121	776.644
90.855	18.564	988.761	776.106
91.870	18.501	988.331	775.412
92.884	18.591	986.815	774.563
93.899	18.442	986.069	773.234
94.914	18.445	985.041	772.374
95.928	18.653	983.981	772.411
96.943	18.506	983.771	771.518
97.957	18.323	982.344	769.506
98.972	18.168	981.251	767.887
99.987	17.954	980.037	765.909
101.001	18.041	979.634	765.918
102.016	18.436	978.929	767.066
103.030	18.444	977.950	766.267
104.045	18.422	976.281	764.792
105.060	18.098	974.853	762.164
106.074	17.923	973.987	760.639
107.089	18.029	973.427	760.605
108.103	18.430	973.121	762.084
109.118	18.696	971.869	762.217
110.133	18.396	971.070	760.191
111.147	18.455	969.819	759.408
112.162	18.401	968.372	757.966
113.176	18.101	967.391	755.808
114.191	18.183	966.263	755.220
115.206	18.285	965.954	755.362
116.220	18.099	964.461	753.309
117.235	17.957	963.285	751.699
118.249	18.064	962.942	751.835
119.264	18.101	962.014	751.207
120.279	18.074	960.794	750.068
121.293	18.092	959.760	749.273
122.308	18.147	959.478	749.228
123.322	18.190	958.871	748.875
124.337	18.195	957.556	747.805
125.352	18.144	956.157	746.425
126.366	17.788	954.341	743.390
127.381	17.378	953.002	740.494
128.395	17.847	952.885	742.379
129.410	18.447	952.383	744.531
130.424	18.541	951.672	744.318
131.439	18.511	950.520	743.221
132.454	18.476	949.212	741.982
133.468	18.491	948.029	741.057
134.483	18.372	947.650	740.179
135.497	18.363	946.927	739.511
136.512	18.644	946.346	740.202
137.527	18.811	945.393	740.114
138.541	18.626	944.484	738.541
139.556	18.645	943.812	738.029
140.570	18.712	942.945	737.575
141.585	18.653	942.019	736.534
142.600	18.695	941.394	736.159
143.614	18.470	940.655	734.550
144.629	18.607	939.555	734.213
145.643	18.887	938.996	734.909
146.658	18.767	938.064	733.601
147.673	18.782	936.322	732.237
148.687	18.587	935.666	730.829
149.702	18.558	934.865	730.014
150.716	18.550	933.481	728.837
151.731	18.496	932.591	727.847
152.746	18.638	931.770	727.746
153.760	18.721	931.646	727.937
154.775	18.975	930.741	728.241
155.789	18.872	930.081	727.225
156.804	18.951	928.848	726.531
157.819	18.854	927.678	725.141
158.833	18.810	927.369	724.651
159.848	18.929	926.475	724.386
160.862	18.946	925.936	723.975
161.877	18.837	924.531	722.353
162.892	18.703	924.008	721.318
163.906	18.855	923.491	721.487
164.921	18.977	922.149	720.889
165.935	18.890	921.420	719.891
166.950	18.923	919.926	718.798
167.964	18.865	919.111	717.852
168.979	18.853	918.407	717.192
169.994	18.860	916.737	715.853
171.008	18.681	916.419	714.794
172.023	18.720	915.520	714.192
173.037	18.913	914.496	714.131
174.052	18.635	913.832	712.398
175.067	18.484	912.625	710.765
176.081	18.509	912.016	710.334
177.096	18.761	911.034	710.548
178.110	18.775	909.906	709.662
179.125	18.741	908.736	708.548
180.140	18.401	907.878	706.413
181.154	18.379	907.105	705.658
182.169	18.506	906.855	705.926
183.183	18.639	906.409	706.065
184.198	18.776	905.883	706.156
185.213	18.858	905.052	705.782
186.227	18.693	904.658	704.733
187.242	18.906	904.005	705.039
188.256	18.902	902.968	704.149
189.271	18.780	902.603	703.301
190.286	18.883	901.605	702.885
191.300	18.873	900.551	701.961
192.315	18.466	899.428	699.363
193.329	17.832	898.107	695.691
194.344	17.478	897.012	693.339
195.359	17.966	897.129	695.353
196.373	18.696	897.267	698.372
197.388	18.802	897.136	698.637
198.402	18.668	896.084	697.211
199.417	18.620	895.467	696.474
200.432	18.780	894.970	696.675
201.446	18.504	894.514	695.140
202.461	18.115	893.504	692.719
203.475	18.378	892.618	693.034
204.490	17.845	891.432	689.900
205.504	16.801	889.902	684.437
206.519	17.383	889.404	686.342
207.534	18.241	889.938	690.158
208.548	18.388	889.286	690.181
209.563	18.547	889.633	691.033
210.577	18.707	888.495	690.730
211.592	18.517	887.422	689.071
212.607	18.811	887.073	689.922
213.621	18.835	886.365	689.403
214.636	18.851	885.361	688.628
215.650	18.928	885.440	688.938
216.665	18.932	884.371	688.059
217.680	18.873	884.242	687.662
218.694	18.944	883.586	687.374
219.709	18.487	883.122	685.128
220.723	18.404	881.759	683.677
221.738	18.663	880.897	683.980
222.753	18.808	880.627	684.288
223.767	18.730	879.520	683.058
224.782	18.686	879.163	682.544
225.796	18.899	878.450	682.779
226.811	19.006	877.808	682.645
227.826	18.589	876.939	680.255
228.840	18.080	875.493	677.057
229.855	17.771	874.831	675.260
230.869	18.215	874.029	676.336
231.884	17.879	873.285	674.373
232.899	18.093	872.552	674.595
233.913	18.845	872.318	677.320
234.928	18.811	872.494	677.262
235.942	18.707	872.097	676.482
236.957	18.783	870.795	675.712
237.972	18.602	869.617	674.027
238.986	18.570	868.881	673.273
240.001	18.677	868.731	673.518
241.015	18.543	868.395	672.672
242.030	18.646	867.909	672.637
243.045	18.847	866.795	672.502
244.059	18.845	866.657	672.326
245.074	18.855	866.383	672.095
246.088	18.900	865.277	671.352
247.103	18.589	864.111	669.178
248.117	18.572	863.436	668.528
249.132	18.931	863.797	670.146
250.147	19.281	862.865	670.729
251.161	19.393	861.892	670.346
252.176	19.408	861.609	670.124
253.190	19.384	860.868	669.395
254.205	19.353	860.450	668.893
255.220	19.666	859.731	669.487
256.234	19.607	859.122	668.726
257.249	19.648	858.457	668.306
258.263	19.628	857.760	667.628
259.278	19.490	857.549	666.873
260.293	19.574	856.696	666.476
261.307	19.698	856.058	666.397
262.322	19.494	855.579	665.178
263.336	19.436	854.528	664.079
264.351	18.984	853.025	661.115
265.366	17.874	851.311	655.469
266.380	17.429	850.354	652.967
267.395	18.277	850.741	656.461
268.409	19.139	850.840	659.784
269.424	19.190	850.075	659.325
270.439	19.311	849.606	659.367
271.453	19.418	849.133	659.350
272.468	19.284	848.553	658.331
273.482	19.670	847.935	659.265
274.497	19.750	847.371	659.074
275.512	19.433	846.275	656.957
276.526	18.962	845.145	654.229
277.541	19.033	844.716	654.110
278.555	19.398	844.302	655.119
279.570	19.115	843.846	653.630
280.585	19.071	842.899	652.673
281.599	19.200	842.001	652.407
282.614	19.432	841.962	653.197
283.628	18.971	840.694	650.414
284.643	18.634	839.948	648.507
285.657	19.032	839.783	649.826
286.672	18.773	839.477	648.554
287.687	18.552	838.098	646.596
288.701	18.650	838.254	647.028
289.716	19.131	837.795	648.430
290.730	18.824	836.583	646.282
291.745	18.788	835.696	645.402
292.760	18.476	834.947	643.595
293.774	18.451	834.505	643.105
294.789	19.301	834.669	646.364
295.803	19.909	834.448	648.411
296.818	20.026	833.843	648.322
297.833	20.080	833.404	648.127
298.847	19.726	832.517	646.055
299.862	19.509	831.476	644.380
300.876	19.619	831.198	644.519
301.891	19.971	831.041	645.651
302.906	19.800	830.467	644.514
303.920	19.339	828.801	641.449
304.935	19.423	828.039	641.113
305.949	19.825	827.634	642.235
306.964	19.920	827.504	642.433
307.979	19.692	826.616	640.841
308.993	19.499	826.884	640.274
310.008	19.866	826.426	641.223
311.022	20.145	825.490	641.472
312.037	19.907	825.105	640.236
313.052	19.770	824.495	639.199
314.066	19.643	823.754	638.101
315.081	19.117	822.292	634.971
316.095	18.562	821.194	632.025
317.110	18.890	821.582	633.477
318.125	19.733	821.623	636.557
319.139	19.557	820.370	634.883
320.154	18.369	818.966	629.375
321.168	18.027	818.102	627.400
322.183	18.428	818.746	629.312
323.197	19.218	818.857	632.244
324.212	19.537	818.700	633.235
325.227	19.700	818.124	633.330
326.241	19.824	817.519	633.261
327.256	19.805	816.952	632.697
328.270	19.814	815.898	631.856
329.285	19.727	815.135	630.892
330.300	19.687	814.243	630.001
331.314	19.397	813.991	628.693
332.329	19.399	813.445	628.225
333.343	19.794	812.907	629.191
334.358	19.898	812.722	629.367
335.373	19.859	811.588	628.292
336.387	20.061	811.370	628.803
337.402	20.181	810.913	628.828
338.416	20.406	810.350	629.151
339.431	20.213	809.907	628.052
340.446	20.225	809.214	627.502
341.460	20.223	809.102	627.352
342.475	20.282	808.355	626.929
343.489	20.146	807.196	625.486
344.504	20.065	807.096	625.062
345.519	20.300	806.522	625.408
346.533	20.405	806.641	625.824
347.548	20.463	806.133	625.583
348.562	20.567	805.588	625.481
349.577	20.684	804.966	625.363
350.592	20.557	804.619	624.581
351.606	20.554	804.022	624.050
352.621	20.549	803.651	623.690
353.635	20.528	802.810	622.907
354.650	20.539	802.115	622.351
355.665	19.997	801.610	619.966
356.679	19.252	799.889	615.918
357.694	19.066	799.337	614.774
358.708	19.717	799.150	616.898
359.723	19.543	798.668	615.853
360.738	19.953	798.279	616.961
361.752	20.241	798.530	618.125
362.767	20.276	798.235	617.966
363.781	20.587	797.769	618.659
364.796	20.759	797.177	618.754
365.810	20.826	796.996	618.797
366.825	20.904	796.740	618.820
367.840	20.900	796.107	618.261
368.854	20.779	795.651	617.422
369.869	20.281	795.211	615.263
370.883	20.154	794.585	614.272
371.898	20.436	793.666	614.507
372.913	20.251	793.039	613.313
373.927	20.199	792.354	612.545
374.942	20.389	791.799	612.731
375.956	20.601	791.437	613.146
376.971	20.648	791.009	612.924
377.986	20.698	790.507	612.658
379.000	20.783	790.101	612.587
380.015	20.895	789.671	612.594
381.029	20.656	788.781	611.008
382.044	20.619	788.405	610.536
383.059	20.731	787.925	610.503
384.073	20.599	787.666	609.785
385.088	20.888	786.805	610.077
386.102	21.054	786.256	610.177
387.117	20.793	785.777	608.839
388.132	20.793	785.270	608.392
389.146	20.712	784.697	607.613
390.161	20.193	783.931	605.155
391.175	20.096	783.485	604.417
392.190	20.506	783.583	605.870
393.205	20.525	782.888	605.345
394.219	19.840	781.006	601.454
395.234	18.335	779.236	594.815
396.248	17.695	778.114	591.686
397.263	18.748	779.358	596.236
398.278	20.490	779.996	602.719
399.292	20.816	780.000	603.801
400.307	20.534	779.486	602.373
401.321	20.392	778.973	601.430
402.336	20.529	778.558	601.532
403.350	20.642	778.813	602.065
404.365	21.106	778.260	603.189
405.380	21.128	778.056	603.055
406.394	21.471	777.977	604.123
407.409	21.674	777.515	604.414
408.423	21.564	776.491	603.183
409.438	21.384	775.853	602.014
410.453	21.471	775.519	602.003
411.467	21.505	775.350	601.934
412.482	21.510	774.806	601.476
413.496	21.433	774.561	600.969
414.511	21.444	774.302	600.753
415.526	21.715	773.613	601.093
416.540	21.471	773.530	600.138
417.555	21.562	773.100	600.066
418.569	21.299	772.023	598.276
419.584	21.184	771.518	597.439
420.599	21.241	770.901	597.102
421.613	157.185	1360.399	1794.444
422.628	135.535	1446.299	1794.545
