DTS Sentinel unit serial number:	SN413079Multiplexer serial number:	ORYXHardware model number:	OX4-SRSoftware version number:	ORYX F/W v4.00 Oryx Data Collector v3.7.2.0data status	okinstallation	princeton_trtdifferential loss correction	single-endedforward channel	channel 3reverse channel	N/Adate	2019/09/11time	04:38:11forward acquisition time	60.00reverse acquisition time	0.00gamma	496.2192k internal	0.2330k external	0.2330temperature offset calibration	0.9906default loss term (dB/km)	0.3790temperature slope calibration	1.0000multiplexer offset coefficient	1.0000multiplexer slope coefficient	1.0000fibre end	0.00T internal ref (°C)	29.53T ext. ref 1 (°C)	-0.29T ext. ref 2 (°C)	23.26length (m)	temperature (°C)	Stokes	anti-Stokes-747.200	-82.749	0.084	-0.027
-746.185	110.271	0.093	-0.112
-745.171	800.000	0.107	0.453
-744.156	-43.514	-0.271	0.138
-743.142	-156.128	0.268	0.017
-742.127	-187.263	0.172	0.002
-741.112	50.792	0.212	0.202
-740.098	-125.590	-0.341	0.052
-739.083	-200.000	-0.017	-0.262
-738.069	779.558	0.087	0.239
-737.054	-200.000	0.003	0.174
-736.039	-4.364	-0.114	0.079
-735.025	-155.683	0.372	0.024
-734.010	-112.963	-0.175	0.035
-732.996	-159.136	-0.591	-0.034
-731.981	14.263	-0.302	-0.237
-730.966	-53.221	-0.140	-0.065
-729.952	-131.758	0.119	0.016
-728.937	192.859	-0.132	0.200
-727.923	78.617	-0.128	0.138
-726.908	43.591	-0.091	-0.084
-725.894	63.744	0.052	-0.052
-724.879	-48.793	-0.180	-0.087
-723.864	-169.823	-0.320	-0.012
-722.850	-200.000	0.059	-0.328
-721.835	800.000	0.067	-0.207
-720.821	-60.997	0.135	0.058
-719.806	800.000	-0.101	-0.347
-718.791	-200.000	-0.026	-0.122
-717.777	-51.516	0.108	-0.051
-716.762	-200.000	0.019	-0.181
-715.748	44.738	0.044	-0.041
-714.733	-77.729	0.267	-0.093
-713.718	-200.000	0.007	-0.063
-712.704	-43.640	0.293	-0.148
-711.689	-109.958	0.346	0.073
-710.675	32.917	-0.324	-0.282
-709.660	-106.898	0.084	0.019
-708.645	-200.000	0.026	-0.271
-707.631	-200.000	0.026	0.153
-706.616	-200.000	0.059	0.353
-705.602	-200.000	0.020	0.100
-704.587	112.649	0.054	-0.066
-703.572	327.097	0.145	-0.280
-702.558	-91.826	0.024	0.007
-701.543	800.000	0.041	-0.139
-700.529	-101.701	-0.368	-0.090
-699.514	800.000	0.199	-0.583
-698.499	-200.000	-0.047	-0.208
-697.485	-200.000	0.023	-0.432
-696.470	61.010	-0.229	-0.229
-695.456	-159.795	0.289	0.016
-694.441	-35.668	-0.132	-0.072
-693.426	129.691	-0.316	0.406
-692.412	-145.765	-0.351	0.031
-691.397	360.380	0.133	-0.268
-690.383	155.975	0.033	-0.045
-689.368	800.000	-0.010	0.043
-688.354	-200.000	0.026	-0.162
-687.339	-61.172	0.190	0.080
-686.324	-91.408	-0.112	-0.032
-685.310	82.875	0.181	0.198
-684.295	-200.000	-0.005	0.211
-683.281	112.918	-0.150	0.182
-682.266	375.527	-0.182	-0.372
-681.251	428.617	-0.054	-0.118
-680.237	-157.471	-0.114	-0.007
-679.222	-51.245	0.379	-0.178
-678.208	697.725	-0.055	-0.144
-677.193	-84.748	0.116	0.037
-676.178	-121.692	0.128	0.021
-675.164	418.175	0.098	-0.210
-674.149	-117.743	-0.257	-0.046
-673.135	-112.760	0.117	0.023
-672.120	-124.318	-0.384	-0.060
-671.105	-122.572	-0.117	-0.019
-670.091	-36.530	-0.217	0.117
-669.076	-49.678	-0.154	0.074
-668.062	-200.000	-0.013	-0.111
-667.047	-114.845	-0.271	-0.052
-666.032	-132.689	-0.269	-0.035
-665.018	-200.000	-0.076	0.341
-664.003	48.497	0.170	0.160
-662.989	237.254	0.170	0.284
-661.974	-143.303	0.174	-0.017
-660.959	52.255	-0.070	-0.067
-659.945	50.390	0.056	-0.053
-658.930	-200.000	-0.015	0.247
-657.916	75.510	0.082	-0.086
-656.901	-74.667	-0.307	-0.111
-655.886	-66.978	0.260	-0.103
-654.872	2.669	-0.040	0.029
-653.857	273.358	-0.233	-0.414
-652.843	123.196	0.007	-0.008
-651.828	-22.355	0.250	-0.152
-650.814	6.988	-0.298	0.223
-649.799	-58.648	-0.402	0.175
-648.784	397.449	0.134	-0.280
-647.770	-75.250	-0.288	0.103
-646.755	-61.840	-0.065	0.027
-645.741	-107.810	-0.343	0.075
-644.726	-66.472	0.234	0.093
-643.711	800.000	-0.041	0.140
-642.697	-200.000	0.005	-0.415
-641.682	-68.261	0.345	0.134
-640.668	-118.022	-0.193	0.035
-639.653	-200.000	-0.066	-0.442
-638.638	-82.408	0.150	-0.049
-637.624	-200.000	0.006	0.145
-636.609	-200.000	0.028	-0.166
-635.595	49.318	-0.143	-0.135
-634.580	-67.215	-0.256	-0.101
-633.565	409.460	0.125	-0.266
-632.551	800.000	0.153	0.607
-631.536	-88.061	-0.120	-0.036
-630.522	-59.269	0.266	0.115
-629.507	362.555	0.145	0.292
-628.492	613.017	0.090	0.226
-627.478	58.574	-0.158	-0.155
-626.463	800.000	-0.081	-0.262
-625.449	330.501	0.039	0.075
-624.434	-200.000	-0.010	0.268
-623.419	-117.104	0.522	-0.095
-622.405	11.496	-0.193	0.148
-621.390	33.811	0.183	-0.160
-620.376	800.000	-0.032	0.129
-619.361	142.329	-0.120	-0.160
-618.346	-76.416	-0.257	0.091
-617.332	22.428	-0.045	0.037
-616.317	100.383	-0.132	0.153
-615.303	-200.000	-0.017	0.355
-614.288	230.004	-0.070	-0.114
-613.273	-34.299	0.127	-0.070
-612.259	6.481	0.111	-0.083
-611.244	13.091	0.514	0.399
-610.230	-76.024	-0.217	-0.077
-609.215	-87.378	0.121	-0.037
-608.201	14.836	-0.126	-0.099
-607.186	10.466	-0.245	0.187
-606.171	800.000	0.062	0.188
-605.157	-1.906	-0.267	-0.188
-604.142	-118.254	-0.145	0.026
-603.128	-45.885	0.055	-0.027
-602.113	-200.000	-0.027	-0.124
-601.098	665.983	-0.038	0.098
-600.084	111.176	-0.211	-0.254
-599.069	-200.000	-0.088	0.683
-598.055	17.787	0.192	0.153
-597.040	382.168	0.013	-0.026
-596.025	-45.655	0.227	0.112
-595.011	-200.000	0.009	0.262
-593.996	364.664	0.064	-0.130
-592.982	25.013	-0.039	-0.032
-591.967	237.081	0.154	0.256
-590.952	800.000	-0.081	0.292
-589.938	16.503	-0.260	-0.206
-588.923	-200.000	-0.029	-0.178
-587.909	-39.886	0.255	0.133
-586.894	-144.608	0.252	0.023
-585.879	309.197	-0.132	-0.247
-584.865	16.490	-0.209	0.165
-583.850	125.302	0.149	-0.189
-582.836	-200.000	-0.050	-0.237
-581.821	-85.398	0.140	-0.044
-580.806	-200.000	-0.009	0.145
-579.792	-58.009	0.353	0.154
-578.777	-200.000	-0.029	-0.473
-577.763	42.589	0.080	0.073
-576.748	160.406	0.071	-0.099
-575.733	155.101	-0.076	0.104
-574.719	-17.507	-0.080	-0.051
-573.704	661.902	0.019	-0.049
-572.690	-200.000	-0.026	0.225
-571.675	189.856	-0.038	0.057
-570.661	-38.575	0.172	-0.091
-569.646	331.460	-0.154	-0.298
-568.631	-200.000	0.024	-0.132
-567.617	-148.100	0.181	-0.015
-566.602	-200.000	-0.050	0.309
-565.588	-179.013	0.265	-0.006
-564.573	-200.000	-0.013	0.239
-563.558	138.180	-0.047	0.062
-562.544	-200.000	0.019	0.168
-561.529	-129.192	-0.210	0.029
-560.515	-15.012	0.216	-0.138
-559.500	-200.000	0.022	-0.534
-558.485	247.314	-0.165	-0.279
-557.471	-200.000	-0.080	0.363
-556.456	136.315	-0.076	-0.099
-555.442	-200.000	0.021	0.106
-554.427	-123.596	-0.415	-0.066
-553.412	-157.995	0.093	0.005
-552.398	-130.571	-0.163	0.022
-551.383	-26.073	0.013	0.008
-550.369	-200.000	0.054	0.251
-549.354	800.000	-0.076	-0.250
-548.339	-200.000	-0.048	0.280
-547.325	105.607	-0.082	0.097
-546.310	-200.000	-0.039	0.255
-545.296	-200.000	0.026	-0.272
-544.281	-18.996	-0.201	-0.125
-543.266	580.348	0.094	0.229
-542.252	-92.124	0.101	0.028
-541.237	471.270	-0.114	0.256
-540.223	-130.693	0.203	-0.027
-539.208	-124.537	0.280	0.043
-538.193	12.382	0.095	0.073
-537.179	-200.000	-0.052	0.426
-536.164	-186.688	0.444	-0.006
-535.150	-115.916	-0.201	0.037
-534.135	-124.315	-0.216	0.034
-533.121	-65.521	0.332	-0.133
-532.106	-34.996	-0.394	-0.215
-531.091	362.875	0.116	0.233
-530.077	-60.849	0.244	0.103
-529.062	-200.000	0.035	0.385
-528.048	800.000	-0.107	-0.407
-527.033	-50.551	0.194	0.091
-526.018	-49.024	0.157	0.075
-525.004	203.406	0.113	-0.175
-523.989	-195.499	0.057	0.000
-522.975	40.239	-0.098	0.088
-521.960	-49.749	0.099	-0.047
-520.945	-109.511	-0.316	0.067
-519.931	363.472	-0.038	-0.077
-518.916	-71.262	-0.142	-0.053
-517.902	43.542	0.187	-0.171
-516.887	-200.000	0.046	-0.398
-515.872	164.465	0.100	0.141
-514.858	-77.336	0.176	-0.061
-513.843	-200.000	-0.029	-0.320
-512.829	274.634	-0.126	-0.222
-511.814	-25.350	-0.236	0.140
-510.799	-54.665	-0.071	-0.032
-509.785	239.708	0.299	-0.497
-508.770	-115.144	0.039	0.007
-507.756	-20.758	-0.306	-0.187
-506.741	390.454	0.078	-0.161
-505.726	120.884	0.158	0.196
-504.712	-71.063	0.041	0.016
-503.697	-200.000	0.027	-0.119
-502.683	-38.212	0.285	-0.150
-501.668	571.368	-0.075	-0.181
-500.653	51.601	0.096	0.091
-499.639	22.001	-0.227	-0.184
-498.624	-200.000	0.009	0.369
-497.610	72.000	0.219	0.227
-496.595	-132.748	-0.299	-0.038
-495.581	-200.000	0.022	-0.351
-494.566	495.317	-0.158	-0.362
-493.551	185.780	0.085	0.126
-492.537	-115.375	-0.241	-0.045
-491.522	28.615	-0.054	0.045
-490.508	-66.157	-0.165	-0.066
-489.493	-200.000	0.004	-0.307
-488.478	-22.971	0.047	-0.028
-487.464	-100.523	-0.075	0.018
-486.449	56.310	-0.100	-0.097
-485.435	349.334	-0.113	-0.222
-484.420	-200.000	0.003	0.090
-483.405	4.482	-0.106	-0.077
-482.391	800.000	0.052	0.149
-481.376	-19.476	-0.203	-0.125
-480.362	-67.808	-0.127	0.050
-479.347	184.636	-0.142	-0.210
-478.332	-56.077	-0.046	0.020
-477.318	726.086	-0.062	-0.164
-476.303	49.222	-0.121	0.113
-475.289	213.685	0.063	0.099
-474.274	-200.000	-0.029	-0.359
-473.259	209.334	-0.149	0.232
-472.245	12.865	0.155	-0.119
-471.230	121.434	-0.221	-0.275
-470.216	-30.907	0.238	0.134
-469.201	46.390	-0.162	0.150
-468.186	-200.000	0.028	0.345
-467.172	500.332	0.042	-0.097
-466.157	-116.776	-0.095	0.017
-465.143	239.446	-0.065	0.107
-464.128	208.150	-0.050	-0.078
-463.113	305.470	-0.114	0.211
-462.099	449.074	0.129	0.282
-461.084	787.304	0.080	-0.217
-460.070	51.619	-0.141	0.133
-459.055	-200.000	-0.036	0.298
-458.040	-177.866	-0.372	0.009
-457.026	-54.070	0.180	-0.081
-456.011	800.000	0.010	0.043
-454.997	673.743	0.137	0.354
-453.982	696.439	0.143	0.374
-452.968	-15.685	-0.239	0.151
-451.953	191.248	-0.120	-0.179
-450.938	50.906	-0.144	-0.136
-449.924	-31.035	0.038	-0.022
-448.909	154.159	0.039	-0.053
-447.895	800.000	-0.057	0.187
-446.880	307.328	0.174	0.322
-445.865	-131.134	-0.179	-0.024
-444.851	-200.000	-0.026	-0.175
-443.836	-184.210	0.170	0.003
-442.822	-200.000	0.014	0.332
-441.807	304.699	-0.091	0.169
-440.792	204.243	0.152	-0.235
-439.778	800.000	0.019	0.077
-438.763	-34.896	0.071	0.038
-437.749	462.699	0.064	-0.142
-436.734	-64.747	-0.173	-0.070
-435.719	98.247	-0.128	0.146
-434.705	39.286	0.160	-0.143
-433.690	800.000	0.028	-0.086
-432.676	-167.850	0.391	-0.015
-431.661	-200.000	-0.034	0.235
-430.646	-200.000	-0.019	0.238
-429.632	-32.607	-0.419	-0.232
-428.617	-111.074	-0.379	-0.077
-427.603	11.599	0.251	0.191
-426.588	-131.369	-0.193	0.025
-425.573	-62.100	0.214	-0.089
-424.559	800.000	0.061	-0.200
-423.544	-25.232	0.160	0.094
-422.530	-54.708	-0.330	-0.148
-421.515	-133.074	0.157	-0.020
-420.500	86.999	-0.068	-0.074
-419.486	800.000	-0.138	0.394
-418.471	-200.000	0.008	0.101
-417.457	-68.804	-0.236	0.091
-416.442	215.112	-0.179	-0.283
-415.428	-85.114	-0.311	-0.097
-414.413	23.811	-0.269	-0.220
-413.398	-90.925	-0.339	0.097
-412.384	47.099	-0.111	0.103
-411.369	20.833	0.187	-0.150
-410.355	-200.000	-0.027	-0.250
-409.340	800.000	-0.096	0.298
-408.325	192.511	0.096	0.143
-407.311	-200.000	0.038	0.242
-406.296	-98.790	-0.537	0.136
-405.282	79.815	-0.270	0.288
-404.267	682.545	-0.025	0.066
-403.252	359.945	0.159	0.316
-402.238	-99.803	0.455	-0.113
-401.223	1.101	-0.321	0.229
-400.209	48.177	-0.112	0.104
-399.194	648.724	0.097	-0.246
-398.179	258.917	0.051	-0.088
-397.165	63.024	-0.153	0.152
-396.150	99.140	-0.189	0.217
-395.136	83.690	0.229	0.248
-394.121	-127.231	-0.314	0.046
-393.106	800.000	0.053	0.157
-392.092	185.505	-0.289	-0.427
-391.077	-63.004	-0.261	0.107
-390.063	-200.000	-0.011	0.317
-389.048	-103.745	0.306	-0.071
-388.033	109.265	0.104	-0.124
-387.019	800.000	0.040	-0.131
-386.004	387.656	0.108	0.223
-384.990	305.582	0.179	-0.330
-383.975	502.019	0.053	-0.121
-382.960	154.519	0.222	0.303
-381.946	201.870	0.024	0.037
-380.931	-200.000	-0.012	-0.090
-379.917	323.453	0.089	0.169
-378.902	-71.796	-0.065	0.024
-377.888	-66.436	0.173	-0.068
-376.873	-63.324	-0.385	-0.157
-375.858	480.081	-0.054	0.122
-374.844	117.883	0.192	0.235
-373.829	60.924	-0.281	0.276
-372.815	-83.646	0.360	0.114
-371.800	-200.000	0.031	0.240
-370.785	-133.753	0.208	-0.026
-369.771	-200.000	-0.044	-0.192
-368.756	800.000	0.092	0.257
-367.742	23.517	0.215	-0.175
-366.727	68.216	0.278	-0.282
-365.712	800.000	-0.067	-0.220
-364.698	-105.642	-0.284	0.064
-363.683	-23.234	0.187	0.112
-362.669	-141.420	-0.144	0.015
-361.654	-159.875	-0.259	0.014
-360.639	279.221	0.116	-0.205
-359.625	-200.000	0.056	-0.247
-358.610	384.918	-0.014	-0.029
-357.596	800.000	0.017	0.054
-356.581	-8.926	0.237	0.157
-355.566	-126.355	0.095	-0.014
-354.552	-200.000	-0.004	-0.125
-353.537	-200.000	0.000	0.098
-352.523	-17.074	0.203	-0.127
-351.508	790.402	-0.152	-0.413
-350.493	-60.016	-0.166	0.070
-349.479	800.000	-0.104	0.317
-348.464	145.407	0.157	-0.209
-347.450	259.523	0.262	0.448
-346.435	-105.127	0.545	-0.124
-345.420	-126.200	-0.266	-0.039
-344.406	134.587	-0.024	0.030
-343.391	-200.000	-0.075	0.336
-342.377	800.000	0.077	0.307
-341.362	-63.843	0.221	-0.090
-340.348	-200.000	-0.017	0.274
-339.333	-200.000	-0.058	-0.308
-338.318	-84.783	-0.125	0.039
-337.304	-55.273	-0.069	0.031
-336.289	-82.166	-0.527	-0.170
-335.275	-155.208	-0.251	-0.016
-334.260	-69.565	-0.124	-0.047
-333.245	800.000	0.064	-0.204
-332.231	13.896	-0.075	-0.057
-331.216	-83.561	0.165	0.052
-330.202	655.117	0.110	-0.280
-329.187	-161.521	0.192	0.010
-328.172	140.133	-0.189	0.247
-327.158	-200.000	-0.021	0.145
-326.143	-12.145	-0.096	0.062
-325.129	-169.168	0.056	0.002
-324.114	-109.332	-0.200	-0.042
-323.099	84.982	0.062	-0.067
-322.085	-105.342	-0.351	-0.079
-321.070	9.155	0.268	0.201
-320.056	-186.255	-0.081	0.001
-319.041	-43.418	0.399	-0.199
-318.026	-36.312	-0.057	-0.030
-317.012	179.664	-0.103	-0.150
-315.997	-200.000	0.062	-0.369
-314.983	-200.000	0.036	0.184
-313.968	-74.415	0.054	-0.019
-312.953	282.121	0.065	-0.116
-311.939	214.005	-0.186	0.292
-310.924	150.244	0.128	0.172
-309.910	800.000	-0.077	-0.275
-308.895	-200.000	-0.028	-0.184
-307.880	451.601	0.070	-0.153
-306.866	422.506	-0.079	0.167
-305.851	578.285	0.016	0.038
-304.837	-28.523	-0.282	0.161
-303.822	-113.255	-0.348	-0.068
-302.807	800.000	0.077	-0.246
-301.793	-44.836	-0.287	0.142
-300.778	259.614	0.040	0.068
-299.764	-111.106	0.322	-0.065
-298.749	692.346	0.016	0.043
-297.735	67.369	0.105	-0.106
-296.720	330.040	0.150	0.286
-295.705	27.452	-0.185	0.154
-294.691	-2.667	-0.031	0.021
-293.676	152.658	0.114	-0.154
-292.662	800.000	0.132	0.375
-291.647	-137.823	-0.332	0.037
-290.632	-81.470	-0.283	0.092
-289.618	800.000	0.021	0.079
-288.603	-200.000	-0.006	0.051
-287.589	-32.859	0.273	0.150
-286.574	-140.111	0.443	0.046
-285.559	552.480	-0.095	-0.226
-284.545	-129.172	0.488	-0.067
-283.530	-103.827	-0.168	0.039
-282.516	-17.851	-0.373	-0.231
-281.501	-200.000	-0.033	0.142
-280.486	775.786	-0.028	0.076
-279.472	-170.012	0.302	0.011
-278.457	-60.151	0.295	-0.124
-277.443	108.586	-0.140	-0.166
-276.428	-21.494	-0.038	-0.023
-275.413	607.712	0.071	-0.176
-274.399	62.228	-0.088	-0.087
-273.384	-7.280	0.288	-0.193
-272.370	718.751	-0.089	0.233
-271.355	233.346	-0.174	0.282
-270.340	-54.773	0.282	-0.126
-269.326	-171.870	-0.221	-0.007
-268.311	-122.126	0.072	0.012
-267.297	598.019	0.101	0.247
-266.282	-109.180	-0.473	0.099
-265.267	-102.867	-0.126	0.029
-264.253	-80.023	0.140	-0.046
-263.238	112.009	0.056	-0.066
-262.224	-200.000	-0.089	0.508
-261.209	240.351	0.125	-0.205
-260.195	85.628	0.022	-0.024
-259.180	800.000	0.065	-0.213
-258.165	-111.038	-0.323	0.066
-257.151	-50.552	0.134	-0.063
-256.136	16.851	0.150	-0.117
-255.122	56.689	-0.024	-0.023
-254.107	162.023	-0.096	0.133
-253.092	-200.000	0.003	-0.185
-252.078	590.340	0.110	-0.269
-251.063	800.000	0.040	0.136
-250.049	-51.108	0.167	-0.077
-249.034	-70.745	0.255	-0.095
-248.019	-200.000	-0.015	0.085
-247.005	2.771	0.188	0.135
-245.990	-91.642	0.025	0.007
-244.976	800.000	0.175	-0.526
-243.961	-200.000	0.012	0.058
-242.946	-82.659	-0.119	-0.038
-241.932	800.000	-0.066	-0.191
-240.917	159.117	-0.211	0.290
-239.903	-40.584	0.387	0.198
-238.888	717.553	-0.132	-0.346
-237.873	568.214	-0.070	0.167
-236.859	106.454	0.207	0.242
-235.844	-200.000	-0.027	-0.389
-234.830	88.534	0.176	0.192
-233.815	440.732	-0.063	0.136
-232.800	-200.000	0.003	-0.143
-231.786	-108.566	0.178	-0.038
-230.771	330.667	0.050	-0.096
-229.757	5.670	0.406	-0.296
-228.742	91.435	0.171	-0.189
-227.727	-132.236	0.529	0.068
-226.713	-29.006	0.162	0.092
-225.698	-103.101	-0.155	-0.036
-224.684	154.372	-0.414	-0.561
-223.669	-200.000	-0.036	0.168
-222.655	398.606	-0.083	-0.171
-221.640	269.567	0.014	-0.024
-220.625	-54.666	0.150	-0.067
-219.611	800.000	0.061	0.189
-218.596	-123.944	0.125	-0.019
-217.582	-1.782	0.355	0.246
-216.567	-82.196	0.128	0.041
-215.552	-200.000	0.021	0.177
-214.538	-200.000	-0.028	-0.293
-213.523	259.980	0.137	0.233
-212.509	-165.298	-0.236	-0.010
-211.494	-86.811	-0.234	0.071
-210.479	-80.581	-0.279	-0.092
-209.465	-99.099	0.190	-0.047
-208.450	399.523	0.072	0.148
-207.436	208.054	-0.011	-0.018
-206.421	-63.532	-0.323	0.131
-205.406	-107.634	-0.140	0.030
-204.392	-200.000	0.000	-0.121
-203.377	-11.744	0.080	-0.052
-202.363	-14.152	0.239	-0.152
-201.348	-6.882	-0.137	0.092
-200.333	222.256	0.167	0.264
-199.319	501.903	-0.130	-0.296
-198.304	-41.298	0.114	0.058
-197.290	41.872	-0.277	0.247
-196.275	-114.620	0.390	0.074
-195.260	-4.299	0.204	-0.139
-194.246	-30.042	0.390	0.219
-193.231	262.652	-0.042	0.072
-192.217	577.492	0.217	-0.522
-191.202	578.593	-0.185	-0.447
-190.187	115.596	-0.122	0.147
-189.173	-97.731	0.104	-0.026
-188.158	33.070	0.036	-0.031
-187.144	-66.786	0.102	0.040
-186.129	108.237	0.172	0.203
-185.114	47.507	-0.131	-0.120
-184.100	-200.000	0.015	0.081
-183.085	-200.000	-0.005	-0.152
-182.071	-200.000	-0.014	0.143
-181.056	-117.716	0.446	-0.079
-180.042	-200.000	-0.044	-0.191
-179.027	100.633	0.126	-0.144
-178.012	103.353	0.210	-0.243
-176.998	41.994	0.103	0.092
-175.983	288.602	-0.153	-0.273
-174.969	212.277	0.134	-0.209
-173.954	-200.000	-0.070	-0.365
-172.939	800.000	-0.131	-0.458
-171.925	-34.823	-0.194	-0.104
-170.910	-91.484	0.154	-0.043
-169.896	-200.000	0.021	0.217
-168.881	-200.000	-0.015	0.074
-167.866	344.075	-0.125	-0.241
-166.852	98.259	-0.090	-0.102
-165.837	-117.541	0.099	0.018
-164.823	146.361	0.193	0.254
-163.808	-31.566	0.124	0.068
-162.793	-139.602	0.297	-0.031
-161.779	144.557	0.043	0.057
-160.764	47.112	-0.301	-0.276
-159.750	-200.000	-0.013	-0.093
-158.735	534.286	-0.069	0.161
-157.720	-200.000	0.010	0.194
-156.706	-105.324	-0.277	-0.062
-155.691	-154.258	-0.136	0.009
-154.677	-73.731	0.054	-0.019
-153.662	-200.000	0.008	0.153
-152.647	77.983	-0.071	0.075
-151.633	68.352	-0.332	-0.334
-150.618	-200.000	-0.016	-0.224
-149.604	-200.000	0.014	-0.215
-148.589	10.272	0.076	0.057
-147.574	-148.001	0.320	-0.026
-146.560	-132.265	-0.247	0.031
-145.545	158.807	0.132	0.181
-144.531	-200.000	0.052	-0.342
-143.516	281.952	-0.008	0.015
-142.502	-44.697	0.141	-0.069
-141.487	654.967	0.064	-0.162
-140.472	275.900	-0.043	-0.076
-139.458	392.813	0.120	-0.245
-138.443	-140.722	0.371	-0.038
-137.429	-58.962	-0.305	0.130
-136.414	-200.000	-0.099	0.566
-135.399	780.129	0.054	0.146
-134.385	-112.885	0.399	0.078
-133.370	-26.469	-0.151	0.087
-132.356	21.096	0.388	0.309
-131.341	-28.301	0.131	0.074
-130.326	-7.632	-0.207	-0.137
-129.312	-154.202	0.360	-0.024
-128.297	45.738	-0.306	-0.278
-127.283	27.775	0.113	-0.094
-126.268	205.937	0.148	-0.226
-125.253	-110.107	0.071	0.015
-124.239	800.000	0.192	-0.581
-123.224	-94.077	-0.352	0.095
-122.210	197.006	0.155	-0.233
-121.195	494.683	0.076	0.172
-120.180	-70.048	-0.083	0.031
-119.166	54.745	-0.056	0.053
-118.151	-200.000	0.035	-0.327
-117.137	81.963	0.117	-0.125
-116.122	210.057	-0.121	-0.186
-115.107	137.355	0.099	0.127
-114.093	-82.999	-0.253	-0.080
-113.078	210.904	-0.149	-0.229
-112.064	96.422	0.034	-0.038
-111.049	-200.000	0.005	0.125
-110.034	305.325	0.043	-0.079
-109.020	-33.630	0.129	0.070
-108.005	-200.000	0.035	-0.279
-106.991	94.095	0.110	0.122
-105.976	122.073	0.113	0.139
-104.962	40.494	-0.098	0.087
-103.947	25.817	0.262	-0.214
-102.932	-200.000	0.010	0.088
-101.918	-19.086	-0.179	0.109
-100.903	-56.322	-0.294	0.128
-99.889	-37.970	0.410	-0.214
-98.874	-66.931	-0.225	-0.087
-97.859	68.415	0.152	0.153
-96.845	255.131	0.102	0.172
-95.830	-200.000	-0.007	-0.214
-94.816	-88.959	-0.081	-0.024
-93.801	-200.000	-0.030	0.296
-92.786	208.031	0.179	0.274
-91.772	-86.873	0.119	-0.036
-90.757	431.280	0.054	0.115
-89.743	-121.338	-0.475	-0.078
-88.728	-29.763	0.370	-0.207
-87.713	-90.353	0.154	-0.044
-86.699	-16.538	0.166	0.103
-85.684	220.571	0.061	0.097
-84.670	21.821	-0.233	-0.186
-83.655	-131.998	-0.059	-0.008
-82.640	-151.826	0.266	0.019
-81.626	-121.317	-0.200	0.033
-80.611	-78.861	0.323	0.108
-79.597	73.357	-0.104	0.106
-78.582	-131.777	-0.372	-0.048
-77.567	577.399	0.126	-0.301
-76.553	-200.000	0.028	-0.177
-75.538	-94.492	0.350	-0.094
-74.524	188.160	-0.173	-0.253
-73.509	20.008	0.152	0.120
-72.494	130.465	-0.052	-0.065
-71.480	-200.000	0.033	0.273
-70.465	-7.628	-0.192	0.127
-69.451	321.264	0.140	0.262
-68.436	-114.870	-0.356	-0.066
-67.422	-151.286	-0.510	0.037
-66.407	41.129	0.045	0.040
-65.392	412.166	0.164	-0.341
-64.378	-67.290	0.196	-0.076
-63.363	-117.049	-0.133	0.024
-62.349	80.837	-0.173	-0.183
-61.334	19.667	-1.317	-1.039
-60.319	60.452	0.413	0.401
-59.305	-200.000	-0.056	-0.736
-58.290	139.939	0.893	1.154
-57.276	363.323	0.872	1.716
-56.261	-200.000	105.740	614.962
-55.246	506.364	1507.742	3425.307
-54.232	176.262	2700.928	3844.167
-53.217	110.676	2186.463	2576.767
-52.203	40.207	1704.624	1502.033
-51.188	32.675	1514.677	1283.557
-50.173	30.319	1487.735	1244.899
-49.159	51.556	1543.286	1437.089
-48.144	51.670	1560.396	1453.743
-47.130	32.980	1515.964	1286.524
-46.115	29.777	1501.182	1252.279
-45.100	29.695	1497.470	1248.582
-44.086	29.628	1495.439	1246.383
-43.071	29.492	1492.982	1243.375
-42.057	29.458	1492.223	1242.460
-41.042	29.558	1490.258	1241.449
-40.027	29.409	1489.437	1239.714
-39.013	29.541	1487.305	1238.778
-37.998	29.462	1486.160	1237.242
-36.984	29.449	1485.430	1236.497
-35.969	29.598	1483.525	1235.860
-34.954	29.573	1482.381	1234.694
-33.940	29.454	1481.060	1232.748
-32.925	29.562	1479.665	1232.262
-31.911	29.436	1478.472	1230.380
-30.896	29.613	1476.856	1230.165
-29.881	29.604	1475.994	1229.333
-28.867	29.682	1474.005	1228.150
-27.852	29.528	1473.514	1226.669
-26.838	29.551	1472.114	1225.609
-25.823	29.620	1469.762	1224.058
-24.809	29.504	1468.802	1222.443
-23.794	29.605	1467.074	1221.625
-22.779	29.597	1465.600	1220.294
-21.765	29.703	1464.536	1220.060
-20.750	29.665	1463.471	1218.872
-19.736	29.598	1462.604	1217.657
-18.721	29.590	1461.798	1216.888
-17.706	29.529	1460.501	1215.361
-16.692	29.468	1459.533	1214.105
-15.677	29.563	1458.166	1213.544
-14.663	29.422	1457.793	1212.258
-13.648	29.531	1455.901	1211.349
-12.633	29.515	1455.301	1210.700
-11.619	29.396	1455.115	1209.718
-10.604	29.503	1453.710	1209.202
-9.590	29.472	1452.935	1208.303
-8.575	29.484	1452.497	1207.974
-7.560	29.448	1451.073	1206.505
-6.546	29.535	1450.612	1206.639
-5.531	29.490	1449.575	1205.439
-4.517	29.395	1448.957	1204.253
-3.502	29.464	1447.288	1203.267
-2.487	29.455	1446.240	1202.292
-1.473	29.371	1446.452	1201.876
-0.458	29.466	1443.998	1200.404
0.556	26.985	1434.766	1189.562
1.571	24.111	1410.087	1150.461
2.586	20.784	1351.789	1082.157
3.600	19.248	1271.192	1008.566
4.615	18.232	1226.171	967.019
5.629	16.258	1171.990	913.532
6.644	8.159	1088.667	807.640
7.659	1.105	1048.116	743.001
8.673	-0.095	1042.053	732.791
9.688	-0.262	1038.858	729.666
10.702	-0.377	1037.115	727.817
11.717	-0.436	1035.657	726.448
12.731	2.832	1039.303	744.812
13.746	11.703	1051.359	796.777
14.761	18.599	1060.349	837.296
15.775	20.312	1062.391	847.205
16.790	20.695	1061.946	848.641
17.804	20.569	1060.939	847.146
18.819	20.395	1060.101	845.558
19.834	20.420	1059.667	845.255
20.848	20.604	1059.306	845.788
21.863	20.585	1058.705	845.142
22.877	20.548	1058.574	844.783
23.892	20.551	1057.828	844.127
24.907	20.471	1056.726	842.783
25.921	20.479	1056.464	842.542
26.936	20.533	1055.251	841.760
27.950	20.537	1054.337	840.974
28.965	20.558	1053.070	839.990
29.980	20.505	1051.045	838.046
30.994	20.369	1049.775	836.306
32.009	20.535	1049.001	836.411
33.023	20.536	1048.384	835.855
34.038	20.495	1046.958	834.443
35.053	20.483	1046.335	833.819
36.067	20.588	1045.917	833.913
37.082	20.654	1044.884	833.332
38.096	20.633	1044.540	832.885
39.111	20.813	1043.394	832.756
40.126	20.924	1042.670	832.636
41.140	20.895	1040.705	830.854
42.155	20.590	1039.690	828.518
43.169	20.243	1038.803	826.084
44.184	20.161	1037.702	824.747
45.199	20.335	1036.177	824.290
46.213	20.203	1035.040	822.686
47.228	20.091	1034.487	821.639
48.242	20.367	1033.860	822.379
49.257	20.465	1032.650	821.809
50.271	20.519	1032.199	821.632
51.286	20.578	1031.602	821.359
52.301	20.581	1030.736	820.611
53.315	20.596	1030.210	820.191
54.330	20.575	1029.189	819.209
55.344	20.574	1028.423	818.522
56.359	20.594	1027.217	817.583
57.374	20.570	1026.146	816.545
58.388	20.343	1025.961	815.261
59.403	20.365	1024.863	814.417
60.417	20.417	1023.831	813.768
61.432	20.192	1023.160	812.111
62.447	20.154	1022.669	811.470
63.461	20.382	1021.675	811.679
64.476	20.540	1020.963	811.776
65.490	20.392	1020.238	810.440
66.505	20.359	1019.296	809.466
67.520	20.397	1018.043	808.574
68.534	20.347	1018.005	808.241
69.549	20.221	1016.640	806.500
70.563	19.949	1015.335	804.129
71.578	19.910	1013.980	802.806
72.593	20.000	1013.939	803.116
73.607	19.907	1012.098	801.161
74.622	19.895	1010.898	800.084
75.636	20.063	1011.083	800.938
76.651	20.281	1009.703	800.778
77.666	20.080	1009.310	799.469
78.680	20.046	1008.449	798.557
79.695	20.100	1007.705	798.146
80.709	20.181	1007.076	797.952
81.724	20.256	1006.281	797.596
82.739	20.177	1005.029	796.170
83.753	20.289	1003.925	795.739
84.768	20.540	1003.844	796.753
85.782	20.672	1003.362	796.907
86.797	20.942	1002.463	797.357
87.812	20.947	1001.495	796.537
88.826	20.630	1000.578	794.291
89.841	20.816	999.717	794.385
90.855	20.869	998.912	793.919
91.870	20.815	998.369	793.170
92.884	20.786	997.388	792.189
93.899	20.730	996.237	790.948
94.914	20.616	994.944	789.336
95.928	20.651	994.856	789.355
96.943	20.608	993.965	788.385
97.957	20.517	992.646	786.858
98.972	20.211	991.929	784.835
99.987	20.120	990.245	783.022
101.001	20.286	989.443	783.066
102.016	20.587	988.972	783.981
103.030	20.619	988.095	783.362
104.045	20.548	986.941	782.059
105.060	20.484	985.595	780.634
106.074	20.013	984.903	777.901
107.089	20.187	983.770	777.718
108.103	20.599	984.013	779.690
109.118	20.639	983.003	779.000
110.133	20.378	981.328	776.438
111.147	20.450	980.354	775.918
112.162	20.289	978.986	774.051
113.176	20.008	977.968	771.926
114.191	20.169	977.324	772.063
115.206	20.167	976.604	771.418
116.220	19.916	975.241	769.156
117.235	19.821	974.391	768.000
118.249	19.959	974.191	768.384
119.264	19.940	972.842	767.168
120.279	19.986	971.776	766.463
121.293	19.960	970.718	765.446
122.308	20.032	970.627	765.626
123.322	20.027	969.649	764.763
124.337	20.157	967.686	763.719
125.352	20.037	967.049	762.624
126.366	19.501	965.582	759.042
127.381	19.264	964.022	756.707
128.395	19.769	963.970	758.815
129.410	20.374	963.063	760.688
130.424	20.469	962.360	760.480
131.439	20.632	961.040	760.084
132.454	20.542	960.041	758.831
133.468	20.346	959.849	757.757
134.483	20.264	958.845	756.538
135.497	20.450	957.807	756.465
136.512	20.721	957.391	757.250
137.527	20.850	956.313	756.891
138.541	20.758	955.485	755.769
139.556	20.708	955.129	755.202
140.570	20.705	954.021	754.248
141.585	20.720	953.104	753.519
142.600	20.634	952.459	752.571
143.614	20.744	951.250	752.024
144.629	20.686	950.622	751.210
145.643	21.092	950.226	752.584
146.658	21.001	948.722	750.934
147.673	20.766	947.869	749.183
148.687	20.669	946.512	747.624
149.702	20.578	945.505	746.372
150.716	20.446	944.897	745.262
151.731	20.696	943.205	744.932
152.746	20.579	942.804	744.047
153.760	20.811	942.125	744.437
154.775	20.825	941.281	743.763
155.789	20.937	940.483	743.547
156.804	20.829	940.007	742.642
157.819	20.808	938.661	741.424
158.833	20.850	937.806	740.862
159.848	21.043	936.855	740.865
160.862	21.106	935.989	740.383
161.877	20.858	935.552	738.921
162.892	20.923	934.493	738.292
163.906	20.914	933.631	737.507
164.921	20.881	932.824	736.667
165.935	20.910	931.766	735.890
166.950	20.885	930.820	734.969
167.964	20.876	929.684	733.970
168.979	20.769	928.926	732.858
169.994	20.913	927.305	732.119
171.008	20.641	926.620	730.370
172.023	20.795	926.429	730.803
173.037	21.019	925.273	730.765
174.052	20.729	923.959	728.450
175.067	20.563	923.234	727.120
176.081	20.588	922.199	726.344
177.096	20.677	921.418	726.033
178.110	20.658	920.570	725.223
179.125	20.621	919.340	724.036
180.140	20.375	918.091	721.967
181.154	20.314	917.767	721.393
182.169	20.327	917.670	721.309
183.183	20.638	916.863	721.899
184.198	20.902	916.522	722.665
185.213	20.810	915.801	721.648
186.227	20.735	914.828	720.509
187.242	20.830	914.583	720.645
188.256	20.862	913.835	720.123
189.271	20.791	913.094	719.183
190.286	20.997	912.231	719.292
191.300	20.799	911.377	717.736
192.315	20.380	909.816	714.719
193.329	19.666	908.512	710.698
194.344	19.331	907.196	708.226
195.359	19.876	907.855	710.918
196.373	20.752	907.660	714.298
197.388	20.852	907.674	714.658
198.402	20.754	906.859	713.550
199.417	20.732	906.136	712.828
200.432	20.822	905.652	712.754
201.446	20.543	905.233	711.220
202.461	20.260	904.437	709.375
203.475	20.480	903.461	709.445
204.490	19.862	902.052	705.755
205.504	18.788	900.028	699.736
206.519	19.380	900.048	702.102
207.534	20.326	900.576	706.304
208.548	20.340	899.959	705.813
209.563	20.884	899.470	707.578
210.577	20.667	898.977	706.245
211.592	20.576	897.833	704.915
212.607	20.814	897.926	705.890
213.621	20.961	897.456	706.056
214.636	20.983	896.652	705.448
215.650	21.049	895.896	705.058
216.665	21.044	895.598	704.743
217.680	20.949	895.038	703.854
218.694	21.081	894.866	704.190
219.709	20.671	893.535	701.426
220.723	20.298	892.740	699.239
221.738	20.563	892.222	699.838
222.753	20.766	891.430	699.970
223.767	20.665	891.255	699.367
224.782	20.665	890.561	698.758
225.796	20.863	889.989	699.043
226.811	21.068	889.312	699.273
227.826	20.639	887.337	695.940
228.840	19.837	886.440	691.968
229.855	19.724	885.989	691.105
230.869	20.100	885.565	692.214
231.884	19.867	883.824	689.863
232.899	19.920	883.773	689.974
233.913	20.658	884.049	693.070
234.928	20.738	883.680	693.037
235.942	20.816	882.611	692.446
236.957	20.735	882.630	692.079
237.972	20.515	881.397	690.176
238.986	20.207	881.063	688.631
240.001	20.517	880.010	688.977
241.015	20.415	879.255	687.921
242.030	20.650	878.493	688.196
243.045	20.730	878.314	688.309
244.059	20.662	877.872	687.634
245.074	20.977	877.389	688.438
246.088	20.935	876.342	687.391
247.103	20.602	875.140	685.076
248.117	20.468	875.071	684.435
249.132	20.953	875.234	686.408
250.147	21.325	874.764	687.442
251.161	21.435	873.968	687.189
252.176	21.545	873.643	687.306
253.190	21.541	872.849	686.602
254.205	21.677	872.246	686.601
255.220	21.757	872.261	686.866
256.234	21.745	871.554	686.203
257.249	21.716	870.152	684.926
258.263	21.465	870.040	683.795
259.278	21.613	869.169	683.625
260.293	21.511	869.121	683.129
261.307	21.549	868.770	682.944
262.322	21.575	867.659	682.111
263.336	21.509	866.917	681.210
264.351	20.993	865.527	678.050
265.366	19.917	863.397	672.145
266.380	19.382	862.758	669.515
267.395	20.355	863.090	673.487
268.409	21.207	863.418	676.990
269.424	21.154	862.588	676.073
270.439	21.367	861.969	676.351
271.453	21.220	861.901	675.670
272.468	21.519	860.432	675.614
273.482	21.587	860.175	675.617
274.497	21.733	859.808	675.829
275.512	21.460	858.968	674.059
276.526	21.063	857.462	671.290
277.541	21.171	857.539	671.705
278.555	21.470	857.152	672.495
279.570	21.189	856.480	670.825
280.585	21.217	855.352	669.990
281.599	21.307	854.757	669.810
282.614	21.359	854.739	669.938
283.628	20.801	853.658	666.896
284.643	20.684	852.427	665.426
285.657	21.056	852.688	666.994
286.672	20.902	851.943	665.764
287.687	20.443	850.091	662.505
288.701	20.672	851.005	664.036
289.716	21.152	850.508	665.420
290.730	20.887	849.603	663.642
291.745	20.739	848.679	662.300
292.760	20.480	848.036	660.754
293.774	20.364	847.494	659.832
294.789	21.331	848.005	663.847
295.803	22.068	847.796	666.422
296.818	21.961	847.264	665.537
297.833	22.107	846.854	665.712
298.847	21.684	846.171	663.514
299.862	21.406	845.014	661.496
300.876	21.537	844.653	661.649
301.891	21.900	844.169	662.583
302.906	22.085	843.623	662.794
303.920	21.467	842.178	659.274
304.935	21.325	841.613	658.239
305.949	21.735	841.394	659.551
306.964	21.889	840.660	659.498
307.979	21.694	840.207	658.351
308.993	21.614	839.752	657.634
310.008	21.941	839.411	658.538
311.022	22.102	839.269	658.970
312.037	22.056	838.355	658.021
313.052	21.886	837.321	656.516
314.066	21.707	836.905	655.462
315.081	20.902	835.791	651.524
316.095	20.315	834.590	648.336
317.110	20.749	834.976	650.202
318.125	21.571	834.892	653.146
319.139	21.268	833.851	651.147
320.154	20.210	831.916	645.641
321.168	19.755	831.052	643.219
322.183	20.389	831.183	645.625
323.197	21.189	831.687	648.931
324.212	21.441	831.469	649.641
325.227	21.574	830.889	649.623
326.241	21.774	830.632	650.109
327.256	21.729	829.858	649.277
328.270	21.571	829.374	648.256
329.285	21.610	828.548	647.698
330.300	21.338	827.582	645.879
331.314	20.979	827.508	644.437
332.329	21.235	826.594	644.614
333.343	21.660	826.249	645.858
334.358	21.763	825.955	645.949
335.373	21.934	824.952	645.737
336.387	22.023	824.283	645.485
337.402	22.015	824.336	645.439
338.416	22.406	823.728	646.340
339.431	22.292	823.304	645.534
340.446	22.197	822.778	644.715
341.460	22.420	822.410	645.187
342.475	22.318	821.901	644.357
343.489	22.239	820.617	643.003
344.504	22.025	820.671	642.208
345.519	22.292	820.406	642.919
346.533	22.648	819.988	643.834
347.548	22.633	819.463	643.309
348.562	22.719	818.782	643.034
349.577	22.719	818.422	642.692
350.592	22.684	818.062	642.227
351.606	22.429	817.756	641.001
352.621	22.619	816.943	640.998
353.635	22.435	816.389	639.836
354.650	22.429	815.817	639.309
355.665	22.136	814.599	637.236
356.679	21.089	813.001	632.140
357.694	20.938	812.757	631.345
358.708	21.680	812.581	633.839
359.723	21.579	812.205	633.125
360.738	21.833	811.642	633.549
361.752	22.153	811.855	634.816
362.767	22.380	811.422	635.239
363.781	22.543	811.607	635.916
364.796	22.618	811.075	635.714
365.810	22.882	810.570	636.212
366.825	22.948	810.367	636.234
367.840	23.040	809.591	635.901
368.854	22.834	808.982	634.625
369.869	22.477	808.356	632.795
370.883	22.288	807.746	631.582
371.898	22.416	806.783	631.234
372.913	22.300	806.450	630.502
373.927	22.215	805.790	629.626
374.942	22.335	805.509	629.781
375.956	22.544	805.039	630.105
376.971	22.625	804.099	629.601
377.986	22.703	803.935	629.695
379.000	22.915	803.294	629.895
380.015	22.862	802.809	629.271
381.029	22.931	801.932	628.773
382.044	22.670	801.783	627.670
383.059	22.790	801.030	627.454
384.073	22.860	800.740	627.418
385.088	22.855	800.193	626.918
386.102	22.933	799.695	626.749
387.117	22.700	799.095	625.396
388.132	22.581	798.351	624.336
389.146	22.452	797.927	623.493
390.161	21.964	796.632	620.699
391.175	21.963	796.604	620.621
392.190	22.391	796.328	621.864
393.205	22.471	795.871	621.734
394.219	21.674	794.223	617.584
395.234	20.110	791.909	610.224
396.248	19.392	790.986	606.936
397.263	20.396	792.034	611.221
398.278	22.134	793.256	618.230
399.292	22.699	792.939	619.915
400.307	22.206	792.444	617.743
401.321	22.208	792.093	617.420
402.336	22.339	791.727	617.541
403.350	22.627	791.706	618.481
404.365	23.054	791.459	619.731
405.380	23.186	791.310	620.020
406.394	23.417	791.284	620.755
407.409	23.556	790.725	620.745
408.423	23.512	790.250	620.166
409.438	23.542	789.461	619.595
410.453	23.362	789.266	618.761
411.467	23.549	789.130	619.250
412.482	23.513	788.017	618.196
413.496	23.683	787.283	618.158
414.511	23.681	787.103	617.954
415.526	23.541	787.009	617.341
416.540	23.455	786.545	616.622
417.555	23.491	786.151	616.385
418.569	23.219	785.079	614.546
419.584	23.287	784.710	614.436
420.599	23.353	784.003	614.057
421.613	157.021	1364.750	1797.851
422.628	135.756	1449.340	1797.958
