DTS Sentinel unit serial number:	SN413079Multiplexer serial number:	ORYXHardware model number:	OX4-SRSoftware version number:	ORYX F/W v4.00 Oryx Data Collector v3.7.2.0data status	okinstallation	princeton_trtdifferential loss correction	single-endedforward channel	channel 3reverse channel	N/Adate	2019/09/10time	16:54:11forward acquisition time	60.00reverse acquisition time	0.00gamma	496.2192k internal	0.2299k external	0.2299temperature offset calibration	0.9909default loss term (dB/km)	0.3790temperature slope calibration	1.0000multiplexer offset coefficient	1.0000multiplexer slope coefficient	1.0000fibre end	0.00T internal ref (°C)	37.62T ext. ref 1 (°C)	-0.31T ext. ref 2 (°C)	32.54length (m)	temperature (°C)	Stokes	anti-Stokes-747.200	103.999	0.230	0.276
-746.185	-200.000	-0.001	0.134
-745.171	-96.905	-0.272	0.073
-744.156	-200.000	-0.007	0.078
-743.142	183.779	-0.076	0.115
-742.127	27.106	-0.321	0.275
-741.112	309.538	0.139	-0.266
-740.098	-136.641	-0.094	-0.011
-739.083	-200.000	-0.007	0.430
-738.069	-152.594	-0.272	-0.020
-737.054	5.421	0.275	-0.207
-736.039	-179.584	-0.417	0.009
-735.025	-90.070	0.077	0.023
-734.010	247.790	-0.145	-0.250
-732.996	800.000	-0.118	-0.428
-731.981	-200.000	-0.062	0.333
-730.966	-33.835	0.236	0.133
-729.952	91.195	-0.119	-0.137
-728.937	139.589	-0.139	-0.186
-727.923	-200.000	-0.038	0.177
-726.908	-200.000	0.026	0.452
-725.894	-70.655	0.033	0.013
-724.879	800.000	-0.044	-0.171
-723.864	356.801	-0.119	-0.242
-722.850	-31.815	0.057	0.033
-721.835	-132.106	0.240	0.032
-720.821	-1.466	-0.290	-0.209
-719.806	-71.605	-0.355	-0.135
-718.791	121.142	-0.251	-0.319
-717.777	-200.000	-0.031	-0.298
-716.762	-87.795	-0.121	-0.037
-715.748	800.000	0.062	0.205
-714.733	-70.268	-0.154	0.059
-713.718	-169.966	-0.544	0.020
-712.704	-200.000	-0.063	0.300
-711.689	-88.952	0.121	-0.037
-710.675	459.931	-0.116	0.262
-709.660	108.754	0.039	0.047
-708.645	197.109	0.091	-0.141
-707.631	-40.714	0.236	0.125
-706.616	800.000	0.013	0.052
-705.602	-26.107	-0.145	0.087
-704.587	-200.000	-0.040	-0.390
-703.572	-50.905	-0.061	0.029
-702.558	302.797	-0.124	-0.233
-701.543	420.665	-0.074	-0.161
-700.529	-196.628	0.081	-0.001
-699.514	527.498	0.071	-0.171
-698.499	-97.172	0.107	0.029
-697.485	-106.163	-0.287	0.066
-696.470	-200.000	0.003	-0.212
-695.456	-60.331	-0.164	-0.071
-694.441	-15.395	0.218	0.142
-693.426	-102.798	-0.183	0.044
-692.412	-77.978	0.244	0.086
-691.397	800.000	0.091	-0.387
-690.383	-122.729	0.134	-0.022
-689.368	120.789	0.062	-0.079
-688.354	-200.000	0.041	-0.244
-687.339	52.287	-0.297	0.289
-686.324	49.621	0.159	-0.152
-685.310	93.957	0.098	0.113
-684.295	-55.407	-0.204	0.093
-683.281	8.194	0.083	0.064
-682.266	-48.907	-0.060	0.029
-681.251	-44.697	-0.207	-0.105
-680.237	-72.195	-0.101	-0.038
-679.222	81.362	0.148	0.163
-678.208	74.814	0.215	0.231
-677.193	25.025	0.173	0.146
-676.178	800.000	-0.063	-0.182
-675.164	120.300	0.170	-0.214
-674.149	-12.204	0.265	0.176
-673.135	452.199	0.035	0.078
-672.120	478.031	-0.104	0.240
-671.105	-200.000	0.019	0.383
-670.091	-98.085	-0.266	-0.070
-669.076	48.545	-0.137	0.130
-668.062	190.241	0.041	-0.063
-667.047	800.000	-0.103	0.315
-666.032	-200.000	-0.035	-0.305
-665.018	98.211	0.085	-0.099
-664.003	-148.635	0.234	-0.019
-662.989	-12.472	0.218	-0.145
-661.974	-71.053	-0.058	-0.022
-660.959	-200.000	-0.015	-0.218
-659.945	-73.403	-0.142	0.053
-658.930	-200.000	0.009	-0.105
-657.916	-200.000	-0.016	0.139
-656.901	410.940	0.117	-0.253
-655.886	-32.721	-0.227	0.129
-654.872	-83.259	-0.273	0.089
-653.857	37.862	0.091	0.083
-652.843	-110.047	-0.126	-0.027
-651.828	543.439	-0.048	-0.116
-650.814	-8.177	-0.114	0.078
-649.799	203.164	-0.078	0.123
-648.784	-150.092	-0.095	-0.008
-647.770	2.817	-0.298	0.220
-646.755	153.885	-0.194	-0.271
-645.741	569.136	-0.266	-0.657
-644.726	-147.686	0.208	0.018
-643.711	12.450	0.263	0.206
-642.697	-200.000	-0.015	0.138
-641.682	-136.786	-0.123	-0.014
-640.668	800.000	0.029	0.089
-639.653	-81.729	-0.276	-0.092
-638.638	-200.000	-0.007	-0.111
-637.624	-96.301	0.297	-0.080
-636.609	-49.777	-0.317	-0.153
-635.595	-150.871	-0.221	0.017
-634.580	198.990	-0.111	-0.172
-633.565	71.746	0.040	-0.042
-632.551	-55.299	-0.210	0.096
-631.536	-20.045	0.223	-0.140
-630.522	230.080	0.134	-0.223
-629.507	85.310	-0.089	0.099
-628.492	-200.000	-0.187	-0.000
-627.478	-37.310	0.196	-0.106
-626.463	-200.000	0.054	0.391
-625.449	563.423	-0.041	-0.100
-624.434	235.232	-0.049	-0.083
-623.419	-200.000	-0.106	0.000
-622.405	230.552	0.030	0.050
-621.390	24.509	0.254	0.213
-620.376	40.923	0.349	0.320
-619.361	4.305	-0.161	0.120
-618.346	800.000	-0.047	0.168
-617.332	60.276	-0.311	-0.313
-616.317	800.000	0.079	0.253
-615.303	-155.006	0.192	0.013
-614.288	-200.000	-0.001	-0.309
-613.273	122.339	-0.151	-0.191
-612.259	-94.953	0.467	-0.128
-611.244	-125.183	0.083	-0.013
-610.230	-34.810	-0.141	-0.078
-609.215	-38.726	-0.270	0.144
-608.201	-200.000	0.013	-0.095
-607.186	408.617	0.057	0.123
-606.171	38.953	-0.086	0.078
-605.157	386.902	0.017	0.035
-604.142	-200.000	0.003	0.035
-603.128	-71.061	-0.117	-0.045
-602.113	600.053	-0.044	0.111
-601.098	39.813	0.281	-0.256
-600.084	-74.364	0.256	0.094
-599.069	-200.000	0.012	-0.286
-598.055	-161.029	-0.635	0.034
-597.040	-53.976	-0.109	0.050
-596.025	800.000	-0.093	-0.313
-595.011	3.026	-0.199	0.147
-593.996	120.130	-0.176	0.222
-592.982	-200.000	-0.026	-0.178
-591.967	11.829	-0.234	0.182
-590.952	-200.000	0.029	-0.269
-589.938	295.232	-0.056	-0.104
-588.923	-200.000	0.081	0.538
-587.909	462.425	0.081	0.184
-586.894	-7.280	-0.153	0.105
-585.879	800.000	-0.075	-0.219
-584.865	40.277	0.140	-0.128
-583.850	-70.199	0.177	-0.068
-582.836	800.000	0.050	0.177
-581.821	-200.000	0.019	0.180
-580.806	-67.354	0.301	0.120
-579.792	-130.908	-0.356	-0.048
-578.777	-200.000	0.009	-0.075
-577.763	202.236	-0.170	0.266
-576.748	-107.786	0.225	-0.050
-575.733	158.025	0.086	-0.121
-574.719	128.856	-0.301	-0.389
-573.704	188.685	-0.259	-0.392
-572.690	120.918	-0.128	-0.161
-571.675	-182.591	0.213	-0.004
-570.661	-200.000	-0.031	0.259
-569.646	680.123	-0.105	0.277
-568.631	349.424	0.178	-0.357
-567.617	-200.000	-0.024	-0.129
-566.602	626.958	-0.030	0.077
-565.588	353.640	-0.037	-0.074
-564.573	85.592	-0.225	0.251
-563.558	-200.000	0.004	-0.121
-562.544	-44.649	-0.076	0.039
-561.529	-112.355	-0.380	0.077
-560.515	294.535	-0.127	-0.234
-559.500	124.130	0.107	0.136
-558.485	-1.780	-0.048	0.034
-557.471	-157.067	0.304	0.019
-556.456	-67.189	-0.366	0.146
-555.442	2.333	0.236	-0.173
-554.427	-92.465	-0.307	-0.087
-553.412	-113.144	-0.202	0.040
-552.398	-200.000	-0.134	-0.610
-551.383	-45.497	-0.315	0.158
-550.369	230.311	-0.171	-0.284
-549.354	13.415	-0.306	-0.240
-548.339	800.000	0.016	0.061
-547.325	-104.594	-0.169	0.040
-546.310	72.848	-0.248	0.263
-545.296	-95.069	0.136	-0.037
-544.281	234.646	0.126	0.210
-543.266	770.033	-0.124	0.341
-542.252	321.725	-0.054	-0.105
-541.237	-44.496	0.270	0.137
-540.223	-148.074	0.200	0.017
-539.208	-146.120	-0.189	0.017
-538.193	65.826	-0.074	0.076
-537.179	-92.342	0.080	-0.023
-536.164	605.917	0.129	-0.326
-535.150	-151.557	0.205	0.015
-534.135	-144.206	-0.196	-0.019
-533.121	-200.000	-0.015	0.225
-532.106	336.704	-0.142	-0.278
-531.091	-200.000	-0.027	0.206
-530.077	143.069	-0.116	0.156
-529.062	-200.000	0.013	-0.083
-528.048	-200.000	0.025	-0.440
-527.033	-137.590	-0.331	0.038
-526.018	-89.032	-0.293	-0.088
-525.004	120.035	0.109	0.137
-523.989	800.000	0.093	-0.304
-522.975	-63.639	-0.153	0.064
-521.960	-200.000	0.019	-0.117
-520.945	-172.562	0.389	-0.012
-519.931	75.924	0.215	0.229
-518.916	46.961	0.230	-0.216
-517.902	-7.356	0.320	0.220
-516.887	-20.600	0.235	0.146
-515.872	659.522	-0.136	-0.354
-514.858	-38.909	-0.265	-0.141
-513.843	-190.618	0.456	0.005
-512.829	158.190	0.138	-0.194
-511.814	26.780	-0.276	0.234
-510.799	-62.477	0.261	0.110
-509.785	744.612	-0.056	-0.152
-508.770	-118.339	-0.224	-0.040
-507.756	-200.000	-0.074	0.388
-506.741	-76.961	-0.105	0.037
-505.726	-200.000	-0.038	0.463
-504.712	-80.463	0.337	0.114
-503.697	7.910	-0.199	0.151
-502.683	242.517	0.049	0.082
-501.668	98.504	0.262	-0.306
-500.653	-121.171	-0.160	-0.027
-499.639	-200.000	-0.004	-0.174
-498.624	-12.018	-0.065	-0.043
-497.610	6.931	-0.174	0.131
-496.595	-60.287	-0.170	-0.073
-495.581	800.000	0.105	-0.319
-494.566	-200.000	0.058	-0.310
-493.551	-33.776	-0.130	-0.073
-492.537	518.821	0.082	-0.193
-491.522	-32.032	-0.107	0.060
-490.508	800.000	-0.039	0.172
-489.493	-70.462	0.158	0.060
-488.478	-200.000	0.080	-0.394
-487.464	-40.251	-0.220	-0.115
-486.449	41.519	0.077	-0.070
-485.435	-200.000	0.023	-0.152
-484.420	74.747	-0.227	-0.241
-483.405	231.234	0.167	0.277
-482.391	-121.832	0.228	-0.038
-481.376	800.000	0.007	0.029
-480.362	-8.606	-0.301	0.204
-479.347	800.000	0.023	0.088
-478.332	-200.000	0.030	-0.208
-477.318	391.346	0.189	0.395
-476.303	800.000	0.090	0.253
-475.289	499.359	0.022	0.052
-474.274	-200.000	0.052	-0.354
-473.259	-139.649	-0.281	-0.030
-472.245	-57.118	0.020	-0.009
-471.230	56.212	0.213	-0.209
-470.216	420.107	-0.055	0.118
-469.201	303.609	-0.075	-0.140
-468.186	35.867	-0.151	-0.134
-467.172	-35.692	0.114	-0.063
-466.157	440.243	-0.189	0.418
-465.143	-1.955	0.115	0.081
-464.128	800.000	0.065	-0.230
-463.113	26.070	0.162	-0.136
-462.099	612.925	0.059	0.148
-461.084	-160.784	0.197	-0.011
-460.070	800.000	0.062	0.172
-459.055	343.152	-0.108	-0.213
-458.040	116.205	-0.169	0.208
-457.026	550.838	0.090	0.218
-456.011	800.000	-0.048	0.169
-454.997	-98.126	-0.100	0.026
-453.982	-200.000	-0.025	-0.371
-452.968	-2.444	-0.054	0.038
-451.953	46.717	-0.089	0.084
-450.938	-200.000	-0.007	-0.051
-449.924	23.537	-0.183	0.152
-448.909	16.409	0.075	-0.060
-447.895	800.000	-0.108	0.408
-446.880	185.864	-0.049	0.074
-445.865	-157.100	0.289	-0.018
-444.851	333.575	-0.121	0.236
-443.836	-55.091	0.141	-0.064
-442.822	-78.187	0.406	-0.141
-441.807	279.514	-0.092	-0.165
-440.792	123.536	0.138	0.175
-439.778	-200.000	-0.021	0.270
-438.763	-200.000	-0.005	0.192
-437.749	434.645	0.023	-0.050
-436.734	-5.986	0.352	-0.243
-435.719	-200.000	0.037	-0.190
-434.705	-136.051	0.222	0.026
-433.690	-42.538	0.132	0.068
-432.676	-200.000	0.047	-0.318
-431.661	-89.150	0.145	0.043
-430.646	82.721	-0.135	-0.147
-429.632	16.957	0.128	-0.102
-428.617	314.321	0.073	0.138
-427.603	-200.000	-0.016	-0.179
-426.588	3.120	0.299	0.219
-425.573	-131.693	-0.117	0.016
-424.559	59.293	-0.220	0.218
-423.544	-106.339	-0.195	0.044
-422.530	-27.377	0.029	0.017
-421.515	583.177	-0.050	0.122
-420.500	90.681	0.146	0.165
-419.486	45.461	-0.083	0.077
-418.471	-31.960	-0.059	0.033
-417.457	577.177	0.081	0.199
-416.442	800.000	-0.053	-0.161
-415.428	-188.665	0.234	-0.003
-414.413	172.507	-0.041	-0.059
-413.398	-59.898	-0.145	0.063
-412.384	163.391	0.035	-0.050
-411.369	-200.000	-0.005	-0.231
-410.355	119.951	-0.202	-0.252
-409.340	-146.079	0.208	-0.019
-408.325	-103.053	0.251	-0.060
-407.311	-28.071	0.314	-0.183
-406.296	-58.581	0.141	-0.062
-405.282	-105.253	-0.213	0.049
-404.267	-131.915	0.364	0.048
-403.252	800.000	-0.048	0.163
-402.238	44.953	-0.159	0.148
-401.223	-122.302	-0.109	-0.018
-400.209	-141.524	0.579	0.059
-399.194	115.169	0.174	0.213
-398.179	-200.000	0.056	0.328
-397.165	-121.861	0.222	0.037
-396.150	-78.924	0.124	-0.042
-395.136	-10.051	-0.132	-0.088
-394.121	1.914	-0.453	-0.329
-393.106	74.974	0.323	-0.342
-392.092	-3.383	-0.088	-0.061
-391.077	608.819	0.063	0.159
-390.063	-141.329	0.156	-0.016
-389.048	-200.000	-0.005	-0.196
-388.033	-52.448	-0.322	0.150
-387.019	-180.176	-0.241	0.005
-386.004	-76.382	0.109	-0.038
-384.990	-117.172	0.384	0.070
-383.975	-200.000	0.002	0.061
-382.960	132.039	-0.181	-0.235
-381.946	-59.203	0.186	-0.080
-380.931	-200.000	-0.001	0.036
-379.917	147.615	-0.136	0.184
-378.902	94.558	-0.130	0.148
-377.888	-132.020	-0.349	-0.046
-376.873	437.164	0.051	0.112
-375.858	414.936	-0.065	-0.138
-374.844	129.928	-0.020	0.026
-373.829	-200.000	-0.029	0.209
-372.815	93.125	-0.433	-0.492
-371.800	126.475	-0.162	0.206
-370.785	686.842	-0.125	-0.328
-369.771	680.145	0.066	0.172
-368.756	8.571	0.216	0.164
-367.742	70.493	-0.157	0.163
-366.727	-49.875	-0.351	-0.167
-365.712	-70.897	-0.117	0.044
-364.698	-93.341	0.191	-0.053
-363.683	-200.000	-0.009	-0.041
-362.669	-200.000	0.003	-0.084
-361.654	-121.169	0.151	-0.025
-360.639	-40.742	-0.175	-0.091
-359.625	-106.689	-0.243	-0.054
-358.610	246.644	0.062	0.105
-357.596	-149.599	-0.361	-0.029
-356.581	800.000	0.069	0.218
-355.566	-76.288	-0.173	0.061
-354.552	677.429	0.035	-0.093
-353.537	-200.000	-0.001	0.030
-352.523	-200.000	0.018	-0.275
-351.508	-18.598	-0.179	0.112
-350.493	82.084	0.103	-0.112
-349.479	612.865	0.027	0.068
-348.464	119.576	0.086	-0.107
-347.450	-200.000	0.005	0.348
-346.435	800.000	-0.070	0.282
-345.420	-200.000	0.016	0.187
-344.406	800.000	0.057	0.240
-343.391	254.151	0.079	0.136
-342.377	-93.651	-0.153	-0.043
-341.362	-200.000	-0.019	-0.252
-340.348	-79.512	-0.131	0.045
-339.333	-200.000	0.002	-0.143
-338.318	-37.340	0.389	-0.209
-337.304	-200.000	-0.030	-0.444
-336.289	800.000	-0.146	0.499
-335.275	332.560	0.083	0.162
-334.260	-50.410	-0.177	0.084
-333.245	800.000	-0.091	0.352
-332.231	-36.961	0.068	0.037
-331.216	-45.424	0.308	0.153
-330.202	41.210	0.196	0.178
-329.187	-150.250	-0.183	-0.014
-328.172	159.771	-0.136	-0.190
-327.158	0.159	-0.285	-0.204
-326.143	800.000	-0.156	-0.456
-325.129	24.102	-0.049	-0.041
-324.114	-200.000	-0.082	0.487
-323.099	143.924	0.142	0.190
-322.085	800.000	-0.019	-0.073
-321.070	-169.624	0.441	0.016
-320.056	-182.584	-0.134	-0.002
-319.041	800.000	0.021	-0.067
-318.026	665.899	-0.051	0.132
-317.012	677.237	0.059	0.154
-315.997	-73.312	0.172	-0.063
-314.983	128.041	0.072	0.092
-313.968	533.107	0.041	-0.097
-312.953	93.934	-0.127	-0.144
-311.939	31.887	0.079	-0.068
-310.924	-16.414	-0.120	-0.076
-309.910	186.784	0.243	0.364
-308.895	121.323	-0.107	0.133
-307.880	178.927	-0.109	0.160
-306.866	-200.000	0.058	0.329
-305.851	-200.000	0.009	0.047
-304.837	800.000	-0.108	-0.434
-303.822	596.278	-0.034	-0.084
-302.807	25.417	0.193	0.161
-301.793	275.605	0.071	-0.126
-300.778	78.704	-0.164	0.176
-299.764	-200.000	0.004	0.060
-298.749	140.774	0.147	0.194
-297.735	41.342	0.152	0.138
-296.720	497.020	0.055	0.127
-295.705	-71.556	0.216	-0.081
-294.691	-85.818	0.194	-0.060
-293.676	-93.126	0.182	-0.051
-292.662	12.597	0.080	0.062
-291.647	-130.646	0.110	0.015
-290.632	-143.574	0.077	0.007
-289.618	31.619	-0.118	0.102
-288.603	-76.021	0.238	0.084
-287.589	48.202	0.196	-0.183
-286.574	-200.000	-0.007	0.107
-285.559	800.000	0.060	-0.233
-284.545	-200.000	-0.040	0.206
-283.530	-200.000	0.016	0.173
-282.516	-156.078	0.162	0.010
-281.501	-5.919	-0.206	-0.141
-280.486	97.920	0.051	-0.058
-279.472	-8.021	0.080	-0.054
-278.457	-112.820	-0.047	0.009
-277.443	-113.992	-0.257	-0.050
-276.428	186.657	0.097	0.144
-275.413	800.000	0.026	-0.110
-274.399	187.625	0.133	0.198
-273.384	-200.000	0.044	-0.318
-272.370	79.961	0.093	-0.100
-271.355	-82.506	0.173	-0.056
-270.340	290.487	0.126	-0.229
-269.326	-68.260	-0.181	-0.070
-268.311	-200.000	-0.076	0.374
-267.297	4.277	-0.128	0.094
-266.282	-153.814	-0.431	0.030
-265.267	800.000	-0.072	0.232
-264.253	-200.000	0.037	-0.174
-263.238	512.793	-0.055	-0.128
-262.224	-200.000	-0.007	0.124
-261.209	800.000	-0.015	-0.054
-260.195	-99.429	-0.169	0.043
-259.180	-53.214	-0.329	-0.151
-258.165	26.274	0.140	0.117
-257.151	-34.084	0.142	-0.078
-256.136	168.670	0.219	0.313
-255.122	180.064	-0.076	0.111
-254.107	447.166	0.100	0.221
-253.092	800.000	0.037	-0.142
-252.078	15.386	-0.176	-0.139
-251.063	-121.594	0.044	-0.007
-250.049	-60.058	-0.148	-0.063
-249.034	-200.000	-0.058	0.273
-248.019	800.000	0.030	0.110
-247.005	-68.585	-0.159	-0.062
-245.990	299.772	0.042	-0.077
-244.976	217.126	0.114	-0.181
-243.961	101.103	0.175	-0.204
-242.946	142.813	0.107	0.142
-241.932	-77.340	-0.170	0.059
-240.917	-200.000	-0.016	-0.182
-239.903	-65.044	0.282	-0.114
-238.888	-107.736	0.277	-0.060
-237.873	-200.000	0.023	0.177
-236.859	-129.508	0.140	-0.019
-235.844	-21.959	-0.354	0.215
-234.830	25.241	-0.294	0.244
-233.815	-200.000	-0.001	-0.068
-232.800	-47.577	0.139	0.068
-231.786	103.615	0.214	-0.251
-230.771	800.000	-0.094	0.372
-229.757	75.268	-0.207	-0.218
-228.742	154.100	0.225	0.309
-227.727	-34.692	-0.157	-0.086
-226.713	-200.000	0.074	-0.397
-225.698	-46.600	0.379	0.186
-224.684	234.161	0.055	-0.091
-223.669	-200.000	-0.055	-0.370
-222.655	-200.000	0.040	-0.267
-221.640	167.274	0.105	-0.149
-220.625	253.599	0.179	-0.306
-219.611	44.791	0.259	-0.238
-218.596	2.901	-0.238	0.173
-217.582	-84.782	-0.085	0.027
-216.567	-63.726	0.039	0.016
-215.552	-58.394	0.061	-0.027
-214.538	68.574	0.129	-0.133
-213.523	-86.680	0.316	-0.097
-212.509	800.000	-0.022	-0.074
-211.494	-76.553	0.051	0.018
-210.479	-178.719	-0.152	0.003
-209.465	42.795	0.100	0.091
-208.450	-200.000	-0.013	0.170
-207.436	135.698	0.129	0.167
-206.421	151.996	0.033	0.045
-205.406	108.901	0.110	0.132
-204.392	83.553	-0.135	-0.147
-203.377	115.064	-0.201	-0.245
-202.363	219.930	0.125	-0.200
-201.348	405.675	-0.096	0.203
-200.333	51.597	-0.082	-0.078
-199.319	-124.442	0.246	0.038
-198.304	44.648	0.198	-0.182
-197.290	604.799	-0.059	-0.146
-196.275	155.690	0.275	0.379
-195.260	-53.332	0.139	0.064
-194.246	-129.902	0.161	-0.022
-193.231	-35.879	0.103	0.055
-192.217	475.095	0.087	-0.196
-191.202	-140.691	0.205	-0.021
-190.187	-151.012	0.173	-0.013
-189.173	-116.594	0.166	0.030
-188.158	117.068	-0.197	0.241
-187.144	-150.269	-0.510	-0.039
-186.129	-143.011	-0.195	-0.019
-185.114	-185.761	-0.434	-0.006
-184.100	-200.000	0.010	0.117
-183.085	-200.000	-0.029	-0.308
-182.071	484.768	0.061	-0.139
-181.056	488.224	0.110	-0.251
-180.042	-115.165	0.081	-0.015
-179.027	234.583	-0.178	0.292
-178.012	-96.343	0.132	-0.035
-176.998	-200.000	-0.050	-0.267
-175.983	800.000	-0.076	0.259
-174.969	-36.083	0.250	-0.135
-173.954	-200.000	0.031	-0.151
-172.939	292.682	-0.077	0.139
-171.925	800.000	0.092	0.362
-170.910	-57.419	0.322	0.141
-169.896	46.955	0.253	0.235
-168.881	-200.000	-0.011	-0.146
-167.866	-200.000	-0.153	-0.001
-166.852	375.397	0.118	0.241
-165.837	154.779	-0.059	0.081
-164.823	501.923	-0.090	0.206
-163.808	168.558	0.164	0.233
-162.793	-138.539	-0.272	0.030
-161.779	800.000	-0.071	-0.199
-160.764	140.145	-0.078	-0.103
-159.750	175.057	0.091	-0.131
-158.735	797.396	0.043	-0.119
-157.720	-200.000	-0.006	0.156
-156.706	-73.510	-0.128	-0.046
-155.691	-145.289	0.218	-0.020
-154.677	-200.000	-0.010	-0.050
-153.662	-12.913	-0.262	0.170
-152.647	-43.901	-0.194	-0.097
-151.633	630.366	0.062	-0.156
-150.618	-116.508	0.456	0.084
-149.604	-129.757	0.281	-0.039
-148.589	-200.000	0.004	0.161
-147.574	-115.991	-0.370	0.069
-146.560	-200.000	0.053	-0.340
-145.545	41.208	0.182	-0.164
-144.531	-66.443	-0.163	-0.065
-143.516	103.709	0.232	-0.271
-142.502	-69.448	0.175	0.067
-141.487	304.118	-0.048	-0.089
-140.472	225.354	0.108	0.174
-139.458	-141.082	0.210	0.021
-138.443	800.000	0.054	-0.224
-137.429	-200.000	0.033	0.250
-136.414	-200.000	-0.020	0.129
-135.399	-24.797	0.167	0.099
-134.385	-31.900	0.292	0.163
-133.370	-36.405	-0.137	-0.074
-132.356	653.050	0.044	0.112
-131.341	-200.000	0.040	0.227
-130.326	-78.136	0.255	0.087
-129.312	-115.393	-0.170	-0.032
-128.297	800.000	-0.037	0.143
-127.283	-3.674	-0.126	-0.087
-126.268	-200.000	0.025	0.140
-125.253	-19.578	0.029	0.018
-124.239	-200.000	0.013	0.208
-123.224	-66.563	0.298	0.118
-122.210	608.910	0.030	0.075
-121.195	180.420	0.070	-0.103
-120.180	512.506	-0.080	-0.186
-119.166	-65.081	0.298	-0.120
-118.151	394.448	-0.093	-0.194
-117.137	-108.417	-0.156	-0.033
-116.122	800.000	-0.061	-0.214
-115.107	21.938	0.036	0.030
-114.093	-28.180	0.050	0.029
-113.078	-200.000	-0.055	0.354
-112.064	238.599	-0.180	-0.298
-111.049	508.194	-0.111	-0.257
-110.034	50.354	0.155	-0.146
-109.020	397.630	-0.027	-0.057
-108.005	670.888	-0.070	0.180
-106.991	183.183	-0.085	0.125
-105.976	-102.074	-0.326	-0.078
-104.962	-69.883	-0.158	0.060
-103.947	151.457	0.137	0.185
-102.932	-70.276	-0.057	-0.022
-101.918	652.319	0.078	-0.199
-100.903	800.000	0.132	-0.377
-99.889	125.827	0.154	0.194
-98.874	-200.000	0.033	-0.310
-97.859	-63.483	-0.143	-0.059
-96.845	-60.828	0.145	-0.061
-95.830	800.000	0.060	-0.183
-94.816	-4.402	-0.224	-0.154
-93.801	-200.000	0.045	-0.261
-92.786	800.000	0.060	-0.208
-91.772	-6.753	-0.205	-0.139
-90.757	110.091	0.152	0.182
-89.743	800.000	0.050	-0.184
-88.728	114.297	-0.171	-0.207
-87.713	-39.468	0.349	-0.182
-86.699	800.000	0.058	0.185
-85.684	800.000	0.079	0.308
-84.670	-100.145	0.183	-0.045
-83.655	0.359	0.269	-0.191
-82.640	800.000	-0.070	-0.220
-81.626	-117.442	0.111	-0.020
-80.611	-96.841	0.231	0.060
-79.597	-177.763	0.051	0.001
-78.582	-126.322	-0.099	0.015
-77.567	-200.000	0.026	0.121
-76.553	389.968	0.231	0.477
-75.538	800.000	0.077	0.212
-74.524	335.425	0.046	-0.089
-73.509	403.483	-0.126	-0.264
-72.494	-69.177	-0.157	0.060
-71.480	800.000	0.041	0.134
-70.465	305.557	0.089	0.165
-69.451	-116.504	-0.217	-0.040
-68.436	-185.841	0.145	0.002
-67.422	-200.000	-0.003	-0.036
-66.407	-128.358	0.128	-0.018
-65.392	-141.138	0.084	-0.009
-64.378	-37.634	-0.402	0.213
-63.363	-71.628	0.230	0.085
-62.349	371.792	-0.077	0.155
-61.334	10.619	-0.871	-0.660
-60.319	-200.000	-0.022	0.227
-59.305	-200.000	-0.199	-1.124
-58.290	283.540	0.553	0.988
-57.276	721.349	0.556	1.470
-56.261	-200.000	85.747	507.076
-55.246	549.002	1378.124	3280.024
-54.232	180.106	2628.939	3828.384
-53.217	117.754	2274.469	2781.364
-52.203	47.452	1802.334	1668.427
-51.188	40.719	1608.272	1440.100
-50.173	38.176	1580.719	1397.214
-49.159	54.621	1624.223	1555.133
-48.144	58.619	1644.002	1602.984
-47.130	41.010	1604.032	1438.183
-46.115	37.892	1588.692	1401.996
-45.100	37.761	1585.166	1397.894
-44.086	37.734	1583.495	1396.165
-43.071	37.655	1581.276	1393.589
-42.057	37.602	1579.573	1391.657
-41.042	37.613	1577.995	1390.288
-40.027	37.640	1576.684	1389.269
-39.013	37.521	1574.956	1386.846
-37.998	37.424	1574.027	1385.281
-36.984	37.647	1572.308	1385.303
-35.969	37.653	1571.003	1384.139
-34.954	37.684	1569.587	1383.053
-33.940	37.600	1568.357	1381.323
-32.925	37.714	1566.369	1380.324
-31.911	37.701	1565.357	1379.282
-30.896	37.689	1563.931	1377.890
-29.881	37.757	1562.437	1376.997
-28.867	37.688	1561.470	1375.601
-27.852	37.658	1560.114	1374.145
-26.838	37.715	1558.189	1372.797
-25.823	37.652	1556.829	1371.100
-24.809	37.629	1554.837	1369.126
-23.794	37.713	1553.423	1368.418
-22.779	37.687	1551.991	1366.917
-21.765	37.741	1550.871	1366.261
-20.750	37.708	1550.081	1365.279
-19.736	37.593	1549.057	1363.517
-18.721	37.686	1547.528	1362.763
-17.706	37.643	1546.381	1361.399
-16.692	37.696	1545.121	1360.605
-15.677	37.655	1544.357	1359.594
-14.663	37.602	1543.431	1358.356
-13.648	37.546	1542.351	1356.961
-12.633	37.687	1540.699	1356.433
-11.619	37.478	1540.725	1354.948
-10.604	37.530	1539.751	1354.398
-9.590	37.563	1538.707	1353.660
-8.575	37.576	1537.953	1353.033
-7.560	37.586	1537.168	1352.355
-6.546	37.556	1535.811	1350.901
-5.531	37.526	1534.616	1349.585
-4.517	37.570	1533.814	1349.133
-3.502	37.448	1533.098	1347.607
-2.487	37.609	1531.385	1347.161
-1.473	37.524	1530.622	1345.847
-0.458	37.509	1529.445	1344.653
0.556	35.234	1519.455	1334.313
1.571	32.554	1492.002	1291.741
2.586	29.030	1425.827	1211.194
3.600	27.112	1339.969	1126.281
4.615	25.330	1292.340	1075.485
5.629	21.462	1233.733	1004.460
6.644	10.691	1140.559	871.030
7.659	1.303	1093.828	786.780
8.673	-0.089	1087.236	774.797
9.688	-0.262	1083.863	771.437
10.702	-0.432	1082.566	769.570
11.717	-0.437	1080.741	768.181
12.731	2.737	1084.426	787.038
13.746	12.125	1098.666	845.916
14.761	17.237	1104.486	876.763
15.775	15.679	1100.633	865.612
16.790	14.701	1098.615	858.917
17.804	14.316	1097.904	856.310
18.819	14.039	1096.719	853.883
19.834	14.134	1095.997	853.736
20.848	14.012	1095.037	852.289
21.863	13.881	1094.872	851.411
22.877	13.885	1093.891	850.594
23.892	13.897	1093.419	850.213
24.907	13.756	1093.042	849.120
25.921	13.794	1092.207	848.595
26.936	13.990	1090.962	848.549
27.950	13.876	1089.410	846.687
28.965	13.894	1088.643	846.107
29.980	13.849	1087.446	844.872
30.994	13.840	1085.109	842.938
32.009	13.900	1084.242	842.496
33.023	13.919	1083.633	842.045
34.038	13.892	1081.849	840.445
35.053	13.782	1081.309	839.397
36.067	13.923	1080.691	839.553
37.082	14.045	1079.416	839.108
38.096	14.068	1078.619	838.528
39.111	14.025	1077.974	837.735
40.126	14.057	1076.807	836.916
41.140	14.000	1075.490	835.530
42.155	13.879	1074.272	833.905
43.169	13.795	1073.370	832.706
44.184	13.871	1071.943	831.906
45.199	13.877	1070.431	830.693
46.213	13.888	1069.519	829.966
47.228	13.804	1068.682	828.822
48.242	13.848	1067.392	827.970
49.257	13.633	1066.511	826.138
50.271	13.634	1065.515	825.300
51.286	13.791	1064.197	824.988
52.301	13.870	1062.950	824.340
53.315	13.901	1062.178	823.820
54.330	13.823	1061.589	822.905
55.344	13.825	1060.454	821.962
56.359	13.787	1059.663	821.087
57.374	13.850	1058.306	820.275
58.388	13.879	1057.392	819.636
59.403	13.713	1056.548	818.093
60.417	13.907	1055.446	818.123
61.432	13.766	1055.130	817.111
62.447	13.660	1054.773	816.241
63.461	13.804	1053.984	816.268
64.476	13.758	1052.990	815.199
65.490	13.774	1051.458	814.018
66.505	13.736	1051.156	813.527
67.520	13.644	1050.143	812.220
68.534	13.804	1049.134	812.150
69.549	13.822	1047.973	811.267
70.563	13.670	1047.222	809.872
71.578	13.722	1046.460	809.467
72.593	13.861	1045.092	809.013
73.607	13.637	1044.652	807.508
74.622	13.731	1043.517	807.017
75.636	13.833	1042.797	806.885
76.651	13.818	1041.949	806.085
77.666	13.696	1041.167	804.817
78.680	13.643	1040.251	803.781
79.695	13.607	1039.611	803.039
80.709	13.795	1038.974	803.388
81.724	13.855	1037.922	802.793
82.739	13.731	1037.391	801.714
83.753	13.829	1036.190	801.184
84.768	13.847	1035.576	800.729
85.782	13.881	1034.248	799.792
86.797	13.907	1033.215	799.049
87.812	13.879	1032.524	798.307
88.826	13.806	1031.641	797.205
89.841	13.868	1030.575	796.609
90.855	13.960	1029.703	796.303
91.870	13.793	1029.330	795.146
92.884	13.804	1028.030	794.122
93.899	13.808	1027.279	793.492
94.914	13.848	1026.063	792.672
95.928	13.751	1025.600	791.783
96.943	13.858	1024.586	791.439
97.957	13.712	1023.853	790.108
98.972	13.639	1023.086	789.099
99.987	13.492	1021.818	787.354
101.001	13.519	1020.885	786.692
102.016	13.662	1020.077	786.678
103.030	13.745	1019.335	786.432
104.045	13.682	1017.880	784.943
105.060	13.605	1016.414	783.378
106.074	13.468	1015.705	782.112
107.089	13.552	1015.031	781.923
108.103	13.800	1014.296	782.455
109.118	13.770	1013.689	781.776
110.133	13.682	1012.684	780.520
111.147	13.769	1011.508	779.952
112.162	13.823	1010.413	779.295
113.176	13.646	1009.361	777.582
114.191	13.683	1008.417	776.958
115.206	13.801	1007.317	776.595
116.220	13.724	1006.124	775.248
117.235	13.658	1005.285	774.222
118.249	13.686	1004.788	773.902
119.264	13.715	1003.572	773.032
120.279	13.764	1002.660	772.492
121.293	13.619	1002.574	771.682
122.308	13.698	1001.071	770.825
123.322	13.736	1000.257	770.307
124.337	13.673	998.932	768.925
125.352	13.692	997.693	767.990
126.366	13.470	995.969	765.569
127.381	13.244	994.735	763.510
128.395	13.546	993.923	764.210
129.410	13.740	993.388	764.625
130.424	13.778	991.918	763.601
131.439	13.830	990.985	763.055
132.454	13.695	989.922	761.550
133.468	13.744	989.029	761.019
134.483	13.646	988.563	760.143
135.497	13.730	987.967	760.004
136.512	13.849	987.024	759.757
137.527	13.837	986.141	758.953
138.541	13.883	985.060	758.264
139.556	13.776	984.466	757.252
140.570	13.865	983.520	756.866
141.585	13.743	982.624	755.550
142.600	13.772	981.674	754.885
143.614	13.825	980.037	753.802
144.629	13.890	979.188	753.376
145.643	13.835	979.014	752.925
146.658	13.895	977.944	752.312
147.673	13.981	976.425	751.464
148.687	13.866	975.931	750.498
149.702	13.733	975.058	749.157
150.716	13.667	973.842	747.861
151.731	13.926	972.337	747.804
152.746	13.721	972.385	746.851
153.760	13.881	971.538	746.854
154.775	13.899	970.778	746.284
155.789	13.830	970.142	745.419
156.804	13.773	969.269	744.429
157.819	13.854	967.813	743.606
158.833	13.833	967.022	742.840
159.848	13.844	966.430	742.369
160.862	13.885	965.265	741.591
161.877	13.836	964.601	740.797
162.892	13.735	963.793	739.658
163.906	13.909	963.124	739.858
164.921	13.983	961.990	739.248
165.935	13.803	960.916	737.558
166.950	13.858	959.918	736.970
167.964	13.964	958.683	736.430
168.979	13.937	957.597	735.407
169.994	13.826	956.411	733.942
171.008	13.735	955.849	733.046
172.023	13.751	955.056	732.444
173.037	13.790	953.757	731.555
174.052	13.713	952.311	730.042
175.067	13.558	951.757	728.869
176.081	13.773	951.124	729.267
177.096	13.730	950.479	728.519
178.110	13.828	949.600	728.208
179.125	13.800	948.543	727.211
180.140	13.702	947.633	726.021
181.154	13.661	946.697	725.057
182.169	13.785	946.028	725.026
183.183	13.834	945.551	724.810
184.198	13.992	944.374	724.531
185.213	13.863	943.945	723.576
186.227	13.876	943.150	722.959
187.242	14.019	942.497	723.016
188.256	13.970	941.615	722.062
189.271	13.933	940.924	721.309
190.286	13.887	940.285	720.557
191.300	13.955	939.140	719.910
192.315	13.699	938.335	718.119
193.329	13.586	937.497	716.926
194.344	13.492	936.483	715.683
195.359	13.527	936.485	715.769
196.373	13.829	935.662	716.381
197.388	13.932	934.988	716.249
198.402	13.926	934.227	715.574
199.417	13.603	934.220	714.113
200.432	13.703	933.432	713.880
201.446	13.652	932.376	712.791
202.461	13.436	931.640	711.236
203.475	13.550	931.563	711.605
204.490	13.492	930.217	710.264
205.504	13.143	929.266	707.979
206.519	13.377	928.388	708.251
207.534	13.516	928.377	708.775
208.548	13.615	927.549	708.503
209.563	13.958	927.054	709.526
210.577	13.856	926.132	708.324
211.592	13.651	925.903	707.211
212.607	13.937	925.034	707.703
213.621	13.826	924.264	706.576
214.636	13.821	923.362	705.803
215.650	13.957	922.800	705.889
216.665	13.775	922.285	704.661
217.680	14.006	921.696	705.131
218.694	14.003	920.803	704.370
219.709	13.890	920.252	703.410
220.723	13.604	919.204	701.334
221.738	13.730	918.763	701.472
222.753	13.932	918.241	701.861
223.767	13.993	917.206	701.266
224.782	13.898	916.107	699.964
225.796	13.923	915.509	699.549
226.811	14.026	914.657	699.271
227.826	13.968	913.523	698.098
228.840	13.656	912.901	696.253
229.855	13.784	912.222	696.208
230.869	13.706	911.529	695.291
231.884	13.644	910.708	694.344
232.899	13.610	909.836	693.474
233.913	13.968	909.400	694.578
234.928	14.029	909.105	694.546
235.942	14.028	908.174	693.771
236.957	14.108	907.187	693.290
237.972	14.120	906.587	692.819
238.986	14.021	905.935	691.846
240.001	14.013	905.016	691.050
241.015	14.070	904.374	690.737
242.030	14.137	903.589	690.353
243.045	14.160	902.869	689.837
244.059	14.203	902.299	689.520
245.074	14.230	901.576	689.018
246.088	14.180	901.019	688.323
247.103	14.012	899.904	686.715
248.117	13.840	899.336	685.512
249.132	13.933	898.979	685.564
250.147	14.289	897.896	686.143
251.161	14.181	897.014	684.964
252.176	14.323	896.144	684.825
253.190	14.390	895.024	684.181
254.205	14.163	894.944	683.129
255.220	14.284	894.468	683.204
256.234	14.117	894.233	682.277
257.249	14.398	893.150	682.540
258.263	14.235	892.203	681.090
259.278	14.264	891.680	680.751
260.293	14.360	891.120	680.652
261.307	14.367	890.292	679.989
262.322	14.384	889.247	679.202
263.336	14.229	888.578	677.999
264.351	14.115	887.358	676.545
265.366	13.727	886.624	674.346
266.380	13.653	885.821	673.376
267.395	14.014	885.029	674.181
268.409	14.211	884.873	674.800
269.424	14.104	884.170	673.770
270.439	14.128	884.069	673.730
271.453	14.409	882.558	673.654
272.468	14.246	882.331	672.763
273.482	14.426	881.524	672.815
274.497	14.425	881.014	672.364
275.512	14.222	880.235	670.893
276.526	14.109	878.986	669.423
277.541	14.178	878.173	669.023
278.555	14.437	877.530	669.517
279.570	14.179	876.850	667.904
280.585	14.190	875.870	667.143
281.599	14.148	875.425	666.575
282.614	14.306	874.936	666.777
283.628	14.169	874.138	665.560
284.643	14.044	873.821	664.759
285.657	14.282	873.096	665.101
286.672	14.269	872.617	664.624
287.687	13.989	871.839	662.858
288.701	14.155	871.097	662.895
289.716	14.175	870.853	662.730
290.730	14.134	870.152	661.976
291.745	14.182	869.153	661.347
292.760	14.064	868.696	660.471
293.774	13.962	867.699	659.251
294.789	14.406	867.555	660.844
295.803	14.471	867.431	660.952
296.818	14.755	866.321	661.168
297.833	14.733	865.615	660.487
298.847	14.546	864.744	659.023
299.862	14.470	864.053	658.139
300.876	14.689	863.227	658.317
301.891	14.648	862.721	657.710
302.906	14.605	862.368	657.214
303.920	14.472	860.998	655.589
304.935	14.365	860.336	654.603
305.949	14.437	859.664	654.319
306.964	14.648	858.846	654.465
307.979	14.454	859.086	653.829
308.993	14.625	858.362	653.892
310.008	14.830	857.726	654.152
311.022	14.794	857.172	653.531
312.037	14.602	856.635	652.311
313.052	14.688	855.909	652.038
314.066	14.736	855.273	651.681
315.081	14.426	854.683	649.968
316.095	14.319	853.584	648.658
317.110	14.462	852.948	648.673
318.125	14.670	852.976	649.447
319.139	14.632	852.333	648.751
320.154	14.325	851.780	647.080
321.168	14.350	850.828	646.397
322.183	14.282	850.817	646.068
323.197	14.518	850.503	646.687
324.212	14.817	850.105	647.485
325.227	14.857	849.078	646.801
326.241	14.899	848.884	646.757
327.256	14.825	848.473	646.102
328.270	14.852	847.943	645.744
329.285	14.918	847.025	645.243
330.300	14.958	846.172	644.692
331.314	14.892	845.583	643.932
332.329	14.768	845.375	643.237
333.343	14.887	844.510	642.979
334.358	14.938	844.085	642.795
335.373	14.928	843.136	641.978
336.387	14.855	842.656	641.277
337.402	14.944	842.216	641.225
338.416	14.955	841.614	640.754
339.431	14.888	840.911	639.905
340.446	14.730	840.258	638.745
341.460	14.953	839.492	638.960
342.475	14.930	838.977	638.422
343.489	14.721	838.157	636.944
344.504	14.695	837.821	636.537
345.519	14.959	837.318	637.103
346.533	14.956	836.741	636.596
347.548	15.014	836.209	636.354
348.562	15.153	835.810	636.522
349.577	15.205	835.138	636.153
350.592	15.125	834.643	635.415
351.606	15.164	834.389	635.312
352.621	15.268	833.840	635.234
353.635	15.243	833.369	634.725
354.650	15.202	832.488	633.843
355.665	15.109	831.965	633.036
356.679	14.789	831.585	631.482
357.694	14.695	830.798	630.472
358.708	14.863	830.550	630.864
359.723	14.885	829.500	630.093
360.738	14.975	829.507	630.383
361.752	15.078	829.276	630.536
362.767	15.105	828.833	630.245
363.781	15.279	828.145	630.320
364.796	15.198	827.927	629.798
365.810	15.211	827.039	629.114
366.825	15.233	826.693	628.876
367.840	15.398	826.339	629.172
368.854	15.220	825.866	628.089
369.869	15.223	824.992	627.379
370.883	15.034	824.618	626.332
371.898	15.155	823.992	626.253
372.913	15.061	822.980	625.077
373.927	14.902	822.799	624.292
374.942	15.186	822.292	624.909
375.956	15.411	821.449	625.052
376.971	15.328	820.899	624.270
377.986	15.293	820.517	623.794
379.000	15.322	819.769	623.277
380.015	15.381	819.406	623.167
381.029	15.323	818.580	622.269
382.044	15.337	818.352	622.090
383.059	15.313	817.314	621.157
384.073	15.301	816.990	620.814
385.088	15.257	816.148	619.956
386.102	15.380	816.118	620.332
387.117	15.563	815.761	620.683
388.132	15.548	814.951	619.956
389.146	15.507	814.654	619.526
390.161	15.335	813.800	618.185
391.175	15.128	813.520	617.156
392.190	15.316	812.747	617.206
393.205	15.248	812.447	616.674
394.219	15.096	812.284	615.938
395.234	15.223	811.259	615.570
396.248	15.181	810.802	615.018
397.263	15.161	810.603	614.738
398.278	15.432	810.100	615.295
399.292	15.708	809.646	615.908
400.307	15.776	809.251	615.802
401.321	15.700	809.232	615.454
402.336	15.759	808.920	615.379
403.350	15.635	808.246	614.358
404.365	15.663	807.563	613.887
405.380	15.705	807.256	613.753
406.394	15.711	806.618	613.234
407.409	15.769	806.106	613.002
408.423	15.707	805.453	612.224
409.438	15.547	805.426	611.570
410.453	15.547	804.516	610.822
411.467	15.689	804.271	611.097
412.482	15.745	803.574	610.719
413.496	15.852	803.401	610.921
414.511	15.816	802.721	610.219
415.526	15.843	802.218	609.881
416.540	15.814	802.233	609.734
417.555	15.905	801.427	609.398
418.569	15.579	801.000	607.838
419.584	15.646	800.240	607.452
420.599	15.730	799.594	607.208
421.613	150.994	1356.195	1780.986
422.628	130.984	1437.299	1781.106
