DTS Sentinel unit serial number:	SN413079Multiplexer serial number:	ORYXHardware model number:	OX4-SRSoftware version number:	ORYX F/W v4.00 Oryx Data Collector v3.7.2.0data status	okinstallation	princeton_trtdifferential loss correction	single-endedforward channel	channel 3reverse channel	N/Adate	2019/09/11time	21:50:11forward acquisition time	60.00reverse acquisition time	0.00gamma	496.2192k internal	0.2311k external	0.2311temperature offset calibration	1.0039default loss term (dB/km)	0.3790temperature slope calibration	1.0000multiplexer offset coefficient	1.0000multiplexer slope coefficient	1.0000fibre end	0.00T internal ref (°C)	35.69T ext. ref 1 (°C)	1.67T ext. ref 2 (°C)	29.79length (m)	temperature (°C)	Stokes	anti-Stokes-747.200	-102.929	0.490	0.118
-746.185	-123.321	0.254	-0.041
-745.171	106.766	-0.202	-0.243
-744.156	800.000	0.059	0.244
-743.142	-124.298	0.228	0.036
-742.127	-200.000	-0.007	0.330
-741.112	99.659	0.090	0.106
-740.098	283.685	0.200	0.365
-739.083	800.000	-0.048	-0.202
-738.069	-121.860	-0.054	-0.009
-737.054	-42.085	0.210	0.109
-736.039	18.517	-0.180	-0.146
-735.025	-103.812	0.126	0.030
-734.010	119.397	-0.042	0.052
-732.996	800.000	-0.013	-0.039
-731.981	1.456	-0.036	0.026
-730.966	149.436	-0.142	-0.196
-729.952	29.262	-0.089	-0.076
-728.937	435.585	-0.122	-0.270
-727.923	405.975	-0.044	-0.094
-726.908	560.065	-0.063	-0.153
-725.894	-101.405	-0.299	0.074
-724.879	-90.663	-0.172	0.050
-723.864	174.315	-0.118	0.173
-722.850	-97.957	0.188	0.049
-721.835	543.356	-0.082	-0.199
-720.821	-6.218	-0.122	-0.084
-719.806	-133.779	-0.359	0.045
-718.791	9.895	-0.168	-0.129
-717.777	800.000	-0.039	0.115
-716.762	18.777	-0.192	-0.156
-715.748	-145.398	0.134	0.012
-714.733	-46.938	0.137	0.068
-713.718	-42.149	-0.187	-0.097
-712.704	756.371	0.059	-0.162
-711.689	800.000	-0.204	-0.587
-710.675	-116.201	-0.226	0.043
-709.660	-87.471	-0.247	-0.076
-708.645	-49.172	0.118	-0.057
-707.631	-75.917	-0.028	0.010
-706.616	-130.388	0.363	-0.050
-705.602	-200.000	-0.012	-0.143
-704.587	-59.262	0.213	0.093
-703.572	144.109	0.026	0.036
-702.558	46.352	0.193	0.182
-701.543	543.123	-0.146	-0.352
-700.529	800.000	0.067	0.240
-699.514	-8.273	0.081	0.055
-698.499	226.330	0.096	-0.158
-697.485	-73.347	-0.207	-0.077
-696.470	-120.270	0.141	-0.024
-695.456	176.644	0.073	-0.108
-694.441	111.157	0.038	-0.047
-693.426	75.047	0.224	0.239
-692.412	122.540	0.089	0.113
-691.397	-29.654	-0.221	-0.128
-690.383	-177.023	-0.127	-0.003
-689.368	800.000	0.072	-0.219
-688.354	-170.637	-0.257	-0.009
-687.339	-57.328	0.093	-0.041
-686.324	385.429	-0.085	-0.177
-685.310	-200.000	0.032	-0.162
-684.295	-66.644	-0.230	0.092
-683.281	115.342	0.121	0.149
-682.266	-70.863	-0.125	-0.048
-681.251	-200.000	-0.001	-0.050
-680.237	-200.000	0.015	-0.198
-679.222	-77.388	0.100	0.035
-678.208	800.000	-0.033	0.140
-677.193	-200.000	-0.033	-0.260
-676.178	800.000	-0.132	0.421
-675.164	24.823	-0.205	0.172
-674.149	-26.947	-0.238	-0.141
-673.135	-100.553	0.178	0.044
-672.120	-187.733	0.226	0.003
-671.105	310.342	0.055	-0.104
-670.091	800.000	0.068	-0.204
-669.076	-56.160	-0.266	-0.120
-668.062	-4.080	0.324	0.227
-667.047	800.000	-0.002	-0.010
-666.032	138.085	-0.011	-0.014
-665.018	-75.665	0.069	0.025
-664.003	-200.000	0.022	0.166
-662.989	695.901	-0.017	-0.046
-661.974	128.145	-0.090	-0.115
-660.959	36.559	-0.142	-0.127
-659.945	400.053	0.045	-0.095
-658.930	-101.045	0.135	-0.034
-657.916	-178.393	-0.130	-0.003
-656.901	171.886	0.192	-0.280
-655.886	-105.282	0.054	0.012
-654.872	483.524	0.219	-0.503
-653.857	457.529	0.155	-0.349
-652.843	-86.661	-0.266	-0.082
-651.828	-200.000	-0.005	-0.054
-650.814	-200.000	-0.042	0.333
-649.799	-200.000	0.014	0.082
-648.784	-88.844	0.104	0.031
-647.770	-167.463	-0.043	-0.002
-646.755	800.000	-0.050	-0.150
-645.741	-169.645	-0.120	-0.004
-644.726	-68.134	-0.148	0.058
-643.711	800.000	0.021	0.060
-642.697	89.501	-0.099	-0.112
-641.682	-133.933	-0.305	-0.038
-640.668	41.646	-0.109	-0.099
-639.653	-55.373	-0.204	0.093
-638.638	-142.322	-0.327	-0.033
-637.624	340.506	0.093	0.183
-636.609	-129.800	-0.411	-0.057
-635.595	-24.858	-0.120	-0.072
-634.580	-21.987	-0.151	-0.092
-633.565	663.672	-0.096	-0.250
-632.551	-200.000	0.020	-0.247
-631.536	406.017	-0.080	0.170
-630.522	-130.390	-0.138	0.019
-629.507	41.795	-0.114	0.105
-628.492	-200.000	0.015	-0.088
-627.478	-145.749	-0.205	-0.018
-626.463	800.000	-0.070	-0.218
-625.449	746.197	0.120	0.326
-624.434	-46.676	0.256	-0.127
-623.419	-200.000	0.047	-0.287
-622.405	175.658	-0.149	-0.219
-621.390	-114.760	0.407	0.078
-620.376	96.106	0.131	-0.151
-619.361	-54.118	-0.132	-0.061
-618.346	340.471	-0.099	0.194
-617.332	39.515	0.336	0.304
-616.317	426.751	0.038	-0.082
-615.303	62.038	-0.007	0.007
-614.288	194.250	-0.012	-0.018
-613.273	-47.907	0.162	0.079
-612.259	-58.348	-0.421	-0.185
-611.244	598.651	0.109	-0.273
-610.230	20.909	0.036	0.030
-609.215	9.537	-0.418	0.319
-608.201	-200.000	0.022	-0.432
-607.186	-200.000	0.004	-0.054
-606.171	236.679	-0.150	-0.250
-605.157	79.959	0.050	-0.054
-604.142	61.255	-0.343	0.344
-603.128	-101.799	-0.216	0.053
-602.113	-200.000	-0.029	0.246
-601.098	800.000	0.034	0.109
-600.084	28.430	0.218	-0.186
-599.069	-2.564	-0.308	0.217
-598.055	652.160	0.062	-0.162
-597.040	0.173	0.156	-0.112
-596.025	-9.909	-0.115	-0.077
-595.011	-101.698	0.126	0.031
-593.996	-45.199	-0.299	-0.150
-592.982	75.753	-0.179	-0.190
-591.967	-17.789	0.185	0.117
-590.952	451.033	0.172	0.383
-589.938	-94.294	0.176	-0.049
-588.923	-166.849	0.131	-0.005
-587.909	-64.077	0.020	-0.008
-586.894	661.821	0.057	-0.149
-585.879	-200.000	0.073	0.499
-584.865	-200.000	-0.011	-0.428
-583.850	93.763	0.099	0.113
-582.836	-148.139	0.102	0.008
-581.821	156.987	-0.104	-0.145
-580.806	68.396	-0.303	-0.314
-579.792	-35.172	-0.157	-0.086
-578.777	-42.313	-0.162	0.084
-577.763	-200.000	-0.023	-0.206
-576.748	81.128	-0.132	-0.143
-575.733	-4.869	0.205	-0.143
-574.719	-22.811	-0.212	-0.129
-573.704	-61.237	0.332	0.141
-572.690	664.349	-0.122	-0.317
-571.675	0.748	0.122	0.088
-570.661	-200.000	-0.003	0.235
-569.646	-0.662	0.263	-0.188
-568.631	-139.679	0.081	0.009
-567.617	-128.528	-0.430	0.062
-566.602	-99.583	-0.232	-0.059
-565.588	19.366	0.063	-0.051
-564.573	-1.816	-0.075	0.053
-563.558	0.378	-0.396	0.285
-562.544	6.927	0.158	0.119
-561.529	-101.696	0.125	0.031
-560.515	339.759	-0.096	0.189
-559.500	167.026	-0.072	0.103
-558.485	27.508	0.261	0.221
-557.471	-160.572	0.187	0.010
-556.456	166.123	-0.083	0.119
-555.442	800.000	-0.029	-0.088
-554.427	-22.524	-0.437	-0.266
-553.412	643.345	-0.094	-0.241
-552.398	-42.512	-0.274	0.141
-551.383	-200.000	0.026	-0.238
-550.369	-94.244	-0.035	-0.010
-549.354	-52.473	0.301	0.140
-548.339	-200.000	0.011	-0.258
-547.325	800.000	-0.035	0.115
-546.310	279.728	-0.083	-0.150
-545.296	-200.000	-0.005	-0.053
-544.281	-113.353	-0.226	-0.045
-543.266	412.792	-0.146	-0.313
-542.252	-200.000	0.013	-0.115
-541.237	132.713	-0.132	0.172
-540.223	-60.019	0.066	0.029
-539.208	-200.000	-0.019	-0.219
-538.193	131.202	0.118	-0.153
-537.179	234.769	0.216	-0.359
-536.164	-49.576	-0.447	-0.214
-535.150	103.758	-0.182	-0.215
-534.135	-18.604	-0.028	0.018
-533.121	228.748	0.106	-0.174
-532.106	129.822	-0.160	-0.206
-531.091	-45.611	0.144	0.072
-530.077	-200.000	0.011	0.216
-529.062	185.470	-0.058	0.087
-528.048	61.502	-0.111	-0.111
-527.033	151.055	0.083	0.114
-526.018	153.251	0.111	0.153
-525.004	97.745	-0.256	0.296
-523.989	-73.389	0.182	0.067
-522.975	-200.000	-0.018	0.174
-521.960	-138.362	-0.309	-0.034
-520.945	117.785	0.032	-0.040
-519.931	-200.000	0.051	0.290
-518.916	-41.776	0.089	0.046
-517.902	309.246	-0.143	0.269
-516.887	-200.000	-0.032	-0.234
-515.872	-70.183	0.191	0.073
-514.858	-28.103	0.180	0.105
-513.843	800.000	-0.025	0.084
-512.829	403.836	-0.129	0.272
-511.814	113.358	0.227	0.277
-510.799	110.375	0.232	0.280
-509.785	-31.326	-0.152	-0.086
-508.770	338.292	-0.004	0.007
-507.756	65.572	0.322	-0.328
-506.741	21.291	-0.310	-0.253
-505.726	566.942	0.064	-0.156
-504.712	10.955	0.278	0.214
-503.697	50.258	0.232	-0.220
-502.683	800.000	0.095	-0.275
-501.668	-200.000	-0.024	-0.204
-500.653	800.000	-0.071	0.216
-499.639	16.452	0.304	-0.241
-498.624	-157.284	0.053	0.003
-497.610	-123.317	-0.191	0.031
-496.595	349.745	0.104	-0.207
-495.581	243.540	0.152	-0.257
-494.566	89.998	0.111	-0.125
-493.551	336.692	-0.164	-0.320
-492.537	245.612	0.142	0.240
-491.522	37.120	-0.121	0.107
-490.508	155.374	-0.128	-0.177
-489.493	-91.497	-0.351	-0.101
-488.478	91.693	0.103	-0.116
-487.464	-54.757	-0.202	-0.092
-486.449	496.853	0.057	0.132
-485.435	-83.968	0.378	0.121
-484.420	-200.000	0.010	0.255
-483.405	48.474	-0.032	0.030
-482.391	-33.164	-0.184	0.102
-481.376	-200.000	-0.032	-0.157
-480.362	-85.478	-0.112	-0.035
-479.347	163.640	0.026	0.037
-478.332	-32.582	-0.192	0.107
-477.318	10.405	-0.381	0.291
-476.303	-200.000	0.011	-0.106
-475.289	-76.243	0.124	-0.044
-474.274	35.724	-0.134	-0.118
-473.259	-71.726	-0.142	-0.053
-472.245	-200.000	-0.010	0.095
-471.230	-153.275	0.213	-0.015
-470.216	-5.981	0.207	-0.142
-469.201	58.184	-0.253	-0.249
-468.186	0.077	-0.176	-0.126
-467.172	240.225	-0.070	-0.116
-466.157	800.000	0.041	-0.117
-465.143	467.179	-0.125	-0.281
-464.128	-79.437	-0.251	0.085
-463.113	-126.399	-0.316	0.047
-462.099	-57.814	0.305	0.134
-461.084	-150.763	-0.278	0.021
-460.070	-137.109	-0.237	-0.027
-459.055	-200.000	0.022	-0.136
-458.040	-200.000	-0.015	0.212
-457.026	5.538	0.119	0.088
-456.011	-136.182	0.398	-0.047
-454.997	-200.000	0.046	-0.341
-453.982	138.246	0.211	-0.277
-452.968	-39.534	-0.152	-0.080
-451.953	-200.000	0.001	-0.139
-450.938	-157.137	0.247	-0.015
-449.924	10.490	0.104	-0.080
-448.909	800.000	0.023	0.092
-447.895	-110.272	-0.137	-0.029
-446.880	2.155	-0.184	0.134
-445.865	-110.306	-0.343	-0.072
-444.851	-114.627	0.379	0.073
-443.836	350.164	-0.078	0.154
-442.822	800.000	0.017	0.051
-441.807	-160.027	0.154	0.008
-440.792	293.976	-0.141	-0.258
-439.778	423.067	0.089	0.191
-438.763	-28.665	0.306	-0.177
-437.749	-135.618	-0.101	-0.012
-436.734	-200.000	-0.048	-0.417
-435.719	36.251	-0.239	-0.212
-434.705	125.809	0.094	-0.119
-433.690	-200.000	0.050	0.709
-432.676	196.643	-0.217	0.332
-431.661	-200.000	0.016	-0.144
-430.646	-94.945	-0.266	0.072
-429.632	30.145	0.117	-0.100
-428.617	-200.000	-0.017	-0.129
-427.603	-23.572	0.385	-0.232
-426.588	-51.798	-0.256	0.119
-425.573	453.786	0.047	-0.105
-424.559	800.000	-0.070	0.240
-423.544	-200.000	-0.035	-0.200
-422.530	-200.000	-0.004	-0.268
-421.515	759.129	-0.057	-0.155
-420.500	-200.000	0.043	0.223
-419.486	-3.611	-0.154	-0.108
-418.471	-172.829	-0.386	0.012
-417.457	-183.047	-0.343	-0.006
-416.442	-28.088	-0.215	0.124
-415.428	-200.000	0.011	0.173
-414.413	-7.121	-0.241	-0.164
-413.398	-72.881	-0.203	0.075
-412.384	376.309	-0.164	0.334
-411.369	141.000	-0.144	0.191
-410.355	167.127	0.060	0.085
-409.340	321.384	0.149	-0.283
-408.325	523.132	0.066	0.155
-407.311	-17.388	0.147	0.093
-406.296	145.281	-0.124	-0.166
-405.282	391.147	-0.186	-0.386
-404.267	641.875	-0.096	0.245
-403.252	-200.000	0.054	-0.354
-402.238	-200.000	-0.000	-0.052
-401.223	-200.000	0.040	-0.382
-400.209	43.956	-0.192	0.176
-399.194	-200.000	0.063	-0.431
-398.179	-63.869	-0.106	-0.044
-397.165	-200.000	-0.007	0.071
-396.150	166.650	0.154	-0.219
-395.136	-105.112	0.311	0.071
-394.121	706.671	0.092	0.244
-393.106	345.307	0.046	0.091
-392.092	-200.000	-0.016	-0.327
-391.077	130.334	0.171	-0.220
-390.063	-42.763	0.318	0.162
-389.048	-141.522	-0.137	-0.014
-388.033	-200.000	0.032	-0.210
-387.019	243.004	0.095	0.160
-386.004	67.903	0.224	-0.229
-384.990	97.033	0.185	-0.212
-383.975	-200.000	-0.026	-0.262
-382.960	-35.199	-0.140	-0.076
-381.946	-89.559	-0.293	-0.086
-380.931	-11.852	-0.083	-0.054
-379.917	-12.268	-0.164	-0.107
-378.902	-127.018	0.250	0.037
-377.888	108.155	0.131	0.157
-376.873	87.866	-0.070	-0.077
-375.858	773.007	0.081	-0.221
-374.844	-134.807	-0.523	0.063
-373.829	-148.587	-0.242	0.020
-372.815	-200.000	0.007	-0.040
-371.800	313.918	0.023	0.042
-370.785	-127.459	-0.229	0.033
-369.771	-200.000	0.049	-0.262
-368.756	800.000	-0.141	0.395
-367.742	-200.000	0.010	0.113
-366.727	9.271	-0.264	-0.200
-365.712	800.000	-0.050	0.139
-364.698	-147.192	0.273	-0.023
-363.683	-102.260	-0.147	0.035
-362.669	-47.667	-0.162	-0.079
-361.654	-51.260	0.441	0.207
-360.639	459.843	0.141	0.313
-359.625	-56.735	-0.352	0.156
-358.610	644.208	-0.059	-0.149
-357.596	-200.000	-0.002	0.324
-356.581	-200.000	-0.009	0.084
-355.566	-200.000	-0.031	0.319
-354.552	-200.000	0.006	0.224
-353.537	800.000	-0.047	-0.176
-352.523	-200.000	-0.023	0.197
-351.508	800.000	-0.048	0.142
-350.493	52.324	0.141	0.135
-349.479	800.000	0.110	0.367
-348.464	87.614	-0.217	0.240
-347.450	-200.000	-0.045	-0.287
-346.435	-200.000	-0.035	-0.172
-345.420	800.000	0.028	-0.103
-344.406	646.316	0.150	-0.383
-343.391	-200.000	0.030	-0.150
-342.377	-109.880	-0.267	-0.056
-341.362	374.140	-0.107	0.217
-340.348	521.175	-0.066	0.154
-339.333	-200.000	0.039	-0.262
-338.318	800.000	-0.057	-0.224
-337.304	800.000	-0.033	0.136
-336.289	-200.000	-0.028	0.138
-335.275	59.028	0.105	-0.104
-334.260	161.537	0.145	0.202
-333.245	790.575	-0.163	-0.447
-332.231	800.000	0.094	0.292
-331.216	-200.000	0.021	-0.358
-330.202	95.545	0.069	-0.079
-329.187	-200.000	-0.059	-0.288
-328.172	-91.071	0.089	0.025
-327.158	32.064	0.313	0.270
-326.143	-24.540	0.197	0.117
-325.129	-30.469	0.203	-0.115
-324.114	81.686	0.322	0.348
-323.099	-145.780	-0.217	0.019
-322.085	15.674	-0.211	0.166
-321.070	-200.000	0.001	-0.573
-320.056	-200.000	-0.026	0.142
-319.041	-79.118	-0.225	0.076
-318.026	-114.828	0.182	-0.035
-317.012	436.753	-0.058	0.127
-315.997	6.265	0.252	0.187
-314.983	98.159	-0.124	0.142
-313.968	-200.000	-0.066	-0.325
-312.953	-132.972	0.442	0.056
-311.939	107.783	-0.087	0.104
-310.924	-84.913	0.290	-0.091
-309.910	-87.090	-0.249	-0.076
-308.895	-9.050	0.065	0.043
-307.880	-35.312	0.195	-0.106
-306.866	196.767	-0.177	-0.269
-305.851	-119.392	0.246	-0.043
-304.837	-200.000	0.025	0.168
-303.822	-34.718	-0.448	-0.244
-302.807	234.299	0.067	0.110
-301.793	-200.000	-0.005	0.238
-300.778	21.329	0.130	0.105
-299.764	193.050	0.080	0.121
-298.749	131.582	0.107	0.137
-297.735	-24.623	0.078	-0.046
-296.720	-118.119	-0.283	0.050
-295.705	188.063	-0.243	-0.362
-294.691	-35.311	-0.205	-0.111
-293.676	341.896	-0.125	0.244
-292.662	281.813	-0.166	0.297
-291.647	139.130	-0.213	-0.279
-290.632	-200.000	0.039	-0.199
-289.618	-200.000	0.025	-0.234
-288.603	10.474	-0.176	-0.134
-287.589	342.377	-0.118	0.230
-286.574	-45.270	-0.380	0.188
-285.559	-200.000	0.024	0.214
-284.545	-16.128	0.500	0.317
-283.530	25.141	0.064	0.053
-282.516	-200.000	-0.052	0.256
-281.501	-100.625	-0.046	0.011
-280.486	-37.830	-0.237	-0.126
-279.472	-200.000	0.021	-0.118
-278.457	800.000	0.012	0.049
-277.443	800.000	0.088	0.287
-276.428	573.216	0.030	0.074
-275.413	-42.199	0.462	-0.235
-274.399	-22.513	0.290	0.175
-273.384	243.741	-0.047	0.078
-272.370	112.711	0.186	0.224
-271.355	487.813	0.149	0.339
-270.340	-130.829	0.133	0.018
-269.326	-22.830	0.261	-0.157
-268.311	-200.000	0.026	-0.178
-267.297	150.596	0.194	0.263
-266.282	-29.923	0.136	-0.077
-265.267	-116.116	0.281	0.052
-264.253	532.253	-0.041	-0.097
-263.238	-200.000	0.010	-0.053
-262.224	-22.991	-0.140	-0.084
-261.209	-169.567	-0.437	0.016
-260.195	-25.729	0.503	0.295
-259.180	-56.251	0.100	-0.044
-258.165	222.237	-0.079	0.126
-257.151	-21.372	0.233	-0.142
-256.136	-134.066	0.238	0.029
-255.122	37.615	-0.209	0.185
-254.107	800.000	0.079	-0.275
-253.092	-58.806	0.167	0.072
-252.078	631.803	0.067	-0.168
-251.063	-73.820	-0.542	0.196
-250.049	800.000	0.051	-0.182
-249.034	53.877	0.244	0.233
-248.019	-200.000	-0.043	-0.394
-247.005	-119.437	0.177	-0.031
-245.990	163.773	0.090	0.125
-244.976	-200.000	-0.042	0.000
-243.961	38.183	0.151	-0.134
-242.946	800.000	-0.095	0.307
-241.932	-52.658	0.412	0.189
-240.917	-189.694	0.296	0.003
-239.903	727.414	-0.083	0.220
-238.888	181.319	-0.148	-0.217
-237.873	40.998	0.081	-0.073
-236.859	-200.000	-0.021	0.106
-235.844	-23.851	-0.258	0.154
-234.830	-200.000	-0.011	-0.319
-233.815	79.513	-0.234	0.249
-232.800	12.818	0.277	-0.213
-231.786	-78.742	-0.429	0.146
-230.771	235.314	-0.031	-0.050
-229.757	24.903	0.095	0.078
-228.742	-2.462	-0.188	0.131
-227.727	-23.802	0.160	0.095
-226.713	145.371	-0.087	-0.116
-225.698	800.000	0.100	-0.336
-224.684	-93.128	-0.132	0.036
-223.669	-154.393	0.375	-0.025
-222.655	157.055	0.057	0.078
-221.640	141.247	0.120	0.158
-220.625	800.000	-0.035	0.152
-219.611	-200.000	0.112	0.528
-218.596	-200.000	-0.000	0.087
-217.582	800.000	0.091	0.366
-216.567	5.504	-0.286	0.210
-215.552	-155.439	0.295	-0.019
-214.538	-74.408	-0.250	0.090
-213.523	-64.409	0.084	0.034
-212.509	98.895	0.252	0.289
-211.494	-24.358	0.283	-0.168
-210.479	389.197	0.073	-0.150
-209.465	46.743	0.134	-0.124
-208.450	208.611	-0.124	-0.193
-207.436	541.274	-0.062	-0.148
-206.421	273.483	0.034	-0.059
-205.406	269.851	0.091	0.159
-204.392	55.264	0.241	0.232
-203.377	81.602	0.306	-0.328
-202.363	198.368	0.064	0.097
-201.348	-192.027	0.228	-0.002
-200.333	81.558	-0.198	0.213
-199.319	-200.000	0.012	-0.060
-198.304	-71.511	0.297	-0.110
-197.290	-130.118	-0.218	0.030
-196.275	-200.000	-0.018	-0.146
-195.260	509.513	0.118	0.272
-194.246	-98.449	-0.195	0.050
-193.231	-6.660	-0.145	0.098
-192.217	783.154	0.037	-0.101
-191.202	-82.506	-0.140	0.045
-190.187	-121.463	0.459	0.076
-189.173	-115.636	0.289	-0.054
-188.158	97.931	0.341	0.389
-187.144	-153.090	-0.067	-0.005
-186.129	-200.000	-0.104	-0.000
-185.114	-130.179	0.075	-0.010
-184.100	-43.683	-0.076	-0.038
-183.085	61.911	-0.206	0.204
-182.071	-200.000	0.005	0.239
-181.056	54.171	0.079	0.076
-180.042	-120.533	-0.219	0.037
-179.027	-200.000	-0.025	-0.213
-178.012	218.164	-0.078	-0.124
-176.998	-46.166	0.371	-0.181
-175.983	-3.688	0.076	-0.052
-174.969	47.763	-0.166	-0.154
-173.954	-78.445	0.180	-0.061
-172.939	-14.478	0.219	-0.140
-171.925	-75.724	-0.171	0.060
-170.910	-34.028	-0.103	-0.056
-169.896	754.140	-0.031	0.084
-168.881	69.592	0.281	0.287
-167.866	-73.661	-0.092	0.033
-166.852	-134.334	0.365	0.045
-165.837	12.615	0.226	0.173
-164.823	-69.167	0.230	-0.088
-163.808	98.652	0.135	0.155
-162.793	132.033	0.209	0.266
-161.779	280.057	-0.090	-0.160
-160.764	-9.357	-0.178	-0.118
-159.750	-200.000	-0.026	0.178
-158.735	193.022	0.071	0.106
-157.720	-129.903	0.136	0.019
-156.706	-200.000	0.028	0.665
-155.691	357.158	0.151	0.298
-154.677	-61.813	0.303	0.126
-153.662	-73.736	0.177	-0.064
-152.647	-66.470	0.169	0.066
-151.633	178.960	0.164	0.238
-150.618	-75.101	0.275	-0.098
-149.604	112.082	0.013	0.016
-148.589	-75.307	0.169	0.060
-147.574	379.436	0.074	0.151
-146.560	0.837	-0.229	0.163
-145.545	10.140	0.066	-0.049
-144.531	-200.000	0.047	-0.250
-143.516	-200.000	0.010	-0.498
-142.502	-200.000	0.014	-0.122
-141.487	-122.588	-0.067	-0.011
-140.472	-74.919	-0.110	-0.039
-139.458	72.371	-0.356	-0.368
-138.443	-62.151	-0.077	-0.032
-137.429	-161.089	-0.200	0.010
-136.414	269.453	0.177	0.308
-135.399	524.210	0.083	0.194
-134.385	800.000	-0.049	0.201
-133.370	-133.146	-0.245	-0.031
-132.356	-29.760	-0.290	0.164
-131.341	167.442	-0.191	-0.269
-130.326	505.260	0.050	0.115
-129.312	-44.676	0.095	-0.047
-128.297	-8.757	0.212	-0.141
-127.283	-200.000	-0.015	-0.104
-126.268	72.872	0.061	0.063
-125.253	528.914	-0.083	-0.194
-124.239	-0.058	0.082	-0.058
-123.224	-200.000	0.032	0.250
-122.210	-43.576	0.244	0.122
-121.195	-4.694	-0.221	0.151
-120.180	800.000	-0.077	0.296
-119.166	-1.951	0.224	-0.156
-118.151	-33.999	-0.166	-0.090
-117.137	-127.598	-0.286	-0.041
-116.122	-167.339	-0.070	-0.003
-115.107	-82.780	-0.249	-0.080
-114.093	-120.347	0.301	0.051
-113.078	-61.974	0.119	-0.049
-112.064	8.375	0.347	-0.258
-111.049	165.166	0.012	-0.017
-110.034	118.967	0.054	0.067
-109.020	-200.000	0.031	0.342
-108.005	-37.044	-0.199	0.106
-106.991	-200.000	0.040	0.000
-105.976	-157.944	0.260	0.015
-104.962	-42.384	-0.111	0.056
-103.947	800.000	-0.048	-0.200
-102.932	207.734	-0.053	-0.082
-101.918	-200.000	-0.080	0.478
-100.903	-80.597	-0.188	-0.062
-99.889	637.324	-0.055	0.139
-98.874	-200.000	-0.034	0.384
-97.859	-200.000	0.019	0.373
-96.845	-56.739	-0.240	-0.105
-95.830	800.000	0.077	0.285
-94.816	-99.392	-0.229	-0.057
-93.801	-200.000	0.011	0.169
-92.786	-62.886	-0.432	-0.177
-91.772	219.785	0.150	0.237
-90.757	310.463	-0.176	-0.327
-89.743	-32.340	0.222	-0.123
-88.728	-93.255	0.098	-0.027
-87.713	-29.803	0.064	-0.036
-86.699	42.434	0.184	-0.166
-85.684	147.340	0.260	0.347
-84.670	197.963	0.192	0.290
-83.655	16.828	-0.229	-0.179
-82.640	-74.784	-0.296	-0.105
-81.626	-52.793	0.226	-0.103
-80.611	-143.577	0.200	0.019
-79.597	-62.498	-0.074	0.031
-78.582	-14.063	0.300	-0.192
-77.567	296.038	0.137	0.249
-76.553	16.995	0.076	0.060
-75.538	-120.598	-0.364	0.061
-74.524	182.393	-0.065	-0.095
-73.509	22.264	-0.101	-0.082
-72.494	162.969	0.103	0.143
-71.480	41.935	-0.182	0.163
-70.465	800.000	-0.106	-0.323
-69.451	-44.035	0.256	-0.127
-68.436	344.857	-0.125	0.242
-67.422	-18.605	-0.087	0.054
-66.407	711.999	-0.133	-0.349
-65.392	800.000	0.043	0.119
-64.378	-10.356	-0.305	0.200
-63.363	585.500	0.016	-0.038
-62.349	-19.659	0.043	0.026
-61.334	133.605	-0.904	-1.156
-60.319	106.417	0.615	0.720
-59.305	-200.000	-0.072	-0.680
-58.290	157.708	0.603	0.825
-57.276	-200.000	0.318	1.879
-56.261	-200.000	94.210	566.529
-55.246	560.471	1365.108	3258.764
-54.232	153.542	2576.588	3486.346
-53.217	116.044	2184.398	2642.279
-52.203	46.256	1722.515	1576.914
-51.188	38.833	1533.373	1352.766
-50.173	36.388	1505.746	1311.757
-49.159	55.554	1555.644	1487.951
-48.144	59.471	1575.561	1533.971
-47.130	39.267	1530.988	1353.436
-46.115	35.777	1515.664	1316.005
-45.100	35.711	1512.336	1312.612
-44.086	35.743	1510.173	1310.900
-43.071	35.742	1507.991	1308.950
-42.057	35.597	1506.920	1306.980
-41.042	35.687	1505.066	1305.933
-40.027	35.692	1503.636	1304.673
-39.013	35.610	1502.792	1303.332
-37.998	35.661	1501.152	1302.204
-36.984	35.655	1500.571	1301.606
-35.969	35.619	1498.580	1299.588
-34.954	35.625	1497.204	1298.385
-33.940	35.691	1495.564	1297.354
-32.925	35.661	1494.431	1296.118
-31.911	35.727	1493.108	1295.365
-30.896	35.694	1491.846	1293.993
-29.881	35.751	1490.256	1292.948
-28.867	35.794	1489.397	1292.437
-27.852	35.789	1487.626	1290.818
-26.838	35.820	1486.021	1289.584
-25.823	35.808	1484.435	1288.076
-24.809	35.633	1483.212	1285.792
-23.794	35.759	1481.520	1285.118
-22.779	35.616	1480.933	1283.599
-21.765	35.720	1479.498	1282.997
-20.750	35.680	1478.297	1281.639
-19.736	35.733	1477.495	1281.246
-18.721	35.672	1476.485	1279.915
-17.706	35.737	1474.817	1278.853
-16.692	35.709	1473.801	1277.731
-15.677	35.668	1472.900	1276.629
-14.663	35.700	1471.847	1275.879
-13.648	35.642	1471.408	1275.058
-12.633	35.633	1470.436	1274.106
-11.619	35.691	1469.496	1273.627
-10.604	35.696	1468.266	1272.545
-9.590	35.665	1467.806	1271.893
-8.575	35.703	1466.744	1271.173
-7.560	35.693	1466.052	1270.455
-6.546	35.666	1465.060	1269.365
-5.531	35.691	1463.865	1268.447
-4.517	35.637	1463.227	1267.483
-3.502	35.642	1462.134	1266.521
-2.487	35.647	1461.018	1265.539
-1.473	35.625	1459.947	1264.418
-0.458	35.593	1458.593	1262.978
0.556	35.679	1448.916	1252.195
1.571	32.837	1423.531	1211.924
2.586	29.428	1363.842	1139.982
3.600	27.932	1282.825	1063.470
4.615	26.694	1236.460	1017.989
5.629	22.958	1179.551	950.986
6.644	12.028	1090.818	824.665
7.659	3.135	1045.983	747.632
8.673	1.921	1040.172	737.541
9.688	1.671	1036.856	733.917
10.702	1.477	1035.210	731.755
11.717	1.622	1033.364	731.084
12.731	5.585	1038.208	753.547
13.746	15.845	1053.050	814.114
14.761	23.294	1061.800	856.994
15.775	24.474	1063.139	863.712
16.790	24.713	1062.435	864.219
17.804	24.545	1061.651	862.696
18.819	24.320	1060.801	860.840
19.834	24.538	1059.746	860.962
20.848	24.682	1059.705	861.546
21.863	24.691	1059.625	861.445
22.877	24.641	1058.914	860.553
23.892	24.550	1058.521	859.719
24.907	24.497	1057.617	858.653
25.921	24.522	1056.820	858.052
26.936	24.670	1055.845	857.891
27.950	24.531	1054.990	856.455
28.965	24.454	1053.830	855.069
29.980	24.334	1052.525	853.359
30.994	24.447	1050.821	852.442
32.009	24.533	1050.306	852.360
33.023	24.647	1049.624	852.274
34.038	24.550	1048.589	850.900
35.053	24.361	1047.831	849.310
36.067	24.558	1047.062	849.544
37.082	24.546	1046.401	848.877
38.096	24.572	1045.859	848.489
39.111	24.692	1045.314	848.540
40.126	24.926	1044.243	848.702
41.140	24.703	1043.117	846.658
42.155	24.442	1041.567	844.090
43.169	24.171	1040.192	841.620
44.184	24.252	1039.217	841.140
45.199	24.235	1038.286	840.230
46.213	24.261	1037.304	839.486
47.228	24.236	1036.261	838.451
48.242	24.235	1035.972	838.138
49.257	24.392	1035.079	838.075
50.271	24.476	1034.387	837.837
51.286	24.543	1033.761	837.571
52.301	24.663	1033.036	837.474
53.315	24.644	1031.919	836.402
54.330	24.661	1031.126	835.765
55.344	24.504	1030.385	834.357
56.359	24.573	1029.583	833.958
57.374	24.520	1028.520	832.775
58.388	24.387	1028.112	831.751
59.403	24.312	1026.943	830.380
60.417	24.221	1026.624	829.626
61.432	24.116	1025.562	828.205
62.447	24.210	1024.953	828.078
63.461	24.205	1024.200	827.375
64.476	24.348	1023.892	827.716
65.490	24.346	1022.448	826.466
66.505	24.306	1021.414	825.373
67.520	24.198	1020.899	824.381
68.534	24.342	1020.455	824.617
69.549	24.186	1019.344	822.927
70.563	23.943	1017.914	820.579
71.578	23.625	1017.692	818.857
72.593	23.783	1016.449	818.513
73.607	23.706	1015.231	817.106
74.622	23.645	1014.531	816.192
75.636	23.938	1014.178	817.181
76.651	24.074	1013.659	817.314
77.666	23.974	1012.603	815.935
78.680	24.035	1011.034	814.874
79.695	23.944	1010.978	814.343
80.709	24.070	1010.405	814.384
81.724	24.129	1009.541	813.887
82.739	24.143	1008.683	813.188
83.753	24.092	1007.900	812.252
84.768	24.317	1007.251	812.681
85.782	24.535	1007.082	813.468
86.797	24.783	1006.278	813.872
87.812	24.923	1005.065	813.457
88.826	24.676	1003.961	811.368
89.841	24.536	1003.742	810.484
90.855	24.848	1002.673	810.967
91.870	24.811	1002.073	810.238
92.884	24.784	1001.097	809.259
93.899	24.653	1000.121	807.805
94.914	24.574	999.294	806.707
95.928	24.703	998.679	806.723
96.943	24.729	997.892	806.133
97.957	24.421	996.410	803.479
98.972	24.310	995.362	802.064
99.987	24.147	994.426	800.504
101.001	24.154	993.717	799.896
102.016	24.395	993.405	800.652
103.030	24.505	992.455	800.309
104.045	24.484	991.283	799.202
105.060	24.431	990.000	797.857
106.074	24.076	989.126	795.497
107.089	24.120	988.084	794.785
108.103	24.319	988.199	795.696
109.118	24.388	987.603	795.454
110.133	24.251	986.063	793.533
111.147	24.215	985.145	792.564
112.162	24.037	983.741	790.573
113.176	23.957	982.576	789.213
114.191	23.963	982.389	789.020
115.206	24.262	981.177	789.300
116.220	23.813	979.952	786.260
117.235	23.651	979.220	784.887
118.249	23.769	978.831	785.026
119.264	23.872	977.877	784.648
120.279	23.907	976.496	783.623
121.293	23.806	975.947	782.669
122.308	23.907	975.319	782.541
123.322	23.928	974.715	782.076
124.337	23.904	973.753	781.133
125.352	23.729	972.262	779.098
126.366	23.396	970.689	776.312
127.381	23.017	969.983	774.021
128.395	23.731	969.341	776.560
129.410	24.161	969.405	778.421
130.424	24.394	968.537	778.674
131.439	24.406	967.484	777.811
132.454	24.403	966.324	776.798
133.468	24.401	965.692	776.212
134.483	24.353	964.900	775.298
135.497	24.332	964.244	774.611
136.512	24.578	963.728	775.195
137.527	24.641	962.883	774.721
138.541	24.551	962.583	774.022
139.556	24.557	961.661	773.236
140.570	24.671	960.682	772.871
141.585	24.649	959.340	771.628
142.600	24.798	958.743	771.724
143.614	24.683	957.904	770.486
144.629	24.759	957.348	770.297
145.643	24.914	956.885	770.523
146.658	24.850	955.510	769.072
147.673	24.627	954.453	767.195
148.687	24.485	953.346	765.632
149.702	24.275	952.735	764.174
150.716	24.464	951.067	763.577
151.731	24.381	949.898	762.214
152.746	24.330	949.589	761.684
153.760	24.841	948.362	762.810
154.775	24.639	948.754	762.195
155.789	24.765	947.548	761.695
156.804	24.731	946.454	760.602
157.819	24.706	945.386	759.572
158.833	24.896	944.525	759.619
159.848	24.744	944.410	758.815
160.862	24.922	943.304	758.612
161.877	24.840	942.002	757.151
162.892	24.740	941.315	756.109
163.906	24.792	940.804	755.853
164.921	24.766	939.911	754.958
165.935	24.704	938.397	753.413
166.950	24.781	937.535	752.981
167.964	24.809	936.286	752.026
168.979	24.787	935.604	751.320
169.994	24.732	934.323	749.996
171.008	24.558	933.495	748.534
172.023	24.664	932.945	748.472
173.037	24.893	931.811	748.454
174.052	24.710	931.161	747.100
175.067	24.515	929.846	745.166
176.081	24.425	929.325	744.305
177.096	24.494	928.853	744.149
178.110	24.649	927.865	743.939
179.125	24.502	926.515	742.179
180.140	24.269	925.498	740.333
181.154	24.164	925.007	739.437
182.169	24.380	924.542	739.897
183.183	24.567	924.363	740.463
184.198	24.744	924.207	741.008
185.213	24.801	923.246	740.405
186.227	24.556	922.949	739.088
187.242	24.672	922.369	739.040
188.256	24.711	921.809	738.685
189.271	24.660	920.872	737.659
190.286	24.642	920.381	737.127
191.300	24.833	918.606	736.424
192.315	24.020	917.886	732.440
193.329	23.492	915.693	728.457
194.344	23.056	914.870	725.946
195.359	23.685	915.054	728.611
196.373	24.375	915.803	731.975
197.388	24.700	915.286	732.828
198.402	24.567	914.797	731.827
199.417	24.533	914.112	731.075
200.432	24.685	913.823	731.402
201.446	24.707	912.724	730.549
202.461	24.205	912.453	728.216
203.475	24.287	911.731	727.911
204.490	23.782	910.250	724.604
205.504	22.702	908.271	718.566
206.519	23.153	907.606	719.813
207.534	24.188	908.060	724.318
208.548	24.222	907.789	724.175
209.563	24.558	907.729	725.431
210.577	24.594	906.721	724.705
211.592	24.359	905.759	722.920
212.607	24.613	906.218	724.251
213.621	24.840	905.489	724.527
214.636	24.757	904.842	723.608
215.650	24.933	903.958	723.549
216.665	24.720	903.646	722.375
217.680	24.886	903.182	722.610
218.694	24.999	902.298	722.295
219.709	24.555	901.739	719.993
220.723	24.175	900.860	717.698
221.738	24.378	900.329	718.028
222.753	24.660	899.993	718.828
223.767	24.475	899.492	717.623
224.782	24.701	898.229	717.458
225.796	24.869	897.779	717.711
226.811	24.835	897.266	717.098
227.826	24.552	896.175	715.033
228.840	23.727	894.603	710.416
229.855	23.622	893.736	709.245
230.869	23.925	893.616	710.297
231.884	23.764	892.172	708.446
232.899	23.772	892.113	708.366
233.913	24.411	892.454	711.124
234.928	24.643	892.287	711.850
235.942	24.587	891.256	710.742
236.957	24.414	890.895	709.705
237.972	24.169	889.869	707.849
238.986	24.139	888.977	706.960
240.001	24.223	888.698	707.010
241.015	24.223	887.892	706.305
242.030	24.375	887.317	706.388
243.045	24.550	886.856	706.651
244.059	24.500	886.681	706.249
245.074	24.640	886.181	706.340
246.088	24.743	885.280	705.967
247.103	24.392	883.979	703.486
248.117	24.397	883.705	703.225
249.132	24.882	883.566	704.961
250.147	25.161	883.576	706.005
251.161	25.340	882.945	706.142
252.176	25.622	882.199	706.593
253.190	25.493	881.760	705.672
254.205	25.606	881.200	705.605
255.220	25.755	880.971	705.942
256.234	25.744	879.769	704.873
257.249	25.559	879.468	703.845
258.263	25.486	878.999	703.121
259.278	25.524	878.343	702.685
260.293	25.609	877.845	702.557
261.307	25.673	877.377	702.369
262.322	25.616	876.770	701.597
263.336	25.279	876.242	699.801
264.351	25.046	874.648	697.560
265.366	23.787	872.865	691.181
266.380	23.332	871.721	688.447
267.395	24.170	872.597	692.335
268.409	24.997	872.438	695.358
269.424	25.039	871.458	694.682
270.439	25.072	871.239	694.569
271.453	25.342	870.350	694.848
272.468	25.258	870.163	694.311
273.482	25.421	869.760	694.560
274.497	25.608	869.296	694.850
275.512	25.439	868.287	693.327
276.526	24.768	866.910	689.582
277.541	25.002	866.781	690.319
278.555	25.380	865.922	691.029
279.570	25.162	865.817	690.047
280.585	25.082	864.613	688.718
281.599	25.014	864.737	688.494
282.614	25.278	863.951	688.820
283.628	24.815	862.624	685.929
284.643	24.500	861.641	683.878
285.657	24.884	861.819	685.432
286.672	24.758	861.382	684.538
287.687	24.283	860.084	681.633
288.701	24.602	860.149	682.842
289.716	24.990	859.975	684.126
290.730	24.708	858.789	682.047
291.745	24.629	857.909	680.986
292.760	24.452	857.055	679.575
293.774	24.270	856.859	678.665
294.789	25.294	857.371	682.910
295.803	25.791	857.354	684.725
296.818	25.961	856.956	684.994
297.833	25.908	856.485	684.356
298.847	25.701	855.521	682.738
299.862	25.458	854.007	680.551
300.876	25.596	853.721	680.784
301.891	25.776	853.413	681.159
302.906	25.969	853.100	681.579
303.920	25.575	852.078	679.215
304.935	25.397	851.455	677.985
305.949	25.695	851.202	678.850
306.964	25.937	850.394	679.057
307.979	25.576	849.765	677.136
308.993	25.578	849.198	676.632
310.008	25.835	849.366	677.672
311.022	26.024	848.710	677.797
312.037	25.817	848.264	676.604
313.052	25.624	847.359	675.099
314.066	25.626	846.530	674.385
315.081	24.877	845.174	670.442
316.095	24.093	844.238	666.707
317.110	24.590	844.260	668.523
318.125	25.545	844.489	672.219
319.139	25.071	843.341	669.475
320.154	23.946	841.554	663.804
321.168	23.510	840.397	661.204
322.183	24.092	840.822	663.650
323.197	25.082	841.313	667.669
324.212	25.396	841.122	668.629
325.227	25.635	840.368	668.858
326.241	25.647	840.138	668.662
327.256	25.437	839.854	667.595
328.270	25.409	839.199	666.913
329.285	25.349	838.144	665.792
330.300	25.172	837.541	664.599
331.314	24.992	836.761	663.255
332.329	24.899	836.468	662.618
333.343	25.437	836.015	664.191
334.358	25.685	835.782	664.864
335.373	25.809	834.889	664.551
336.387	25.726	834.317	663.730
337.402	25.801	834.603	664.176
338.416	26.081	834.092	664.744
339.431	26.252	833.157	664.569
340.446	26.190	832.826	664.016
341.460	26.279	832.531	664.051
342.475	26.245	831.562	663.095
343.489	26.176	830.854	662.218
344.504	26.078	829.993	661.113
345.519	26.323	830.070	662.015
346.533	26.510	829.927	662.527
347.548	26.545	829.143	661.969
348.562	26.531	829.098	661.825
349.577	26.612	828.384	661.491
350.592	26.373	828.133	660.359
351.606	26.371	827.100	659.472
352.621	26.433	826.837	659.429
353.635	26.406	826.198	658.763
354.650	26.282	825.525	657.717
355.665	26.013	824.788	656.091
356.679	24.792	823.292	650.409
357.694	24.790	822.576	649.777
358.708	25.491	822.385	652.115
359.723	25.405	821.975	651.418
360.738	25.532	821.783	651.671
361.752	26.091	821.974	653.789
362.767	26.152	821.407	653.501
363.781	26.406	821.181	654.183
364.796	26.717	820.937	655.054
365.810	26.908	820.501	655.337
366.825	26.856	820.084	654.760
367.840	26.855	819.535	654.260
368.854	26.658	819.494	653.458
369.869	26.309	818.259	651.160
370.883	26.059	817.758	649.801
371.898	26.153	817.126	649.582
372.913	26.375	815.945	649.381
373.927	26.335	815.447	648.783
374.942	26.180	815.599	648.290
375.956	26.448	814.953	648.680
376.971	26.696	813.676	648.496
377.986	26.672	814.084	648.679
379.000	26.917	813.130	648.736
380.015	26.919	812.710	648.351
381.029	26.624	811.831	646.539
382.044	26.522	811.726	646.033
383.059	26.833	811.128	646.609
384.073	26.985	810.347	646.471
385.088	26.896	809.920	645.759
386.102	26.910	809.445	645.372
387.117	26.548	808.905	643.596
388.132	26.552	808.280	643.056
389.146	26.406	807.704	642.025
390.161	25.803	806.715	639.041
391.175	25.848	806.313	638.825
392.190	26.453	806.587	641.131
393.205	26.434	805.947	640.500
394.219	25.529	804.340	635.966
395.234	23.916	801.816	628.221
396.248	23.206	800.617	624.721
397.263	24.113	801.585	628.624
398.278	26.038	803.282	636.702
399.292	26.448	803.050	637.908
400.307	26.058	802.575	636.100
401.321	26.056	801.907	635.505
402.336	26.120	801.728	635.535
403.350	26.501	801.435	636.584
404.365	26.862	801.094	637.528
405.380	26.970	801.805	638.416
406.394	27.450	800.750	639.206
407.409	27.577	800.460	639.364
408.423	27.539	800.094	638.880
409.438	27.571	799.134	638.170
410.453	27.468	799.012	637.656
411.467	27.500	798.559	637.350
412.482	27.577	797.996	637.112
413.496	27.429	797.572	636.199
414.511	27.544	797.220	636.265
415.526	27.556	797.151	636.197
416.540	27.548	796.249	635.393
417.555	27.511	796.090	635.080
418.569	27.337	795.058	633.593
419.584	27.033	795.013	632.444
420.599	27.277	794.528	632.850
421.613	106.759	1278.241	1438.273
422.628	91.809	1348.721	1438.385
