DTS Sentinel unit serial number:	SN413079Multiplexer serial number:	ORYXHardware model number:	OX4-SRSoftware version number:	ORYX F/W v4.00 Oryx Data Collector v3.7.2.0data status	okinstallation	princeton_trtdifferential loss correction	single-endedforward channel	channel 3reverse channel	N/Adate	2019/09/11time	22:02:10forward acquisition time	60.00reverse acquisition time	0.00gamma	496.2192k internal	0.2312k external	0.2312temperature offset calibration	1.0044default loss term (dB/km)	0.3790temperature slope calibration	1.0000multiplexer offset coefficient	1.0000multiplexer slope coefficient	1.0000fibre end	0.00T internal ref (°C)	35.50T ext. ref 1 (°C)	1.78T ext. ref 2 (°C)	29.51length (m)	temperature (°C)	Stokes	anti-Stokes-747.200	-110.526	-0.412	-0.087
-746.185	-8.866	0.214	0.145
-745.171	-200.000	0.056	0.344
-744.156	427.387	-0.109	0.240
-743.142	-200.000	-0.042	0.250
-742.127	-200.000	0.041	0.270
-741.112	800.000	-0.048	0.209
-740.098	-6.170	0.037	0.025
-739.083	-43.383	0.262	-0.134
-738.069	800.000	-0.086	0.248
-737.054	-37.048	0.298	0.162
-736.039	262.193	-0.166	-0.291
-735.025	-200.000	0.011	0.418
-734.010	51.435	-0.142	-0.137
-732.996	-1.615	-0.241	0.172
-731.981	39.024	-0.075	0.068
-730.966	-66.685	-0.164	-0.066
-729.952	-200.000	0.025	-0.240
-728.937	257.183	-0.072	-0.126
-727.923	-77.581	0.383	-0.135
-726.908	-45.589	-0.270	0.136
-725.894	262.199	-0.224	0.393
-724.879	-14.070	-0.317	0.208
-723.864	-115.069	-0.199	0.038
-722.850	530.132	-0.061	-0.147
-721.835	-200.000	0.028	-0.135
-720.821	-101.800	0.265	0.065
-719.806	-15.331	0.310	0.201
-718.791	-114.843	0.180	-0.035
-717.777	-200.000	0.021	0.106
-716.762	287.388	0.197	-0.361
-715.748	93.872	-0.284	-0.327
-714.733	-2.332	-0.111	0.079
-713.718	603.598	-0.170	0.429
-712.704	800.000	0.071	0.214
-711.689	-84.595	0.265	-0.085
-710.675	3.348	-0.067	0.050
-709.660	-8.766	0.113	-0.077
-708.645	800.000	-0.039	0.148
-707.631	-114.071	-0.193	-0.038
-706.616	-82.155	0.180	0.059
-705.602	17.300	-0.108	-0.086
-704.587	-171.483	-0.123	-0.004
-703.572	116.682	0.083	-0.103
-702.558	-200.000	-0.015	-0.087
-701.543	-60.040	-0.152	0.066
-700.529	-48.823	-0.093	0.045
-699.514	39.938	-0.201	0.183
-698.499	28.312	-0.138	0.118
-697.485	29.063	0.124	-0.107
-696.470	107.607	-0.129	-0.156
-695.456	131.198	-0.140	-0.182
-694.441	-74.152	0.294	0.108
-693.426	-200.000	-0.003	-0.145
-692.412	-200.000	-0.056	0.255
-691.397	-58.913	0.194	-0.085
-690.383	227.305	-0.040	-0.066
-689.368	-200.000	-0.063	0.290
-688.354	23.956	0.131	0.109
-687.339	126.412	-0.288	-0.369
-686.324	-54.709	0.076	0.035
-685.310	-104.076	-0.185	0.044
-684.295	27.539	-0.136	0.116
-683.281	208.030	0.150	-0.238
-682.266	-200.000	0.052	-0.342
-681.251	-97.489	0.321	0.085
-680.237	-85.374	-0.372	0.117
-679.222	-39.061	0.119	-0.063
-678.208	16.412	0.109	-0.087
-677.193	19.468	-0.258	-0.210
-676.178	223.090	-0.256	-0.418
-675.164	319.853	-0.121	-0.233
-674.149	284.029	0.115	-0.210
-673.135	-200.000	0.026	0.270
-672.120	-200.000	-0.002	0.207
-671.105	-200.000	0.000	0.046
-670.091	61.716	0.090	-0.091
-669.076	212.248	-0.022	0.035
-668.062	177.422	0.208	-0.307
-667.047	-82.178	-0.221	-0.073
-666.032	-153.210	0.463	-0.033
-665.018	-170.495	-0.063	-0.002
-664.003	800.000	0.027	-0.081
-662.989	-88.644	-0.151	-0.046
-661.974	-200.000	0.018	0.152
-660.959	-190.915	-0.043	-0.000
-659.945	800.000	-0.070	-0.251
-658.930	-65.784	0.209	0.085
-657.916	-200.000	0.034	0.224
-656.901	330.127	0.182	0.355
-655.886	-152.537	-0.117	-0.008
-654.872	800.000	-0.087	0.335
-653.857	104.415	0.106	0.126
-652.843	-194.116	-0.126	-0.001
-651.828	-22.485	-0.221	-0.136
-650.814	-200.000	0.018	-0.145
-649.799	172.324	0.150	0.219
-648.784	800.000	-0.040	-0.131
-647.770	287.087	0.060	0.110
-646.755	-200.000	-0.020	-0.096
-645.741	-200.000	-0.003	-0.041
-644.726	-50.231	0.263	0.126
-643.711	-200.000	-0.013	-0.109
-642.697	33.537	0.050	-0.044
-641.682	-96.948	0.073	0.019
-640.668	355.613	-0.014	0.029
-639.653	-87.507	-0.170	0.052
-638.638	100.916	-0.118	0.139
-637.624	800.000	0.081	-0.315
-636.609	60.518	0.359	-0.359
-635.595	-24.121	-0.100	-0.061
-634.580	333.217	-0.060	0.117
-633.565	-117.879	0.269	-0.049
-632.551	656.202	0.076	-0.196
-631.536	-62.613	-0.124	-0.052
-630.522	-30.034	0.047	-0.027
-629.507	800.000	0.115	0.379
-628.492	-59.913	-0.143	0.062
-627.478	-200.000	-0.025	0.209
-626.463	800.000	-0.072	0.279
-625.449	465.800	-0.052	0.118
-624.434	670.114	-0.120	-0.313
-623.419	193.308	0.139	-0.212
-622.405	-193.217	-0.184	-0.002
-621.390	375.360	-0.005	0.010
-620.376	-138.258	0.135	-0.015
-619.361	-200.000	-0.017	0.272
-618.346	-24.295	0.042	0.025
-617.332	213.628	-0.285	0.454
-616.317	-14.726	-0.202	0.131
-615.303	118.558	-0.228	-0.284
-614.288	800.000	0.018	-0.062
-613.273	346.701	-0.124	0.247
-612.259	290.850	0.072	0.133
-611.244	-200.000	0.003	0.219
-610.230	704.827	-0.046	-0.122
-609.215	-0.728	0.362	-0.259
-608.201	-104.843	-0.151	-0.035
-607.186	60.424	0.097	0.097
-606.171	68.964	-0.173	-0.179
-605.157	-67.199	-0.131	0.052
-604.142	-28.623	0.273	0.159
-603.128	800.000	-0.013	-0.037
-602.113	-101.188	-0.178	0.044
-601.098	800.000	0.016	0.058
-600.084	-43.228	-0.240	-0.123
-599.069	-40.923	0.543	0.284
-598.055	102.065	-0.227	-0.268
-597.040	-185.815	0.315	0.005
-596.025	753.987	0.041	0.112
-595.011	-109.835	0.302	0.064
-593.996	800.000	-0.058	-0.246
-592.982	-200.000	0.003	0.135
-591.967	143.811	-0.063	-0.085
-590.952	-33.263	-0.145	-0.081
-589.938	99.384	-0.107	-0.125
-588.923	11.788	0.256	-0.198
-587.909	142.400	0.146	-0.196
-586.894	105.422	0.115	-0.137
-585.879	533.606	-0.070	-0.167
-584.865	147.716	-0.126	0.171
-583.850	-15.999	-0.268	-0.172
-582.836	70.134	-0.139	-0.144
-581.821	366.413	0.078	0.158
-580.806	124.042	0.247	0.312
-579.792	-101.373	-0.266	-0.065
-578.777	-200.000	-0.009	-0.080
-577.763	131.393	-0.192	0.248
-576.748	373.039	0.114	-0.233
-575.733	767.254	0.097	0.265
-574.719	-178.602	0.134	-0.003
-573.704	162.164	-0.114	0.161
-572.690	-200.000	0.032	0.183
-571.675	30.327	0.148	-0.128
-570.661	-200.000	0.054	-0.419
-569.646	-200.000	-0.072	0.327
-568.631	-142.968	-0.080	0.008
-567.617	-92.072	-0.103	0.030
-566.602	3.071	-0.082	-0.060
-565.588	-140.289	0.266	0.028
-564.573	499.138	-0.089	-0.207
-563.558	-200.000	0.005	0.160
-562.544	-200.000	0.021	0.203
-561.529	468.348	0.121	0.273
-560.515	-23.011	-0.095	0.058
-559.500	-136.095	-0.085	-0.010
-558.485	-173.312	-0.136	-0.004
-557.471	-82.173	0.043	0.014
-556.456	-76.855	0.157	-0.055
-555.442	69.021	-0.164	0.170
-554.427	440.956	0.047	-0.103
-553.412	-34.231	0.067	0.037
-552.398	-2.095	-0.033	-0.023
-551.383	61.688	-0.063	-0.063
-550.369	-161.311	-0.077	-0.004
-549.354	710.033	0.029	-0.077
-548.339	-200.000	-0.028	-0.175
-547.325	-146.492	0.172	-0.015
-546.310	800.000	-0.096	0.337
-545.296	83.119	-0.209	0.229
-544.281	90.034	0.093	0.105
-543.266	27.746	-0.140	0.118
-542.252	-76.198	0.192	-0.068
-541.237	70.272	-0.218	0.227
-540.223	800.000	-0.105	0.319
-539.208	190.742	0.069	0.104
-538.193	-75.116	-0.217	0.078
-537.179	75.117	0.022	0.023
-536.164	199.976	0.137	0.211
-535.150	47.221	0.291	0.272
-534.135	7.443	-0.129	0.097
-533.121	143.631	0.062	0.083
-532.106	-82.303	-0.328	0.108
-531.091	-200.000	0.007	-0.140
-530.077	-200.000	-0.030	0.242
-529.062	17.888	-0.070	-0.056
-528.048	797.560	-0.132	0.365
-527.033	-200.000	-0.007	-0.126
-526.018	-176.567	-0.178	-0.005
-525.004	-29.814	0.271	0.156
-523.989	-17.900	0.133	-0.084
-522.975	-123.408	-0.354	0.057
-521.960	171.287	-0.147	-0.213
-520.945	179.574	-0.091	0.133
-519.931	-200.000	0.048	-0.285
-518.916	-30.316	0.316	-0.180
-517.902	-200.000	-0.459	-0.001
-516.887	-200.000	-0.017	-0.228
-515.872	3.745	-0.273	0.201
-514.858	372.612	0.101	-0.207
-513.843	-200.000	-0.022	0.212
-512.829	-86.713	-0.118	0.036
-511.814	79.839	-0.154	-0.166
-510.799	800.000	-0.034	0.126
-509.785	47.193	0.238	0.223
-508.770	177.614	-0.165	0.241
-507.756	-42.601	-0.182	0.093
-506.741	37.755	0.043	0.039
-505.726	-107.187	0.251	0.056
-504.712	-61.811	0.067	-0.028
-503.697	-92.224	-0.166	-0.047
-502.683	-53.012	0.209	-0.097
-501.668	434.521	0.104	0.226
-500.653	183.367	0.129	0.191
-499.639	-19.834	-0.168	-0.104
-498.624	471.023	0.124	-0.280
-497.610	-113.337	0.165	-0.032
-496.595	800.000	0.022	-0.077
-495.581	-103.388	0.167	0.040
-494.566	-200.000	-0.034	-0.177
-493.551	-87.865	0.320	0.097
-492.537	-120.715	-0.113	-0.019
-491.522	3.942	0.241	0.177
-490.508	42.047	-0.056	0.051
-489.493	-173.299	-0.538	-0.016
-488.478	-200.000	-0.014	0.113
-487.464	-34.043	-0.229	-0.127
-486.449	40.393	0.104	0.094
-485.435	-139.907	0.197	-0.021
-484.420	89.739	-0.149	0.167
-483.405	-57.641	0.039	0.017
-482.391	-57.182	-0.312	-0.138
-481.376	800.000	0.049	-0.143
-480.362	-41.744	-0.325	-0.168
-479.347	-99.095	-0.013	-0.003
-478.332	-84.187	-0.185	-0.059
-477.318	-115.476	0.246	-0.047
-476.303	-96.252	0.256	-0.068
-475.289	-54.994	0.216	0.098
-474.274	1.976	0.112	0.081
-473.259	261.335	0.077	-0.133
-472.245	206.532	0.089	-0.140
-471.230	194.121	-0.057	0.087
-470.216	-200.000	0.027	0.173
-469.201	800.000	-0.013	0.040
-468.186	800.000	0.013	0.037
-467.172	800.000	0.051	-0.220
-466.157	-15.918	0.175	-0.112
-465.143	-200.000	0.006	0.110
-464.128	-200.000	-0.007	-0.169
-463.113	159.446	-0.149	-0.208
-462.099	800.000	-0.017	0.070
-461.084	800.000	-0.061	-0.247
-460.070	59.221	0.276	-0.273
-459.055	-155.379	-0.155	-0.010
-458.040	-197.974	0.299	-0.002
-457.026	800.000	-0.016	0.061
-456.011	-92.050	0.126	-0.036
-454.997	338.671	0.038	0.075
-453.982	-142.277	0.227	-0.023
-452.968	-104.501	-0.165	0.038
-451.953	-107.479	0.241	-0.053
-450.938	11.236	0.151	-0.116
-449.924	-200.000	0.036	-0.196
-448.909	-200.000	-0.049	0.341
-447.895	246.292	0.061	-0.102
-446.880	354.251	0.168	-0.334
-445.865	47.754	0.284	-0.266
-444.851	6.366	0.310	0.231
-443.836	-200.000	-0.014	-0.105
-442.822	-14.944	0.157	-0.101
-441.807	328.345	0.170	-0.328
-440.792	-200.000	-0.058	-0.374
-439.778	2.887	-0.161	-0.117
-438.763	-34.463	0.209	0.115
-437.749	288.039	-0.059	0.107
-436.734	130.961	-0.026	-0.033
-435.719	-126.187	-0.206	0.031
-434.705	488.505	-0.013	-0.030
-433.690	-166.187	0.237	0.010
-432.676	-13.884	-0.243	0.158
-431.661	-110.499	0.291	-0.061
-430.646	480.899	-0.179	-0.408
-429.632	240.610	-0.049	0.082
-428.617	-147.316	-0.157	-0.013
-427.603	-200.000	0.018	-0.216
-426.588	156.164	-0.099	-0.137
-425.573	92.597	0.163	-0.184
-424.559	-109.053	-0.025	0.005
-423.544	1.997	-0.223	-0.162
-422.530	-0.562	0.111	-0.079
-421.515	800.000	0.054	-0.166
-420.500	-200.000	0.022	0.320
-419.486	-71.038	0.031	-0.012
-418.471	67.813	-0.143	-0.146
-417.457	-128.767	0.045	0.006
-416.442	-174.099	0.319	-0.009
-415.428	-200.000	-0.120	-0.000
-414.413	-35.636	-0.514	-0.279
-413.398	122.604	0.196	-0.245
-412.384	-117.790	0.138	-0.025
-411.369	10.756	0.314	-0.240
-410.355	-141.547	0.355	-0.036
-409.340	800.000	-0.040	-0.127
-408.325	42.778	-0.318	-0.290
-407.311	146.599	-0.182	0.245
-406.296	-59.104	0.163	0.070
-405.282	-200.000	-0.033	-0.304
-404.267	100.339	0.242	-0.281
-403.252	-41.120	0.188	-0.097
-402.238	-128.016	-0.095	-0.014
-401.223	-57.146	-0.192	-0.085
-400.209	84.919	0.179	-0.196
-399.194	-166.618	-0.278	0.012
-398.179	111.710	0.188	-0.227
-397.165	-81.532	-0.117	-0.039
-396.150	-200.000	-0.013	0.064
-395.136	-60.207	0.453	-0.193
-394.121	210.572	0.176	0.276
-393.106	-75.970	0.249	0.088
-392.092	-172.996	-0.197	-0.006
-391.077	-150.441	0.222	0.017
-390.063	-12.470	0.091	0.059
-389.048	112.269	0.105	0.127
-388.033	-177.346	0.162	0.004
-387.019	283.254	-0.105	-0.188
-386.004	-106.195	0.163	-0.037
-384.990	147.406	-0.046	0.062
-383.975	-95.354	-0.263	0.071
-382.960	-44.091	-0.365	0.183
-381.946	23.137	-0.222	-0.182
-380.931	-37.267	-0.266	0.142
-379.917	90.891	0.053	0.059
-378.902	-200.000	0.001	-0.107
-377.888	800.000	-0.035	0.098
-376.873	61.450	0.058	-0.058
-375.858	-130.428	0.217	0.029
-374.844	-200.000	-0.018	0.256
-373.829	4.423	-0.055	-0.040
-372.815	-200.000	-0.070	0.436
-371.800	165.016	-0.020	0.028
-370.785	-94.628	-0.164	-0.045
-369.771	-200.000	-0.026	0.247
-368.756	-69.333	-0.115	0.044
-367.742	-200.000	-0.067	-0.345
-366.727	767.159	-0.091	-0.247
-365.712	-119.014	0.080	0.014
-364.698	-200.000	-0.034	0.208
-363.683	-95.038	-0.291	-0.079
-362.669	46.454	-0.190	0.176
-361.654	-85.212	0.286	0.089
-360.639	-137.590	-0.059	0.007
-359.625	800.000	-0.062	0.264
-358.610	168.791	0.119	0.170
-357.596	-200.000	-0.006	0.032
-356.581	-124.048	-0.284	0.045
-355.566	-200.000	-0.066	-0.338
-354.552	800.000	-0.094	0.293
-353.537	-104.853	-0.277	-0.063
-352.523	-173.072	0.313	0.010
-351.508	-128.930	-0.053	-0.007
-350.493	136.346	0.240	-0.313
-349.479	144.681	-0.152	-0.203
-348.464	130.617	0.042	0.054
-347.450	250.338	0.173	0.294
-346.435	800.000	0.139	0.512
-345.420	-62.646	0.244	-0.101
-344.406	800.000	-0.059	-0.203
-343.391	-54.065	0.257	-0.117
-342.377	208.215	-0.086	-0.135
-341.362	26.222	0.290	-0.242
-340.348	-44.949	-0.174	-0.087
-339.333	-200.000	-0.053	-0.382
-338.318	-104.310	-0.115	0.027
-337.304	43.210	-0.107	-0.097
-336.289	189.296	-0.101	-0.151
-335.275	800.000	0.063	0.230
-334.260	-85.170	-0.306	-0.096
-333.245	470.737	-0.095	0.213
-332.231	-150.535	-0.116	0.009
-331.216	-108.427	-0.222	0.048
-330.202	62.389	0.059	0.059
-329.187	800.000	-0.068	0.285
-328.172	800.000	-0.172	0.551
-327.158	800.000	0.057	-0.188
-326.143	800.000	-0.052	-0.180
-325.129	89.569	-0.124	-0.139
-324.114	-7.886	-0.198	-0.133
-323.099	800.000	0.036	-0.125
-322.085	197.285	-0.183	-0.279
-321.070	-29.069	0.198	0.114
-320.056	-93.323	-0.149	-0.041
-319.041	-88.802	-0.215	0.064
-318.026	-28.957	-0.289	-0.166
-317.012	-200.000	0.003	-0.034
-315.997	-116.782	-0.173	-0.032
-314.983	-145.326	-0.252	0.023
-313.968	-120.901	-0.315	0.053
-312.953	800.000	-0.148	0.463
-311.939	-200.000	0.010	0.236
-310.924	228.131	0.021	0.033
-309.910	233.096	0.062	0.101
-308.895	52.516	-0.189	-0.180
-307.880	-190.120	0.201	-0.002
-306.866	156.872	0.144	0.198
-305.851	-158.123	-0.051	-0.003
-304.837	-11.499	0.065	0.043
-303.822	-43.021	0.374	-0.189
-302.807	-15.002	-0.342	-0.219
-301.793	71.868	-0.160	-0.166
-300.778	172.068	0.318	-0.456
-299.764	-200.000	0.003	0.322
-298.749	-182.055	-0.347	-0.007
-297.735	-200.000	0.026	-0.117
-296.720	-53.456	-0.064	-0.029
-295.705	114.299	0.145	0.176
-294.691	275.897	-0.158	0.280
-293.676	-163.241	0.143	-0.007
-292.662	343.265	0.104	-0.204
-291.647	-5.558	-0.160	0.110
-290.632	-103.872	0.447	0.104
-289.618	-63.441	0.298	0.122
-288.603	-200.000	0.004	0.024
-287.589	186.653	0.184	0.273
-286.574	-127.281	-0.130	0.019
-285.559	-140.516	-0.227	0.024
-284.545	-200.000	0.332	0.000
-283.530	75.894	0.093	0.098
-282.516	800.000	-0.115	-0.354
-281.501	54.840	0.082	-0.079
-280.486	-127.500	-0.207	0.030
-279.472	24.989	-0.121	0.100
-278.457	267.274	0.057	0.100
-277.443	-200.000	-0.049	0.551
-276.428	33.571	0.251	0.217
-275.413	-150.625	-0.156	0.012
-274.399	23.605	-0.202	-0.166
-273.384	-140.823	0.236	-0.024
-272.370	-106.094	-0.296	0.066
-271.355	133.816	0.068	-0.088
-270.340	-83.372	-0.166	0.053
-269.326	-118.973	-0.100	-0.018
-268.311	-180.339	-0.193	-0.004
-267.297	-84.139	0.241	0.076
-266.282	327.792	0.128	-0.246
-265.267	-200.000	-0.007	-0.489
-264.253	63.729	0.181	0.181
-263.238	23.211	0.067	0.055
-262.224	-200.000	0.028	0.366
-261.209	-200.000	0.023	-0.137
-260.195	-8.430	0.088	0.059
-259.180	186.370	0.051	0.075
-258.165	224.130	-0.063	-0.101
-257.151	-106.574	0.243	0.054
-256.136	104.226	-0.154	0.180
-255.122	-200.000	-0.013	0.194
-254.107	309.241	-0.088	0.165
-253.092	-185.270	0.404	0.006
-252.078	392.744	-0.168	0.349
-251.063	800.000	0.048	-0.165
-250.049	494.628	-0.042	0.096
-249.034	-200.000	-0.023	0.193
-248.019	8.747	-0.153	-0.115
-247.005	-200.000	-0.023	0.233
-245.990	-200.000	-0.009	0.055
-244.976	-200.000	-0.011	0.242
-243.961	23.806	0.142	0.117
-242.946	274.516	-0.085	-0.150
-241.932	-32.361	-0.112	0.062
-240.917	-58.343	-0.216	-0.093
-239.903	-200.000	0.047	-0.290
-238.888	57.292	0.134	0.130
-237.873	-124.487	-0.231	0.036
-236.859	-92.980	0.177	0.049
-235.844	800.000	-0.047	-0.160
-234.830	-200.000	-0.007	-0.320
-233.815	169.002	-0.141	-0.201
-232.800	-73.426	0.194	0.070
-231.786	364.289	-0.136	-0.273
-230.771	20.564	0.211	-0.170
-229.757	361.853	0.115	-0.229
-228.742	-124.495	-0.313	0.048
-227.727	285.969	-0.059	0.106
-226.713	-77.201	0.149	-0.052
-225.698	-89.771	0.184	0.054
-224.684	-0.248	-0.287	0.203
-223.669	226.804	0.112	-0.181
-222.655	128.487	0.127	-0.161
-221.640	-115.738	-0.127	0.024
-220.625	-81.899	-0.143	0.046
-219.611	-200.000	0.053	0.263
-218.596	278.930	0.054	-0.095
-217.582	-95.374	0.402	-0.107
-216.567	5.068	0.200	0.147
-215.552	-200.000	-0.011	0.328
-214.538	-106.660	0.101	0.022
-213.523	800.000	-0.028	-0.107
-212.509	172.259	-0.176	0.252
-211.494	-65.323	0.156	0.062
-210.479	800.000	-0.101	-0.402
-209.465	-200.000	0.026	-0.125
-208.450	-75.672	0.346	-0.122
-207.436	-78.467	0.032	-0.011
-206.421	-200.000	-0.035	-0.169
-205.406	-41.775	-0.228	0.116
-204.392	-50.742	0.135	-0.063
-203.377	203.235	0.234	-0.360
-202.363	37.604	0.090	0.080
-201.348	-2.264	-0.264	-0.184
-200.333	323.930	0.055	0.104
-199.319	126.609	-0.153	0.193
-198.304	-51.069	0.216	-0.101
-197.290	800.000	0.055	-0.218
-196.275	-91.604	-0.429	-0.121
-195.260	-200.000	-0.028	0.319
-194.246	-200.000	0.023	-0.216
-193.231	133.688	0.144	0.185
-192.217	800.000	-0.094	0.358
-191.202	800.000	0.037	0.104
-190.187	-22.849	-0.105	-0.063
-189.173	-200.000	0.032	-0.201
-188.158	126.232	0.094	0.118
-187.144	-200.000	0.033	-0.162
-186.129	-139.534	0.176	0.019
-185.114	-45.382	0.281	0.138
-184.100	-11.534	0.246	-0.161
-183.085	155.487	-0.172	0.235
-182.071	572.258	0.066	0.160
-181.056	163.564	0.182	-0.254
-180.042	-186.861	0.160	0.002
-179.027	-7.074	0.280	-0.188
-178.012	-134.443	-0.287	0.035
-176.998	-48.973	-0.138	0.065
-175.983	-52.333	0.258	0.118
-174.969	-200.000	-0.022	-0.107
-173.954	-200.000	-0.026	0.000
-172.939	-200.000	-0.023	-0.231
-171.925	243.908	-0.057	-0.094
-170.910	97.826	0.222	-0.253
-169.896	-60.176	-0.194	-0.082
-168.881	267.787	0.033	0.058
-167.866	-200.000	-0.028	-0.169
-166.852	463.493	-0.052	0.115
-165.837	-179.528	0.123	0.003
-164.823	6.840	-0.206	-0.152
-163.808	-9.941	-0.070	-0.046
-162.793	0.368	0.087	-0.061
-161.779	139.053	0.069	0.090
-160.764	800.000	-0.049	0.136
-159.750	290.008	0.125	0.225
-158.735	800.000	0.029	0.089
-157.720	-200.000	-0.007	0.387
-156.706	-30.348	0.062	-0.035
-155.691	-27.870	-0.149	0.086
-154.677	-153.585	-0.201	0.014
-153.662	-119.034	-0.172	0.030
-152.647	294.940	-0.087	0.158
-151.633	-103.277	-0.454	0.106
-150.618	-76.084	0.177	0.062
-149.604	-200.000	0.025	0.218
-148.589	-45.841	-0.261	0.128
-147.574	-73.805	0.224	0.081
-146.560	473.519	0.013	-0.028
-145.545	800.000	0.058	-0.160
-144.531	-79.949	-0.062	-0.021
-143.516	-194.042	0.180	0.001
-142.502	109.733	0.115	-0.136
-141.487	800.000	-0.092	-0.265
-140.472	-200.000	0.034	0.162
-139.458	800.000	0.024	-0.075
-138.443	-149.749	0.135	0.011
-137.429	-57.548	-0.463	0.201
-136.414	-200.000	0.017	-0.172
-135.399	-200.000	-0.027	-0.191
-134.385	-69.956	0.187	-0.071
-133.370	-110.190	0.099	-0.020
-132.356	-48.101	0.259	0.124
-131.341	107.954	-0.157	0.185
-130.326	400.162	-0.134	-0.278
-129.312	-170.618	0.026	0.001
-128.297	-200.000	0.048	0.262
-127.283	-93.850	0.147	-0.040
-126.268	-122.864	0.193	0.031
-125.253	-200.000	0.008	0.234
-124.239	-200.000	0.038	-0.231
-123.224	-113.988	0.381	-0.073
-122.210	59.206	-0.194	0.189
-121.195	-200.000	0.068	-0.350
-120.180	-104.925	-0.170	-0.039
-119.166	323.678	0.200	0.378
-118.151	800.000	-0.079	0.254
-117.137	-158.888	-0.166	-0.009
-116.122	-200.000	0.046	0.416
-115.107	96.765	0.088	0.100
-114.093	-49.613	0.267	0.126
-113.078	800.000	-0.036	0.136
-112.064	-47.060	-0.117	0.057
-111.049	5.041	-0.166	0.121
-110.034	-135.962	-0.220	0.026
-109.020	-200.000	-0.012	0.134
-108.005	-102.062	0.209	0.050
-106.991	-49.191	-0.248	-0.117
-105.976	162.674	0.180	0.250
-104.962	346.594	-0.079	0.153
-103.947	3.749	-0.083	-0.060
-102.932	42.902	-0.180	0.163
-101.918	-114.224	0.108	0.021
-100.903	-200.000	0.010	0.097
-99.889	156.688	0.167	-0.228
-98.874	-111.207	0.606	-0.123
-97.859	-60.054	-0.064	-0.027
-96.845	-64.839	0.366	-0.147
-95.830	-93.760	0.130	-0.035
-94.816	374.858	0.140	-0.282
-93.801	18.920	-0.247	0.195
-92.786	374.891	0.158	0.319
-91.772	-200.000	0.009	-0.082
-90.757	136.414	0.101	0.130
-89.743	131.805	-0.224	-0.285
-88.728	143.488	0.173	0.228
-87.713	-127.343	-0.215	0.031
-86.699	-40.977	0.143	0.073
-85.684	120.815	0.177	0.218
-84.670	44.523	0.225	0.204
-83.655	-66.987	-0.158	0.062
-82.640	-158.396	-0.072	0.004
-81.626	109.883	0.067	0.079
-80.611	88.114	-0.145	0.159
-79.597	10.624	-0.270	-0.203
-78.582	-156.513	0.010	0.001
-77.567	262.927	-0.098	0.168
-76.553	-85.742	0.097	0.030
-75.538	-7.471	-0.119	-0.080
-74.524	-136.998	0.169	0.019
-73.509	-31.367	0.094	0.052
-72.494	217.306	0.152	-0.240
-71.480	-21.973	0.288	0.173
-70.465	800.000	0.010	-0.035
-69.451	134.885	-0.125	-0.161
-68.436	-69.589	0.379	0.143
-67.422	123.893	0.227	-0.282
-66.407	116.968	0.049	-0.060
-65.392	215.248	0.155	0.243
-64.378	-60.748	0.325	0.136
-63.363	82.656	-0.162	-0.174
-62.349	280.217	0.097	0.172
-61.334	-17.548	-1.014	-0.630
-60.319	138.088	0.301	0.390
-59.305	589.581	-0.334	-0.813
-58.290	348.324	0.453	0.882
-57.276	745.184	0.705	1.874
-56.261	-200.000	94.691	575.300
-55.246	566.639	1367.802	3279.005
-54.232	153.572	2577.806	3487.746
-53.217	116.157	2182.893	2641.030
-52.203	46.132	1721.502	1574.799
-51.188	38.629	1532.557	1350.431
-50.173	36.167	1504.675	1309.120
-49.159	55.253	1555.057	1485.107
-48.144	59.426	1574.364	1532.266
-47.130	39.093	1529.056	1350.323
-46.115	35.845	1514.025	1314.850
-45.100	35.605	1510.608	1310.190
-44.086	35.530	1508.908	1308.157
-43.071	35.538	1506.906	1306.421
-42.057	35.396	1505.531	1304.213
-41.042	35.498	1503.792	1303.349
-40.027	35.389	1503.005	1301.875
-39.013	35.435	1500.943	1300.350
-37.998	35.460	1499.745	1299.430
-36.984	35.454	1499.030	1298.716
-35.969	35.469	1497.491	1297.429
-34.954	35.544	1495.510	1296.173
-33.940	35.544	1494.097	1294.895
-32.925	35.469	1493.082	1293.461
-31.911	35.453	1491.963	1292.332
-30.896	35.660	1490.238	1292.176
-29.881	35.543	1489.130	1290.381
-28.867	35.506	1488.093	1289.178
-27.852	35.568	1486.280	1287.976
-26.838	35.642	1484.677	1287.029
-25.823	35.496	1483.487	1284.968
-24.809	35.562	1481.392	1283.547
-23.794	35.580	1480.067	1282.466
-22.779	35.507	1479.261	1281.227
-21.765	35.484	1478.234	1280.134
-20.750	35.560	1476.573	1279.151
-19.736	35.563	1475.788	1278.439
-18.721	35.475	1474.977	1277.106
-17.706	35.427	1473.970	1275.859
-16.692	35.541	1472.823	1275.573
-15.677	35.493	1471.896	1274.402
-14.663	35.481	1471.219	1273.690
-13.648	35.470	1469.546	1272.117
-12.633	35.483	1468.932	1271.618
-11.619	35.482	1468.516	1271.202
-10.604	35.464	1467.086	1269.797
-9.590	35.501	1466.525	1269.505
-8.575	35.509	1465.635	1268.735
-7.560	35.557	1464.282	1267.829
-6.546	35.468	1463.706	1266.692
-5.531	35.400	1463.033	1265.614
-4.517	35.508	1461.836	1265.242
-3.502	35.422	1460.960	1263.861
-2.487	35.495	1459.774	1263.269
-1.473	35.384	1458.896	1261.732
-0.458	35.486	1457.002	1260.713
0.556	35.481	1447.693	1249.020
1.571	32.776	1422.001	1209.428
2.586	29.394	1361.457	1137.028
3.600	27.650	1279.296	1058.207
4.615	26.358	1232.614	1012.271
5.629	22.327	1175.419	943.645
6.644	11.613	1087.135	819.255
7.659	3.281	1042.835	745.596
8.673	1.983	1037.198	735.246
9.688	1.775	1034.147	732.020
10.702	1.725	1032.487	730.538
11.717	1.638	1031.005	729.008
12.731	5.396	1035.495	750.176
13.746	15.679	1049.483	810.022
14.761	23.145	1059.334	853.721
15.775	24.631	1060.127	861.458
16.790	24.708	1060.253	861.851
17.804	24.692	1058.949	860.638
18.819	24.478	1058.241	858.958
19.834	24.556	1057.721	858.836
20.848	24.659	1057.130	858.772
21.863	24.734	1056.684	858.696
22.877	24.676	1056.580	858.258
23.892	24.716	1055.297	857.328
24.907	24.644	1054.827	856.529
25.921	24.681	1054.331	856.226
26.936	24.602	1053.599	855.179
27.950	24.596	1052.368	854.076
28.965	24.610	1051.205	853.124
29.980	24.444	1049.736	851.065
30.994	24.398	1048.457	849.734
32.009	24.629	1048.048	850.424
33.023	24.867	1046.929	850.573
34.038	24.612	1045.939	848.483
35.053	24.511	1045.375	847.472
36.067	24.490	1044.952	846.954
37.082	24.695	1044.107	847.163
38.096	24.695	1043.286	846.422
39.111	24.898	1042.317	846.525
40.126	24.910	1041.736	846.034
41.140	24.835	1040.196	844.355
42.155	24.602	1038.886	842.118
43.169	24.232	1038.052	839.622
44.184	24.154	1037.042	838.366
45.199	24.341	1035.965	838.300
46.213	24.242	1034.830	836.843
47.228	24.206	1033.954	835.889
48.242	24.486	1033.222	836.539
49.257	24.443	1032.998	836.082
50.271	24.433	1031.990	835.142
51.286	24.626	1031.289	835.404
52.301	24.575	1030.591	834.528
53.315	24.640	1029.904	834.201
54.330	24.771	1028.608	833.688
55.344	24.660	1027.829	832.465
56.359	24.642	1027.170	831.777
57.374	24.724	1026.224	831.316
58.388	24.360	1025.511	828.976
59.403	24.336	1024.689	828.127
60.417	24.489	1024.053	828.247
61.432	24.121	1023.373	825.918
62.447	24.193	1023.027	825.899
63.461	24.336	1022.029	825.683
64.476	24.457	1021.365	825.632
65.490	24.526	1019.902	824.695
66.505	24.225	1019.565	822.959
67.520	24.330	1018.516	822.525
68.534	24.358	1018.182	822.312
69.549	24.226	1017.202	820.841
70.563	23.976	1015.720	818.423
71.578	23.781	1015.389	817.184
72.593	23.899	1014.656	817.065
73.607	23.789	1013.343	815.432
74.622	23.796	1011.915	814.241
75.636	24.056	1011.708	815.195
76.651	24.183	1010.801	814.973
77.666	24.222	1009.895	814.346
78.680	24.065	1008.867	812.730
79.695	24.072	1008.569	812.450
80.709	24.159	1008.024	812.337
81.724	24.187	1007.442	811.924
82.739	24.198	1006.731	811.328
83.753	24.220	1005.647	810.484
84.768	24.429	1005.122	810.936
85.782	24.894	1004.188	812.222
86.797	25.111	1003.716	812.755
87.812	24.900	1002.884	811.053
88.826	24.711	1001.841	809.281
89.841	24.709	1001.035	808.550
90.855	24.950	999.944	808.684
91.870	24.850	999.578	807.864
92.884	24.828	998.755	807.030
93.899	24.794	998.099	806.274
94.914	24.811	996.590	805.061
95.928	24.673	996.650	804.419
96.943	24.733	995.701	803.851
97.957	24.673	994.243	802.332
98.972	24.351	993.212	799.984
99.987	24.218	992.158	798.472
101.001	24.248	991.418	797.939
102.016	24.450	991.316	798.689
103.030	24.627	990.162	798.480
104.045	24.593	989.010	797.328
105.060	24.441	988.283	795.995
106.074	24.154	987.051	793.654
107.089	24.130	986.220	792.810
108.103	24.648	985.924	794.804
109.118	24.809	984.503	794.304
110.133	24.455	983.832	792.120
111.147	24.334	982.671	790.581
112.162	24.245	981.756	789.379
113.176	24.170	980.278	787.792
114.191	24.246	979.617	787.523
115.206	24.222	979.277	787.075
116.220	24.051	977.536	784.855
117.235	23.744	977.428	783.342
118.249	24.095	976.027	783.695
119.264	24.031	976.188	783.474
120.279	23.934	974.736	781.814
121.293	23.842	974.140	780.863
122.308	23.860	973.907	780.686
123.322	24.020	972.853	780.471
124.337	24.065	971.080	779.179
125.352	23.874	970.013	777.418
126.366	23.375	969.034	774.384
127.381	23.167	967.375	772.084
128.395	23.756	967.200	774.445
129.410	24.406	966.893	776.962
130.424	24.551	966.094	776.883
131.439	24.499	965.534	776.137
132.454	24.537	964.326	775.263
133.468	24.464	963.418	774.146
134.483	24.382	962.848	773.263
135.497	24.464	962.161	772.999
136.512	24.767	961.544	773.748
137.527	24.723	961.044	773.084
138.541	24.849	959.591	772.390
139.556	24.809	959.250	771.877
140.570	24.825	958.433	771.220
141.585	24.717	957.657	770.063
142.600	24.829	957.243	770.141
143.614	24.723	956.012	768.628
144.629	24.800	955.641	768.593
145.643	25.012	954.730	768.701
146.658	24.915	953.732	767.417
147.673	24.829	952.093	765.659
148.687	24.565	950.774	763.405
149.702	24.699	949.870	763.183
150.716	24.669	948.667	762.021
151.731	24.470	948.048	760.608
152.746	24.613	947.249	760.507
153.760	24.735	946.922	760.696
154.775	24.912	946.260	760.849
155.789	24.848	945.478	759.884
156.804	24.933	944.808	759.636
157.819	24.980	943.015	758.328
158.833	24.884	942.592	757.514
159.848	24.999	941.839	757.330
160.862	25.160	940.874	757.166
161.877	24.940	940.292	755.700
162.892	24.872	939.269	754.525
163.906	24.777	938.615	753.534
164.921	24.884	937.721	753.199
165.935	24.797	936.557	751.833
166.950	24.828	935.804	751.290
167.964	24.951	934.691	750.847
168.979	24.978	933.606	750.023
169.994	24.743	932.682	748.229
171.008	24.716	931.580	747.169
172.023	24.800	931.042	747.023
173.037	25.063	930.424	747.556
174.052	24.723	929.334	745.198
175.067	24.595	928.097	743.608
176.081	24.538	927.641	742.940
177.096	24.741	926.516	742.816
178.110	24.694	926.096	742.216
179.125	24.576	925.112	740.873
180.140	24.287	923.632	738.428
181.154	24.109	923.288	737.351
182.169	24.398	922.729	738.032
183.183	24.591	922.272	738.402
184.198	24.866	922.133	739.359
185.213	24.851	921.591	738.797
186.227	24.671	920.977	737.497
187.242	24.825	920.086	737.353
188.256	24.855	919.604	737.027
189.271	24.922	918.637	736.461
190.286	25.015	918.016	736.280
191.300	24.806	917.045	734.578
192.315	24.091	915.663	730.475
193.329	23.555	914.066	726.938
194.344	23.075	912.918	723.999
195.359	23.628	913.407	726.585
196.373	24.509	913.795	730.435
197.388	24.905	913.251	731.555
198.402	24.695	912.639	730.141
199.417	24.589	912.183	729.280
200.432	24.716	911.722	729.365
201.446	24.666	910.669	728.255
202.461	24.223	910.296	726.087
203.475	24.399	909.570	726.162
204.490	23.929	908.092	723.008
205.504	22.800	906.123	716.794
206.519	23.249	905.791	718.290
207.534	24.208	906.266	722.491
208.548	24.343	905.544	722.402
209.563	24.706	905.404	723.693
210.577	24.708	904.584	722.982
211.592	24.530	903.813	721.584
212.607	24.896	904.167	723.280
213.621	25.111	903.239	723.342
214.636	24.788	903.033	721.810
215.650	25.046	902.160	722.090
216.665	24.883	901.845	721.116
217.680	24.855	901.271	720.479
218.694	24.960	900.907	720.550
219.709	24.715	899.457	718.342
220.723	24.454	898.704	716.627
221.738	24.379	898.886	716.410
222.753	24.752	897.998	717.135
223.767	24.880	896.913	716.717
224.782	24.727	896.433	715.657
225.796	24.819	896.386	715.925
226.811	24.990	895.402	715.759
227.826	24.702	894.314	713.675
228.840	23.837	892.365	708.610
229.855	23.745	892.088	707.962
230.869	23.836	892.208	708.356
231.884	23.709	890.716	706.602
232.899	23.687	890.327	706.143
233.913	24.572	890.522	709.755
234.928	24.771	890.058	710.113
235.942	24.637	889.273	708.892
236.957	24.736	888.090	708.278
237.972	24.324	887.794	706.349
238.986	24.270	887.022	705.458
240.001	24.357	886.562	705.375
241.015	24.411	885.820	704.934
242.030	24.462	885.346	704.695
243.045	24.626	885.105	705.088
244.059	24.725	884.203	704.698
245.074	24.883	883.468	704.670
246.088	24.775	883.234	703.997
247.103	24.528	882.361	702.270
248.117	24.415	881.592	701.150
249.132	24.945	882.040	703.528
250.147	25.348	881.739	704.809
251.161	25.303	881.147	704.096
252.176	25.566	880.511	704.556
253.190	25.697	879.791	704.430
254.205	25.623	879.277	703.668
255.220	25.713	879.239	703.925
256.234	25.818	878.626	703.785
257.249	25.553	878.051	702.225
258.263	25.556	877.334	701.601
259.278	25.568	876.377	700.820
260.293	25.591	876.194	700.704
261.307	25.561	875.785	700.195
262.322	25.468	875.220	699.322
263.336	25.363	874.286	698.104
264.351	25.129	872.613	695.798
265.366	23.959	870.710	689.686
266.380	23.517	869.766	687.165
267.395	24.459	869.997	690.937
268.409	25.130	870.553	693.916
269.424	25.260	869.548	693.556
270.439	25.335	869.283	693.570
271.453	25.447	868.641	693.430
272.468	25.342	868.080	692.516
273.482	25.550	867.551	692.836
274.497	25.679	867.328	693.093
275.512	25.507	866.392	691.622
276.526	24.819	865.307	688.050
277.541	25.123	864.828	688.773
278.555	25.553	864.374	690.002
279.570	25.303	863.892	688.599
280.585	25.244	862.801	687.443
281.599	25.157	862.509	686.815
282.614	25.234	862.361	686.932
283.628	24.933	860.927	684.578
284.643	24.449	860.107	682.015
285.657	24.889	860.237	683.740
286.672	24.771	859.306	682.490
287.687	24.352	858.189	679.946
288.701	24.701	858.308	681.308
289.716	24.979	858.058	682.108
290.730	24.643	857.048	679.967
291.745	24.672	856.396	679.499
292.760	24.480	855.364	677.893
293.774	24.480	854.632	677.253
294.789	25.271	855.669	681.016
295.803	25.923	855.548	683.335
296.818	25.830	855.243	682.675
297.833	25.926	854.932	682.731
298.847	25.683	853.525	680.628
299.862	25.484	852.628	679.101
300.876	25.549	852.014	678.797
301.891	25.902	851.818	679.912
302.906	25.862	851.256	679.256
303.920	25.716	849.869	677.538
304.935	25.458	849.252	676.016
305.949	25.817	848.910	677.033
306.964	25.933	848.816	677.336
307.979	25.742	847.875	675.805
308.993	25.598	847.565	674.957
310.008	25.880	847.381	675.809
311.022	26.146	846.940	676.396
312.037	25.942	846.239	675.013
313.052	25.740	845.701	673.767
314.066	25.564	844.683	672.240
315.081	24.926	843.186	668.608
316.095	24.172	842.382	665.095
317.110	24.795	842.223	667.236
318.125	25.531	842.327	670.002
319.139	25.184	841.723	668.172
320.154	24.244	839.432	662.801
321.168	23.601	838.885	659.918
322.183	24.233	839.094	662.375
323.197	25.058	839.761	665.911
324.212	25.375	839.191	666.575
325.227	25.451	838.661	666.378
326.241	25.726	838.365	667.102
327.256	25.702	837.746	666.464
328.270	25.463	837.214	665.094
329.285	25.517	836.437	664.620
330.300	25.486	835.470	663.677
331.314	25.145	834.969	661.961
332.329	25.035	834.442	661.081
333.343	25.666	833.845	662.872
334.358	25.690	834.023	663.046
335.373	25.739	833.322	662.610
336.387	25.844	832.951	662.641
337.402	26.076	832.563	663.127
338.416	26.481	831.602	663.791
339.431	26.163	831.680	662.627
340.446	26.194	830.857	662.024
341.460	26.512	830.492	662.842
342.475	26.497	829.840	662.207
343.489	26.172	829.000	660.291
344.504	26.099	828.953	659.927
345.519	26.381	828.564	660.588
346.533	26.618	827.905	660.871
347.548	26.737	827.461	660.891
348.562	26.605	827.181	660.129
349.577	26.679	826.642	659.912
350.592	26.581	825.865	658.873
351.606	26.394	825.905	658.167
352.621	26.494	825.333	658.017
353.635	26.441	824.253	656.907
354.650	26.333	823.780	656.077
355.665	26.074	822.874	654.361
356.679	24.964	821.552	649.228
357.694	24.904	820.765	648.331
358.708	25.543	820.711	650.546
359.723	25.504	819.979	649.767
360.738	25.730	819.700	650.305
361.752	26.143	820.215	652.148
362.767	26.274	819.658	652.120
363.781	26.644	819.253	653.073
364.796	26.964	818.851	653.848
365.810	26.882	819.088	653.684
366.825	26.914	818.721	653.450
367.840	26.975	818.502	653.437
368.854	26.809	817.480	651.965
369.869	26.385	816.588	649.672
370.883	26.164	815.991	648.348
371.898	26.292	815.208	648.127
372.913	26.254	814.717	647.544
373.927	26.286	813.905	646.954
374.942	26.535	813.255	647.272
375.956	26.576	812.640	646.871
376.971	26.555	812.714	646.799
377.986	26.740	811.775	646.656
379.000	26.843	811.858	647.031
380.015	26.873	811.129	646.498
381.029	26.723	810.239	645.200
382.044	26.722	809.722	644.729
383.059	26.808	809.745	644.993
384.073	27.084	808.745	645.119
385.088	26.866	808.571	644.149
386.102	26.894	808.055	643.783
387.117	26.609	807.417	642.206
388.132	26.468	806.775	641.140
389.146	26.450	806.063	640.454
390.161	25.929	804.821	637.565
391.175	25.919	804.928	637.559
392.190	26.643	804.553	639.766
393.205	26.603	804.092	639.202
394.219	25.577	802.387	634.172
395.234	23.927	800.178	626.565
396.248	23.062	799.156	622.664
397.263	24.275	799.950	627.498
398.278	25.969	801.248	634.427
399.292	26.586	801.003	636.348
400.307	26.154	800.545	634.410
401.321	26.088	800.014	633.700
402.336	26.183	799.681	633.712
403.350	26.600	799.477	634.958
404.365	26.950	799.572	636.207
405.380	27.257	799.346	637.044
406.394	27.553	798.930	637.692
407.409	27.790	798.927	638.462
408.423	27.631	798.026	637.132
409.438	27.662	797.584	636.828
410.453	27.674	796.959	636.315
411.467	27.706	797.035	636.432
412.482	27.390	796.387	634.758
413.496	27.451	795.921	634.543
414.511	27.686	795.446	634.926
415.526	27.744	794.831	634.580
416.540	27.531	794.669	633.655
417.555	27.507	793.958	632.947
418.569	27.261	793.506	631.678
419.584	27.124	793.111	630.832
420.599	27.351	792.361	630.966
421.613	107.171	1278.539	1439.695
422.628	92.121	1349.372	1439.803
