DTS Sentinel unit serial number:	SN413079Multiplexer serial number:	ORYXHardware model number:	OX4-SRSoftware version number:	ORYX F/W v4.00 Oryx Data Collector v3.7.2.0data status	okinstallation	princeton_trtdifferential loss correction	single-endedforward channel	channel 3reverse channel	N/Adate	2019/09/11time	05:34:10forward acquisition time	60.00reverse acquisition time	0.00gamma	496.2192k internal	0.2330k external	0.2330temperature offset calibration	0.9913default loss term (dB/km)	0.3790temperature slope calibration	1.0000multiplexer offset coefficient	1.0000multiplexer slope coefficient	1.0000fibre end	0.00T internal ref (°C)	29.41T ext. ref 1 (°C)	-0.25T ext. ref 2 (°C)	23.48length (m)	temperature (°C)	Stokes	anti-Stokes-747.200	-140.083	0.144	0.015
-746.185	-200.000	0.024	0.280
-745.171	-46.997	0.240	0.118
-744.156	79.780	0.263	0.284
-743.142	-8.892	-0.082	-0.055
-742.127	557.665	0.052	-0.126
-741.112	330.745	-0.092	0.178
-740.098	152.215	0.326	0.448
-739.083	-112.758	0.361	-0.072
-738.069	91.792	0.291	0.329
-737.054	450.043	0.093	-0.206
-736.039	6.615	-0.432	-0.323
-735.025	750.158	-0.132	0.358
-734.010	-8.237	-0.116	0.079
-732.996	-100.095	-0.272	-0.068
-731.981	375.820	-0.062	-0.128
-730.966	-19.516	-0.300	-0.187
-729.952	147.139	-0.153	-0.207
-728.937	-200.000	-0.011	-0.087
-727.923	4.025	-0.102	-0.075
-726.908	34.017	0.220	0.193
-725.894	-200.000	0.000	0.048
-724.879	-123.933	-0.126	0.020
-723.864	33.686	0.319	0.279
-722.850	327.342	-0.214	-0.412
-721.835	93.049	0.160	0.182
-720.821	22.038	-0.181	-0.149
-719.806	3.336	-0.067	-0.049
-718.791	28.170	-0.067	-0.057
-717.777	800.000	-0.084	0.249
-716.762	52.124	-0.263	-0.252
-715.748	-107.102	0.066	0.015
-714.733	-102.102	-0.211	0.051
-713.718	-120.939	-0.237	-0.040
-712.704	83.754	0.215	-0.236
-711.689	800.000	-0.092	-0.387
-710.675	-95.632	-0.262	0.071
-709.660	-147.676	0.192	0.016
-708.645	800.000	-0.077	0.274
-707.631	-200.000	0.021	-0.156
-706.616	800.000	0.056	-0.174
-705.602	-80.816	-0.126	-0.042
-704.587	137.205	0.222	-0.292
-703.572	508.353	-0.138	-0.322
-702.558	-200.000	-0.063	-0.340
-701.543	-54.891	0.218	-0.099
-700.529	-52.068	-0.292	0.136
-699.514	-200.000	-0.175	0.000
-698.499	49.084	0.182	0.172
-697.485	-200.000	-0.013	0.151
-696.470	-200.000	-0.005	0.222
-695.456	-200.000	-0.011	-0.234
-694.441	174.349	-0.128	-0.186
-693.426	353.971	-0.163	0.325
-692.412	-200.000	0.069	0.534
-691.397	-31.437	-0.244	-0.138
-690.383	-12.917	0.302	-0.198
-689.368	397.382	-0.077	-0.162
-688.354	-200.000	-0.019	-0.109
-687.339	-50.119	-0.131	-0.062
-686.324	-34.848	0.174	-0.095
-685.310	-200.000	-0.005	0.177
-684.295	-97.074	0.402	-0.106
-683.281	800.000	-0.085	0.243
-682.266	117.947	0.197	-0.244
-681.251	103.577	-0.053	-0.063
-680.237	-200.000	0.021	-0.190
-679.222	-200.000	0.011	-0.221
-678.208	265.507	-0.107	-0.188
-677.193	-7.619	0.088	0.060
-676.178	-56.519	-0.191	0.085
-675.164	-0.466	0.217	0.155
-674.149	203.329	0.065	-0.100
-673.135	6.259	-0.283	0.211
-672.120	691.029	0.128	0.336
-671.105	-33.237	-0.290	-0.161
-670.091	-0.767	-0.128	-0.091
-669.076	119.022	0.197	-0.244
-668.062	499.864	-0.074	-0.172
-667.047	618.046	0.018	0.046
-666.032	-19.199	0.048	0.030
-665.018	-168.017	0.401	0.016
-664.003	-67.831	-0.373	-0.146
-662.989	-18.644	0.265	-0.166
-661.974	9.213	-0.250	-0.189
-660.959	-125.976	-0.119	0.018
-659.945	-118.705	0.158	-0.028
-658.930	-129.605	-0.258	-0.036
-657.916	-200.000	-0.012	-0.104
-656.901	-164.489	-0.155	-0.007
-655.886	308.388	-0.116	0.217
-654.872	267.838	0.058	-0.102
-653.857	1.592	0.252	-0.182
-652.843	-142.117	-0.487	0.049
-651.828	110.154	0.275	-0.332
-650.814	-200.000	-0.077	0.000
-649.799	800.000	0.088	0.271
-648.784	-71.548	-0.121	0.045
-647.770	-106.239	0.503	-0.113
-646.755	183.607	-0.117	0.174
-645.741	800.000	-0.029	0.111
-644.726	185.220	-0.113	-0.168
-643.711	272.320	0.034	-0.060
-642.697	-87.963	-0.296	-0.089
-641.682	-124.112	-0.185	-0.029
-640.668	652.735	-0.083	0.213
-639.653	-61.873	-0.059	0.025
-638.638	79.848	0.055	0.059
-637.624	-134.204	-0.177	0.022
-636.609	-5.966	-0.219	-0.150
-635.595	-200.000	-0.026	-0.276
-634.580	90.338	0.174	0.195
-633.565	-2.116	-0.175	0.123
-632.551	73.475	0.046	0.049
-631.536	90.406	0.151	-0.169
-630.522	-200.000	-0.007	0.195
-629.507	122.475	-0.262	0.328
-628.492	-107.149	-0.061	0.014
-627.478	-154.631	-0.147	-0.010
-626.463	-114.855	-0.206	-0.039
-625.449	-0.771	0.415	-0.295
-624.434	704.786	0.057	-0.152
-623.419	26.922	-0.126	-0.106
-622.405	438.843	0.053	-0.115
-621.390	-200.000	0.021	-0.187
-620.376	-67.179	0.076	0.030
-619.361	97.290	-0.248	-0.286
-618.346	211.096	-0.151	0.238
-617.332	-148.645	-0.448	-0.037
-616.317	28.030	-0.145	0.122
-615.303	207.554	0.028	-0.044
-614.288	38.074	0.164	0.146
-613.273	-142.796	0.257	-0.025
-612.259	-170.146	-0.154	-0.005
-611.244	-57.258	0.249	0.110
-610.230	-200.000	0.060	0.268
-609.215	-120.753	-0.345	-0.058
-608.201	120.332	-0.075	0.093
-607.186	58.355	-0.031	0.031
-606.171	-200.000	0.022	-0.301
-605.157	216.645	-0.039	-0.062
-604.142	0.389	0.210	-0.150
-603.128	149.363	0.200	-0.272
-602.113	20.353	0.142	0.115
-601.098	-117.975	0.097	0.017
-600.084	291.385	0.170	0.311
-599.069	800.000	0.060	-0.193
-598.055	333.000	0.180	-0.349
-597.040	-200.000	0.036	-0.276
-596.025	294.336	0.093	-0.169
-595.011	-137.368	-0.332	-0.038
-593.996	17.742	-0.032	0.026
-592.982	222.341	-0.096	-0.155
-591.967	50.432	0.339	0.320
-590.952	-61.871	0.068	0.029
-589.938	-32.345	-0.312	-0.174
-588.923	26.211	-0.061	-0.051
-587.909	800.000	-0.091	0.290
-586.894	-129.159	0.438	0.061
-585.879	800.000	0.051	-0.161
-584.865	-200.000	-0.012	-0.059
-583.850	-186.366	0.074	0.001
-582.836	800.000	-0.125	-0.369
-581.821	259.330	-0.134	-0.231
-580.806	-200.000	0.019	0.114
-579.792	-15.868	0.125	-0.080
-578.777	-27.145	0.225	-0.131
-577.763	98.843	0.068	0.078
-576.748	26.354	-0.289	0.242
-575.733	800.000	-0.080	-0.263
-574.719	79.396	-0.143	0.154
-573.704	-68.708	0.142	0.055
-572.690	800.000	-0.062	0.223
-571.675	49.325	-0.064	-0.060
-570.661	-39.632	0.181	-0.094
-569.646	800.000	0.072	-0.232
-568.631	171.586	-0.112	0.161
-567.617	268.491	-0.128	-0.224
-566.602	-164.520	-0.228	0.010
-565.588	751.094	-0.069	-0.185
-564.573	540.012	0.075	0.178
-563.558	543.535	-0.072	-0.172
-562.544	-200.000	0.056	-0.559
-561.529	-123.586	0.372	-0.059
-560.515	-17.416	-0.064	0.040
-559.500	55.491	-0.154	-0.149
-558.485	-159.387	-0.249	0.014
-557.471	426.737	-0.077	0.165
-556.456	628.113	0.080	-0.201
-555.442	194.651	0.183	-0.277
-554.427	-200.000	0.009	-0.199
-553.412	800.000	-0.095	-0.286
-552.398	800.000	-0.049	-0.208
-551.383	471.539	-0.118	0.266
-550.369	11.544	-0.111	0.085
-549.354	62.748	-0.123	-0.123
-548.339	800.000	-0.027	0.083
-547.325	385.425	0.138	0.285
-546.310	-83.756	-0.180	0.057
-545.296	121.245	-0.089	-0.111
-544.281	-103.176	0.224	0.053
-543.266	-200.000	0.021	-0.106
-542.252	-200.000	0.021	0.211
-541.237	169.474	0.048	-0.068
-540.223	555.772	-0.144	0.347
-539.208	16.702	0.176	-0.139
-538.193	364.608	0.152	-0.305
-537.179	-141.476	0.328	0.033
-536.164	-132.440	-0.250	-0.032
-535.150	38.863	0.254	-0.226
-534.135	-29.804	0.027	-0.015
-533.121	22.333	0.134	-0.110
-532.106	-131.674	0.196	-0.026
-531.091	-79.937	0.138	-0.046
-530.077	-170.726	-0.061	-0.002
-529.062	266.168	0.039	0.068
-528.048	-17.491	0.208	0.131
-527.033	800.000	0.092	0.308
-526.018	-80.854	0.266	0.088
-525.004	521.084	-0.110	-0.258
-523.989	9.628	-0.078	0.059
-522.975	-30.405	-0.223	-0.126
-521.960	-185.307	-0.316	0.005
-520.945	65.687	0.255	-0.258
-519.931	-182.805	0.106	0.002
-518.916	79.901	-0.167	-0.179
-517.902	99.895	-0.252	-0.291
-516.887	197.406	0.037	-0.057
-515.872	-36.994	0.136	-0.073
-514.858	-59.449	0.166	0.071
-513.843	-200.000	0.023	0.107
-512.829	-180.507	-0.186	-0.004
-511.814	-200.000	-0.017	-0.241
-510.799	174.341	0.168	0.242
-509.785	208.296	-0.118	0.184
-508.770	64.699	0.105	0.105
-507.756	-197.991	0.079	-0.000
-506.741	-97.285	0.080	-0.021
-505.726	-0.598	-0.116	-0.082
-504.712	-99.041	-0.199	-0.050
-503.697	158.503	-0.151	0.209
-502.683	-133.851	0.090	-0.011
-501.668	-137.397	0.334	0.038
-500.653	63.041	-0.060	-0.060
-499.639	296.810	0.037	-0.068
-498.624	-72.832	-0.243	0.089
-497.610	-52.872	-0.232	-0.107
-496.595	-200.000	-0.037	0.252
-495.581	-97.257	0.600	0.156
-494.566	-124.475	-0.283	-0.044
-493.551	-100.832	0.104	0.025
-492.537	-200.000	0.002	0.157
-491.522	385.324	0.077	0.157
-490.508	196.828	-0.074	-0.112
-489.493	-98.852	-0.352	0.089
-488.478	84.834	-0.163	-0.178
-487.464	-200.000	-0.051	0.316
-486.449	512.539	0.106	0.245
-485.435	62.283	0.161	0.160
-484.420	800.000	0.034	0.104
-483.405	520.359	-0.020	0.047
-482.391	-86.695	-0.418	0.127
-481.376	100.752	0.061	0.071
-480.362	91.598	0.108	0.121
-479.347	53.799	-0.150	-0.144
-478.332	-101.352	0.087	-0.021
-477.318	88.141	0.152	0.168
-476.303	-11.310	-0.082	0.054
-475.289	103.696	0.030	0.035
-474.274	0.180	0.240	0.171
-473.259	-171.343	-0.099	-0.003
-472.245	352.537	-0.171	-0.339
-471.230	61.276	-0.187	0.185
-470.216	-200.000	0.019	0.151
-469.201	168.469	-0.119	0.169
-468.186	-111.104	-0.095	0.019
-467.172	-200.000	0.017	-0.143
-466.157	357.510	0.164	-0.326
-465.143	111.740	0.005	-0.006
-464.128	-112.570	0.249	-0.050
-463.113	-34.784	0.414	-0.225
-462.099	800.000	-0.097	0.305
-461.084	156.687	-0.114	-0.157
-460.070	-200.000	0.006	-0.101
-459.055	71.612	-0.054	-0.056
-458.040	-200.000	-0.066	0.340
-457.026	-111.708	-0.310	0.063
-456.011	110.722	-0.074	-0.089
-454.997	-200.000	-0.014	-0.300
-453.982	-22.651	-0.149	0.090
-452.968	4.020	0.118	0.086
-451.953	-44.985	0.083	-0.041
-450.938	542.378	0.094	-0.224
-449.924	-37.309	-0.282	-0.150
-448.909	-129.245	0.197	0.027
-447.895	-35.138	-0.350	-0.190
-446.880	-200.000	-0.015	0.167
-445.865	-2.229	0.084	0.059
-444.851	207.568	-0.062	-0.096
-443.836	-89.685	0.501	0.146
-442.822	375.625	0.210	-0.425
-441.807	167.747	-0.217	0.306
-440.792	-200.000	-0.013	0.375
-439.778	-70.213	0.061	-0.023
-438.763	23.241	0.149	0.122
-437.749	-14.703	-0.094	0.060
-436.734	604.938	0.152	0.376
-435.719	-30.521	-0.166	-0.094
-434.705	92.220	0.104	-0.117
-433.690	-200.000	0.036	-0.208
-432.676	-116.532	0.184	0.034
-431.661	-139.154	-0.141	-0.015
-430.646	-131.002	-0.166	0.022
-429.632	-118.096	0.082	0.015
-428.617	800.000	-0.037	0.115
-427.603	120.023	-0.144	0.178
-426.588	-51.291	-0.240	0.112
-425.573	-200.000	0.034	-0.179
-424.559	-200.000	-0.034	0.424
-423.544	200.051	0.030	-0.046
-422.530	-200.000	0.003	-0.038
-421.515	316.865	0.165	-0.309
-420.500	319.301	0.062	0.117
-419.486	-149.825	-0.169	-0.013
-418.471	662.309	-0.104	-0.267
-417.457	-87.561	0.103	-0.031
-416.442	800.000	-0.037	-0.148
-415.428	151.525	0.180	0.244
-414.413	800.000	0.048	0.168
-413.398	104.405	0.191	0.223
-412.384	-114.661	-0.186	0.035
-411.369	334.351	-0.080	-0.154
-410.355	1.951	-0.227	-0.163
-409.340	-41.638	0.175	-0.090
-408.325	800.000	-0.045	-0.153
-407.311	2.146	-0.291	0.209
-406.296	40.476	-0.022	-0.019
-405.282	-47.543	-0.099	0.048
-404.267	86.403	-0.222	0.243
-403.252	800.000	0.129	0.443
-402.238	-200.000	0.035	-0.285
-401.223	71.300	-0.129	0.133
-400.209	120.234	0.150	0.185
-399.194	30.807	-0.164	-0.140
-398.179	-67.677	0.193	0.075
-397.165	44.008	-0.282	-0.257
-396.150	96.171	0.101	-0.115
-395.136	290.791	0.092	-0.166
-394.121	124.213	0.100	-0.124
-393.106	-127.794	-0.203	0.029
-392.092	-90.705	0.093	-0.027
-391.077	-200.000	0.019	-0.169
-390.063	-124.897	0.077	0.012
-389.048	-144.082	-0.186	-0.017
-388.033	39.281	0.175	0.156
-387.019	-200.000	0.020	-0.184
-386.004	-156.855	0.301	0.018
-384.990	-137.492	-0.076	0.008
-383.975	-200.000	-0.012	0.344
-382.960	395.493	-0.061	-0.126
-381.946	-54.819	-0.134	0.060
-380.931	-103.756	0.211	-0.049
-379.917	241.426	0.056	0.093
-378.902	-200.000	0.023	-0.234
-377.888	-51.499	0.171	-0.079
-376.873	1.312	-0.148	-0.105
-375.858	-200.000	0.006	-0.077
-374.844	-12.929	-0.144	0.093
-373.829	-110.385	0.137	0.028
-372.815	-23.749	0.289	-0.172
-371.800	-129.544	-0.361	0.050
-370.785	81.693	0.230	0.247
-369.771	-132.448	-0.046	0.006
-368.756	-200.000	-0.019	0.152
-367.742	-113.467	0.318	0.062
-366.727	-181.071	-0.322	0.006
-365.712	355.770	-0.002	0.004
-364.698	63.716	0.062	0.062
-363.683	-15.923	0.099	0.062
-362.669	-200.000	0.017	-0.412
-361.654	-200.000	0.009	-0.245
-360.639	-103.376	0.062	-0.015
-359.625	800.000	0.087	-0.322
-358.610	-151.185	0.100	0.007
-357.596	-19.005	0.232	0.143
-356.581	-158.759	-0.177	-0.010
-355.566	34.764	-0.069	-0.059
-354.552	92.505	-0.260	0.291
-353.537	-21.081	0.196	0.119
-352.523	800.000	-0.077	0.271
-351.508	-4.885	-0.152	-0.104
-350.493	136.022	-0.054	-0.069
-349.479	256.473	-0.162	0.276
-348.464	13.496	0.084	0.065
-347.450	-78.043	-0.127	0.043
-346.435	-200.000	0.052	-0.250
-345.420	-60.725	0.234	0.098
-344.406	52.456	0.244	0.231
-343.391	-104.732	0.146	0.033
-342.377	-31.815	-0.194	0.108
-341.362	800.000	-0.061	0.197
-340.348	-117.515	0.271	0.049
-339.333	159.402	0.153	0.211
-338.318	307.290	0.049	0.090
-337.304	-164.238	-0.120	0.005
-336.289	250.039	-0.126	-0.212
-335.275	-136.555	0.116	0.013
-334.260	-13.884	-0.117	-0.075
-333.245	-200.000	0.086	0.456
-332.231	223.899	0.191	0.305
-331.216	-55.508	-0.240	-0.107
-330.202	800.000	-0.010	0.035
-329.187	42.938	0.083	-0.075
-328.172	-83.225	0.258	0.082
-327.158	678.523	0.038	-0.098
-326.143	-200.000	0.184	-0.000
-325.129	-200.000	0.054	0.251
-324.114	-83.593	-0.148	0.047
-323.099	78.445	-0.205	0.217
-322.085	471.334	0.069	-0.154
-321.070	216.640	-0.101	-0.159
-320.056	-87.024	0.328	-0.099
-319.041	800.000	0.065	0.198
-318.026	-88.765	-0.241	0.071
-317.012	128.520	-0.227	-0.287
-315.997	84.289	0.209	0.227
-314.983	-200.000	0.037	0.196
-313.968	81.958	0.172	-0.184
-312.953	800.000	0.045	-0.155
-311.939	-131.592	-0.034	0.004
-310.924	-100.893	0.026	-0.006
-309.910	219.669	0.247	-0.391
-308.895	-34.072	-0.097	0.053
-307.880	9.034	-0.395	0.295
-306.866	5.164	0.218	0.159
-305.851	51.078	0.200	-0.188
-304.837	1.697	-0.163	0.116
-303.822	-156.003	-0.310	0.019
-302.807	-52.575	-0.239	0.109
-301.793	219.382	-0.006	0.009
-300.778	-96.706	0.249	-0.065
-299.764	-136.268	0.069	0.008
-298.749	186.711	0.115	0.169
-297.735	-16.947	-0.455	0.284
-296.720	-200.000	-0.005	-0.234
-295.705	-200.000	-0.021	-0.145
-294.691	13.950	-0.189	0.145
-293.676	525.767	-0.062	0.144
-292.662	800.000	0.017	0.060
-291.647	-119.644	-0.167	0.029
-290.632	-200.000	-0.003	-0.069
-289.618	-8.915	0.571	-0.378
-288.603	-200.000	-0.021	0.189
-287.589	492.887	0.071	-0.162
-286.574	800.000	0.064	-0.241
-285.559	31.943	-0.076	-0.064
-284.545	-72.288	0.139	-0.051
-283.530	558.369	0.106	0.254
-282.516	-187.503	-0.339	-0.004
-281.501	-123.387	0.323	-0.051
-280.486	800.000	0.047	-0.173
-279.472	314.083	0.130	-0.241
-278.457	77.870	0.071	-0.075
-277.443	142.807	0.233	-0.306
-276.428	169.832	-0.105	-0.149
-275.413	-34.908	-0.182	-0.098
-274.399	-163.587	0.248	-0.012
-273.384	800.000	-0.087	0.259
-272.370	-71.742	-0.106	-0.039
-271.355	-139.916	-0.116	-0.012
-270.340	800.000	0.088	-0.288
-269.326	-0.234	0.292	0.205
-268.311	22.693	-0.015	0.012
-267.297	48.352	-0.201	0.186
-266.282	-200.000	0.023	-0.179
-265.267	-69.527	-0.073	0.028
-264.253	-132.950	-0.152	-0.019
-263.238	800.000	0.060	-0.188
-262.224	-25.243	0.204	0.119
-261.209	-46.728	0.182	-0.088
-260.195	-200.000	-0.059	-0.273
-259.180	-200.000	0.046	0.209
-258.165	264.959	0.190	0.327
-257.151	-182.300	-0.243	0.004
-256.136	800.000	-0.085	-0.232
-255.122	-128.378	-0.094	-0.013
-254.107	-76.590	0.486	0.168
-253.092	-49.410	-0.264	0.124
-252.078	420.731	0.192	-0.407
-251.063	-85.699	-0.340	-0.104
-250.049	800.000	0.050	0.158
-249.034	314.965	-0.055	0.102
-248.019	-200.000	0.303	0.001
-247.005	-22.623	0.140	0.084
-245.990	709.997	0.046	-0.120
-244.976	-55.455	-0.167	-0.074
-243.961	12.098	0.092	0.070
-242.946	32.605	-0.116	-0.099
-241.932	-180.789	0.220	0.004
-240.917	-168.878	-0.171	-0.006
-239.903	-138.067	0.216	-0.024
-238.888	130.374	-0.088	0.111
-237.873	-200.000	0.132	-0.001
-236.859	256.213	0.124	-0.210
-235.844	-148.150	-0.452	0.037
-234.830	800.000	-0.139	-0.380
-233.815	340.152	-0.156	-0.299
-232.800	-74.638	0.140	0.050
-231.786	310.409	-0.061	-0.113
-230.771	-111.881	0.421	-0.084
-229.757	-130.412	-0.320	-0.043
-228.742	486.783	0.124	0.278
-227.727	27.226	-0.128	0.106
-226.713	30.605	0.016	-0.013
-225.698	-82.354	-0.115	-0.037
-224.684	100.304	-0.045	0.051
-223.669	-200.000	-0.024	0.250
-222.655	-34.309	0.243	0.132
-221.640	-131.256	-0.032	0.004
-220.625	-156.876	0.088	0.005
-219.611	55.592	0.228	0.218
-218.596	472.799	-0.085	0.189
-217.582	-103.065	-0.164	0.038
-216.567	800.000	0.093	0.294
-215.552	-2.515	0.178	-0.123
-214.538	-200.000	0.009	-0.191
-213.523	37.331	0.042	0.037
-212.509	-99.335	-0.082	0.020
-211.494	-18.150	0.042	-0.026
-210.479	-149.661	0.208	0.016
-209.465	-118.880	-0.507	0.088
-208.450	-200.000	-0.021	0.267
-207.436	20.941	-0.065	-0.052
-206.421	-12.028	-0.103	-0.066
-205.406	255.256	-0.061	-0.103
-204.392	-30.367	-0.225	-0.126
-203.377	-85.437	-0.352	-0.108
-202.363	-200.000	-0.027	0.171
-201.348	209.511	-0.021	0.033
-200.333	224.998	0.188	0.300
-199.319	-200.000	-0.001	-0.006
-198.304	181.962	-0.104	0.151
-197.290	-147.877	0.195	-0.016
-196.275	-163.625	-0.364	0.017
-195.260	496.982	0.168	0.381
-194.246	-60.348	-0.276	0.116
-193.231	-147.486	-0.339	-0.028
-192.217	-102.279	0.310	0.073
-191.202	-34.878	-0.243	-0.131
-190.187	83.418	0.116	0.124
-189.173	-200.000	-0.017	-0.152
-188.158	800.000	0.087	-0.307
-187.144	-88.328	0.062	0.018
-186.129	-100.839	0.398	0.097
-185.114	800.000	0.011	0.046
-184.100	280.208	-0.119	0.210
-183.085	-200.000	0.066	-0.288
-182.071	190.311	-0.064	0.095
-181.056	-51.019	-0.226	0.104
-180.042	84.870	-0.104	0.113
-179.027	-9.705	0.133	0.087
-178.012	522.403	0.017	0.039
-176.998	-200.000	-0.088	0.399
-175.983	-200.000	-0.012	-0.281
-174.969	133.347	0.228	0.291
-173.954	800.000	-0.083	0.273
-172.939	17.254	-0.234	-0.183
-171.925	-200.000	0.013	-0.273
-170.910	158.622	0.167	-0.229
-169.896	-30.750	0.159	-0.089
-168.881	-200.000	-0.001	-0.031
-167.866	118.887	0.211	0.257
-166.852	751.573	-0.062	-0.164
-165.837	-200.000	-0.001	-0.164
-164.823	-200.000	-0.034	-0.149
-163.808	-200.000	0.009	-0.096
-162.793	-200.000	0.009	0.376
-161.779	-139.294	-0.311	0.033
-160.764	244.647	0.111	-0.183
-159.750	-22.010	0.044	0.027
-158.735	181.767	-0.169	-0.245
-157.720	-173.500	-0.069	-0.002
-156.706	-200.000	-0.008	-0.232
-155.691	360.498	0.042	-0.083
-154.677	800.000	-0.103	0.325
-153.662	-39.853	0.191	0.098
-152.647	160.784	-0.078	0.107
-151.633	-5.184	0.181	-0.122
-150.618	800.000	0.122	-0.343
-149.604	46.877	0.015	-0.014
-148.589	-4.516	0.121	0.082
-147.574	367.295	0.247	0.490
-146.560	-200.000	0.003	0.327
-145.545	-55.132	0.204	0.090
-144.531	-15.120	-0.303	-0.191
-143.516	50.407	0.130	-0.121
-142.502	67.721	-0.184	0.185
-141.487	-200.000	-0.041	0.328
-140.472	-5.847	0.330	0.222
-139.458	212.786	0.245	-0.381
-138.443	-123.602	-0.178	0.028
-137.429	-200.000	0.003	0.084
-136.414	-200.000	-0.032	0.153
-135.399	-200.000	-0.057	0.321
-134.385	15.631	-0.326	0.252
-133.370	-121.158	-0.014	-0.002
-132.356	505.635	0.085	0.193
-131.341	-82.226	0.287	-0.092
-130.326	-200.000	-0.022	0.332
-129.312	-46.576	0.218	-0.105
-128.297	-170.355	-0.216	-0.007
-127.283	79.897	-0.108	0.114
-126.268	207.429	0.137	-0.210
-125.253	90.381	0.105	0.115
-124.239	-96.121	0.178	-0.047
-123.224	185.932	-0.165	0.241
-122.210	800.000	-0.061	0.219
-121.195	-7.570	0.115	-0.077
-120.180	800.000	-0.059	-0.244
-119.166	27.599	-0.244	-0.202
-118.151	-131.057	0.108	0.014
-117.137	-18.338	-0.129	-0.079
-116.122	141.054	0.101	-0.132
-115.107	715.608	0.063	-0.165
-114.093	765.208	0.063	-0.169
-113.078	-44.778	0.301	0.147
-112.064	20.121	0.228	-0.180
-111.049	-57.895	-0.061	0.026
-110.034	800.000	0.043	-0.183
-109.020	-151.149	-0.270	0.020
-108.005	-137.538	0.178	0.020
-106.991	-103.020	-0.339	-0.079
-105.976	800.000	-0.009	0.026
-104.962	283.094	0.094	-0.166
-103.947	-57.880	-0.186	-0.080
-102.932	-51.572	0.095	0.043
-101.918	-84.342	-0.133	-0.041
-100.903	620.000	-0.088	0.217
-99.889	-80.841	-0.226	0.074
-98.874	-200.000	0.091	0.487
-97.859	-200.000	0.002	0.068
-96.845	-117.165	0.042	-0.008
-95.830	-83.603	-0.329	0.103
-94.816	-113.215	0.286	0.055
-93.801	-200.000	0.033	-0.236
-92.786	3.735	-0.162	0.116
-91.772	-200.000	0.006	-0.027
-90.757	146.093	0.086	-0.114
-89.743	143.188	-0.194	-0.253
-88.728	-32.748	0.240	-0.131
-87.713	-128.296	-0.060	-0.008
-86.699	6.290	-0.069	0.050
-85.684	-112.241	-0.271	-0.053
-84.670	54.846	0.077	0.073
-83.655	-43.107	0.193	-0.096
-82.640	-122.727	-0.251	0.040
-81.626	416.392	-0.060	0.125
-80.611	-58.254	-0.101	0.043
-79.597	-200.000	-0.011	-0.187
-78.582	-200.000	-0.024	0.114
-77.567	434.168	-0.028	-0.060
-76.553	800.000	-0.017	0.061
-75.538	205.732	-0.202	0.308
-74.524	-46.083	-0.105	-0.051
-73.509	-111.201	-0.226	-0.045
-72.494	-103.922	-0.321	-0.073
-71.480	-138.611	-0.406	-0.044
-70.465	-116.669	0.165	0.030
-69.451	-34.639	-0.371	-0.199
-68.436	106.475	0.220	-0.256
-67.422	-200.000	0.066	-0.306
-66.407	46.764	-0.082	0.075
-65.392	-143.321	0.358	-0.034
-64.378	-86.776	0.203	-0.061
-63.363	-62.652	0.325	0.132
-62.349	-56.907	-0.125	0.054
-61.334	31.029	-1.192	-1.002
-60.319	-12.731	0.806	0.515
-59.305	517.125	-0.458	-1.051
-58.290	446.054	0.612	1.318
-57.276	537.760	0.642	1.495
-56.261	-200.000	106.254	615.619
-55.246	505.665	1511.640	3432.878
-54.232	176.123	2702.351	3845.634
-53.217	110.362	2185.349	2573.237
-52.203	40.208	1704.433	1502.167
-51.188	32.527	1516.151	1284.054
-50.173	30.201	1489.156	1245.536
-49.159	51.519	1545.169	1438.873
-48.144	51.646	1561.459	1454.854
-47.130	32.794	1517.064	1286.443
-46.115	29.657	1502.574	1252.873
-45.100	29.420	1499.425	1248.593
-44.086	29.349	1497.740	1246.661
-43.071	29.465	1494.769	1244.925
-42.057	29.327	1493.182	1242.623
-41.042	29.273	1492.697	1241.804
-40.027	29.354	1490.622	1240.573
-39.013	29.353	1489.448	1239.540
-37.998	29.434	1487.955	1238.797
-36.984	29.353	1486.217	1236.756
-35.969	29.387	1485.373	1236.235
-34.954	29.337	1483.813	1234.552
-33.940	29.285	1482.586	1233.129
-32.925	29.543	1480.179	1232.804
-31.911	29.476	1479.267	1231.550
-30.896	29.471	1477.921	1230.342
-29.881	29.446	1477.021	1229.381
-28.867	29.485	1476.027	1228.765
-27.852	29.474	1474.340	1227.236
-26.838	29.523	1472.888	1226.306
-25.823	29.457	1471.328	1224.518
-24.809	29.402	1470.106	1223.089
-23.794	29.525	1468.037	1222.134
-22.779	29.315	1467.639	1220.364
-21.765	29.506	1466.005	1220.220
-20.750	29.485	1465.321	1219.463
-19.736	29.402	1464.444	1218.136
-18.721	29.364	1463.321	1216.907
-17.706	29.434	1461.957	1216.183
-16.692	29.519	1460.452	1215.444
-15.677	29.408	1459.856	1214.168
-14.663	29.404	1458.867	1213.271
-13.648	29.422	1457.531	1212.233
-12.633	29.346	1456.955	1211.207
-11.619	29.358	1456.309	1210.699
-10.604	29.321	1455.533	1209.760
-9.590	29.384	1454.536	1209.295
-8.575	29.420	1453.165	1208.346
-7.560	29.391	1452.604	1207.640
-6.546	29.256	1452.208	1206.383
-5.531	29.359	1451.668	1206.561
-4.517	29.399	1450.056	1205.434
-3.502	29.254	1449.272	1203.788
-2.487	29.314	1448.090	1203.146
-1.473	29.323	1446.898	1202.171
-0.458	29.320	1445.768	1201.164
0.556	27.030	1436.210	1190.566
1.571	24.052	1411.355	1150.638
2.586	20.907	1352.818	1083.300
3.600	19.401	1272.463	1010.049
4.615	18.329	1227.915	968.541
5.629	16.366	1172.654	914.258
6.644	8.394	1089.162	808.865
7.659	1.160	1048.786	743.441
8.673	-0.089	1043.671	733.656
9.688	-0.213	1040.019	730.419
10.702	-0.352	1038.472	728.594
11.717	-0.336	1036.777	727.415
12.731	3.033	1040.320	746.212
13.746	11.922	1052.624	798.476
14.761	18.682	1061.211	838.038
15.775	20.616	1063.211	848.990
16.790	20.992	1062.896	850.500
17.804	20.773	1062.142	848.753
18.819	20.452	1061.709	846.769
19.834	20.644	1061.056	847.104
20.848	20.836	1060.384	847.429
21.863	20.953	1059.682	847.364
22.877	20.829	1059.854	846.823
23.892	20.860	1058.846	846.090
24.907	20.691	1057.995	844.515
25.921	20.886	1056.690	844.344
26.936	20.849	1056.407	843.866
27.950	20.731	1055.289	842.328
28.965	20.848	1053.902	841.710
29.980	20.759	1052.394	840.000
30.994	20.740	1050.811	838.575
32.009	20.688	1050.641	838.115
33.023	20.945	1049.588	838.434
34.038	20.688	1048.129	835.961
35.053	20.684	1047.599	835.446
36.067	20.748	1046.670	834.935
37.082	20.699	1046.287	834.321
38.096	20.891	1045.375	834.440
39.111	21.048	1044.500	834.420
40.126	21.144	1043.527	834.030
41.140	21.218	1041.734	832.873
42.155	20.789	1040.627	829.870
43.169	20.445	1039.051	826.906
44.184	20.455	1038.221	826.219
45.199	20.495	1037.035	825.389
46.213	20.504	1036.180	824.682
47.228	20.413	1035.148	823.355
48.242	20.456	1034.431	822.914
49.257	20.692	1033.522	823.235
50.271	20.750	1032.942	822.973
51.286	20.957	1031.932	823.078
52.301	20.679	1031.692	821.498
53.315	20.971	1030.544	821.891
54.330	20.808	1030.050	820.652
55.344	20.847	1029.223	820.106
56.359	20.823	1028.091	819.021
57.374	20.821	1027.431	818.411
58.388	20.578	1026.486	816.445
59.403	20.642	1025.495	815.885
60.417	20.678	1024.911	815.518
61.432	20.455	1023.918	813.610
62.447	20.535	1023.149	813.300
63.461	20.589	1022.671	813.101
64.476	20.674	1021.664	812.625
65.490	20.641	1021.006	811.878
66.505	20.544	1019.975	810.533
67.520	20.613	1019.102	810.088
68.534	20.696	1018.455	809.888
69.549	20.547	1017.360	808.256
70.563	20.261	1016.308	806.021
71.578	20.161	1015.371	804.740
72.593	20.147	1014.927	804.250
73.607	19.996	1013.643	802.466
74.622	20.118	1012.541	802.085
75.636	20.235	1012.081	802.189
76.651	20.402	1011.280	802.258
77.666	20.379	1010.353	801.343
78.680	20.356	1009.332	800.357
79.695	20.266	1009.129	799.710
80.709	20.299	1008.769	799.507
81.724	20.369	1007.628	798.854
82.739	20.523	1006.303	798.442
83.753	20.508	1005.238	797.456
84.768	20.619	1005.035	797.731
85.782	21.028	1004.213	798.885
86.797	21.135	1003.519	798.751
87.812	21.095	1002.773	797.904
88.826	20.881	1001.988	796.232
89.841	20.909	1001.120	795.598
90.855	20.959	1000.534	795.289
91.870	21.106	999.384	794.978
92.884	21.126	998.493	794.286
93.899	20.993	997.896	793.139
94.914	20.838	997.074	791.711
95.928	20.890	996.143	791.136
96.943	20.966	994.957	790.470
97.957	20.705	994.410	788.784
98.972	20.436	993.080	786.440
99.987	20.277	991.949	784.753
101.001	20.392	991.240	784.646
102.016	20.710	990.982	785.809
103.030	20.758	989.715	784.947
104.045	20.743	988.641	783.962
105.060	20.559	987.562	782.209
106.074	20.410	986.173	780.367
107.089	20.401	985.766	779.937
108.103	20.772	985.201	781.086
109.118	20.978	983.887	780.900
110.133	20.636	982.880	778.499
111.147	20.644	982.010	777.775
112.162	20.477	980.697	775.924
113.176	20.201	979.979	774.054
114.191	20.330	979.193	773.941
115.206	20.414	978.185	773.451
116.220	20.286	976.908	771.801
117.235	20.093	976.056	770.205
118.249	20.279	975.204	770.287
119.264	20.271	974.491	769.621
120.279	20.272	973.461	768.745
121.293	20.206	972.981	768.005
122.308	20.245	972.600	767.806
123.322	20.252	971.703	767.063
124.337	20.287	969.812	765.658
125.352	20.211	968.879	764.517
126.366	19.716	967.398	761.101
127.381	19.487	965.915	758.861
128.395	19.951	965.770	760.721
129.410	20.645	965.098	763.170
130.424	20.839	964.130	763.187
131.439	20.759	963.014	761.884
132.454	20.714	961.943	760.774
133.468	20.721	961.197	760.147
134.483	20.599	960.561	759.046
135.497	20.694	959.671	758.689
136.512	20.944	958.903	759.105
137.527	21.012	958.344	758.887
138.541	20.880	957.598	757.658
139.556	20.974	956.635	757.237
140.570	20.879	955.850	756.136
141.585	20.995	954.746	755.698
142.600	21.041	954.484	755.623
143.614	20.922	953.069	753.922
144.629	21.121	952.176	754.010
145.643	21.106	952.068	753.793
146.658	21.085	950.686	752.541
147.673	21.045	948.887	750.877
148.687	20.863	948.325	749.581
149.702	20.875	947.481	748.899
150.716	20.779	946.344	747.524
151.731	20.703	945.307	746.311
152.746	20.869	944.786	746.550
153.760	21.123	943.798	746.788
154.775	21.151	943.360	746.495
155.789	21.120	942.422	745.552
156.804	21.115	941.493	744.730
157.819	21.091	940.553	743.820
158.833	21.130	940.179	743.624
159.848	21.264	939.213	743.363
160.862	21.295	938.040	742.502
161.877	21.110	937.027	740.850
162.892	21.015	936.469	739.942
163.906	21.160	935.458	739.691
164.921	21.097	935.111	739.082
165.935	20.988	933.927	737.623
166.950	21.154	932.239	736.924
167.964	21.188	931.669	736.552
168.979	21.089	930.967	735.516
169.994	20.941	929.691	733.817
171.008	20.809	928.958	732.617
172.023	21.077	928.293	733.157
173.037	21.185	927.407	732.844
174.052	20.949	926.927	731.412
175.067	20.739	925.025	728.967
176.081	20.895	924.140	728.854
177.096	20.944	923.850	728.769
178.110	20.918	922.576	727.591
179.125	20.633	922.017	725.898
180.140	20.484	920.708	724.181
181.154	20.609	920.003	724.081
182.169	20.505	919.424	723.128
183.183	20.807	919.395	724.299
184.198	21.171	918.906	725.361
185.213	21.048	918.339	724.341
186.227	20.905	917.575	723.080
187.242	21.160	916.607	723.311
188.256	21.141	915.914	722.621
189.271	21.201	914.964	722.054
190.286	21.207	914.706	721.814
191.300	21.028	913.896	720.372
192.315	20.590	912.299	717.242
193.329	19.972	910.754	713.419
194.344	19.542	909.626	710.699
195.359	20.304	909.636	713.783
196.373	20.869	910.651	716.839
197.388	21.015	910.272	717.077
198.402	20.805	909.542	715.575
199.417	20.806	909.145	715.205
200.432	20.886	908.216	714.740
201.446	20.798	907.633	713.859
202.461	20.680	906.585	712.487
203.475	20.583	906.441	711.912
204.490	20.179	904.493	708.670
205.504	19.007	902.893	702.568
206.519	19.524	902.484	704.298
207.534	20.599	902.667	708.764
208.548	20.553	902.464	708.355
209.563	21.023	902.099	709.918
210.577	20.995	901.165	709.008
211.592	20.751	900.652	707.547
212.607	21.097	900.536	708.803
213.621	21.232	899.820	708.721
214.636	21.124	899.231	707.759
215.650	21.125	898.495	707.120
216.665	21.137	897.454	706.288
217.680	21.122	897.332	706.067
218.694	21.280	896.897	706.301
219.709	20.851	896.051	703.837
220.723	20.404	895.020	701.164
221.738	20.767	894.292	701.996
222.753	20.871	894.106	702.206
223.767	20.799	893.235	701.168
224.782	21.066	892.064	701.261
225.796	21.074	892.061	701.231
226.811	21.181	891.737	701.343
227.826	20.924	890.181	699.028
228.840	20.138	888.371	694.395
229.855	19.996	888.027	693.497
230.869	20.338	887.646	694.509
231.884	19.974	886.740	692.282
232.899	20.052	886.463	692.316
233.913	20.878	886.394	695.500
234.928	21.027	885.817	695.580
235.942	20.897	885.053	694.401
236.957	20.883	884.607	693.931
237.972	20.583	883.762	692.017
238.986	20.501	882.938	690.984
240.001	20.657	882.413	691.131
241.015	20.713	881.708	690.741
242.030	20.652	881.278	690.099
243.045	20.849	880.623	690.307
244.059	20.910	879.900	689.919
245.074	21.142	879.582	690.528
246.088	21.128	878.886	689.864
247.103	20.666	878.170	687.415
248.117	20.789	877.635	687.421
249.132	21.233	877.513	689.017
250.147	21.508	877.226	689.816
251.161	21.828	876.176	690.189
252.176	21.800	876.028	689.902
253.190	21.811	875.332	689.337
254.205	21.689	875.360	688.815
255.220	21.884	874.959	689.208
256.234	22.049	873.870	688.935
257.249	22.039	872.727	687.933
258.263	21.703	872.678	686.518
259.278	21.818	871.632	686.085
260.293	21.731	871.127	685.287
261.307	21.801	870.913	685.332
262.322	21.902	869.805	684.794
263.336	21.688	869.380	683.563
264.351	21.217	867.454	680.152
265.366	20.186	865.737	674.738
266.380	19.581	865.106	671.832
267.395	20.641	865.206	675.971
268.409	21.330	865.839	679.085
269.424	21.250	865.165	678.187
270.439	21.523	864.234	678.457
271.453	21.563	864.069	678.422
272.468	21.560	863.309	677.754
273.482	21.770	862.726	678.049
274.497	21.897	862.177	678.049
275.512	21.767	861.292	676.789
276.526	21.128	860.131	673.350
277.541	21.363	859.660	673.832
278.555	21.771	859.301	675.060
279.570	21.586	858.402	673.585
280.585	21.322	857.546	671.837
281.599	21.425	856.971	671.721
282.614	21.553	856.907	672.107
283.628	21.248	855.190	669.528
284.643	20.885	854.897	667.848
285.657	21.248	854.633	668.975
286.672	21.054	854.337	667.940
287.687	20.628	853.408	665.524
288.701	20.910	853.131	666.331
289.716	21.427	852.791	667.981
290.730	20.985	852.085	665.682
291.745	20.786	851.251	664.212
292.760	20.781	849.791	662.994
293.774	20.770	849.386	662.576
294.789	21.499	850.118	665.865
295.803	22.170	850.216	668.438
296.818	22.159	849.825	668.029
297.833	22.383	849.188	668.320
298.847	21.918	847.843	665.436
299.862	21.697	846.918	663.816
300.876	21.848	846.437	663.954
301.891	22.164	845.979	664.730
302.906	22.088	846.043	664.432
303.920	21.673	844.789	661.821
304.935	21.755	843.959	661.424
305.949	22.092	843.601	662.355
306.964	22.252	843.019	662.441
307.979	21.965	842.258	660.704
308.993	22.038	841.544	660.363
310.008	22.079	841.703	660.583
311.022	22.363	841.356	661.318
312.037	22.129	840.995	660.097
313.052	22.039	840.140	659.030
314.066	21.834	839.306	657.550
315.081	21.180	837.780	653.848
316.095	20.602	836.680	650.768
317.110	21.046	837.074	652.680
318.125	21.840	837.084	655.598
319.139	21.496	835.866	653.302
320.154	20.329	834.389	647.736
321.168	19.821	833.541	645.127
322.183	20.729	833.511	648.431
323.197	21.463	833.793	651.329
324.212	21.673	833.560	651.870
325.227	21.976	833.175	652.639
326.241	22.032	833.127	652.752
327.256	21.907	832.079	651.406
328.270	21.852	831.620	650.786
329.285	21.736	830.585	649.488
330.300	21.638	829.937	648.563
331.314	21.371	829.137	646.892
332.329	21.570	828.792	647.301
333.343	21.871	828.391	648.042
334.358	21.967	828.013	648.043
335.373	22.180	827.390	648.285
336.387	22.142	826.922	647.721
337.402	22.411	826.507	648.328
338.416	22.456	826.209	648.202
339.431	22.358	825.942	647.575
340.446	22.598	824.535	647.299
341.460	22.618	824.889	647.590
342.475	22.592	823.982	646.726
343.489	22.405	823.033	645.239
344.504	22.460	822.793	645.195
345.519	22.608	822.819	645.701
346.533	22.769	822.117	645.681
347.548	22.920	821.476	645.673
348.562	22.975	820.945	645.399
349.577	22.918	820.386	644.695
350.592	22.879	820.026	644.213
351.606	22.922	819.538	643.929
352.621	22.796	819.434	643.333
353.635	22.751	818.419	642.313
354.650	22.735	817.957	641.836
355.665	22.243	816.910	639.169
356.679	21.190	815.473	634.166
357.694	21.165	815.059	633.697
358.708	21.862	814.909	636.056
359.723	21.688	814.390	634.961
360.738	21.926	814.014	635.473
361.752	22.495	813.890	637.380
362.767	22.531	813.512	637.160
363.781	22.737	813.518	637.851
364.796	23.099	812.857	638.584
365.810	23.147	812.509	638.427
366.825	23.254	812.417	638.686
367.840	23.253	812.005	638.301
368.854	22.992	811.651	637.025
369.869	22.499	810.379	634.196
370.883	22.504	809.811	633.716
371.898	22.499	809.423	633.335
372.913	22.581	808.564	632.904
373.927	22.502	807.903	632.047
374.942	22.602	807.585	632.100
375.956	22.702	806.960	631.914
376.971	22.898	806.377	632.102
377.986	23.010	805.977	632.135
379.000	23.201	805.499	632.385
380.015	23.086	805.033	631.553
381.029	22.915	804.617	630.559
382.044	22.942	803.891	630.030
383.059	23.089	803.544	630.226
384.073	23.091	803.031	629.778
385.088	23.098	802.606	629.412
386.102	23.112	801.918	628.868
387.117	22.953	801.423	627.859
388.132	22.900	800.674	627.027
389.146	22.815	799.881	626.051
390.161	22.130	799.027	622.897
391.175	22.283	798.796	623.206
392.190	22.612	799.008	624.482
393.205	22.840	798.217	624.614
394.219	21.970	796.311	619.997
395.234	20.327	794.085	612.415
396.248	19.721	793.463	609.745
397.263	20.650	794.589	613.835
398.278	22.396	795.735	620.831
399.292	22.932	795.371	622.381
400.307	22.537	794.718	620.426
401.321	22.595	794.215	620.182
402.336	22.440	794.372	619.704
403.350	22.746	794.279	620.653
404.365	23.286	794.105	622.359
405.380	23.593	793.417	622.842
406.394	23.759	793.126	623.141
407.409	23.870	792.991	623.371
408.423	23.863	792.278	622.729
409.438	23.717	791.665	621.682
410.453	23.765	791.141	621.383
411.467	23.801	791.141	621.454
412.482	23.783	790.431	620.781
413.496	23.737	789.779	620.053
414.511	23.823	789.819	620.327
415.526	23.857	789.132	619.851
416.540	24.002	788.534	619.832
417.555	23.766	788.273	618.750
418.569	23.597	787.396	617.419
419.584	23.333	786.918	616.070
420.599	23.525	786.480	616.343
421.613	157.369	1365.201	1799.383
422.628	136.145	1449.504	1799.496
