DTS Sentinel unit serial number:	SN413079Multiplexer serial number:	ORYXHardware model number:	OX4-SRSoftware version number:	ORYX F/W v4.00 Oryx Data Collector v3.7.2.0data status	okinstallation	princeton_trtdifferential loss correction	single-endedforward channel	channel 3reverse channel	N/Adate	2019/09/12time	01:30:11forward acquisition time	60.00reverse acquisition time	0.00gamma	496.2192k internal	0.2320k external	0.2320temperature offset calibration	1.0072default loss term (dB/km)	0.3790temperature slope calibration	1.0000multiplexer offset coefficient	1.0000multiplexer slope coefficient	1.0000fibre end	0.00T internal ref (°C)	32.94T ext. ref 1 (°C)	2.10T ext. ref 2 (°C)	27.87length (m)	temperature (°C)	Stokes	anti-Stokes-747.200	800.000	0.094	0.291
-746.185	256.841	-0.114	0.198
-745.171	53.562	-0.209	0.203
-744.156	-77.028	-0.287	0.101
-743.142	-170.069	0.435	-0.016
-742.127	31.881	-0.201	0.175
-741.112	-200.000	0.006	-0.113
-740.098	19.181	0.031	-0.025
-739.083	7.544	-0.255	0.193
-738.069	800.000	0.015	0.060
-737.054	-99.380	-0.106	0.027
-736.039	-126.032	-0.334	0.051
-735.025	-97.982	0.181	-0.047
-734.010	-12.395	-0.243	-0.161
-732.996	-90.659	-0.121	0.035
-731.981	169.583	-0.046	0.067
-730.966	-11.523	0.205	0.136
-729.952	800.000	-0.060	-0.216
-728.937	-156.296	-0.471	0.030
-727.923	-104.155	0.317	0.075
-726.908	-119.016	-0.373	0.066
-725.894	-23.418	0.199	-0.121
-724.879	-65.624	-0.091	-0.037
-723.864	-3.661	-0.263	0.185
-722.850	800.000	-0.020	0.087
-721.835	-107.921	-0.227	0.050
-720.821	-130.353	-0.227	0.031
-719.806	-111.533	-0.289	0.059
-718.791	-46.965	-0.071	0.035
-717.777	800.000	-0.018	-0.075
-716.762	-104.211	0.299	-0.070
-715.748	65.011	0.085	0.087
-714.733	800.000	-0.116	-0.369
-713.718	-2.093	0.063	0.045
-712.704	48.868	-0.287	0.272
-711.689	-115.681	-0.154	0.029
-710.675	78.391	-0.104	-0.112
-709.660	-155.179	0.379	-0.025
-708.645	109.186	-0.266	0.322
-707.631	-200.000	0.036	0.180
-706.616	-200.000	0.028	0.136
-705.602	-181.063	-0.122	0.002
-704.587	19.828	0.370	-0.301
-703.572	-16.543	-0.113	0.072
-702.558	-55.479	-0.083	0.038
-701.543	179.734	-0.228	-0.337
-700.529	-200.000	-0.071	-0.477
-699.514	704.659	0.118	-0.315
-698.499	131.294	-0.163	0.212
-697.485	-5.615	-0.102	-0.071
-696.470	156.188	-0.073	-0.102
-695.456	-200.000	-0.001	-0.238
-694.441	-111.536	0.298	0.061
-693.426	37.786	0.104	-0.093
-692.412	200.963	-0.126	-0.195
-691.397	-70.826	-0.351	-0.134
-690.383	264.153	0.105	-0.184
-689.368	-200.000	0.041	-0.409
-688.354	-200.000	0.059	-0.487
-687.339	1.012	0.375	-0.271
-686.324	-86.683	-0.402	-0.124
-685.310	-111.506	-0.136	0.028
-684.295	-10.651	-0.309	-0.206
-683.281	-156.781	-0.349	-0.022
-682.266	185.660	0.039	0.058
-681.251	-51.285	0.253	0.119
-680.237	-77.604	0.029	0.010
-679.222	-4.391	-0.416	-0.290
-678.208	218.786	0.044	0.071
-677.193	-200.000	-0.236	0.001
-676.178	-200.000	0.032	0.178
-675.164	800.000	0.065	-0.281
-674.149	-28.847	-0.058	-0.034
-673.135	-172.005	0.151	-0.005
-672.120	702.238	0.143	-0.380
-671.105	152.741	-0.054	-0.074
-670.091	800.000	0.055	-0.162
-669.076	-76.932	-0.127	0.045
-668.062	-136.355	-0.369	0.043
-667.047	-74.275	0.140	0.051
-666.032	65.946	0.215	-0.220
-665.018	169.955	0.140	-0.202
-664.003	-200.000	0.011	-0.147
-662.989	800.000	0.067	-0.266
-661.974	-143.485	-0.234	-0.022
-660.959	402.920	-0.046	0.098
-659.945	800.000	0.040	0.119
-658.930	102.813	-0.180	0.212
-657.916	-200.000	-0.011	-0.348
-656.901	111.935	0.163	0.198
-655.886	-14.604	-0.105	0.068
-654.872	-58.480	-0.043	0.019
-653.857	43.767	0.148	-0.137
-652.843	800.000	-0.061	0.214
-651.828	352.351	0.175	-0.349
-650.814	420.101	-0.070	-0.150
-649.799	431.299	-0.094	0.206
-648.784	-200.000	-0.032	0.172
-647.770	241.030	-0.087	0.146
-646.755	-200.000	-0.006	-0.196
-645.741	-72.556	-0.177	0.066
-644.726	-200.000	-0.042	-0.313
-643.711	-69.411	-0.273	-0.106
-642.697	-200.000	0.021	-0.241
-641.682	-107.079	0.520	0.116
-640.668	-18.999	0.109	-0.068
-639.653	-200.000	0.045	-0.239
-638.638	-77.991	-0.243	0.084
-637.624	278.281	0.090	-0.162
-636.609	800.000	-0.067	-0.253
-635.595	-107.668	-0.079	-0.017
-634.580	-200.000	0.036	-0.170
-633.565	89.349	0.090	-0.102
-632.551	378.042	0.124	-0.255
-631.536	52.391	0.100	-0.096
-630.522	475.783	0.093	-0.211
-629.507	715.823	-0.079	0.211
-628.492	-116.170	-0.314	0.059
-627.478	800.000	0.099	0.281
-626.463	156.981	-0.137	-0.191
-625.449	-200.000	0.002	-0.082
-624.434	-27.261	0.190	-0.111
-623.419	553.977	-0.104	-0.251
-622.405	-200.000	0.022	-0.256
-621.390	-200.000	-0.018	0.226
-620.376	-40.631	0.403	0.211
-619.361	-200.000	-0.026	0.177
-618.346	-50.757	-0.119	-0.056
-617.332	15.381	-0.328	0.259
-616.317	-200.000	-0.042	0.186
-615.303	95.633	-0.085	-0.098
-614.288	-68.487	-0.137	0.053
-613.273	-81.531	-0.254	-0.084
-612.259	800.000	-0.080	-0.248
-611.244	-84.512	-0.385	-0.122
-610.230	-46.067	0.343	0.170
-609.215	89.051	0.116	-0.130
-608.201	-38.118	-0.051	0.027
-607.186	104.371	0.142	-0.169
-606.171	-74.517	-0.049	-0.018
-605.157	-99.734	0.349	-0.088
-604.142	-137.343	0.153	0.017
-603.128	-200.000	-0.016	-0.097
-602.113	-200.000	-0.062	-0.284
-601.098	-70.173	0.091	-0.035
-600.084	603.277	-0.066	-0.166
-599.069	587.224	-0.038	0.095
-598.055	610.005	0.028	0.070
-597.040	-61.025	0.242	-0.103
-596.025	-45.176	-0.090	-0.045
-595.011	-44.334	-0.217	-0.109
-593.996	190.460	0.104	-0.157
-592.982	291.860	-0.179	-0.328
-591.967	261.593	0.106	0.185
-590.952	602.134	-0.113	-0.283
-589.938	800.000	0.025	-0.108
-588.923	-128.351	-0.020	0.003
-587.909	101.603	-0.269	0.315
-586.894	50.418	0.093	-0.089
-585.879	-72.202	0.139	-0.052
-584.865	-7.935	0.099	0.067
-583.850	-130.692	0.171	0.023
-582.836	-200.000	0.023	0.123
-581.821	-148.269	0.078	0.006
-580.806	800.000	0.075	-0.305
-579.792	16.416	-0.145	0.115
-578.777	252.033	0.146	0.249
-577.763	33.619	0.192	0.168
-576.748	75.089	0.203	0.215
-575.733	30.474	0.261	0.224
-574.719	8.368	-0.239	-0.180
-573.704	-11.539	-0.016	-0.011
-572.690	-0.832	-0.108	0.077
-571.675	800.000	-0.090	0.322
-570.661	-81.326	0.151	0.050
-569.646	-30.890	-0.219	0.124
-568.631	66.076	-0.118	-0.120
-567.617	169.323	-0.051	0.074
-566.602	-62.038	-0.236	0.099
-565.588	800.000	-0.093	-0.307
-564.573	-47.734	-0.126	0.061
-563.558	234.883	0.099	-0.164
-562.544	4.922	-0.074	-0.054
-561.529	85.296	-0.075	0.083
-560.515	-89.837	0.099	-0.029
-559.500	780.050	0.107	-0.293
-558.485	449.887	-0.149	0.330
-557.471	-117.607	0.144	0.026
-556.456	800.000	0.088	-0.250
-555.442	-99.768	-0.301	0.076
-554.427	66.037	-0.083	0.084
-553.412	-200.000	0.017	-0.096
-552.398	-61.842	0.265	-0.111
-551.383	-31.680	0.261	0.147
-550.369	46.984	-0.039	-0.037
-549.354	-120.167	-0.165	-0.028
-548.339	-200.000	0.049	0.269
-547.325	-51.678	-0.089	-0.041
-546.310	-124.301	0.383	0.060
-545.296	-143.636	0.363	0.035
-544.281	-23.508	0.050	-0.030
-543.266	-159.548	0.304	-0.017
-542.252	284.897	0.073	-0.132
-541.237	283.631	-0.079	0.143
-540.223	-96.886	-0.072	0.019
-539.208	-93.193	-0.212	0.059
-538.193	-30.007	-0.135	-0.077
-537.179	166.073	0.046	-0.065
-536.164	-150.532	0.283	0.022
-535.150	-106.982	0.165	-0.037
-534.135	-200.000	-0.058	0.408
-533.121	230.486	0.055	-0.090
-532.106	-157.103	-0.339	-0.021
-531.091	-200.000	0.022	-0.101
-530.077	-74.318	-0.204	0.074
-529.062	42.949	0.226	0.206
-528.048	800.000	0.052	-0.199
-527.033	-78.089	-0.300	0.103
-526.018	509.236	-0.026	-0.060
-525.004	-45.060	0.177	0.088
-523.989	-130.014	-0.044	0.006
-522.975	-200.000	-0.064	-0.507
-521.960	181.621	0.356	-0.526
-520.945	-134.233	-0.070	0.009
-519.931	-200.000	0.012	0.173
-518.916	-20.624	-0.446	0.274
-517.902	-200.000	-0.027	-0.166
-516.887	150.190	0.261	-0.355
-515.872	-67.597	0.392	-0.154
-514.858	800.000	0.089	-0.384
-513.843	-54.174	0.483	0.220
-512.829	15.783	0.175	0.138
-511.814	800.000	0.044	-0.173
-510.799	-200.000	0.004	-0.204
-509.785	-29.545	0.203	0.116
-508.770	-200.000	-0.011	0.285
-507.756	335.927	0.212	-0.413
-506.741	52.241	-0.062	-0.060
-505.726	-58.070	-0.170	0.074
-504.712	-200.000	0.204	-0.001
-503.697	-48.428	-0.318	-0.153
-502.683	-200.000	-0.044	0.346
-501.668	69.071	0.198	-0.204
-500.653	164.265	-0.128	-0.181
-499.639	-20.741	-0.156	-0.096
-498.624	40.001	0.118	-0.106
-497.610	125.801	0.067	0.085
-496.595	784.159	-0.030	0.082
-495.581	606.925	-0.048	-0.119
-494.566	10.270	-0.168	0.128
-493.551	368.736	-0.094	-0.190
-492.537	-148.519	-0.082	-0.007
-491.522	-41.456	-0.298	-0.154
-490.508	-200.000	-0.034	0.357
-489.493	185.397	-0.171	0.255
-488.478	109.214	0.208	0.250
-487.464	800.000	-0.050	0.196
-486.449	800.000	0.017	0.065
-485.435	302.240	-0.087	-0.161
-484.420	800.000	0.022	-0.079
-483.405	263.329	-0.163	0.283
-482.391	-129.429	0.269	0.037
-481.376	-93.571	-0.058	-0.016
-480.362	403.792	0.085	0.180
-479.347	-56.526	-0.435	0.193
-478.332	137.965	-0.042	-0.054
-477.318	212.074	0.120	-0.189
-476.303	-127.809	0.244	0.035
-475.289	478.934	-0.023	0.052
-474.274	800.000	-0.092	-0.363
-473.259	77.874	0.160	-0.170
-472.245	14.726	0.155	-0.121
-471.230	-19.905	-0.285	-0.176
-470.216	664.827	-0.084	-0.218
-469.201	-200.000	-0.009	-0.051
-468.186	-200.000	0.094	-0.741
-467.172	-59.920	0.149	-0.064
-466.157	-200.000	-0.014	0.216
-465.143	-81.181	0.183	0.060
-464.128	76.766	0.211	-0.224
-463.113	-200.000	-0.002	-0.117
-462.099	800.000	0.097	0.384
-461.084	-66.081	0.129	0.052
-460.070	341.323	0.121	0.236
-459.055	-87.905	-0.220	-0.066
-458.040	31.330	0.200	-0.172
-457.026	-95.738	0.342	0.091
-456.011	-200.000	0.007	-0.057
-454.997	9.600	0.241	-0.182
-453.982	735.144	-0.136	-0.365
-452.968	800.000	0.036	-0.128
-451.953	-177.458	0.397	0.010
-450.938	19.750	-0.247	0.199
-449.924	-92.984	-0.160	-0.045
-448.909	-200.000	0.013	-0.255
-447.895	157.395	0.157	0.217
-446.880	800.000	-0.043	-0.188
-445.865	43.045	-0.295	0.269
-444.851	800.000	-0.006	0.024
-443.836	-8.068	-0.181	0.122
-442.822	103.927	0.149	-0.175
-441.807	-200.000	0.001	0.070
-440.792	-200.000	0.023	-0.232
-439.778	125.039	0.117	-0.148
-438.763	74.935	-0.145	-0.153
-437.749	-78.370	-0.311	-0.107
-436.734	89.485	-0.013	0.015
-435.719	-77.517	-0.169	-0.058
-434.705	-200.000	-0.041	-0.431
-433.690	-29.740	0.111	-0.063
-432.676	64.086	-0.126	-0.126
-431.661	800.000	-0.098	0.369
-430.646	116.503	-0.172	0.211
-429.632	-40.847	-0.347	-0.179
-428.617	-154.232	0.201	-0.014
-427.603	-128.513	0.165	0.023
-426.588	-200.000	0.019	0.159
-425.573	-71.283	-0.146	0.055
-424.559	-200.000	-0.042	0.268
-423.544	359.593	0.094	-0.187
-422.530	40.997	0.062	0.056
-421.515	89.209	0.188	-0.209
-420.500	-62.063	0.274	-0.114
-419.486	-98.399	0.262	0.067
-418.471	372.221	-0.117	0.237
-417.457	156.885	-0.271	0.374
-416.442	-200.000	0.036	0.456
-415.428	677.009	-0.131	0.340
-414.413	-200.000	0.075	0.350
-413.398	-55.966	-0.364	-0.162
-412.384	86.655	0.236	-0.260
-411.369	585.511	0.141	-0.346
-410.355	-165.356	0.228	-0.010
-409.340	88.592	-0.029	0.032
-408.325	-200.000	-0.002	-0.390
-407.311	-88.097	0.261	0.078
-406.296	171.071	0.135	-0.193
-405.282	-200.000	0.058	-0.326
-404.267	-78.167	0.144	0.049
-403.252	-18.006	0.177	-0.111
-402.238	17.792	-0.207	0.164
-401.223	-122.098	0.172	-0.028
-400.209	800.000	0.101	0.368
-399.194	-200.000	-0.064	0.327
-398.179	-200.000	-0.069	0.450
-397.165	-27.803	0.204	-0.118
-396.150	-43.589	-0.352	-0.177
-395.136	14.394	-0.307	-0.239
-394.121	-200.000	-0.035	0.244
-393.106	267.430	-0.125	-0.217
-392.092	-113.169	0.176	0.035
-391.077	141.732	0.134	0.178
-390.063	226.684	-0.178	-0.289
-389.048	-200.000	0.010	-0.149
-388.033	4.919	-0.214	-0.157
-387.019	26.232	-0.111	0.093
-386.004	-82.724	0.034	0.011
-384.990	328.469	0.200	-0.384
-383.975	-99.751	0.169	0.042
-382.960	122.576	-0.081	0.101
-381.946	64.984	0.203	-0.205
-380.931	-108.151	0.327	0.071
-379.917	-68.661	-0.157	-0.061
-378.902	-200.000	-0.025	-0.162
-377.888	51.136	-0.253	0.240
-376.873	219.753	-0.222	0.354
-375.858	329.223	0.061	0.116
-374.844	-66.752	-0.236	0.093
-373.829	497.113	0.172	-0.395
-372.815	59.294	0.240	-0.236
-371.800	91.965	0.137	-0.154
-370.785	-200.000	0.004	0.221
-369.771	-160.894	0.128	0.007
-368.756	-158.641	-0.059	0.003
-367.742	25.441	0.269	-0.223
-366.727	107.092	-0.354	0.419
-365.712	800.000	0.150	0.459
-364.698	-200.000	0.012	-0.389
-363.683	47.742	0.151	0.141
-362.669	49.206	0.097	0.090
-361.654	142.219	0.134	-0.177
-360.639	440.860	0.121	-0.263
-359.625	-6.410	0.237	0.161
-358.610	-200.000	0.053	0.284
-357.596	-33.514	-0.269	-0.148
-356.581	800.000	0.102	-0.353
-355.566	303.224	0.064	-0.119
-354.552	520.718	-0.103	0.240
-353.537	164.420	0.142	-0.199
-352.523	-40.610	0.075	-0.039
-351.508	13.608	0.211	-0.163
-350.493	-26.445	0.131	-0.076
-349.479	-200.000	-0.008	0.150
-348.464	-87.161	-0.209	0.063
-347.450	800.000	-0.039	0.141
-346.435	794.511	-0.005	0.013
-345.420	-141.763	-0.281	-0.028
-344.406	800.000	-0.083	0.250
-343.391	264.251	-0.080	0.138
-342.377	-200.000	-0.024	0.280
-341.362	-139.403	0.084	-0.009
-340.348	800.000	-0.045	-0.143
-339.333	700.192	0.112	0.293
-338.318	547.615	0.129	0.308
-337.304	189.094	0.069	0.103
-336.289	-200.000	-0.122	0.000
-335.275	-200.000	0.072	0.519
-334.260	-200.000	0.021	0.093
-333.245	-25.113	-0.195	0.115
-332.231	67.362	0.177	-0.179
-331.216	56.309	-0.205	-0.198
-330.202	66.797	-0.095	-0.096
-329.187	183.692	0.236	0.347
-328.172	-101.151	-0.203	0.049
-327.158	157.981	-0.181	-0.250
-326.143	107.711	0.149	-0.176
-325.129	-200.000	0.050	0.312
-324.114	17.469	-0.065	0.052
-323.099	97.353	-0.093	0.106
-322.085	-15.842	-0.328	0.208
-321.070	800.000	-0.063	0.205
-320.056	-75.017	-0.376	0.134
-319.041	308.201	0.169	0.314
-318.026	-58.121	0.049	-0.021
-317.012	144.871	-0.165	-0.219
-315.997	216.951	0.092	-0.145
-314.983	130.924	0.031	-0.040
-313.968	92.862	-0.116	0.131
-312.953	-200.000	-0.002	0.154
-311.939	800.000	0.050	-0.201
-310.924	-15.212	0.145	-0.092
-309.910	-166.246	-0.231	-0.010
-308.895	-74.768	-0.165	0.059
-307.880	-87.636	-0.149	-0.045
-306.866	126.302	0.122	0.154
-305.851	-27.966	-0.192	0.111
-304.837	98.698	0.177	-0.203
-303.822	278.357	-0.161	-0.286
-302.807	-200.000	-0.044	-0.306
-301.793	800.000	0.007	-0.023
-300.778	-61.490	0.166	0.069
-299.764	21.096	0.180	0.145
-298.749	-177.955	-0.116	0.003
-297.735	800.000	0.063	0.188
-296.720	97.501	-0.102	0.116
-295.705	800.000	-0.090	-0.298
-294.691	800.000	0.023	-0.075
-293.676	-163.523	-0.199	-0.009
-292.662	-135.561	0.146	-0.017
-291.647	21.876	-0.166	0.134
-290.632	-200.000	0.014	0.172
-289.618	787.261	-0.096	0.262
-288.603	-200.000	-0.004	-0.186
-287.589	-60.370	0.023	0.010
-286.574	42.299	0.159	0.144
-285.559	-65.284	-0.181	-0.072
-284.545	-70.342	-0.098	-0.037
-283.530	-200.000	-0.047	0.209
-282.516	-200.000	-0.042	0.340
-281.501	-20.628	-0.078	0.047
-280.486	800.000	0.046	0.154
-279.472	-200.000	-0.018	-0.270
-278.457	-200.000	0.014	-0.236
-277.443	-44.948	-0.505	0.250
-276.428	176.841	0.085	-0.122
-275.413	44.176	0.149	-0.136
-274.399	149.906	-0.094	-0.127
-273.384	762.098	-0.122	0.330
-272.370	-99.650	-0.180	0.045
-271.355	3.207	0.315	0.227
-270.340	800.000	-0.043	-0.158
-269.326	595.610	0.068	0.167
-268.311	-22.696	0.159	0.095
-267.297	-157.575	0.425	-0.025
-266.282	-183.615	-0.230	0.004
-265.267	800.000	0.122	-0.379
-264.253	8.556	0.033	0.025
-263.238	-200.000	0.040	0.200
-262.224	-102.034	-0.195	0.047
-261.209	-50.142	0.363	0.171
-260.195	-98.962	0.304	0.077
-259.180	-19.304	0.114	0.070
-258.165	800.000	-0.039	0.129
-257.151	800.000	-0.028	-0.122
-256.136	-70.466	-0.141	0.053
-255.122	-200.000	-0.035	0.205
-254.107	121.599	0.031	-0.038
-253.092	-43.171	-0.036	0.018
-252.078	-94.806	-0.204	-0.055
-251.063	333.477	0.077	0.147
-250.049	-167.296	0.076	0.003
-249.034	-28.296	-0.174	0.100
-248.019	-55.022	-0.315	0.141
-247.005	255.088	0.075	-0.127
-245.990	800.000	-0.025	0.091
-244.976	-200.000	0.001	-0.213
-243.961	-58.932	-0.162	-0.069
-242.946	-106.510	-0.168	0.037
-241.932	-16.334	0.146	-0.092
-240.917	-91.819	0.245	-0.069
-239.903	49.673	-0.182	0.170
-238.888	43.101	-0.210	-0.190
-237.873	114.244	-0.081	-0.097
-236.859	-200.000	0.067	-0.314
-235.844	147.522	-0.162	-0.216
-234.830	-40.381	0.091	-0.047
-233.815	-200.000	-0.078	0.455
-232.800	800.000	-0.061	0.178
-231.786	-145.626	-0.206	0.018
-230.771	396.828	-0.104	0.214
-229.757	-83.332	0.295	0.094
-228.742	48.783	-0.099	-0.092
-227.727	125.049	0.042	-0.053
-226.713	-167.939	-0.182	0.007
-225.698	-200.000	0.021	0.197
-224.684	-57.069	0.238	0.104
-223.669	105.161	0.218	-0.255
-222.655	335.308	-0.158	0.304
-221.640	-63.838	0.169	0.068
-220.625	65.983	0.255	0.256
-219.611	350.887	0.079	0.155
-218.596	148.116	-0.154	0.206
-217.582	210.469	0.087	-0.135
-216.567	35.024	0.257	0.223
-215.552	-48.709	-0.105	0.050
-214.538	501.249	-0.042	-0.096
-213.523	-61.401	0.249	-0.104
-212.509	28.149	0.156	-0.131
-211.494	-200.000	0.024	0.142
-210.479	-154.667	0.165	-0.011
-209.465	312.628	-0.161	-0.300
-208.450	-200.000	-0.084	-0.471
-207.436	-8.690	0.285	-0.190
-206.421	-144.019	-0.180	0.017
-205.406	416.221	-0.119	-0.251
-204.392	-85.138	-0.114	-0.035
-203.377	-70.922	0.431	0.161
-202.363	543.559	-0.016	-0.038
-201.348	-73.969	-0.150	-0.054
-200.333	800.000	-0.038	-0.110
-199.319	36.806	0.085	0.074
-198.304	-72.218	-0.026	-0.010
-197.290	272.620	0.183	0.320
-196.275	-200.000	0.050	-0.283
-195.260	-5.073	0.250	0.170
-194.246	257.273	-0.094	-0.160
-193.231	-200.000	-0.023	-0.188
-192.217	-200.000	0.024	0.204
-191.202	41.275	-0.022	0.020
-190.187	-144.923	-0.215	-0.019
-189.173	537.568	-0.161	0.378
-188.158	-93.761	-0.411	0.112
-187.144	800.000	-0.093	-0.254
-186.129	-196.180	0.159	-0.001
-185.114	-177.440	-0.259	0.006
-184.100	-59.296	-0.236	-0.100
-183.085	15.399	-0.168	0.131
-182.071	-30.784	0.216	0.121
-181.056	264.534	-0.108	0.187
-180.042	91.184	0.023	-0.026
-179.027	-200.000	-0.028	0.331
-178.012	284.561	0.043	0.076
-176.998	-78.475	-0.131	-0.044
-175.983	-107.113	-0.240	-0.052
-174.969	247.445	-0.044	0.073
-173.954	97.045	0.133	0.151
-172.939	-200.000	0.008	-0.318
-171.925	-200.000	0.011	-0.282
-170.910	800.000	-0.042	0.116
-169.896	-179.442	0.468	0.010
-168.881	-114.993	-0.217	-0.041
-167.866	385.262	0.086	0.176
-166.852	-155.557	-0.322	0.021
-165.837	-200.000	0.023	0.133
-164.823	-200.000	0.043	0.328
-163.808	448.989	-0.180	0.393
-162.793	800.000	-0.044	-0.181
-161.779	118.035	-0.148	-0.181
-160.764	-2.983	-0.242	0.167
-159.750	309.614	-0.043	0.079
-158.735	800.000	-0.132	-0.372
-157.720	430.704	0.121	0.258
-156.706	-139.835	-0.118	0.012
-155.691	60.156	0.086	0.084
-154.677	-31.048	0.120	-0.067
-153.662	-120.767	-0.317	-0.053
-152.647	581.171	0.091	-0.220
-151.633	-6.205	0.256	0.172
-150.618	800.000	0.048	0.137
-149.604	800.000	0.061	0.257
-148.589	-84.075	-0.075	-0.024
-147.574	-200.000	0.558	0.002
-146.560	202.536	-0.210	0.320
-145.545	44.174	-0.102	-0.093
-144.531	-28.203	-0.209	0.119
-143.516	-8.116	0.176	-0.117
-142.502	72.355	0.195	-0.201
-141.487	-200.000	-0.055	0.254
-140.472	-107.434	-0.199	0.043
-139.458	-69.895	0.145	0.055
-138.443	-200.000	0.001	-0.122
-137.429	-101.282	0.052	-0.013
-136.414	140.902	0.166	-0.217
-135.399	201.220	-0.127	-0.193
-134.385	54.687	0.188	-0.179
-133.370	320.931	0.123	-0.232
-132.356	214.379	0.117	-0.183
-131.341	-85.351	0.250	0.077
-130.326	64.082	0.096	0.095
-129.312	-163.517	0.144	-0.007
-128.297	-149.604	-0.096	-0.007
-127.283	23.090	0.276	-0.224
-126.268	56.153	0.144	-0.138
-125.253	-23.359	-0.213	0.126
-124.239	-86.039	-0.299	0.091
-123.224	-78.987	-0.402	-0.135
-122.210	-127.658	-0.369	0.053
-121.195	250.933	-0.069	0.115
-120.180	-200.000	-0.019	0.090
-119.166	800.000	-0.025	-0.078
-118.151	-30.933	0.277	-0.154
-117.137	-38.919	0.095	0.049
-116.122	-5.670	0.162	-0.110
-115.107	33.717	-0.245	0.210
-114.093	-81.742	0.077	-0.025
-113.078	186.105	-0.097	-0.142
-112.064	800.000	0.070	0.281
-111.049	-200.000	0.027	0.297
-110.034	200.326	-0.158	0.239
-109.020	-127.916	0.010	0.001
-108.005	26.500	0.268	0.221
-106.991	800.000	-0.056	0.201
-105.976	466.238	0.171	0.379
-104.962	-39.891	0.214	0.110
-103.947	800.000	0.024	0.068
-102.932	265.506	0.311	-0.535
-101.918	800.000	-0.116	-0.392
-100.903	-200.000	0.054	0.544
-99.889	242.233	0.052	0.086
-98.874	-200.000	-0.004	-0.074
-97.859	123.021	0.134	-0.166
-96.845	104.845	0.179	0.209
-95.830	66.685	-0.063	-0.063
-94.816	-78.583	-0.126	0.042
-93.801	103.886	-0.147	0.170
-92.786	-200.000	0.034	0.260
-91.772	297.421	-0.206	0.373
-90.757	-200.000	-0.047	-0.397
-89.743	173.595	-0.125	-0.177
-88.728	-68.503	-0.227	0.087
-87.713	81.317	0.127	0.135
-86.699	43.324	0.008	-0.007
-85.684	-160.745	0.209	-0.011
-84.670	-171.616	0.111	-0.004
-83.655	105.351	0.072	-0.084
-82.640	-68.871	-0.280	0.106
-81.626	-36.645	0.307	-0.163
-80.611	308.621	0.057	0.104
-79.597	-190.690	0.120	0.001
-78.582	-200.000	-0.001	-0.074
-77.567	49.418	0.033	-0.031
-76.553	41.086	-0.135	0.121
-75.538	545.338	0.034	0.081
-74.524	-0.621	0.212	-0.148
-73.509	-36.604	-0.169	-0.089
-72.494	800.000	0.071	-0.198
-71.480	-200.000	-0.135	-0.628
-70.465	-200.000	0.014	-0.123
-69.451	412.250	-0.125	0.262
-68.436	-136.640	0.125	0.014
-67.422	640.171	0.088	-0.221
-66.407	-200.000	0.016	0.211
-65.392	9.375	-0.035	0.026
-64.378	2.224	0.282	-0.201
-63.363	181.204	0.249	0.360
-62.349	-158.725	0.136	0.008
-61.334	49.953	-1.123	-1.043
-60.319	507.138	0.235	0.537
-59.305	-200.000	-0.164	-1.058
-58.290	467.373	0.467	1.030
-57.276	-200.000	0.192	1.831
-56.261	-200.000	96.090	580.330
-55.246	558.395	1377.701	3272.146
-54.232	160.175	2553.180	3504.088
-53.217	111.432	2163.440	2567.958
-52.203	43.198	1707.709	1534.521
-51.188	36.185	1520.329	1318.366
-50.173	33.668	1493.705	1278.295
-49.159	52.868	1542.217	1451.644
-48.144	54.406	1560.791	1479.602
-47.130	36.328	1519.634	1318.534
-46.115	33.152	1505.240	1284.455
-45.100	33.024	1501.809	1280.612
-44.086	33.000	1499.897	1278.766
-43.071	33.008	1497.858	1277.034
-42.057	32.940	1496.342	1275.232
-41.042	33.072	1494.366	1274.382
-40.027	33.053	1493.588	1273.544
-39.013	32.937	1492.047	1271.398
-37.998	32.994	1490.669	1270.552
-36.984	32.959	1489.842	1269.566
-35.969	32.908	1488.755	1268.244
-34.954	32.973	1486.817	1266.982
-33.940	32.977	1485.744	1266.039
-32.925	33.100	1483.943	1265.283
-31.911	32.999	1482.993	1263.745
-30.896	32.993	1481.570	1262.442
-29.881	33.131	1479.992	1261.969
-28.867	33.002	1478.805	1260.045
-27.852	32.972	1477.235	1258.457
-26.838	32.916	1476.081	1257.054
-25.823	32.919	1474.488	1255.667
-24.809	32.979	1472.537	1254.357
-23.794	32.956	1471.368	1253.155
-22.779	33.018	1469.811	1252.190
-21.765	32.960	1469.030	1251.092
-20.750	33.023	1467.695	1250.319
-19.736	32.968	1467.289	1249.562
-18.721	32.931	1465.942	1248.119
-17.706	32.893	1465.138	1247.135
-16.692	32.801	1463.915	1245.439
-15.677	32.902	1462.690	1245.010
-14.663	32.914	1461.740	1244.232
-13.648	32.917	1460.737	1243.353
-12.633	32.888	1459.884	1242.381
-11.619	32.958	1458.934	1241.986
-10.604	32.807	1458.173	1240.298
-9.590	32.839	1457.531	1239.911
-8.575	32.827	1456.303	1238.737
-7.560	32.972	1455.292	1238.779
-6.546	32.919	1455.037	1238.166
-5.531	32.850	1454.234	1236.980
-4.517	32.913	1452.510	1235.882
-3.502	32.841	1451.956	1234.890
-2.487	32.873	1450.677	1233.962
-1.473	32.915	1449.745	1233.392
-0.458	32.801	1448.871	1231.853
0.556	33.476	1439.091	1220.984
1.571	30.635	1415.340	1182.693
2.586	27.685	1362.724	1120.528
3.600	26.047	1285.858	1047.730
4.615	24.883	1237.790	1001.962
5.629	21.232	1180.630	936.076
6.644	11.274	1092.902	816.790
7.659	3.386	1049.655	746.321
8.673	2.311	1044.550	737.442
9.688	2.078	1041.095	733.818
10.702	1.972	1039.437	732.076
11.717	2.029	1037.474	730.899
12.731	5.682	1041.943	751.531
13.746	15.534	1055.964	809.265
14.761	23.227	1065.632	853.857
15.775	25.142	1067.243	864.315
16.790	25.428	1067.006	865.426
17.804	25.137	1066.726	863.722
18.819	24.969	1065.274	861.660
19.834	25.040	1065.119	861.799
20.848	25.233	1064.348	862.026
21.863	25.234	1064.515	862.091
22.877	25.338	1064.156	862.221
23.892	25.250	1063.133	860.895
24.907	25.390	1061.740	860.364
25.921	25.223	1061.517	859.304
26.936	25.266	1060.738	858.805
27.950	25.101	1059.905	857.265
28.965	25.129	1058.509	856.192
29.980	25.067	1057.314	854.854
30.994	25.064	1056.021	853.720
32.009	25.233	1055.218	853.802
33.023	25.355	1054.691	853.877
34.038	25.160	1053.349	851.787
35.053	25.227	1052.867	851.643
36.067	25.403	1051.528	851.318
37.082	25.196	1051.271	850.053
38.096	25.259	1050.517	849.667
39.111	25.432	1049.824	849.850
40.126	25.581	1048.934	849.758
41.140	25.470	1047.893	848.316
42.155	25.130	1046.406	845.436
43.169	24.914	1045.023	843.224
44.184	24.890	1044.104	842.295
45.199	24.890	1043.339	841.604
46.213	24.831	1042.405	840.499
47.228	24.797	1041.577	839.596
48.242	25.083	1040.740	840.191
49.257	25.121	1040.133	839.803
50.271	25.156	1039.428	839.325
51.286	25.283	1038.967	839.472
52.301	25.406	1038.055	839.236
53.315	25.297	1037.372	838.098
54.330	25.255	1036.805	837.370
55.344	25.231	1035.749	836.334
56.359	25.220	1034.757	835.405
57.374	25.230	1034.293	835.006
58.388	25.143	1033.013	833.491
59.403	25.097	1032.203	832.552
60.417	25.108	1031.531	831.989
61.432	24.795	1031.076	830.094
62.447	24.874	1030.154	829.644
63.461	24.962	1029.818	829.710
64.476	25.102	1028.917	829.558
65.490	24.969	1028.295	828.369
66.505	24.941	1026.971	827.100
67.520	24.839	1026.665	826.310
68.534	25.097	1025.620	826.581
69.549	24.893	1024.931	825.014
70.563	24.636	1023.712	822.778
71.578	24.486	1023.055	821.487
72.593	24.539	1022.164	820.942
73.607	24.361	1020.805	818.959
74.622	24.227	1020.144	817.741
75.636	24.611	1019.432	818.860
76.651	24.950	1018.403	819.512
77.666	24.704	1017.727	817.772
78.680	24.747	1016.314	816.762
79.695	24.762	1016.347	816.785
80.709	24.762	1015.388	815.941
81.724	24.839	1014.542	815.539
82.739	24.875	1013.630	814.900
83.753	24.794	1013.238	814.144
84.768	25.217	1012.441	815.354
85.782	25.459	1012.057	816.068
86.797	25.606	1011.476	816.198
87.812	25.605	1010.676	815.474
88.826	25.356	1009.534	813.355
89.841	25.378	1009.088	813.021
90.855	25.592	1008.029	813.062
91.870	25.556	1007.511	812.411
92.884	25.573	1006.368	811.497
93.899	25.403	1005.665	810.091
94.914	25.386	1004.210	808.768
95.928	25.406	1003.923	808.556
96.943	25.432	1003.028	807.881
97.957	25.210	1001.951	805.944
98.972	25.010	1000.708	803.978
99.987	24.673	1000.263	802.037
101.001	24.712	999.494	801.522
102.016	25.116	999.089	802.937
103.030	25.407	997.566	802.944
104.045	25.194	996.645	801.179
105.060	25.068	995.389	799.536
106.074	25.017	994.188	798.275
107.089	24.800	994.425	797.428
108.103	25.170	993.837	798.530
109.118	25.297	992.872	798.249
110.133	25.106	991.469	796.203
111.147	24.944	990.582	794.702
112.162	24.865	989.568	793.469
113.176	24.701	988.472	791.795
114.191	24.840	987.716	791.731
115.206	24.931	986.991	791.483
116.220	24.600	985.828	789.020
117.235	24.481	984.801	787.604
118.249	24.559	984.188	787.389
119.264	24.654	983.346	787.063
120.279	24.721	982.089	786.282
121.293	24.596	981.579	785.252
122.308	24.572	981.131	784.718
123.322	24.671	980.188	784.332
124.337	24.641	979.068	783.232
125.352	24.516	978.164	781.894
126.366	24.151	976.175	778.639
127.381	23.846	974.796	776.140
128.395	24.376	974.818	778.400
129.410	25.059	974.654	781.180
130.424	25.221	974.076	781.353
131.439	25.209	973.015	780.382
132.454	25.120	972.306	779.358
133.468	25.206	970.945	778.571
134.483	24.991	970.571	777.268
135.497	25.041	969.983	776.947
136.512	25.203	969.077	776.853
137.527	25.262	968.777	776.797
138.541	25.375	967.787	776.425
139.556	25.449	966.891	775.957
140.570	25.340	966.337	774.974
141.585	25.418	965.469	774.544
142.600	25.585	964.539	774.449
143.614	25.486	963.566	773.174
144.629	25.609	962.656	772.905
145.643	25.812	962.158	773.309
146.658	25.749	961.314	772.292
147.673	25.417	960.153	769.868
148.687	25.308	959.238	768.600
149.702	25.256	957.953	767.280
150.716	25.244	957.015	766.408
151.731	25.127	956.207	765.193
152.746	25.075	955.716	764.511
153.760	25.445	954.728	765.231
154.775	25.590	953.965	765.168
155.789	25.687	953.472	765.119
156.804	25.683	952.766	764.467
157.819	25.500	951.557	762.653
158.833	25.684	950.639	762.629
159.848	25.601	950.708	762.263
160.862	25.765	949.689	762.074
161.877	25.634	948.597	760.577
162.892	25.455	947.986	759.263
163.906	25.570	946.987	758.883
164.921	25.544	946.048	757.953
165.935	25.624	944.699	757.142
166.950	25.620	944.017	756.510
167.964	25.703	943.075	756.038
168.979	25.580	941.936	754.541
169.994	25.436	940.751	752.924
171.008	25.324	940.028	751.809
172.023	25.542	939.492	752.225
173.037	25.652	939.005	752.227
174.052	25.516	937.591	750.459
175.067	25.196	936.834	748.454
176.081	25.403	935.402	748.105
177.096	25.426	935.107	747.901
178.110	25.442	934.165	747.149
179.125	25.286	933.048	745.541
180.140	24.972	932.175	743.470
181.154	24.951	931.784	743.009
182.169	25.001	931.266	742.736
183.183	25.233	930.936	743.368
184.198	25.604	930.729	744.675
185.213	25.642	929.675	743.921
186.227	25.583	928.809	742.918
187.242	25.505	929.001	742.686
188.256	25.594	927.931	742.129
189.271	25.561	927.197	741.341
190.286	25.556	926.400	740.618
191.300	25.585	925.307	739.797
192.315	25.057	923.909	736.447
193.329	24.220	922.629	731.926
194.344	23.775	921.535	729.166
195.359	24.454	921.955	732.221
196.373	25.282	922.094	735.661
197.388	25.577	921.969	736.705
198.402	25.511	920.993	735.589
199.417	25.422	920.562	734.816
200.432	25.461	920.235	734.649
201.446	25.268	919.817	733.463
202.461	25.081	918.761	731.791
203.475	25.059	918.067	731.085
204.490	24.702	916.731	728.504
205.504	23.625	914.820	722.536
206.519	23.945	914.369	723.418
207.534	24.820	915.216	727.586
208.548	25.110	914.190	727.881
209.563	25.470	913.628	728.830
210.577	25.398	913.145	728.091
211.592	25.259	912.507	726.953
212.607	25.606	912.509	728.297
213.621	25.685	912.059	728.193
214.636	25.632	910.989	727.058
215.650	25.615	910.593	726.610
216.665	25.547	909.845	725.674
217.680	25.680	909.450	725.832
218.694	25.810	908.775	725.754
219.709	25.310	908.331	723.320
220.723	25.110	906.649	721.111
221.738	25.166	906.739	721.347
222.753	25.543	905.962	722.176
223.767	25.440	904.981	720.918
224.782	25.483	904.413	720.576
225.796	25.571	903.834	720.401
226.811	25.730	903.407	720.634
227.826	25.395	902.232	718.296
228.840	24.570	900.849	713.836
229.855	24.478	900.583	713.193
230.869	24.756	899.974	713.758
231.884	24.520	898.834	711.848
232.899	24.378	898.805	711.195
233.913	25.189	898.824	714.382
234.928	25.481	898.383	715.129
235.942	25.252	897.735	713.641
236.957	25.356	896.978	713.389
237.972	25.096	895.927	711.456
238.986	25.011	895.299	710.557
240.001	25.091	894.769	710.394
241.015	24.974	894.044	709.292
242.030	25.149	893.278	709.312
243.045	25.242	893.070	709.450
244.059	25.408	892.773	709.810
245.074	25.654	891.760	709.913
246.088	25.461	891.579	708.944
247.103	25.171	890.484	706.865
248.117	25.267	890.296	707.033
249.132	25.707	890.075	708.527
250.147	26.184	889.584	709.951
251.161	26.159	889.578	709.784
252.176	26.278	888.856	709.613
253.190	26.430	888.331	709.729
254.205	26.188	888.024	708.470
255.220	26.435	887.605	709.043
256.234	26.535	886.974	708.866
257.249	26.371	886.309	707.629
258.263	26.311	885.584	706.756
259.278	26.269	885.013	706.070
260.293	26.352	884.411	705.852
261.307	26.347	884.103	705.526
262.322	26.396	882.971	704.749
263.336	26.227	882.656	703.780
264.351	25.896	880.836	700.977
265.366	24.673	879.056	694.750
266.380	24.321	878.071	692.544
267.395	25.122	878.822	696.183
268.409	25.891	879.134	699.356
269.424	25.798	878.441	698.382
270.439	26.094	877.392	698.631
271.453	26.309	876.935	699.039
272.468	26.239	876.400	698.281
273.482	26.238	876.448	698.252
274.497	26.345	875.922	698.187
275.512	26.379	874.603	697.203
276.526	25.734	873.126	693.480
277.541	25.749	873.001	693.379
278.555	26.210	872.831	694.954
279.570	25.994	871.775	693.223
280.585	25.946	870.837	692.233
281.599	25.949	870.816	692.166
282.614	26.127	870.424	692.477
283.628	25.590	869.186	689.370
284.643	25.376	868.269	687.764
285.657	25.653	868.383	688.852
286.672	25.558	867.424	687.669
287.687	25.118	866.566	685.248
288.701	25.357	867.020	686.459
289.716	25.836	866.105	687.504
290.730	25.450	865.316	685.341
291.745	25.386	864.579	684.454
292.760	25.199	863.421	682.767
293.774	25.083	863.168	682.063
294.789	26.132	863.901	686.574
295.803	26.770	864.017	689.033
296.818	26.610	863.729	688.134
297.833	26.699	862.970	687.808
298.847	26.533	861.846	686.221
299.862	26.148	861.029	684.049
300.876	26.340	860.481	684.280
301.891	26.659	859.966	685.017
302.906	26.682	859.692	684.825
303.920	26.457	858.456	682.932
304.935	26.237	857.771	681.497
305.949	26.659	857.528	682.834
306.964	26.670	857.287	682.623
307.979	26.353	856.719	680.916
308.993	26.450	855.864	680.539
310.008	26.731	855.415	681.180
311.022	26.946	855.121	681.694
312.037	26.669	854.833	680.364
313.052	26.442	854.051	678.831
314.066	26.403	853.174	677.926
315.081	25.628	851.657	673.759
316.095	25.021	850.014	670.132
317.110	25.370	850.852	672.037
318.125	26.439	850.929	676.038
319.139	25.919	849.993	673.293
320.154	24.718	848.264	667.384
321.168	24.318	847.485	665.220
322.183	24.905	847.311	667.213
323.197	25.864	847.890	671.182
324.212	26.272	847.692	672.485
325.227	26.408	847.144	672.497
326.241	26.430	846.671	672.144
327.256	26.435	845.651	671.295
328.270	26.219	845.320	670.171
329.285	26.300	844.844	670.033
330.300	25.884	844.367	668.054
331.314	25.737	843.366	666.661
332.329	25.789	842.714	666.277
333.343	26.312	842.214	667.755
334.358	26.562	841.895	668.368
335.373	26.580	841.750	668.260
336.387	26.679	840.861	667.859
337.402	26.755	840.646	667.911
338.416	27.083	840.149	668.664
339.431	27.120	839.378	668.126
340.446	26.960	838.973	667.159
341.460	27.303	838.461	667.950
342.475	27.217	838.251	667.408
343.489	27.032	837.322	665.932
344.504	26.855	836.817	664.823
345.519	27.173	836.637	665.786
346.533	27.430	836.066	666.211
347.548	27.470	835.786	666.077
348.562	27.318	835.453	665.195
349.577	27.354	834.737	664.699
350.592	27.409	834.020	664.270
351.606	27.305	833.603	663.499
352.621	27.353	832.892	663.052
353.635	27.292	832.707	662.622
354.650	27.222	832.194	661.900
355.665	26.960	831.149	660.059
356.679	25.847	829.117	654.347
357.694	25.726	828.708	653.527
358.708	26.372	828.831	655.910
359.723	26.153	828.415	654.728
360.738	26.376	828.301	655.389
361.752	26.919	828.141	657.173
362.767	27.138	827.689	657.548
363.781	27.332	827.878	658.340
364.796	27.654	827.392	659.061
365.810	27.779	826.760	658.951
366.825	27.746	826.803	658.808
367.840	27.801	826.615	658.797
368.854	27.770	825.389	657.650
369.869	27.151	825.011	655.062
370.883	26.969	824.329	653.804
371.898	27.076	823.478	653.459
372.913	27.081	822.416	652.575
373.927	27.033	822.226	652.193
374.942	27.185	821.750	652.305
375.956	27.323	821.179	652.288
376.971	27.390	820.687	652.081
377.986	27.435	820.163	651.766
379.000	27.688	819.719	652.261
380.015	27.774	819.226	652.120
381.029	27.564	818.273	650.554
382.044	27.495	818.044	650.066
383.059	27.640	817.915	650.425
384.073	27.748	817.107	650.110
385.088	27.707	816.357	649.310
386.102	27.699	816.208	649.105
387.117	27.555	815.310	647.821
388.132	27.389	814.888	646.838
389.146	27.264	814.068	645.686
390.161	26.668	813.184	642.813
391.175	26.773	812.841	642.857
392.190	27.177	813.294	644.593
393.205	27.307	812.217	644.143
394.219	26.338	810.549	639.339
395.234	24.736	807.973	631.597
396.248	23.978	806.970	628.081
397.263	25.089	808.169	632.884
398.278	26.800	809.650	640.034
399.292	27.398	809.188	641.721
400.307	27.051	808.533	639.924
401.321	26.933	808.106	639.111
402.336	26.924	808.209	639.104
403.350	27.328	808.152	640.425
404.365	27.652	807.985	641.375
405.380	27.910	807.942	642.193
406.394	28.430	807.299	643.451
407.409	28.402	807.019	643.074
408.423	28.439	806.346	642.608
409.438	28.364	805.718	641.790
410.453	28.426	805.563	641.824
411.467	28.457	805.195	641.584
412.482	28.439	804.429	640.855
413.496	28.202	804.189	639.778
414.511	28.447	803.549	640.068
415.526	28.416	803.423	639.802
416.540	28.274	803.157	639.039
417.555	28.277	802.636	638.580
418.569	28.137	801.636	637.238
419.584	27.979	800.903	636.049
420.599	28.102	800.406	636.027
421.613	111.046	1284.189	1456.116
422.628	95.830	1354.691	1456.251
