DTS Sentinel unit serial number:	SN413079Multiplexer serial number:	ORYXHardware model number:	OX4-SRSoftware version number:	ORYX F/W v4.00 Oryx Data Collector v3.7.2.0data status	okinstallation	princeton_trtdifferential loss correction	single-endedforward channel	channel 3reverse channel	N/Adate	2019/09/12time	04:02:10forward acquisition time	60.00reverse acquisition time	0.00gamma	496.2192k internal	0.2322k external	0.2322temperature offset calibration	1.0064default loss term (dB/km)	0.3790temperature slope calibration	1.0000multiplexer offset coefficient	1.0000multiplexer slope coefficient	1.0000fibre end	0.00T internal ref (°C)	32.06T ext. ref 1 (°C)	2.20T ext. ref 2 (°C)	25.96length (m)	temperature (°C)	Stokes	anti-Stokes-747.200	800.000	0.181	0.584
-746.185	-200.000	-0.029	-0.156
-745.171	800.000	0.099	0.289
-744.156	-22.486	0.434	0.265
-743.142	101.306	-0.064	0.075
-742.127	532.638	-0.118	0.282
-741.112	167.432	0.079	0.113
-740.098	26.679	-0.298	0.252
-739.083	170.104	-0.097	0.140
-738.069	800.000	-0.068	0.210
-737.054	800.000	-0.078	-0.287
-736.039	-72.611	0.207	0.077
-735.025	-199.917	0.471	0.002
-734.010	-10.454	-0.199	0.133
-732.996	198.625	0.106	-0.164
-731.981	-148.105	-0.181	0.015
-730.966	-104.629	-0.390	0.091
-729.952	-20.450	0.353	-0.219
-728.937	800.000	0.040	-0.141
-727.923	-116.413	0.032	-0.006
-726.908	173.218	0.116	-0.169
-725.894	143.348	0.114	0.154
-724.879	-76.302	-0.123	0.044
-723.864	370.770	0.159	0.325
-722.850	-13.976	0.155	0.101
-721.835	-115.537	0.227	-0.043
-720.821	512.624	-0.113	0.267
-719.806	-200.000	-0.044	-0.202
-718.791	800.000	-0.201	-0.636
-717.777	-96.327	0.431	-0.115
-716.762	-84.751	0.183	0.058
-715.748	177.287	-0.279	-0.410
-714.733	71.058	-0.153	-0.160
-713.718	-166.412	0.155	0.007
-712.704	800.000	-0.025	0.072
-711.689	-74.906	0.225	0.081
-710.675	61.165	0.242	0.243
-709.660	-200.000	-0.121	-0.000
-708.645	5.919	0.151	0.113
-707.631	-58.343	-0.120	-0.053
-706.616	-200.000	-0.012	-0.079
-705.602	258.239	-0.138	-0.240
-704.587	-27.180	-0.167	0.098
-703.572	255.530	0.087	0.150
-702.558	800.000	0.067	0.211
-701.543	800.000	0.017	0.068
-700.529	27.833	-0.261	0.222
-699.514	-9.146	0.165	-0.112
-698.499	391.249	-0.019	0.040
-697.485	204.432	0.150	0.235
-696.470	-155.831	-0.062	0.004
-695.456	-170.279	0.104	-0.004
-694.441	-154.123	-0.282	-0.019
-693.426	191.223	-0.267	-0.406
-692.412	-98.762	0.224	0.058
-691.397	169.896	0.137	-0.198
-690.383	10.414	0.161	-0.124
-689.368	-72.976	-0.067	0.025
-688.354	162.626	-0.059	0.084
-687.339	-119.379	0.213	0.037
-686.324	26.580	-0.130	0.110
-685.310	-99.333	0.265	-0.067
-684.295	-134.626	0.165	0.020
-683.281	-137.163	0.097	0.011
-682.266	-91.887	0.232	-0.066
-681.251	-119.577	-0.108	-0.019
-680.237	635.110	-0.214	-0.547
-679.222	-200.000	-0.010	0.266
-678.208	39.623	-0.179	0.162
-677.193	-145.277	0.036	0.003
-676.178	800.000	-0.088	-0.320
-675.164	-46.491	-0.085	-0.042
-674.149	210.381	-0.228	-0.361
-673.135	19.947	0.370	-0.300
-672.120	-44.800	-0.256	0.129
-671.105	359.361	0.012	0.025
-670.091	93.260	0.126	0.144
-669.076	-70.762	-0.117	-0.044
-668.062	317.192	0.163	-0.311
-667.047	-29.993	0.341	0.196
-666.032	-33.581	-0.113	-0.063
-665.018	-0.457	-0.145	-0.104
-664.003	-87.819	0.340	0.103
-662.989	-165.198	0.086	-0.004
-661.974	-200.000	0.006	-0.079
-660.959	783.707	0.088	0.243
-659.945	-3.477	-0.257	-0.180
-658.930	234.188	-0.110	0.183
-657.916	-200.000	0.030	-0.328
-656.901	800.000	-0.088	-0.360
-655.886	-169.781	0.396	-0.014
-654.872	-84.465	-0.302	-0.096
-653.857	322.965	0.139	0.267
-652.843	111.014	0.070	0.085
-651.828	19.898	0.228	-0.185
-650.814	432.301	-0.070	-0.152
-649.799	10.031	0.263	-0.201
-648.784	-41.829	0.195	-0.101
-647.770	800.000	0.088	0.366
-646.755	466.658	0.065	0.146
-645.741	-15.563	0.086	-0.055
-644.726	800.000	0.011	-0.036
-643.711	194.214	-0.055	-0.084
-642.697	-76.443	-0.203	0.072
-641.682	-200.000	0.000	-0.075
-640.668	351.870	-0.026	-0.052
-639.653	509.115	0.052	-0.122
-638.638	-168.633	0.179	0.007
-637.624	-200.000	0.008	0.227
-636.609	-135.744	0.358	0.043
-635.595	-12.643	0.124	-0.081
-634.580	-36.648	-0.091	0.049
-633.565	-200.000	-0.067	-0.494
-632.551	-200.000	-0.271	-0.001
-631.536	325.845	0.034	0.065
-630.522	101.453	0.162	-0.190
-629.507	-118.707	0.309	-0.055
-628.492	223.118	0.158	0.256
-627.478	61.942	-0.167	0.167
-626.463	381.230	0.078	-0.161
-625.449	7.773	0.047	-0.035
-624.434	291.595	-0.055	-0.101
-623.419	468.187	0.140	0.316
-622.405	-200.000	0.006	0.164
-621.390	-130.723	-0.111	0.015
-620.376	-8.959	0.458	-0.308
-619.361	-66.887	0.224	0.089
-618.346	-58.695	-0.024	0.010
-617.332	-200.000	0.025	-0.244
-616.317	4.128	-0.139	0.102
-615.303	-200.000	-0.014	0.073
-614.288	800.000	0.071	-0.202
-613.273	169.725	-0.084	-0.121
-612.259	-200.000	-0.049	-0.239
-611.244	400.651	0.098	0.207
-610.230	-7.227	-0.041	0.028
-609.215	-134.004	-0.453	0.056
-608.201	-29.956	0.118	0.068
-607.186	-5.946	0.423	0.291
-606.171	356.221	-0.080	-0.159
-605.157	-169.355	-0.293	0.011
-604.142	-55.706	-0.183	0.082
-603.128	5.995	0.018	-0.014
-602.113	800.000	-0.067	0.210
-601.098	-93.464	0.140	0.039
-600.084	-75.541	0.056	0.020
-599.069	253.351	0.064	-0.110
-598.055	383.443	-0.132	-0.272
-597.040	174.658	0.151	-0.219
-596.025	1.259	0.097	-0.070
-595.011	-200.000	-0.015	0.110
-593.996	93.424	0.183	0.209
-592.982	800.000	0.051	-0.152
-591.967	104.885	0.092	-0.109
-590.952	-85.885	-0.069	0.022
-589.938	64.742	0.178	-0.181
-588.923	-113.020	-0.273	0.054
-587.909	-200.000	0.001	0.258
-586.894	80.453	0.196	0.212
-585.879	-55.035	-0.245	0.111
-584.865	235.437	0.106	-0.176
-583.850	-200.000	-0.018	0.200
-582.836	-200.000	-0.029	0.154
-581.821	-58.321	0.037	-0.016
-580.806	800.000	0.035	-0.097
-579.792	-95.057	-0.195	0.053
-578.777	178.543	-0.159	-0.233
-577.763	-141.085	-0.180	-0.019
-576.748	-168.577	0.186	0.007
-575.733	25.155	0.044	0.037
-574.719	-200.000	0.012	-0.118
-573.704	396.241	-0.065	-0.136
-572.690	-200.000	-0.028	0.261
-571.675	-59.955	-0.196	-0.084
-570.661	-6.944	0.035	-0.024
-569.646	-130.593	-0.417	-0.056
-568.631	-200.000	-0.003	-0.124
-567.617	-18.572	0.186	0.116
-566.602	227.470	0.101	0.165
-565.588	-200.000	-0.029	0.183
-564.573	-148.263	0.231	0.019
-563.558	394.199	-0.092	-0.192
-562.544	800.000	0.085	-0.277
-561.529	47.032	0.022	0.020
-560.515	-63.741	0.038	0.016
-559.500	800.000	0.017	0.051
-558.485	554.552	-0.118	-0.285
-557.471	25.032	0.148	0.123
-556.456	59.558	0.102	-0.101
-555.442	-57.125	-0.076	0.034
-554.427	383.977	0.125	-0.258
-553.412	578.588	-0.144	0.354
-552.398	-87.984	-0.060	-0.018
-551.383	-57.982	0.366	0.160
-550.369	414.564	0.095	0.203
-549.354	41.188	0.340	0.308
-548.339	800.000	-0.046	-0.141
-547.325	68.295	0.169	-0.174
-546.310	-184.350	0.271	0.004
-545.296	83.175	0.145	0.158
-544.281	141.336	-0.096	-0.128
-543.266	79.949	-0.117	-0.126
-542.252	-200.000	0.014	0.120
-541.237	-143.029	-0.250	0.024
-540.223	-36.174	0.187	0.101
-539.208	34.055	0.017	0.015
-538.193	-32.697	0.068	0.038
-537.179	800.000	-0.060	0.242
-536.164	-193.827	-0.142	0.001
-535.150	-64.301	0.493	-0.201
-534.135	800.000	-0.047	-0.173
-533.121	405.485	-0.117	0.246
-532.106	800.000	-0.013	-0.056
-531.091	-23.856	-0.242	0.145
-530.077	-83.607	-0.100	-0.032
-529.062	23.516	-0.249	-0.205
-528.048	156.824	0.100	-0.139
-527.033	-115.832	0.127	0.024
-526.018	-122.329	-0.150	0.024
-525.004	-7.335	0.093	-0.063
-523.989	-41.649	-0.089	-0.046
-522.975	800.000	-0.098	0.427
-521.960	218.175	-0.145	0.232
-520.945	-200.000	0.019	0.362
-519.931	238.744	0.134	0.224
-518.916	-200.000	-0.025	0.240
-517.902	-200.000	-0.029	0.256
-516.887	-200.000	0.009	0.423
-515.872	-14.779	-0.185	0.119
-514.858	167.254	0.098	-0.139
-513.843	9.316	0.053	0.040
-512.829	0.400	0.081	-0.058
-511.814	-113.265	0.373	-0.074
-510.799	0.948	-0.094	-0.067
-509.785	-73.151	-0.586	-0.215
-508.770	91.833	0.143	-0.161
-507.756	800.000	-0.090	-0.342
-506.741	-6.700	0.237	-0.161
-505.726	145.299	0.129	0.172
-504.712	146.599	0.172	-0.232
-503.697	-200.000	-0.053	0.289
-502.683	-111.676	-0.258	0.052
-501.668	45.513	0.030	-0.028
-500.653	-200.000	0.004	-0.024
-499.639	32.563	0.283	-0.245
-498.624	-78.892	0.392	-0.134
-497.610	-83.466	0.180	-0.058
-496.595	-200.000	0.060	0.308
-495.581	-126.489	-0.180	-0.027
-494.566	-200.000	-0.026	-0.125
-493.551	-200.000	0.012	-0.329
-492.537	6.548	-0.352	-0.262
-491.522	-101.253	0.262	0.064
-490.508	-31.276	-0.380	0.214
-489.493	-200.000	-0.017	-0.120
-488.478	-86.285	-0.128	-0.039
-487.464	-39.202	-0.245	-0.129
-486.449	146.671	0.201	0.271
-485.435	-200.000	0.025	0.128
-484.420	282.527	0.043	-0.078
-483.405	800.000	-0.040	0.149
-482.391	-51.554	0.022	0.010
-481.376	103.857	-0.087	0.102
-480.362	104.156	-0.133	-0.156
-479.347	-146.195	-0.167	-0.015
-478.332	243.340	-0.171	0.287
-477.318	145.079	0.078	-0.105
-476.303	-38.087	-0.246	-0.131
-475.289	-27.145	0.338	-0.197
-474.274	800.000	0.013	-0.048
-473.259	800.000	-0.042	-0.165
-472.245	-200.000	0.020	0.156
-471.230	47.876	0.164	0.153
-470.216	-200.000	0.062	-0.321
-469.201	-200.000	0.026	0.124
-468.186	21.443	-0.232	0.188
-467.172	-99.498	0.042	0.011
-466.157	-56.331	-0.167	0.074
-465.143	-62.280	-0.120	-0.050
-464.128	255.266	-0.184	-0.316
-463.113	212.818	0.223	-0.352
-462.099	-122.753	0.140	-0.023
-461.084	-22.580	0.305	-0.184
-460.070	71.922	-0.038	0.040
-459.055	-29.493	-0.312	-0.178
-458.040	-200.000	-0.036	-0.321
-457.026	-55.598	-0.482	-0.216
-456.011	-93.859	0.328	0.090
-454.997	75.616	0.281	0.297
-453.982	-200.000	-0.001	-0.158
-452.968	-84.880	0.377	-0.118
-451.953	-161.229	-0.228	-0.012
-450.938	491.909	0.127	0.291
-449.924	21.564	0.061	0.049
-448.909	32.249	0.087	-0.075
-447.895	55.913	0.138	-0.133
-446.880	-195.150	-0.079	0.001
-445.865	-59.525	0.108	-0.046
-444.851	83.096	-0.085	-0.092
-443.836	-55.396	0.277	-0.124
-442.822	-200.000	0.017	0.085
-441.807	127.885	0.269	-0.341
-440.792	-200.000	0.000	-0.139
-439.778	800.000	0.053	0.197
-438.763	241.981	0.019	-0.032
-437.749	-200.000	0.069	-0.305
-436.734	-51.120	0.071	0.033
-435.719	4.985	-0.059	-0.044
-434.705	-200.000	0.005	0.475
-433.690	-138.386	0.498	-0.055
-432.676	-24.895	0.357	0.211
-431.661	432.064	-0.047	0.102
-430.646	-45.632	0.042	0.021
-429.632	-200.000	-0.004	0.345
-428.617	254.467	0.184	-0.314
-427.603	-53.634	-0.355	0.162
-426.588	-100.564	-0.424	-0.105
-425.573	800.000	0.050	-0.214
-424.559	-116.007	0.223	-0.041
-423.544	51.815	-0.176	0.167
-422.530	-109.689	0.232	-0.049
-421.515	485.061	0.224	-0.509
-420.500	-200.000	-0.041	-0.192
-419.486	-36.734	-0.372	-0.199
-418.471	-200.000	-0.031	0.293
-417.457	-72.562	-0.291	-0.107
-416.442	-181.325	-0.098	0.002
-415.428	36.684	0.006	-0.006
-414.413	-200.000	0.022	0.116
-413.398	-126.441	-0.330	0.049
-412.384	73.621	0.094	0.099
-411.369	-46.912	-0.196	-0.096
-410.355	255.572	-0.216	0.370
-409.340	-45.016	-0.157	0.078
-408.325	87.568	0.160	0.177
-407.311	24.551	-0.245	-0.202
-406.296	-7.260	-0.150	-0.102
-405.282	-128.025	0.269	0.038
-404.267	-152.570	-0.487	0.035
-403.252	-200.000	-0.043	-0.190
-402.238	-200.000	0.015	-0.512
-401.223	-106.674	-0.327	-0.072
-400.209	230.996	-0.068	0.110
-399.194	800.000	0.019	0.055
-398.179	-114.885	0.091	-0.017
-397.165	-50.804	0.318	0.149
-396.150	-55.822	0.087	0.039
-395.136	137.287	-0.106	0.138
-394.121	800.000	-0.075	0.243
-393.106	-200.000	0.042	0.351
-392.092	-47.004	0.203	-0.099
-391.077	-149.504	0.216	0.017
-390.063	-200.000	-0.034	-0.175
-389.048	-142.076	-0.166	-0.016
-388.033	-139.342	-0.238	0.026
-387.019	-7.254	-0.285	0.193
-386.004	144.858	0.116	-0.155
-384.990	-4.160	-0.253	0.175
-383.975	-156.989	-0.324	-0.020
-382.960	-118.256	0.061	-0.011
-381.946	-26.538	0.241	0.141
-380.931	458.360	0.141	-0.313
-379.917	-37.364	-0.191	-0.102
-378.902	-90.351	-0.177	0.051
-377.888	143.524	-0.078	-0.103
-376.873	-146.508	0.208	-0.018
-375.858	74.156	0.210	0.219
-374.844	150.462	0.157	0.212
-373.829	-138.133	-0.188	0.021
-372.815	800.000	0.067	-0.272
-371.800	-25.674	-0.046	-0.027
-370.785	2.719	-0.103	-0.074
-369.771	-200.000	-0.030	0.162
-368.756	284.087	0.047	0.085
-367.742	-137.827	-0.186	-0.021
-366.727	-200.000	-0.014	0.140
-365.712	96.585	0.186	0.212
-364.698	71.776	-0.243	0.252
-363.683	377.113	-0.112	0.227
-362.669	-126.413	0.460	0.068
-361.654	-45.354	-0.196	0.097
-360.639	-200.000	-0.040	-0.327
-359.625	365.648	0.079	0.159
-358.610	13.535	0.112	0.086
-357.596	27.482	-0.236	-0.198
-356.581	159.272	0.199	0.276
-355.566	-76.135	0.092	0.032
-354.552	188.797	0.209	-0.311
-353.537	58.042	-0.177	0.172
-352.523	-166.409	0.132	0.006
-351.508	465.330	0.087	-0.194
-350.493	-19.838	0.265	-0.163
-349.479	108.082	-0.138	-0.164
-348.464	-200.000	0.022	-0.161
-347.450	85.745	-0.083	-0.091
-346.435	-101.705	0.187	-0.045
-345.420	-200.000	-0.001	0.092
-344.406	-200.000	-0.004	0.087
-343.391	-1.770	0.247	0.173
-342.377	-200.000	-0.230	0.000
-341.362	162.503	0.178	0.249
-340.348	-57.390	0.026	0.011
-339.333	800.000	-0.051	-0.200
-338.318	-200.000	-0.015	0.295
-337.304	229.229	-0.106	0.171
-336.289	499.964	-0.076	-0.174
-335.275	-76.496	-0.180	-0.063
-334.260	-3.812	-0.162	-0.112
-333.245	155.872	0.035	0.047
-332.231	331.310	0.216	-0.414
-331.216	71.368	-0.203	-0.210
-330.202	-200.000	0.028	-0.120
-329.187	311.383	0.175	-0.327
-328.172	5.277	-0.198	0.145
-327.158	33.502	0.254	0.219
-326.143	672.035	-0.045	-0.117
-325.129	-67.637	-0.137	-0.053
-324.114	129.015	0.139	-0.177
-323.099	-113.440	-0.038	-0.007
-322.085	0.579	-0.105	-0.075
-321.070	203.179	0.237	-0.364
-320.056	-7.149	-0.103	-0.069
-319.041	-200.000	-0.001	0.238
-318.026	10.706	-0.313	-0.237
-317.012	-33.716	-0.126	-0.069
-315.997	21.680	-0.149	0.120
-314.983	-200.000	-0.040	0.229
-313.968	318.171	0.091	0.170
-312.953	-182.468	0.194	-0.004
-311.939	93.422	-0.130	0.146
-310.924	800.000	0.029	0.127
-309.910	-88.360	-0.383	0.114
-308.895	65.800	-0.124	0.124
-307.880	-43.032	0.194	-0.098
-306.866	-200.000	-0.024	0.124
-305.851	-27.904	-0.086	0.049
-304.837	-96.093	0.155	-0.041
-303.822	92.926	0.247	-0.277
-302.807	575.409	0.114	0.276
-301.793	202.120	-0.109	-0.167
-300.778	-92.442	-0.316	-0.088
-299.764	-200.000	-0.060	-0.269
-298.749	5.727	-0.047	0.035
-297.735	-99.935	-0.283	-0.070
-296.720	-17.461	-0.033	-0.021
-295.705	417.484	-0.053	-0.112
-294.691	-148.430	-0.235	-0.019
-293.676	327.282	-0.017	0.032
-292.662	-200.000	0.022	0.097
-291.647	-95.640	-0.124	-0.033
-290.632	74.230	-0.104	0.108
-289.618	-200.000	0.015	-0.099
-288.603	24.733	-0.050	0.041
-287.589	-64.672	-0.264	-0.106
-286.574	-98.944	-0.266	0.067
-285.559	-200.000	-0.016	-0.155
-284.545	15.912	0.175	0.137
-283.530	120.495	-0.052	0.065
-282.516	397.246	0.038	-0.078
-281.501	-115.055	0.171	-0.032
-280.486	300.630	-0.118	-0.217
-279.472	157.452	-0.077	-0.106
-278.457	101.120	-0.206	-0.238
-277.443	242.054	0.140	-0.233
-276.428	264.994	0.048	0.083
-275.413	-200.000	-0.168	-0.000
-274.399	-88.245	0.174	0.052
-273.384	-136.792	0.194	0.022
-272.370	8.017	-0.210	-0.156
-271.355	-99.247	-0.323	0.081
-270.340	-115.263	-0.345	-0.065
-269.326	-200.000	0.033	0.200
-268.311	-136.786	0.277	0.032
-267.297	-200.000	-0.002	0.302
-266.282	-42.849	-0.265	-0.133
-265.267	-28.536	0.171	0.097
-264.253	305.440	0.182	0.336
-263.238	-169.165	0.392	0.014
-262.224	-85.716	0.080	-0.025
-261.209	800.000	-0.039	0.119
-260.195	800.000	-0.038	-0.150
-259.180	-200.000	-0.006	0.195
-258.165	-48.207	0.033	-0.016
-257.151	117.192	0.060	0.073
-256.136	-14.412	-0.210	-0.134
-255.122	-200.000	0.038	0.214
-254.107	449.044	0.053	-0.116
-253.092	-200.000	0.027	-0.153
-252.078	-129.012	-0.211	-0.029
-251.063	124.981	-0.152	0.190
-250.049	-200.000	-0.010	0.234
-249.034	-69.065	0.169	0.065
-248.019	160.284	-0.039	0.054
-247.005	238.054	0.184	0.302
-245.990	-131.998	0.013	0.002
-244.976	22.016	0.293	0.237
-243.961	155.364	-0.193	0.263
-242.946	-113.859	0.119	-0.023
-241.932	-23.911	0.140	-0.083
-240.917	800.000	0.063	0.230
-239.903	274.448	0.028	-0.049
-238.888	154.531	-0.217	0.295
-237.873	-91.178	0.333	0.094
-236.859	-113.697	-0.008	-0.001
-235.844	-88.332	0.035	0.010
-234.830	71.509	0.105	0.108
-233.815	-179.531	-0.309	0.007
-232.800	-87.793	-0.510	0.152
-231.786	-200.000	0.063	0.323
-230.771	800.000	-0.052	-0.178
-229.757	241.408	-0.087	0.143
-228.742	444.294	0.128	-0.278
-227.727	800.000	-0.090	-0.278
-226.713	7.002	0.113	0.083
-225.698	-73.044	-0.113	0.041
-224.684	251.627	0.136	-0.229
-223.669	-110.470	-0.245	-0.050
-222.655	-69.010	-0.237	0.090
-221.640	800.000	-0.045	-0.185
-220.625	722.759	0.068	0.180
-219.611	-200.000	-0.022	-0.125
-218.596	28.288	-0.105	0.088
-217.582	-200.000	0.021	-0.423
-216.567	49.871	-0.331	-0.309
-215.552	-111.750	0.090	-0.018
-214.538	-200.000	0.042	0.185
-213.523	-113.013	0.432	0.085
-212.509	-200.000	-0.020	0.179
-211.494	-56.071	0.055	0.024
-210.479	-200.000	0.052	-0.313
-209.465	111.124	-0.205	0.244
-208.450	-11.179	0.234	0.153
-207.436	88.282	-0.066	0.072
-206.421	318.073	0.054	-0.101
-205.406	-119.557	0.284	0.049
-204.392	800.000	-0.040	0.163
-203.377	65.322	0.142	0.142
-202.363	-200.000	0.021	-0.124
-201.348	-170.387	-0.304	-0.011
-200.333	404.306	-0.091	0.189
-199.319	-200.000	-0.015	-0.145
-198.304	213.317	0.293	-0.457
-197.290	-200.000	0.034	-0.217
-196.275	800.000	0.028	0.081
-195.260	-119.379	0.324	0.056
-194.246	-107.813	-0.164	-0.035
-193.231	78.904	0.149	-0.157
-192.217	586.379	-0.148	0.359
-191.202	-200.000	0.026	-0.243
-190.187	-200.000	-0.024	0.325
-189.173	-200.000	0.013	-0.245
-188.158	-200.000	-0.017	-0.425
-187.144	-200.000	-0.031	0.225
-186.129	-57.367	0.134	0.058
-185.114	-51.514	0.187	-0.086
-184.100	94.285	0.166	-0.186
-183.085	239.808	-0.067	0.111
-182.071	445.624	0.138	0.299
-181.056	124.096	0.306	-0.380
-180.042	38.229	-0.205	0.180
-179.027	167.375	-0.228	0.319
-178.012	-32.566	-0.233	0.128
-176.998	-200.000	0.036	0.186
-175.983	-200.000	-0.044	-0.241
-174.969	-100.129	-0.190	-0.047
-173.954	627.636	0.087	-0.217
-172.939	69.838	0.106	0.108
-171.925	740.020	-0.020	0.054
-170.910	272.499	-0.053	-0.092
-169.896	-175.982	-0.316	-0.008
-168.881	39.417	-0.378	-0.334
-167.866	-200.000	-0.029	-0.218
-166.852	78.207	0.266	0.281
-165.837	167.987	0.123	0.173
-164.823	-133.084	-0.103	-0.013
-163.808	-114.173	0.158	-0.030
-162.793	-116.107	-0.346	-0.063
-161.779	-130.144	0.217	0.029
-160.764	-182.331	0.105	-0.002
-159.750	-97.176	0.254	-0.066
-158.735	-200.000	0.008	0.182
-157.720	87.016	-0.083	-0.090
-156.706	14.256	-0.247	0.190
-155.691	-200.000	0.042	-0.292
-154.677	-106.653	0.120	0.026
-153.662	-99.442	0.270	0.067
-152.647	327.374	-0.172	0.326
-151.633	-200.000	0.010	-0.106
-150.618	81.383	-0.068	-0.072
-149.604	693.445	0.080	0.207
-148.589	800.000	-0.038	-0.158
-147.574	-127.522	-0.363	0.052
-146.560	-63.437	-0.078	0.032
-145.545	125.856	-0.176	-0.219
-144.531	-145.322	-0.264	-0.024
-143.516	57.969	0.119	-0.115
-142.502	290.338	0.175	0.314
-141.487	4.883	0.158	-0.115
-140.472	-200.000	-0.003	0.452
-139.458	328.298	0.113	-0.214
-138.443	-104.762	0.209	-0.047
-137.429	-6.177	-0.126	0.085
-136.414	4.576	0.369	0.267
-135.399	18.880	0.393	0.311
-134.385	35.426	0.070	-0.061
-133.370	-168.044	-0.234	-0.009
-132.356	-200.000	-0.008	-0.112
-131.341	515.616	0.064	-0.148
-130.326	-122.271	0.462	0.074
-129.312	800.000	0.020	-0.087
-128.297	50.542	-0.134	-0.125
-127.283	4.994	0.197	0.143
-126.268	147.158	0.089	-0.118
-125.253	63.911	0.168	0.167
-124.239	46.264	-0.139	-0.127
-123.224	162.672	0.123	0.170
-122.210	283.254	-0.099	0.175
-121.195	-134.716	-0.029	0.003
-120.180	-200.000	-0.041	-0.313
-119.166	-142.634	0.082	0.008
-118.151	-32.334	0.054	-0.030
-117.137	399.493	0.061	0.127
-116.122	229.188	-0.011	-0.018
-115.107	-96.795	-0.177	-0.046
-114.093	800.000	-0.054	0.207
-113.078	94.872	0.200	0.225
-112.064	-74.240	-0.282	-0.100
-111.049	202.584	-0.157	0.239
-110.034	14.612	0.151	-0.116
-109.020	305.839	-0.236	0.432
-108.005	-200.000	-0.010	-0.248
-106.991	-137.699	0.160	0.018
-105.976	56.045	0.135	-0.129
-104.962	325.661	-0.090	0.170
-103.947	12.424	-0.098	-0.075
-102.932	-138.326	0.125	-0.014
-101.918	222.448	0.190	0.301
-100.903	-129.633	0.155	-0.021
-99.889	-99.611	-0.332	-0.082
-98.874	39.667	0.168	0.148
-97.859	800.000	0.010	-0.043
-96.845	-200.000	0.024	0.185
-95.830	-200.000	-0.014	0.199
-94.816	788.096	0.061	-0.164
-93.801	-152.102	-0.240	0.017
-92.786	512.546	0.066	0.151
-91.772	-128.338	-0.283	0.040
-90.757	91.126	0.159	-0.176
-89.743	-200.000	0.013	-0.197
-88.728	266.233	-0.178	0.306
-87.713	800.000	-0.068	0.201
-86.699	2.211	-0.216	-0.153
-85.684	235.808	0.016	0.026
-84.670	258.014	-0.135	0.228
-83.655	800.000	-0.042	0.119
-82.640	342.220	0.176	0.339
-81.626	800.000	-0.163	-0.516
-80.611	-113.644	0.189	-0.036
-79.597	-116.632	-0.160	-0.029
-78.582	36.228	0.060	0.052
-77.567	800.000	0.122	-0.387
-76.553	-119.743	-0.276	-0.047
-75.538	429.518	-0.225	-0.480
-74.524	-200.000	-0.047	0.335
-73.509	-21.754	0.366	0.219
-72.494	181.890	-0.124	0.179
-71.480	45.632	0.133	0.121
-70.465	94.844	0.161	0.181
-69.451	454.795	0.084	0.184
-68.436	69.785	0.125	0.127
-67.422	-147.021	-0.334	-0.028
-66.407	211.288	-0.072	-0.112
-65.392	711.905	0.177	-0.460
-64.378	800.000	0.053	-0.186
-63.363	-78.263	0.516	-0.174
-62.349	-200.000	0.021	0.114
-61.334	-24.565	-0.805	-0.471
-60.319	143.370	0.556	0.728
-59.305	330.728	-0.385	-0.730
-58.290	247.734	0.681	1.132
-57.276	614.770	0.593	1.460
-56.261	-200.000	96.300	596.730
-55.246	566.495	1363.487	3253.794
-54.232	162.996	2538.896	3506.847
-53.217	112.632	2153.907	2564.337
-52.203	42.705	1700.907	1523.134
-51.188	35.273	1515.104	1306.295
-50.173	33.010	1487.595	1267.367
-49.159	51.778	1537.188	1438.085
-48.144	53.870	1554.814	1468.799
-47.130	35.394	1514.799	1306.651
-46.115	32.301	1499.949	1272.891
-45.100	32.228	1496.645	1269.545
-44.086	32.160	1494.566	1267.269
-43.071	32.113	1492.665	1265.290
-42.057	32.119	1491.212	1264.048
-41.042	32.126	1489.543	1262.634
-40.027	32.091	1488.565	1261.522
-39.013	32.075	1487.431	1260.402
-37.998	32.083	1485.329	1258.626
-36.984	32.083	1484.357	1257.748
-35.969	32.051	1482.950	1256.293
-34.954	32.021	1481.973	1255.216
-33.940	32.044	1480.789	1254.318
-32.925	32.043	1479.324	1253.021
-31.911	32.169	1477.566	1252.320
-30.896	32.106	1476.009	1250.535
-29.881	32.154	1474.863	1249.828
-28.867	32.164	1473.559	1248.740
-27.852	32.168	1472.333	1247.678
-26.838	32.114	1470.877	1246.038
-25.823	32.045	1469.716	1244.546
-24.809	32.165	1467.342	1243.285
-23.794	32.079	1466.287	1241.769
-22.779	32.170	1464.635	1240.925
-21.765	32.101	1463.845	1239.748
-20.750	32.088	1462.936	1238.845
-19.736	32.035	1462.002	1237.656
-18.721	32.060	1460.645	1236.620
-17.706	32.138	1459.128	1235.801
-16.692	32.053	1458.055	1234.287
-15.677	32.084	1457.223	1233.736
-14.663	32.105	1456.140	1232.909
-13.648	31.974	1455.657	1231.593
-12.633	32.078	1454.370	1231.134
-11.619	32.026	1453.705	1230.178
-10.604	32.032	1452.760	1229.370
-9.590	32.016	1452.190	1228.739
-8.575	31.929	1451.299	1227.367
-7.560	31.974	1450.363	1226.817
-6.546	31.989	1449.673	1226.280
-5.531	31.933	1448.575	1224.938
-4.517	32.036	1447.227	1224.422
-3.502	32.025	1445.856	1223.144
-2.487	32.019	1445.249	1222.542
-1.473	32.036	1444.026	1221.567
-0.458	32.009	1442.840	1220.344
0.556	32.389	1433.340	1208.842
1.571	29.666	1409.377	1171.295
2.586	26.979	1356.308	1110.681
3.600	25.771	1278.793	1040.137
4.615	24.476	1231.409	994.297
5.629	21.144	1173.661	929.866
6.644	11.279	1086.439	811.795
7.659	3.453	1044.237	742.619
8.673	2.431	1038.169	733.340
9.688	2.198	1035.635	730.372
10.702	2.057	1033.713	728.281
11.717	2.105	1031.838	727.125
12.731	5.912	1036.504	748.533
13.746	15.911	1050.508	806.704
14.761	23.285	1060.165	849.560
15.775	25.085	1061.768	859.410
16.790	25.396	1061.534	860.636
17.804	25.253	1060.712	859.208
18.819	25.098	1059.801	857.653
19.834	25.279	1058.826	857.651
20.848	25.318	1058.996	857.899
21.863	25.464	1058.726	858.301
22.877	25.464	1058.317	857.897
23.892	25.333	1057.548	856.568
24.907	25.187	1056.695	855.110
25.921	25.251	1055.877	854.677
26.936	25.372	1055.314	854.718
27.950	25.405	1053.690	853.483
28.965	25.405	1052.876	852.749
29.980	25.246	1050.963	850.372
30.994	25.148	1050.021	849.072
32.009	25.427	1049.020	849.506
33.023	25.399	1048.977	849.263
34.038	25.298	1047.598	847.595
35.053	25.170	1047.125	846.534
36.067	25.389	1046.592	847.059
37.082	25.339	1045.445	845.822
38.096	25.469	1044.811	845.845
39.111	25.546	1044.121	845.574
40.126	25.725	1043.474	845.817
41.140	25.710	1041.872	844.375
42.155	25.315	1041.081	841.806
43.169	24.967	1039.562	838.871
44.184	25.036	1038.302	838.103
45.199	24.953	1037.736	837.186
46.213	24.918	1036.491	835.946
47.228	25.017	1035.381	835.436
48.242	25.174	1034.938	835.737
49.257	25.340	1034.264	835.891
50.271	25.224	1033.820	834.920
51.286	25.577	1032.494	835.412
52.301	25.449	1032.042	834.380
53.315	25.434	1031.531	833.825
54.330	25.516	1030.329	833.159
55.344	25.245	1030.042	831.597
56.359	25.425	1028.923	831.452
57.374	25.356	1028.507	830.724
58.388	25.184	1027.236	828.827
59.403	25.113	1026.761	828.046
60.417	25.130	1025.949	827.393
61.432	24.962	1024.874	825.681
62.447	24.947	1024.576	825.300
63.461	25.150	1023.850	825.576
64.476	25.259	1022.840	825.189
65.490	25.131	1022.280	824.076
66.505	24.958	1021.060	822.227
67.520	25.012	1020.341	821.820
68.534	25.153	1019.788	821.948
69.549	25.146	1018.382	820.710
70.563	24.751	1017.412	818.051
71.578	24.637	1016.804	816.969
72.593	24.734	1015.867	816.589
73.607	24.522	1014.819	814.706
74.622	24.508	1014.113	814.003
75.636	24.825	1013.221	814.657
76.651	25.063	1012.217	814.861
77.666	24.779	1012.113	813.415
78.680	24.843	1010.675	812.475
79.695	24.815	1010.706	812.303
80.709	24.857	1009.882	811.757
81.724	25.034	1009.212	811.950
82.739	24.885	1008.436	810.580
83.753	24.962	1007.672	810.242
84.768	25.297	1006.643	810.854
85.782	25.540	1006.454	811.729
86.797	25.804	1005.625	812.181
87.812	25.704	1004.626	810.852
88.826	25.413	1004.227	809.148
89.841	25.433	1003.173	808.317
90.855	25.589	1002.428	808.346
91.870	25.643	1001.704	807.934
92.884	25.659	1000.716	807.136
93.899	25.551	999.818	805.858
94.914	25.516	998.746	804.764
95.928	25.611	998.248	804.717
96.943	25.535	997.689	803.853
97.957	25.371	996.262	801.901
98.972	25.053	995.162	799.528
99.987	24.858	993.908	797.581
101.001	25.028	993.779	798.163
102.016	25.360	993.074	799.002
103.030	25.462	992.098	798.602
104.045	25.266	990.990	796.770
105.060	25.114	989.760	795.033
106.074	24.924	988.607	793.196
107.089	25.027	987.731	792.881
108.103	25.513	987.530	794.798
109.118	25.472	986.521	793.733
110.133	25.077	985.685	791.246
111.147	25.167	984.302	790.463
112.162	24.849	983.637	788.459
113.176	24.844	982.257	787.261
114.191	24.794	982.001	786.767
115.206	25.109	980.511	786.886
116.220	24.689	979.959	784.530
117.235	24.551	978.726	782.871
118.249	24.828	978.370	783.728
119.264	24.752	977.738	782.822
120.279	24.780	976.164	781.613
121.293	24.790	975.565	781.110
122.308	24.680	975.382	780.412
123.322	24.829	974.494	780.284
124.337	24.705	974.059	779.327
125.352	24.669	972.143	777.567
126.366	24.430	969.706	774.514
127.381	23.940	968.965	771.725
128.395	24.525	969.011	774.233
129.410	25.148	968.679	776.599
130.424	25.345	968.254	777.040
131.439	25.283	967.549	776.138
132.454	25.288	966.263	775.059
133.468	25.158	965.681	773.961
134.483	25.111	964.492	772.738
135.497	25.178	964.048	772.602
136.512	25.399	963.690	773.202
137.527	25.536	962.829	773.030
138.541	25.551	961.594	772.035
139.556	25.460	961.158	771.226
140.570	25.533	960.263	770.751
141.585	25.520	959.480	769.999
142.600	25.588	958.892	769.749
143.614	25.517	957.751	768.463
144.629	25.671	957.070	768.505
145.643	25.772	956.943	768.768
146.658	25.766	955.335	767.381
147.673	25.522	954.019	765.219
148.687	25.430	953.316	764.194
149.702	25.423	952.352	763.326
150.716	25.128	951.733	761.510
151.731	25.260	950.263	760.825
152.746	25.449	949.241	760.739
153.760	25.610	948.700	760.919
154.775	25.634	948.427	760.734
155.789	25.709	947.659	760.368
156.804	25.812	946.470	759.784
157.819	25.507	945.914	757.982
158.833	25.727	944.934	758.056
159.848	25.799	944.015	757.556
160.862	25.887	943.200	757.206
161.877	25.623	942.272	755.282
162.892	25.548	941.437	754.234
163.906	25.727	940.805	754.412
164.921	25.768	939.591	753.542
165.935	25.745	938.517	752.516
166.950	25.716	937.580	751.581
167.964	25.756	936.565	750.867
168.979	25.745	935.982	750.286
169.994	25.494	934.895	748.303
171.008	25.359	933.886	746.866
172.023	25.663	932.976	747.338
173.037	25.791	932.555	747.465
174.052	25.578	931.434	745.616
175.067	25.306	930.638	743.786
176.081	25.343	929.806	743.210
177.096	25.500	928.773	742.966
178.110	25.340	928.247	741.821
179.125	25.187	927.141	740.237
180.140	24.889	925.964	738.006
181.154	24.901	925.592	737.694
182.169	25.038	925.209	737.886
183.183	25.473	924.553	739.086
184.198	25.617	924.029	739.195
185.213	25.522	923.878	738.617
186.227	25.558	922.970	737.975
187.242	25.560	922.717	737.715
188.256	25.689	921.416	737.140
189.271	25.612	920.771	736.243
190.286	25.750	920.119	736.222
191.300	25.470	919.357	734.401
192.315	25.090	917.780	731.527
193.329	24.189	916.272	726.588
194.344	23.840	915.283	724.317
195.359	24.587	915.707	727.632
196.373	25.352	916.028	730.939
197.388	25.504	915.898	731.386
198.402	25.449	915.057	730.427
199.417	25.391	914.922	730.020
200.432	25.557	913.898	729.811
201.446	25.469	913.296	728.911
202.461	25.163	912.480	726.955
203.475	25.348	911.722	727.036
204.490	24.596	910.648	723.072
205.504	23.536	908.833	717.281
206.519	23.988	908.737	718.973
207.534	24.957	908.754	722.836
208.548	25.161	908.280	723.215
209.563	25.506	907.896	724.238
210.577	25.662	907.038	724.116
211.592	25.232	906.389	721.802
212.607	25.668	906.232	723.367
213.621	25.829	905.620	723.461
214.636	25.643	905.335	722.423
215.650	25.732	904.802	722.292
216.665	25.743	904.144	721.747
217.680	25.711	903.502	721.042
218.694	25.881	903.076	721.320
219.709	25.477	902.371	719.075
220.723	25.162	901.251	716.860
221.738	25.283	900.761	716.890
222.753	25.482	900.250	717.214
223.767	25.499	899.414	716.554
224.782	25.654	898.668	716.514
225.796	25.807	898.247	716.722
226.811	25.912	897.921	716.816
227.826	25.538	896.454	714.097
228.840	24.707	895.243	709.771
229.855	24.562	894.326	708.408
230.869	24.846	894.203	709.372
231.884	24.525	893.324	707.340
232.899	24.687	892.477	707.248
233.913	25.466	892.566	710.337
234.928	25.451	892.615	710.256
235.942	25.268	892.026	709.002
236.957	25.382	891.374	708.868
237.972	25.154	890.137	706.923
238.986	25.013	889.476	705.783
240.001	25.274	888.901	706.289
241.015	25.150	888.295	705.259
242.030	25.324	887.655	705.370
243.045	25.451	887.187	705.437
244.059	25.612	886.812	705.705
245.074	25.686	886.360	705.576
246.088	25.639	885.660	704.773
247.103	25.113	884.823	701.982
248.117	25.289	884.328	702.217
249.132	25.773	884.331	704.052
250.147	26.154	883.851	705.096
251.161	26.205	883.546	704.987
252.176	26.508	882.694	705.427
253.190	26.406	882.110	704.499
254.205	26.431	881.748	704.248
255.220	26.623	881.614	704.826
256.234	26.609	880.768	704.031
257.249	26.634	879.827	703.315
258.263	26.337	879.567	701.889
259.278	26.445	878.824	701.657
260.293	26.581	878.466	701.833
261.307	26.493	877.934	701.008
262.322	26.408	877.266	700.081
263.336	26.242	876.825	699.025
264.351	25.816	875.082	695.929
265.366	24.721	873.240	690.177
266.380	24.311	872.189	687.704
267.395	25.200	872.784	691.541
268.409	26.076	872.917	694.961
269.424	26.036	872.438	694.366
270.439	26.113	871.885	694.160
271.453	26.408	870.903	694.451
272.468	26.250	870.330	693.324
273.482	26.422	870.218	693.833
274.497	26.511	869.645	693.657
275.512	26.375	868.716	692.335
276.526	25.827	867.093	688.886
277.541	25.883	866.931	688.909
278.555	26.253	866.945	690.273
279.570	26.180	865.740	688.977
280.585	25.943	865.354	687.703
281.599	25.933	864.836	687.191
282.614	26.054	864.467	687.299
283.628	25.699	863.111	684.811
284.643	25.245	862.642	682.649
285.657	25.915	862.110	684.716
286.672	25.735	861.485	683.475
287.687	25.256	860.292	680.652
288.701	25.470	860.897	681.880
289.716	25.857	860.321	682.831
290.730	25.744	859.236	681.484
291.745	25.524	858.365	679.900
292.760	25.314	857.633	678.465
293.774	25.241	857.265	677.840
294.789	26.098	857.997	681.595
295.803	26.831	858.076	684.367
296.818	26.657	857.614	683.281
297.833	26.819	856.677	683.085
298.847	26.479	855.828	681.066
299.862	26.216	854.837	679.228
300.876	26.249	854.887	679.332
301.891	26.760	854.336	680.756
302.906	26.874	853.631	680.561
303.920	26.400	852.524	677.843
304.935	26.260	851.850	676.720
305.949	26.576	851.828	677.826
306.964	26.826	851.430	678.387
307.979	26.574	850.490	676.635
308.993	26.423	850.042	675.654
310.008	26.736	850.105	676.815
311.022	26.834	849.680	676.783
312.037	26.763	848.661	675.647
313.052	26.647	847.586	674.297
314.066	26.502	847.360	673.519
315.081	25.854	845.850	669.851
316.095	25.010	844.465	665.561
317.110	25.484	844.805	667.532
318.125	26.419	844.987	671.086
319.139	26.089	843.896	668.937
320.154	24.755	842.344	662.709
321.168	24.328	841.613	660.495
322.183	25.003	841.445	662.803
323.197	25.908	841.939	666.482
324.212	26.221	841.813	667.479
325.227	26.367	841.305	667.556
326.241	26.425	840.856	667.356
327.256	26.366	840.360	666.685
328.270	26.260	840.010	665.958
329.285	26.231	839.139	665.100
330.300	26.092	838.186	663.776
331.314	25.920	837.469	662.519
332.329	25.885	836.995	661.955
333.343	26.445	836.686	663.707
334.358	26.674	836.642	664.456
335.373	26.725	835.553	663.718
336.387	26.755	834.975	663.308
337.402	26.867	835.326	663.941
338.416	27.125	834.728	664.350
339.431	27.001	834.069	663.311
340.446	27.067	833.870	663.336
341.460	27.241	833.137	663.330
342.475	27.385	832.488	663.280
343.489	27.037	831.497	661.165
344.504	27.061	831.287	661.024
345.519	27.293	831.001	661.585
346.533	27.545	830.698	662.200
347.548	27.523	830.409	661.830
348.562	27.361	829.983	660.843
349.577	27.446	829.078	660.376
350.592	27.391	828.609	659.744
351.606	27.393	828.133	659.312
352.621	27.328	827.911	658.843
353.635	27.226	827.143	657.802
354.650	27.211	826.704	657.343
355.665	26.924	825.576	655.353
356.679	25.891	823.815	650.171
357.694	25.641	823.739	649.152
358.708	26.515	823.519	652.070
359.723	26.186	823.293	650.650
360.738	26.333	823.394	651.201
361.752	26.930	822.939	652.933
362.767	27.167	822.225	653.159
363.781	27.307	822.328	653.689
364.796	27.722	822.036	654.886
365.810	27.691	821.588	654.361
366.825	27.889	821.375	654.843
367.840	27.843	821.084	654.389
368.854	27.649	820.201	652.932
369.869	27.161	819.666	650.701
370.883	27.011	818.444	649.137
371.898	26.973	818.435	648.936
372.913	27.026	817.577	648.390
373.927	27.078	816.673	647.801
374.942	27.157	816.176	647.630
375.956	27.478	815.348	648.058
376.971	27.397	815.446	647.792
377.986	27.477	815.049	647.703
379.000	27.727	814.655	648.219
380.015	27.920	813.810	648.176
381.029	27.688	813.265	646.863
382.044	27.495	812.787	645.740
383.059	27.744	812.015	645.952
384.073	27.811	811.406	645.648
385.088	27.849	811.229	645.583
386.102	27.723	810.833	644.767
387.117	27.583	809.912	643.481
388.132	27.306	809.691	642.272
389.146	27.284	808.563	641.242
390.161	26.690	807.694	638.404
391.175	26.819	807.666	638.779
392.190	27.228	808.014	640.438
393.205	27.383	807.219	640.297
394.219	26.263	805.528	634.967
395.234	24.729	803.154	627.660
396.248	24.083	802.049	624.474
397.263	25.156	802.987	628.915
398.278	26.938	804.246	636.098
399.292	27.410	804.384	637.805
400.307	26.976	803.616	635.622
401.321	26.912	803.279	635.075
402.336	27.149	802.902	635.548
403.350	27.344	802.481	635.841
404.365	27.781	802.617	637.417
405.380	28.025	802.396	638.038
406.394	28.409	802.304	639.247
407.409	28.517	802.054	639.368
408.423	28.448	801.343	638.505
409.438	28.403	800.661	637.748
410.453	28.385	800.592	637.577
411.467	28.528	799.829	637.407
412.482	28.588	799.043	636.934
413.496	28.383	798.761	635.942
414.511	28.392	798.557	635.755
415.526	28.514	797.843	635.550
416.540	28.550	797.654	635.471
417.555	28.316	797.240	634.273
418.569	28.189	796.413	633.118
419.584	27.979	795.842	631.883
420.599	28.216	795.400	632.296
421.613	111.153	1286.443	1458.857
422.628	95.737	1357.997	1458.971
