DTS Sentinel unit serial number:	SN413079Multiplexer serial number:	ORYXHardware model number:	OX4-SRSoftware version number:	ORYX F/W v4.00 Oryx Data Collector v3.7.2.0data status	okinstallation	princeton_trtdifferential loss correction	single-endedforward channel	channel 3reverse channel	N/Adate	2019/09/12time	04:06:11forward acquisition time	60.00reverse acquisition time	0.00gamma	496.2192k internal	0.2322k external	0.2322temperature offset calibration	1.0064default loss term (dB/km)	0.3790temperature slope calibration	1.0000multiplexer offset coefficient	1.0000multiplexer slope coefficient	1.0000fibre end	0.00T internal ref (°C)	32.00T ext. ref 1 (°C)	2.21T ext. ref 2 (°C)	26.00length (m)	temperature (°C)	Stokes	anti-Stokes-747.200	3.502	0.400	0.295
-746.185	-12.082	-0.137	0.090
-745.171	103.061	0.069	-0.081
-744.156	22.368	0.249	0.205
-743.142	-200.000	0.016	0.307
-742.127	-42.893	-0.136	0.070
-741.112	-200.000	-0.003	-0.026
-740.098	520.457	-0.159	0.376
-739.083	-11.480	0.369	-0.245
-738.069	69.412	-0.054	0.056
-737.054	-89.588	0.377	-0.112
-736.039	-22.135	-0.076	-0.047
-735.025	-110.583	-0.112	-0.023
-734.010	25.654	0.067	-0.057
-732.996	-114.482	-0.052	-0.010
-731.981	61.883	-0.181	-0.182
-730.966	393.965	-0.100	-0.210
-729.952	-27.777	0.188	0.110
-728.937	-200.000	0.017	-0.143
-727.923	-200.000	0.058	-0.272
-726.908	-25.372	0.230	-0.137
-725.894	21.728	0.246	0.202
-724.879	-200.000	0.007	-0.315
-723.864	-160.052	0.220	0.012
-722.850	-200.000	0.003	-0.039
-721.835	-200.000	0.037	-0.431
-720.821	-64.025	0.200	-0.082
-719.806	-50.840	0.311	-0.147
-718.791	-139.604	0.165	0.018
-717.777	-33.327	0.211	0.118
-716.762	154.559	-0.124	-0.171
-715.748	-59.617	-0.189	-0.082
-714.733	234.768	0.189	0.315
-713.718	800.000	0.135	-0.559
-712.704	800.000	0.020	-0.088
-711.689	398.044	0.112	0.237
-710.675	132.707	-0.117	0.152
-709.660	-200.000	-0.026	-0.280
-708.645	800.000	0.148	-0.564
-707.631	386.180	0.090	0.187
-706.616	-200.000	-0.038	0.207
-705.602	-200.000	-0.009	-0.152
-704.587	101.942	0.187	-0.220
-703.572	-200.000	-0.060	0.308
-702.558	-137.559	0.350	0.040
-701.543	33.298	0.133	0.117
-700.529	800.000	-0.050	-0.195
-699.514	800.000	-0.084	-0.297
-698.499	800.000	-0.028	0.102
-697.485	-60.982	0.104	0.044
-696.470	-103.759	0.515	-0.122
-695.456	-40.515	0.216	-0.113
-694.441	-200.000	0.053	-0.499
-693.426	-7.112	-0.125	-0.086
-692.412	-138.583	-0.286	-0.032
-691.397	17.626	-0.050	-0.040
-690.383	-121.481	-0.212	0.036
-689.368	800.000	-0.016	0.052
-688.354	137.121	-0.117	0.154
-687.339	-3.177	0.101	0.071
-686.324	-200.000	0.001	0.325
-685.310	121.244	-0.187	0.235
-684.295	284.053	-0.185	-0.335
-683.281	15.496	-0.225	-0.178
-682.266	-177.007	-0.419	0.011
-681.251	-127.397	-0.382	0.056
-680.237	800.000	0.038	0.129
-679.222	41.148	-0.217	0.197
-678.208	-200.000	-0.002	0.442
-677.193	-91.956	-0.336	0.096
-676.178	800.000	0.030	-0.108
-675.164	317.199	-0.079	0.151
-674.149	54.574	-0.149	0.145
-673.135	800.000	0.064	-0.233
-672.120	-117.434	0.231	-0.042
-671.105	-31.684	0.075	-0.043
-670.091	-200.000	0.005	0.192
-669.076	142.722	-0.076	0.101
-668.062	-150.079	0.373	0.029
-667.047	135.720	0.241	0.315
-666.032	-200.000	-0.075	0.375
-665.018	-200.000	0.016	-0.107
-664.003	800.000	0.043	0.124
-662.989	330.719	0.055	0.106
-661.974	-79.892	0.162	-0.055
-660.959	-54.676	-0.265	0.121
-659.945	-104.438	0.398	0.093
-658.930	-138.382	-0.244	0.027
-657.916	-99.343	0.143	0.036
-656.901	-200.000	-0.028	0.207
-655.886	-35.653	-0.151	0.082
-654.872	33.255	-0.092	-0.080
-653.857	518.957	-0.076	0.178
-652.843	-88.085	0.021	-0.006
-651.828	-32.027	-0.276	-0.155
-650.814	202.540	0.170	0.264
-649.799	57.690	-0.218	-0.214
-648.784	-79.901	0.417	0.141
-647.770	-124.983	-0.230	0.036
-646.755	239.081	-0.137	0.230
-645.741	800.000	-0.053	0.154
-644.726	125.895	-0.133	0.169
-643.711	-148.280	0.294	-0.024
-642.697	-108.816	-0.339	-0.073
-641.682	800.000	-0.007	-0.024
-640.668	-200.000	0.009	0.280
-639.653	169.265	0.146	0.209
-638.638	13.932	0.039	0.031
-637.624	26.923	-0.188	-0.158
-636.609	18.164	0.144	0.115
-635.595	-36.065	0.115	-0.063
-634.580	-77.642	0.201	0.070
-633.565	7.009	0.089	0.067
-632.551	133.417	-0.179	0.233
-631.536	-96.437	0.300	-0.080
-630.522	-147.365	-0.251	0.021
-629.507	6.624	-0.130	-0.097
-628.492	-50.759	0.085	-0.040
-627.478	800.000	-0.053	0.176
-626.463	-30.878	-0.080	-0.046
-625.449	55.524	0.100	-0.098
-624.434	116.483	0.076	-0.093
-623.419	-200.000	0.162	0.000
-622.405	-200.000	0.067	-0.359
-621.390	587.465	-0.064	-0.158
-620.376	-81.226	-0.022	-0.007
-619.361	-200.000	-0.018	-0.125
-618.346	-92.775	-0.142	-0.040
-617.332	342.924	-0.018	0.035
-616.317	94.314	0.218	-0.249
-615.303	-44.514	0.069	-0.035
-614.288	34.224	-0.019	0.017
-613.273	-111.205	0.357	-0.073
-612.259	264.970	-0.082	0.143
-611.244	295.980	-0.120	0.222
-610.230	-88.175	0.085	0.026
-609.215	11.596	0.210	-0.162
-608.201	249.274	-0.124	0.212
-607.186	-88.609	-0.237	-0.071
-606.171	-200.000	0.032	-0.341
-605.157	444.684	0.121	0.268
-604.142	-57.616	-0.101	-0.044
-603.128	151.065	-0.114	0.156
-602.113	800.000	-0.066	-0.202
-601.098	-111.843	-0.090	0.018
-600.084	96.621	0.149	0.171
-599.069	36.045	-0.198	0.175
-598.055	-46.175	-0.215	-0.106
-597.040	-47.754	-0.101	-0.049
-596.025	-103.768	0.223	-0.052
-595.011	-200.000	0.019	-0.113
-593.996	-200.000	0.067	0.406
-592.982	195.776	-0.112	0.171
-591.967	-5.474	-0.072	0.050
-590.952	-19.384	-0.176	0.109
-589.938	52.463	-0.131	0.126
-588.923	-26.655	-0.272	0.160
-587.909	-200.000	-0.026	-0.364
-586.894	609.109	-0.069	-0.174
-585.879	-83.112	-0.085	-0.028
-584.865	-200.000	-0.044	0.220
-583.850	27.093	0.154	0.130
-582.836	-118.897	0.100	-0.018
-581.821	-160.451	0.293	0.016
-580.806	14.600	0.093	-0.073
-579.792	541.412	0.124	-0.296
-578.777	225.985	-0.061	0.100
-577.763	21.513	-0.076	0.062
-576.748	-200.000	-0.005	-0.026
-575.733	-115.396	0.078	-0.015
-574.719	-133.817	-0.223	-0.028
-573.704	-21.585	0.074	0.045
-572.690	99.288	-0.149	-0.173
-571.675	-48.539	0.260	-0.126
-570.661	-200.000	-0.009	0.118
-569.646	-200.000	-0.026	0.193
-568.631	-70.171	-0.034	0.013
-567.617	800.000	0.059	0.173
-566.602	-200.000	-0.000	0.210
-565.588	419.448	0.052	-0.112
-564.573	90.575	0.137	-0.154
-563.558	-40.489	-0.074	-0.039
-562.544	290.302	0.093	0.170
-561.529	121.172	-0.075	-0.094
-560.515	-14.308	0.242	-0.157
-559.500	67.630	0.156	-0.159
-558.485	-200.000	0.029	-0.250
-557.471	11.783	-0.213	-0.164
-556.456	-167.044	0.161	-0.007
-555.442	338.740	-0.163	0.318
-554.427	800.000	0.072	0.230
-553.412	250.196	0.073	0.124
-552.398	98.931	0.090	0.104
-551.383	258.982	-0.177	-0.305
-550.369	700.167	-0.148	0.391
-549.354	-104.969	-0.404	0.093
-548.339	-22.693	0.146	0.088
-547.325	-200.000	0.036	0.188
-546.310	217.992	0.125	-0.200
-545.296	-30.817	0.413	-0.234
-544.281	-200.000	-0.013	0.159
-543.266	49.891	0.263	0.249
-542.252	235.454	0.054	-0.089
-541.237	-200.000	-0.056	-0.328
-540.223	-78.964	0.141	-0.048
-539.208	-200.000	0.019	-0.198
-538.193	56.907	-0.032	0.031
-537.179	-20.147	-0.269	-0.166
-536.164	800.000	0.095	0.402
-535.150	-83.572	-0.064	-0.020
-534.135	-157.218	0.138	-0.008
-533.121	18.659	0.097	0.078
-532.106	-156.225	-0.495	-0.031
-531.091	800.000	-0.040	0.145
-530.077	-155.433	-0.036	0.002
-529.062	-164.432	-0.281	0.013
-528.048	652.801	0.104	-0.266
-527.033	-69.006	0.113	-0.044
-526.018	-200.000	0.020	0.256
-525.004	-33.177	0.397	0.220
-523.989	524.808	0.109	0.257
-522.975	-99.886	-0.201	0.050
-521.960	800.000	0.052	-0.162
-520.945	800.000	-0.111	0.320
-519.931	-192.242	0.209	-0.002
-518.916	571.218	0.170	-0.415
-517.902	111.772	0.028	-0.034
-516.887	-200.000	0.024	-0.258
-515.872	110.003	-0.238	0.286
-514.858	800.000	-0.060	-0.208
-513.843	-139.906	0.166	0.018
-512.829	-178.963	0.253	-0.006
-511.814	332.947	0.071	-0.136
-510.799	-200.000	0.077	0.366
-509.785	100.523	0.056	-0.065
-508.770	-117.548	0.389	-0.070
-507.756	-200.000	-0.009	-0.099
-506.741	-52.693	-0.230	-0.106
-505.726	462.565	-0.041	0.092
-504.712	-168.411	0.048	0.002
-503.697	-65.307	-0.345	0.139
-502.683	-122.824	-0.356	0.057
-501.668	21.756	-0.204	-0.166
-500.653	-200.000	-0.042	0.197
-499.639	98.347	0.141	0.163
-498.624	-70.184	0.212	0.081
-497.610	-79.441	-0.140	0.047
-496.595	800.000	0.142	-0.423
-495.581	-200.000	-0.027	-0.151
-494.566	258.347	-0.064	0.111
-493.551	194.000	-0.098	0.149
-492.537	795.495	-0.113	-0.312
-491.522	-198.332	-0.087	-0.001
-490.508	-113.345	-0.148	0.029
-489.493	800.000	-0.092	0.340
-488.478	28.242	0.068	-0.057
-487.464	279.060	0.046	-0.082
-486.449	83.788	0.209	0.228
-485.435	59.048	-0.166	0.163
-484.420	103.057	-0.177	0.207
-483.405	800.000	-0.047	0.150
-482.391	800.000	0.075	0.275
-481.376	-93.154	0.356	-0.099
-480.362	-131.210	0.320	0.042
-479.347	-73.288	-0.350	0.128
-478.332	800.000	0.051	0.142
-477.318	800.000	-0.048	0.136
-476.303	-200.000	0.040	0.244
-475.289	33.514	0.068	-0.059
-474.274	247.892	-0.056	0.095
-473.259	-65.340	-0.268	-0.108
-472.245	-106.094	-0.349	-0.078
-471.230	-200.000	-0.015	-0.083
-470.216	-53.118	0.176	0.081
-469.201	26.622	-0.100	-0.084
-468.186	-176.787	-0.289	-0.007
-467.172	30.205	-0.030	0.026
-466.157	142.412	-0.054	0.071
-465.143	-47.184	0.155	0.076
-464.128	-92.456	0.451	0.127
-463.113	34.828	-0.117	0.102
-462.099	159.625	-0.218	0.303
-461.084	-130.327	0.248	-0.034
-460.070	-200.000	-0.060	0.340
-459.055	800.000	-0.054	-0.224
-458.040	-37.696	0.249	-0.132
-457.026	767.287	0.093	0.254
-456.011	-159.256	0.282	0.016
-454.997	800.000	0.032	0.123
-453.982	-179.933	-0.393	0.008
-452.968	800.000	-0.077	-0.315
-451.953	-200.000	0.009	-0.109
-450.938	157.292	-0.179	-0.248
-449.924	-133.729	0.311	-0.039
-448.909	-200.000	0.012	-0.122
-447.895	47.853	-0.105	0.098
-446.880	497.756	0.079	0.180
-445.865	28.296	-0.222	-0.188
-444.851	800.000	-0.027	0.101
-443.836	800.000	-0.076	-0.283
-442.822	197.892	-0.175	0.266
-441.807	19.532	0.354	0.284
-440.792	-41.843	0.146	-0.075
-439.778	248.323	-0.190	-0.321
-438.763	-73.076	-0.213	-0.078
-437.749	43.083	-0.327	0.297
-436.734	321.122	-0.091	0.172
-435.719	-145.207	0.165	0.015
-434.705	-101.157	-0.272	0.066
-433.690	800.000	0.078	0.256
-432.676	301.607	0.098	-0.181
-431.661	800.000	0.026	0.107
-430.646	-132.444	-0.320	-0.041
-429.632	-26.457	0.149	-0.087
-428.617	303.659	-0.047	0.087
-427.603	4.413	-0.124	-0.090
-426.588	190.532	0.214	-0.320
-425.573	-102.830	-0.337	0.080
-424.559	-14.992	0.174	-0.111
-423.544	-73.569	-0.339	-0.123
-422.530	-56.541	0.270	0.119
-421.515	487.830	-0.036	0.082
-420.500	800.000	0.128	0.404
-419.486	800.000	-0.046	0.170
-418.471	707.930	0.133	-0.351
-417.457	800.000	0.120	0.357
-416.442	598.619	0.030	-0.073
-415.428	-20.636	0.290	0.177
-414.413	-200.000	-0.017	0.074
-413.398	-16.143	-0.441	0.280
-412.384	0.534	0.164	0.117
-411.369	-200.000	0.033	-0.225
-410.355	403.862	-0.050	0.104
-409.340	800.000	-0.021	-0.057
-408.325	-76.877	-0.354	-0.123
-407.311	579.867	-0.056	-0.136
-406.296	800.000	-0.014	-0.059
-405.282	-200.000	-0.015	0.074
-404.267	31.286	-0.297	-0.254
-403.252	-81.956	0.222	0.072
-402.238	-200.000	-0.012	-0.139
-401.223	4.314	0.105	0.076
-400.209	-101.743	-0.346	0.084
-399.194	800.000	-0.028	0.106
-398.179	-200.000	-0.014	-0.199
-397.165	-114.415	0.300	0.057
-396.150	379.135	0.040	0.082
-395.136	-200.000	0.000	0.205
-394.121	61.371	0.030	-0.030
-393.106	-107.653	-0.079	-0.017
-392.092	800.000	0.082	-0.336
-391.077	-200.000	0.035	0.218
-390.063	-3.001	-0.145	0.101
-389.048	-200.000	-0.043	0.399
-388.033	-200.000	-0.010	-0.235
-387.019	-200.000	0.007	0.157
-386.004	800.000	0.035	-0.148
-384.990	345.899	0.032	0.063
-383.975	151.679	-0.185	-0.251
-382.960	104.389	-0.312	-0.365
-381.946	-59.463	-0.130	0.056
-380.931	61.963	-0.115	0.114
-379.917	-200.000	0.032	0.546
-378.902	-200.000	-0.038	-0.178
-377.888	-48.589	-0.115	-0.055
-376.873	55.547	-0.160	-0.154
-375.858	-43.744	0.023	-0.011
-374.844	800.000	-0.019	0.074
-373.829	-49.403	-0.229	0.109
-372.815	-124.487	0.038	0.006
-371.800	-107.110	-0.110	0.024
-370.785	-200.000	0.062	0.270
-369.771	-47.793	0.246	-0.119
-368.756	-72.297	-0.339	-0.125
-367.742	800.000	-0.027	-0.085
-366.727	-32.720	0.120	-0.067
-365.712	-80.869	0.258	-0.085
-364.698	-166.087	-0.142	-0.006
-363.683	119.702	-0.024	-0.030
-362.669	-200.000	-0.004	0.034
-361.654	186.396	0.283	-0.420
-360.639	-116.246	-0.398	0.073
-359.625	-200.000	0.030	-0.134
-358.610	43.439	0.115	0.105
-357.596	174.011	-0.171	0.246
-356.581	6.832	0.156	-0.115
-355.566	477.208	0.114	-0.257
-354.552	-200.000	0.020	0.158
-353.537	800.000	0.057	0.160
-352.523	197.156	0.095	0.144
-351.508	-8.034	0.330	-0.221
-350.493	800.000	-0.083	-0.349
-349.479	-197.375	0.295	-0.002
-348.464	48.589	0.123	0.115
-347.450	-109.227	-0.253	-0.053
-346.435	-104.984	0.327	-0.075
-345.420	-200.000	0.012	0.347
-344.406	243.629	-0.187	-0.312
-343.391	443.676	-0.041	-0.090
-342.377	462.515	0.066	-0.147
-341.362	-200.000	-0.010	0.056
-340.348	103.440	-0.094	-0.109
-339.333	44.052	0.219	0.200
-338.318	53.503	0.203	-0.193
-337.304	-35.561	0.107	0.057
-336.289	-59.874	-0.262	-0.111
-335.275	-96.090	0.227	0.060
-334.260	146.332	-0.107	0.143
-333.245	-40.067	-0.153	0.079
-332.231	-55.818	0.174	0.077
-331.216	-56.598	0.211	-0.093
-330.202	125.611	0.109	-0.136
-329.187	271.066	0.128	-0.223
-328.172	800.000	0.145	0.534
-327.158	12.931	0.416	-0.320
-326.143	94.380	0.045	-0.050
-325.129	101.186	0.396	0.458
-324.114	-119.507	0.097	0.017
-323.099	78.722	-0.160	-0.170
-322.085	-158.961	-0.188	-0.011
-321.070	-54.817	-0.083	0.037
-320.056	-200.000	0.027	-0.252
-319.041	218.056	-0.104	0.164
-318.026	227.943	0.095	0.154
-317.012	173.065	-0.183	0.262
-315.997	571.514	0.050	0.120
-314.983	800.000	0.084	-0.357
-313.968	-200.000	0.003	-0.161
-312.953	47.274	-0.139	-0.129
-311.939	-12.181	0.148	-0.096
-310.924	15.610	-0.216	0.168
-309.910	-130.872	0.128	-0.017
-308.895	-85.524	0.294	0.091
-307.880	-200.000	0.027	-0.164
-306.866	-88.586	0.182	0.054
-305.851	-56.874	-0.335	-0.147
-304.837	-200.000	-0.024	-0.184
-303.822	-194.244	0.175	-0.001
-302.807	43.382	0.220	-0.200
-301.793	800.000	0.059	-0.181
-300.778	253.162	-0.054	0.091
-299.764	291.976	-0.067	0.121
-298.749	-200.000	0.001	0.219
-297.735	737.714	-0.024	0.064
-296.720	-200.000	-0.003	-0.125
-295.705	800.000	-0.040	-0.166
-294.691	800.000	-0.020	-0.068
-293.676	-148.898	0.166	-0.013
-292.662	-118.831	0.359	0.063
-291.647	0.814	0.449	-0.319
-290.632	499.699	-0.188	0.431
-289.618	-86.477	-0.327	-0.100
-288.603	-108.222	-0.011	0.002
-287.589	-16.096	-0.362	0.228
-286.574	-83.502	0.236	-0.075
-285.559	-71.981	0.263	0.097
-284.545	-154.433	0.356	0.024
-283.530	102.772	0.058	-0.067
-282.516	-66.057	0.069	-0.028
-281.501	11.380	0.189	-0.144
-280.486	-36.394	0.092	0.049
-279.472	174.827	0.055	-0.079
-278.457	800.000	-0.054	-0.203
-277.443	-200.000	0.070	-0.309
-276.428	78.829	-0.239	-0.254
-275.413	-83.607	0.095	0.030
-274.399	-200.000	-0.025	0.277
-273.384	-200.000	0.011	-0.136
-272.370	800.000	-0.121	0.384
-271.355	-200.000	-0.033	-0.517
-270.340	-8.483	0.079	-0.053
-269.326	48.213	-0.217	-0.201
-268.311	35.864	-0.075	-0.065
-267.297	-45.915	-0.229	-0.112
-266.282	-200.000	-0.028	-0.458
-265.267	135.111	0.088	0.113
-264.253	110.378	0.040	0.047
-263.238	-200.000	-0.034	-0.170
-262.224	-130.922	-0.132	-0.018
-261.209	24.698	-0.052	0.043
-260.195	227.890	-0.126	-0.204
-259.180	800.000	0.177	0.493
-258.165	61.953	0.218	-0.216
-257.151	134.093	0.038	0.049
-256.136	-200.000	0.055	0.368
-255.122	583.333	0.108	-0.263
-254.107	30.793	0.419	0.355
-253.092	-176.264	-0.278	-0.007
-252.078	47.704	0.031	-0.029
-251.063	-64.617	-0.192	0.077
-250.049	-200.000	-0.034	0.249
-249.034	-67.136	0.317	-0.124
-248.019	-200.000	0.010	-0.044
-247.005	800.000	-0.077	0.322
-245.990	-120.516	0.321	-0.054
-244.976	-154.100	-0.087	-0.006
-243.961	-200.000	0.053	0.285
-242.946	-89.741	0.255	0.074
-241.932	-122.964	-0.260	0.041
-240.917	184.720	-0.123	-0.181
-239.903	800.000	0.082	-0.255
-238.888	156.275	-0.110	0.150
-237.873	403.826	-0.065	0.135
-236.859	-68.379	0.112	-0.043
-235.844	-200.000	0.052	0.252
-234.830	-200.000	0.021	-0.469
-233.815	207.623	0.182	-0.281
-232.800	-70.934	-0.340	0.127
-231.786	115.451	0.185	0.224
-230.771	-200.000	0.089	-0.510
-229.757	75.295	-0.157	0.164
-228.742	83.364	0.251	0.270
-227.727	-129.936	0.348	0.047
-226.713	-83.157	-0.068	-0.022
-225.698	-172.528	0.093	0.003
-224.684	23.230	0.057	0.047
-223.669	366.109	-0.102	-0.204
-222.655	-32.383	-0.149	-0.082
-221.640	-200.000	0.016	-0.199
-220.625	333.681	-0.099	0.189
-219.611	-118.289	-0.081	-0.014
-218.596	-96.796	0.277	-0.072
-217.582	-36.837	-0.129	-0.069
-216.567	186.228	-0.079	-0.116
-215.552	-200.000	-0.019	0.134
-214.538	-17.333	0.173	-0.108
-213.523	76.363	0.124	0.130
-212.509	78.339	-0.224	0.236
-211.494	-154.438	-0.247	-0.016
-210.479	783.672	-0.051	-0.138
-209.465	800.000	-0.102	-0.423
-208.450	-200.000	0.091	-0.513
-207.436	251.355	-0.093	0.156
-206.421	128.552	-0.041	-0.051
-205.406	-55.649	0.283	0.125
-204.392	122.310	-0.042	0.052
-203.377	-200.000	0.007	-0.233
-202.363	-72.411	0.086	0.032
-201.348	494.293	0.057	0.130
-200.333	282.976	-0.053	0.095
-199.319	-170.698	0.102	-0.003
-198.304	679.195	-0.108	-0.279
-197.290	110.632	-0.191	-0.227
-196.275	-200.000	-0.000	-0.082
-195.260	-200.000	-0.318	-0.000
-194.246	-200.000	-0.251	0.000
-193.231	-80.172	-0.174	0.058
-192.217	73.009	0.133	0.138
-191.202	192.890	-0.235	-0.350
-190.187	284.122	-0.178	-0.316
-189.173	-184.455	-0.179	-0.003
-188.158	84.196	-0.232	0.250
-187.144	229.766	0.105	-0.169
-186.129	-200.000	-0.005	-0.239
-185.114	78.843	0.207	0.219
-184.100	216.735	-0.259	0.407
-183.085	800.000	-0.044	-0.172
-182.071	18.771	-0.121	-0.096
-181.056	-105.735	0.142	0.032
-180.042	5.269	-0.196	0.143
-179.027	10.851	-0.228	0.172
-178.012	-89.975	0.222	0.064
-176.998	-74.701	-0.216	-0.077
-175.983	209.577	-0.151	0.235
-174.969	-200.000	-0.012	-0.117
-173.954	800.000	-0.061	0.191
-172.939	-60.996	0.211	-0.088
-171.925	-129.608	-0.074	-0.010
-170.910	-21.349	-0.148	0.090
-169.896	-115.468	0.183	-0.034
-168.881	30.725	0.039	0.033
-167.866	-111.285	-0.221	0.045
-166.852	-200.000	-0.055	-0.292
-165.837	142.522	-0.098	-0.128
-164.823	-92.598	-0.193	-0.053
-163.808	100.114	0.278	0.318
-162.793	487.451	0.120	-0.272
-161.779	-39.370	-0.119	-0.062
-160.764	582.756	-0.018	0.043
-159.750	800.000	0.049	-0.134
-158.735	-92.000	-0.165	0.046
-157.720	64.715	0.230	-0.229
-156.706	95.353	-0.143	-0.161
-155.691	38.564	0.105	-0.092
-154.677	564.983	0.060	-0.143
-153.662	-41.128	0.110	-0.056
-152.647	-40.612	-0.313	0.160
-151.633	-124.523	0.429	0.066
-150.618	127.145	-0.134	-0.168
-149.604	-114.059	0.256	0.049
-148.589	-46.515	0.216	0.105
-147.574	-200.000	-0.027	-0.210
-146.560	-91.525	0.112	-0.032
-145.545	-37.071	-0.174	-0.092
-144.531	228.638	0.073	-0.118
-143.516	800.000	0.054	0.185
-142.502	32.399	0.221	-0.188
-141.487	171.859	0.115	0.162
-140.472	-144.109	-0.230	-0.021
-139.458	-25.154	-0.212	-0.124
-138.443	-48.196	-0.082	0.039
-137.429	-14.705	-0.124	-0.079
-136.414	-56.217	0.164	0.072
-135.399	-128.738	-0.249	0.035
-134.385	78.186	0.280	0.294
-133.370	-58.189	0.237	-0.102
-132.356	101.995	-0.370	0.427
-131.341	580.572	0.148	-0.359
-130.326	405.888	-0.121	0.253
-129.312	-61.235	-0.246	-0.102
-128.297	31.201	0.184	0.156
-127.283	406.914	0.044	0.093
-126.268	250.505	0.085	0.143
-125.253	-81.023	-0.069	-0.023
-124.239	20.378	0.139	-0.110
-123.224	223.423	-0.056	0.089
-122.210	-89.122	0.132	-0.038
-121.195	645.898	0.042	-0.107
-120.180	167.077	0.087	0.122
-119.166	-127.683	-0.193	0.028
-118.151	369.409	-0.089	0.178
-117.137	-200.000	0.044	-0.251
-116.122	-134.490	-0.204	0.025
-115.107	30.308	0.408	-0.343
-114.093	158.110	-0.153	0.210
-113.078	160.822	-0.165	-0.227
-112.064	-114.324	-0.189	-0.036
-111.049	61.999	0.120	-0.118
-110.034	101.832	0.079	-0.091
-109.020	800.000	0.059	0.219
-108.005	-91.422	0.120	0.034
-106.991	124.288	0.099	-0.122
-105.976	-200.000	-0.050	-0.247
-104.962	-200.000	-0.021	0.135
-103.947	-200.000	0.026	-0.434
-102.932	32.093	-0.103	-0.088
-101.918	800.000	-0.028	-0.091
-100.903	-200.000	-0.011	0.066
-99.889	-9.916	-0.072	0.047
-98.874	-73.531	0.313	0.113
-97.859	138.046	0.202	0.261
-96.845	-68.770	-0.323	-0.123
-95.830	639.237	0.048	-0.120
-94.816	-69.558	-0.228	0.086
-93.801	-168.473	0.227	0.009
-92.786	148.408	-0.005	0.006
-91.772	800.000	0.078	-0.264
-90.757	800.000	-0.092	0.254
-89.743	-200.000	0.018	0.545
-88.728	109.018	0.190	0.224
-87.713	380.526	0.115	0.233
-86.699	372.343	0.144	-0.288
-85.684	800.000	-0.076	-0.302
-84.670	-200.000	0.019	-0.106
-83.655	111.044	0.079	-0.094
-82.640	-150.520	0.186	0.014
-81.626	-39.558	-0.168	-0.087
-80.611	-70.791	-0.121	0.045
-79.597	-48.766	0.136	-0.064
-78.582	-200.000	0.015	0.565
-77.567	90.006	-0.041	-0.045
-76.553	-200.000	0.068	-0.419
-75.538	-200.000	0.058	0.251
-74.524	49.945	-0.250	0.232
-73.509	800.000	-0.107	0.375
-72.494	9.815	-0.209	0.156
-71.480	534.969	0.069	0.161
-70.465	-200.000	-0.078	0.385
-69.451	800.000	0.065	0.241
-68.436	-97.888	-0.391	-0.099
-67.422	-49.284	0.506	0.238
-66.407	630.733	0.162	0.404
-65.392	188.432	0.130	0.191
-64.378	36.404	-0.276	0.240
-63.363	62.822	0.111	-0.109
-62.349	173.169	-0.112	-0.159
-61.334	-3.788	-0.954	-0.651
-60.319	187.207	0.462	0.678
-59.305	-200.000	-0.286	-1.298
-58.290	259.547	0.830	1.410
-57.276	800.000	0.563	1.825
-56.261	-200.000	96.729	602.215
-55.246	563.821	1366.343	3253.968
-54.232	162.724	2542.501	3508.798
-53.217	112.665	2153.353	2563.570
-52.203	42.638	1700.631	1522.148
-51.188	35.184	1514.448	1304.929
-50.173	32.844	1487.818	1266.251
-49.159	51.800	1537.541	1438.346
-48.144	53.692	1554.283	1466.860
-47.130	35.322	1514.307	1305.541
-46.115	32.337	1499.759	1272.783
-45.100	32.097	1496.394	1268.255
-44.086	32.125	1494.090	1266.441
-43.071	31.968	1492.394	1263.897
-42.057	31.967	1490.972	1262.632
-41.042	32.062	1489.228	1261.744
-40.027	32.031	1488.177	1260.597
-39.013	32.033	1486.209	1258.892
-37.998	31.927	1485.550	1257.574
-36.984	32.062	1484.344	1257.405
-35.969	32.081	1482.671	1256.068
-34.954	31.929	1481.329	1253.868
-33.940	31.982	1480.615	1253.568
-32.925	32.057	1478.556	1252.271
-31.911	32.055	1477.067	1250.951
-30.896	32.054	1475.625	1249.673
-29.881	32.079	1474.475	1248.815
-28.867	32.034	1473.623	1247.743
-27.852	32.104	1471.937	1246.730
-26.838	32.069	1470.633	1245.348
-25.823	32.097	1469.025	1244.122
-24.809	32.089	1466.899	1242.219
-23.794	31.968	1466.026	1240.626
-22.779	32.041	1464.758	1239.986
-21.765	32.082	1463.480	1239.130
-20.750	32.029	1462.385	1237.802
-19.736	32.008	1461.250	1236.655
-18.721	31.971	1460.280	1235.542
-17.706	31.998	1459.217	1234.772
-16.692	31.953	1458.054	1233.437
-15.677	31.995	1456.613	1232.447
-14.663	32.011	1455.749	1231.774
-13.648	31.927	1455.273	1230.769
-12.633	31.953	1454.450	1230.195
-11.619	31.975	1453.204	1229.239
-10.604	31.884	1452.961	1228.389
-9.590	31.948	1452.186	1228.100
-8.575	31.983	1451.097	1227.361
-7.560	31.943	1450.406	1226.468
-6.546	31.977	1448.803	1225.286
-5.531	31.941	1447.719	1224.082
-4.517	31.962	1446.897	1223.474
-3.502	31.910	1445.950	1222.292
-2.487	31.851	1445.345	1221.344
-1.473	31.947	1443.819	1220.632
-0.458	31.891	1442.532	1219.131
0.556	32.395	1432.774	1208.197
1.571	29.622	1409.154	1170.635
2.586	26.823	1355.757	1109.085
3.600	25.793	1278.412	1039.774
4.615	24.608	1231.248	994.736
5.629	21.218	1173.266	929.788
6.644	11.309	1086.270	811.683
7.659	3.490	1044.108	742.576
8.673	2.453	1037.895	733.131
9.688	2.205	1034.993	729.832
10.702	2.101	1033.491	728.210
11.717	2.071	1031.441	726.557
12.731	5.940	1036.145	748.277
13.746	15.792	1050.450	805.948
14.761	23.251	1059.316	848.571
15.775	25.115	1061.181	858.934
16.790	25.408	1060.862	860.001
17.804	25.271	1060.043	858.604
18.819	25.176	1059.106	857.317
19.834	25.378	1058.553	857.758
20.848	25.342	1058.516	857.480
21.863	25.490	1057.951	857.651
22.877	25.528	1057.393	857.307
23.892	25.475	1056.969	856.633
24.907	25.438	1055.818	855.448
25.921	25.377	1055.734	855.014
26.936	25.351	1054.765	854.032
27.950	25.408	1053.567	853.255
28.965	25.351	1052.119	851.734
29.980	25.274	1050.680	850.132
30.994	25.095	1049.941	848.610
32.009	25.340	1049.201	849.095
33.023	25.499	1048.466	849.178
34.038	25.303	1047.389	847.304
35.053	25.189	1046.827	846.236
36.067	25.374	1046.248	846.566
37.082	25.390	1045.485	845.949
38.096	25.371	1044.968	845.368
39.111	25.597	1043.738	845.360
40.126	25.660	1043.145	845.101
41.140	25.483	1042.052	843.309
42.155	25.254	1040.464	840.877
43.169	25.016	1039.303	838.751
44.184	24.965	1038.247	837.588
45.199	25.049	1037.300	837.138
46.213	24.935	1036.262	835.696
47.228	24.896	1035.374	834.725
48.242	25.122	1034.808	835.248
49.257	25.310	1034.034	835.425
50.271	25.157	1033.524	834.228
51.286	25.351	1033.102	834.715
52.301	25.608	1031.813	834.792
53.315	25.423	1031.495	833.602
54.330	25.523	1030.294	833.021
55.344	25.288	1029.941	831.572
56.359	25.382	1028.912	831.105
57.374	25.439	1027.887	830.467
58.388	25.256	1026.775	828.648
59.403	25.095	1026.343	827.485
60.417	25.104	1025.587	826.844
61.432	24.968	1024.874	825.568
62.447	24.913	1024.220	824.714
63.461	25.108	1023.702	825.123
64.476	25.242	1022.852	824.982
65.490	25.199	1021.917	823.956
66.505	25.154	1020.802	822.775
67.520	24.972	1020.056	821.266
68.534	25.169	1019.534	821.680
69.549	24.994	1018.560	820.022
70.563	24.685	1017.757	817.888
71.578	24.612	1016.553	816.513
72.593	24.642	1016.021	816.151
73.607	24.563	1014.415	814.428
74.622	24.595	1013.394	813.685
75.636	24.914	1012.774	814.565
76.651	24.954	1012.370	814.349
77.666	24.945	1011.679	813.680
78.680	24.770	1010.563	811.916
79.695	24.750	1009.869	811.198
80.709	24.856	1009.336	811.178
81.724	25.054	1008.340	811.201
82.739	25.003	1007.992	810.618
83.753	24.887	1007.150	809.347
84.768	25.148	1006.957	810.297
85.782	25.522	1006.453	811.508
86.797	25.841	1005.057	811.752
87.812	25.777	1004.151	810.657
88.826	25.564	1003.233	808.886
89.841	25.560	1002.557	808.255
90.855	25.471	1002.529	807.757
91.870	25.582	1001.541	807.391
92.884	25.690	1000.478	806.944
93.899	25.590	999.272	805.455
94.914	25.411	998.403	803.880
95.928	25.602	998.143	804.454
96.943	25.549	997.257	803.433
97.957	25.340	995.719	801.192
98.972	25.104	995.040	799.523
99.987	24.807	994.120	797.388
101.001	24.916	993.472	797.284
102.016	25.257	992.743	798.143
103.030	25.406	991.731	797.924
104.045	25.289	990.617	796.437
105.060	25.184	989.559	795.050
106.074	25.009	988.357	793.236
107.089	24.933	987.873	792.442
108.103	25.251	987.318	793.336
109.118	25.372	986.719	793.316
110.133	25.024	985.251	790.531
111.147	25.169	984.306	790.344
112.162	25.051	982.972	788.681
113.176	24.725	982.043	786.432
114.191	24.947	981.486	786.894
115.206	25.072	980.723	786.762
116.220	24.831	979.384	784.559
117.235	24.536	978.815	782.743
118.249	24.584	978.070	782.289
119.264	24.782	977.062	782.280
120.279	24.627	976.225	780.860
121.293	24.610	975.780	780.363
122.308	24.686	975.128	780.104
123.322	24.903	973.907	780.005
124.337	24.769	972.738	778.416
125.352	24.579	971.863	776.820
126.366	24.227	970.547	774.172
127.381	24.146	968.358	772.003
128.395	24.503	968.815	773.850
129.410	25.109	968.584	776.221
130.424	25.220	967.979	776.147
131.439	25.263	966.777	775.301
132.454	25.219	965.995	774.415
133.468	25.131	965.457	773.534
134.483	25.321	964.329	773.380
135.497	25.206	963.474	772.131
136.512	25.468	963.009	772.820
137.527	25.527	962.680	772.738
138.541	25.459	961.294	771.269
139.556	25.477	960.733	770.825
140.570	25.393	960.194	769.966
141.585	25.727	958.996	770.367
142.600	25.593	958.321	769.184
143.614	25.364	957.913	767.809
144.629	25.515	957.262	767.862
145.643	25.713	956.568	768.084
146.658	25.722	955.298	767.036
147.673	25.405	954.167	764.709
148.687	25.409	953.136	763.833
149.702	25.296	952.157	762.498
150.716	25.305	950.893	761.460
151.731	25.285	950.105	760.675
152.746	25.359	949.315	760.290
153.760	25.420	948.808	760.073
154.775	25.687	948.209	760.655
155.789	25.633	947.734	759.979
156.804	25.753	946.745	759.623
157.819	25.563	945.459	757.725
158.833	25.635	944.581	757.258
159.848	25.671	944.192	757.029
160.862	25.799	943.076	756.608
161.877	25.646	942.307	755.281
162.892	25.540	941.559	754.169
163.906	25.671	940.504	753.809
164.921	25.506	940.080	752.709
165.935	25.569	938.431	751.586
166.950	25.624	937.581	751.069
167.964	25.768	936.766	750.951
168.979	25.608	936.219	749.777
169.994	25.578	934.583	748.275
171.008	25.380	933.846	746.797
172.023	25.517	933.341	746.897
173.037	25.771	932.342	747.086
174.052	25.566	931.478	745.476
175.067	25.371	930.580	743.882
176.081	25.444	929.333	743.124
177.096	25.265	928.949	742.012
178.110	25.513	928.164	742.340
179.125	25.119	927.017	739.735
180.140	24.998	925.851	738.239
181.154	25.002	925.189	737.661
182.169	25.153	924.840	737.939
183.183	25.422	924.213	738.483
184.198	25.695	924.316	739.620
185.213	25.474	923.545	738.029
186.227	25.478	922.701	737.307
187.242	25.498	922.656	737.288
188.256	25.572	921.689	736.751
189.271	25.673	920.960	736.518
190.286	25.831	919.927	736.274
191.300	25.561	919.662	734.892
192.315	25.046	917.782	731.223
193.329	24.301	915.950	726.663
194.344	23.924	915.340	724.583
195.359	24.551	915.742	727.390
196.373	25.303	916.202	730.752
197.388	25.631	915.499	731.463
198.402	25.539	915.121	730.720
199.417	25.420	914.656	729.800
200.432	25.570	913.924	729.762
201.446	25.572	912.606	728.652
202.461	25.126	912.207	726.464
203.475	25.199	912.090	726.601
204.490	24.785	910.404	723.521
205.504	23.632	908.385	717.197
206.519	23.942	908.846	718.750
207.534	24.960	908.784	722.748
208.548	25.200	908.242	723.220
209.563	25.556	907.979	724.382
210.577	25.474	907.109	723.292
211.592	25.305	906.291	721.898
212.607	25.698	906.047	723.217
213.621	25.698	906.228	723.298
214.636	25.730	905.323	722.640
215.650	25.724	904.746	722.090
216.665	25.733	903.944	721.423
217.680	25.687	903.700	720.981
218.694	25.879	903.011	721.136
219.709	25.447	902.292	718.769
220.723	25.114	901.545	716.782
221.738	25.334	900.634	716.873
222.753	25.617	900.233	717.619
223.767	25.482	899.525	716.454
224.782	25.546	898.908	716.154
225.796	25.783	898.258	716.516
226.811	25.714	897.921	715.909
227.826	25.421	896.647	713.665
228.840	24.702	895.188	709.587
229.855	24.488	894.821	708.383
230.869	24.816	894.248	709.170
231.884	24.566	893.049	707.165
232.899	24.502	892.816	706.665
233.913	25.249	893.160	709.832
234.928	25.645	892.178	710.550
235.942	25.525	891.582	709.542
236.957	25.362	891.484	708.759
237.972	25.105	890.449	706.859
238.986	24.967	889.695	705.652
240.001	25.265	888.935	706.162
241.015	25.141	888.537	705.294
242.030	25.218	887.907	705.036
243.045	25.478	887.341	705.543
244.059	25.369	886.959	704.750
245.074	25.541	886.475	704.980
246.088	25.691	885.466	704.702
247.103	25.247	884.553	702.176
248.117	25.220	884.360	701.852
249.132	25.785	884.190	703.866
250.147	26.091	884.369	705.141
251.161	26.267	883.330	704.937
252.176	26.368	883.037	705.035
253.190	26.397	882.446	704.615
254.205	26.492	881.465	704.140
255.220	26.517	881.639	704.314
256.234	26.568	880.735	703.725
257.249	26.657	879.868	703.316
258.263	26.508	879.050	702.024
259.278	26.347	879.187	701.446
260.293	26.414	878.862	701.385
261.307	26.586	877.911	701.230
262.322	26.327	877.509	699.841
263.336	26.210	876.861	698.810
264.351	25.907	875.181	696.239
265.366	24.830	873.401	690.608
266.380	24.366	872.298	687.886
267.395	25.211	872.688	691.391
268.409	25.986	872.723	694.343
269.424	25.906	872.157	693.523
270.439	26.131	871.794	694.041
271.453	26.099	871.452	693.581
272.468	26.183	870.957	693.451
273.482	26.246	870.099	692.948
274.497	26.449	870.141	693.697
275.512	26.309	868.499	691.790
276.526	25.783	867.136	688.633
277.541	25.858	867.386	689.057
278.555	26.248	866.914	690.114
279.570	26.227	865.723	689.024
280.585	25.807	865.375	687.083
281.599	25.965	865.242	687.518
282.614	26.371	864.059	688.064
283.628	25.724	862.994	684.695
284.643	25.251	862.716	682.615
285.657	25.728	862.434	684.144
286.672	25.903	861.543	684.040
287.687	25.181	860.661	680.543
288.701	25.560	860.449	681.751
289.716	25.797	860.796	682.864
290.730	25.534	859.626	680.883
291.745	25.433	858.849	679.823
292.760	25.348	857.733	678.558
293.774	25.144	857.093	677.222
294.789	26.166	857.758	681.547
295.803	26.699	857.943	683.646
296.818	26.703	857.589	683.319
297.833	26.851	857.178	683.489
298.847	26.647	855.975	681.699
299.862	26.196	854.791	679.001
300.876	26.431	854.371	679.491
301.891	26.783	853.819	680.314
302.906	26.833	853.630	680.291
303.920	26.420	852.645	677.898
304.935	26.270	852.067	676.814
305.949	26.711	851.672	678.093
306.964	26.667	851.385	677.641
307.979	26.575	850.427	676.474
308.993	26.476	850.158	675.829
310.008	26.776	849.690	676.520
311.022	27.032	849.108	676.948
312.037	26.764	848.732	675.592
313.052	26.658	848.272	674.772
314.066	26.523	847.571	673.649
315.081	25.687	845.602	668.920
316.095	24.898	845.148	665.569
317.110	25.453	844.996	667.453
318.125	26.359	845.071	670.819
319.139	25.896	844.482	668.571
320.154	25.001	842.225	663.413
321.168	24.231	841.576	659.996
322.183	25.120	841.558	663.212
323.197	26.017	841.882	666.727
324.212	26.238	841.678	667.323
325.227	26.378	841.271	667.458
326.241	26.583	841.112	668.029
327.256	26.490	840.630	667.244
328.270	26.483	839.635	666.370
329.285	26.139	839.494	664.930
330.300	26.108	838.300	663.813
331.314	25.901	837.338	662.231
332.329	26.126	836.747	662.530
333.343	26.358	837.070	663.582
334.358	26.494	836.856	663.849
335.373	26.681	835.871	663.697
336.387	26.567	835.701	663.083
337.402	26.961	835.364	664.202
338.416	27.026	834.881	663.997
339.431	27.006	834.395	663.477
340.446	27.128	833.746	663.350
341.460	27.308	833.431	663.697
342.475	27.266	832.519	662.757
343.489	26.991	831.949	661.243
344.504	27.022	831.342	660.816
345.519	27.204	831.285	661.375
346.533	27.523	830.963	662.219
347.548	27.454	830.835	661.807
348.562	27.574	829.914	661.450
349.577	27.487	828.946	660.307
350.592	27.513	828.526	660.005
351.606	27.414	828.137	659.278
352.621	27.443	827.749	659.018
353.635	27.242	827.408	657.962
354.650	27.100	827.002	657.064
355.665	26.880	825.673	655.156
356.679	25.849	824.045	650.091
357.694	25.784	823.449	649.328
358.708	26.316	823.393	651.144
359.723	26.387	822.877	650.935
360.738	26.493	822.851	651.237
361.752	27.100	822.478	653.066
362.767	27.056	822.532	652.892
363.781	27.374	822.372	653.850
364.796	27.779	821.948	654.910
365.810	27.712	821.846	654.531
366.825	27.805	821.205	654.295
367.840	27.791	821.140	654.136
368.854	27.589	820.698	653.003
369.869	27.170	819.432	650.437
370.883	27.123	818.708	649.638
371.898	27.245	818.313	649.703
372.913	27.033	817.352	648.124
373.927	27.079	816.734	647.742
374.942	27.224	816.280	647.840
375.956	27.239	815.894	647.530
376.971	27.480	815.249	647.820
377.986	27.670	814.777	648.063
379.000	27.838	814.533	648.408
380.015	27.754	814.006	647.633
381.029	27.475	813.885	646.487
382.044	27.436	813.416	645.919
383.059	27.877	812.441	646.652
384.073	27.754	812.251	646.006
385.088	27.718	811.601	645.305
386.102	27.701	811.085	644.777
387.117	27.405	810.374	643.111
388.132	27.450	809.779	642.740
389.146	27.335	809.072	641.717
390.161	26.861	807.664	638.876
391.175	26.756	807.701	638.477
392.190	27.406	808.147	641.061
393.205	27.532	806.929	640.484
394.219	26.381	805.125	634.956
395.234	24.740	803.220	627.641
396.248	23.890	802.111	623.740
397.263	24.978	803.045	628.232
398.278	26.829	804.352	635.693
399.292	27.287	804.378	637.261
400.307	27.005	804.004	635.922
401.321	27.152	803.199	635.740
402.336	27.005	802.796	634.851
403.350	27.310	802.627	635.727
404.365	27.693	802.447	636.868
405.380	28.104	802.455	638.251
406.394	28.381	802.131	638.903
407.409	28.651	801.540	639.316
408.423	28.435	801.351	638.360
409.438	28.324	801.040	637.667
410.453	28.410	800.305	637.325
411.467	28.382	800.343	637.201
412.482	28.477	799.304	636.648
413.496	28.442	798.852	636.110
414.511	28.448	798.453	635.756
415.526	28.339	798.379	635.264
416.540	28.370	797.973	634.993
417.555	28.432	796.937	634.327
418.569	28.081	796.580	632.772
419.584	28.081	795.984	632.241
420.599	27.951	795.781	631.576
421.613	111.605	1286.444	1460.823
422.628	96.170	1357.903	1460.925
