DTS Sentinel unit serial number:	SN413079Multiplexer serial number:	ORYXHardware model number:	OX4-SRSoftware version number:	ORYX F/W v4.00 Oryx Data Collector v3.7.2.0data status	okinstallation	princeton_trtdifferential loss correction	single-endedforward channel	channel 3reverse channel	N/Adate	2019/09/11time	22:14:11forward acquisition time	60.00reverse acquisition time	0.00gamma	496.2192k internal	0.2313k external	0.2313temperature offset calibration	1.0044default loss term (dB/km)	0.3790temperature slope calibration	1.0000multiplexer offset coefficient	1.0000multiplexer slope coefficient	1.0000fibre end	0.00T internal ref (°C)	35.31T ext. ref 1 (°C)	1.76T ext. ref 2 (°C)	29.67length (m)	temperature (°C)	Stokes	anti-Stokes-747.200	-186.958	-0.071	0.001
-746.185	15.187	-0.203	-0.162
-745.171	110.649	0.105	0.128
-744.156	800.000	-0.015	0.045
-743.142	-71.294	0.291	0.111
-742.127	-63.188	-0.219	0.092
-741.112	-8.566	-0.229	0.156
-740.098	296.233	0.122	0.226
-739.083	-38.956	-0.063	-0.034
-738.069	663.016	0.130	0.339
-737.054	800.000	-0.031	0.119
-736.039	800.000	-0.089	0.375
-735.025	389.200	0.117	0.245
-734.010	717.445	0.020	-0.055
-732.996	800.000	0.042	0.133
-731.981	-68.408	0.329	-0.129
-730.966	-29.839	-0.253	-0.146
-729.952	800.000	0.101	-0.311
-728.937	-200.000	0.052	-0.511
-727.923	-141.732	0.156	-0.016
-726.908	-200.000	-0.011	-0.069
-725.894	316.908	0.241	-0.461
-724.879	143.297	0.063	-0.085
-723.864	-200.000	0.025	-0.344
-722.850	75.574	-0.094	-0.101
-721.835	176.828	0.139	0.206
-720.821	-199.923	0.169	0.001
-719.806	-154.584	-0.173	0.012
-718.791	184.199	0.060	0.090
-717.777	-0.875	-0.122	-0.087
-716.762	152.150	0.096	0.133
-715.748	8.506	-0.160	-0.122
-714.733	345.671	0.181	0.361
-713.718	63.155	0.103	-0.105
-712.704	510.219	-0.114	0.270
-711.689	217.139	-0.107	-0.172
-710.675	-36.533	0.250	-0.136
-709.660	-102.106	-0.068	-0.017
-708.645	453.076	0.058	-0.130
-707.631	-200.000	0.016	0.196
-706.616	192.173	0.164	-0.250
-705.602	-16.016	-0.227	0.146
-704.587	319.244	0.130	0.250
-703.572	196.067	0.098	-0.151
-702.558	-87.968	0.213	0.065
-701.543	800.000	-0.093	-0.284
-700.529	-200.000	-0.230	0.000
-699.514	-163.695	-0.058	0.003
-698.499	-200.000	-0.001	-0.019
-697.485	-28.292	0.098	0.057
-696.470	-18.090	-0.165	-0.105
-695.456	-200.000	-0.010	-0.311
-694.441	78.044	-0.146	-0.158
-693.426	144.426	-0.152	0.206
-692.412	-37.464	-0.087	-0.047
-691.397	426.263	-0.056	0.122
-690.383	-7.430	0.321	-0.220
-689.368	-200.000	-0.033	0.199
-688.354	-26.807	0.389	-0.230
-687.339	800.000	0.120	-0.487
-686.324	800.000	-0.069	-0.273
-685.310	-61.151	-0.115	0.049
-684.295	-39.915	0.195	-0.103
-683.281	175.302	0.136	0.200
-682.266	361.926	0.082	-0.166
-681.251	-200.000	-0.067	-0.312
-680.237	800.000	-0.091	0.360
-679.222	224.488	0.113	-0.184
-678.208	-200.000	-0.044	-0.199
-677.193	-200.000	-0.003	-0.146
-676.178	-200.000	-0.058	-0.267
-675.164	116.722	-0.098	0.122
-674.149	-200.000	-0.031	0.215
-673.135	-154.641	-0.102	-0.007
-672.120	68.280	-0.077	-0.080
-671.105	36.860	-0.241	-0.215
-670.091	605.101	-0.114	-0.287
-669.076	-200.000	-0.033	-0.367
-668.062	-1.420	0.110	0.079
-667.047	122.048	0.030	0.038
-666.032	5.840	-0.036	-0.027
-665.018	326.750	0.162	-0.314
-664.003	800.000	0.032	-0.100
-662.989	19.381	-0.043	0.035
-661.974	98.668	0.109	-0.127
-660.959	38.364	0.071	-0.064
-659.945	-54.620	0.439	0.201
-658.930	-69.057	-0.079	-0.031
-657.916	649.155	0.118	-0.305
-656.901	59.263	-0.161	-0.160
-655.886	637.214	0.194	-0.497
-654.872	102.793	-0.042	-0.050
-653.857	-200.000	0.024	0.166
-652.843	-105.616	-0.067	-0.015
-651.828	-14.336	-0.189	0.123
-650.814	-113.380	-0.238	0.047
-649.799	336.749	0.142	-0.278
-648.784	91.909	-0.082	-0.093
-647.770	-200.000	0.011	0.117
-646.755	156.504	-0.066	-0.092
-645.741	220.136	-0.007	0.011
-644.726	-73.038	0.117	-0.043
-643.711	33.038	0.146	0.128
-642.697	-5.055	-0.164	-0.114
-641.682	-67.692	0.073	0.029
-640.668	25.451	0.049	0.041
-639.653	17.922	-0.048	0.038
-638.638	10.151	0.090	0.069
-637.624	-11.995	-0.243	-0.161
-636.609	77.082	-0.122	-0.131
-635.595	250.056	0.168	-0.288
-634.580	-110.282	-0.137	0.029
-633.565	116.570	-0.146	0.181
-632.551	76.583	0.022	-0.023
-631.536	82.842	-0.221	-0.242
-630.522	613.652	-0.095	-0.240
-629.507	27.304	-0.159	-0.135
-628.492	226.952	0.064	-0.105
-627.478	-77.178	-0.196	0.069
-626.463	578.728	-0.054	-0.135
-625.449	252.200	0.242	-0.417
-624.434	157.633	-0.135	-0.188
-623.419	-200.000	0.003	0.226
-622.405	1.725	-0.081	-0.059
-621.390	800.000	0.052	0.169
-620.376	224.984	-0.159	-0.260
-619.361	-200.000	0.001	-0.074
-618.346	800.000	0.125	-0.386
-617.332	-19.428	0.449	-0.281
-616.317	-115.129	0.170	-0.033
-615.303	-200.000	0.006	0.142
-614.288	86.410	0.292	0.324
-613.273	1.251	-0.169	0.122
-612.259	794.536	0.097	0.270
-611.244	-37.770	0.196	-0.105
-610.230	-62.157	-0.147	0.062
-609.215	386.841	0.161	-0.335
-608.201	93.907	-0.180	0.206
-607.186	-200.000	-0.017	-0.163
-606.171	-109.436	0.069	0.015
-605.157	27.641	-0.076	-0.065
-604.142	10.002	0.095	-0.073
-603.128	-13.813	-0.231	-0.151
-602.113	-151.164	-0.290	0.022
-601.098	-9.297	-0.181	-0.122
-600.084	-200.000	0.083	-0.418
-599.069	58.688	0.185	0.183
-598.055	53.371	0.183	0.177
-597.040	-0.702	0.064	0.046
-596.025	306.417	0.164	0.307
-595.011	800.000	0.095	0.324
-593.996	304.381	0.119	0.224
-592.982	-127.728	-0.259	-0.038
-591.967	57.884	0.146	0.144
-590.952	37.654	-0.123	0.110
-589.938	-57.732	-0.204	-0.090
-588.923	91.073	0.021	-0.024
-587.909	603.166	0.055	-0.139
-586.894	-150.488	-0.192	-0.015
-585.879	152.292	-0.107	-0.147
-584.865	-13.164	-0.334	-0.219
-583.850	187.795	0.237	0.356
-582.836	-37.181	-0.193	-0.104
-581.821	-118.497	-0.222	0.040
-580.806	-51.185	-0.381	0.180
-579.792	-18.686	0.231	-0.145
-578.777	800.000	-0.010	0.031
-577.763	2.367	-0.180	0.131
-576.748	209.810	0.100	-0.158
-575.733	-130.638	0.063	-0.008
-574.719	-21.709	-0.262	-0.161
-573.704	-4.915	0.039	0.027
-572.690	315.360	-0.064	0.122
-571.675	-9.787	-0.304	-0.204
-570.661	-34.838	-0.170	-0.093
-569.646	49.806	0.256	0.243
-568.631	547.803	-0.070	-0.169
-567.617	143.055	0.155	0.208
-566.602	150.380	-0.168	-0.230
-565.588	55.763	-0.040	0.039
-564.573	-200.000	-0.007	-0.151
-563.558	-102.654	-0.127	-0.030
-562.544	-200.000	-0.027	-0.143
-561.529	-21.551	-0.236	0.145
-560.515	-85.566	0.203	-0.064
-559.500	714.960	0.059	-0.159
-558.485	-93.229	0.160	0.045
-557.471	-200.000	-0.097	0.690
-556.456	-200.000	-0.016	-0.182
-555.442	-200.000	0.006	0.354
-554.427	-200.000	-0.042	0.214
-553.412	683.682	-0.025	0.065
-552.398	-200.000	0.056	-0.289
-551.383	50.223	0.228	-0.217
-550.369	-200.000	0.013	0.117
-549.354	-118.435	-0.335	0.060
-548.339	-84.457	0.193	0.061
-547.325	-120.867	-0.113	0.019
-546.310	-200.000	0.057	0.261
-545.296	-119.965	0.219	0.038
-544.281	125.816	-0.068	-0.087
-543.266	-79.525	0.258	0.088
-542.252	430.314	-0.034	0.074
-541.237	-66.570	-0.272	0.109
-540.223	299.455	-0.095	-0.176
-539.208	-113.096	0.459	-0.091
-538.193	675.723	-0.082	0.213
-537.179	155.300	0.078	0.108
-536.164	-181.566	0.381	-0.007
-535.150	173.756	-0.256	0.372
-534.135	218.646	0.137	-0.221
-533.121	-172.023	-0.504	0.016
-532.106	52.133	-0.143	0.137
-531.091	-3.887	0.247	-0.172
-530.077	-67.268	0.151	-0.060
-529.062	60.208	0.280	0.278
-528.048	264.150	-0.114	-0.199
-527.033	800.000	-0.033	-0.102
-526.018	-177.867	-0.269	0.006
-525.004	-200.000	-0.009	0.216
-523.989	-106.266	0.156	0.035
-522.975	-46.449	-0.289	-0.143
-521.960	123.717	0.150	0.189
-520.945	337.128	-0.110	-0.214
-519.931	-200.000	-0.065	0.000
-518.916	74.669	0.081	-0.085
-517.902	-63.525	0.190	0.078
-516.887	-17.691	0.210	0.132
-515.872	186.094	-0.108	0.161
-514.858	726.686	0.055	-0.147
-513.843	-46.245	0.132	0.066
-512.829	11.025	0.052	0.040
-511.814	800.000	-0.089	-0.249
-510.799	93.027	-0.177	-0.201
-509.785	-35.887	-0.189	-0.103
-508.770	-68.946	0.080	-0.031
-507.756	9.447	-0.189	-0.143
-506.741	29.268	0.210	-0.179
-505.726	9.498	0.187	0.142
-504.712	-60.005	0.217	-0.093
-503.697	-21.133	-0.299	0.184
-502.683	-107.455	-0.184	-0.041
-501.668	800.000	0.069	-0.200
-500.653	98.381	0.089	-0.103
-499.639	252.342	0.109	0.186
-498.624	-200.000	0.003	0.040
-497.610	-200.000	0.050	0.276
-496.595	800.000	0.065	0.185
-495.581	687.438	0.150	0.393
-494.566	-136.218	0.278	-0.033
-493.551	-181.678	-0.021	0.000
-492.537	-200.000	0.036	0.327
-491.522	513.676	-0.077	-0.181
-490.508	-79.751	-0.259	-0.088
-489.493	-200.000	-0.004	-0.334
-488.478	19.103	-0.175	-0.141
-487.464	-91.950	-0.363	-0.103
-486.449	266.584	0.020	0.035
-485.435	-200.000	-0.011	0.175
-484.420	36.157	0.176	-0.156
-483.405	180.052	0.079	-0.116
-482.391	78.357	0.182	-0.195
-481.376	-33.140	-0.097	-0.054
-480.362	586.597	-0.139	0.342
-479.347	-160.191	-0.249	-0.014
-478.332	479.746	0.031	-0.069
-477.318	74.892	0.128	0.136
-476.303	800.000	-0.070	0.232
-475.289	293.493	-0.171	0.313
-474.274	102.937	-0.156	-0.183
-473.259	800.000	-0.086	-0.272
-472.245	190.073	0.174	-0.263
-471.230	61.155	0.228	-0.227
-470.216	-200.000	0.080	0.362
-469.201	711.791	-0.087	-0.232
-468.186	-200.000	0.041	-0.224
-467.172	90.415	-0.140	0.157
-466.157	-79.085	-0.249	0.085
-465.143	-137.406	-0.323	0.037
-464.128	141.722	0.244	-0.325
-463.113	58.052	0.159	0.156
-462.099	-69.306	-0.172	-0.066
-461.084	-133.407	0.154	-0.019
-460.070	-24.015	-0.147	-0.088
-459.055	381.454	0.055	0.113
-458.040	341.922	-0.083	0.163
-457.026	-39.372	0.312	-0.164
-456.011	447.522	-0.154	-0.339
-454.997	-200.000	0.020	-0.216
-453.982	58.374	-0.276	0.271
-452.968	-100.498	-0.128	0.032
-451.953	53.080	0.156	0.149
-450.938	-72.846	0.431	-0.159
-449.924	-80.940	-0.151	0.050
-448.909	238.402	-0.057	0.095
-447.895	-8.980	-0.275	-0.185
-446.880	195.480	0.092	0.139
-445.865	95.615	0.066	0.075
-444.851	202.928	0.130	-0.202
-443.836	109.656	-0.060	-0.072
-442.822	297.124	-0.115	-0.211
-441.807	650.615	-0.039	-0.101
-440.792	-44.663	-0.258	0.129
-439.778	55.451	0.037	-0.036
-438.763	1.810	0.204	0.147
-437.749	800.000	-0.047	-0.147
-436.734	194.899	-0.161	-0.245
-435.719	-9.044	-0.245	-0.164
-434.705	-200.000	0.040	-0.211
-433.690	264.275	-0.082	-0.143
-432.676	-45.244	0.093	-0.046
-431.661	800.000	-0.048	-0.143
-430.646	0.983	-0.029	0.021
-429.632	-200.000	0.003	-0.276
-428.617	-96.725	0.222	-0.059
-427.603	-158.860	-0.363	0.021
-426.588	-69.709	0.250	0.096
-425.573	-200.000	0.010	-0.116
-424.559	-200.000	-0.022	-0.115
-423.544	-115.155	-0.133	0.025
-422.530	-52.184	0.182	0.084
-421.515	800.000	-0.069	-0.245
-420.500	800.000	-0.010	0.032
-419.486	-200.000	-0.012	-0.077
-418.471	-200.000	-0.049	-0.353
-417.457	170.090	0.243	0.348
-416.442	105.649	-0.053	0.062
-415.428	800.000	0.025	0.080
-414.413	800.000	0.077	-0.253
-413.398	-2.733	-0.267	-0.187
-412.384	173.147	-0.086	-0.124
-411.369	800.000	0.054	-0.177
-410.355	185.968	0.115	-0.171
-409.340	-73.232	0.091	-0.033
-408.325	-90.125	-0.046	-0.013
-407.311	70.777	-0.221	-0.229
-406.296	334.100	0.071	0.138
-405.282	-143.480	-0.205	0.020
-404.267	118.471	0.018	-0.022
-403.252	-72.061	-0.317	0.118
-402.238	57.605	-0.098	-0.095
-401.223	257.375	-0.114	0.196
-400.209	800.000	-0.035	0.106
-399.194	-148.934	-0.270	-0.022
-398.179	468.106	0.093	0.209
-397.165	800.000	0.115	0.328
-396.150	-91.104	-0.483	-0.139
-395.136	266.090	0.120	0.209
-394.121	504.545	-0.058	-0.134
-393.106	77.851	0.233	0.248
-392.092	-160.907	-0.321	-0.017
-391.077	-133.315	0.261	-0.033
-390.063	336.328	-0.099	-0.192
-389.048	-200.000	0.022	-0.117
-388.033	-110.776	-0.363	0.075
-387.019	-105.777	0.207	-0.047
-386.004	800.000	-0.037	0.146
-384.990	189.183	-0.169	-0.253
-383.975	800.000	0.020	-0.086
-382.960	-25.090	0.340	0.202
-381.946	-139.518	-0.050	0.005
-380.931	775.660	0.121	-0.331
-379.917	-49.690	0.073	-0.035
-378.902	-84.491	0.404	-0.128
-377.888	-200.000	0.011	0.158
-376.873	-110.477	0.175	-0.036
-375.858	-126.659	0.187	0.028
-374.844	419.780	0.125	0.267
-373.829	-83.776	-0.239	0.076
-372.815	719.259	0.097	-0.257
-371.800	800.000	0.038	0.148
-370.785	-9.516	-0.250	0.167
-369.771	-112.890	0.129	0.026
-368.756	137.123	-0.287	-0.375
-367.742	257.662	-0.080	-0.138
-366.727	-180.252	-0.348	-0.007
-365.712	-78.728	-0.134	-0.046
-364.698	-130.415	0.079	-0.011
-363.683	-30.561	-0.234	-0.132
-362.669	-139.876	-0.248	0.026
-361.654	454.720	-0.019	-0.042
-360.639	-200.000	0.018	0.202
-359.625	82.149	0.179	0.194
-358.610	-33.614	0.191	-0.105
-357.596	-200.000	0.053	0.326
-356.581	-13.354	-0.226	-0.147
-355.566	-96.839	0.280	-0.074
-354.552	-200.000	0.004	0.262
-353.537	-5.659	0.199	-0.137
-352.523	155.025	0.134	-0.183
-351.508	431.132	0.046	0.100
-350.493	800.000	-0.041	0.168
-349.479	800.000	-0.086	-0.245
-348.464	218.890	0.099	0.159
-347.450	-200.000	0.015	0.103
-346.435	157.519	-0.351	0.485
-345.420	-111.017	-0.098	-0.020
-344.406	73.236	0.137	0.143
-343.391	-200.000	-0.003	0.132
-342.377	800.000	0.053	-0.151
-341.362	-136.961	0.339	0.039
-340.348	261.250	-0.120	-0.207
-339.333	-25.826	-0.123	-0.072
-338.318	-196.350	-0.179	-0.001
-337.304	3.976	-0.136	-0.099
-336.289	-0.610	0.209	-0.148
-335.275	167.272	-0.122	0.172
-334.260	-200.000	0.028	0.201
-333.245	-200.000	0.012	0.208
-332.231	-200.000	0.014	-0.076
-331.216	-162.453	0.334	-0.016
-330.202	-55.964	0.152	0.068
-329.187	158.873	-0.084	0.116
-328.172	20.059	0.173	0.139
-327.158	554.797	0.098	-0.235
-326.143	800.000	0.101	0.344
-325.129	23.994	-0.087	-0.072
-324.114	-200.000	0.012	0.110
-323.099	-114.963	0.133	0.025
-322.085	-200.000	-0.047	-0.255
-321.070	352.328	-0.107	0.211
-320.056	-61.582	0.176	-0.074
-319.041	-99.441	0.274	0.069
-318.026	-200.000	0.074	0.338
-317.012	-200.000	0.010	-0.360
-315.997	-149.369	0.064	-0.005
-314.983	-32.403	-0.249	0.138
-313.968	-200.000	-0.000	-0.123
-312.953	-59.612	-0.263	0.113
-311.939	800.000	0.076	-0.280
-310.924	-16.249	0.132	-0.084
-309.910	-80.794	-0.125	-0.041
-308.895	121.125	0.013	0.016
-307.880	-54.926	-0.156	0.070
-306.866	235.033	0.187	0.307
-305.851	98.932	-0.085	0.098
-304.837	-70.817	-0.294	0.110
-303.822	-65.590	-0.141	-0.057
-302.807	-68.632	-0.242	0.093
-301.793	-200.000	-0.020	-0.249
-300.778	83.035	0.203	-0.220
-299.764	79.036	-0.050	0.053
-298.749	630.886	-0.081	-0.204
-297.735	-200.000	0.038	-0.239
-296.720	-166.168	0.287	0.012
-295.705	385.416	-0.018	-0.038
-294.691	19.536	0.148	0.118
-293.676	-84.987	0.134	0.042
-292.662	156.851	-0.098	0.135
-291.647	9.092	-0.076	0.057
-290.632	-200.000	0.019	0.219
-289.618	-60.259	-0.191	0.081
-288.603	-73.663	0.326	0.118
-287.589	-143.619	0.325	-0.031
-286.574	-103.901	-0.087	-0.020
-285.559	175.695	0.114	-0.165
-284.545	-79.047	0.241	0.082
-283.530	-120.832	-0.434	0.073
-282.516	-200.000	0.004	0.021
-281.501	-172.340	-0.062	-0.002
-280.486	35.399	0.210	-0.183
-279.472	-121.530	-0.407	0.067
-278.457	800.000	-0.035	-0.145
-277.443	606.657	0.062	-0.154
-276.428	800.000	-0.088	0.252
-275.413	-200.000	0.017	0.190
-274.399	-9.508	0.312	0.207
-273.384	-164.123	0.217	-0.010
-272.370	-147.255	0.030	-0.003
-271.355	170.462	-0.153	-0.219
-270.340	51.013	0.221	0.209
-269.326	181.056	0.026	0.038
-268.311	-200.000	0.044	0.237
-267.297	-143.464	0.342	-0.033
-266.282	367.423	0.186	0.374
-265.267	-200.000	0.034	-0.184
-264.253	-81.621	0.230	-0.075
-263.238	-200.000	0.027	0.377
-262.224	-200.000	-0.035	-0.164
-261.209	-154.231	0.499	-0.034
-260.195	-86.359	0.097	-0.030
-259.180	-200.000	0.007	0.142
-258.165	411.457	0.063	0.134
-257.151	-3.819	0.176	-0.122
-256.136	-88.942	0.140	0.041
-255.122	-152.533	0.069	-0.005
-254.107	54.777	0.158	0.152
-253.092	-200.000	0.047	0.214
-252.078	519.362	-0.162	-0.378
-251.063	-121.039	-0.187	-0.031
-250.049	30.366	0.185	0.158
-249.034	-127.553	-0.280	0.040
-248.019	80.781	0.273	-0.293
-247.005	16.604	0.116	0.091
-245.990	374.320	-0.059	-0.120
-244.976	87.764	0.155	0.171
-243.961	800.000	0.046	0.127
-242.946	-93.504	-0.041	0.011
-241.932	-200.000	-0.006	0.094
-240.917	-29.015	-0.180	-0.103
-239.903	800.000	0.077	0.308
-238.888	11.689	0.137	-0.104
-237.873	-91.879	0.193	-0.054
-236.859	-20.502	-0.249	0.152
-235.844	337.182	-0.091	0.175
-234.830	-200.000	-0.012	-0.178
-233.815	77.707	-0.087	-0.092
-232.800	11.926	-0.248	0.189
-231.786	-144.666	0.345	-0.032
-230.771	-106.046	-0.254	-0.057
-229.757	-200.000	-0.027	-0.190
-228.742	-200.000	0.007	-0.057
-227.727	-200.000	0.008	0.160
-226.713	-67.295	0.040	-0.016
-225.698	29.869	0.103	0.087
-224.684	318.981	0.081	-0.152
-223.669	-200.000	0.050	0.300
-222.655	-75.390	-0.258	-0.091
-221.640	16.500	-0.120	0.094
-220.625	-109.893	0.339	0.071
-219.611	-66.076	0.374	0.148
-218.596	800.000	0.044	0.148
-217.582	-63.092	0.181	0.074
-216.567	84.623	-0.113	-0.123
-215.552	42.758	-0.138	-0.125
-214.538	-8.681	0.195	-0.130
-213.523	-200.000	0.001	-0.227
-212.509	626.280	-0.121	0.302
-211.494	312.768	-0.222	0.414
-210.479	139.649	0.047	0.062
-209.465	125.958	0.118	0.148
-208.450	-188.909	-0.089	-0.001
-207.436	-110.717	0.171	0.035
-206.421	-18.685	0.254	-0.158
-205.406	-200.000	-0.029	-0.151
-204.392	453.827	-0.098	-0.215
-203.377	-183.849	0.280	0.005
-202.363	-160.210	-0.096	0.005
-201.348	-148.093	-0.563	-0.046
-200.333	-111.542	0.222	0.045
-199.319	167.564	-0.220	-0.311
-198.304	141.009	-0.190	-0.249
-197.290	-117.973	-0.470	0.083
-196.275	-200.000	-0.032	0.159
-195.260	-108.098	0.310	-0.067
-194.246	67.349	-0.081	-0.082
-193.231	-200.000	0.058	0.361
-192.217	339.738	-0.127	-0.245
-191.202	800.000	-0.035	-0.141
-190.187	-163.113	-0.191	0.009
-189.173	137.886	-0.238	-0.309
-188.158	35.162	0.103	-0.090
-187.144	-200.000	0.010	-0.050
-186.129	800.000	0.045	0.177
-185.114	-200.000	-0.020	0.195
-184.100	-25.930	0.164	-0.096
-183.085	-17.391	0.291	0.182
-182.071	165.445	0.062	0.086
-181.056	-188.802	0.217	0.003
-180.042	93.176	0.176	0.198
-179.027	-160.749	-0.209	-0.011
-178.012	-200.000	0.031	-0.375
-176.998	-106.803	-0.406	-0.089
-175.983	4.649	0.418	0.305
-174.969	-28.995	0.274	0.156
-173.954	143.067	-0.192	0.253
-172.939	-14.259	-0.367	-0.234
-171.925	-118.938	0.163	0.028
-170.910	-37.526	-0.307	0.162
-169.896	-59.207	-0.341	0.146
-168.881	-117.480	-0.269	0.048
-167.866	-71.773	-0.205	0.076
-166.852	-151.517	-0.155	0.011
-165.837	-134.774	0.430	0.052
-164.823	-96.002	-0.241	0.064
-163.808	64.106	0.125	0.125
-162.793	52.291	-0.287	-0.272
-161.779	14.374	-0.142	-0.110
-160.764	-18.451	0.154	0.096
-159.750	-41.913	0.357	0.181
-158.735	-193.908	0.130	-0.001
-157.720	92.691	0.202	0.226
-156.706	800.000	0.131	0.408
-155.691	364.543	0.023	0.047
-154.677	-71.281	0.229	-0.085
-153.662	130.877	0.269	-0.342
-152.647	-200.000	-0.015	0.223
-151.633	55.366	0.128	-0.123
-150.618	793.910	0.041	-0.111
-149.604	800.000	-0.126	0.440
-148.589	-121.668	0.124	-0.020
-147.574	52.901	-0.082	-0.078
-146.560	-200.000	0.003	-0.216
-145.545	151.597	-0.126	-0.171
-144.531	-23.074	0.151	-0.090
-143.516	-200.000	0.004	0.103
-142.502	-67.825	0.095	-0.037
-141.487	284.065	-0.126	-0.225
-140.472	124.473	0.249	0.310
-139.458	124.340	-0.225	0.280
-138.443	-4.105	0.183	-0.126
-137.429	58.309	0.124	0.120
-136.414	-168.906	0.135	0.005
-135.399	-158.991	0.360	-0.020
-134.385	-200.000	-0.010	0.270
-133.370	717.948	0.124	-0.326
-132.356	-96.601	-0.068	-0.018
-131.341	211.965	0.095	-0.148
-130.326	-47.450	0.123	0.059
-129.312	800.000	-0.035	0.136
-128.297	-151.620	-0.269	0.020
-127.283	-25.953	-0.263	-0.153
-126.268	86.465	0.162	-0.176
-125.253	-114.861	0.155	0.029
-124.239	-95.600	0.158	-0.042
-123.224	315.443	0.146	0.272
-122.210	-155.309	-0.276	0.018
-121.195	-72.235	-0.360	0.132
-120.180	-200.000	0.040	0.236
-119.166	22.744	-0.229	-0.185
-118.151	800.000	0.048	0.193
-117.137	-61.207	-0.260	-0.109
-116.122	-90.189	0.249	-0.072
-115.107	800.000	-0.090	0.250
-114.093	-200.000	-0.005	0.147
-113.078	-82.402	-0.052	-0.017
-112.064	-13.307	0.123	0.079
-111.049	800.000	0.013	-0.040
-110.034	117.836	0.080	0.098
-109.020	54.367	0.187	-0.178
-108.005	14.879	0.249	-0.193
-106.991	-133.292	-0.411	0.051
-105.976	175.444	-0.233	0.334
-104.962	-95.479	0.099	0.026
-103.947	-200.000	-0.031	-0.331
-102.932	2.561	0.109	-0.078
-101.918	800.000	0.103	-0.297
-100.903	293.144	0.134	0.242
-99.889	-140.164	-0.325	0.034
-98.874	159.759	0.082	0.113
-97.859	-31.854	0.293	0.162
-96.845	-92.213	0.196	0.055
-95.830	-69.141	-0.208	0.079
-94.816	146.280	-0.103	0.136
-93.801	-113.801	-0.266	0.051
-92.786	138.230	0.068	-0.088
-91.772	800.000	0.058	-0.179
-90.757	-136.633	0.137	-0.016
-89.743	-200.000	-0.072	0.470
-88.728	-200.000	0.029	-0.203
-87.713	19.993	0.086	-0.069
-86.699	800.000	0.046	-0.158
-85.684	-110.129	0.202	0.042
-84.670	517.567	0.016	-0.037
-83.655	-128.923	-0.057	-0.008
-82.640	-40.041	-0.214	0.110
-81.626	-200.000	0.021	-0.111
-80.611	67.290	0.109	0.110
-79.597	61.297	0.196	0.192
-78.582	800.000	0.075	0.263
-77.567	23.286	-0.306	0.249
-76.553	-108.824	-0.438	0.092
-75.538	144.293	-0.264	-0.348
-74.524	800.000	-0.038	-0.154
-73.509	-130.111	0.137	-0.018
-72.494	-73.720	0.242	0.087
-71.480	-133.373	0.210	-0.026
-70.465	-23.562	0.169	-0.100
-69.451	-200.000	-0.001	0.078
-68.436	170.334	-0.182	0.257
-67.422	-12.630	0.211	0.136
-66.407	-134.704	-0.508	0.061
-65.392	405.475	0.143	-0.299
-64.378	133.270	0.128	0.163
-63.363	704.755	-0.104	0.271
-62.349	769.320	-0.131	0.353
-61.334	213.259	-0.498	-0.778
-60.319	212.164	0.337	0.524
-59.305	-200.000	-0.094	-1.106
-58.290	454.943	0.448	0.981
-57.276	800.000	0.436	1.550
-56.261	-200.000	95.465	580.979
-55.246	568.765	1370.849	3289.355
-54.232	153.900	2578.307	3489.569
-53.217	116.207	2180.935	2637.604
-52.203	45.992	1719.259	1570.783
-51.188	38.443	1530.837	1346.872
-50.173	35.961	1503.031	1305.555
-49.159	55.741	1554.062	1486.648
-48.144	59.756	1573.134	1532.464
-47.130	38.951	1527.776	1347.459
-46.115	35.616	1512.420	1311.149
-45.100	35.418	1509.189	1306.946
-44.086	35.434	1507.131	1305.223
-43.071	35.433	1504.902	1303.231
-42.057	35.273	1503.815	1301.151
-41.042	35.231	1502.407	1299.602
-40.027	35.294	1500.701	1298.498
-39.013	35.451	1499.000	1298.040
-37.998	35.368	1498.004	1296.561
-36.984	35.215	1497.852	1295.348
-35.969	35.318	1495.776	1294.191
-34.954	35.323	1494.435	1293.013
-33.940	35.312	1492.964	1291.618
-32.925	35.344	1491.587	1290.589
-31.911	35.362	1490.184	1289.449
-30.896	35.343	1489.136	1288.362
-29.881	35.431	1487.433	1287.429
-28.867	35.370	1486.404	1286.073
-27.852	35.338	1484.794	1284.419
-26.838	35.364	1483.445	1283.370
-25.823	35.356	1481.620	1281.693
-24.809	35.398	1479.862	1280.396
-23.794	35.341	1478.744	1279.003
-22.779	35.328	1477.889	1278.126
-21.765	35.348	1476.389	1276.912
-20.750	35.425	1474.972	1276.143
-19.736	35.370	1474.320	1275.166
-18.721	35.291	1473.623	1273.986
-17.706	35.321	1472.341	1273.025
-16.692	35.405	1471.058	1272.422
-15.677	35.345	1469.784	1270.874
-14.663	35.234	1469.451	1269.803
-13.648	35.242	1468.346	1268.847
-12.633	35.282	1467.325	1268.179
-11.619	35.283	1466.420	1267.353
-10.604	35.246	1465.570	1266.323
-9.590	35.175	1465.296	1265.570
-8.575	35.229	1464.263	1264.982
-7.560	35.163	1463.488	1263.824
-6.546	35.260	1462.366	1263.446
-5.531	35.273	1461.268	1262.534
-4.517	35.252	1460.474	1261.658
-3.502	35.338	1459.096	1260.981
-2.487	35.278	1458.262	1259.820
-1.473	35.253	1457.101	1258.603
-0.458	35.233	1455.750	1257.257
0.556	35.352	1446.105	1246.042
1.571	32.583	1420.270	1205.972
2.586	29.201	1359.565	1133.561
3.600	27.399	1277.604	1054.696
4.615	26.048	1231.262	1008.803
5.629	22.197	1174.161	941.354
6.644	11.556	1085.588	817.299
7.659	3.133	1041.949	743.783
8.673	2.007	1036.249	734.234
9.688	1.722	1032.789	730.349
10.702	1.674	1031.243	728.965
11.717	1.637	1029.500	727.490
12.731	5.428	1033.843	748.667
13.746	15.669	1048.383	808.621
14.761	23.145	1058.013	852.129
15.775	24.633	1059.300	860.258
16.790	24.738	1058.948	860.400
17.804	24.785	1057.506	859.380
18.819	24.302	1057.160	856.705
19.834	24.442	1056.695	856.925
20.848	24.654	1056.001	857.299
21.863	24.771	1055.825	857.643
22.877	24.706	1055.382	856.897
23.892	24.743	1054.376	856.179
24.907	24.615	1053.789	855.015
25.921	24.632	1053.286	854.612
26.936	24.553	1052.652	853.644
27.950	24.644	1051.199	852.828
28.965	24.491	1050.075	851.108
29.980	24.447	1048.896	849.870
30.994	24.513	1047.354	848.860
32.009	24.611	1046.809	848.805
33.023	24.760	1046.208	848.950
34.038	24.472	1045.417	846.871
35.053	24.472	1044.658	846.180
36.067	24.730	1043.234	846.171
37.082	24.561	1043.000	845.109
38.096	24.631	1042.200	844.713
39.111	24.834	1041.638	845.145
40.126	24.966	1040.767	844.984
41.140	24.884	1039.259	843.299
42.155	24.562	1038.041	840.723
43.169	24.402	1036.702	838.809
44.184	24.301	1035.553	837.335
45.199	24.341	1035.044	837.035
46.213	24.236	1033.594	835.293
47.228	24.307	1032.684	834.821
48.242	24.331	1032.379	834.613
49.257	24.467	1031.613	834.553
50.271	24.560	1030.689	834.165
51.286	24.675	1030.220	834.252
52.301	24.688	1029.119	833.346
53.315	24.704	1028.616	832.941
54.330	24.694	1027.354	831.795
55.344	24.649	1027.002	831.228
56.359	24.534	1026.684	830.362
57.374	24.531	1025.603	829.401
58.388	24.468	1024.505	828.149
59.403	24.211	1024.293	826.710
60.417	24.293	1023.239	826.170
61.432	24.133	1022.588	824.830
62.447	24.184	1021.654	824.235
63.461	24.411	1021.313	824.939
64.476	24.382	1020.103	823.757
65.490	24.393	1019.483	823.234
66.505	24.322	1018.343	821.913
67.520	24.268	1017.901	821.232
68.534	24.378	1017.454	821.305
69.549	24.250	1015.994	819.466
70.563	23.979	1014.756	817.152
71.578	24.003	1014.005	816.584
72.593	24.049	1012.953	815.875
73.607	23.823	1012.288	814.231
74.622	23.850	1011.165	813.382
75.636	24.100	1010.446	813.874
76.651	24.306	1010.038	814.414
77.666	24.136	1009.423	813.070
78.680	23.978	1008.473	811.512
79.695	23.979	1007.634	810.768
80.709	24.099	1007.244	810.929
81.724	24.234	1005.834	810.340
82.739	24.225	1005.513	809.966
83.753	24.291	1004.668	809.515
84.768	24.503	1004.259	810.073
85.782	24.734	1003.464	810.407
86.797	24.947	1002.966	810.898
87.812	24.984	1001.622	809.908
88.826	24.777	1000.949	808.356
89.841	24.795	1000.506	808.011
90.855	24.947	999.487	807.802
91.870	25.088	998.380	807.469
92.884	24.938	997.771	806.230
93.899	24.717	997.181	804.686
94.914	24.705	995.763	803.416
95.928	24.890	995.067	803.616
96.943	24.781	994.670	802.734
97.957	24.525	993.338	800.442
98.972	24.163	992.603	798.156
99.987	24.118	991.294	796.831
101.001	24.195	990.874	796.771
102.016	24.561	990.357	797.919
103.030	24.605	989.582	797.422
104.045	24.592	988.459	796.386
105.060	24.374	987.005	794.174
106.074	24.189	986.120	792.567
107.089	24.232	985.349	792.068
108.103	24.451	985.381	793.000
109.118	24.516	984.598	792.588
110.133	24.408	983.199	790.914
111.147	24.337	982.230	789.750
112.162	24.359	980.705	788.550
113.176	24.027	979.856	786.330
114.191	24.072	979.038	785.802
115.206	24.166	978.290	785.549
116.220	24.070	977.041	784.052
117.235	23.902	976.021	782.426
118.249	24.000	975.703	782.535
119.264	24.099	974.766	782.146
120.279	23.894	973.884	780.472
121.293	23.858	973.031	779.561
122.308	24.023	972.757	779.995
123.322	23.983	971.931	779.089
124.337	23.922	971.033	778.032
125.352	24.047	969.516	777.293
126.366	23.502	967.911	773.564
127.381	23.144	966.719	770.982
128.395	23.719	966.633	773.348
129.410	24.276	966.394	775.514
130.424	24.543	965.316	775.738
131.439	24.653	964.401	775.410
132.454	24.487	963.448	773.857
133.468	24.502	962.743	773.290
134.483	24.530	961.977	772.725
135.497	24.548	961.239	772.145
136.512	24.775	961.095	772.938
137.527	24.810	960.007	772.146
138.541	24.748	959.493	771.397
139.556	24.713	958.846	770.658
140.570	24.858	957.899	770.455
141.585	24.769	957.027	769.303
142.600	24.941	956.063	769.198
143.614	24.821	955.249	767.958
144.629	24.751	954.672	767.129
145.643	25.021	954.487	768.071
146.658	24.957	952.984	766.518
147.673	24.742	951.772	764.556
148.687	24.658	950.178	762.849
149.702	24.522	949.703	761.819
150.716	24.544	948.347	760.760
151.731	24.472	947.827	759.969
152.746	24.529	946.912	759.408
153.760	24.777	946.045	759.700
154.775	24.916	945.574	759.844
155.789	25.045	944.339	759.331
156.804	24.880	944.058	758.341
157.819	24.813	942.796	756.976
158.833	25.019	942.225	757.318
159.848	25.043	941.681	756.919
160.862	25.009	940.826	756.021
161.877	24.871	940.012	754.716
162.892	24.722	939.014	753.222
163.906	24.977	938.037	753.442
164.921	25.069	936.822	752.789
165.935	24.906	936.094	751.453
166.950	25.003	934.816	750.767
167.964	25.015	934.076	750.154
168.979	24.941	933.423	749.255
169.994	24.830	932.365	747.875
171.008	24.672	931.273	746.275
172.023	24.757	930.888	746.254
173.037	25.039	930.039	746.683
174.052	24.818	928.905	744.787
175.067	24.695	927.622	743.180
176.081	24.669	926.779	742.333
177.096	24.769	926.104	742.141
178.110	24.769	925.446	741.547
179.125	24.472	924.807	739.742
180.140	24.208	923.745	737.732
181.154	24.288	922.822	737.258
182.169	24.300	922.655	737.111
183.183	24.539	922.174	737.650
184.198	24.861	922.341	739.049
185.213	24.889	921.016	738.033
186.227	24.782	920.237	736.904
187.242	24.808	919.996	736.754
188.256	24.959	919.387	736.822
189.271	25.007	918.110	735.931
190.286	24.995	917.660	735.455
191.300	24.906	916.476	734.077
192.315	24.339	915.424	730.846
193.329	23.469	913.976	726.064
194.344	23.060	913.007	723.557
195.359	23.687	913.390	726.363
196.373	24.601	913.293	729.960
197.388	24.788	913.302	730.664
198.402	24.787	912.638	730.066
199.417	24.737	912.134	729.392
200.432	24.853	911.748	729.491
201.446	24.545	911.267	727.787
202.461	24.334	910.059	725.899
203.475	24.416	909.526	725.746
204.490	24.148	907.745	723.171
205.504	22.792	906.012	716.229
206.519	23.151	905.966	717.584
207.534	24.161	906.383	721.948
208.548	24.303	905.622	721.853
209.563	24.623	905.863	723.277
210.577	24.652	905.067	722.694
211.592	24.514	903.574	720.879
212.607	24.761	904.309	722.402
213.621	24.971	903.517	722.551
214.636	24.949	902.784	721.813
215.650	24.965	902.353	721.468
216.665	24.895	901.715	720.614
217.680	24.939	901.117	720.249
218.694	25.060	900.491	720.171
219.709	24.593	900.030	717.864
220.723	24.316	898.824	715.726
221.738	24.602	898.245	716.347
222.753	24.838	897.789	716.866
223.767	24.754	897.145	715.952
224.782	24.830	896.474	715.655
225.796	24.963	895.826	715.610
226.811	25.035	895.624	715.670
227.826	24.746	893.839	713.028
228.840	23.856	892.830	708.617
229.855	23.816	892.193	707.888
230.869	24.081	891.830	708.593
231.884	23.628	891.112	706.156
232.899	23.678	890.455	705.773
233.913	24.521	890.621	709.190
234.928	24.837	890.230	710.072
235.942	24.635	889.592	708.699
236.957	24.620	888.815	707.959
237.972	24.400	887.915	706.307
238.986	24.296	887.276	705.324
240.001	24.477	886.499	705.361
241.015	24.426	885.780	704.525
242.030	24.565	884.790	704.223
243.045	24.667	884.780	704.555
244.059	24.622	884.484	704.079
245.074	24.882	883.676	704.396
246.088	24.946	883.326	704.305
247.103	24.546	881.941	701.568
248.117	24.470	881.779	701.082
249.132	25.130	881.782	703.610
250.147	25.402	881.762	704.601
251.161	25.476	881.098	704.299
252.176	25.697	880.931	704.969
253.190	25.604	880.130	703.900
254.205	25.580	879.707	703.407
255.220	25.795	879.063	703.670
256.234	25.897	878.462	703.523
257.249	25.696	877.764	702.119
258.263	25.597	877.148	701.177
259.278	25.628	876.320	700.574
260.293	25.632	876.038	700.301
261.307	25.595	875.795	699.903
262.322	25.598	874.626	698.919
263.336	25.392	874.368	697.848
264.351	24.872	873.133	694.783
265.366	24.002	870.991	689.646
266.380	23.492	869.966	686.803
267.395	24.605	869.638	690.788
268.409	25.113	870.437	693.325
269.424	25.074	869.825	692.628
270.439	25.220	869.349	692.751
271.453	25.457	868.780	693.148
272.468	25.400	868.033	692.272
273.482	25.478	867.721	692.264
274.497	25.740	867.150	692.753
275.512	25.535	866.082	691.051
276.526	24.917	864.803	687.597
277.541	25.284	864.288	688.537
278.555	25.566	864.238	689.516
279.570	25.388	863.704	688.346
280.585	25.321	862.360	686.959
281.599	25.122	862.533	686.275
282.614	25.453	861.593	686.730
283.628	25.012	860.657	684.240
284.643	24.606	860.368	682.399
285.657	24.841	860.434	683.290
286.672	24.863	859.304	682.416
287.687	24.483	858.025	679.891
288.701	24.747	857.973	680.794
289.716	25.096	857.873	681.984
290.730	24.689	856.961	679.652
291.745	24.666	856.181	678.885
292.760	24.501	855.260	677.471
293.774	24.559	854.849	677.305
294.789	25.384	855.208	680.655
295.803	26.000	855.430	683.106
296.818	25.954	854.684	682.279
297.833	26.051	854.260	682.244
298.847	25.713	853.576	680.359
299.862	25.275	852.447	677.749
300.876	25.711	851.746	678.773
301.891	25.925	851.291	679.157
302.906	26.038	850.862	679.179
303.920	25.655	849.910	676.919
304.935	25.451	849.421	675.705
305.949	25.896	849.156	677.104
306.964	26.026	848.564	677.063
307.979	25.655	847.975	675.142
308.993	25.664	847.328	674.598
310.008	25.925	847.522	675.672
311.022	26.175	846.631	675.840
312.037	25.978	846.150	674.659
313.052	25.740	845.539	673.221
314.066	25.681	844.735	672.300
315.081	24.997	843.280	668.532
316.095	24.060	842.160	664.093
317.110	24.683	842.233	666.414
318.125	25.665	842.082	669.894
319.139	25.258	841.515	667.868
320.154	24.107	839.751	662.132
321.168	23.707	838.869	659.892
322.183	24.236	838.961	661.871
323.197	25.166	839.171	665.429
324.212	25.590	838.740	666.601
325.227	25.554	838.704	666.381
326.241	25.745	838.299	666.706
327.256	25.706	837.771	666.083
328.270	25.394	837.409	664.581
329.285	25.432	836.383	663.850
330.300	25.498	835.479	663.317
331.314	25.243	834.864	661.829
332.329	25.067	834.703	660.994
333.343	25.674	833.913	662.545
334.358	25.974	833.680	663.406
335.373	25.926	833.083	662.697
336.387	25.904	832.645	662.209
337.402	25.953	832.728	662.396
338.416	26.303	832.208	663.208
339.431	26.366	831.398	662.735
340.446	26.190	831.193	661.869
341.460	26.502	830.674	662.538
342.475	26.414	830.313	661.869
343.489	26.220	829.547	660.492
344.504	26.262	828.739	659.943
345.519	26.487	827.891	660.029
346.533	26.675	828.119	660.839
347.548	26.785	827.624	660.786
348.562	26.687	827.522	660.290
349.577	26.678	826.551	659.425
350.592	26.660	825.787	658.692
351.606	26.407	825.435	657.432
352.621	26.410	825.224	657.218
353.635	26.428	824.347	656.526
354.650	26.448	823.775	656.083
355.665	26.143	822.811	654.155
356.679	25.071	821.205	648.941
357.694	24.893	820.809	647.924
358.708	25.402	821.227	650.042
359.723	25.740	819.835	650.102
360.738	25.756	819.867	650.129
361.752	26.378	819.489	652.013
362.767	26.233	819.516	651.455
363.781	26.669	819.259	652.764
364.796	27.007	819.218	653.892
365.810	27.004	818.850	653.528
366.825	26.965	818.614	653.144
367.840	26.933	818.108	652.567
368.854	26.792	817.465	651.487
369.869	26.446	816.466	649.395
370.883	26.225	815.783	647.997
371.898	26.287	815.275	647.759
372.913	26.234	814.593	646.971
373.927	26.318	813.666	646.479
374.942	26.365	813.295	646.295
375.956	26.703	812.768	647.027
376.971	26.718	812.427	646.752
377.986	26.806	811.840	646.541
379.000	27.011	811.607	647.029
380.015	26.848	811.347	646.183
381.029	26.803	810.820	645.547
382.044	26.691	810.167	644.572
383.059	26.905	809.487	644.731
384.073	26.945	808.703	644.194
385.088	27.021	808.377	644.147
386.102	27.004	807.905	643.654
387.117	26.896	806.979	642.475
388.132	26.685	806.392	641.203
389.146	26.468	805.552	639.714
390.161	25.955	804.676	637.148
391.175	26.012	804.930	637.496
392.190	26.450	804.854	638.924
393.205	26.591	803.842	638.564
394.219	25.683	802.378	634.148
395.234	24.129	800.056	626.790
396.248	23.129	799.118	622.482
397.263	24.364	800.006	627.466
398.278	26.049	801.482	634.501
399.292	26.554	801.078	635.900
400.307	26.275	800.512	634.416
401.321	26.179	800.131	633.721
402.336	26.255	800.154	633.946
403.350	26.618	799.553	634.687
404.365	26.939	799.742	635.907
405.380	27.505	798.868	637.136
406.394	27.578	799.071	637.498
407.409	27.720	798.760	637.688
408.423	27.706	798.052	637.018
409.438	27.496	797.821	636.044
410.453	27.674	797.205	636.119
411.467	27.684	796.858	635.821
412.482	27.749	796.349	635.584
413.496	27.603	796.018	634.753
414.511	27.642	795.681	634.564
415.526	27.740	795.087	634.377
416.540	27.749	794.792	634.117
417.555	27.653	794.040	633.127
418.569	27.325	793.442	631.456
419.584	27.316	792.830	630.881
420.599	27.483	792.401	631.061
421.613	107.574	1279.184	1441.519
422.628	92.482	1350.104	1441.624
