DTS Sentinel unit serial number:	SN413079Multiplexer serial number:	ORYXHardware model number:	OX4-SRSoftware version number:	ORYX F/W v4.00 Oryx Data Collector v3.7.2.0data status	okinstallation	princeton_trtdifferential loss correction	single-endedforward channel	channel 3reverse channel	N/Adate	2019/09/10time	23:10:10forward acquisition time	60.00reverse acquisition time	0.00gamma	496.2192k internal	0.2331k external	0.2331temperature offset calibration	0.9919default loss term (dB/km)	0.3790temperature slope calibration	1.0000multiplexer offset coefficient	1.0000multiplexer slope coefficient	1.0000fibre end	0.00T internal ref (°C)	29.94T ext. ref 1 (°C)	-0.31T ext. ref 2 (°C)	23.25length (m)	temperature (°C)	Stokes	anti-Stokes-747.200	-143.724	-0.074	0.007
-746.185	-183.887	-0.096	-0.002
-745.171	-25.495	0.175	-0.104
-744.156	-108.643	-0.307	0.066
-743.142	-200.000	0.056	-0.320
-742.127	-44.920	0.158	-0.079
-741.112	-2.319	-0.300	-0.212
-740.098	187.306	0.118	-0.176
-739.083	126.054	0.046	-0.059
-738.069	251.525	-0.038	0.065
-737.054	-70.536	0.142	0.054
-736.039	21.250	-0.227	-0.185
-735.025	130.565	-0.071	-0.092
-734.010	800.000	0.095	-0.291
-732.996	-99.866	-0.154	-0.039
-731.981	-200.000	-0.036	0.413
-730.966	-200.000	0.065	0.325
-729.952	800.000	-0.111	-0.435
-728.937	-80.259	-0.190	-0.064
-727.923	-4.753	-0.208	-0.145
-726.908	800.000	-0.037	-0.107
-725.894	800.000	0.058	0.207
-724.879	147.230	0.155	-0.209
-723.864	-28.720	0.272	-0.158
-722.850	-111.078	-0.032	0.007
-721.835	-68.160	-0.347	-0.136
-720.821	233.987	0.061	0.102
-719.806	-200.000	-0.040	-0.269
-718.791	297.791	0.168	-0.310
-717.777	-200.000	-0.012	0.127
-716.762	-28.740	-0.376	-0.218
-715.748	49.342	0.303	0.286
-714.733	223.933	-0.126	-0.205
-713.718	-101.434	0.305	0.075
-712.704	-161.011	0.159	0.008
-711.689	101.928	-0.274	-0.321
-710.675	20.625	-0.102	0.083
-709.660	-85.794	-0.455	-0.142
-708.645	-82.812	0.344	0.112
-707.631	788.991	0.045	0.125
-706.616	-200.000	-0.036	-0.165
-705.602	-132.487	-0.236	0.031
-704.587	-200.000	0.066	-0.315
-703.572	800.000	0.054	-0.211
-702.558	-52.865	-0.326	-0.151
-701.543	-34.827	0.181	-0.099
-700.529	-150.143	0.256	-0.020
-699.514	344.026	-0.286	-0.564
-698.499	-91.926	0.108	0.031
-697.485	-200.000	0.012	0.095
-696.470	-71.708	-0.385	0.144
-695.456	156.831	0.193	0.267
-694.441	-15.772	0.141	-0.091
-693.426	329.566	0.136	-0.263
-692.412	800.000	-0.085	-0.264
-691.397	37.155	-0.090	-0.080
-690.383	615.245	0.028	-0.072
-689.368	-135.271	0.147	0.018
-688.354	781.957	0.095	-0.262
-687.339	724.864	-0.069	0.184
-686.324	-124.177	0.252	-0.040
-685.310	-32.101	-0.251	0.141
-684.295	800.000	0.026	-0.077
-683.281	-200.000	-0.011	-0.155
-682.266	-50.190	-0.109	-0.052
-681.251	-0.563	-0.097	-0.069
-680.237	-29.435	0.200	0.115
-679.222	233.362	0.080	0.132
-678.208	-170.807	-0.131	-0.005
-677.193	-145.100	-0.271	-0.025
-676.178	-121.576	-0.101	0.017
-675.164	-122.592	0.325	-0.053
-674.149	191.733	0.212	-0.320
-673.135	57.780	0.148	-0.145
-672.120	-2.522	-0.273	-0.192
-671.105	-10.629	0.107	-0.071
-670.091	-104.438	0.150	0.035
-669.076	-120.252	-0.160	-0.027
-668.062	440.246	0.161	-0.353
-667.047	-36.803	0.119	-0.064
-666.032	51.736	0.196	-0.187
-665.018	346.159	-0.175	0.345
-664.003	-60.522	-0.138	-0.059
-662.989	132.234	0.125	-0.161
-661.974	-39.943	-0.234	0.122
-660.959	-120.476	-0.160	0.027
-659.945	-129.347	0.246	-0.034
-658.930	62.255	-0.068	-0.069
-657.916	93.252	0.237	-0.269
-656.901	-26.545	-0.199	0.117
-655.886	-200.000	0.019	0.200
-654.872	114.709	-0.285	-0.348
-653.857	-42.671	-0.107	0.055
-652.843	-83.365	-0.302	0.097
-651.828	32.927	-0.293	0.254
-650.814	711.918	-0.090	-0.239
-649.799	51.397	-0.136	-0.130
-648.784	302.260	0.115	-0.213
-647.770	-62.819	0.153	-0.063
-646.755	-31.256	-0.120	-0.068
-645.741	60.434	0.117	0.116
-644.726	95.750	-0.041	0.047
-643.711	-200.000	-0.028	-0.249
-642.697	800.000	0.087	-0.249
-641.682	-116.268	-0.026	-0.005
-640.668	-87.534	-0.357	-0.108
-639.653	44.161	0.324	-0.298
-638.638	-72.652	0.149	0.055
-637.624	-34.418	-0.269	0.148
-636.609	-81.655	-0.292	0.096
-635.595	800.000	-0.020	0.082
-634.580	153.595	-0.018	-0.025
-633.565	-65.660	0.065	-0.026
-632.551	294.441	-0.072	-0.132
-631.536	21.046	-0.125	-0.102
-630.522	-150.979	0.343	0.026
-629.507	-84.097	-0.153	-0.049
-628.492	-12.218	0.131	0.086
-627.478	-200.000	0.032	-0.354
-626.463	800.000	-0.030	-0.127
-625.449	-94.280	-0.115	0.032
-624.434	-1.717	-0.132	-0.093
-623.419	-200.000	0.036	-0.222
-622.405	437.790	-0.185	0.403
-621.390	55.758	-0.090	0.087
-620.376	-200.000	0.007	0.094
-619.361	-200.000	0.023	0.284
-618.346	-200.000	0.000	0.017
-617.332	-20.179	-0.167	-0.103
-616.317	800.000	-0.077	-0.290
-615.303	-33.389	0.110	0.061
-614.288	20.025	0.041	0.033
-613.273	172.876	0.075	0.108
-612.259	679.567	0.083	0.216
-611.244	-200.000	0.006	0.244
-610.230	115.836	-0.232	0.284
-609.215	181.397	0.077	0.113
-608.201	-54.405	0.077	-0.035
-607.186	-63.516	-0.359	0.148
-606.171	-99.769	0.105	-0.026
-605.157	231.778	-0.045	0.073
-604.142	-137.587	-0.342	0.039
-603.128	102.275	0.278	0.326
-602.113	-200.000	0.024	-0.227
-601.098	1.133	0.345	-0.248
-600.084	23.291	0.277	-0.228
-599.069	-140.231	0.037	-0.004
-598.055	238.227	0.130	0.217
-597.040	289.584	0.116	0.211
-596.025	-19.400	-0.162	0.101
-595.011	215.016	0.111	-0.176
-593.996	56.713	0.116	0.113
-592.982	-200.000	-0.032	-0.274
-591.967	295.320	-0.091	-0.166
-590.952	-55.491	-0.101	0.045
-589.938	507.301	0.119	-0.276
-588.923	-200.000	-0.019	-0.189
-587.909	-36.692	-0.185	-0.100
-586.894	-141.249	0.400	-0.041
-585.879	800.000	0.073	0.217
-584.865	800.000	-0.041	-0.122
-583.850	227.572	-0.141	0.229
-582.836	800.000	0.097	0.369
-581.821	-136.811	0.313	0.036
-580.806	-93.912	0.187	0.051
-579.792	-128.192	0.495	-0.071
-578.777	40.396	0.110	-0.099
-577.763	-25.839	0.056	-0.033
-576.748	-128.845	-0.421	0.059
-575.733	-44.964	0.180	-0.089
-574.719	404.394	-0.150	-0.315
-573.704	-117.053	-0.370	-0.067
-572.690	50.173	-0.190	0.179
-571.675	-133.375	0.146	0.018
-570.661	-115.421	-0.032	-0.006
-569.646	182.859	-0.053	-0.078
-568.631	-200.000	0.070	-0.317
-567.617	-7.043	-0.258	0.175
-566.602	165.143	0.058	0.082
-565.588	-127.920	-0.221	-0.032
-564.573	8.031	0.174	-0.131
-563.558	46.199	0.218	-0.202
-562.544	-110.370	0.369	0.077
-561.529	-35.558	-0.082	-0.044
-560.515	171.795	0.256	0.367
-559.500	22.489	0.137	0.112
-558.485	-41.874	-0.131	-0.067
-557.471	800.000	0.176	0.502
-556.456	-13.839	0.117	-0.075
-555.442	-154.053	-0.367	0.025
-554.427	-87.482	-0.014	0.004
-553.412	137.173	-0.206	-0.269
-552.398	-37.344	-0.298	0.159
-551.383	-24.414	0.354	-0.211
-550.369	90.605	-0.177	0.198
-549.354	-111.957	-0.189	0.038
-548.339	46.463	0.322	0.298
-547.325	-58.101	0.277	0.121
-546.310	-191.476	0.127	0.001
-545.296	-93.980	0.350	0.096
-544.281	800.000	0.057	0.242
-543.266	-167.816	-0.400	-0.016
-542.252	-63.784	-0.231	-0.094
-541.237	-200.000	-0.042	0.287
-540.223	588.135	0.039	-0.095
-539.208	800.000	0.105	0.402
-538.193	800.000	0.051	-0.150
-537.179	132.406	-0.265	0.340
-536.164	62.118	0.108	-0.108
-535.150	-138.897	0.051	-0.005
-534.135	800.000	0.018	-0.059
-533.121	-161.189	0.103	0.005
-532.106	-118.401	-0.310	0.055
-531.091	-200.000	0.434	0.001
-530.077	-200.000	0.001	0.338
-529.062	-153.121	0.095	-0.007
-528.048	800.000	-0.029	-0.111
-527.033	-94.658	0.095	0.026
-526.018	-64.188	-0.115	-0.047
-525.004	39.421	-0.153	-0.137
-523.989	374.345	0.124	0.252
-522.975	38.604	0.351	-0.312
-521.960	800.000	0.088	-0.272
-520.945	-24.813	0.110	0.065
-519.931	-200.000	0.006	0.090
-518.916	162.766	0.036	0.050
-517.902	-200.000	-0.000	0.188
-516.887	800.000	-0.089	0.313
-515.872	464.891	-0.122	-0.272
-514.858	135.355	-0.246	-0.320
-513.843	370.997	-0.144	0.292
-512.829	-167.092	-0.037	-0.001
-511.814	800.000	-0.149	0.425
-510.799	-200.000	0.007	-0.313
-509.785	34.719	0.118	0.103
-508.770	-28.194	-0.204	0.117
-507.756	56.219	0.164	0.159
-506.741	-147.020	-0.099	-0.008
-505.726	34.479	-0.283	-0.246
-504.712	-42.123	0.155	-0.079
-503.697	30.447	0.093	0.079
-502.683	484.711	0.035	0.080
-501.668	182.492	0.238	0.350
-500.653	-200.000	-0.049	-0.300
-499.639	800.000	-0.054	-0.217
-498.624	-88.563	0.120	-0.036
-497.610	79.674	-0.108	-0.116
-496.595	-145.300	-0.163	0.015
-495.581	-66.552	0.189	-0.075
-494.566	38.519	0.204	-0.181
-493.551	-200.000	-0.004	0.244
-492.537	260.524	-0.061	0.105
-491.522	9.980	-0.224	-0.170
-490.508	686.311	-0.079	0.206
-489.493	193.721	-0.166	0.250
-488.478	768.565	-0.109	0.295
-487.464	-157.180	0.082	0.005
-486.449	-200.000	0.116	0.544
-485.435	-200.000	-0.016	0.135
-484.420	-15.881	0.183	0.116
-483.405	-68.276	0.148	-0.057
-482.391	-104.367	-0.157	0.036
-481.376	116.748	0.067	0.082
-480.362	800.000	0.037	0.161
-479.347	-87.725	-0.158	-0.047
-478.332	800.000	0.060	0.186
-477.318	-200.000	0.025	0.162
-476.303	-109.393	-0.112	-0.024
-475.289	-172.635	-0.343	-0.011
-474.274	800.000	0.019	-0.066
-473.259	-144.324	0.281	-0.026
-472.245	-200.000	-0.001	0.190
-471.230	-200.000	-0.032	0.327
-470.216	69.703	0.140	0.144
-469.201	380.399	-0.043	0.087
-468.186	18.614	-0.129	-0.102
-467.172	24.544	0.019	0.016
-466.157	-123.188	-0.072	0.011
-465.143	123.054	0.093	-0.116
-464.128	800.000	0.148	-0.467
-463.113	22.290	-0.311	-0.253
-462.099	147.984	0.213	-0.287
-461.084	-200.000	0.008	-0.114
-460.070	-57.653	0.383	0.167
-459.055	43.682	-0.109	0.099
-458.040	-49.423	0.053	-0.025
-457.026	800.000	-0.031	0.106
-456.011	413.159	-0.059	-0.124
-454.997	422.708	-0.107	0.229
-453.982	191.506	-0.085	-0.127
-452.968	-200.000	0.006	-0.323
-451.953	366.733	-0.077	-0.155
-450.938	111.436	-0.218	-0.261
-449.924	-200.000	-0.009	-0.174
-448.909	39.247	-0.193	0.172
-447.895	-88.231	0.078	-0.023
-446.880	131.680	0.075	0.096
-445.865	18.837	-0.189	0.151
-444.851	586.434	-0.037	0.090
-443.836	559.508	-0.062	-0.148
-442.822	72.135	-0.239	-0.247
-441.807	-200.000	0.056	0.279
-440.792	155.832	-0.161	0.220
-439.778	76.248	0.167	0.176
-438.763	-117.550	-0.095	0.017
-437.749	-95.820	-0.227	0.060
-436.734	-200.000	-0.089	0.472
-435.719	-200.000	0.022	0.274
-434.705	800.000	-0.111	-0.310
-433.690	-200.000	-0.069	-0.365
-432.676	269.691	-0.268	0.468
-431.661	-131.997	-0.270	-0.035
-430.646	172.237	-0.099	-0.142
-429.632	28.163	0.128	0.108
-428.617	193.257	-0.043	-0.065
-427.603	380.994	0.050	-0.102
-426.588	-128.364	-0.202	-0.029
-425.573	800.000	-0.058	0.203
-424.559	-15.801	0.061	-0.038
-423.544	-65.576	0.345	-0.138
-422.530	800.000	-0.048	-0.163
-421.515	-200.000	-0.055	-0.343
-420.500	-13.904	0.129	-0.083
-419.486	97.953	0.193	-0.221
-418.471	-67.124	-0.210	0.082
-417.457	-186.420	0.125	-0.002
-416.442	-27.398	-0.185	0.107
-415.428	-19.943	0.278	0.170
-414.413	800.000	0.060	-0.258
-413.398	-200.000	-0.021	-0.388
-412.384	-141.005	0.165	0.017
-411.369	101.271	-0.105	-0.121
-410.355	-81.362	-0.104	0.034
-409.340	-115.136	0.245	0.046
-408.325	1.484	-0.083	0.059
-407.311	-200.000	0.054	-0.341
-406.296	171.325	0.125	-0.177
-405.282	-33.475	0.045	-0.025
-404.267	-84.972	-0.139	0.043
-403.252	172.375	0.174	0.249
-402.238	-61.633	-0.339	0.141
-401.223	-28.571	0.212	-0.121
-400.209	-102.450	-0.409	-0.097
-399.194	18.715	-0.108	0.086
-398.179	-82.248	0.288	-0.093
-397.165	-200.000	0.006	-0.063
-396.150	526.737	-0.047	0.110
-395.136	21.370	-0.109	-0.088
-394.121	-188.434	0.076	-0.001
-393.106	-88.273	-0.179	-0.053
-392.092	604.340	0.159	0.392
-391.077	-200.000	0.066	-0.485
-390.063	-200.000	0.033	-0.149
-389.048	243.135	0.079	-0.131
-388.033	800.000	-0.032	0.140
-387.019	-98.977	-0.412	-0.104
-386.004	-151.716	0.287	0.021
-384.990	471.167	-0.101	-0.225
-383.975	63.490	-0.133	-0.132
-382.960	61.359	0.123	0.121
-381.946	157.443	0.155	0.213
-380.931	800.000	-0.082	0.241
-379.917	-200.000	0.012	-0.241
-378.902	5.258	0.186	-0.136
-377.888	-189.345	0.237	0.003
-376.873	-139.248	0.215	0.023
-375.858	-200.000	0.069	-0.388
-374.844	-102.114	-0.546	-0.130
-373.829	-180.988	-0.204	-0.004
-372.815	800.000	0.017	0.058
-371.800	779.363	-0.035	-0.096
-370.785	-45.926	-0.241	0.118
-369.771	-200.000	-0.033	0.431
-368.756	-35.068	0.081	0.044
-367.742	58.581	0.248	-0.241
-366.727	7.873	0.135	-0.101
-365.712	-200.000	-0.017	0.100
-364.698	-200.000	0.030	0.327
-363.683	328.882	-0.219	0.417
-362.669	-200.000	-0.037	-0.298
-361.654	-170.753	-0.241	-0.008
-360.639	-200.000	0.078	0.349
-359.625	41.953	-0.221	-0.199
-358.610	-52.180	-0.372	0.171
-357.596	-49.433	0.415	0.196
-356.581	-73.273	-0.211	0.076
-355.566	-200.000	0.049	-0.293
-354.552	-9.574	-0.123	0.081
-353.537	-18.782	-0.178	0.110
-352.523	-79.708	-0.210	-0.070
-351.508	243.124	-0.073	0.121
-350.493	-160.965	0.305	0.016
-349.479	-200.000	-0.016	0.095
-348.464	457.757	0.129	-0.284
-347.450	-1.757	-0.344	-0.240
-346.435	800.000	0.005	-0.018
-345.420	800.000	-0.066	-0.280
-344.406	60.912	-0.117	-0.115
-343.391	94.353	-0.203	-0.228
-342.377	-86.872	-0.217	-0.066
-341.362	16.329	-0.350	-0.274
-340.348	-72.538	0.173	0.063
-339.333	40.903	0.080	-0.072
-338.318	80.908	-0.161	-0.172
-337.304	321.828	0.180	-0.339
-336.289	-200.000	0.079	-0.385
-335.275	-200.000	0.005	-0.205
-334.260	-58.225	-0.126	0.054
-333.245	-23.101	0.213	0.127
-332.231	-200.000	0.030	-0.179
-331.216	163.613	0.141	-0.197
-330.202	-186.512	-0.337	-0.005
-329.187	47.966	-0.110	0.102
-328.172	-200.000	-0.019	0.087
-327.158	-135.257	0.202	-0.024
-326.143	-36.724	0.134	0.071
-325.129	-161.225	0.221	0.011
-324.114	-73.254	-0.086	0.031
-323.099	4.013	-0.112	0.081
-322.085	-200.000	0.014	-0.324
-321.070	436.099	0.096	0.208
-320.056	-61.028	-0.310	0.130
-319.041	-54.646	0.199	-0.089
-318.026	567.863	-0.038	-0.091
-317.012	486.134	-0.172	0.387
-315.997	-137.907	-0.335	0.037
-314.983	14.212	-0.141	-0.109
-313.968	1.426	0.078	0.056
-312.953	159.188	-0.154	0.212
-311.939	141.229	-0.064	0.084
-310.924	-200.000	-0.021	-0.163
-309.910	-91.039	0.197	0.056
-308.895	-200.000	-0.032	0.251
-307.880	252.535	0.041	-0.068
-306.866	80.296	0.119	0.127
-305.851	-200.000	0.004	0.282
-304.837	220.857	-0.083	0.132
-303.822	524.597	0.152	-0.354
-302.807	-74.186	0.104	-0.037
-301.793	18.825	-0.102	-0.081
-300.778	396.347	-0.182	-0.375
-299.764	104.097	-0.197	0.229
-298.749	-24.792	0.230	-0.135
-297.735	-200.000	-0.011	0.128
-296.720	-98.605	0.230	-0.058
-295.705	52.545	-0.058	0.054
-294.691	45.147	0.089	-0.081
-293.676	64.820	-0.116	0.116
-292.662	-17.046	-0.032	-0.020
-291.647	-134.672	-0.212	-0.026
-290.632	70.086	-0.102	-0.104
-289.618	-65.246	0.277	0.110
-288.603	-113.172	-0.183	0.036
-287.589	652.478	-0.041	0.104
-286.574	-125.652	0.269	-0.040
-285.559	-62.854	0.067	-0.027
-284.545	30.205	0.109	0.092
-283.530	-195.387	0.062	-0.000
-282.516	95.739	-0.048	0.054
-281.501	-200.000	0.011	0.264
-280.486	-200.000	-0.086	-0.418
-279.472	-76.803	-0.305	0.105
-278.457	190.889	0.209	-0.310
-277.443	-200.000	-0.037	0.166
-276.428	460.315	0.062	0.137
-275.413	-27.804	0.059	-0.034
-274.399	100.032	-0.114	-0.131
-273.384	-200.000	0.018	-0.265
-272.370	-148.217	0.250	0.020
-271.355	-113.969	0.045	0.009
-270.340	-83.302	0.172	-0.054
-269.326	-200.000	-0.033	-0.291
-268.311	-78.010	0.432	0.147
-267.297	451.259	0.072	-0.157
-266.282	70.412	-0.213	-0.218
-265.267	-143.995	-0.168	0.016
-264.253	-61.523	-0.136	-0.057
-263.238	512.754	0.111	0.255
-262.224	800.000	-0.026	0.088
-261.209	27.346	-0.126	-0.105
-260.195	150.978	-0.311	-0.417
-259.180	-4.578	0.060	-0.041
-258.165	15.332	0.135	0.104
-257.151	723.631	0.092	0.242
-256.136	-151.929	0.025	-0.002
-255.122	-200.000	0.025	-0.248
-254.107	-200.000	-0.036	-0.309
-253.092	800.000	0.038	0.127
-252.078	-200.000	-0.001	0.122
-251.063	-200.000	-0.002	-0.066
-250.049	12.931	-0.096	0.073
-249.034	-116.669	0.231	0.042
-248.019	-51.963	-0.159	0.073
-247.005	-200.000	0.014	-0.289
-245.990	-200.000	0.028	0.314
-244.976	146.227	-0.151	-0.200
-243.961	-2.226	0.128	-0.089
-242.946	-64.321	0.345	-0.139
-241.932	594.812	0.137	-0.335
-240.917	387.615	-0.106	-0.217
-239.903	-200.000	-0.050	-0.217
-238.888	194.447	-0.068	-0.102
-237.873	-167.233	0.222	0.009
-236.859	757.106	0.119	0.319
-235.844	765.396	0.152	0.407
-234.830	-200.000	0.056	0.258
-233.815	7.947	0.303	0.224
-232.800	47.145	-0.220	-0.202
-231.786	-178.055	-0.357	-0.008
-230.771	208.192	-0.104	-0.161
-229.757	-100.274	0.140	0.034
-228.742	-200.000	-0.022	0.426
-227.727	-114.857	-0.317	-0.060
-226.713	-200.000	0.000	-0.181
-225.698	-179.918	0.361	-0.008
-224.684	-16.157	0.091	0.057
-223.669	10.152	0.224	-0.168
-222.655	140.851	-0.308	0.401
-221.640	-200.000	-0.001	0.320
-220.625	-76.595	0.300	-0.104
-219.611	800.000	0.080	-0.226
-218.596	-200.000	0.054	0.374
-217.582	-102.539	-0.243	0.057
-216.567	145.071	-0.093	0.122
-215.552	121.451	-0.141	0.173
-214.538	519.017	-0.042	-0.097
-213.523	-109.093	0.137	-0.029
-212.509	800.000	-0.029	0.105
-211.494	95.674	-0.101	-0.114
-210.479	-22.117	-0.285	-0.171
-209.465	-200.000	0.006	0.141
-208.450	-200.000	-0.028	0.487
-207.436	343.193	-0.149	0.287
-206.421	-200.000	-0.048	-0.294
-205.406	264.485	0.109	-0.188
-204.392	586.966	-0.082	-0.198
-203.377	-75.472	-0.252	-0.088
-202.363	287.472	-0.107	-0.191
-201.348	48.707	0.292	-0.270
-200.333	-200.000	-0.032	0.163
-199.319	342.307	0.261	0.502
-198.304	-148.531	0.282	-0.023
-197.290	289.416	0.099	-0.176
-196.275	83.510	0.044	0.047
-195.260	43.222	0.337	-0.303
-194.246	-87.584	0.166	-0.050
-193.231	-124.212	0.123	-0.019
-192.217	-128.468	0.041	-0.006
-191.202	-126.796	0.414	-0.060
-190.187	-183.840	-0.133	0.002
-189.173	-40.758	-0.173	-0.088
-188.158	68.374	0.141	0.142
-187.144	84.678	0.110	-0.118
-186.129	-181.165	-0.227	0.004
-185.114	-150.154	-0.318	0.024
-184.100	8.097	0.033	-0.024
-183.085	619.373	-0.051	-0.126
-182.071	-87.773	0.052	0.015
-181.056	266.431	0.077	-0.132
-180.042	-200.000	-0.046	-0.495
-179.027	-12.629	0.131	0.084
-178.012	-200.000	-0.013	0.350
-176.998	65.987	-0.263	-0.262
-175.983	89.640	0.262	-0.288
-174.969	-23.174	-0.074	-0.044
-173.954	577.726	-0.095	0.230
-172.939	-200.000	-0.052	-0.259
-171.925	1.073	0.242	-0.171
-170.910	14.396	0.234	0.180
-169.896	-200.000	-0.007	0.111
-168.881	-7.944	0.261	0.173
-167.866	97.825	-0.108	-0.122
-166.852	26.570	0.149	0.122
-165.837	-79.595	-0.202	-0.067
-164.823	-200.000	-0.073	-0.709
-163.808	-127.125	0.106	0.015
-162.793	-200.000	0.006	0.144
-161.779	-141.170	0.247	-0.025
-160.764	800.000	-0.122	0.461
-159.750	3.242	0.234	-0.168
-158.735	505.541	0.158	0.359
-157.720	223.895	0.158	0.250
-156.706	-110.196	-0.103	-0.021
-155.691	-200.000	-0.009	0.475
-154.677	174.946	0.131	0.186
-153.662	-200.000	-0.052	0.391
-152.647	-59.340	-0.141	0.060
-151.633	56.036	0.018	0.017
-150.618	-25.410	0.231	0.134
-149.604	-47.249	-0.189	0.091
-148.589	-56.988	0.192	0.083
-147.574	-127.987	-0.358	0.051
-146.560	-200.000	-0.002	0.162
-145.545	-91.330	0.284	-0.080
-144.531	358.682	-0.140	-0.276
-143.516	74.440	-0.127	-0.131
-142.502	152.920	-0.115	0.155
-141.487	-133.708	-0.307	0.038
-140.472	-200.000	-0.026	0.429
-139.458	-3.283	0.134	0.092
-138.443	-200.000	-0.005	0.074
-137.429	140.125	-0.076	0.099
-136.414	135.984	-0.146	-0.186
-135.399	98.163	-0.060	0.068
-134.385	-121.040	0.299	-0.049
-133.370	117.893	-0.166	-0.201
-132.356	258.398	0.179	0.303
-131.341	-30.607	0.086	0.048
-130.326	-133.619	-0.247	0.030
-129.312	-200.000	0.064	0.404
-128.297	-60.547	0.207	-0.087
-127.283	-93.698	-0.299	-0.081
-126.268	-200.000	0.029	-0.170
-125.253	-154.242	-0.235	-0.016
-124.239	-126.915	-0.139	-0.020
-123.224	800.000	-0.027	-0.111
-122.210	-200.000	-0.078	-0.461
-121.195	-200.000	-0.021	0.192
-120.180	-76.880	0.106	-0.036
-119.166	66.673	0.215	0.215
-118.151	57.883	-0.068	-0.066
-117.137	-174.886	0.172	0.005
-116.122	-66.268	-0.141	0.055
-115.107	70.203	-0.131	0.133
-114.093	-93.673	0.162	0.044
-113.078	-135.880	0.296	0.034
-112.064	800.000	0.082	-0.307
-111.049	133.613	-0.267	-0.339
-110.034	-136.868	0.431	0.049
-109.020	415.765	0.034	-0.071
-108.005	69.484	-0.112	-0.114
-106.991	800.000	0.048	-0.201
-105.976	108.465	0.104	0.122
-104.962	-66.916	0.162	0.063
-103.947	-107.839	-0.124	-0.027
-102.932	-57.210	0.201	0.087
-101.918	233.927	0.107	0.173
-100.903	-125.927	-0.090	0.013
-99.889	-121.892	0.473	-0.076
-98.874	-17.841	-0.084	-0.052
-97.859	-200.000	0.022	-0.514
-96.845	-104.556	0.213	-0.048
-95.830	-95.302	0.278	-0.073
-94.816	-200.000	0.097	0.445
-93.801	222.194	-0.110	-0.174
-92.786	-51.947	0.424	-0.194
-91.772	800.000	0.056	-0.155
-90.757	-44.306	0.239	-0.117
-89.743	1.376	-0.072	0.051
-88.728	169.964	-0.096	-0.134
-87.713	363.852	0.083	0.164
-86.699	800.000	-0.032	0.120
-85.684	-200.000	-0.005	-0.414
-84.670	800.000	-0.087	0.328
-83.655	-3.688	-0.246	0.168
-82.640	800.000	-0.142	-0.397
-81.626	800.000	-0.033	-0.110
-80.611	800.000	-0.140	-0.384
-79.597	-142.327	0.169	-0.016
-78.582	-131.476	0.161	-0.021
-77.567	-200.000	0.018	-0.121
-76.553	14.084	0.197	-0.150
-75.538	-200.000	0.026	-0.159
-74.524	800.000	-0.145	0.468
-73.509	-31.505	-0.214	0.118
-72.494	-66.610	-0.142	0.055
-71.480	800.000	-0.066	-0.233
-70.465	-85.095	-0.265	0.081
-69.451	328.225	-0.046	0.087
-68.436	32.722	0.111	-0.094
-67.422	14.554	0.171	0.131
-66.407	-58.016	0.375	-0.160
-65.392	444.869	0.063	-0.135
-64.378	241.334	-0.134	0.219
-63.363	218.536	0.169	0.265
-62.349	-78.157	-0.139	0.047
-61.334	155.694	-1.072	-1.447
-60.319	119.866	0.583	0.708
-59.305	800.000	-0.242	-0.893
-58.290	376.036	0.657	1.313
-57.276	238.449	0.829	1.350
-56.261	-200.000	104.927	616.503
-55.246	517.396	1492.541	3419.635
-54.232	179.229	2682.741	3844.463
-53.217	112.249	2173.906	2574.477
-52.203	40.615	1695.421	1496.395
-51.188	33.006	1504.945	1277.029
-50.173	30.731	1478.759	1239.630
-49.159	51.677	1533.756	1428.443
-48.144	52.276	1550.913	1448.435
-47.130	33.309	1506.778	1280.433
-46.115	30.194	1491.522	1246.522
-45.100	30.000	1488.438	1242.589
-44.086	29.989	1486.139	1240.552
-43.071	29.870	1484.514	1238.350
-42.057	29.866	1482.767	1236.817
-41.042	29.857	1481.519	1235.661
-40.027	29.944	1479.901	1234.847
-39.013	29.866	1478.349	1232.981
-37.998	29.830	1477.173	1231.709
-36.984	29.959	1475.695	1231.290
-35.969	29.903	1474.318	1229.716
-34.954	29.822	1473.491	1228.442
-33.940	29.850	1471.714	1227.098
-32.925	29.914	1470.018	1226.061
-31.911	29.891	1469.116	1225.104
-30.896	30.026	1467.627	1224.706
-29.881	30.037	1466.223	1223.563
-28.867	30.039	1465.072	1222.564
-27.852	29.962	1464.216	1221.294
-26.838	29.954	1462.386	1219.665
-25.823	30.089	1460.212	1218.691
-24.809	30.087	1458.889	1217.530
-23.794	30.052	1457.664	1216.227
-22.779	29.992	1456.853	1215.109
-21.765	30.021	1455.325	1213.977
-20.750	29.980	1454.652	1213.095
-19.736	29.965	1453.714	1212.167
-18.721	29.876	1452.464	1210.499
-17.706	29.890	1451.226	1209.510
-16.692	29.947	1450.248	1209.017
-15.677	29.988	1448.785	1208.020
-14.663	30.112	1447.928	1208.062
-13.648	29.971	1446.905	1206.241
-12.633	29.916	1446.249	1205.289
-11.619	29.901	1445.702	1204.692
-10.604	29.869	1444.812	1203.690
-9.590	29.830	1444.309	1202.971
-8.575	29.848	1443.373	1202.258
-7.560	29.881	1442.099	1201.365
-6.546	29.965	1441.103	1201.036
-5.531	29.872	1440.492	1199.876
-4.517	29.825	1440.005	1199.114
-3.502	29.939	1438.260	1198.353
-2.487	29.818	1437.475	1196.870
-1.473	29.790	1436.299	1195.664
-0.458	29.927	1434.909	1195.343
0.556	27.643	1425.778	1184.359
1.571	24.441	1400.931	1143.144
2.586	21.023	1340.275	1072.570
3.600	19.413	1259.522	998.546
4.615	18.254	1215.049	956.726
5.629	15.732	1160.120	899.918
6.644	7.514	1077.457	794.724
7.659	0.919	1037.708	733.460
8.673	-0.172	1032.365	724.358
9.688	-0.254	1028.865	721.448
10.702	-0.367	1027.618	719.967
11.717	-0.427	1025.917	718.423
12.731	2.498	1028.495	734.205
13.746	11.285	1040.547	785.220
14.761	18.035	1049.691	824.736
15.775	19.500	1051.229	832.946
16.790	19.871	1050.068	833.739
17.804	19.595	1049.724	832.067
18.819	19.421	1048.781	830.408
19.834	19.454	1048.127	829.971
20.848	19.606	1047.960	830.496
21.863	19.745	1047.174	830.471
22.877	19.641	1047.093	829.831
23.892	19.495	1046.543	828.621
24.907	19.392	1045.615	827.322
25.921	19.586	1044.385	827.203
26.936	19.548	1044.050	826.683
27.950	19.607	1042.754	825.866
28.965	19.465	1041.645	824.235
29.980	19.409	1039.932	822.538
30.994	19.401	1038.476	821.279
32.009	19.633	1037.527	821.560
33.023	19.700	1036.754	821.192
34.038	19.363	1035.817	818.776
35.053	19.407	1034.592	817.944
36.067	19.556	1034.186	818.257
37.082	19.599	1033.676	817.985
38.096	19.652	1032.856	817.513
39.111	19.806	1032.029	817.518
40.126	19.849	1031.306	817.073
41.140	19.855	1029.625	815.698
42.155	19.531	1028.365	813.103
43.169	19.186	1026.788	810.159
44.184	19.278	1025.888	809.809
45.199	19.374	1024.598	809.171
46.213	19.210	1024.025	807.878
47.228	19.177	1023.001	806.844
48.242	19.393	1021.454	806.563
49.257	19.291	1021.275	805.873
50.271	19.565	1019.692	805.832
51.286	19.642	1019.583	806.034
52.301	19.604	1018.748	805.125
53.315	19.630	1017.792	804.422
54.330	19.644	1017.242	803.978
55.344	19.620	1016.026	802.837
56.359	19.543	1015.651	802.109
57.374	19.599	1014.624	801.490
58.388	19.450	1013.773	800.055
59.403	19.426	1012.847	799.139
60.417	19.447	1011.898	798.418
61.432	19.251	1011.491	797.122
62.447	19.276	1010.478	796.369
63.461	19.386	1010.278	796.648
64.476	19.420	1009.271	795.940
65.490	19.557	1007.865	795.392
66.505	19.500	1007.079	794.441
67.520	19.490	1006.095	793.547
68.534	19.447	1005.343	792.687
69.549	19.395	1004.691	791.861
70.563	19.121	1002.860	789.092
71.578	18.990	1002.547	788.176
72.593	19.084	1001.592	787.785
73.607	18.903	1000.602	786.111
74.622	18.942	999.496	785.352
75.636	19.266	998.752	786.176
76.651	19.352	998.071	785.962
77.666	19.311	996.677	784.606
78.680	19.073	996.517	783.327
79.695	19.136	995.662	782.876
80.709	19.313	994.619	782.787
81.724	19.375	993.988	782.506
82.739	19.291	993.079	781.340
83.753	19.309	992.426	780.837
84.768	19.466	991.918	781.078
85.782	19.832	990.822	781.804
86.797	19.920	990.054	781.524
87.812	19.817	989.498	780.549
88.826	19.624	988.614	778.915
89.841	19.693	987.587	778.345
90.855	19.868	986.863	778.494
91.870	19.705	986.617	777.498
92.884	19.778	985.048	776.522
93.899	19.781	984.287	775.864
94.914	19.656	983.722	774.791
95.928	19.849	982.294	774.464
96.943	19.734	981.847	773.525
97.957	19.520	981.041	771.868
98.972	19.359	979.498	769.864
99.987	19.175	978.278	768.020
101.001	19.197	977.649	767.555
102.016	19.430	977.465	768.380
103.030	19.591	976.107	767.961
104.045	19.480	974.827	766.392
105.060	19.292	973.645	764.564
106.074	19.185	972.090	762.800
107.089	19.362	971.732	763.234
108.103	19.650	972.282	764.874
109.118	19.708	971.106	764.136
110.133	19.433	969.975	761.968
111.147	19.445	968.502	760.794
112.162	19.409	967.903	760.098
113.176	19.158	966.755	758.022
114.191	19.342	965.624	757.881
115.206	19.393	964.798	757.388
116.220	19.023	963.769	754.888
117.235	18.894	962.775	753.478
118.249	19.229	961.923	754.212
119.264	19.213	960.678	753.098
120.279	19.083	960.268	752.143
121.293	19.161	959.153	751.542
122.308	19.208	958.507	751.178
123.322	19.222	958.159	750.899
124.337	19.329	956.266	749.812
125.352	19.158	955.168	748.146
126.366	18.707	953.494	744.812
127.381	18.513	952.002	742.740
128.395	19.096	951.555	744.848
129.410	19.588	951.080	746.538
130.424	19.726	950.471	746.589
131.439	19.596	949.424	745.140
132.454	19.515	948.053	743.651
133.468	19.593	947.813	743.731
134.483	19.445	946.999	742.391
135.497	19.488	946.440	742.072
136.512	19.728	945.529	742.323
137.527	19.743	944.701	741.670
138.541	19.784	943.787	741.063
139.556	19.856	942.709	740.458
140.570	19.800	942.404	739.914
141.585	19.785	941.150	738.799
142.600	19.777	940.476	738.171
143.614	19.616	939.985	737.035
144.629	19.927	938.874	737.424
145.643	20.000	938.546	737.409
146.658	20.069	937.338	736.690
147.673	19.884	935.791	734.625
148.687	19.616	935.141	732.913
149.702	19.675	933.887	732.113
150.716	19.570	932.915	730.842
151.731	19.683	932.121	730.632
152.746	19.702	931.021	729.788
153.760	19.892	930.942	730.461
154.775	19.914	930.213	729.918
155.789	20.049	929.371	729.761
156.804	20.075	928.069	728.783
157.819	19.916	926.962	727.181
158.833	19.821	926.585	726.424
159.848	20.000	925.940	726.605
160.862	20.193	924.350	726.100
161.877	19.933	923.848	724.555
162.892	19.848	923.495	723.857
163.906	19.991	922.810	723.856
164.921	20.105	921.358	723.127
165.935	19.969	920.671	721.955
166.950	19.936	919.356	720.726
167.964	19.978	918.388	720.078
168.979	19.952	917.647	719.324
169.994	19.861	916.597	718.060
171.008	19.835	915.417	716.965
172.023	19.904	914.597	716.544
173.037	20.038	913.851	716.449
174.052	19.825	912.637	714.555
175.067	19.661	911.551	712.967
176.081	19.627	910.782	712.159
177.096	19.819	910.152	712.396
178.110	19.715	909.046	711.039
179.125	19.721	908.086	710.252
180.140	19.389	906.737	707.769
181.154	19.475	906.215	707.652
182.169	19.553	905.545	707.385
183.183	19.722	905.555	708.025
184.198	20.018	904.945	708.696
185.213	19.889	904.337	707.629
186.227	19.928	903.437	707.022
187.242	19.892	903.209	706.632
188.256	19.950	902.675	706.390
189.271	20.067	901.403	705.810
190.286	20.010	900.895	705.116
191.300	19.873	899.972	703.773
192.315	19.501	898.353	700.935
193.329	18.866	897.363	697.526
194.344	18.421	895.844	694.480
195.359	18.981	896.249	697.003
196.373	19.835	896.793	700.823
197.388	20.008	896.244	701.034
198.402	19.899	895.686	700.094
199.417	19.854	894.795	699.155
200.432	19.787	894.106	698.285
201.446	19.605	893.762	697.218
202.461	19.438	892.289	695.333
203.475	19.420	892.236	695.161
204.490	18.973	890.837	692.208
205.504	17.858	889.169	686.372
206.519	18.379	888.952	688.235
207.534	19.363	889.250	692.358
208.548	19.597	888.441	692.607
209.563	19.793	888.307	693.224
210.577	19.828	887.782	692.897
211.592	19.568	886.922	691.122
212.607	19.888	886.831	692.272
213.621	19.886	886.597	692.020
214.636	19.984	885.261	691.307
215.650	19.990	884.972	691.043
216.665	20.073	884.072	690.610
217.680	19.980	883.814	689.976
218.694	20.009	883.276	689.611
219.709	19.668	882.175	687.336
220.723	19.521	881.211	685.938
221.738	19.684	880.671	686.106
222.753	19.817	880.337	686.309
223.767	19.875	879.257	685.640
224.782	19.962	878.358	685.220
225.796	20.033	877.966	685.136
226.811	20.206	877.614	685.483
227.826	19.780	876.395	682.791
228.840	19.045	875.031	678.766
229.855	19.033	874.363	678.143
230.869	19.249	874.029	678.676
231.884	18.912	872.958	676.456
232.899	18.991	872.470	676.329
233.913	19.815	872.344	679.409
234.928	19.808	872.156	679.176
235.942	19.741	871.554	678.385
236.957	19.878	870.718	678.210
237.972	19.601	869.399	676.040
238.986	19.430	869.174	675.133
240.001	19.580	868.622	675.235
241.015	19.580	867.973	674.669
242.030	19.680	867.387	674.543
243.045	19.883	866.574	674.642
244.059	19.917	866.031	674.293
245.074	19.997	865.747	674.325
246.088	19.937	864.711	673.223
247.103	19.663	863.758	671.358
248.117	19.593	862.894	670.358
249.132	20.110	863.282	672.606
250.147	20.427	862.826	673.418
251.161	20.517	861.815	672.920
252.176	20.692	861.159	673.024
253.190	20.652	860.740	672.484
254.205	20.692	860.189	672.147
255.220	20.806	859.863	672.275
256.234	20.811	858.939	671.512
257.249	20.756	858.414	670.830
258.263	20.591	857.883	669.720
259.278	20.602	856.930	668.956
260.293	20.718	856.503	669.012
261.307	20.718	856.225	668.736
262.322	20.546	855.671	667.584
263.336	20.381	854.410	665.908
264.351	20.028	853.032	663.422
265.366	18.903	851.139	657.590
266.380	18.487	850.409	655.378
267.395	19.549	850.778	659.664
268.409	20.245	850.337	661.920
269.424	20.234	849.918	661.492
270.439	20.398	849.344	661.612
271.453	20.452	849.107	661.576
272.468	20.406	848.648	660.983
273.482	20.668	847.917	661.353
274.497	20.682	847.405	660.947
275.512	20.537	845.943	659.198
276.526	20.050	844.856	656.448
277.541	20.093	844.894	656.585
278.555	20.774	844.165	658.535
279.570	20.301	843.418	656.106
280.585	20.046	842.079	654.045
281.599	20.301	841.724	654.673
282.614	20.386	841.631	654.865
283.628	19.972	840.559	652.412
284.643	19.716	839.576	650.629
285.657	20.085	839.469	651.877
286.672	19.919	838.763	650.648
287.687	19.527	837.805	648.375
288.701	19.905	837.852	649.771
289.716	20.157	837.449	650.347
290.730	19.806	836.515	648.250
291.745	19.902	835.849	648.035
292.760	19.738	834.678	646.456
293.774	19.599	834.139	645.462
294.789	20.459	834.844	649.168
295.803	20.915	834.683	650.687
296.818	21.068	834.029	650.690
297.833	21.103	833.509	650.356
298.847	20.922	832.515	648.851
299.862	20.492	832.060	646.836
300.876	20.863	831.043	647.368
301.891	21.025	830.606	647.573
302.906	21.009	830.121	647.079
303.920	20.565	828.714	644.278
304.935	20.534	828.053	643.593
305.949	21.020	827.748	645.098
306.964	20.858	827.977	644.618
307.979	20.774	826.969	643.466
308.993	20.812	826.562	643.235
310.008	21.118	826.489	644.249
311.022	21.355	825.456	644.262
312.037	21.061	824.838	642.641
313.052	20.770	824.353	641.133
314.066	20.633	823.925	640.239
315.081	20.106	822.462	637.108
316.095	19.281	821.549	633.316
317.110	19.904	821.683	635.651
318.125	20.794	821.561	638.766
319.139	20.416	820.534	636.528
320.154	19.434	819.044	631.722
321.168	19.015	818.117	629.418
322.183	19.601	818.081	631.478
323.197	20.361	818.461	634.492
324.212	20.629	817.876	634.962
325.227	20.870	817.859	635.770
326.241	20.974	817.298	635.658
327.256	20.773	816.906	634.565
328.270	20.692	816.273	633.723
329.285	20.695	815.636	633.181
330.300	20.580	814.426	631.770
331.314	20.362	813.764	630.407
332.329	20.289	813.638	629.990
333.343	20.809	812.566	630.990
334.358	21.018	812.554	631.680
335.373	21.020	811.836	631.076
336.387	20.870	811.695	630.365
337.402	21.161	811.550	631.252
338.416	21.371	810.819	631.384
339.431	21.374	809.856	630.587
340.446	21.321	809.307	629.916
341.460	21.408	809.019	629.948
342.475	21.518	808.143	629.605
343.489	21.164	807.559	627.822
344.504	21.116	807.074	627.218
345.519	21.436	806.726	628.040
346.533	21.612	806.469	628.419
347.548	21.705	806.070	628.385
348.562	21.807	805.493	628.243
349.577	21.807	804.847	627.685
350.592	21.776	804.877	627.544
351.606	21.754	803.785	626.557
352.621	21.828	803.109	626.237
353.635	21.559	802.789	624.974
354.650	21.463	802.513	624.360
355.665	21.301	801.311	622.793
356.679	20.285	799.796	617.942
357.694	20.106	799.561	617.069
358.708	20.686	799.281	618.863
359.723	20.701	798.728	618.435
360.738	20.941	798.643	619.165
361.752	21.255	798.417	620.052
362.767	21.329	798.208	620.094
363.781	21.638	797.377	620.491
364.796	21.869	797.658	621.472
365.810	22.100	796.811	621.573
366.825	22.048	796.930	621.429
367.840	21.901	796.837	620.781
368.854	21.673	796.147	619.381
369.869	21.468	794.597	617.400
370.883	21.214	794.567	616.424
371.898	21.376	794.081	616.564
372.913	21.373	793.030	615.681
373.927	21.190	792.794	614.802
374.942	21.493	791.899	615.118
375.956	21.593	791.557	615.149
376.971	21.655	790.603	614.572
377.986	21.701	790.549	614.637
379.000	21.984	789.811	614.998
380.015	21.931	789.694	614.670
381.029	21.777	788.797	613.376
382.044	21.718	788.231	612.677
383.059	22.049	787.840	613.474
384.073	21.872	787.770	612.748
385.088	21.870	787.143	612.198
386.102	21.901	786.657	611.873
387.117	21.700	786.016	610.620
388.132	21.548	785.767	609.843
389.146	21.576	784.885	609.202
390.161	21.144	783.432	606.519
391.175	21.187	783.346	606.550
392.190	21.506	783.501	607.723
393.205	21.752	782.985	608.123
394.219	20.899	781.154	603.695
395.234	19.317	779.316	596.749
396.248	18.593	778.104	593.263
397.263	19.720	778.992	597.788
398.278	21.474	780.200	604.731
399.292	21.775	780.353	605.838
400.307	21.489	779.652	604.253
401.321	21.392	778.939	603.312
402.336	21.394	778.799	603.155
403.350	21.652	778.469	603.736
404.365	22.128	778.343	605.226
405.380	22.421	778.158	606.035
406.394	22.523	778.134	606.315
407.409	22.742	777.740	606.709
408.423	22.546	777.162	605.531
409.438	22.534	776.208	604.692
410.453	22.684	775.996	604.986
411.467	22.663	775.945	604.823
412.482	22.769	774.937	604.345
413.496	22.687	774.258	603.483
414.511	22.640	774.395	603.376
415.526	22.550	773.775	602.532
416.540	22.714	773.649	602.940
417.555	22.359	773.239	601.354
418.569	22.206	772.201	599.971
419.584	22.251	771.827	599.781
420.599	22.361	771.159	599.586
421.613	158.636	1361.425	1798.136
422.628	136.836	1447.403	1798.214
