DTS Sentinel unit serial number:	SN413079Multiplexer serial number:	ORYXHardware model number:	OX4-SRSoftware version number:	ORYX F/W v4.00 Oryx Data Collector v3.7.2.0data status	okinstallation	princeton_trtdifferential loss correction	single-endedforward channel	channel 3reverse channel	N/Adate	2019/09/11time	05:30:11forward acquisition time	60.00reverse acquisition time	0.00gamma	496.2192k internal	0.2330k external	0.2330temperature offset calibration	0.9910default loss term (dB/km)	0.3790temperature slope calibration	1.0000multiplexer offset coefficient	1.0000multiplexer slope coefficient	1.0000fibre end	0.00T internal ref (°C)	29.41T ext. ref 1 (°C)	-0.22T ext. ref 2 (°C)	23.33length (m)	temperature (°C)	Stokes	anti-Stokes-747.200	-200.000	-0.041	0.193
-746.185	262.328	-0.213	0.372
-745.171	694.672	0.116	-0.306
-744.156	280.724	-0.115	-0.207
-743.142	-72.478	-0.405	-0.151
-742.127	155.975	-0.208	-0.289
-741.112	-59.413	-0.184	-0.079
-740.098	132.564	-0.329	0.427
-739.083	-114.221	0.256	-0.050
-738.069	40.999	0.115	0.105
-737.054	-158.405	0.158	-0.009
-736.039	49.961	-0.224	0.212
-735.025	-200.000	0.001	-0.051
-734.010	147.014	0.009	-0.013
-732.996	800.000	0.027	-0.094
-731.981	-200.000	0.013	-0.131
-730.966	-200.000	-0.013	-0.154
-729.952	28.380	-0.337	-0.286
-728.937	-147.628	-0.219	-0.019
-727.923	-58.238	-0.363	-0.159
-726.908	-68.561	0.131	0.051
-725.894	-113.036	0.326	-0.065
-724.879	463.683	0.159	0.358
-723.864	-65.743	-0.015	0.006
-722.850	355.315	0.240	-0.481
-721.835	-178.934	0.026	0.001
-720.821	23.059	0.149	0.123
-719.806	-47.442	-0.442	-0.216
-718.791	50.247	-0.183	0.174
-717.777	-200.000	-0.007	-0.052
-716.762	800.000	-0.066	0.212
-715.748	800.000	0.088	0.316
-714.733	-200.000	0.001	0.009
-713.718	167.073	0.123	0.176
-712.704	-113.929	-0.112	0.022
-711.689	-153.190	0.652	-0.046
-710.675	-139.934	-0.263	-0.028
-709.660	51.084	-0.179	-0.171
-708.645	-67.253	-0.337	0.133
-707.631	-4.639	0.252	0.175
-706.616	800.000	-0.056	-0.174
-705.602	-200.000	-0.030	-0.207
-704.587	122.681	0.191	0.240
-703.572	-91.747	-0.165	-0.047
-702.558	-187.240	-0.164	-0.002
-701.543	72.117	0.125	0.131
-700.529	42.263	-0.193	0.176
-699.514	-18.272	-0.103	-0.065
-698.499	-200.000	0.000	0.017
-697.485	800.000	-0.017	0.068
-696.470	800.000	-0.052	0.171
-695.456	-65.392	-0.312	-0.126
-694.441	52.606	-0.164	-0.157
-693.426	-72.608	-0.207	-0.077
-692.412	-58.277	-0.071	-0.031
-691.397	-102.718	-0.233	0.056
-690.383	-200.000	-0.050	-0.234
-689.368	-83.924	-0.295	0.094
-688.354	-200.000	0.069	0.358
-687.339	486.325	-0.011	-0.024
-686.324	-48.812	0.256	-0.123
-685.310	-200.000	0.028	-0.279
-684.295	-52.961	0.175	-0.081
-683.281	362.343	0.098	-0.198
-682.266	-127.898	-0.119	-0.017
-681.251	145.145	-0.192	0.258
-680.237	-73.487	-0.097	0.036
-679.222	-134.772	-0.151	-0.018
-678.208	638.350	0.134	0.341
-677.193	-2.615	-0.205	-0.144
-676.178	267.683	-0.125	-0.221
-675.164	-200.000	0.047	0.264
-674.149	-79.443	0.290	0.098
-673.135	-107.646	0.114	-0.025
-672.120	-133.709	0.085	-0.011
-671.105	45.609	-0.205	-0.190
-670.091	-29.167	0.228	-0.131
-669.076	269.197	0.108	0.191
-668.062	800.000	0.053	0.152
-667.047	-82.197	-0.271	-0.089
-666.032	34.901	0.177	-0.156
-665.018	-39.327	-0.313	0.165
-664.003	-200.000	0.023	0.293
-662.989	-165.485	-0.122	0.005
-661.974	223.433	-0.031	-0.050
-660.959	433.176	0.055	0.121
-659.945	800.000	0.046	-0.162
-658.930	-200.000	-0.011	-0.274
-657.916	197.160	0.081	-0.124
-656.901	-48.686	-0.186	0.090
-655.886	-57.899	0.039	-0.017
-654.872	254.684	-0.152	0.262
-653.857	731.498	0.075	-0.202
-652.843	-200.000	-0.085	0.395
-651.828	-200.000	0.094	0.497
-650.814	-200.000	0.004	0.118
-649.799	198.361	-0.376	-0.577
-648.784	14.313	-0.182	-0.142
-647.770	69.245	-0.086	0.089
-646.755	-52.064	-0.293	-0.136
-645.741	-146.451	0.141	0.012
-644.726	800.000	0.021	-0.085
-643.711	-98.681	-0.119	0.030
-642.697	-133.443	-0.201	0.025
-641.682	-200.000	-0.001	0.094
-640.668	36.920	-0.171	-0.151
-639.653	134.841	-0.269	-0.350
-638.638	800.000	0.016	-0.059
-637.624	-200.000	0.031	0.144
-636.609	-103.064	0.119	0.028
-635.595	-17.412	-0.304	0.192
-634.580	-173.608	-0.069	0.002
-633.565	34.269	-0.198	0.173
-632.551	-108.969	0.088	0.019
-631.536	233.094	-0.119	0.195
-630.522	7.855	-0.177	-0.133
-629.507	-134.215	-0.303	0.037
-628.492	-200.000	0.063	0.552
-627.478	2.118	-0.290	0.210
-626.463	302.683	-0.164	-0.304
-625.449	-100.998	0.217	-0.053
-624.434	359.204	0.200	-0.400
-623.419	-140.158	0.155	0.016
-622.405	75.929	0.120	0.127
-621.390	700.782	0.094	-0.247
-620.376	120.152	0.190	-0.236
-619.361	-133.802	0.440	-0.055
-618.346	62.910	-0.212	-0.213
-617.332	-179.315	-0.120	0.003
-616.317	-164.249	-0.177	-0.008
-615.303	-146.298	-0.315	-0.028
-614.288	-200.000	-0.025	-0.111
-613.273	800.000	-0.025	-0.112
-612.259	531.353	0.127	-0.302
-611.244	-200.000	0.012	-0.301
-610.230	800.000	0.058	-0.199
-609.215	-28.962	0.227	0.130
-608.201	259.283	0.205	-0.355
-607.186	137.550	-0.076	-0.099
-606.171	45.007	-0.117	-0.108
-605.157	-200.000	0.021	-0.220
-604.142	800.000	0.096	0.273
-603.128	-124.329	0.204	0.032
-602.113	615.574	-0.038	-0.095
-601.098	-200.000	0.025	-0.264
-600.084	-46.243	0.155	-0.076
-599.069	69.872	-0.218	-0.225
-598.055	17.844	0.154	-0.123
-597.040	-200.000	0.019	-0.464
-596.025	-10.119	0.209	-0.139
-595.011	12.562	-0.147	0.114
-593.996	16.602	-0.087	0.069
-592.982	21.082	0.028	0.023
-591.967	63.877	0.080	0.080
-590.952	-68.191	-0.140	-0.054
-589.938	-32.130	0.305	-0.170
-588.923	15.706	0.105	0.083
-587.909	8.792	-0.305	-0.230
-586.894	41.643	0.031	-0.028
-585.879	-8.618	-0.201	-0.135
-584.865	-133.185	0.118	0.015
-583.850	-92.338	-0.395	0.111
-582.836	800.000	-0.028	0.090
-581.821	-32.847	0.511	-0.284
-580.806	800.000	-0.102	-0.347
-579.792	502.983	-0.080	-0.184
-578.777	-200.000	0.030	-0.232
-577.763	800.000	0.124	0.372
-576.748	800.000	0.045	0.197
-575.733	453.606	0.149	-0.329
-574.719	-200.000	0.018	-0.180
-573.704	-127.947	0.099	0.014
-572.690	434.966	0.141	-0.307
-571.675	-200.000	-0.012	-0.157
-570.661	232.480	0.113	0.185
-569.646	-200.000	-0.009	0.075
-568.631	-93.946	-0.271	-0.074
-567.617	100.268	-0.046	0.054
-566.602	-200.000	-0.006	-0.047
-565.588	29.783	0.030	0.025
-564.573	-113.962	-0.251	-0.049
-563.558	-127.014	0.215	-0.032
-562.544	-88.172	0.180	0.054
-561.529	-87.149	-0.434	0.132
-560.515	-157.346	0.197	0.012
-559.500	-31.040	-0.161	0.091
-558.485	-20.299	-0.128	-0.079
-557.471	-200.000	0.029	-0.183
-556.456	-83.061	0.042	0.014
-555.442	-50.131	-0.352	-0.167
-554.427	-101.600	-0.271	-0.066
-553.412	-79.184	0.218	-0.074
-552.398	-52.411	-0.032	-0.015
-551.383	-126.738	0.290	-0.043
-550.369	265.245	-0.067	0.116
-549.354	-60.978	-0.145	-0.061
-548.339	-158.715	-0.438	0.025
-547.325	-18.729	0.116	0.072
-546.310	37.634	0.115	0.102
-545.296	755.468	-0.065	0.176
-544.281	-200.000	-0.008	0.133
-543.266	270.307	0.090	-0.158
-542.252	-200.000	0.036	-0.198
-541.237	92.133	-0.292	0.328
-540.223	122.252	-0.120	0.150
-539.208	37.193	-0.135	-0.119
-538.193	-92.707	-0.180	0.050
-537.179	800.000	0.061	-0.263
-536.164	-200.000	-0.062	0.504
-535.150	-124.521	-0.193	-0.030
-534.135	-200.000	-0.007	-0.101
-533.121	-134.290	-0.168	0.021
-532.106	-30.839	0.101	-0.057
-531.091	272.436	-0.206	0.364
-530.077	-94.211	0.389	-0.106
-529.062	-51.760	-0.090	0.042
-528.048	-123.155	0.193	-0.031
-527.033	415.101	-0.156	0.332
-526.018	73.995	0.105	0.110
-525.004	-84.348	-0.218	-0.069
-523.989	33.330	-0.180	-0.156
-522.975	-61.551	-0.102	-0.043
-521.960	-116.774	-0.107	-0.020
-520.945	-200.000	0.006	-0.051
-519.931	96.683	0.062	-0.071
-518.916	224.322	0.127	0.206
-517.902	268.009	0.074	-0.129
-516.887	-200.000	-0.039	-0.201
-515.872	-92.409	0.153	0.043
-514.858	800.000	-0.069	0.234
-513.843	216.901	0.220	-0.350
-512.829	-17.877	-0.210	0.131
-511.814	67.026	-0.176	-0.179
-510.799	-200.000	0.032	-0.261
-509.785	-10.588	-0.033	0.022
-508.770	800.000	0.177	0.495
-507.756	779.011	0.105	-0.287
-506.741	-139.780	0.238	0.025
-505.726	-134.212	0.211	0.026
-504.712	-129.330	-0.124	0.017
-503.697	-50.778	-0.129	0.061
-502.683	800.000	0.122	0.399
-501.668	800.000	0.006	-0.027
-500.653	21.473	0.029	0.023
-499.639	-109.209	-0.199	-0.042
-498.624	-200.000	0.017	0.410
-497.610	-144.141	0.425	-0.040
-496.595	-140.744	0.089	0.009
-495.581	697.755	-0.137	-0.358
-494.566	-124.502	0.256	-0.040
-493.551	-60.057	-0.425	-0.181
-492.537	37.688	-0.240	-0.213
-491.522	-148.719	0.301	-0.024
-490.508	-137.066	-0.115	0.013
-489.493	800.000	0.012	0.044
-488.478	3.387	0.201	-0.146
-487.464	123.631	0.075	0.094
-486.449	-141.453	0.544	-0.055
-485.435	-79.503	-0.163	0.055
-484.420	-121.577	-0.057	-0.009
-483.405	35.492	-0.183	0.160
-482.391	-200.000	-0.029	-0.187
-481.376	72.876	0.188	-0.196
-480.362	-148.935	-0.266	0.021
-479.347	-200.000	-0.048	0.229
-478.332	49.524	-0.134	-0.126
-477.318	265.103	0.082	0.143
-476.303	-73.287	0.414	-0.151
-475.289	-77.256	0.159	-0.055
-474.274	-200.000	0.010	0.144
-473.259	73.543	-0.105	0.109
-472.245	-8.693	0.261	0.175
-471.230	800.000	-0.066	-0.216
-470.216	-38.357	0.207	-0.109
-469.201	347.985	-0.024	-0.046
-468.186	410.461	0.075	-0.158
-467.172	246.676	0.163	-0.273
-466.157	167.375	-0.082	0.116
-465.143	-200.000	-0.021	-0.264
-464.128	17.574	-0.295	0.234
-463.113	0.597	0.440	-0.313
-462.099	-45.124	0.027	-0.013
-461.084	-31.836	-0.379	-0.212
-460.070	-27.621	-0.177	0.103
-459.055	-162.077	0.181	0.009
-458.040	41.321	0.225	0.202
-457.026	51.878	0.121	0.115
-456.011	115.723	0.128	0.156
-454.997	-200.000	-0.005	-0.067
-453.982	-200.000	-0.022	0.207
-452.968	480.596	0.037	0.083
-451.953	62.307	0.065	0.065
-450.938	-200.000	0.020	-0.108
-449.924	-87.157	-0.205	0.062
-448.909	-156.875	0.175	0.011
-447.895	432.782	-0.040	-0.086
-446.880	477.696	-0.204	-0.460
-445.865	42.632	-0.098	-0.089
-444.851	-200.000	0.000	0.317
-443.836	-1.595	-0.083	-0.058
-442.822	288.412	-0.107	-0.193
-441.807	-200.000	0.022	0.123
-440.792	-78.823	0.221	0.075
-439.778	73.713	-0.247	0.257
-438.763	-131.650	-0.249	0.032
-437.749	612.218	-0.072	0.178
-436.734	33.568	-0.180	-0.156
-435.719	66.981	-0.121	-0.123
-434.705	232.580	-0.069	-0.113
-433.690	-50.692	-0.066	-0.031
-432.676	158.645	-0.111	-0.153
-431.661	-72.826	0.149	-0.054
-430.646	-143.644	-0.204	-0.019
-429.632	21.518	0.100	-0.081
-428.617	-200.000	-0.023	0.237
-427.603	-200.000	0.008	0.125
-426.588	591.151	-0.011	-0.028
-425.573	-24.985	0.151	0.089
-424.559	-151.092	-0.161	0.012
-423.544	176.629	-0.118	-0.170
-422.530	-200.000	-0.015	0.193
-421.515	677.897	0.081	-0.209
-420.500	-91.014	-0.113	-0.032
-419.486	215.411	-0.119	0.188
-418.471	550.817	-0.032	0.076
-417.457	-200.000	0.022	0.145
-416.442	-86.017	-0.070	0.021
-415.428	97.321	-0.109	0.125
-414.413	98.504	-0.172	-0.197
-413.398	-200.000	-0.030	-0.369
-412.384	-200.000	0.028	0.199
-411.369	513.747	-0.051	-0.119
-410.355	210.958	0.056	0.088
-409.340	83.046	0.129	-0.139
-408.325	-200.000	-0.067	0.324
-407.311	105.857	0.140	0.164
-406.296	1.547	-0.098	-0.070
-405.282	800.000	0.077	-0.260
-404.267	555.102	-0.151	0.361
-403.252	800.000	-0.018	0.065
-402.238	-58.941	0.148	0.063
-401.223	-90.172	0.427	0.123
-400.209	-142.856	-0.092	-0.009
-399.194	518.479	-0.095	0.220
-398.179	-118.081	0.235	-0.042
-397.165	-52.267	-0.116	-0.053
-396.150	-75.959	0.296	0.104
-395.136	445.994	-0.092	0.202
-394.121	-73.192	0.389	-0.142
-393.106	272.376	0.077	-0.135
-392.092	128.441	-0.133	0.168
-391.077	-117.494	0.311	-0.056
-390.063	-200.000	-0.049	-0.238
-389.048	-52.303	-0.173	-0.079
-388.033	40.997	0.128	-0.115
-387.019	-36.627	-0.173	-0.092
-386.004	435.058	-0.108	0.232
-384.990	8.757	-0.198	0.148
-383.975	-181.181	-0.174	-0.003
-382.960	62.017	0.054	-0.053
-381.946	175.993	0.041	-0.058
-380.931	74.196	0.187	0.195
-379.917	12.985	-0.255	0.196
-378.902	800.000	-0.114	-0.361
-377.888	63.337	0.074	-0.074
-376.873	-100.639	0.500	0.123
-375.858	7.272	0.086	0.064
-374.844	481.101	0.087	-0.197
-373.829	207.775	-0.048	-0.074
-372.815	-200.000	0.029	-0.133
-371.800	-74.944	-0.137	-0.049
-370.785	-19.208	-0.260	0.160
-369.771	-145.043	0.138	0.012
-368.756	-200.000	0.054	0.237
-367.742	-21.473	-0.155	0.094
-366.727	147.377	0.057	0.076
-365.712	324.813	0.057	0.108
-364.698	-6.416	0.165	-0.112
-363.683	-1.368	-0.211	-0.147
-362.669	11.788	0.285	0.217
-361.654	-136.213	0.168	-0.019
-360.639	-21.235	0.277	0.168
-359.625	-17.974	0.059	-0.037
-358.610	-21.958	0.260	0.156
-357.596	-159.578	0.081	0.004
-356.581	75.445	0.071	-0.074
-355.566	23.706	-0.071	0.058
-354.552	-200.000	0.033	0.232
-353.537	54.167	-0.140	0.134
-352.523	-76.171	-0.170	0.060
-351.508	47.004	-0.068	0.062
-350.493	-36.849	0.086	0.046
-349.479	100.968	0.124	0.142
-348.464	-155.313	-0.200	0.013
-347.450	-32.190	0.036	0.020
-346.435	60.856	-0.080	-0.079
-345.420	-76.033	0.091	0.032
-344.406	162.706	-0.200	0.278
-343.391	29.275	0.108	0.091
-342.377	-93.811	-0.286	-0.078
-341.362	800.000	-0.107	0.344
-340.348	95.097	-0.168	-0.190
-339.333	499.468	0.152	-0.347
-338.318	-200.000	0.020	-0.341
-337.304	203.028	-0.027	0.041
-336.289	5.324	-0.147	-0.108
-335.275	-200.000	0.003	0.249
-334.260	77.679	0.132	0.140
-333.245	-200.000	-0.018	0.276
-332.231	-81.805	0.022	0.007
-331.216	119.985	0.189	-0.232
-330.202	-116.311	0.159	0.029
-329.187	120.330	-0.183	0.225
-328.172	18.360	-0.282	-0.223
-327.158	-167.881	0.072	0.003
-326.143	-71.516	0.212	0.079
-325.129	34.997	0.198	-0.172
-324.114	279.859	-0.058	-0.103
-323.099	515.294	-0.050	-0.115
-322.085	-74.797	-0.211	0.075
-321.070	128.992	0.129	0.163
-320.056	-112.284	-0.298	0.059
-319.041	163.159	0.089	0.124
-318.026	180.535	-0.145	-0.211
-317.012	49.491	0.158	0.148
-315.997	-67.901	-0.273	0.105
-314.983	-148.028	0.316	0.026
-313.968	434.035	0.080	0.173
-312.953	90.163	-0.233	0.258
-311.939	35.235	0.161	0.140
-310.924	-200.000	0.031	0.165
-309.910	124.627	0.296	0.368
-308.895	-125.316	0.286	0.043
-307.880	62.570	0.229	0.227
-306.866	-9.859	0.033	0.022
-305.851	-121.752	0.260	-0.043
-304.837	800.000	-0.027	-0.103
-303.822	373.100	-0.132	-0.266
-302.807	245.478	-0.212	-0.354
-301.793	-154.887	-0.127	-0.008
-300.778	662.039	0.139	0.354
-299.764	-51.060	-0.031	-0.015
-298.749	-128.115	-0.133	-0.019
-297.735	-200.000	-0.005	-0.089
-296.720	92.103	-0.245	0.273
-295.705	-85.592	-0.194	0.060
-294.691	181.367	-0.150	0.219
-293.676	-158.855	-0.108	-0.006
-292.662	-102.835	0.167	-0.039
-291.647	672.427	0.082	-0.210
-290.632	800.000	0.118	-0.410
-289.618	-77.250	0.312	-0.107
-288.603	363.084	0.135	0.267
-287.589	-20.884	-0.255	0.155
-286.574	800.000	-0.084	-0.267
-285.559	-29.928	-0.160	-0.090
-284.545	-48.149	0.118	0.056
-283.530	52.651	0.211	0.200
-282.516	20.323	0.270	0.216
-281.501	-21.884	0.059	0.036
-280.486	-79.486	0.110	-0.037
-279.472	-65.707	0.088	-0.035
-278.457	62.632	0.361	0.357
-277.443	390.216	-0.067	-0.138
-276.428	324.313	0.091	0.172
-275.413	-68.264	0.142	-0.054
-274.399	-161.894	0.269	0.013
-273.384	-30.716	-0.224	0.125
-272.370	-200.000	-0.018	0.152
-271.355	12.960	0.295	0.226
-270.340	-200.000	-0.058	-0.345
-269.326	-49.342	0.303	0.143
-268.311	-70.964	0.396	-0.147
-267.297	-43.062	-0.276	0.138
-266.282	729.181	0.064	-0.170
-265.267	347.595	0.127	-0.246
-264.253	800.000	0.031	0.106
-263.238	83.679	0.153	-0.165
-262.224	-111.380	-0.082	0.016
-261.209	800.000	-0.074	-0.262
-260.195	-200.000	0.005	0.166
-259.180	800.000	0.022	-0.087
-258.165	-101.014	-0.077	0.019
-257.151	-96.302	-0.120	0.031
-256.136	623.274	0.024	0.060
-255.122	800.000	0.061	-0.168
-254.107	264.503	0.177	0.304
-253.092	800.000	-0.206	0.570
-252.078	-200.000	0.000	-0.091
-251.063	-7.103	-0.352	-0.236
-250.049	-200.000	-0.019	-0.156
-249.034	800.000	0.029	0.109
-248.019	-97.835	-0.343	0.088
-247.005	-12.703	-0.186	-0.120
-245.990	-112.200	-0.317	-0.063
-244.976	-200.000	0.034	-0.268
-243.961	-92.111	0.146	0.041
-242.946	-200.000	0.006	0.366
-241.932	-200.000	0.014	0.096
-240.917	407.141	-0.022	0.046
-239.903	-135.281	0.190	-0.022
-238.888	42.732	-0.036	-0.032
-237.873	-200.000	0.032	-0.276
-236.859	800.000	0.042	0.128
-235.844	-200.000	-0.023	-0.327
-234.830	317.405	-0.019	0.036
-233.815	-189.176	-0.113	0.001
-232.800	101.049	0.135	0.156
-231.786	426.862	-0.104	-0.222
-230.771	486.999	-0.055	0.123
-229.757	87.215	-0.068	0.074
-228.742	-200.000	-0.030	0.177
-227.727	-136.449	0.223	0.026
-226.713	26.609	0.154	0.127
-225.698	-134.199	0.337	0.041
-224.684	-4.045	0.166	0.113
-223.669	-96.730	0.055	0.014
-222.655	-200.000	-0.008	-0.173
-221.640	762.740	-0.014	0.038
-220.625	-133.830	0.242	0.030
-219.611	-2.401	0.096	0.066
-218.596	-52.800	-0.215	0.098
-217.582	800.000	0.122	0.367
-216.567	-15.579	0.119	-0.075
-215.552	209.491	-0.185	0.286
-214.538	314.444	0.058	-0.107
-213.523	29.581	-0.305	0.256
-212.509	-200.000	-0.009	-0.063
-211.494	-26.568	-0.254	-0.147
-210.479	159.527	-0.149	0.205
-209.465	454.073	-0.112	0.245
-208.450	42.067	-0.127	-0.114
-207.436	199.216	0.070	0.106
-206.421	105.361	0.070	-0.081
-205.406	-200.000	-0.016	-0.256
-204.392	46.303	0.180	-0.165
-203.377	-200.000	0.020	-0.131
-202.363	-72.016	0.354	0.130
-201.348	-106.455	0.121	0.027
-200.333	281.855	-0.148	0.262
-199.319	-88.814	0.165	0.048
-198.304	-152.787	-0.100	-0.007
-197.290	800.000	0.085	-0.329
-196.275	223.198	-0.081	0.129
-195.260	167.260	-0.206	0.288
-194.246	800.000	-0.053	-0.168
-193.231	-56.463	0.091	-0.040
-192.217	89.716	0.070	0.077
-191.202	746.667	-0.050	0.133
-190.187	67.768	-0.082	-0.082
-189.173	33.016	0.225	-0.192
-188.158	800.000	-0.049	-0.150
-187.144	297.080	0.044	-0.080
-186.129	129.474	-0.242	-0.305
-185.114	54.729	0.174	-0.165
-184.100	-58.805	-0.166	-0.071
-183.085	-200.000	-0.016	-0.296
-182.071	18.768	-0.310	-0.245
-181.056	306.607	-0.168	0.307
-180.042	114.935	-0.081	0.097
-179.027	10.882	-0.077	0.058
-178.012	-92.684	-0.233	0.064
-176.998	81.614	-0.137	0.146
-175.983	-86.267	0.167	0.051
-174.969	-156.930	-0.249	-0.015
-173.954	33.735	0.291	0.249
-172.939	-169.472	-0.306	-0.011
-171.925	471.704	0.211	-0.469
-170.910	-200.000	0.017	0.370
-169.896	-87.855	-0.361	-0.107
-168.881	298.005	0.142	0.256
-167.866	-42.116	0.239	-0.120
-166.852	-146.395	0.181	0.016
-165.837	800.000	0.057	0.247
-164.823	-200.000	0.066	-0.348
-163.808	157.003	0.165	-0.225
-162.793	136.923	-0.031	0.040
-161.779	-200.000	0.144	0.000
-160.764	186.497	0.179	0.263
-159.750	285.641	0.044	-0.078
-158.735	-37.122	-0.365	0.192
-157.720	97.591	-0.343	0.388
-156.706	-200.000	0.024	-0.141
-155.691	-40.252	0.051	-0.026
-154.677	-200.000	-0.175	0.000
-153.662	-123.231	0.342	0.054
-152.647	191.340	0.195	0.288
-151.633	800.000	0.066	0.278
-150.618	-56.196	-0.207	0.091
-149.604	-0.200	-0.083	0.058
-148.589	-4.996	0.089	-0.061
-147.574	-9.676	-0.247	-0.162
-146.560	800.000	-0.069	0.214
-145.545	84.007	0.313	-0.337
-144.531	-150.593	0.154	0.012
-143.516	-92.903	-0.253	-0.069
-142.502	682.474	-0.094	0.241
-141.487	-156.052	-0.386	0.024
-140.472	-130.427	-0.246	-0.033
-139.458	-7.886	-0.166	0.110
-138.443	-102.617	0.058	0.014
-137.429	-24.695	0.134	0.079
-136.414	134.222	-0.143	0.182
-135.399	-200.000	0.023	-0.125
-134.385	-48.502	0.487	0.230
-133.370	254.022	0.289	0.486
-132.356	-6.302	-0.081	0.055
-131.341	-200.000	0.042	-0.246
-130.326	-17.046	0.180	-0.112
-129.312	-109.813	-0.114	0.024
-128.297	800.000	-0.085	0.241
-127.283	69.592	-0.094	0.095
-126.268	231.956	0.083	0.135
-125.253	34.754	0.368	-0.316
-124.239	800.000	-0.039	0.159
-123.224	800.000	-0.039	-0.162
-122.210	11.963	-0.217	0.164
-121.195	-200.000	-0.033	0.229
-120.180	-200.000	-0.003	-0.066
-119.166	13.293	-0.074	-0.056
-118.151	23.840	-0.051	0.041
-117.137	49.024	0.195	-0.180
-116.122	105.788	-0.166	-0.193
-115.107	-77.562	-0.158	0.054
-114.093	514.108	-0.087	0.199
-113.078	486.623	0.052	0.117
-112.064	-200.000	0.060	0.328
-111.049	245.896	0.232	-0.384
-110.034	239.278	0.042	0.069
-109.020	73.890	-0.113	0.117
-108.005	96.160	0.200	-0.225
-106.991	54.363	0.079	-0.074
-105.976	-200.000	0.039	-0.282
-104.962	-113.185	-0.280	-0.054
-103.947	-34.871	-0.073	-0.039
-102.932	-31.968	0.166	-0.091
-101.918	84.958	0.198	0.213
-100.903	55.658	0.258	0.245
-99.889	-33.450	-0.067	-0.037
-98.874	178.453	-0.100	-0.143
-97.859	-200.000	-0.033	-0.252
-96.845	-53.525	0.128	-0.057
-95.830	-200.000	-0.012	-0.155
-94.816	-18.423	-0.262	-0.161
-93.801	51.329	0.149	-0.139
-92.786	449.238	0.100	-0.217
-91.772	109.526	0.208	0.245
-90.757	-45.351	-0.273	-0.133
-89.743	1.401	0.146	0.103
-88.728	-200.000	0.015	0.182
-87.713	-200.000	0.059	0.257
-86.699	-70.548	-0.069	0.026
-85.684	355.576	0.044	-0.085
-84.670	-29.858	-0.128	-0.071
-83.655	-200.000	-0.010	0.255
-82.640	124.312	-0.296	0.365
-81.626	-67.220	-0.233	0.090
-80.611	38.111	-0.035	-0.031
-79.597	531.364	0.136	0.317
-78.582	19.830	-0.261	0.206
-77.567	-200.000	0.001	-0.077
-76.553	-200.000	-0.015	0.311
-75.538	-42.507	0.164	-0.082
-74.524	639.097	-0.077	-0.192
-73.509	-200.000	0.015	0.179
-72.494	800.000	-0.071	0.212
-71.480	-117.882	-0.304	0.053
-70.465	453.304	-0.035	-0.075
-69.451	-200.000	0.024	-0.321
-68.436	288.787	-0.051	-0.091
-67.422	-30.362	0.040	-0.022
-66.407	47.599	-0.314	-0.288
-65.392	-40.027	-0.078	-0.040
-64.378	800.000	0.163	0.521
-63.363	-21.054	0.334	0.201
-62.349	-200.000	-0.059	0.340
-61.334	72.959	-0.992	-1.016
-60.319	38.012	0.460	0.401
-59.305	261.612	-0.557	-0.946
-58.290	287.129	0.555	0.982
-57.276	504.499	0.697	1.582
-56.261	-200.000	106.022	616.487
-55.246	507.124	1510.328	3433.535
-54.232	176.276	2702.151	3846.290
-53.217	110.401	2185.701	2573.651
-52.203	40.114	1705.916	1502.566
-51.188	32.534	1516.135	1283.916
-50.173	30.167	1489.525	1245.455
-49.159	51.396	1545.899	1438.527
-48.144	51.593	1562.088	1454.883
-47.130	32.689	1518.022	1286.366
-46.115	29.677	1503.184	1253.356
-45.100	29.622	1499.224	1249.633
-44.086	29.461	1497.178	1246.787
-43.071	29.270	1495.923	1244.407
-42.057	29.396	1493.404	1243.112
-41.042	29.359	1492.237	1241.841
-40.027	29.454	1490.878	1241.298
-39.013	29.382	1489.337	1239.483
-37.998	29.331	1488.230	1238.169
-36.984	29.326	1487.009	1237.072
-35.969	29.310	1485.250	1235.448
-34.954	29.389	1483.821	1234.740
-33.940	29.318	1482.362	1233.003
-32.925	29.382	1481.290	1232.489
-31.911	29.411	1479.842	1231.431
-30.896	29.376	1479.004	1230.454
-29.881	29.526	1477.208	1229.910
-28.867	29.503	1476.414	1229.048
-27.852	29.499	1474.600	1227.460
-26.838	29.548	1473.225	1226.595
-25.823	29.455	1471.734	1224.685
-24.809	29.450	1469.776	1222.976
-23.794	29.361	1469.047	1221.731
-22.779	29.478	1467.490	1221.160
-21.765	29.387	1466.938	1220.047
-20.750	29.462	1465.564	1219.353
-19.736	29.438	1464.444	1218.218
-18.721	29.472	1463.414	1217.533
-17.706	29.434	1462.091	1216.137
-16.692	29.420	1460.953	1215.045
-15.677	29.518	1459.736	1214.630
-14.663	29.423	1459.013	1213.358
-13.648	29.394	1458.437	1212.643
-12.633	29.483	1457.183	1212.134
-11.619	29.373	1456.530	1210.821
-10.604	29.348	1455.759	1209.968
-9.590	29.375	1454.798	1209.295
-8.575	29.315	1453.814	1208.039
-7.560	29.425	1452.854	1207.910
-6.546	29.353	1452.029	1206.710
-5.531	29.383	1451.365	1206.304
-4.517	29.326	1450.419	1205.098
-3.502	29.294	1449.115	1203.760
-2.487	29.317	1448.220	1203.118
-1.473	29.394	1446.970	1202.532
-0.458	29.342	1445.964	1201.307
0.556	27.023	1436.124	1190.575
1.571	24.180	1410.884	1151.203
2.586	20.811	1353.411	1083.294
3.600	19.450	1272.003	1010.080
4.615	18.249	1228.007	968.267
5.629	16.205	1172.740	913.551
6.644	8.302	1089.224	808.528
7.659	1.089	1049.061	743.365
8.673	-0.012	1043.251	733.809
9.688	-0.256	1040.364	730.529
10.702	-0.343	1038.368	728.641
11.717	-0.279	1036.592	727.639
12.731	3.108	1040.199	746.569
13.746	11.855	1052.889	798.434
14.761	18.645	1062.140	838.674
15.775	20.581	1063.394	849.057
16.790	20.849	1063.221	850.151
17.804	20.786	1062.284	849.019
18.819	20.502	1061.780	847.156
19.834	20.705	1060.656	847.174
20.848	20.736	1060.472	847.102
21.863	20.788	1060.234	847.090
22.877	20.806	1059.813	846.765
23.892	20.740	1058.823	845.579
24.907	20.719	1057.928	844.688
25.921	20.732	1057.570	844.391
26.936	20.741	1056.616	843.599
27.950	20.750	1055.698	842.833
28.965	20.653	1054.510	841.341
29.980	20.643	1052.403	839.539
30.994	20.556	1050.762	837.734
32.009	20.793	1049.823	838.053
33.023	20.766	1049.740	837.783
34.038	20.569	1048.856	836.054
35.053	20.576	1047.724	835.112
36.067	20.737	1046.689	834.987
37.082	20.804	1046.156	834.807
38.096	20.892	1044.790	834.065
39.111	20.908	1044.631	833.941
40.126	21.075	1043.213	833.535
41.140	21.018	1041.963	832.189
42.155	20.686	1040.997	829.762
43.169	20.378	1039.468	827.005
44.184	20.515	1038.077	826.475
45.199	20.464	1037.306	825.544
46.213	20.402	1036.063	824.191
47.228	20.416	1035.348	823.614
48.242	20.540	1034.400	823.375
49.257	20.523	1033.889	822.813
50.271	20.686	1032.861	822.695
51.286	20.755	1032.428	822.601
52.301	20.739	1031.555	821.758
53.315	20.718	1030.837	821.014
54.330	20.695	1029.907	820.094
55.344	20.829	1028.674	819.669
56.359	20.703	1028.091	818.541
57.374	20.655	1027.709	817.938
58.388	20.676	1026.243	816.798
59.403	20.604	1025.506	815.800
60.417	20.590	1024.753	815.064
61.432	20.380	1024.397	813.725
62.447	20.366	1023.685	813.020
63.461	20.545	1022.951	813.203
64.476	20.589	1021.814	812.431
65.490	20.597	1021.303	811.994
66.505	20.548	1019.910	810.584
67.520	20.509	1019.295	809.841
68.534	20.484	1018.596	809.100
69.549	20.457	1017.679	808.172
70.563	20.172	1016.485	805.830
71.578	20.029	1015.790	804.541
72.593	20.139	1015.168	804.491
73.607	19.982	1013.886	802.674
74.622	19.959	1012.609	801.485
75.636	20.366	1011.956	802.783
76.651	20.449	1011.365	802.625
77.666	20.250	1010.921	801.282
78.680	20.234	1009.780	800.233
79.695	20.247	1008.888	799.515
80.709	20.210	1008.845	799.238
81.724	20.296	1008.083	798.961
82.739	20.420	1006.606	798.288
83.753	20.335	1005.586	797.022
84.768	20.635	1005.178	798.003
85.782	20.945	1004.039	798.449
86.797	21.111	1003.792	798.940
87.812	21.025	1002.948	797.803
88.826	20.894	1002.030	796.404
89.841	20.844	1001.477	795.668
90.855	20.991	1000.692	795.646
91.870	21.029	999.502	794.800
92.884	21.095	998.753	794.438
93.899	20.874	998.082	792.828
94.914	20.854	996.685	791.557
95.928	21.025	995.936	791.669
96.943	20.904	995.031	790.327
97.957	20.567	994.209	788.080
98.972	20.489	993.029	786.720
99.987	20.302	991.880	784.896
101.001	20.333	991.603	784.746
102.016	20.659	990.375	785.175
103.030	20.798	989.728	785.219
104.045	20.758	988.311	783.846
105.060	20.475	987.458	781.828
106.074	20.252	986.425	779.940
107.089	20.439	985.436	779.927
108.103	20.730	985.310	781.064
109.118	20.785	984.626	780.699
110.133	20.544	983.253	778.462
111.147	20.403	982.686	777.314
112.162	20.512	980.822	776.256
113.176	20.214	979.806	774.058
114.191	20.467	978.835	774.346
115.206	20.558	977.895	773.941
116.220	20.115	977.040	771.227
117.235	19.970	976.390	769.997
118.249	20.267	975.549	770.586
119.264	20.210	974.513	769.446
120.279	20.262	973.684	768.956
121.293	20.131	972.958	767.734
122.308	20.249	972.569	767.880
123.322	20.246	971.532	766.983
124.337	20.183	970.402	765.744
125.352	20.128	968.709	764.098
126.366	19.846	966.965	761.415
127.381	19.434	965.778	758.599
128.395	20.003	965.777	761.032
129.410	20.441	965.652	762.791
130.424	20.854	963.901	763.148
131.439	20.733	963.100	761.920
132.454	20.701	961.874	760.741
133.468	20.703	961.179	760.134
134.483	20.557	960.262	758.704
135.497	20.733	959.856	759.083
136.512	20.781	959.017	758.562
137.527	20.908	958.401	758.561
138.541	20.965	957.569	758.081
139.556	20.994	956.531	757.322
140.570	20.902	955.632	756.141
141.585	20.870	955.210	755.601
142.600	21.020	953.967	755.202
143.614	20.865	953.169	753.833
144.629	20.939	952.506	753.561
145.643	21.260	951.928	754.426
146.658	21.025	950.802	752.452
147.673	20.913	949.159	750.604
148.687	20.869	948.425	749.765
149.702	20.894	946.973	748.658
150.716	20.733	946.311	747.380
151.731	20.754	945.389	746.672
152.746	20.815	944.332	746.034
153.760	20.914	944.230	746.311
154.775	21.094	943.681	746.584
155.789	21.082	942.592	745.605
156.804	21.138	941.038	744.548
157.819	21.023	940.098	743.249
158.833	21.130	939.530	743.190
159.848	21.199	938.826	742.860
160.862	21.226	938.015	742.265
161.877	21.152	937.053	741.126
162.892	21.093	936.344	740.247
163.906	21.173	935.482	739.840
164.921	21.040	934.778	738.655
165.935	20.905	933.652	737.128
166.950	21.209	932.157	737.166
167.964	21.129	931.932	736.587
168.979	21.083	930.645	735.312
169.994	20.968	929.746	734.050
171.008	20.837	928.785	732.676
172.023	21.001	928.058	732.726
173.037	21.169	927.035	732.561
174.052	20.884	926.290	730.711
175.067	20.745	924.990	729.038
176.081	20.801	924.371	728.720
177.096	21.018	923.451	728.839
178.110	20.957	922.749	727.966
179.125	20.771	921.906	726.460
180.140	20.479	920.323	723.932
181.154	20.526	920.146	723.923
182.169	20.621	919.359	723.637
183.183	20.696	919.387	723.907
184.198	21.039	919.113	725.054
185.213	21.015	917.921	723.947
186.227	20.955	917.180	723.049
187.242	21.032	916.859	723.055
188.256	21.130	915.890	722.632
189.271	21.109	915.456	722.138
190.286	21.122	914.453	721.337
191.300	20.944	913.657	719.910
192.315	20.491	912.655	717.186
193.329	19.841	910.674	712.891
194.344	19.535	909.431	710.595
195.359	20.172	909.952	713.559
196.373	20.798	910.389	716.416
197.388	21.159	909.532	717.163
198.402	20.976	909.138	716.038
199.417	20.809	908.801	715.020
200.432	20.820	908.345	714.646
201.446	20.778	907.798	713.978
202.461	20.426	906.251	711.259
203.475	20.492	905.879	711.172
204.490	20.051	904.692	708.376
205.504	19.139	902.449	702.836
206.519	19.564	902.626	704.645
207.534	20.283	902.956	707.774
208.548	20.567	902.160	708.246
209.563	20.862	902.077	709.320
210.577	20.864	901.254	708.618
211.592	20.817	900.118	707.469
212.607	20.933	900.554	708.224
213.621	21.198	899.790	708.636
214.636	20.974	899.207	707.204
215.650	20.989	898.781	706.867
216.665	21.093	897.613	706.305
217.680	21.107	897.235	706.002
218.694	21.083	896.993	705.653
219.709	20.803	895.890	703.593
220.723	20.526	894.795	701.553
221.738	20.796	894.100	702.035
222.753	20.984	893.723	702.435
223.767	20.839	893.386	701.522
224.782	20.940	892.010	700.785
225.796	21.180	891.465	701.258
226.811	21.293	891.463	701.651
227.826	20.899	889.907	698.783
228.840	19.918	888.748	693.881
229.855	19.911	888.277	693.425
230.869	20.330	887.321	694.291
231.884	19.989	886.672	692.360
232.899	19.943	886.035	691.618
233.913	20.909	886.299	695.621
234.928	20.976	885.967	695.566
235.942	20.756	885.919	694.590
236.957	20.799	884.915	693.911
237.972	20.695	883.729	692.508
238.986	20.569	882.801	691.218
240.001	20.668	882.101	691.002
241.015	20.779	881.468	690.886
242.030	20.665	881.201	690.161
243.045	20.982	880.443	690.764
244.059	20.836	880.204	689.939
245.074	21.033	879.558	690.149
246.088	21.015	878.525	689.208
247.103	20.654	878.246	687.500
248.117	20.781	877.523	687.376
249.132	21.211	877.327	688.856
250.147	21.469	877.238	689.744
251.161	21.613	876.402	689.590
252.176	21.621	875.990	689.236
253.190	21.742	875.215	689.043
254.205	21.904	874.841	689.325
255.220	21.904	874.472	688.972
256.234	21.948	873.638	688.427
257.249	21.866	872.844	687.419
258.263	21.708	872.308	686.319
259.278	21.501	872.117	685.297
260.293	21.733	871.546	685.696
261.307	21.962	870.721	685.879
262.322	21.611	870.165	684.010
263.336	21.678	869.405	683.615
264.351	21.061	867.971	680.023
265.366	20.009	866.229	674.503
266.380	19.598	865.098	671.964
267.395	20.608	865.380	676.052
268.409	21.335	865.677	679.050
269.424	21.290	865.015	678.295
270.439	21.489	864.250	678.406
271.453	21.646	863.775	678.581
272.468	21.545	863.102	677.601
273.482	21.735	862.668	677.936
274.497	21.859	862.366	678.119
275.512	21.792	860.883	676.635
276.526	21.121	859.762	673.108
277.541	21.251	859.491	673.334
278.555	21.523	859.678	674.473
279.570	21.483	858.743	673.526
280.585	21.333	857.681	672.056
281.599	21.357	857.310	671.797
282.614	21.489	856.907	671.928
283.628	21.154	855.470	669.458
284.643	20.695	854.899	667.193
285.657	21.252	854.451	668.916
286.672	21.046	853.806	667.563
287.687	20.581	853.060	665.143
288.701	20.880	852.941	666.135
289.716	21.275	852.732	667.421
290.730	20.871	851.706	665.017
291.745	20.959	850.824	664.607
292.760	20.577	850.018	662.465
293.774	20.564	849.295	661.791
294.789	21.606	850.025	666.270
295.803	22.162	849.936	668.255
296.818	22.096	849.660	667.730
297.833	22.253	849.043	667.780
298.847	21.881	848.094	665.566
299.862	21.622	847.320	663.917
300.876	21.860	846.356	664.005
301.891	22.144	846.078	664.799
302.906	22.171	845.390	664.302
303.920	21.812	844.529	662.211
304.935	21.578	843.652	660.582
305.949	21.982	843.491	661.924
306.964	22.064	843.124	661.887
307.979	21.947	842.166	660.633
308.993	21.727	842.202	659.776
310.008	22.163	841.801	661.043
311.022	22.238	841.150	660.755
312.037	21.990	841.044	659.680
313.052	21.983	839.797	658.618
314.066	21.754	839.111	657.165
315.081	21.177	837.805	653.923
316.095	20.429	836.593	650.119
317.110	20.995	837.005	652.500
318.125	21.959	836.879	655.951
319.139	21.327	836.055	652.886
320.154	20.404	834.092	647.852
321.168	19.913	833.339	645.380
322.183	20.550	833.554	647.864
323.197	21.409	834.038	651.385
324.212	21.689	833.558	651.997
325.227	21.834	833.489	652.425
326.241	21.925	832.734	652.112
327.256	21.846	832.148	651.303
328.270	21.726	831.825	650.548
329.285	21.684	830.758	649.500
330.300	21.584	829.649	648.204
331.314	21.367	828.814	646.691
332.329	21.435	828.334	646.512
333.343	21.853	828.308	647.980
334.358	21.983	827.761	647.975
335.373	22.114	827.460	648.166
336.387	22.132	826.715	647.590
337.402	22.242	826.882	648.070
338.416	22.434	826.216	648.198
339.431	22.427	825.359	647.439
340.446	22.533	824.931	647.436
341.460	22.615	824.859	647.626
342.475	22.627	823.945	646.893
343.489	22.341	823.160	645.171
344.504	22.287	822.698	644.554
345.519	22.343	822.524	644.566
346.533	22.792	822.436	646.086
347.548	22.717	821.877	645.315
348.562	22.851	821.024	645.078
349.577	22.801	820.626	644.523
350.592	22.782	820.296	644.138
351.606	22.582	819.620	642.822
352.621	22.711	819.067	642.800
353.635	22.635	818.458	641.990
354.650	22.637	817.858	641.470
355.665	22.333	816.755	639.442
356.679	21.255	815.171	634.235
357.694	21.101	814.793	633.324
358.708	21.877	814.258	635.665
359.723	21.758	814.249	635.173
360.738	22.011	813.767	635.657
361.752	22.339	813.849	636.852
362.767	22.509	813.456	637.103
363.781	22.843	813.429	638.234
364.796	22.918	813.439	638.455
365.810	22.985	812.953	638.259
366.825	23.200	812.260	638.432
367.840	23.159	811.902	637.947
368.854	23.050	811.289	637.019
369.869	22.529	810.543	634.498
370.883	22.419	809.685	633.374
371.898	22.494	809.371	633.345
372.913	22.449	808.440	632.396
373.927	22.493	807.938	632.108
374.942	22.618	807.301	631.999
375.956	22.710	806.866	631.935
376.971	22.853	806.374	632.006
377.986	22.908	805.964	631.825
379.000	23.124	805.487	632.165
380.015	23.095	805.201	631.781
381.029	22.785	804.570	630.126
382.044	22.939	803.936	630.123
383.059	22.960	803.268	629.616
384.073	23.060	802.639	629.425
385.088	23.092	802.464	629.344
386.102	23.160	801.727	628.955
387.117	22.976	801.133	627.779
388.132	22.836	800.515	626.743
389.146	22.756	799.985	625.988
390.161	22.224	799.096	623.350
391.175	22.244	798.810	623.142
392.190	22.633	798.689	624.369
393.205	22.797	798.064	624.406
394.219	21.822	796.380	619.591
395.234	20.217	794.265	612.231
396.248	19.493	793.393	608.953
397.263	20.554	794.227	613.283
398.278	22.513	795.501	621.125
399.292	22.815	795.430	622.081
400.307	22.529	794.437	620.243
401.321	22.458	794.347	619.866
402.336	22.470	794.235	619.768
403.350	22.850	793.817	620.723
404.365	23.041	794.089	621.550
405.380	23.559	793.200	622.619
406.394	23.650	793.123	622.821
407.409	23.846	792.842	623.233
408.423	23.787	792.207	622.472
409.438	23.746	791.622	621.816
410.453	23.683	791.322	621.303
411.467	23.795	790.802	621.231
412.482	23.770	790.318	620.710
413.496	23.738	789.742	620.090
414.511	23.924	789.074	620.159
415.526	23.682	788.767	619.021
416.540	23.880	788.638	619.554
417.555	23.803	788.119	618.824
418.569	23.415	787.402	616.857
419.584	23.245	787.199	616.050
420.599	23.328	786.788	615.963
421.613	157.502	1365.121	1800.104
422.628	136.274	1449.361	1800.194
