DTS Sentinel unit serial number:	SN413079Multiplexer serial number:	ORYXHardware model number:	OX4-SRSoftware version number:	ORYX F/W v4.00 Oryx Data Collector v3.7.2.0data status	okinstallation	princeton_trtdifferential loss correction	single-endedforward channel	channel 3reverse channel	N/Adate	2019/09/11time	23:14:10forward acquisition time	60.00reverse acquisition time	0.00gamma	496.2192k internal	0.2317k external	0.2317temperature offset calibration	1.0051default loss term (dB/km)	0.3790temperature slope calibration	1.0000multiplexer offset coefficient	1.0000multiplexer slope coefficient	1.0000fibre end	0.00T internal ref (°C)	34.44T ext. ref 1 (°C)	1.85T ext. ref 2 (°C)	28.45length (m)	temperature (°C)	Stokes	anti-Stokes-747.200	41.806	0.177	-0.162
-746.185	50.881	0.337	0.323
-745.171	19.783	0.320	0.261
-744.156	-141.069	0.346	0.036
-743.142	-36.525	-0.183	0.100
-742.127	-200.000	-0.009	0.236
-741.112	99.580	-0.220	0.258
-740.098	258.544	-0.260	0.454
-739.083	-200.000	-0.019	-0.146
-738.069	-52.242	-0.171	0.080
-737.054	-105.621	-0.151	0.035
-736.039	47.352	0.034	-0.032
-735.025	800.000	0.048	-0.158
-734.010	308.149	-0.171	-0.323
-732.996	800.000	0.035	-0.108
-731.981	-36.829	0.154	0.084
-730.966	230.475	0.349	0.578
-729.952	-200.000	0.015	-0.215
-728.937	105.923	0.023	-0.027
-727.923	-200.000	0.007	-0.210
-726.908	-200.000	-0.025	-0.164
-725.894	37.672	0.127	-0.114
-724.879	-102.346	-0.179	-0.043
-723.864	-12.199	0.226	0.150
-722.850	-66.993	-0.232	-0.093
-721.835	103.104	0.177	-0.210
-720.821	-200.000	-0.019	-0.170
-719.806	331.234	-0.097	0.190
-718.791	32.346	-0.086	0.075
-717.777	388.029	-0.151	0.316
-716.762	-21.808	-0.312	0.192
-715.748	-9.105	-0.164	0.111
-714.733	-200.000	-0.019	-0.302
-713.718	800.000	-0.035	0.128
-712.704	424.505	-0.162	-0.353
-711.689	-5.108	-0.228	0.158
-710.675	-189.450	-0.337	0.004
-709.660	800.000	-0.044	0.145
-708.645	-80.237	-0.104	-0.035
-707.631	484.681	-0.061	-0.140
-706.616	333.298	-0.127	-0.248
-705.602	-200.000	0.017	-0.238
-704.587	-66.903	-0.109	0.043
-703.572	-4.017	0.040	-0.028
-702.558	5.304	0.256	0.191
-701.543	65.378	0.071	0.072
-700.529	800.000	0.059	0.176
-699.514	64.307	-0.060	-0.061
-698.499	-43.309	0.305	-0.156
-697.485	-90.574	-0.219	-0.064
-696.470	83.166	-0.083	-0.092
-695.456	-4.819	-0.089	-0.062
-694.441	-103.540	0.137	-0.033
-693.426	-42.292	0.036	0.019
-692.412	38.760	0.226	0.204
-691.397	-134.949	0.318	0.039
-690.383	5.989	-0.284	0.213
-689.368	95.616	0.048	0.056
-688.354	428.101	-0.133	-0.291
-687.339	-200.000	-0.018	-0.101
-686.324	-150.089	0.274	0.021
-685.310	328.118	-0.041	-0.079
-684.295	102.007	0.111	-0.131
-683.281	130.000	0.191	-0.247
-682.266	-77.707	0.180	0.063
-681.251	-137.133	0.169	-0.019
-680.237	-200.000	0.037	0.338
-679.222	-54.326	0.123	0.056
-678.208	-78.508	0.190	-0.066
-677.193	800.000	0.044	-0.150
-676.178	-75.037	0.338	0.122
-675.164	75.089	-0.088	-0.094
-674.149	40.986	-0.082	-0.075
-673.135	800.000	0.145	-0.430
-672.120	-30.661	-0.248	-0.142
-671.105	-146.781	-0.269	0.023
-670.091	-6.922	-0.147	0.101
-669.076	800.000	-0.065	-0.186
-668.062	-122.890	0.208	-0.034
-667.047	104.613	-0.107	-0.127
-666.032	110.438	-0.056	-0.068
-665.018	-84.670	0.049	0.016
-664.003	800.000	0.045	-0.180
-662.989	800.000	0.109	0.427
-661.974	66.327	0.271	-0.278
-660.959	800.000	0.067	-0.190
-659.945	50.947	0.265	-0.253
-658.930	4.799	0.241	0.179
-657.916	105.774	-0.047	0.056
-656.901	-98.741	0.284	0.073
-655.886	-200.000	-0.010	0.119
-654.872	800.000	-0.026	0.107
-653.857	-200.000	0.006	0.045
-652.843	-77.293	0.168	0.059
-651.828	-92.095	0.402	0.115
-650.814	-20.048	-0.089	-0.055
-649.799	-163.290	0.248	0.012
-648.784	-77.288	-0.102	-0.036
-647.770	-0.610	-0.129	-0.092
-646.755	51.312	0.189	-0.181
-645.741	800.000	0.039	0.117
-644.726	-200.000	0.043	0.271
-643.711	-8.520	0.197	0.133
-642.697	-150.750	-0.155	-0.012
-641.682	-200.000	-0.004	0.034
-640.668	-200.000	0.007	0.073
-639.653	800.000	-0.113	0.318
-638.638	211.269	-0.031	-0.050
-637.624	652.931	0.121	0.312
-636.609	88.710	-0.110	0.124
-635.595	-72.495	-0.104	-0.039
-634.580	-132.632	-0.149	-0.019
-633.565	-200.000	-0.004	0.190
-632.551	-48.953	-0.252	0.122
-631.536	-82.638	0.302	-0.098
-630.522	417.213	-0.148	-0.319
-629.507	-200.000	-0.034	-0.247
-628.492	175.458	-0.070	0.102
-627.478	60.584	0.075	-0.075
-626.463	-41.577	0.318	0.165
-625.449	-200.000	-0.033	-0.214
-624.434	300.746	-0.082	0.153
-623.419	56.388	-0.180	-0.177
-622.405	70.365	0.050	-0.052
-621.390	156.062	-0.026	0.036
-620.376	-200.000	-0.033	0.211
-619.361	123.939	0.134	0.170
-618.346	163.020	0.205	-0.290
-617.332	31.283	0.070	0.061
-616.317	-90.140	0.398	0.117
-615.303	750.113	0.112	0.303
-614.288	-200.000	-0.015	-0.133
-613.273	450.552	0.157	0.350
-612.259	501.748	-0.136	0.317
-611.244	-58.274	-0.195	-0.085
-610.230	-200.000	-0.060	-0.381
-609.215	121.882	-0.182	-0.228
-608.201	-200.000	0.052	-0.306
-607.186	130.002	-0.150	0.194
-606.171	-7.052	-0.269	0.184
-605.157	-36.287	-0.193	-0.105
-604.142	8.437	-0.083	-0.063
-603.128	348.173	-0.139	-0.276
-602.113	-111.647	-0.297	0.061
-601.098	-200.000	0.016	-0.326
-600.084	-164.706	0.264	0.012
-599.069	-182.208	-0.135	-0.003
-598.055	-39.858	-0.228	-0.120
-597.040	-10.650	0.038	-0.025
-596.025	-44.388	0.106	0.053
-595.011	4.348	-0.217	0.160
-593.996	-200.000	-0.053	-0.267
-592.982	-86.457	0.399	-0.123
-591.967	547.478	0.036	0.086
-590.952	-129.474	0.076	0.011
-589.938	800.000	0.085	0.259
-588.923	572.161	-0.132	-0.323
-587.909	239.902	-0.015	-0.025
-586.894	-16.376	-0.118	0.075
-585.879	-117.661	-0.134	-0.024
-584.865	35.270	0.132	0.117
-583.850	-91.478	0.364	0.105
-582.836	-139.927	0.163	-0.017
-581.821	-200.000	0.020	-0.429
-580.806	800.000	-0.084	-0.341
-579.792	-93.854	-0.257	0.071
-578.777	18.956	-0.313	0.253
-577.763	-200.000	0.016	0.225
-576.748	213.660	-0.137	0.217
-575.733	263.329	-0.045	-0.079
-574.719	41.192	-0.092	0.083
-573.704	-78.956	0.032	0.011
-572.690	90.531	-0.249	0.281
-571.675	-150.162	0.367	-0.029
-570.661	-118.300	-0.283	-0.051
-569.646	386.083	0.046	-0.096
-568.631	-52.355	-0.083	0.039
-567.617	-70.348	0.023	-0.009
-566.602	137.076	-0.100	0.132
-565.588	-2.102	0.185	-0.131
-564.573	-200.000	0.034	-0.181
-563.558	414.071	0.096	0.206
-562.544	-15.587	-0.106	0.068
-561.529	800.000	0.033	-0.112
-560.515	117.276	-0.160	-0.198
-559.500	-200.000	-0.019	-0.275
-558.485	800.000	0.094	-0.265
-557.471	153.640	-0.207	-0.285
-556.456	111.675	-0.112	0.136
-555.442	-101.016	0.289	-0.071
-554.427	-75.868	-0.117	0.041
-553.412	-200.000	-0.006	-0.172
-552.398	-37.434	-0.170	-0.091
-551.383	-200.000	-0.035	-0.313
-550.369	218.474	-0.188	0.302
-549.354	120.204	0.020	-0.025
-548.339	-25.140	-0.161	-0.096
-547.325	-68.336	0.227	0.089
-546.310	369.514	0.184	-0.375
-545.296	-200.000	0.017	-0.175
-544.281	-200.000	-0.024	-0.305
-543.266	-119.069	0.078	0.014
-542.252	169.677	-0.103	-0.148
-541.237	-200.000	-0.021	-0.211
-540.223	-200.000	0.001	0.066
-539.208	1.374	0.263	0.190
-538.193	800.000	0.061	-0.246
-537.179	-200.000	0.053	0.650
-536.164	-43.102	0.176	-0.090
-535.150	-200.000	-0.092	0.000
-534.135	109.776	-0.149	0.179
-533.121	3.338	-0.085	-0.062
-532.106	-72.397	0.362	-0.135
-531.091	-5.454	-0.075	-0.052
-530.077	80.962	0.123	-0.133
-529.062	800.000	0.014	0.043
-528.048	26.980	0.120	-0.101
-527.033	238.021	-0.047	0.078
-526.018	-51.930	0.323	0.151
-525.004	-56.685	-0.009	-0.004
-523.989	-158.346	-0.360	0.021
-522.975	-200.000	0.054	-0.422
-521.960	-200.000	-0.148	-0.001
-520.945	40.769	0.185	-0.167
-519.931	-159.806	0.413	0.023
-518.916	-200.000	-0.005	0.319
-517.902	85.859	-0.225	0.249
-516.887	-17.646	-0.134	-0.084
-515.872	-200.000	0.036	0.227
-514.858	86.080	0.290	-0.321
-513.843	-60.760	-0.123	0.052
-512.829	-5.732	-0.106	-0.073
-511.814	-200.000	0.039	-0.389
-510.799	65.823	-0.211	-0.215
-509.785	800.000	-0.031	0.111
-508.770	357.186	0.189	-0.379
-507.756	-24.475	0.247	-0.148
-506.741	-146.083	-0.238	0.021
-505.726	-111.575	0.165	0.034
-504.712	-0.436	0.092	0.066
-503.697	-164.455	-0.262	0.012
-502.683	134.184	-0.189	-0.246
-501.668	408.297	-0.073	-0.155
-500.653	-54.510	0.199	0.091
-499.639	-84.337	-0.273	-0.087
-498.624	-107.079	-0.109	-0.024
-497.610	-0.183	-0.226	-0.161
-496.595	117.275	0.165	0.203
-495.581	-200.000	0.017	0.301
-494.566	279.650	-0.131	-0.235
-493.551	800.000	0.064	-0.182
-492.537	163.144	0.118	0.167
-491.522	-83.167	-0.337	-0.109
-490.508	-200.000	-0.023	-0.187
-489.493	-132.889	0.209	0.027
-488.478	147.002	-0.055	-0.075
-487.464	-88.308	-0.186	0.056
-486.449	441.129	-0.269	0.590
-485.435	800.000	0.038	0.156
-484.420	0.137	-0.141	-0.101
-483.405	-124.801	-0.082	-0.013
-482.391	178.061	0.050	-0.073
-481.376	800.000	-0.086	0.250
-480.362	-15.161	0.186	0.119
-479.347	-81.457	0.135	0.044
-478.332	-200.000	0.055	0.262
-477.318	43.140	0.281	0.257
-476.303	299.958	-0.088	0.162
-475.289	-22.781	0.073	0.044
-474.274	-200.000	0.035	-0.371
-473.259	-200.000	0.051	0.590
-472.245	-28.824	-0.067	0.039
-471.230	-160.370	-0.140	0.008
-470.216	800.000	0.066	-0.218
-469.201	41.511	0.154	-0.140
-468.186	-2.209	-0.353	-0.248
-467.172	-200.000	-0.010	0.291
-466.157	88.755	-0.280	0.312
-465.143	115.283	-0.188	0.230
-464.128	365.153	-0.100	0.201
-463.113	-200.000	-0.068	-0.373
-462.099	-92.932	0.517	0.144
-461.084	-89.086	-0.221	-0.065
-460.070	26.835	0.205	0.172
-459.055	299.444	-0.004	-0.007
-458.040	800.000	-0.036	0.147
-457.026	450.960	-0.227	-0.501
-456.011	133.085	-0.144	-0.187
-454.997	-183.080	0.132	0.002
-453.982	-200.000	0.005	0.091
-452.968	71.107	-0.052	-0.054
-451.953	-200.000	-0.026	0.429
-450.938	213.116	0.109	0.172
-449.924	96.808	-0.160	-0.183
-448.909	-200.000	-0.017	0.201
-447.895	-200.000	-0.027	-0.183
-446.880	-8.707	-0.168	0.113
-445.865	-131.113	-0.190	0.025
-444.851	260.728	0.054	0.093
-443.836	-118.624	-0.361	0.064
-442.822	-64.214	-0.276	-0.112
-441.807	-200.000	-0.030	-0.203
-440.792	-200.000	-0.010	-0.077
-439.778	-22.892	-0.160	0.096
-438.763	-1.644	0.178	0.125
-437.749	149.426	-0.161	0.218
-436.734	-200.000	0.037	-0.282
-435.719	-25.053	-0.162	-0.096
-434.705	-1.778	0.336	0.237
-433.690	100.041	0.108	-0.125
-432.676	-200.000	-0.037	-0.289
-431.661	-149.973	-0.268	-0.021
-430.646	-74.847	-0.154	0.055
-429.632	490.092	0.141	0.323
-428.617	239.703	0.182	0.303
-427.603	29.019	-0.214	-0.181
-426.588	-65.971	-0.279	-0.111
-425.573	119.092	0.079	-0.098
-424.559	-5.089	0.305	0.210
-423.544	-110.206	-0.245	0.051
-422.530	46.692	0.181	0.168
-421.515	24.214	0.168	-0.139
-420.500	-128.313	-0.114	0.016
-419.486	533.987	0.056	-0.132
-418.471	-56.337	-0.091	-0.041
-417.457	-94.831	-0.016	-0.004
-416.442	74.332	-0.091	0.095
-415.428	-24.087	-0.124	-0.074
-414.413	789.905	0.012	0.034
-413.398	-76.235	-0.042	0.015
-412.384	159.952	-0.121	-0.169
-411.369	-200.000	-0.034	-0.244
-410.355	-103.076	-0.157	-0.037
-409.340	-200.000	0.001	0.195
-408.325	114.593	-0.083	-0.101
-407.311	109.551	-0.207	-0.248
-406.296	800.000	0.099	-0.354
-405.282	12.252	0.043	-0.033
-404.267	-200.000	-0.050	0.234
-403.252	183.852	0.150	0.222
-402.238	105.966	-0.137	0.162
-401.223	17.696	0.168	-0.133
-400.209	-200.000	-0.004	0.140
-399.194	-11.589	-0.292	0.192
-398.179	-0.056	-0.295	-0.210
-397.165	0.495	-0.170	0.121
-396.150	-19.322	-0.167	0.103
-395.136	-200.000	-0.015	-0.247
-394.121	-200.000	-0.053	-0.257
-393.106	800.000	0.020	-0.080
-392.092	800.000	-0.041	0.176
-391.077	-137.376	0.311	-0.035
-390.063	174.954	0.088	-0.128
-389.048	-125.799	-0.477	-0.072
-388.033	-200.000	0.033	0.318
-387.019	304.644	0.264	0.488
-386.004	-145.927	0.062	-0.006
-384.990	-129.761	0.112	-0.015
-383.975	-105.492	0.279	-0.063
-382.960	-128.354	0.385	-0.055
-381.946	-178.057	-0.193	0.005
-380.931	88.527	0.069	0.077
-379.917	-49.759	-0.011	-0.005
-378.902	-200.000	0.119	-0.000
-377.888	134.369	0.112	-0.144
-376.873	185.650	-0.292	0.432
-375.858	32.851	0.171	-0.148
-374.844	205.932	-0.109	-0.169
-373.829	179.996	0.103	-0.150
-372.815	-42.177	-0.103	0.052
-371.800	800.000	0.057	0.220
-370.785	-200.000	0.000	-0.110
-369.771	105.952	-0.230	-0.272
-368.756	-81.028	0.198	-0.066
-367.742	87.396	0.083	0.091
-366.727	726.237	0.135	0.359
-365.712	-30.695	0.094	0.053
-364.698	258.992	-0.081	-0.139
-363.683	-148.431	-0.089	0.007
-362.669	-48.696	-0.028	-0.013
-361.654	-80.623	0.055	-0.018
-360.639	800.000	-0.075	0.299
-359.625	800.000	-0.058	0.189
-358.610	-200.000	-0.047	0.340
-357.596	81.935	0.163	-0.176
-356.581	-183.548	0.311	-0.005
-355.566	248.221	0.204	0.344
-354.552	-157.750	0.065	-0.004
-353.537	-200.000	-0.014	-0.077
-352.523	-64.290	0.196	-0.079
-351.508	375.985	0.043	0.087
-350.493	800.000	0.074	-0.267
-349.479	64.811	0.125	-0.126
-348.464	-63.074	0.408	0.168
-347.450	133.141	-0.073	0.093
-346.435	-99.880	-0.123	-0.031
-345.420	-4.857	0.217	0.149
-344.406	800.000	-0.031	-0.089
-343.391	-169.568	0.242	-0.009
-342.377	105.839	0.171	0.202
-341.362	6.375	-0.198	-0.146
-340.348	-36.642	0.312	0.167
-339.333	203.803	-0.060	0.092
-338.318	-200.000	0.070	0.311
-337.304	356.474	-0.090	-0.180
-336.289	-200.000	0.025	-0.111
-335.275	-175.210	0.053	0.001
-334.260	-200.000	0.061	0.436
-333.245	-200.000	-0.006	0.154
-332.231	532.698	-0.109	-0.257
-331.216	254.513	0.117	0.199
-330.202	-81.801	0.243	-0.079
-329.187	-155.128	0.173	-0.011
-328.172	-137.089	0.198	-0.023
-327.158	-82.485	0.349	0.113
-326.143	-29.738	0.142	0.081
-325.129	570.778	0.094	0.228
-324.114	-200.000	0.019	-0.314
-323.099	463.777	-0.097	-0.215
-322.085	-14.992	-0.249	-0.159
-321.070	134.023	0.175	0.226
-320.056	800.000	0.069	0.246
-319.041	-200.000	-0.056	-0.289
-318.026	-200.000	-0.011	-0.136
-317.012	483.733	0.132	-0.298
-315.997	117.760	0.299	-0.366
-314.983	800.000	-0.040	-0.165
-313.968	350.757	0.103	0.203
-312.953	379.023	0.059	-0.120
-311.939	72.558	0.046	-0.048
-310.924	-200.000	0.017	-0.083
-309.910	339.558	0.103	0.200
-308.895	68.423	-0.111	-0.113
-307.880	136.556	0.101	0.131
-306.866	87.212	0.141	0.156
-305.851	9.900	-0.221	-0.167
-304.837	800.000	-0.050	-0.183
-303.822	-200.000	0.008	0.138
-302.807	-158.389	-0.075	-0.004
-301.793	-200.000	0.024	-0.175
-300.778	12.098	0.247	-0.189
-299.764	150.823	-0.124	0.168
-298.749	219.908	-0.113	0.180
-297.735	-146.184	0.246	-0.022
-296.720	278.361	-0.017	-0.030
-295.705	-20.341	-0.146	-0.089
-294.691	-200.000	-0.006	-0.029
-293.676	129.070	0.310	-0.394
-292.662	55.298	0.168	-0.161
-291.647	25.632	0.158	-0.131
-290.632	318.400	0.032	0.060
-289.618	25.483	0.093	-0.077
-288.603	-200.000	0.007	-0.302
-287.589	-53.244	0.111	0.051
-286.574	93.725	-0.054	0.060
-285.559	-8.259	0.119	0.080
-284.545	112.873	0.139	-0.168
-283.530	304.434	-0.106	-0.196
-282.516	-200.000	-0.037	-0.220
-281.501	-89.927	-0.315	-0.092
-280.486	-85.594	-0.191	-0.059
-279.472	-36.827	0.211	0.113
-278.457	-99.042	0.051	-0.013
-277.443	201.260	0.147	0.225
-276.428	-71.095	-0.107	0.040
-275.413	-9.104	0.007	-0.004
-274.399	-200.000	-0.005	-0.070
-273.384	-200.000	0.004	0.045
-272.370	-200.000	0.000	0.052
-271.355	93.706	-0.133	-0.150
-270.340	-116.840	0.149	-0.027
-269.326	-42.955	0.385	-0.194
-268.311	-200.000	0.098	0.438
-267.297	-69.703	0.141	0.054
-266.282	191.820	0.182	-0.273
-265.267	800.000	0.045	0.163
-264.253	554.045	0.132	0.315
-263.238	-98.409	0.106	0.027
-262.224	-114.269	-0.056	0.011
-261.209	-78.525	0.287	-0.097
-260.195	-136.902	0.031	-0.004
-259.180	-82.234	0.229	-0.074
-258.165	97.869	0.131	0.149
-257.151	-143.941	-0.252	0.024
-256.136	-156.165	-0.254	-0.016
-255.122	-200.000	0.015	-0.112
-254.107	277.060	-0.088	-0.156
-253.092	105.043	-0.210	0.246
-252.078	-125.155	0.068	-0.010
-251.063	96.190	-0.122	-0.138
-250.049	-168.121	0.131	-0.005
-249.034	149.569	-0.229	0.309
-248.019	-200.000	-0.050	0.244
-247.005	391.035	-0.134	0.276
-245.990	-200.000	-0.020	-0.210
-244.976	-200.000	-0.023	0.166
-243.961	-78.028	-0.179	0.061
-242.946	-142.846	-0.498	-0.048
-241.932	-200.000	-0.003	-0.145
-240.917	-62.941	0.154	0.063
-239.903	-67.982	0.098	-0.038
-238.888	27.620	-0.132	0.111
-237.873	-3.093	0.083	-0.058
-236.859	800.000	0.020	-0.056
-235.844	-0.448	0.069	-0.049
-234.830	-19.206	-0.329	0.203
-233.815	23.298	-0.141	-0.115
-232.800	800.000	0.032	0.115
-231.786	352.459	0.168	0.331
-230.771	239.590	-0.116	0.191
-229.757	-114.573	-0.347	-0.066
-228.742	-106.659	-0.394	-0.087
-227.727	14.558	-0.134	-0.104
-226.713	493.100	0.150	-0.342
-225.698	-68.103	-0.044	0.017
-224.684	174.774	-0.130	0.187
-223.669	-116.413	-0.160	0.029
-222.655	-49.078	-0.078	-0.037
-221.640	256.901	-0.055	0.094
-220.625	-200.000	-0.005	0.098
-219.611	-200.000	-0.034	-0.172
-218.596	450.010	-0.118	0.257
-217.582	-173.312	-0.127	0.004
-216.567	-124.016	0.324	0.051
-215.552	-134.111	-0.182	-0.022
-214.538	-200.000	-0.010	-0.047
-213.523	177.324	0.261	-0.377
-212.509	-84.550	-0.422	-0.132
-211.494	-200.000	0.012	0.139
-210.479	286.270	-0.245	-0.438
-209.465	800.000	-0.026	0.074
-208.450	-200.000	-0.012	0.136
-207.436	-86.960	0.232	0.070
-206.421	331.740	-0.122	0.233
-205.406	-151.545	0.186	0.014
-204.392	-59.231	-0.052	0.022
-203.377	-140.019	-0.116	0.012
-202.363	-148.891	0.135	0.011
-201.348	61.191	0.017	-0.017
-200.333	522.266	-0.008	0.019
-199.319	-200.000	-0.024	-0.161
-198.304	-16.298	-0.267	0.168
-197.290	25.841	-0.357	0.295
-196.275	187.215	-0.169	0.250
-195.260	312.706	0.183	-0.340
-194.246	447.591	0.029	-0.064
-193.231	-158.754	-0.330	-0.019
-192.217	23.190	-0.149	0.121
-191.202	261.519	0.218	0.374
-190.187	-174.760	0.169	0.005
-189.173	-140.801	-0.180	0.018
-188.158	-200.000	0.016	-0.295
-187.144	-200.000	0.040	-0.240
-186.129	-200.000	-0.023	-0.265
-185.114	441.086	0.109	0.237
-184.100	800.000	-0.065	0.181
-183.085	51.612	-0.181	0.171
-182.071	-200.000	-0.043	0.222
-181.056	-101.107	0.313	0.076
-180.042	23.788	-0.287	-0.234
-179.027	800.000	0.030	-0.121
-178.012	-44.890	-0.090	0.045
-176.998	257.238	0.195	0.333
-175.983	-42.093	0.255	0.129
-174.969	-160.131	0.148	0.008
-173.954	-200.000	0.037	-0.242
-172.939	49.973	-0.142	0.133
-171.925	81.878	-0.124	-0.132
-170.910	800.000	0.038	-0.156
-169.896	-93.869	0.167	0.045
-168.881	59.920	0.121	0.118
-167.866	34.065	-0.103	-0.089
-166.852	-38.547	0.133	0.070
-165.837	-63.743	0.280	-0.114
-164.823	-149.219	0.266	-0.021
-163.808	200.058	0.130	-0.198
-162.793	-157.700	0.410	0.024
-161.779	250.855	-0.107	0.180
-160.764	244.235	0.065	0.109
-159.750	-128.072	0.368	0.052
-158.735	800.000	0.057	-0.221
-157.720	755.576	0.024	-0.064
-156.706	683.326	-0.120	-0.308
-155.691	-114.328	0.140	0.027
-154.677	99.877	-0.212	0.243
-153.662	-97.516	-0.264	0.068
-152.647	-98.430	0.156	-0.040
-151.633	-126.022	0.088	-0.013
-150.618	201.906	-0.096	0.146
-149.604	-99.194	0.302	0.075
-148.589	-200.000	-0.007	0.068
-147.574	-19.925	0.031	0.019
-146.560	-154.810	-0.190	0.012
-145.545	-90.315	-0.301	0.086
-144.531	-87.153	-0.052	-0.016
-143.516	52.254	0.235	-0.222
-142.502	25.174	-0.094	0.077
-141.487	57.006	-0.094	0.091
-140.472	-72.980	-0.164	0.060
-139.458	792.384	0.116	-0.314
-138.443	2.896	0.220	-0.158
-137.429	800.000	0.048	-0.207
-136.414	224.099	0.096	0.153
-135.399	171.417	-0.041	0.058
-134.385	-98.893	-0.643	0.161
-133.370	-41.481	0.041	0.021
-132.356	-83.117	0.229	-0.073
-131.341	-42.713	-0.316	0.159
-130.326	-36.278	-0.243	-0.129
-129.312	349.345	0.035	-0.067
-128.297	84.785	-0.066	0.071
-127.283	640.793	0.024	-0.061
-126.268	-200.000	-0.172	0.000
-125.253	800.000	0.091	-0.331
-124.239	-164.808	-0.070	0.003
-123.224	-200.000	0.047	0.241
-122.210	-43.456	-0.123	0.061
-121.195	154.936	0.111	-0.151
-120.180	-58.565	-0.117	0.050
-119.166	-28.535	-0.059	0.034
-118.151	274.358	-0.095	-0.166
-117.137	-152.336	0.185	-0.013
-116.122	-200.000	0.012	0.052
-115.107	90.105	0.065	0.072
-114.093	-200.000	0.016	-0.095
-113.078	295.257	0.067	-0.120
-112.064	-200.000	0.027	-0.131
-111.049	800.000	0.045	0.166
-110.034	800.000	-0.085	0.328
-109.020	384.945	-0.113	-0.229
-108.005	214.753	-0.182	0.285
-106.991	-200.000	-0.114	-0.496
-105.976	50.184	-0.185	0.173
-104.962	169.184	0.049	-0.068
-103.947	-93.133	-0.383	0.105
-102.932	-39.652	0.298	-0.154
-101.918	-108.700	-0.226	-0.048
-100.903	-170.891	0.321	-0.011
-99.889	175.689	-0.054	-0.078
-98.874	56.506	-0.063	-0.060
-97.859	-61.461	-0.213	-0.089
-96.845	-200.000	0.027	0.118
-95.830	-75.498	0.112	-0.039
-94.816	244.920	0.274	-0.455
-93.801	16.591	0.134	0.105
-92.786	172.051	-0.214	-0.304
-91.772	322.604	0.254	-0.477
-90.757	-200.000	0.039	0.267
-89.743	-200.000	0.009	-0.066
-88.728	-200.000	-0.005	0.039
-87.713	-152.890	0.330	-0.023
-86.699	-156.585	-0.261	0.016
-85.684	-102.306	-0.261	0.062
-84.670	57.765	-0.063	0.061
-83.655	-85.594	0.324	-0.100
-82.640	-116.731	-0.229	-0.042
-81.626	-200.000	-0.019	-0.256
-80.611	-150.906	0.087	0.007
-79.597	-10.778	-0.200	-0.130
-78.582	476.165	0.061	0.137
-77.567	800.000	0.091	-0.350
-76.553	315.234	-0.020	-0.037
-75.538	-200.000	0.021	-0.194
-74.524	444.686	0.090	0.194
-73.509	-200.000	0.020	0.197
-72.494	382.375	0.047	0.096
-71.480	-7.196	0.199	-0.133
-70.465	-149.233	0.173	0.014
-69.451	-200.000	0.035	0.177
-68.436	-200.000	-0.025	0.505
-67.422	-141.655	0.178	-0.018
-66.407	-73.608	0.344	-0.124
-65.392	-163.914	0.049	-0.002
-64.378	-112.812	-0.099	-0.019
-63.363	800.000	-0.081	-0.262
-62.349	57.930	0.179	-0.172
-61.334	274.655	-0.576	-1.006
-60.319	25.352	0.562	0.460
-59.305	550.208	-0.306	-0.723
-58.290	101.678	0.664	0.763
-57.276	709.181	0.590	1.537
-56.261	-200.000	98.215	590.187
-55.246	553.433	1393.390	3301.312
-54.232	153.473	2590.204	3495.478
-53.217	114.021	2177.980	2610.571
-52.203	44.951	1713.889	1555.207
-51.188	37.619	1526.311	1334.898
-50.173	35.207	1499.274	1294.927
-49.159	55.076	1550.924	1476.536
-48.144	58.543	1569.158	1517.624
-47.130	37.975	1524.163	1335.244
-46.115	34.726	1508.463	1299.384
-45.100	34.597	1505.634	1296.019
-44.086	34.445	1504.296	1293.783
-43.071	34.498	1501.953	1292.078
-42.057	34.424	1500.473	1290.250
-41.042	34.422	1499.172	1289.068
-40.027	34.477	1497.776	1288.188
-39.013	34.418	1496.224	1286.405
-37.998	34.405	1495.109	1285.310
-36.984	34.344	1494.164	1284.030
-35.969	34.548	1492.417	1283.850
-34.954	34.393	1490.880	1281.441
-33.940	34.410	1489.444	1280.270
-32.925	34.345	1488.549	1279.013
-31.911	34.487	1486.897	1278.495
-30.896	34.615	1485.336	1277.954
-29.881	34.557	1484.174	1276.519
-28.867	34.547	1482.644	1275.087
-27.852	34.480	1481.465	1273.574
-26.838	34.498	1480.145	1272.510
-25.823	34.424	1479.023	1271.002
-24.809	34.457	1477.399	1269.771
-23.794	34.383	1475.943	1267.976
-22.779	34.375	1474.913	1266.991
-21.765	34.431	1473.368	1265.987
-20.750	34.370	1472.918	1265.144
-19.736	34.359	1471.752	1264.021
-18.721	34.520	1470.206	1263.707
-17.706	34.521	1469.145	1262.748
-16.692	34.502	1468.030	1261.618
-15.677	34.420	1467.073	1260.203
-14.663	34.518	1466.115	1259.978
-13.648	34.462	1465.547	1259.068
-12.633	34.431	1464.426	1257.852
-11.619	34.327	1463.697	1256.490
-10.604	34.467	1462.660	1256.471
-9.590	34.443	1461.461	1255.234
-8.575	34.500	1461.142	1255.282
-7.560	34.419	1460.316	1253.995
-6.546	34.395	1459.673	1253.235
-5.531	34.334	1458.616	1251.878
-4.517	34.474	1457.289	1251.604
-3.502	34.436	1456.308	1250.463
-2.487	34.338	1455.728	1249.275
-1.473	34.395	1454.145	1248.237
-0.458	34.424	1453.065	1247.453
0.556	34.561	1443.736	1235.874
1.571	31.536	1418.101	1194.545
2.586	28.127	1357.754	1122.730
3.600	26.425	1276.529	1045.640
4.615	24.883	1230.125	998.943
5.629	21.124	1173.322	932.681
6.644	11.259	1086.106	814.231
7.659	3.157	1043.108	742.928
8.673	2.051	1036.955	733.172
9.688	1.881	1034.168	730.322
10.702	1.718	1032.183	728.075
11.717	1.731	1030.658	726.998
12.731	5.349	1035.189	747.453
13.746	15.473	1049.194	806.354
14.761	23.063	1058.579	850.134
15.775	24.725	1060.170	859.332
16.790	25.048	1059.667	860.396
17.804	24.789	1059.056	858.583
18.819	24.517	1058.623	856.848
19.834	24.723	1057.796	857.094
20.848	24.830	1057.237	857.075
21.863	24.912	1056.933	857.149
22.877	24.944	1056.568	856.928
23.892	24.913	1056.087	856.314
24.907	24.737	1055.396	854.837
25.921	24.780	1054.593	854.316
26.936	24.757	1053.841	853.518
27.950	24.806	1052.770	852.813
28.965	24.825	1051.494	851.794
29.980	24.537	1050.332	849.406
30.994	24.589	1048.854	848.383
32.009	24.762	1047.712	848.204
33.023	24.923	1047.377	848.621
34.038	24.780	1046.273	846.974
35.053	24.752	1045.313	845.990
36.067	24.789	1044.871	845.732
37.082	24.846	1043.929	845.165
38.096	24.956	1043.330	845.124
39.111	25.036	1042.792	844.990
40.126	25.069	1042.075	844.489
41.140	25.074	1040.675	843.304
42.155	24.669	1039.266	840.188
43.169	24.438	1037.810	837.852
44.184	24.299	1037.467	836.845
45.199	24.452	1036.351	836.591
46.213	24.399	1035.216	835.350
47.228	24.356	1034.255	834.300
48.242	24.692	1033.393	835.102
49.257	24.771	1032.746	834.875
50.271	24.581	1032.385	833.622
51.286	24.868	1031.297	834.005
52.301	24.898	1030.867	833.725
53.315	24.942	1029.712	832.924
54.330	24.872	1029.101	832.027
55.344	24.762	1028.691	831.111
56.359	24.887	1027.764	830.870
57.374	24.855	1027.069	830.084
58.388	24.710	1025.399	827.992
59.403	24.561	1025.035	826.935
60.417	24.553	1024.401	826.313
61.432	24.418	1023.528	824.909
62.447	24.530	1022.917	824.865
63.461	24.646	1022.567	825.042
64.476	24.540	1021.641	823.735
65.490	24.531	1021.171	823.242
66.505	24.429	1020.062	821.804
67.520	24.468	1019.573	821.519
68.534	24.557	1018.571	821.047
69.549	24.596	1017.149	820.005
70.563	24.177	1016.276	817.308
71.578	24.092	1015.340	816.094
72.593	24.216	1014.529	815.937
73.607	23.897	1013.631	813.682
74.622	23.908	1013.085	813.222
75.636	24.129	1012.223	813.468
76.651	24.385	1011.654	814.109
77.666	24.350	1010.580	813.012
78.680	24.291	1009.537	811.835
79.695	24.231	1009.065	811.111
80.709	24.347	1008.810	811.357
81.724	24.309	1008.378	810.768
82.739	24.416	1006.963	810.043
83.753	24.357	1006.690	809.487
84.768	24.655	1005.723	809.986
85.782	25.019	1004.973	810.959
86.797	25.119	1004.457	810.922
87.812	25.049	1003.715	809.938
88.826	24.952	1002.557	808.492
89.841	25.076	1001.816	808.383
90.855	25.263	1001.152	808.616
91.870	25.208	1000.059	807.414
92.884	25.009	999.436	805.947
93.899	25.042	998.638	805.381
94.914	25.011	997.544	804.287
95.928	24.979	997.033	803.661
96.943	25.077	996.121	803.295
97.957	24.844	994.639	800.984
98.972	24.514	993.959	798.888
99.987	24.572	992.533	797.932
101.001	24.352	992.576	796.912
102.016	24.701	991.909	797.864
103.030	24.702	991.418	797.406
104.045	24.826	989.584	796.411
105.060	24.585	988.629	794.497
106.074	24.335	987.813	792.663
107.089	24.551	986.955	792.863
108.103	24.814	986.734	793.781
109.118	24.846	986.080	793.330
110.133	24.586	984.717	791.010
111.147	24.423	983.166	788.974
112.162	24.383	982.560	788.239
113.176	24.158	981.888	786.638
114.191	24.404	980.788	786.771
115.206	24.420	980.108	786.226
116.220	24.280	978.508	784.259
117.235	24.000	977.900	782.470
118.249	24.184	977.182	782.635
119.264	24.261	976.606	782.441
120.279	24.195	975.452	781.161
121.293	24.136	974.988	780.462
122.308	24.234	974.416	780.362
123.322	24.374	973.569	780.227
124.337	24.174	972.459	778.396
125.352	24.136	971.631	777.500
126.366	23.821	969.470	774.326
127.381	23.430	968.012	771.394
128.395	23.943	968.344	773.821
129.410	24.651	967.949	776.517
130.424	24.745	967.674	776.632
131.439	24.653	966.324	775.085
132.454	24.821	965.034	774.708
133.468	24.721	964.535	773.805
134.483	24.640	963.844	772.835
135.497	24.772	963.082	772.725
136.512	24.920	962.578	772.890
137.527	24.927	961.631	772.090
138.541	25.068	960.907	772.048
139.556	24.942	960.377	771.011
140.570	24.995	959.333	770.334
141.585	24.896	959.114	769.663
142.600	25.005	958.044	769.208
143.614	25.003	956.931	768.236
144.629	24.974	956.283	767.525
145.643	25.201	955.868	768.095
146.658	25.231	954.533	767.081
147.673	24.918	953.524	764.866
148.687	24.904	952.238	763.707
149.702	24.769	951.668	762.608
150.716	24.800	950.265	761.549
151.731	24.770	948.946	760.294
152.746	24.769	948.749	760.065
153.760	25.027	948.040	760.527
154.775	25.192	947.338	760.598
155.789	25.121	946.847	759.834
156.804	25.072	945.755	758.681
157.819	24.896	944.872	757.161
158.833	24.934	944.298	756.797
159.848	25.144	943.642	757.092
160.862	25.230	942.706	756.635
161.877	25.195	941.725	755.631
162.892	25.043	940.600	754.024
163.906	25.079	940.340	753.902
164.921	25.095	938.987	752.817
165.935	25.126	937.649	751.808
166.950	25.173	937.068	751.472
167.964	25.044	936.316	750.261
168.979	25.049	935.192	749.315
169.994	25.036	934.226	748.421
171.008	24.855	932.570	746.276
172.023	25.098	931.960	746.732
173.037	25.391	931.173	747.256
174.052	25.095	930.824	745.675
175.067	24.796	929.496	743.306
176.081	24.852	928.321	742.534
177.096	24.828	928.105	742.194
178.110	25.001	927.375	742.260
179.125	24.683	926.265	739.993
180.140	24.382	925.524	738.088
181.154	24.598	924.328	737.962
182.169	24.577	924.254	737.750
183.183	24.804	924.042	738.454
184.198	25.110	923.775	739.437
185.213	24.874	923.190	737.930
186.227	25.030	922.206	737.722
187.242	25.100	921.832	737.646
188.256	25.133	921.246	737.248
189.271	24.998	920.781	736.254
190.286	25.210	919.741	736.228
191.300	25.054	918.680	734.672
192.315	24.410	917.414	730.958
193.329	23.874	915.231	726.964
194.344	23.514	914.645	724.964
195.359	23.937	915.253	727.112
196.373	24.700	915.396	730.276
197.388	25.149	915.063	731.780
198.402	24.967	914.363	730.413
199.417	24.915	913.832	729.714
200.432	24.958	913.357	729.442
201.446	24.830	912.948	728.531
202.461	24.562	911.887	726.532
203.475	24.737	911.104	726.553
204.490	24.265	909.760	723.501
205.504	23.103	907.757	717.139
206.519	23.400	907.936	718.419
207.534	24.393	908.154	722.553
208.548	24.611	907.636	722.957
209.563	24.967	907.339	724.098
210.577	24.991	906.495	723.455
211.592	24.620	906.108	721.585
212.607	25.055	905.987	723.179
213.621	25.093	905.505	722.887
214.636	25.195	904.411	722.357
215.650	25.184	904.210	722.090
216.665	25.250	903.104	721.409
217.680	25.184	902.720	720.772
218.694	25.331	902.530	721.146
219.709	24.894	901.815	718.756
220.723	24.577	900.480	716.361
221.738	24.875	899.737	716.901
222.753	25.040	899.611	717.396
223.767	24.987	898.922	716.571
224.782	25.081	898.018	716.163
225.796	25.328	897.761	716.879
226.811	25.317	897.383	716.473
227.826	24.965	896.018	713.915
228.840	24.131	894.163	709.057
229.855	23.873	894.111	707.925
230.869	24.293	893.700	709.207
231.884	23.968	892.534	706.929
232.899	24.118	892.021	707.056
233.913	24.863	892.248	710.128
234.928	24.908	891.598	709.727
235.942	24.866	890.938	708.972
236.957	24.851	890.506	708.506
237.972	24.609	889.627	706.787
238.986	24.525	888.706	705.663
240.001	24.564	887.994	705.188
241.015	24.564	887.764	704.943
242.030	24.882	886.805	705.374
243.045	24.829	886.595	704.935
244.059	24.828	886.400	704.713
245.074	24.989	885.818	704.822
246.088	25.176	884.871	704.740
247.103	24.664	884.337	702.243
248.117	24.709	883.681	701.835
249.132	25.213	883.820	703.862
250.147	25.462	883.813	704.770
251.161	25.678	883.089	704.978
252.176	25.894	882.168	705.026
253.190	25.917	881.811	704.768
254.205	25.814	881.198	703.812
255.220	26.104	880.957	704.690
256.234	26.007	880.234	703.670
257.249	25.889	879.818	702.817
258.263	25.736	878.636	701.214
259.278	25.753	878.134	700.817
260.293	25.861	877.785	700.897
261.307	26.082	877.201	701.229
262.322	25.836	876.631	699.754
263.336	25.762	875.653	698.624
264.351	25.380	874.323	696.022
265.366	24.062	872.704	689.571
266.380	23.595	871.854	687.030
267.395	24.615	872.017	691.044
268.409	25.470	872.023	694.292
269.424	25.476	871.322	693.697
270.439	25.454	871.274	693.510
271.453	25.599	870.494	693.390
272.468	25.643	869.717	692.877
273.482	25.818	869.357	693.201
274.497	25.885	869.335	693.383
275.512	25.651	868.358	691.640
276.526	25.218	866.789	688.669
277.541	25.339	866.366	688.737
278.555	25.814	866.134	690.311
279.570	25.751	864.928	689.047
280.585	25.257	865.179	687.297
281.599	25.419	864.222	687.096
282.614	25.624	863.434	687.191
283.628	25.278	862.246	684.864
284.643	24.770	861.757	682.476
285.657	25.191	861.578	683.881
286.672	25.125	861.173	683.247
287.687	24.610	860.232	680.481
288.701	24.913	860.399	681.705
289.716	25.296	859.795	682.622
290.730	25.028	858.735	680.705
291.745	24.753	858.307	679.260
292.760	24.883	856.723	678.440
293.774	24.731	856.624	677.724
294.789	25.685	857.206	681.743
295.803	26.183	857.171	683.537
296.818	26.189	856.754	683.166
297.833	26.471	856.035	683.601
298.847	25.963	854.971	680.773
299.862	25.752	854.049	679.183
300.876	25.881	853.419	679.106
301.891	26.281	853.120	680.316
302.906	26.444	852.647	680.490
303.920	25.863	851.690	677.482
304.935	25.870	850.836	676.771
305.949	26.122	850.903	677.712
306.964	26.284	850.394	677.852
307.979	26.058	849.465	676.205
308.993	25.923	849.493	675.660
310.008	26.176	848.935	676.105
311.022	26.329	848.827	676.532
312.037	26.223	847.824	675.276
313.052	25.991	847.268	673.906
314.066	25.930	846.317	672.864
315.081	25.363	844.646	669.364
316.095	24.554	843.654	665.506
317.110	24.952	844.210	667.369
318.125	25.867	844.363	670.839
319.139	25.362	843.183	667.963
320.154	24.312	841.304	662.517
321.168	23.932	840.609	660.501
322.183	24.471	840.791	662.586
323.197	25.386	841.351	666.365
324.212	25.775	840.726	667.254
325.227	25.819	840.761	667.385
326.241	26.026	840.188	667.636
327.256	25.981	839.556	666.908
328.270	25.782	839.207	665.838
329.285	25.691	838.456	664.848
330.300	25.553	837.552	663.563
331.314	25.281	837.004	662.064
332.329	25.264	836.325	661.409
333.343	25.762	835.915	662.857
334.358	25.970	835.998	663.629
335.373	26.016	835.253	663.150
336.387	26.235	834.670	663.432
337.402	26.373	834.310	663.595
338.416	26.544	833.881	663.822
339.431	26.454	833.403	663.054
340.446	26.435	832.728	662.387
341.460	26.636	832.465	662.854
342.475	26.666	831.432	662.083
343.489	26.510	830.763	660.923
344.504	26.544	830.308	660.626
345.519	26.553	830.280	660.580
346.533	26.773	830.134	661.207
347.548	27.046	829.143	661.354
348.562	26.955	829.068	660.901
349.577	26.956	828.290	660.229
350.592	26.813	827.762	659.228
351.606	26.774	827.187	658.570
352.621	26.828	826.703	658.323
353.635	26.794	825.997	657.580
354.650	26.571	825.618	656.411
355.665	26.198	824.671	654.248
356.679	25.265	822.799	649.334
357.694	25.163	822.911	648.995
358.708	25.821	822.581	651.054
359.723	25.834	821.680	650.332
360.738	25.952	821.667	650.689
361.752	26.464	821.633	652.453
362.767	26.349	821.379	651.776
363.781	26.795	821.441	653.377
364.796	27.134	820.837	654.059
365.810	27.240	820.136	653.825
366.825	27.310	819.893	653.824
367.840	27.355	819.824	653.872
368.854	27.028	819.436	652.332
369.869	26.739	818.137	650.203
370.883	26.505	817.730	648.984
371.898	26.626	817.034	648.808
372.913	26.555	816.073	647.731
373.927	26.637	815.534	647.541
374.942	26.596	815.259	647.116
375.956	26.752	814.638	647.124
376.971	26.867	814.175	647.111
377.986	27.087	813.746	647.495
379.000	27.106	813.660	647.439
380.015	27.255	812.816	647.240
381.029	27.084	812.116	646.017
382.044	26.997	811.523	645.177
383.059	27.331	810.791	645.727
384.073	27.094	810.604	644.679
385.088	27.155	810.388	644.667
386.102	27.212	809.621	644.201
387.117	27.165	808.695	643.240
388.132	26.858	808.470	641.919
389.146	26.958	807.335	641.314
390.161	26.267	806.513	638.162
391.175	26.141	806.314	637.504
392.190	26.862	806.486	640.132
393.205	26.775	805.960	639.351
394.219	25.845	804.131	634.569
395.234	24.251	801.886	627.139
396.248	23.429	800.995	623.494
397.263	24.585	801.518	627.913
398.278	26.131	803.230	634.640
399.292	26.866	803.161	637.112
400.307	26.478	802.165	634.902
401.321	26.419	801.666	634.246
402.336	26.557	801.386	634.449
403.350	26.797	801.698	635.482
404.365	27.285	801.393	636.894
405.380	27.489	801.489	637.629
406.394	27.717	800.989	637.970
407.409	27.853	800.769	638.215
408.423	27.995	800.109	638.130
409.438	27.771	799.627	636.906
410.453	27.810	799.227	636.667
411.467	27.947	798.765	636.721
412.482	27.763	798.053	635.457
413.496	27.790	797.401	634.975
414.511	27.949	796.870	635.049
415.526	27.963	796.777	634.967
416.540	27.832	796.808	634.479
417.555	27.815	795.661	633.450
418.569	27.625	795.036	632.239
419.584	27.389	794.645	631.053
420.599	27.557	794.239	631.256
421.613	109.145	1280.671	1447.444
422.628	93.960	1351.533	1447.557
