DTS Sentinel unit serial number:	SN413079Multiplexer serial number:	ORYXHardware model number:	OX4-SRSoftware version number:	ORYX F/W v4.00 Oryx Data Collector v3.7.2.0data status	okinstallation	princeton_trtdifferential loss correction	single-endedforward channel	channel 3reverse channel	N/Adate	2019/09/11time	23:06:11forward acquisition time	60.00reverse acquisition time	0.00gamma	496.2192k internal	0.2316k external	0.2316temperature offset calibration	1.0051default loss term (dB/km)	0.3790temperature slope calibration	1.0000multiplexer offset coefficient	1.0000multiplexer slope coefficient	1.0000fibre end	0.00T internal ref (°C)	34.56T ext. ref 1 (°C)	1.84T ext. ref 2 (°C)	29.20length (m)	temperature (°C)	Stokes	anti-Stokes-747.200	795.216	0.051	0.143
-746.185	800.000	-0.087	0.250
-745.171	249.290	-0.191	0.327
-744.156	-200.000	-0.031	0.320
-743.142	-200.000	0.011	0.256
-742.127	-82.721	0.095	-0.031
-741.112	800.000	0.072	0.233
-740.098	-200.000	0.041	0.378
-739.083	155.582	-0.181	0.253
-738.069	-200.000	0.016	0.160
-737.054	360.323	0.075	0.152
-736.039	42.028	-0.408	-0.375
-735.025	-56.200	0.359	0.162
-734.010	800.000	0.075	-0.272
-732.996	515.468	-0.206	-0.487
-731.981	74.290	0.152	-0.162
-730.966	-200.000	0.049	0.237
-729.952	-99.733	-0.206	-0.052
-728.937	-200.000	0.012	-0.127
-727.923	-83.102	-0.221	-0.072
-726.908	-86.821	-0.137	-0.042
-725.894	62.369	-0.037	0.038
-724.879	8.985	-0.166	-0.127
-723.864	-75.780	0.267	0.096
-722.850	-200.000	0.053	0.301
-721.835	-200.000	-0.050	0.234
-720.821	-153.392	0.113	0.008
-719.806	-200.000	0.009	-0.307
-718.791	-200.000	-0.013	0.239
-717.777	-111.818	-0.478	0.098
-716.762	-200.000	-0.025	0.153
-715.748	-62.545	-0.179	-0.075
-714.733	-200.000	-0.003	0.078
-713.718	800.000	-0.075	0.256
-712.704	800.000	0.026	-0.117
-711.689	800.000	0.124	-0.446
-710.675	-4.639	-0.188	0.131
-709.660	322.815	-0.036	-0.070
-708.645	311.319	-0.090	0.170
-707.631	62.631	0.097	-0.098
-706.616	-66.533	-0.336	0.135
-705.602	115.814	-0.092	-0.113
-704.587	-52.792	-0.192	0.089
-703.572	-200.000	-0.118	-0.554
-702.558	800.000	-0.030	-0.090
-701.543	372.083	-0.075	-0.155
-700.529	-132.722	0.086	-0.011
-699.514	93.288	-0.103	-0.117
-698.499	305.872	-0.053	-0.100
-697.485	-11.124	0.191	-0.128
-696.470	415.658	0.032	0.069
-695.456	-1.416	-0.231	0.165
-694.441	-200.000	-0.031	0.437
-693.426	-100.079	-0.108	-0.027
-692.412	800.000	-0.024	-0.097
-691.397	-104.171	-0.381	-0.090
-690.383	-133.861	-0.275	0.035
-689.368	395.468	0.094	-0.198
-688.354	-37.542	-0.184	-0.099
-687.339	800.000	0.096	0.312
-686.324	800.000	0.063	0.184
-685.310	-26.760	-0.481	0.284
-684.295	-107.654	-0.248	-0.055
-683.281	-27.317	-0.173	-0.102
-682.266	10.725	-0.128	-0.099
-681.251	150.870	-0.193	-0.266
-680.237	-1.212	0.176	-0.126
-679.222	800.000	-0.038	-0.155
-678.208	218.366	-0.133	-0.214
-677.193	70.983	-0.363	-0.380
-676.178	306.042	-0.097	-0.182
-675.164	800.000	0.074	-0.248
-674.149	-21.000	0.116	-0.072
-673.135	-200.000	0.013	-0.271
-672.120	243.676	-0.029	-0.048
-671.105	800.000	-0.043	-0.160
-670.091	-12.511	0.081	0.053
-669.076	9.134	-0.274	0.209
-668.062	66.786	0.344	-0.353
-667.047	101.020	0.151	-0.178
-666.032	138.400	0.083	0.110
-665.018	-200.000	0.038	0.330
-664.003	-183.027	0.154	0.003
-662.989	705.937	0.056	-0.149
-661.974	63.480	0.127	0.129
-660.959	800.000	-0.072	0.224
-659.945	267.302	-0.082	-0.146
-658.930	39.503	-0.099	-0.089
-657.916	-104.551	0.443	0.103
-656.901	-53.912	-0.081	-0.037
-655.886	-129.874	0.132	0.018
-654.872	-185.946	-0.080	0.001
-653.857	800.000	-0.092	0.260
-652.843	-200.000	-0.015	-0.228
-651.828	92.476	-0.132	0.150
-650.814	-54.364	0.126	0.058
-649.799	-51.981	-0.225	-0.106
-648.784	-200.000	-0.008	0.165
-647.770	-25.498	0.276	0.164
-646.755	-91.985	-0.190	0.054
-645.741	-56.631	0.106	0.048
-644.726	43.046	0.180	0.166
-643.711	190.001	0.155	0.235
-642.697	139.433	-0.215	0.285
-641.682	148.262	0.200	0.273
-640.668	167.316	0.132	-0.189
-639.653	84.634	-0.064	-0.070
-638.638	-136.782	-0.374	0.043
-637.624	-200.000	0.002	-0.158
-636.609	-200.000	-0.044	0.393
-635.595	263.719	-0.091	0.159
-634.580	-200.000	0.016	-0.330
-633.565	186.708	-0.084	0.126
-632.551	397.482	0.201	-0.425
-631.536	-200.000	0.018	-0.212
-630.522	105.110	-0.265	-0.315
-629.507	3.915	0.125	-0.092
-628.492	-88.135	-0.212	0.064
-627.478	-115.528	-0.079	0.015
-626.463	696.752	0.090	-0.238
-625.449	-171.384	-0.188	0.006
-624.434	107.165	-0.196	-0.235
-623.419	49.184	-0.247	-0.234
-622.405	-37.698	0.162	0.087
-621.390	-37.085	-0.404	-0.218
-620.376	580.814	0.069	-0.170
-619.361	83.235	0.152	0.167
-618.346	-93.386	-0.270	-0.075
-617.332	95.365	0.164	-0.189
-616.317	-46.124	0.156	0.077
-615.303	800.000	-0.063	0.222
-614.288	-200.000	-0.024	-0.138
-613.273	-108.278	0.494	-0.108
-612.259	45.630	-0.278	0.259
-611.244	-200.000	-0.022	-0.368
-610.230	60.500	0.118	-0.118
-609.215	89.806	-0.066	-0.074
-608.201	-200.000	-0.010	-0.055
-607.186	211.567	0.088	-0.140
-606.171	16.865	0.120	0.096
-605.157	-119.829	0.180	-0.031
-604.142	-54.605	0.463	-0.211
-603.128	-67.076	-0.124	-0.049
-602.113	-54.944	0.312	-0.142
-601.098	168.708	-0.263	0.377
-600.084	-200.000	0.025	-0.136
-599.069	216.933	0.065	-0.104
-598.055	800.000	-0.048	-0.179
-597.040	-200.000	-0.026	-0.141
-596.025	-200.000	0.025	0.218
-595.011	665.349	0.065	-0.168
-593.996	-49.457	0.174	-0.083
-592.982	-200.000	0.013	-0.127
-591.967	-53.783	-0.524	0.241
-590.952	800.000	0.090	0.388
-589.938	-104.557	0.272	0.063
-588.923	33.679	0.165	0.145
-587.909	-200.000	-0.028	0.186
-586.894	308.783	0.174	-0.327
-585.879	50.658	-0.080	-0.076
-584.865	263.620	-0.207	0.363
-583.850	-30.295	-0.266	0.152
-582.836	800.000	0.058	0.210
-581.821	168.890	0.196	-0.282
-580.806	-68.166	0.256	-0.100
-579.792	-128.734	-0.183	-0.026
-578.777	-200.000	-0.054	-0.293
-577.763	-34.478	0.279	0.154
-576.748	-200.000	0.020	-0.176
-575.733	800.000	0.056	-0.175
-574.719	-38.743	0.202	-0.107
-573.704	108.515	-0.158	-0.190
-572.690	-200.000	0.012	-0.371
-571.675	-156.626	-0.388	-0.024
-570.661	-200.000	0.030	0.311
-569.646	-57.025	0.151	0.067
-568.631	-140.231	0.044	-0.005
-567.617	800.000	-0.022	-0.071
-566.602	-89.477	-0.203	-0.060
-565.588	103.043	-0.286	0.337
-564.573	800.000	0.031	-0.089
-563.558	-189.712	-0.128	-0.001
-562.544	25.024	0.176	-0.147
-561.529	58.123	0.219	0.216
-560.515	86.599	-0.074	-0.082
-559.500	800.000	0.139	-0.457
-558.485	800.000	0.044	0.186
-557.471	568.781	-0.043	0.106
-556.456	-150.853	0.406	0.031
-555.442	-29.483	-0.135	-0.078
-554.427	127.665	0.085	-0.109
-553.412	800.000	-0.028	0.091
-552.398	-69.193	0.189	0.073
-551.383	136.237	-0.243	0.318
-550.369	800.000	-0.123	0.352
-549.354	800.000	-0.041	0.163
-548.339	35.980	0.213	0.189
-547.325	46.448	0.190	-0.177
-546.310	72.024	-0.048	-0.050
-545.296	-129.991	-0.303	-0.042
-544.281	-88.632	-0.200	-0.060
-543.266	-34.160	0.103	0.057
-542.252	272.345	0.035	0.062
-541.237	-200.000	0.000	0.010
-540.223	180.820	-0.199	0.293
-539.208	-200.000	-0.050	0.314
-538.193	800.000	0.050	-0.180
-537.179	800.000	-0.041	-0.155
-536.164	-3.445	-0.360	-0.252
-535.150	127.282	-0.140	0.179
-534.135	-200.000	-0.021	0.143
-533.121	800.000	0.051	0.201
-532.106	229.908	0.092	-0.152
-531.091	75.279	-0.134	-0.141
-530.077	-200.000	0.026	0.348
-529.062	-132.575	-0.232	0.030
-528.048	438.342	-0.040	-0.087
-527.033	189.524	-0.014	0.021
-526.018	-127.217	0.113	0.017
-525.004	-12.578	0.448	-0.293
-523.989	-51.894	-0.066	0.031
-522.975	63.703	-0.201	0.203
-521.960	247.813	-0.056	-0.096
-520.945	800.000	0.121	-0.350
-519.931	-66.549	-0.252	-0.100
-518.916	12.245	-0.271	-0.210
-517.902	-30.115	0.119	0.068
-516.887	-167.477	0.269	-0.011
-515.872	-153.729	0.097	-0.007
-514.858	-3.385	-0.105	0.073
-513.843	-18.552	0.130	0.082
-512.829	13.944	0.115	0.090
-511.814	-200.000	-0.023	0.190
-510.799	-83.331	0.364	-0.117
-509.785	-24.424	-0.123	0.074
-508.770	800.000	-0.099	0.280
-507.756	-80.641	-0.097	0.032
-506.741	67.038	-0.136	0.139
-505.726	156.981	-0.121	0.168
-504.712	-103.181	-0.059	0.014
-503.697	-10.971	-0.239	-0.158
-502.683	117.397	0.048	-0.059
-501.668	-200.000	0.034	0.389
-500.653	-47.271	0.261	-0.127
-499.639	25.278	-0.175	0.146
-498.624	800.000	-0.059	0.198
-497.610	442.484	0.113	-0.248
-496.595	-200.000	0.039	-0.198
-495.581	-50.048	0.234	-0.111
-494.566	-200.000	0.001	-0.057
-493.551	-200.000	-0.003	0.308
-492.537	800.000	0.027	0.089
-491.522	800.000	0.007	-0.022
-490.508	92.514	0.093	-0.105
-489.493	6.259	0.156	-0.116
-488.478	122.678	0.123	0.155
-487.464	-93.107	0.164	-0.046
-486.449	217.357	-0.026	-0.041
-485.435	-200.000	0.016	-0.137
-484.420	-200.000	0.045	0.486
-483.405	-4.172	0.054	-0.037
-482.391	-26.106	0.261	0.154
-481.376	-200.000	0.020	-0.277
-480.362	-25.329	0.203	0.120
-479.347	263.654	0.181	-0.316
-478.332	-101.724	-0.172	-0.042
-477.318	391.807	0.114	-0.237
-476.303	-18.350	-0.195	0.122
-475.289	-135.010	-0.100	-0.012
-474.274	405.631	0.036	-0.076
-473.259	-200.000	-0.013	-0.158
-472.245	-17.840	-0.241	-0.152
-471.230	-200.000	-0.005	-0.071
-470.216	-200.000	0.042	-0.196
-469.201	202.506	-0.059	0.091
-468.186	-200.000	-0.051	0.224
-467.172	-69.335	0.212	-0.082
-466.157	97.131	-0.186	0.214
-465.143	387.250	-0.032	-0.066
-464.128	-200.000	0.013	-0.203
-463.113	-200.000	0.022	-0.167
-462.099	-5.663	0.273	0.187
-461.084	-142.451	0.302	-0.030
-460.070	7.733	0.220	0.165
-459.055	82.849	0.320	-0.348
-458.040	237.878	-0.031	-0.052
-457.026	102.305	-0.184	0.215
-456.011	264.539	-0.200	0.348
-454.997	53.761	-0.085	0.082
-453.982	800.000	-0.108	-0.307
-452.968	-105.575	-0.368	0.084
-451.953	509.643	-0.051	-0.118
-450.938	683.765	-0.086	-0.223
-449.924	-104.360	0.236	-0.055
-448.909	800.000	0.064	-0.277
-447.895	-63.790	-0.075	0.031
-446.880	31.507	-0.042	-0.036
-445.865	-200.000	0.012	0.192
-444.851	706.823	-0.030	0.079
-443.836	158.976	0.119	-0.166
-442.822	-40.407	0.128	0.067
-441.807	48.130	-0.087	-0.081
-440.792	195.983	-0.103	-0.156
-439.778	103.020	0.078	-0.092
-438.763	106.855	-0.231	-0.275
-437.749	-130.604	0.207	-0.028
-436.734	773.543	0.052	-0.141
-435.719	462.047	-0.056	0.126
-434.705	-56.112	0.112	-0.050
-433.690	-171.326	0.186	0.006
-432.676	366.670	-0.136	0.275
-431.661	800.000	-0.062	0.171
-430.646	-57.128	0.159	-0.070
-429.632	127.297	-0.182	-0.231
-428.617	-200.000	0.010	-0.726
-427.603	134.242	-0.140	0.181
-426.588	344.611	-0.148	0.290
-425.573	204.754	0.208	-0.323
-424.559	-13.046	-0.191	0.124
-423.544	244.242	-0.206	-0.347
-422.530	206.990	-0.137	0.213
-421.515	31.720	-0.474	0.408
-420.500	-200.000	-0.022	0.156
-419.486	223.647	-0.087	0.141
-418.471	-200.000	-0.001	-0.345
-417.457	180.641	0.087	-0.127
-416.442	452.168	-0.032	0.071
-415.428	33.449	-0.163	0.141
-414.413	195.713	-0.155	-0.235
-413.398	-107.320	-0.208	0.046
-412.384	-109.942	0.109	0.023
-411.369	119.642	0.103	-0.127
-410.355	58.118	0.102	-0.100
-409.340	-159.776	-0.261	-0.014
-408.325	-200.000	-0.065	-0.654
-407.311	-200.000	-0.037	-0.276
-406.296	-162.705	-0.259	0.013
-405.282	-189.374	0.431	0.005
-404.267	4.516	-0.025	0.018
-403.252	6.114	-0.131	-0.097
-402.238	-200.000	0.011	-0.330
-401.223	-46.963	0.086	0.042
-400.209	42.112	-0.139	0.126
-399.194	391.963	0.166	0.344
-398.179	-8.027	0.175	-0.118
-397.165	-148.279	0.357	0.029
-396.150	55.233	0.091	0.088
-395.136	238.371	0.163	0.271
-394.121	-200.000	-0.006	-0.269
-393.106	800.000	0.129	0.398
-392.092	86.114	-0.280	-0.308
-391.077	-58.936	-0.183	0.079
-390.063	800.000	0.047	-0.167
-389.048	-200.000	-0.057	0.357
-388.033	708.436	0.074	0.194
-387.019	800.000	-0.034	0.146
-386.004	752.665	0.037	-0.101
-384.990	-50.579	0.226	-0.106
-383.975	-128.557	0.137	0.019
-382.960	-129.025	-0.019	-0.003
-381.946	800.000	0.018	-0.070
-380.931	-200.000	-0.008	-0.271
-379.917	170.055	-0.030	0.044
-378.902	-76.241	0.265	0.093
-377.888	707.197	-0.079	0.209
-376.873	800.000	-0.051	-0.161
-375.858	-143.134	0.226	0.022
-374.844	44.547	-0.148	-0.136
-373.829	-127.031	-0.369	-0.054
-372.815	-55.194	0.333	0.150
-371.800	-108.579	0.187	-0.040
-370.785	-129.214	-0.213	-0.030
-369.771	-200.000	0.013	-0.300
-368.756	-46.965	-0.139	0.068
-367.742	285.968	0.107	-0.193
-366.727	-144.223	0.142	0.013
-365.712	-200.000	-0.014	0.289
-364.698	102.844	-0.012	0.014
-363.683	-171.707	0.128	-0.004
-362.669	-200.000	-0.011	0.165
-361.654	196.205	-0.037	0.056
-360.639	-124.003	0.150	-0.024
-359.625	263.649	0.194	-0.336
-358.610	94.971	-0.197	0.224
-357.596	-200.000	-0.028	0.122
-356.581	-19.041	-0.224	-0.139
-355.566	-130.655	0.207	-0.028
-354.552	-200.000	0.012	-0.278
-353.537	63.836	-0.236	0.237
-352.523	800.000	0.111	0.404
-351.508	-125.094	-0.198	0.030
-350.493	68.267	0.111	-0.113
-349.479	-200.000	0.002	0.263
-348.464	778.198	-0.088	-0.241
-347.450	123.178	-0.112	0.140
-346.435	69.161	-0.103	-0.105
-345.420	-200.000	0.048	-0.381
-344.406	37.918	-0.124	0.110
-343.391	71.360	0.038	-0.039
-342.377	-19.696	0.075	0.046
-341.362	564.696	0.083	0.201
-340.348	123.595	-0.154	0.193
-339.333	-131.688	-0.101	-0.013
-338.318	44.511	-0.025	0.023
-337.304	-79.989	-0.193	0.065
-336.289	800.000	0.040	0.160
-335.275	-200.000	-0.034	0.198
-334.260	-9.001	0.277	-0.185
-333.245	800.000	0.106	-0.322
-332.231	-200.000	0.057	-0.298
-331.216	-200.000	0.026	-0.418
-330.202	179.894	0.133	0.195
-329.187	98.552	-0.175	-0.201
-328.172	-13.400	-0.272	0.176
-327.158	800.000	-0.062	0.248
-326.143	189.957	0.035	-0.052
-325.129	522.214	-0.083	0.193
-324.114	684.677	-0.083	-0.217
-323.099	-99.439	-0.207	0.052
-322.085	-22.305	-0.063	0.038
-321.070	34.271	-0.123	-0.107
-320.056	161.953	-0.050	-0.070
-319.041	-48.459	0.299	0.143
-318.026	-181.355	-0.370	-0.007
-317.012	44.791	0.036	-0.033
-315.997	394.092	-0.054	-0.112
-314.983	76.549	0.188	0.199
-313.968	-200.000	0.010	-0.083
-312.953	-129.004	0.188	0.026
-311.939	-137.049	-0.191	-0.022
-310.924	-70.893	0.344	-0.129
-309.910	118.210	-0.158	0.194
-308.895	-34.088	0.195	0.107
-307.880	-200.000	-0.055	-0.243
-306.866	308.585	0.155	0.289
-305.851	-30.561	0.177	0.100
-304.837	-200.000	-0.014	0.278
-303.822	-182.687	-0.024	-0.000
-302.807	-200.000	-0.059	-0.260
-301.793	-200.000	0.052	0.389
-300.778	-98.542	-0.178	0.045
-299.764	130.745	-0.171	0.218
-298.749	119.563	-0.157	0.193
-297.735	13.861	-0.094	0.073
-296.720	664.165	0.095	-0.243
-295.705	800.000	-0.037	-0.158
-294.691	800.000	-0.027	0.111
-293.676	-107.632	0.212	0.046
-292.662	-32.137	-0.230	-0.128
-291.647	-127.056	-0.527	0.077
-290.632	89.655	0.056	-0.062
-289.618	-1.757	0.101	-0.071
-288.603	-200.000	0.001	-0.184
-287.589	545.541	-0.062	0.149
-286.574	592.880	-0.134	0.331
-285.559	-123.613	0.295	-0.047
-284.545	-127.425	-0.201	-0.029
-283.530	-75.596	-0.104	-0.037
-282.516	-200.000	-0.030	0.239
-281.501	91.113	-0.048	0.054
-280.486	293.805	-0.168	0.305
-279.472	-200.000	-0.026	-0.240
-278.457	800.000	0.087	0.351
-277.443	-30.388	0.076	0.043
-276.428	40.236	0.011	-0.010
-275.413	505.047	0.051	-0.117
-274.399	-163.059	-0.258	0.012
-273.384	186.306	0.077	-0.114
-272.370	-62.518	-0.209	-0.086
-271.355	100.133	0.072	0.083
-270.340	-200.000	-0.001	0.224
-269.326	-200.000	-0.004	0.081
-268.311	471.606	0.079	-0.177
-267.297	-137.425	-0.129	-0.015
-266.282	800.000	0.062	-0.233
-265.267	-200.000	-0.014	-0.106
-264.253	522.290	-0.093	-0.217
-263.238	-55.261	0.175	-0.078
-262.224	174.947	-0.151	0.217
-261.209	64.322	0.042	-0.042
-260.195	-36.213	-0.135	-0.072
-259.180	2.158	-0.091	0.065
-258.165	120.486	0.150	-0.186
-257.151	474.102	0.197	-0.441
-256.136	-25.907	-0.095	0.056
-255.122	-161.355	-0.340	-0.017
-254.107	661.557	0.152	0.389
-253.092	52.009	-0.148	-0.140
-252.078	-2.833	-0.074	0.052
-251.063	343.730	-0.064	-0.125
-250.049	-200.000	-0.002	0.135
-249.034	-116.964	0.203	0.037
-248.019	94.870	-0.300	-0.339
-247.005	-59.146	-0.119	-0.051
-245.990	800.000	-0.055	-0.172
-244.976	194.264	0.238	-0.358
-243.961	17.808	0.103	-0.081
-242.946	133.500	0.180	-0.232
-241.932	59.229	-0.130	-0.127
-240.917	76.119	-0.095	-0.099
-239.903	127.104	0.155	0.196
-238.888	92.996	0.017	0.020
-237.873	-63.654	0.167	0.068
-236.859	-200.000	0.056	0.396
-235.844	800.000	0.098	0.385
-234.830	-115.530	0.302	0.056
-233.815	800.000	-0.171	0.536
-232.800	35.645	-0.149	-0.130
-231.786	-200.000	-0.028	-0.238
-230.771	535.046	0.127	-0.300
-229.757	-87.342	0.252	-0.076
-228.742	800.000	0.049	-0.205
-227.727	115.082	0.104	0.126
-226.713	800.000	-0.099	0.316
-225.698	-71.156	-0.026	-0.010
-224.684	-52.169	0.217	0.100
-223.669	800.000	0.054	-0.158
-222.655	800.000	0.105	-0.323
-221.640	-101.556	0.381	-0.092
-220.625	49.177	-0.188	-0.176
-219.611	-42.415	-0.247	0.125
-218.596	-128.482	0.218	-0.031
-217.582	-200.000	-0.027	0.167
-216.567	-200.000	-0.013	-0.349
-215.552	-200.000	0.014	0.067
-214.538	448.495	-0.042	-0.091
-213.523	130.956	0.144	0.183
-212.509	107.099	0.115	0.135
-211.494	192.495	-0.106	0.159
-210.479	-78.792	0.428	0.145
-209.465	-124.821	0.164	-0.025
-208.450	312.262	0.051	-0.095
-207.436	-145.514	-0.128	0.011
-206.421	-121.686	-0.164	-0.027
-205.406	9.425	0.190	0.142
-204.392	-47.323	-0.053	0.026
-203.377	79.933	-0.097	0.103
-202.363	335.695	0.121	0.232
-201.348	-149.147	0.087	-0.007
-200.333	76.242	-0.197	-0.207
-199.319	-200.000	-0.010	-0.163
-198.304	800.000	-0.036	0.149
-197.290	151.496	-0.225	0.304
-196.275	800.000	-0.023	0.094
-195.260	800.000	-0.047	-0.178
-194.246	-93.850	0.303	-0.083
-193.231	81.364	0.125	0.134
-192.217	67.777	0.093	0.094
-191.202	208.237	0.152	-0.236
-190.187	-200.000	-0.028	0.257
-189.173	-83.403	-0.277	-0.088
-188.158	800.000	-0.056	0.205
-187.144	495.003	-0.133	0.302
-186.129	-4.984	0.101	-0.069
-185.114	800.000	0.070	0.281
-184.100	-124.411	-0.181	0.028
-183.085	20.743	-0.369	0.296
-182.071	56.104	0.275	0.265
-181.056	-200.000	0.021	-0.141
-180.042	-72.402	-0.392	-0.144
-179.027	-200.000	0.011	0.203
-178.012	-200.000	-0.007	0.108
-176.998	41.241	-0.129	0.116
-175.983	-200.000	-0.005	-0.067
-174.969	-102.673	0.319	-0.075
-173.954	-53.240	0.267	-0.121
-172.939	115.675	0.228	0.276
-171.925	137.886	0.043	0.055
-170.910	334.697	-0.071	-0.136
-169.896	558.323	-0.080	-0.190
-168.881	355.618	-0.147	0.290
-167.866	800.000	-0.045	-0.192
-166.852	69.167	0.178	-0.181
-165.837	231.459	0.051	0.083
-164.823	189.177	0.163	-0.243
-163.808	-161.424	0.090	-0.005
-162.793	-177.746	-0.157	-0.004
-161.779	-10.391	0.252	0.165
-160.764	482.863	0.221	0.497
-159.750	-107.628	-0.208	-0.045
-158.735	46.136	0.036	-0.033
-157.720	-200.000	0.036	-0.192
-156.706	-200.000	-0.060	0.319
-155.691	-200.000	0.005	0.083
-154.677	39.110	-0.236	-0.209
-153.662	-176.934	0.226	0.006
-152.647	593.459	-0.102	0.249
-151.633	-200.000	-0.033	0.158
-150.618	-47.918	0.287	0.137
-149.604	800.000	0.027	-0.109
-148.589	-58.407	0.156	0.067
-147.574	-200.000	-0.032	0.172
-146.560	800.000	0.042	0.150
-145.545	135.828	0.219	0.282
-144.531	-59.621	0.356	0.151
-143.516	-200.000	0.022	0.208
-142.502	800.000	-0.022	0.078
-141.487	-200.000	-0.005	0.188
-140.472	-148.569	-0.253	0.020
-139.458	-102.299	-0.232	-0.055
-138.443	800.000	0.137	0.396
-137.429	-200.000	-0.041	-0.231
-136.414	28.061	0.305	-0.254
-135.399	800.000	0.028	0.116
-134.385	-62.190	0.216	0.089
-133.370	-200.000	0.056	0.369
-132.356	-116.988	-0.151	0.027
-131.341	-99.422	0.223	0.056
-130.326	-155.589	0.264	-0.017
-129.312	284.936	-0.053	-0.095
-128.297	-36.839	0.266	0.141
-127.283	-200.000	-0.001	-0.053
-126.268	-30.993	-0.110	0.062
-125.253	470.455	-0.145	-0.323
-124.239	800.000	0.007	0.025
-123.224	-95.798	-0.309	-0.082
-122.210	90.054	0.145	0.160
-121.195	197.400	-0.200	0.301
-120.180	217.175	0.099	0.155
-119.166	-200.000	0.019	0.118
-118.151	-117.807	0.208	-0.037
-117.137	70.945	-0.066	0.068
-116.122	403.351	0.102	0.212
-115.107	34.178	-0.083	-0.071
-114.093	-138.535	-0.286	-0.031
-113.078	-82.533	-0.214	0.069
-112.064	120.712	0.267	0.328
-111.049	-105.518	0.320	0.072
-110.034	-76.340	0.131	-0.046
-109.020	-50.938	-0.368	0.171
-108.005	63.248	-0.138	0.137
-106.991	86.984	0.296	0.323
-105.976	15.566	-0.066	0.051
-104.962	434.365	-0.195	0.419
-103.947	119.533	0.151	-0.185
-102.932	355.439	-0.085	-0.167
-101.918	-71.181	0.366	0.136
-100.903	-19.870	-0.132	0.080
-99.889	78.512	0.129	0.136
-98.874	3.561	-0.131	0.094
-97.859	-100.177	-0.060	0.015
-96.845	-200.000	0.011	0.057
-95.830	455.645	0.036	-0.079
-94.816	-200.000	0.022	0.126
-93.801	800.000	-0.055	0.201
-92.786	-200.000	0.007	-0.258
-91.772	10.110	0.087	-0.066
-90.757	102.018	-0.067	-0.077
-89.743	800.000	-0.053	0.196
-88.728	549.377	-0.126	0.299
-87.713	538.255	-0.141	0.332
-86.699	68.933	0.151	0.153
-85.684	-74.744	-0.131	-0.046
-84.670	506.765	-0.146	-0.334
-83.655	234.711	0.135	-0.219
-82.640	527.827	0.052	-0.121
-81.626	323.046	0.044	-0.084
-80.611	800.000	0.126	-0.360
-79.597	-153.448	-0.395	-0.027
-78.582	-96.153	0.192	0.050
-77.567	800.000	-0.024	-0.102
-76.553	139.621	-0.034	0.044
-75.538	-10.764	-0.094	-0.062
-74.524	247.701	0.076	-0.128
-73.509	800.000	0.110	0.333
-72.494	35.464	0.370	0.321
-71.480	-72.847	0.033	0.012
-70.465	-169.038	-0.073	0.003
-69.451	800.000	0.034	0.141
-68.436	213.775	0.100	0.156
-67.422	-170.925	-0.354	-0.012
-66.407	-111.891	-0.080	0.016
-65.392	-101.361	-0.153	0.037
-64.378	-200.000	0.033	0.220
-63.363	126.375	0.151	0.188
-62.349	-56.643	-0.241	-0.105
-61.334	49.096	-0.940	-0.871
-60.319	58.755	0.558	0.541
-59.305	-200.000	0.026	-0.997
-58.290	252.242	0.536	0.901
-57.276	361.439	0.783	1.547
-56.261	-200.000	98.207	590.762
-55.246	558.282	1387.717	3300.974
-54.232	153.676	2586.868	3494.575
-53.217	114.329	2177.224	2613.570
-52.203	45.065	1714.811	1557.653
-51.188	37.787	1527.052	1337.335
-50.173	35.337	1500.049	1297.090
-49.159	55.705	1552.124	1482.660
-48.144	59.049	1571.322	1523.910
-47.130	38.112	1524.973	1337.531
-46.115	34.777	1509.845	1301.543
-45.100	34.678	1506.302	1297.759
-44.086	34.703	1504.493	1296.321
-43.071	34.567	1502.584	1293.705
-42.057	34.491	1501.323	1292.052
-41.042	34.521	1499.951	1291.025
-40.027	34.593	1498.248	1289.993
-39.013	34.608	1496.540	1288.568
-37.998	34.450	1495.862	1286.872
-36.984	34.561	1494.554	1286.444
-35.969	34.671	1492.699	1285.536
-34.954	34.545	1491.639	1283.724
-33.940	34.574	1490.277	1282.694
-32.925	34.447	1489.232	1280.893
-31.911	34.610	1487.808	1280.711
-30.896	34.569	1486.243	1279.040
-29.881	34.591	1484.787	1277.879
-28.867	34.631	1483.778	1277.232
-27.852	34.595	1482.303	1275.670
-26.838	34.631	1480.671	1274.455
-25.823	34.555	1479.446	1272.843
-24.809	34.621	1477.521	1271.577
-23.794	34.511	1476.726	1270.105
-22.779	34.620	1474.939	1269.247
-21.765	34.664	1474.022	1268.696
-20.750	34.617	1472.789	1267.276
-19.736	34.564	1471.958	1266.154
-18.721	34.620	1470.764	1265.451
-17.706	34.604	1469.971	1264.615
-16.692	34.598	1468.973	1263.667
-15.677	34.562	1467.817	1262.382
-14.663	34.547	1467.052	1261.573
-13.648	34.548	1466.207	1260.804
-12.633	34.536	1464.993	1259.630
-11.619	34.587	1463.719	1258.820
-10.604	34.370	1463.851	1257.454
-9.590	34.535	1462.618	1257.430
-8.575	34.569	1461.609	1256.740
-7.560	34.534	1461.205	1256.111
-6.546	34.548	1460.089	1255.197
-5.531	34.564	1458.697	1254.050
-4.517	34.489	1457.987	1252.902
-3.502	34.538	1456.829	1252.178
-2.487	34.575	1455.804	1251.486
-1.473	34.484	1455.042	1250.190
-0.458	34.561	1453.427	1249.257
0.556	34.827	1443.994	1238.400
1.571	31.850	1418.524	1197.469
2.586	28.318	1358.144	1124.754
3.600	26.606	1276.184	1046.896
4.615	25.081	1229.896	1000.328
5.629	21.308	1173.012	933.854
6.644	11.181	1085.305	813.623
7.659	3.226	1042.403	743.110
8.673	2.100	1036.695	733.567
9.688	1.817	1033.620	729.971
10.702	1.684	1032.203	728.273
11.717	1.740	1030.263	727.104
12.731	5.446	1034.464	747.746
13.746	15.494	1048.764	806.502
14.761	23.088	1058.624	850.689
15.775	24.682	1060.087	859.459
16.790	24.961	1059.595	860.325
17.804	24.858	1058.551	858.909
18.819	24.701	1057.320	857.079
19.834	24.812	1057.341	857.552
20.848	24.866	1056.948	857.417
21.863	24.918	1056.749	857.431
22.877	25.001	1056.233	857.332
23.892	24.948	1055.133	856.108
24.907	24.781	1054.592	854.797
25.921	24.807	1053.949	854.326
26.936	24.723	1053.532	853.512
27.950	24.879	1052.175	853.078
28.965	24.728	1051.053	851.373
29.980	24.593	1049.548	849.438
30.994	24.656	1048.423	848.750
32.009	24.948	1047.156	849.035
33.023	24.901	1046.810	848.457
34.038	24.772	1045.690	846.864
35.053	24.744	1044.755	845.899
36.067	25.019	1043.860	846.399
37.082	24.796	1044.014	845.394
38.096	24.968	1042.331	844.770
39.111	24.968	1042.615	844.924
40.126	25.254	1040.821	844.745
41.140	25.030	1040.119	843.044
42.155	24.903	1038.181	840.804
43.169	24.525	1037.804	838.648
44.184	24.531	1036.577	837.611
45.199	24.534	1035.513	836.692
46.213	24.415	1034.724	835.421
47.228	24.511	1033.684	834.956
48.242	24.643	1033.299	835.187
49.257	24.733	1032.400	834.807
50.271	24.754	1031.674	834.248
51.286	24.937	1030.925	834.418
52.301	24.971	1030.009	833.763
53.315	24.935	1029.447	833.067
54.330	24.923	1028.451	832.130
55.344	24.867	1028.063	831.482
56.359	24.808	1027.049	830.316
57.374	24.754	1026.136	829.253
58.388	24.673	1025.135	827.995
59.403	24.455	1024.839	826.675
60.417	24.662	1023.889	826.791
61.432	24.483	1023.107	825.263
62.447	24.511	1022.655	824.952
63.461	24.606	1022.265	825.005
64.476	24.726	1021.378	824.767
65.490	24.711	1020.305	823.759
66.505	24.617	1019.176	822.342
67.520	24.668	1018.237	821.746
68.534	24.505	1018.231	820.922
69.549	24.460	1016.837	819.517
70.563	24.162	1015.514	817.009
71.578	24.007	1014.969	815.789
72.593	24.289	1014.000	816.231
73.607	23.915	1013.180	813.786
74.622	23.999	1011.964	813.122
75.636	24.300	1011.125	813.752
76.651	24.479	1010.825	814.252
77.666	24.405	1009.559	812.825
78.680	24.271	1008.798	811.532
79.695	24.148	1008.477	810.641
80.709	24.400	1008.025	811.353
81.724	24.511	1007.141	811.070
82.739	24.360	1006.301	809.640
83.753	24.419	1005.499	809.190
84.768	24.688	1005.119	810.031
85.782	25.079	1004.078	810.889
86.797	25.170	1003.828	811.027
87.812	25.235	1002.572	810.235
88.826	25.091	1001.440	808.596
89.841	24.928	1001.414	807.770
90.855	25.089	1000.327	807.548
91.870	25.175	999.548	807.233
92.884	25.116	998.871	806.351
93.899	24.999	998.278	805.274
94.914	24.836	997.214	803.612
95.928	24.994	996.278	803.496
96.943	25.016	995.492	802.889
97.957	24.721	994.486	800.689
98.972	24.584	993.137	798.916
99.987	24.367	992.026	796.981
101.001	24.509	991.314	796.974
102.016	24.608	991.696	797.656
103.030	25.004	990.433	798.331
104.045	24.721	989.155	795.971
105.060	24.627	988.159	794.684
106.074	24.399	987.097	792.746
107.089	24.491	986.234	792.388
108.103	24.791	986.277	793.686
109.118	24.970	985.220	793.556
110.133	24.598	984.068	790.915
111.147	24.531	983.229	789.873
112.162	24.492	981.979	788.627
113.176	24.236	980.560	786.289
114.191	24.314	980.331	786.379
115.206	24.385	979.369	785.848
116.220	24.198	978.306	784.103
117.235	24.169	976.957	782.825
118.249	24.092	977.229	782.637
119.264	24.267	976.524	782.773
120.279	24.268	975.147	781.603
121.293	24.276	973.840	780.523
122.308	24.176	973.430	779.687
123.322	24.256	972.950	779.581
124.337	24.162	972.251	778.543
125.352	24.124	970.596	776.984
126.366	23.681	968.904	773.632
127.381	23.365	967.809	771.312
128.395	24.022	967.621	773.953
129.410	24.441	968.126	776.111
130.424	24.708	966.772	776.115
131.439	24.764	965.388	775.178
132.454	24.685	964.735	774.243
133.468	24.755	963.729	773.672
134.483	24.706	962.743	772.598
135.497	24.635	962.392	771.942
136.512	24.850	962.168	772.620
137.527	25.053	960.975	772.470
138.541	25.070	960.074	771.752
139.556	24.928	959.722	770.789
140.570	24.978	958.903	770.279
141.585	25.007	957.746	769.407
142.600	24.989	957.524	769.082
143.614	24.984	956.284	767.998
144.629	25.097	955.832	768.051
145.643	25.392	955.136	768.686
146.658	25.195	953.907	766.785
147.673	25.005	952.701	764.937
148.687	24.948	951.301	763.505
149.702	24.797	950.780	762.375
150.716	24.725	949.741	761.166
151.731	24.734	948.862	760.434
152.746	24.754	948.367	760.053
153.760	25.037	947.694	760.647
154.775	25.087	946.860	760.126
155.789	25.234	945.725	759.767
156.804	25.256	944.684	758.960
157.819	25.024	944.357	757.646
158.833	25.068	943.677	757.221
159.848	25.232	942.386	756.810
160.862	25.286	941.849	756.538
161.877	25.125	940.932	755.058
162.892	25.136	939.567	753.941
163.906	25.054	939.700	753.637
164.921	25.139	938.347	752.842
165.935	25.095	937.054	751.555
166.950	25.199	935.812	750.925
167.964	25.207	935.173	750.381
168.979	24.991	934.669	749.005
169.994	25.036	933.545	748.228
171.008	24.748	932.900	746.442
172.023	25.158	931.784	747.192
173.037	25.318	930.883	747.069
174.052	25.094	929.841	745.237
175.067	24.884	928.958	743.591
176.081	24.898	927.966	742.790
177.096	24.998	927.305	742.606
178.110	24.911	926.727	741.718
179.125	24.746	925.802	740.232
180.140	24.447	924.388	737.798
181.154	24.461	924.234	737.668
182.169	24.576	923.614	737.581
183.183	24.757	923.222	737.952
184.198	25.053	923.017	738.944
185.213	25.012	922.556	738.338
186.227	24.953	921.204	736.948
187.242	25.021	921.090	737.072
188.256	25.149	920.077	736.723
189.271	25.100	919.108	735.679
190.286	25.131	919.074	735.714
191.300	25.138	917.549	734.457
192.315	24.612	915.980	730.986
193.329	23.757	915.006	726.648
194.344	23.333	913.708	723.823
195.359	23.941	914.182	726.619
196.373	24.660	914.850	730.021
197.388	24.980	914.593	731.060
198.402	25.048	913.653	730.519
199.417	24.939	913.035	729.516
200.432	25.077	912.450	729.547
201.446	24.984	911.291	728.176
202.461	24.479	911.216	726.000
203.475	24.739	910.626	726.523
204.490	24.238	909.140	723.240
205.504	23.311	906.633	717.428
206.519	23.601	906.516	718.445
207.534	24.460	907.080	722.309
208.548	24.627	906.457	722.425
209.563	24.939	906.396	723.574
210.577	24.912	905.980	723.065
211.592	24.828	904.717	721.657
212.607	25.147	904.934	723.051
213.621	25.236	904.669	723.133
214.636	25.181	903.538	721.946
215.650	25.270	903.176	721.951
216.665	25.256	902.326	721.151
217.680	25.175	902.166	720.635
218.694	25.255	901.650	720.478
219.709	24.818	900.882	718.050
220.723	24.615	899.366	715.963
221.738	24.850	899.292	716.783
222.753	24.910	898.942	716.681
223.767	24.923	898.125	716.017
224.782	25.150	897.042	715.996
225.796	25.217	896.791	716.001
226.811	25.270	896.146	715.631
227.826	25.053	894.885	713.699
228.840	24.213	893.051	708.833
229.855	24.004	892.836	707.769
230.869	24.348	892.473	708.787
231.884	23.968	891.540	706.473
232.899	23.946	891.060	705.944
233.913	24.917	891.141	709.797
234.928	25.056	890.805	710.018
235.942	24.820	890.403	708.700
236.957	24.777	889.628	707.850
237.972	24.591	888.763	706.364
238.986	24.476	888.109	705.327
240.001	24.662	887.397	705.433
241.015	24.607	886.732	704.625
242.030	24.667	886.247	704.413
243.045	24.971	885.370	704.848
244.059	24.836	885.072	704.021
245.074	25.123	884.517	704.645
246.088	25.034	884.170	703.955
247.103	24.628	883.140	701.479
248.117	24.715	882.369	701.146
249.132	25.228	882.539	703.233
250.147	25.621	882.376	704.577
251.161	25.742	881.640	704.401
252.176	26.010	880.851	704.758
253.190	25.795	880.547	703.613
254.205	25.823	880.025	703.240
255.220	26.073	879.666	703.865
256.234	26.137	878.787	703.350
257.249	26.024	878.367	702.513
258.263	25.893	877.658	701.373
259.278	25.792	877.206	700.558
260.293	25.758	877.129	700.302
261.307	25.851	876.295	699.934
262.322	25.956	875.513	699.655
263.336	25.803	874.519	698.208
264.351	25.255	873.249	695.010
265.366	24.269	871.548	689.781
266.380	23.734	870.468	686.797
267.395	24.755	870.668	690.839
268.409	25.631	870.549	694.067
269.424	25.433	870.681	693.345
270.439	25.466	869.890	692.781
271.453	25.714	869.293	693.202
272.468	25.667	868.874	692.625
273.482	25.886	868.451	693.067
274.497	26.026	867.964	693.155
275.512	25.701	866.877	690.981
276.526	25.206	865.698	688.082
277.541	25.320	865.428	688.241
278.555	25.733	865.179	689.566
279.570	25.655	864.430	688.607
280.585	25.350	863.541	686.672
281.599	25.530	862.828	686.733
282.614	25.633	862.686	686.952
283.628	25.093	861.568	683.942
284.643	24.775	860.772	682.039
285.657	25.230	860.609	683.581
286.672	25.152	859.987	682.730
287.687	24.668	858.757	679.853
288.701	24.979	858.869	681.065
289.716	25.418	858.684	682.526
290.730	25.062	857.484	680.159
291.745	24.905	856.669	678.859
292.760	24.803	855.894	677.798
293.774	24.734	855.381	677.070
294.789	25.441	856.087	680.248
295.803	26.215	856.301	683.287
296.818	26.179	855.792	682.683
297.833	26.376	855.568	683.189
298.847	26.070	854.246	680.918
299.862	25.658	852.925	678.252
300.876	25.912	852.378	678.714
301.891	26.157	852.304	679.518
302.906	26.216	851.871	679.335
303.920	25.965	850.326	677.099
304.935	25.731	850.091	675.973
305.949	26.069	850.098	677.190
306.964	26.248	849.300	677.166
307.979	26.072	848.808	676.053
308.993	25.917	848.445	675.123
310.008	26.334	847.662	676.000
311.022	26.348	847.650	675.982
312.037	26.256	847.004	675.064
313.052	26.026	846.171	673.481
314.066	25.851	845.561	672.285
315.081	25.208	844.228	668.767
316.095	24.502	843.285	665.333
317.110	24.755	843.055	666.033
318.125	25.727	843.628	670.049
319.139	25.454	841.852	667.563
320.154	24.279	840.264	661.886
321.168	23.784	839.810	659.633
322.183	24.547	839.886	662.465
323.197	25.480	840.079	666.018
324.212	25.802	839.688	666.844
325.227	25.893	839.440	666.922
326.241	25.943	839.205	666.863
327.256	25.828	838.654	665.941
328.270	25.802	837.956	665.230
329.285	25.801	836.992	664.402
330.300	25.638	836.269	663.169
331.314	25.423	835.445	661.665
332.329	25.485	835.012	661.494
333.343	25.856	835.011	662.797
334.358	26.088	834.699	663.344
335.373	26.086	833.938	662.675
336.387	26.155	833.442	662.473
337.402	26.424	833.082	663.115
338.416	26.601	832.582	663.308
339.431	26.610	831.908	662.746
340.446	26.558	831.287	662.000
341.460	26.833	830.942	662.673
342.475	26.692	830.312	661.596
343.489	26.368	829.766	659.921
344.504	26.441	829.116	659.612
345.519	26.739	828.963	660.520
346.533	26.849	828.884	660.798
347.548	26.963	828.261	660.660
348.562	26.970	827.671	660.153
349.577	26.991	827.021	659.656
350.592	26.920	826.272	658.742
351.606	26.918	825.949	658.418
352.621	26.933	825.402	657.976
353.635	27.018	824.759	657.713
354.650	26.669	824.373	656.085
355.665	26.366	823.458	654.204
356.679	25.244	821.946	648.888
357.694	25.174	821.062	647.880
358.708	25.919	821.367	650.753
359.723	25.770	820.755	649.674
360.738	26.040	820.660	650.515
361.752	26.393	820.717	651.776
362.767	26.620	820.124	652.063
363.781	26.902	819.821	652.781
364.796	27.178	819.454	653.425
365.810	27.119	819.555	653.233
366.825	27.230	819.160	653.259
367.840	27.286	818.705	653.040
368.854	27.019	818.152	651.583
369.869	26.697	816.880	649.357
370.883	26.422	816.730	648.196
371.898	26.606	815.706	647.986
372.913	26.630	815.168	647.586
373.927	26.586	814.532	646.867
374.942	26.782	813.754	646.893
375.956	26.748	813.615	646.603
376.971	26.883	813.160	646.665
377.986	27.076	812.705	646.931
379.000	27.137	812.424	646.870
380.015	27.184	811.971	646.619
381.029	27.143	810.896	645.560
382.044	27.107	810.108	644.746
383.059	27.088	810.032	644.563
384.073	27.269	809.453	644.687
385.088	27.018	809.123	643.478
386.102	27.173	808.342	643.347
387.117	26.990	807.664	642.103
388.132	26.862	807.103	641.149
389.146	26.817	806.242	640.249
390.161	26.314	805.225	637.610
391.175	26.358	804.861	637.422
392.190	26.765	805.226	639.089
393.205	26.869	804.635	638.928
394.219	25.896	803.176	634.293
395.234	24.353	800.538	626.737
396.248	23.444	799.603	622.758
397.263	24.558	800.484	627.301
398.278	26.221	801.908	634.209
399.292	26.846	801.638	636.131
400.307	26.486	801.097	634.382
401.321	26.473	800.593	633.881
402.336	26.596	800.012	633.797
403.350	26.804	800.317	634.713
404.365	27.271	799.948	635.997
405.380	27.574	799.859	636.928
406.394	27.860	799.371	637.483
407.409	28.035	799.115	637.831
408.423	27.945	798.424	636.909
409.438	27.748	798.314	636.079
410.453	27.793	798.020	635.946
411.467	27.977	797.338	635.987
412.482	27.658	797.015	634.561
413.496	27.742	796.253	634.192
414.511	27.841	796.204	634.439
415.526	27.912	795.645	634.184
416.540	27.973	795.031	633.851
417.555	27.902	794.560	633.173
418.569	27.537	794.007	631.413
419.584	27.437	793.544	630.642
420.599	27.603	793.367	631.019
421.613	108.887	1280.410	1446.561
422.628	93.698	1351.366	1446.658
