DTS Sentinel unit serial number:	SN413079Multiplexer serial number:	ORYXHardware model number:	OX4-SRSoftware version number:	ORYX F/W v4.00 Oryx Data Collector v3.7.2.0data status	okinstallation	princeton_trtdifferential loss correction	single-endedforward channel	channel 3reverse channel	N/Adate	2019/09/11time	20:54:10forward acquisition time	60.00reverse acquisition time	0.00gamma	496.2192k internal	0.2307k external	0.2307temperature offset calibration	1.0025default loss term (dB/km)	0.3790temperature slope calibration	1.0000multiplexer offset coefficient	1.0000multiplexer slope coefficient	1.0000fibre end	0.00T internal ref (°C)	36.87T ext. ref 1 (°C)	1.55T ext. ref 2 (°C)	30.68length (m)	temperature (°C)	Stokes	anti-Stokes-747.200	800.000	-0.060	-0.213
-746.185	-200.000	0.023	0.669
-745.171	-200.000	0.013	-0.283
-744.156	-36.935	0.186	0.101
-743.142	800.000	-0.085	-0.312
-742.127	-200.000	0.040	0.448
-741.112	-29.928	-0.200	0.116
-740.098	-200.000	0.027	0.128
-739.083	-92.206	-0.210	0.060
-738.069	-120.078	0.258	-0.045
-737.054	-56.748	0.220	-0.099
-736.039	-200.000	-0.000	0.190
-735.025	75.883	0.053	0.057
-734.010	410.222	0.041	-0.089
-732.996	-38.177	0.244	-0.131
-731.981	53.908	0.122	-0.119
-730.966	63.377	0.140	-0.143
-729.952	-77.296	0.223	-0.079
-728.937	240.691	0.096	-0.162
-727.923	-200.000	-0.071	-0.331
-726.908	-200.000	0.021	0.168
-725.894	-200.000	-0.065	-0.342
-724.879	-134.831	-0.203	-0.025
-723.864	142.197	0.070	0.094
-722.850	-155.149	0.161	0.011
-721.835	-35.467	-0.215	0.119
-720.821	-65.950	-0.189	-0.077
-719.806	34.266	-0.186	0.164
-718.791	-135.328	-0.186	0.023
-717.777	-200.000	0.074	-0.546
-716.762	800.000	-0.074	-0.227
-715.748	93.627	-0.197	-0.227
-714.733	-143.897	0.187	-0.018
-713.718	-200.000	-0.241	0.001
-712.704	-200.000	-0.020	0.181
-711.689	-200.000	-0.041	-0.222
-710.675	800.000	0.039	-0.173
-709.660	800.000	0.029	-0.120
-708.645	-124.111	-0.067	0.011
-707.631	4.260	0.277	0.206
-706.616	-200.000	0.059	-0.392
-705.602	-70.702	0.104	0.040
-704.587	4.433	0.291	-0.217
-703.572	80.019	-0.309	0.337
-702.558	-69.512	-0.197	-0.077
-701.543	-200.000	-0.036	0.160
-700.529	263.399	-0.085	0.150
-699.514	153.587	0.104	0.144
-698.499	-30.065	0.146	-0.084
-697.485	-60.538	0.409	0.176
-696.470	78.662	0.232	-0.252
-695.456	64.974	-0.202	-0.207
-694.441	62.409	-0.271	-0.275
-693.426	800.000	-0.016	-0.049
-692.412	-59.621	0.192	-0.084
-691.397	-43.443	0.145	-0.074
-690.383	68.320	0.130	0.135
-689.368	35.359	0.200	-0.178
-688.354	85.022	-0.166	0.185
-687.339	601.237	0.120	-0.302
-686.324	326.683	0.237	0.460
-685.310	135.502	0.144	0.190
-684.295	127.602	0.265	0.341
-683.281	800.000	-0.057	0.170
-682.266	-138.874	-0.185	-0.020
-681.251	41.369	0.061	0.056
-680.237	-95.855	0.195	0.053
-679.222	109.810	-0.121	-0.148
-678.208	53.904	0.162	-0.158
-677.193	-159.163	0.132	-0.008
-676.178	-126.003	-0.292	0.045
-675.164	800.000	0.034	-0.095
-674.149	371.341	-0.031	-0.065
-673.135	8.484	0.218	0.166
-672.120	43.989	0.273	0.254
-671.105	-76.567	0.334	-0.119
-670.091	140.587	-0.091	-0.122
-669.076	120.899	0.072	-0.091
-668.062	-36.159	0.033	-0.018
-667.047	-26.848	-0.294	0.174
-666.032	800.000	0.040	-0.142
-665.018	-200.000	0.041	0.221
-664.003	84.020	0.160	0.177
-662.989	-27.127	0.150	-0.089
-661.974	-120.453	0.395	-0.068
-660.959	-85.651	0.151	0.047
-659.945	467.678	-0.038	0.086
-658.930	-89.541	0.114	0.034
-657.916	-123.385	0.137	-0.022
-656.901	38.314	0.242	-0.219
-655.886	800.000	0.061	-0.208
-654.872	-95.516	0.405	-0.110
-653.857	199.611	-0.170	-0.263
-652.843	196.628	-0.109	0.169
-651.828	-35.631	0.145	0.080
-650.814	48.138	-0.253	0.240
-649.799	-41.157	0.094	0.049
-648.784	-140.256	0.198	-0.021
-647.770	-200.000	0.035	0.193
-646.755	-133.994	-0.182	-0.023
-645.741	-200.000	0.051	-0.419
-644.726	-200.000	-0.030	-0.243
-643.711	362.173	-0.084	-0.171
-642.697	595.203	-0.058	0.145
-641.682	238.021	-0.070	0.118
-640.668	486.951	-0.131	-0.302
-639.653	-40.519	0.347	-0.182
-638.638	26.862	-0.155	-0.132
-637.624	-158.076	0.367	0.022
-636.609	457.574	0.082	-0.184
-635.595	-30.051	-0.395	0.227
-634.580	-12.478	-0.039	0.026
-633.565	-200.000	0.027	-0.134
-632.551	-90.177	-0.266	-0.078
-631.536	205.077	0.150	0.236
-630.522	91.459	0.109	0.124
-629.507	632.007	-0.166	-0.426
-628.492	-200.000	-0.087	0.483
-627.478	-26.786	-0.108	-0.064
-626.463	-5.375	0.239	-0.166
-625.449	-101.462	0.203	0.050
-624.434	800.000	-0.050	0.216
-623.419	-83.984	0.214	0.069
-622.405	-134.445	-0.244	-0.030
-621.390	242.008	-0.110	-0.187
-620.376	-85.140	-0.202	-0.064
-619.361	800.000	-0.103	0.299
-618.346	-16.384	-0.253	-0.163
-617.332	-200.000	0.031	0.159
-616.317	-34.060	0.186	0.104
-615.303	-106.124	-0.150	0.034
-614.288	60.506	0.241	-0.241
-613.273	-200.000	-0.050	-0.340
-612.259	-50.519	-0.125	0.060
-611.244	161.488	0.074	0.104
-610.230	-193.587	-0.140	0.001
-609.215	-200.000	-0.051	0.301
-608.201	-65.443	0.414	0.168
-607.186	511.394	-0.034	-0.079
-606.171	86.179	-0.051	0.057
-605.157	379.045	-0.135	-0.280
-604.142	204.851	-0.185	0.291
-603.128	-15.717	0.088	-0.056
-602.113	29.095	0.135	-0.116
-601.098	0.802	0.042	0.030
-600.084	-136.412	-0.534	0.063
-599.069	-200.000	-0.031	-0.219
-598.055	-109.781	-0.215	-0.046
-597.040	800.000	-0.034	0.123
-596.025	-109.625	-0.045	0.010
-595.011	-34.150	-0.064	0.036
-593.996	151.497	0.037	0.051
-592.982	-35.443	-0.178	-0.098
-591.967	346.807	0.057	-0.114
-590.952	109.662	0.135	-0.163
-589.938	15.159	-0.070	-0.055
-588.923	115.634	-0.084	-0.104
-587.909	-72.615	-0.202	-0.075
-586.894	492.067	-0.026	0.060
-585.879	-200.000	-0.002	-0.140
-584.865	15.065	0.172	0.136
-583.850	-58.145	-0.154	0.068
-582.836	-200.000	0.014	-0.133
-581.821	-39.183	-0.378	0.201
-580.806	31.242	-0.162	-0.141
-579.792	-7.238	-0.175	-0.120
-578.777	29.607	0.105	0.090
-577.763	-60.225	0.282	-0.121
-576.748	800.000	0.015	-0.043
-575.733	-44.050	-0.208	-0.106
-574.719	40.860	-0.154	0.140
-573.704	-200.000	0.017	0.138
-572.690	-158.820	0.110	-0.006
-571.675	-91.582	0.170	0.049
-570.661	-200.000	-0.080	-0.365
-569.646	491.222	-0.097	-0.224
-568.631	-73.619	-0.110	-0.040
-567.617	-112.697	0.153	-0.031
-566.602	800.000	-0.041	-0.170
-565.588	-162.390	-0.417	-0.021
-564.573	-60.360	-0.329	-0.141
-563.558	6.987	-0.110	-0.083
-562.544	-145.171	0.234	0.021
-561.529	184.491	-0.146	0.219
-560.515	-112.164	0.150	-0.031
-559.500	-118.962	0.124	-0.022
-558.485	110.597	0.331	-0.402
-557.471	80.489	0.058	0.063
-556.456	31.732	0.127	0.110
-555.442	800.000	0.055	-0.172
-554.427	57.441	0.222	0.219
-553.412	-102.894	0.186	0.045
-552.398	462.096	-0.073	0.165
-551.383	195.883	0.157	0.242
-550.369	-200.000	-0.001	-0.121
-549.354	38.298	0.176	-0.158
-548.339	456.917	0.075	0.167
-547.325	-109.615	0.162	-0.034
-546.310	314.521	0.157	-0.298
-545.296	183.432	0.078	-0.116
-544.281	-105.273	-0.088	-0.020
-543.266	-106.796	0.417	-0.093
-542.252	-119.742	-0.101	0.018
-541.237	33.254	-0.137	-0.120
-540.223	732.071	0.091	0.246
-539.208	65.795	0.212	-0.217
-538.193	202.269	0.097	-0.151
-537.179	-14.092	0.263	0.171
-536.164	-17.567	0.054	0.034
-535.150	620.350	-0.105	-0.267
-534.135	-23.329	0.205	0.124
-533.121	800.000	0.042	0.139
-532.106	43.175	-0.180	-0.165
-531.091	140.037	-0.155	0.206
-530.077	-200.000	-0.059	-0.274
-529.062	-99.469	0.410	-0.104
-528.048	800.000	0.033	-0.109
-527.033	-90.528	0.152	-0.044
-526.018	-14.928	0.411	0.266
-525.004	-5.355	0.120	-0.083
-523.989	-200.000	-0.006	0.369
-522.975	-83.413	-0.252	0.081
-521.960	115.315	0.286	-0.352
-520.945	800.000	0.075	-0.257
-519.931	800.000	-0.053	-0.229
-518.916	-183.608	-0.139	0.002
-517.902	-200.000	-0.003	-0.057
-516.887	-200.000	0.015	-0.192
-515.872	800.000	-0.042	-0.135
-514.858	-61.867	-0.280	-0.118
-513.843	302.651	-0.031	0.058
-512.829	639.142	-0.070	0.181
-511.814	171.300	-0.282	-0.408
-510.799	-4.433	0.148	0.103
-509.785	6.228	0.220	0.165
-508.770	-42.968	0.234	0.119
-507.756	-22.740	0.162	0.099
-506.741	85.597	-0.191	-0.212
-505.726	-147.238	-0.211	0.018
-504.712	231.056	-0.137	-0.226
-503.697	-200.000	-0.055	-0.266
-502.683	-200.000	0.021	0.146
-501.668	462.945	0.039	0.088
-500.653	-11.623	-0.234	0.155
-499.639	800.000	0.047	0.191
-498.624	-62.436	-0.132	-0.055
-497.610	-152.856	-0.041	-0.003
-496.595	175.700	0.191	-0.278
-495.581	-200.000	-0.027	-0.247
-494.566	800.000	0.042	0.152
-493.551	107.445	0.142	0.170
-492.537	21.788	0.191	0.157
-491.522	-200.000	0.023	-0.231
-490.508	-53.926	-0.276	0.126
-489.493	800.000	-0.050	-0.194
-488.478	800.000	0.018	-0.076
-487.464	353.835	-0.050	0.099
-486.449	41.616	0.319	-0.291
-485.435	24.114	-0.144	-0.120
-484.420	517.041	-0.122	-0.287
-483.405	-24.210	-0.119	0.072
-482.391	284.932	0.114	0.207
-481.376	-5.581	0.235	-0.163
-480.362	-103.600	-0.162	0.038
-479.347	96.682	-0.090	0.104
-478.332	-138.461	-0.249	-0.028
-477.318	-200.000	0.042	-0.376
-476.303	-174.344	-0.435	0.013
-475.289	-35.460	-0.247	-0.135
-474.274	14.756	-0.338	0.265
-473.259	-200.000	-0.045	0.225
-472.245	410.794	0.122	-0.260
-471.230	127.054	-0.085	-0.108
-470.216	-61.526	0.124	-0.052
-469.201	-114.277	0.405	0.079
-468.186	40.878	-0.124	-0.112
-467.172	98.542	-0.034	-0.039
-466.157	114.530	-0.129	0.158
-465.143	87.503	0.098	0.109
-464.128	30.408	0.147	0.127
-463.113	800.000	0.017	0.051
-462.099	-200.000	-0.025	0.236
-461.084	368.900	0.176	-0.357
-460.070	-200.000	0.004	0.094
-459.055	-18.387	0.121	-0.076
-458.040	-2.162	0.308	-0.218
-457.026	-200.000	0.016	0.085
-456.011	20.158	-0.165	-0.134
-454.997	-200.000	-0.014	0.210
-453.982	-92.110	-0.178	-0.051
-452.968	-15.790	-0.086	-0.055
-451.953	-46.206	0.202	0.100
-450.938	800.000	-0.037	-0.127
-449.924	-200.000	0.036	0.163
-448.909	-200.000	0.040	0.242
-447.895	-65.570	-0.323	0.130
-446.880	-200.000	0.005	0.205
-445.865	-109.406	-0.462	-0.098
-444.851	180.886	0.060	-0.089
-443.836	-27.091	0.280	0.164
-442.822	-200.000	-0.026	0.222
-441.807	-33.601	-0.221	0.123
-440.792	-72.874	0.187	0.069
-439.778	-200.000	-0.039	0.199
-438.763	800.000	-0.117	-0.332
-437.749	5.042	-0.155	-0.115
-436.734	-90.433	-0.255	0.074
-435.719	85.576	0.120	-0.132
-434.705	-3.995	0.398	0.277
-433.690	368.410	-0.107	0.218
-432.676	396.113	0.053	-0.111
-431.661	-200.000	0.004	0.052
-430.646	629.452	0.122	-0.310
-429.632	-2.931	0.321	0.225
-428.617	126.690	-0.236	0.300
-427.603	276.515	-0.074	-0.131
-426.588	-111.209	0.150	0.031
-425.573	-79.148	0.207	0.070
-424.559	159.232	-0.035	-0.049
-423.544	22.068	0.086	-0.071
-422.530	800.000	-0.049	0.184
-421.515	205.726	0.074	0.115
-420.500	240.964	0.168	0.281
-419.486	561.904	0.046	0.112
-418.471	541.276	-0.105	0.252
-417.457	-101.962	0.354	0.086
-416.442	-87.633	0.037	-0.011
-415.428	130.456	0.134	0.172
-414.413	391.120	0.165	0.343
-413.398	-59.194	-0.207	0.090
-412.384	-39.615	0.143	0.075
-411.369	800.000	-0.084	0.271
-410.355	253.059	-0.040	-0.068
-409.340	100.007	-0.335	0.389
-408.325	-198.878	-0.155	-0.001
-407.311	298.450	-0.109	0.201
-406.296	-33.537	-0.084	-0.046
-405.282	-129.108	-0.137	0.019
-404.267	-127.490	0.250	0.036
-403.252	286.986	0.016	-0.029
-402.238	-61.622	0.280	-0.118
-401.223	-153.628	-0.139	-0.010
-400.209	570.515	-0.052	0.126
-399.194	-87.676	-0.392	-0.119
-398.179	-200.000	-0.001	-0.098
-397.165	-107.867	-0.125	-0.027
-396.150	800.000	0.027	0.101
-395.136	-84.739	0.247	-0.078
-394.121	159.347	0.144	0.201
-393.106	-101.648	-0.122	-0.030
-392.092	-141.167	-0.228	0.023
-391.077	800.000	-0.104	-0.342
-390.063	-200.000	0.006	-0.154
-389.048	132.910	0.039	0.050
-388.033	492.129	0.096	0.220
-387.019	-100.721	-0.204	-0.050
-386.004	51.125	0.041	0.039
-384.990	-200.000	0.002	-0.038
-383.975	-17.882	0.125	0.078
-382.960	-115.745	0.218	-0.041
-381.946	-56.504	0.384	-0.171
-380.931	-200.000	-0.019	0.303
-379.917	146.358	0.118	-0.159
-378.902	-88.355	0.232	0.069
-377.888	-200.000	0.066	0.379
-376.873	-200.000	0.036	-0.216
-375.858	531.680	0.133	0.316
-374.844	-1.218	0.204	0.144
-373.829	287.089	0.249	0.450
-372.815	800.000	-0.015	0.054
-371.800	-200.000	-0.010	0.097
-370.785	197.321	0.100	0.153
-369.771	-200.000	-0.013	0.174
-368.756	-63.117	0.238	-0.099
-367.742	-200.000	-0.026	0.119
-366.727	419.655	-0.077	0.165
-365.712	77.224	-0.195	-0.208
-364.698	-10.629	-0.287	-0.190
-363.683	254.000	-0.168	0.288
-362.669	800.000	-0.038	0.135
-361.654	6.254	0.193	-0.143
-360.639	58.029	0.102	-0.100
-359.625	-200.000	0.037	-0.163
-358.610	-70.928	0.128	0.048
-357.596	-81.453	-0.238	0.078
-356.581	-200.000	-0.006	-0.107
-355.566	-29.001	-0.113	0.065
-354.552	178.359	-0.089	0.130
-353.537	-200.000	0.031	-0.160
-352.523	-200.000	-0.012	0.326
-351.508	7.903	-0.139	-0.105
-350.493	-200.000	0.024	-0.194
-349.479	-157.504	-0.361	0.022
-348.464	-132.481	0.151	0.019
-347.450	240.498	0.110	-0.183
-346.435	407.171	0.113	-0.239
-345.420	800.000	-0.087	0.261
-344.406	195.856	0.156	0.237
-343.391	800.000	0.070	0.215
-342.377	-5.918	-0.176	0.120
-341.362	-122.964	-0.327	-0.053
-340.348	-200.000	-0.011	-0.232
-339.333	53.908	-0.111	-0.106
-338.318	-200.000	0.021	-0.171
-337.304	4.901	0.104	0.076
-336.289	699.745	0.139	0.367
-335.275	-70.530	0.076	-0.029
-334.260	625.475	0.125	0.316
-333.245	-200.000	0.023	0.108
-332.231	-200.000	-0.009	-0.258
-331.216	-70.366	-0.182	-0.069
-330.202	37.252	0.244	-0.216
-329.187	-200.000	-0.003	-0.114
-328.172	-0.739	0.104	0.074
-327.158	-14.606	0.200	0.129
-326.143	-127.777	-0.165	0.024
-325.129	353.286	0.118	0.234
-324.114	-115.645	0.234	-0.044
-323.099	349.574	-0.062	0.123
-322.085	-200.000	-0.091	-0.483
-321.070	-47.667	-0.410	0.199
-320.056	-72.481	-0.329	-0.122
-319.041	736.347	-0.063	0.170
-318.026	52.748	-0.135	-0.129
-317.012	160.418	0.131	0.183
-315.997	130.614	-0.060	-0.077
-314.983	-90.288	-0.144	0.042
-313.968	334.713	-0.062	0.121
-312.953	-19.441	0.105	0.065
-311.939	-95.628	0.043	-0.011
-310.924	-3.457	-0.255	-0.177
-309.910	800.000	-0.055	-0.158
-308.895	800.000	0.110	0.341
-307.880	800.000	-0.087	-0.319
-306.866	30.469	-0.064	-0.054
-305.851	112.157	-0.255	-0.308
-304.837	41.971	0.147	0.133
-303.822	382.012	-0.023	0.047
-302.807	170.962	0.074	0.106
-301.793	-150.899	-0.040	0.003
-300.778	663.331	0.131	-0.339
-299.764	-143.863	-0.072	-0.007
-298.749	98.517	-0.054	0.062
-297.735	317.463	0.157	-0.298
-296.720	-200.000	0.052	-0.321
-295.705	-44.154	-0.037	-0.018
-294.691	-65.670	-0.156	-0.063
-293.676	186.591	-0.120	-0.178
-292.662	33.083	0.159	-0.138
-291.647	-23.087	0.305	-0.183
-290.632	43.026	0.087	0.080
-289.618	119.966	0.076	0.094
-288.603	-103.155	0.118	0.028
-287.589	-169.908	0.364	-0.013
-286.574	7.224	0.302	-0.225
-285.559	373.165	0.078	0.159
-284.545	-147.358	-0.373	-0.032
-283.530	-200.000	0.026	-0.454
-282.516	708.473	0.003	0.008
-281.501	763.440	-0.042	0.115
-280.486	-146.320	0.216	0.019
-279.472	13.070	-0.121	-0.094
-278.457	152.610	0.088	-0.121
-277.443	37.778	0.185	-0.164
-276.428	-89.076	-0.160	0.047
-275.413	-200.000	0.055	0.249
-274.399	-56.680	-0.041	-0.018
-273.384	-178.421	-0.206	0.005
-272.370	-109.048	-0.197	-0.042
-271.355	660.237	0.046	0.118
-270.340	49.073	0.129	0.121
-269.326	-200.000	-0.035	0.192
-268.311	-8.228	-0.301	-0.202
-267.297	-200.000	-0.040	0.283
-266.282	-130.328	-0.389	0.053
-265.267	-34.716	-0.115	-0.063
-264.253	-92.241	0.119	0.034
-263.238	34.187	0.206	0.179
-262.224	157.502	-0.216	0.298
-261.209	397.445	0.141	-0.295
-260.195	800.000	-0.004	-0.014
-259.180	2.752	0.262	-0.190
-258.165	800.000	-0.054	0.175
-257.151	-5.373	-0.237	0.163
-256.136	44.430	-0.192	-0.176
-255.122	-76.421	0.100	-0.035
-254.107	-200.000	0.001	0.115
-253.092	38.596	0.208	0.185
-252.078	-200.000	0.012	0.249
-251.063	-97.479	-0.226	-0.059
-250.049	800.000	0.012	-0.035
-249.034	-26.806	0.163	-0.095
-248.019	263.995	-0.171	-0.297
-247.005	800.000	-0.030	-0.087
-245.990	-117.971	-0.264	-0.047
-244.976	-146.959	-0.303	0.026
-243.961	13.805	0.241	-0.187
-242.946	11.322	-0.146	0.111
-241.932	800.000	-0.075	-0.236
-240.917	713.155	0.158	-0.418
-239.903	-159.769	-0.392	0.022
-238.888	413.425	0.177	0.374
-237.873	-100.991	0.285	-0.070
-236.859	497.015	0.078	0.179
-235.844	-200.000	0.042	-0.584
-234.830	418.002	-0.111	0.236
-233.815	-110.027	-0.314	-0.065
-232.800	-118.001	0.061	-0.011
-231.786	264.066	-0.158	-0.273
-230.771	-200.000	-0.006	-0.102
-229.757	78.970	-0.355	0.379
-228.742	-131.949	-0.490	-0.064
-227.727	397.625	0.055	0.114
-226.713	-10.571	0.025	0.016
-225.698	1.588	-0.139	0.100
-224.684	-105.727	0.160	-0.036
-223.669	-85.827	0.339	0.105
-222.655	-30.739	0.353	-0.199
-221.640	-11.386	0.255	0.167
-220.625	-40.499	0.096	0.050
-219.611	-97.895	0.162	-0.042
-218.596	-200.000	0.023	0.175
-217.582	665.621	0.006	0.016
-216.567	-29.086	-0.036	-0.021
-215.552	262.945	0.077	0.133
-214.538	34.856	0.023	-0.020
-213.523	-56.805	0.274	-0.121
-212.509	800.000	0.116	0.413
-211.494	-39.624	-0.053	-0.028
-210.479	569.360	-0.141	-0.341
-209.465	93.510	-0.154	-0.174
-208.450	-132.098	-0.315	-0.041
-207.436	-166.470	0.366	-0.015
-206.421	-57.542	0.084	0.037
-205.406	800.000	-0.087	0.257
-204.392	533.845	-0.094	-0.221
-203.377	-200.000	0.041	0.199
-202.363	-200.000	-0.092	0.576
-201.348	306.899	-0.089	0.164
-200.333	-161.649	-0.225	0.011
-199.319	329.774	0.165	-0.316
-198.304	20.261	0.192	0.154
-197.290	-5.874	0.298	0.203
-196.275	-71.110	0.218	0.082
-195.260	348.883	0.080	-0.157
-194.246	124.719	0.090	0.113
-193.231	-200.000	-0.040	-0.478
-192.217	800.000	-0.016	0.069
-191.202	-66.386	-0.453	0.179
-190.187	-200.000	-0.017	-0.371
-189.173	-139.467	-0.051	-0.005
-188.158	323.871	0.097	-0.184
-187.144	800.000	-0.041	0.150
-186.129	21.367	0.257	-0.208
-185.114	-200.000	-0.004	-0.176
-184.100	-50.932	0.211	-0.099
-183.085	373.848	-0.152	0.307
-182.071	800.000	-0.011	0.036
-181.056	-200.000	0.001	0.033
-180.042	-88.349	0.220	-0.065
-179.027	239.567	-0.150	0.248
-178.012	-200.000	-0.041	0.462
-176.998	-48.628	-0.322	-0.154
-175.983	-37.394	0.221	0.117
-174.969	-14.499	-0.397	-0.254
-173.954	800.000	-0.050	-0.150
-172.939	-122.500	-0.132	-0.021
-171.925	-97.119	0.363	-0.094
-170.910	-171.492	0.122	0.004
-169.896	-200.000	-0.004	0.085
-168.881	-88.282	0.047	-0.014
-167.866	-44.778	-0.210	0.104
-166.852	-61.796	-0.223	0.093
-165.837	143.095	0.232	0.307
-164.823	-152.544	-0.119	0.008
-163.808	-111.480	-0.079	-0.016
-162.793	-140.868	-0.200	0.020
-161.779	59.824	0.077	0.076
-160.764	-37.645	-0.239	0.127
-159.750	9.698	-0.137	-0.103
-158.735	116.756	-0.178	0.217
-157.720	58.378	-0.042	-0.041
-156.706	-141.488	0.535	-0.054
-155.691	800.000	0.041	0.136
-154.677	47.594	0.230	-0.214
-153.662	-112.561	0.326	0.065
-152.647	385.176	-0.062	-0.126
-151.633	-61.208	0.152	-0.064
-150.618	29.289	-0.095	-0.080
-149.604	255.809	-0.114	0.194
-148.589	-115.288	0.171	0.032
-147.574	-142.863	0.065	0.006
-146.560	-200.000	0.003	-0.361
-145.545	-29.222	-0.175	-0.099
-144.531	298.898	0.213	-0.390
-143.516	-200.000	0.049	-0.388
-142.502	-49.253	0.165	0.078
-141.487	-132.413	0.052	-0.007
-140.472	800.000	-0.032	-0.090
-139.458	800.000	-0.023	-0.091
-138.443	-55.946	-0.270	0.120
-137.429	-200.000	0.004	-0.173
-136.414	273.899	-0.052	0.091
-135.399	-123.944	0.264	0.041
-134.385	800.000	0.033	0.096
-133.370	48.028	-0.091	-0.084
-132.356	731.075	-0.064	0.170
-131.341	199.412	-0.175	-0.266
-130.326	204.332	-0.057	-0.088
-129.312	97.467	-0.079	0.090
-128.297	186.026	-0.075	-0.111
-127.283	173.022	-0.346	-0.495
-126.268	-17.396	0.477	-0.298
-125.253	-114.674	-0.044	-0.008
-124.239	70.205	0.048	-0.049
-123.224	285.041	-0.124	-0.221
-122.210	12.843	-0.158	0.121
-121.195	-59.332	-0.184	-0.079
-120.180	-123.000	-0.206	0.033
-119.166	800.000	-0.086	0.270
-118.151	67.512	0.150	-0.152
-117.137	-64.651	0.064	-0.026
-116.122	800.000	-0.050	0.206
-115.107	-200.000	0.044	0.246
-114.093	-124.463	-0.180	0.028
-113.078	206.909	-0.038	-0.059
-112.064	74.027	-0.025	0.026
-111.049	-200.000	-0.013	0.305
-110.034	-168.651	-0.283	-0.011
-109.020	82.567	0.154	0.166
-108.005	-200.000	0.032	-0.162
-106.991	218.085	-0.074	-0.116
-105.976	800.000	0.066	0.184
-104.962	-67.680	0.167	-0.065
-103.947	-99.743	-0.099	-0.025
-102.932	0.435	-0.208	0.148
-101.918	254.258	0.133	-0.226
-100.903	-89.111	-0.089	-0.026
-99.889	-19.157	-0.133	-0.082
-98.874	-15.482	-0.297	0.188
-97.859	800.000	-0.040	0.136
-96.845	56.495	-0.209	0.202
-95.830	-200.000	-0.023	0.139
-94.816	-123.964	0.261	0.041
-93.801	-141.780	-0.075	0.007
-92.786	-91.247	-0.316	-0.090
-91.772	267.163	0.113	-0.196
-90.757	-88.997	-0.383	0.112
-89.743	754.193	0.074	0.198
-88.728	-107.602	-0.119	-0.026
-87.713	407.342	-0.026	0.055
-86.699	-47.182	-0.396	0.191
-85.684	-182.839	0.343	0.006
-84.670	206.505	-0.072	0.111
-83.655	266.987	0.124	0.214
-82.640	-32.982	-0.324	0.178
-81.626	440.895	-0.119	-0.259
-80.611	-200.000	-0.003	0.127
-79.597	-200.000	-0.064	-0.429
-78.582	-200.000	0.034	-0.183
-77.567	800.000	-0.054	0.186
-76.553	32.778	0.112	0.096
-75.538	-200.000	-0.005	-0.494
-74.524	-200.000	-0.019	0.112
-73.509	-27.352	-0.079	0.045
-72.494	800.000	-0.138	0.466
-71.480	40.232	-0.104	-0.093
-70.465	-200.000	-0.147	-0.000
-69.451	212.039	0.280	0.436
-68.436	800.000	0.041	-0.169
-67.422	800.000	-0.050	0.148
-66.407	-111.093	-0.236	0.048
-65.392	14.572	0.295	0.228
-64.378	-47.016	0.323	-0.156
-63.363	800.000	-0.031	0.122
-62.349	521.617	0.107	-0.248
-61.334	85.482	-0.863	-0.938
-60.319	800.000	0.145	0.612
-59.305	-200.000	0.030	-0.693
-58.290	-200.000	0.213	1.120
-57.276	800.000	0.538	1.632
-56.261	-200.000	89.482	524.757
-55.246	514.646	1363.399	3149.212
-54.232	152.315	2574.261	3477.376
-53.217	115.294	2194.209	2652.073
-52.203	47.242	1730.067	1594.094
-51.188	39.967	1539.160	1368.014
-50.173	37.578	1510.825	1326.516
-49.159	54.738	1559.417	1488.466
-48.144	58.895	1578.962	1535.891
-47.130	40.394	1535.463	1367.456
-46.115	37.101	1520.433	1331.467
-45.100	37.091	1516.250	1327.683
-44.086	36.911	1514.975	1325.277
-43.071	36.892	1513.027	1323.390
-42.057	36.805	1511.564	1321.467
-41.042	36.720	1510.149	1319.596
-40.027	36.847	1509.211	1319.590
-39.013	36.945	1507.113	1318.371
-37.998	36.835	1506.037	1316.633
-36.984	36.787	1505.414	1315.706
-35.969	36.929	1503.064	1314.565
-34.954	36.901	1501.543	1312.991
-33.940	36.804	1500.698	1311.546
-32.925	36.825	1499.654	1310.722
-31.911	36.878	1498.056	1309.635
-30.896	36.932	1496.739	1308.793
-29.881	36.946	1495.236	1307.520
-28.867	37.020	1493.664	1306.594
-27.852	36.879	1492.925	1304.946
-26.838	36.991	1490.611	1303.623
-25.823	36.843	1489.891	1301.951
-24.809	36.792	1487.799	1299.726
-23.794	36.857	1486.219	1298.730
-22.779	37.001	1484.907	1298.499
-21.765	36.957	1483.716	1297.112
-20.750	36.937	1482.547	1295.901
-19.736	36.949	1481.770	1295.254
-18.721	36.826	1481.038	1293.739
-17.706	36.879	1479.642	1292.821
-16.692	36.886	1478.361	1291.699
-15.677	36.914	1477.502	1291.080
-14.663	36.784	1476.694	1289.460
-13.648	36.883	1475.288	1288.838
-12.633	36.837	1474.207	1287.536
-11.619	36.783	1473.635	1286.629
-10.604	36.725	1472.952	1285.598
-9.590	36.865	1471.217	1284.958
-8.575	36.889	1470.517	1284.453
-7.560	36.808	1469.906	1283.332
-6.546	36.986	1468.839	1283.528
-5.531	36.930	1467.997	1282.373
-4.517	36.866	1466.926	1280.964
-3.502	36.859	1465.972	1280.033
-2.487	36.893	1465.127	1279.471
-1.473	36.796	1464.242	1278.008
-0.458	36.831	1462.455	1276.624
0.556	36.515	1453.288	1265.244
1.571	33.330	1426.763	1221.526
2.586	29.543	1365.612	1145.625
3.600	27.713	1282.353	1065.008
4.615	26.118	1234.807	1016.457
5.629	22.011	1177.145	946.806
6.644	11.249	1088.699	821.625
7.659	2.934	1043.761	747.316
8.673	1.743	1037.892	737.285
9.688	1.566	1034.929	734.260
10.702	1.513	1033.128	732.663
11.717	1.399	1031.907	731.185
12.731	5.211	1035.710	752.206
13.746	15.451	1050.643	812.799
14.761	22.957	1060.122	856.592
15.775	24.277	1060.982	863.613
16.790	24.470	1060.583	864.142
17.804	24.133	1060.118	862.058
18.819	24.078	1059.029	860.832
19.834	24.171	1058.263	860.579
20.848	24.290	1057.886	860.770
21.863	24.376	1057.670	860.934
22.877	24.369	1056.988	860.271
23.892	24.330	1056.463	859.576
24.907	24.196	1055.300	857.910
25.921	24.145	1054.838	857.216
26.936	24.317	1054.353	857.570
27.950	24.429	1052.657	856.655
28.965	24.177	1052.156	854.960
29.980	23.998	1050.780	852.909
30.994	24.134	1049.621	852.545
32.009	24.327	1048.359	852.366
33.023	24.290	1047.864	851.711
34.038	24.227	1046.670	850.366
35.053	24.139	1045.987	849.314
36.067	24.258	1045.551	849.453
37.082	24.347	1044.526	848.968
38.096	24.401	1043.822	848.580
39.111	24.535	1043.239	848.667
40.126	24.651	1042.153	848.260
41.140	24.521	1041.148	846.749
42.155	24.180	1039.997	844.125
43.169	24.062	1038.418	842.208
44.184	23.928	1037.274	840.573
45.199	24.029	1036.288	840.176
46.213	23.920	1035.454	838.910
47.228	23.927	1034.737	838.290
48.242	24.147	1033.381	838.153
49.257	24.158	1033.071	837.880
50.271	24.232	1032.486	837.680
51.286	24.327	1031.563	837.299
52.301	24.340	1030.969	836.807
53.315	24.321	1029.989	835.849
54.330	24.328	1029.489	835.402
55.344	24.298	1028.704	834.548
56.359	24.327	1027.741	833.831
57.374	24.395	1026.817	833.326
58.388	24.114	1025.796	831.110
59.403	24.167	1025.037	830.668
60.417	24.047	1024.425	829.540
61.432	23.804	1024.163	828.124
62.447	23.916	1023.329	827.894
63.461	24.072	1022.469	827.852
64.476	24.102	1021.720	827.313
65.490	24.096	1020.877	826.526
66.505	23.874	1020.311	824.965
67.520	23.952	1019.065	824.249
68.534	24.097	1018.529	824.413
69.549	23.974	1017.768	823.158
70.563	23.524	1016.785	820.207
71.578	23.497	1015.711	819.146
72.593	23.505	1014.953	818.495
73.607	23.450	1013.482	816.985
74.622	23.448	1012.838	816.382
75.636	23.796	1012.287	817.468
76.651	23.885	1011.845	817.447
77.666	23.781	1010.879	816.120
78.680	23.675	1009.554	814.491
79.695	23.742	1008.797	814.114
80.709	23.679	1008.807	813.762
81.724	23.914	1007.782	813.940
82.739	23.797	1007.060	812.750
83.753	23.826	1006.432	812.301
84.768	24.048	1005.874	812.795
85.782	24.403	1005.017	813.648
86.797	24.693	1004.556	814.527
87.812	24.538	1003.542	812.924
88.826	24.484	1002.468	811.737
89.841	24.377	1002.069	810.857
90.855	24.544	1001.012	810.686
91.870	24.500	1000.184	809.745
92.884	24.491	999.630	809.185
93.899	24.512	998.422	808.232
94.914	24.222	997.568	806.155
95.928	24.389	996.638	806.087
96.943	24.526	996.129	806.224
97.957	24.202	994.897	803.696
98.972	24.020	993.803	801.921
99.987	23.837	992.149	799.691
101.001	23.864	991.879	799.521
102.016	24.194	991.553	800.673
103.030	24.205	990.703	799.965
104.045	24.217	989.430	798.918
105.060	24.098	988.029	797.186
106.074	23.889	986.998	795.349
107.089	23.897	986.211	794.681
108.103	24.191	986.297	795.993
109.118	24.305	985.201	795.545
110.133	24.042	984.032	793.360
111.147	23.964	983.024	792.128
112.162	23.920	981.940	790.990
113.176	23.816	980.077	788.959
114.191	23.781	980.078	788.734
115.206	23.971	979.133	788.745
116.220	23.719	977.900	786.567
117.235	23.507	977.007	784.842
118.249	23.600	976.545	784.813
119.264	23.698	975.783	784.562
120.279	23.506	975.012	783.025
121.293	23.514	974.115	782.269
122.308	23.702	973.338	782.409
123.322	23.680	972.817	781.822
124.337	23.788	971.088	780.839
125.352	23.612	970.427	779.466
126.366	23.189	968.661	776.121
127.381	22.997	967.087	773.953
128.395	23.325	967.030	775.275
129.410	23.991	966.478	777.673
130.424	24.223	966.156	778.361
131.439	24.168	965.086	777.188
132.454	24.150	963.860	776.054
133.468	24.113	962.838	775.003
134.483	24.101	962.507	774.613
135.497	24.121	961.697	773.980
136.512	24.342	960.646	774.027
137.527	24.505	960.380	774.450
138.541	24.425	959.488	773.316
139.556	24.573	958.665	773.226
140.570	24.465	957.990	772.143
141.585	24.356	957.456	771.174
142.600	24.572	956.428	771.213
143.614	24.401	955.491	769.652
144.629	24.578	954.931	769.893
145.643	24.687	954.366	769.840
146.658	24.701	953.002	768.733
147.673	24.407	951.935	766.540
148.687	24.315	950.784	765.151
149.702	24.268	949.836	764.117
150.716	24.292	948.974	763.461
151.731	24.147	947.358	761.474
152.746	24.191	947.499	761.705
153.760	24.381	946.728	761.832
154.775	24.480	946.022	761.618
155.789	24.691	944.806	761.471
156.804	24.510	944.138	760.097
157.819	24.505	943.094	759.164
158.833	24.535	942.428	758.691
159.848	24.607	941.775	758.401
160.862	24.671	940.689	757.732
161.877	24.568	940.205	756.841
162.892	24.404	939.330	755.374
163.906	24.640	938.191	755.390
164.921	24.535	937.281	754.146
165.935	24.583	936.031	753.276
166.950	24.425	935.346	751.990
167.964	24.574	934.549	751.910
168.979	24.392	933.539	750.268
169.994	24.441	932.345	749.449
171.008	24.242	931.248	747.662
172.023	24.515	930.487	748.131
173.037	24.584	929.856	747.848
174.052	24.353	929.055	746.169
175.067	24.201	928.310	744.871
176.081	24.267	927.003	744.031
177.096	24.380	926.210	743.799
178.110	24.392	925.236	743.003
179.125	24.131	924.594	741.335
180.140	24.004	923.187	739.614
181.154	23.994	922.970	739.330
182.169	24.053	922.637	739.245
183.183	24.100	921.998	738.864
184.198	24.417	921.907	740.039
185.213	24.579	920.770	739.730
186.227	24.319	920.378	738.273
187.242	24.400	919.868	738.138
188.256	24.459	919.143	737.734
189.271	24.533	918.359	737.342
190.286	24.545	917.759	736.845
191.300	24.395	916.594	735.228
192.315	23.917	915.262	732.126
193.329	23.099	913.844	727.566
194.344	22.821	912.620	725.384
195.359	23.348	912.853	727.669
196.373	24.222	913.370	731.609
197.388	24.522	913.069	732.531
198.402	24.395	912.572	731.547
199.417	24.285	912.014	730.586
200.432	24.372	911.817	730.721
201.446	24.288	910.893	729.572
202.461	23.958	910.128	727.545
203.475	24.008	909.382	727.089
204.490	23.656	907.748	724.279
205.504	22.525	905.670	717.954
206.519	22.852	905.766	719.299
207.534	23.831	906.175	723.548
208.548	24.032	905.579	723.824
209.563	24.375	905.467	725.066
210.577	24.446	904.523	724.530
211.592	24.129	903.985	722.752
212.607	24.480	903.858	724.010
213.621	24.621	903.323	724.090
214.636	24.477	902.511	722.792
215.650	24.641	901.965	722.954
216.665	24.589	901.285	722.135
217.680	24.578	901.271	722.012
218.694	24.636	900.605	721.649
219.709	24.323	899.724	719.618
220.723	23.897	898.653	716.982
221.738	24.217	898.017	717.699
222.753	24.312	897.725	717.783
223.767	24.303	896.839	716.977
224.782	24.411	896.286	716.903
225.796	24.740	895.146	717.251
226.811	24.749	895.117	717.199
227.826	24.366	893.603	714.391
228.840	23.535	892.251	709.923
229.855	23.505	891.448	709.098
230.869	23.681	891.290	709.612
231.884	23.286	890.446	707.302
232.899	23.362	890.163	707.319
233.913	24.133	890.532	710.627
234.928	24.372	889.877	710.994
235.942	24.242	889.042	709.746
236.957	24.381	888.176	709.542
237.972	23.952	887.302	707.081
238.986	23.971	886.574	706.513
240.001	24.010	886.420	706.479
241.015	24.067	885.253	705.712
242.030	24.113	884.879	705.535
243.045	24.319	884.457	705.951
244.059	24.366	883.793	705.547
245.074	24.459	883.756	705.820
246.088	24.437	882.747	704.868
247.103	24.203	881.486	702.874
248.117	24.200	880.929	702.356
249.132	24.674	881.048	704.258
250.147	24.922	881.346	705.410
251.161	25.244	880.276	705.756
252.176	25.294	880.177	705.814
253.190	25.192	879.624	704.904
254.205	25.221	879.128	704.559
255.220	25.525	878.546	705.223
256.234	25.457	877.877	704.360
257.249	25.355	877.515	703.604
258.263	25.258	876.087	702.017
259.278	25.332	876.030	702.201
260.293	25.327	875.556	701.738
261.307	25.397	875.111	701.592
262.322	25.286	874.389	700.521
263.336	25.070	873.900	699.224
264.351	24.600	872.596	696.287
265.366	23.686	870.233	690.785
266.380	23.273	869.478	688.519
267.395	24.016	870.060	691.809
268.409	24.798	870.069	694.794
269.424	24.786	869.365	694.122
270.439	24.822	869.264	694.121
271.453	25.158	868.335	694.620
272.468	25.147	867.443	693.801
273.482	25.166	867.253	693.661
274.497	25.307	867.077	694.006
275.512	25.043	866.131	692.168
276.526	24.628	864.562	689.251
277.541	24.740	864.584	689.640
278.555	25.161	864.486	691.125
279.570	24.847	863.943	689.420
280.585	24.802	862.756	688.238
281.599	24.878	862.265	688.078
282.614	24.796	861.853	687.374
283.628	24.470	861.065	685.432
284.643	24.163	860.116	683.437
285.657	24.611	860.055	685.049
286.672	24.486	858.988	683.657
287.687	24.110	858.065	681.426
288.701	24.254	858.348	682.139
289.716	24.731	858.225	683.806
290.730	24.479	856.757	681.614
291.745	24.353	856.059	680.518
292.760	24.235	854.860	679.056
293.774	24.030	854.537	677.959
294.789	24.852	855.438	681.744
295.803	25.602	854.977	684.171
296.818	25.571	854.785	683.840
297.833	25.778	853.894	683.853
298.847	25.357	853.117	681.573
299.862	25.094	851.882	679.528
300.876	25.195	851.830	679.807
301.891	25.598	851.355	680.897
302.906	25.670	850.803	680.668
303.920	25.392	850.137	679.022
304.935	25.062	848.921	676.744
305.949	25.614	849.123	678.932
306.964	25.598	848.306	678.158
307.979	25.278	847.755	676.452
308.993	25.241	847.390	675.961
310.008	25.631	847.077	677.118
311.022	25.866	846.626	677.582
312.037	25.530	846.083	675.826
313.052	25.436	845.099	674.627
314.066	25.324	844.359	673.556
315.081	24.547	843.184	669.646
316.095	23.903	841.724	666.018
317.110	24.464	841.736	668.068
318.125	25.252	842.586	671.633
319.139	24.726	841.461	668.710
320.154	23.664	839.662	663.256
321.168	23.202	838.440	660.510
322.183	24.019	838.734	663.732
323.197	24.649	839.741	666.821
324.212	25.027	839.000	667.582
325.227	25.150	838.633	667.690
326.241	25.383	838.041	668.027
327.256	25.424	837.399	667.605
328.270	25.074	836.853	665.813
329.285	25.143	835.801	665.174
330.300	24.979	835.233	664.054
331.314	24.694	834.459	662.324
332.329	24.707	833.873	661.849
333.343	25.121	833.796	663.259
334.358	25.542	833.604	664.606
335.373	25.546	833.078	664.143
336.387	25.520	832.297	663.366
337.402	25.618	832.122	663.529
338.416	25.915	831.830	664.334
339.431	25.949	830.870	663.631
340.446	25.820	830.782	663.028
341.460	26.125	830.115	663.560
342.475	26.179	829.473	663.185
343.489	25.937	828.700	661.618
344.504	25.906	827.887	660.798
345.519	26.198	827.670	661.635
346.533	26.231	827.701	661.723
347.548	26.212	827.453	661.397
348.562	26.341	827.052	661.490
349.577	26.209	826.544	660.542
350.592	26.255	825.706	659.984
351.606	26.227	825.072	659.315
352.621	26.185	824.468	658.620
353.635	26.255	823.887	658.355
354.650	26.110	822.913	656.989
355.665	25.701	822.597	655.191
356.679	24.876	820.613	650.557
357.694	24.296	820.673	648.435
358.708	25.311	820.296	651.768
359.723	25.265	819.828	651.174
360.738	25.504	819.265	651.533
361.752	25.810	819.417	652.707
362.767	26.036	819.501	653.534
363.781	26.129	819.176	653.555
364.796	26.509	818.737	654.520
365.810	26.726	818.316	654.911
366.825	26.502	818.423	654.129
367.840	26.699	817.639	654.157
368.854	26.663	816.747	653.254
369.869	26.044	816.322	650.625
370.883	25.928	815.978	649.876
371.898	26.110	814.896	649.612
372.913	25.906	814.328	648.366
373.927	25.991	813.836	648.224
374.942	26.115	812.924	647.886
375.956	26.199	812.509	647.798
376.971	26.301	811.753	647.505
377.986	26.385	811.804	647.787
379.000	26.589	811.169	647.954
380.015	26.644	810.923	647.896
381.029	26.427	810.042	646.361
382.044	26.469	809.162	645.749
383.059	26.566	808.967	645.884
384.073	26.608	808.337	645.473
385.088	26.661	807.957	645.300
386.102	26.347	808.133	644.267
387.117	26.443	806.875	643.547
388.132	26.275	806.345	642.471
389.146	26.084	805.546	641.099
390.161	25.695	804.515	638.841
391.175	25.638	804.438	638.522
392.190	26.094	804.605	640.216
393.205	26.239	803.571	639.848
394.219	25.320	802.033	635.317
395.234	23.586	800.223	627.699
396.248	22.922	798.561	623.996
397.263	23.791	799.571	627.802
398.278	25.601	801.142	635.382
399.292	26.225	801.063	637.466
400.307	25.778	800.190	635.138
401.321	25.809	799.741	634.835
402.336	25.816	799.567	634.663
403.350	26.125	799.653	635.766
404.365	26.684	799.245	637.351
405.380	27.022	799.106	638.372
406.394	27.142	799.184	638.802
407.409	27.370	798.539	639.030
408.423	27.318	798.220	638.534
409.438	27.274	797.282	637.575
410.453	27.207	797.145	637.173
411.467	27.319	796.842	637.265
412.482	27.052	796.112	635.692
413.496	27.273	795.469	635.896
414.511	27.268	795.429	635.788
415.526	27.279	794.851	635.310
416.540	27.307	794.381	634.974
417.555	27.491	793.710	635.025
418.569	27.099	793.042	633.067
419.584	26.863	792.454	631.721
420.599	26.896	792.482	631.801
421.613	104.804	1275.081	1429.361
422.628	90.006	1345.377	1429.475
