DTS Sentinel unit serial number:	SN413079Multiplexer serial number:	ORYXHardware model number:	OX4-SRSoftware version number:	ORYX F/W v4.00 Oryx Data Collector v3.7.2.0data status	okinstallation	princeton_trtdifferential loss correction	single-endedforward channel	channel 3reverse channel	N/Adate	2019/09/10time	20:02:10forward acquisition time	60.00reverse acquisition time	0.00gamma	496.2192k internal	0.2323k external	0.2323temperature offset calibration	0.9920default loss term (dB/km)	0.3790temperature slope calibration	1.0000multiplexer offset coefficient	1.0000multiplexer slope coefficient	1.0000fibre end	0.00T internal ref (°C)	32.62T ext. ref 1 (°C)	-0.32T ext. ref 2 (°C)	25.68length (m)	temperature (°C)	Stokes	anti-Stokes-747.200	117.849	0.204	-0.254
-746.185	658.936	-0.110	0.285
-745.171	-21.019	-0.359	-0.222
-744.156	-200.000	0.002	0.133
-743.142	278.661	0.077	0.138
-742.127	166.952	-0.187	0.267
-741.112	-48.700	0.033	0.016
-740.098	720.986	0.022	0.060
-739.083	-83.601	0.204	0.066
-738.069	-20.887	-0.325	0.201
-737.054	-200.000	0.016	-0.249
-736.039	-69.317	-0.225	0.087
-735.025	800.000	0.047	0.137
-734.010	50.886	-0.230	-0.220
-732.996	-59.136	-0.218	0.095
-731.981	10.129	-0.365	-0.280
-730.966	775.063	0.072	0.198
-729.952	-93.626	-0.387	-0.108
-728.937	35.942	-0.376	0.334
-727.923	-165.408	-0.360	0.016
-726.908	77.175	0.160	0.172
-725.894	-106.724	0.119	0.027
-724.879	43.251	-0.282	-0.260
-723.864	8.724	-0.082	-0.062
-722.850	-200.000	0.024	-0.110
-721.835	-200.000	0.010	-0.128
-720.821	-29.072	-0.198	0.115
-719.806	779.470	0.141	-0.390
-718.791	118.119	-0.181	-0.225
-717.777	-42.132	-0.190	0.098
-716.762	-82.497	0.687	0.225
-715.748	20.667	-0.363	-0.296
-714.733	-118.231	-0.049	-0.009
-713.718	53.509	0.049	-0.047
-712.704	91.529	-0.103	0.117
-711.689	210.773	-0.051	-0.081
-710.675	703.208	-0.060	-0.159
-709.660	83.184	-0.028	-0.031
-708.645	-96.902	-0.452	-0.120
-707.631	196.565	-0.202	0.310
-706.616	-77.008	-0.177	-0.062
-705.602	-91.399	-0.312	-0.090
-704.587	-160.081	-0.178	-0.010
-703.572	546.514	-0.082	0.198
-702.558	42.949	-0.202	-0.186
-701.543	-147.605	0.112	-0.009
-700.529	-200.000	-0.008	-0.339
-699.514	800.000	0.057	-0.217
-698.499	-118.703	-0.383	-0.068
-697.485	52.846	-0.162	0.156
-696.470	800.000	0.116	-0.323
-695.456	-107.779	0.215	-0.047
-694.441	342.075	0.116	-0.229
-693.426	368.784	-0.035	0.072
-692.412	-96.138	0.187	-0.050
-691.397	-42.293	-0.168	-0.087
-690.383	-200.000	0.054	-0.335
-689.368	-115.910	0.461	0.087
-688.354	800.000	-0.059	-0.176
-687.339	-200.000	-0.019	0.164
-686.324	616.789	0.044	0.110
-685.310	-120.111	-0.364	0.063
-684.295	136.199	-0.167	-0.219
-683.281	-46.405	-0.188	0.093
-682.266	-200.000	-0.047	-0.244
-681.251	-200.000	0.007	0.066
-680.237	-131.863	-0.168	-0.022
-679.222	-110.960	-0.368	0.076
-678.208	-200.000	-0.022	0.358
-677.193	133.348	0.062	0.081
-676.178	31.417	-0.153	0.133
-675.164	-105.931	-0.151	-0.034
-674.149	-49.151	-0.210	-0.101
-673.135	778.690	0.105	0.288
-672.120	113.369	-0.191	0.234
-671.105	-111.586	0.220	-0.045
-670.091	244.072	0.199	-0.336
-669.076	-200.000	-0.003	-0.041
-668.062	-200.000	0.012	-0.178
-667.047	-107.950	0.051	0.011
-666.032	54.881	0.267	-0.260
-665.018	800.000	-0.168	-0.508
-664.003	-54.750	-0.274	-0.125
-662.989	137.513	-0.120	-0.158
-661.974	-111.701	-0.302	0.062
-660.959	121.894	-0.258	-0.323
-659.945	800.000	0.122	-0.376
-658.930	-6.754	-0.131	-0.089
-657.916	-46.259	0.247	0.122
-656.901	-200.000	0.015	-0.073
-655.886	39.787	0.081	0.073
-654.872	-25.435	-0.289	-0.172
-653.857	-200.000	-0.041	-0.295
-652.843	-8.205	-0.289	0.195
-651.828	48.054	0.141	0.133
-650.814	-51.777	0.225	0.105
-649.799	-15.403	-0.167	0.108
-648.784	442.358	0.007	-0.016
-647.770	-107.054	-0.279	0.062
-646.755	125.459	-0.136	-0.172
-645.741	16.926	-0.110	-0.087
-644.726	-121.535	0.100	0.017
-643.711	-129.838	-0.098	-0.013
-642.697	-98.470	-0.315	0.081
-641.682	-49.440	0.187	0.090
-640.668	-57.758	0.382	0.168
-639.653	800.000	-0.034	-0.100
-638.638	-200.000	-0.012	-0.103
-637.624	800.000	0.118	0.353
-636.609	-115.690	-0.203	-0.038
-635.595	-82.419	-0.217	0.071
-634.580	484.863	0.035	-0.080
-633.565	-145.164	-0.296	0.027
-632.551	-106.587	0.195	0.044
-631.536	-36.284	-0.376	0.204
-630.522	-87.787	0.208	0.063
-629.507	800.000	-0.017	0.062
-628.492	800.000	-0.067	0.195
-627.478	228.194	-0.104	-0.170
-626.463	-68.735	-0.221	0.086
-625.449	-200.000	-0.018	-0.148
-624.434	-48.661	-0.218	0.105
-623.419	-200.000	0.010	-0.079
-622.405	-156.255	0.162	0.010
-621.390	17.874	0.102	0.082
-620.376	63.767	-0.165	0.166
-619.361	283.213	-0.084	-0.152
-618.346	-56.666	0.416	-0.185
-617.332	-66.889	-0.311	0.123
-616.317	150.181	0.157	-0.214
-615.303	-61.596	0.181	-0.076
-614.288	437.565	-0.061	-0.133
-613.273	193.824	-0.117	0.178
-612.259	-145.375	0.175	-0.016
-611.244	-200.000	-0.046	0.297
-610.230	-75.402	-0.062	0.022
-609.215	800.000	-0.138	-0.433
-608.201	70.833	-0.173	0.179
-607.186	11.348	0.026	-0.020
-606.171	-58.937	0.407	0.177
-605.157	-113.332	-0.033	0.007
-604.142	-200.000	0.067	-0.369
-603.128	-21.100	0.223	-0.137
-602.113	743.404	0.028	0.077
-601.098	71.493	0.234	-0.243
-600.084	-200.000	0.003	0.100
-599.069	-34.602	-0.197	-0.108
-598.055	-200.000	0.034	0.149
-597.040	800.000	0.010	0.034
-596.025	-38.443	-0.176	0.093
-595.011	22.696	0.145	-0.119
-593.996	34.716	0.050	-0.044
-592.982	32.815	-0.080	-0.069
-591.967	800.000	-0.030	0.100
-590.952	-115.761	-0.323	-0.061
-589.938	121.011	-0.335	-0.418
-588.923	34.293	0.115	-0.101
-587.909	59.897	0.140	0.139
-586.894	-200.000	-0.011	-0.542
-585.879	-10.710	0.233	0.154
-584.865	-200.000	0.008	0.325
-583.850	-48.759	0.258	-0.124
-582.836	10.172	-0.146	-0.111
-581.821	109.967	0.143	-0.173
-580.806	94.805	0.150	0.172
-579.792	-200.000	0.016	0.169
-578.777	31.942	0.267	-0.230
-577.763	-152.770	-0.045	-0.003
-576.748	144.982	0.043	0.057
-575.733	-200.000	0.002	-0.097
-574.719	-138.989	0.146	0.016
-573.704	-200.000	0.026	0.141
-572.690	-126.974	0.299	-0.044
-571.675	-149.763	-0.169	-0.013
-570.661	-17.275	-0.072	0.045
-569.646	-64.228	0.327	0.133
-568.631	86.520	0.114	-0.126
-567.617	-41.868	-0.020	0.010
-566.602	-85.745	-0.292	0.091
-565.588	87.413	-0.115	0.127
-564.573	800.000	-0.021	0.070
-563.558	-33.434	0.139	-0.077
-562.544	139.774	-0.040	0.052
-561.529	-200.000	0.040	0.337
-560.515	209.933	0.067	0.106
-559.500	-200.000	0.013	0.067
-558.485	205.997	0.077	0.120
-557.471	-145.071	0.247	-0.023
-556.456	-127.290	0.386	0.057
-555.442	-36.640	-0.290	0.156
-554.427	92.891	-0.228	0.258
-553.412	-7.820	-0.154	0.104
-552.398	-156.544	0.388	-0.024
-551.383	-22.512	-0.326	-0.198
-550.369	129.419	0.165	0.212
-549.354	-57.494	-0.372	-0.164
-548.339	-67.563	-0.146	-0.057
-547.325	-10.513	-0.060	0.040
-546.310	-49.614	-0.284	-0.135
-545.296	-39.546	0.239	0.125
-544.281	-200.000	-0.003	0.086
-543.266	-200.000	0.018	-0.220
-542.252	149.853	-0.192	-0.261
-541.237	-83.664	-0.026	0.008
-540.223	102.495	-0.183	0.215
-539.208	-92.030	-0.087	-0.025
-538.193	380.463	-0.291	-0.597
-537.179	-41.179	-0.164	-0.085
-536.164	75.175	0.282	0.297
-535.150	-185.238	-0.212	0.003
-534.135	-15.603	-0.291	-0.186
-533.121	629.213	-0.137	-0.346
-532.106	-3.292	-0.278	0.194
-531.091	799.859	-0.069	-0.192
-530.077	-200.000	0.005	0.026
-529.062	557.968	-0.099	-0.238
-528.048	-200.000	-0.002	-0.171
-527.033	-99.760	-0.148	0.037
-526.018	-152.628	0.203	-0.015
-525.004	59.160	0.167	0.164
-523.989	800.000	0.091	0.264
-522.975	52.114	0.146	0.140
-521.960	269.171	-0.125	-0.219
-520.945	322.171	0.094	0.180
-519.931	183.500	0.143	-0.211
-518.916	485.785	0.104	0.236
-517.902	-24.354	0.177	0.106
-516.887	205.928	-0.144	-0.224
-515.872	-105.860	-0.128	-0.029
-514.858	-75.166	0.154	0.055
-513.843	179.188	-0.150	-0.220
-512.829	-65.818	0.220	-0.088
-511.814	-200.000	0.023	-0.182
-510.799	161.265	-0.231	-0.324
-509.785	16.067	0.180	-0.142
-508.770	-82.432	0.155	0.050
-507.756	-62.667	-0.396	0.164
-506.741	114.881	-0.079	0.096
-505.726	800.000	-0.115	0.331
-504.712	-98.274	-0.083	0.021
-503.697	-12.163	-0.131	-0.086
-502.683	121.574	0.072	-0.089
-501.668	-108.671	-0.264	-0.057
-500.653	-28.446	0.266	0.154
-499.639	800.000	0.043	-0.186
-498.624	44.195	-0.278	-0.255
-497.610	800.000	0.124	0.346
-496.595	384.919	-0.101	-0.208
-495.581	46.005	-0.029	-0.026
-494.566	-65.274	-0.276	0.111
-493.551	-63.255	0.318	0.131
-492.537	-135.644	0.096	-0.011
-491.522	340.115	-0.098	0.190
-490.508	-119.453	0.149	0.026
-489.493	800.000	0.099	0.413
-488.478	688.319	0.106	-0.276
-487.464	477.849	-0.049	-0.112
-486.449	208.000	0.057	0.090
-485.435	259.829	0.071	-0.123
-484.420	-54.453	-0.109	0.049
-483.405	69.009	0.204	0.210
-482.391	-90.143	0.246	0.072
-481.376	-89.410	0.063	0.018
-480.362	18.445	-0.255	-0.204
-479.347	-200.000	0.024	0.120
-478.332	-50.278	-0.272	-0.129
-477.318	-47.299	-0.240	-0.117
-476.303	38.549	-0.246	-0.219
-475.289	-200.000	-0.077	0.362
-474.274	146.787	-0.094	-0.126
-473.259	-200.000	-0.007	0.280
-472.245	406.673	0.039	0.083
-471.230	-200.000	-0.015	-0.074
-470.216	-200.000	0.010	0.310
-469.201	-0.511	0.189	0.134
-468.186	-158.319	-0.151	0.009
-467.172	800.000	0.070	-0.286
-466.157	35.973	0.178	0.157
-465.143	-31.029	-0.412	0.232
-464.128	260.420	0.094	0.162
-463.113	-176.228	0.250	0.007
-462.099	-149.915	-0.158	0.012
-461.084	344.410	0.093	-0.182
-460.070	271.557	-0.116	0.204
-459.055	384.655	-0.088	0.182
-458.040	-54.503	0.178	-0.081
-457.026	80.765	0.180	-0.194
-456.011	-103.325	-0.177	-0.042
-454.997	-9.101	0.415	0.277
-453.982	-159.477	-0.224	0.012
-452.968	287.874	-0.109	-0.197
-451.953	-21.664	-0.151	0.092
-450.938	206.800	-0.088	-0.137
-449.924	13.405	-0.155	0.120
-448.909	-163.307	0.130	-0.006
-447.895	-126.821	0.315	0.046
-446.880	57.879	-0.046	0.045
-445.865	194.968	-0.104	-0.157
-444.851	-37.746	0.263	-0.140
-443.836	99.488	0.106	-0.122
-442.822	800.000	-0.037	-0.104
-441.807	-14.626	-0.287	-0.184
-440.792	67.396	-0.337	0.344
-439.778	47.765	0.092	-0.086
-438.763	800.000	0.079	-0.264
-437.749	-200.000	-0.020	0.209
-436.734	447.207	0.088	0.193
-435.719	-200.000	-0.018	0.133
-434.705	-36.563	0.179	0.096
-433.690	98.854	-0.216	-0.248
-432.676	381.046	0.014	-0.029
-431.661	-141.636	-0.070	0.007
-430.646	163.128	0.210	-0.295
-429.632	201.365	-0.123	0.189
-428.617	78.631	-0.328	-0.350
-427.603	800.000	-0.061	-0.220
-426.588	69.680	0.242	-0.249
-425.573	-200.000	0.038	0.215
-424.559	-93.815	-0.139	-0.038
-423.544	10.144	0.399	0.303
-422.530	609.647	0.170	0.424
-421.515	-200.000	0.012	-0.098
-420.500	264.373	0.125	-0.217
-419.486	-200.000	-0.004	-0.141
-418.471	221.013	-0.073	0.117
-417.457	528.972	0.097	0.228
-416.442	340.901	0.099	-0.193
-415.428	800.000	0.103	0.285
-414.413	605.738	0.053	-0.132
-413.398	127.946	-0.099	-0.125
-412.384	451.610	0.107	-0.235
-411.369	29.089	0.127	-0.108
-410.355	306.452	-0.117	-0.218
-409.340	-200.000	-0.020	0.231
-408.325	116.017	-0.083	0.102
-407.311	-14.679	-0.288	0.184
-406.296	-200.000	-0.007	-0.287
-405.282	-42.463	-0.429	0.218
-404.267	-84.278	-0.306	0.097
-403.252	-200.000	-0.034	-0.207
-402.238	134.251	-0.159	-0.205
-401.223	-200.000	-0.001	-0.068
-400.209	189.455	-0.064	0.096
-399.194	-200.000	-0.178	-0.000
-398.179	111.463	0.178	-0.213
-397.165	-66.755	-0.276	-0.109
-396.150	56.390	-0.170	-0.164
-395.136	-76.269	0.019	0.007
-394.121	759.053	-0.040	0.109
-393.106	-200.000	0.045	-0.291
-392.092	350.542	-0.105	-0.207
-391.077	-200.000	-0.049	0.225
-390.063	800.000	0.029	0.123
-389.048	430.828	-0.035	-0.075
-388.033	363.229	-0.108	0.215
-387.019	12.405	0.173	-0.133
-386.004	-195.498	0.122	0.001
-384.990	-3.721	-0.029	0.020
-383.975	54.789	-0.084	-0.081
-382.960	-200.000	0.036	-0.353
-381.946	28.608	-0.200	0.168
-380.931	-112.794	-0.429	0.085
-379.917	24.598	0.270	0.223
-378.902	6.771	0.296	-0.219
-377.888	30.766	-0.088	0.075
-376.873	-86.942	-0.045	-0.014
-375.858	202.107	0.202	0.310
-374.844	-93.326	0.351	-0.097
-373.829	225.645	-0.079	-0.128
-372.815	-200.000	0.020	0.310
-371.800	5.139	-0.133	0.097
-370.785	-82.168	0.250	0.081
-369.771	123.840	0.136	0.170
-368.756	135.829	0.201	0.261
-367.742	-145.334	0.315	-0.028
-366.727	225.431	-0.087	0.140
-365.712	-200.000	0.009	0.170
-364.698	-32.988	0.285	0.158
-363.683	-35.156	-0.185	-0.100
-362.669	-110.826	0.250	0.051
-361.654	-34.120	0.104	0.057
-360.639	68.550	-0.245	-0.250
-359.625	121.031	-0.135	-0.167
-358.610	-20.096	0.219	-0.134
-357.596	-68.636	0.235	0.091
-356.581	-200.000	-0.024	-0.169
-355.566	271.500	-0.098	-0.172
-354.552	-155.981	0.172	0.011
-353.537	800.000	-0.085	0.319
-352.523	-3.871	-0.216	0.149
-351.508	-167.697	-0.343	0.014
-350.493	-50.572	-0.216	-0.101
-349.479	-124.572	0.097	-0.015
-348.464	21.995	-0.203	0.164
-347.450	-93.134	0.345	-0.095
-346.435	800.000	0.052	0.225
-345.420	596.451	0.148	-0.364
-344.406	-200.000	-0.001	-0.309
-343.391	-200.000	0.011	0.407
-342.377	562.831	0.065	0.158
-341.362	144.588	-0.128	-0.170
-340.348	-63.271	-0.145	-0.059
-339.333	149.273	0.120	0.161
-338.318	203.217	-0.073	-0.112
-337.304	237.895	0.141	-0.233
-336.289	-20.493	-0.300	-0.183
-335.275	-114.493	-0.246	0.047
-334.260	-200.000	0.004	-0.074
-333.245	-195.162	-0.258	0.002
-332.231	131.100	0.131	0.167
-331.216	782.766	-0.077	0.210
-330.202	425.412	-0.050	0.107
-329.187	-31.834	-0.113	-0.063
-328.172	-40.042	-0.351	-0.182
-327.158	-140.328	-0.144	0.015
-326.143	79.573	0.275	0.293
-325.129	-58.206	0.348	0.150
-324.114	800.000	0.055	0.183
-323.099	-142.344	-0.168	-0.016
-322.085	13.827	-0.301	-0.233
-321.070	439.666	0.210	-0.455
-320.056	30.414	0.204	-0.173
-319.041	-200.000	0.046	-0.257
-318.026	165.483	-0.166	-0.233
-317.012	3.785	-0.068	0.049
-315.997	-109.171	-0.343	-0.072
-314.983	800.000	-0.094	0.320
-313.968	163.511	0.082	0.114
-312.953	67.700	0.267	0.271
-311.939	-200.000	-0.020	0.141
-310.924	-200.000	0.018	-0.247
-309.910	-49.752	-0.193	0.091
-308.895	23.614	-0.076	0.062
-307.880	-54.263	0.156	-0.070
-306.866	-124.151	-0.186	0.029
-305.851	-200.000	-0.020	0.270
-304.837	19.726	0.071	-0.056
-303.822	-37.797	0.048	-0.025
-302.807	2.643	0.025	-0.018
-301.793	-36.303	-0.160	0.086
-300.778	800.000	-0.017	-0.046
-299.764	-37.009	0.179	0.095
-298.749	-13.659	-0.188	0.121
-297.735	-200.000	0.068	-0.378
-296.720	-200.000	-0.014	0.292
-295.705	109.795	0.078	-0.093
-294.691	-200.000	-0.034	-0.247
-293.676	-169.929	0.237	-0.008
-292.662	-116.661	0.311	0.057
-291.647	209.332	-0.280	-0.436
-290.632	12.000	-0.108	0.083
-289.618	-84.718	-0.141	0.044
-288.603	178.735	0.128	0.186
-287.589	-23.503	0.328	0.195
-286.574	-181.925	-0.220	0.004
-285.559	120.261	0.067	-0.082
-284.545	488.430	-0.128	-0.291
-283.530	173.398	0.037	0.054
-282.516	478.829	0.103	0.231
-281.501	-50.162	-0.218	-0.102
-280.486	77.508	0.183	-0.193
-279.472	-200.000	0.009	0.185
-278.457	-151.620	-0.120	0.009
-277.443	-200.000	0.004	-0.215
-276.428	48.702	0.200	-0.186
-275.413	-88.546	-0.069	-0.020
-274.399	538.215	-0.060	0.142
-273.384	-113.798	-0.191	-0.037
-272.370	-142.973	-0.354	0.034
-271.355	-200.000	-0.006	-0.221
-270.340	118.392	-0.117	0.143
-269.326	293.817	0.058	-0.105
-268.311	190.330	0.087	0.129
-267.297	-200.000	0.033	0.175
-266.282	562.729	0.082	-0.196
-265.267	-124.195	0.306	-0.047
-264.253	-10.658	-0.279	-0.183
-263.238	418.384	-0.065	-0.137
-262.224	-19.839	0.294	-0.180
-261.209	61.754	-0.104	0.103
-260.195	-200.000	0.046	-0.334
-259.180	8.622	0.181	0.135
-258.165	-50.812	0.289	0.135
-257.151	-137.817	0.222	-0.025
-256.136	-69.331	0.180	-0.068
-255.122	98.470	0.094	0.107
-254.107	-200.000	-0.023	-0.131
-253.092	-144.537	0.131	-0.012
-252.078	389.896	0.063	0.128
-251.063	98.226	-0.279	0.318
-250.049	-86.312	-0.178	-0.054
-249.034	-200.000	0.007	-0.039
-248.019	2.476	-0.166	0.119
-247.005	-83.025	0.334	0.106
-245.990	92.126	-0.061	-0.068
-244.976	-32.168	0.312	-0.173
-243.961	-6.402	-0.364	-0.246
-242.946	-174.364	0.025	-0.001
-241.932	594.607	0.080	-0.195
-240.917	92.538	-0.152	0.170
-239.903	-200.000	-0.011	-0.136
-238.888	-200.000	-0.021	0.331
-237.873	-200.000	0.013	0.072
-236.859	94.587	0.121	-0.136
-235.844	405.947	-0.074	-0.155
-234.830	148.582	-0.093	0.124
-233.815	-134.130	-0.402	0.049
-232.800	223.131	0.235	0.376
-231.786	-17.016	0.164	-0.102
-230.771	-20.469	0.203	0.123
-229.757	-77.302	0.137	-0.047
-228.742	-126.939	-0.195	-0.028
-227.727	-151.463	0.216	-0.016
-226.713	-66.984	0.086	0.034
-225.698	507.415	0.216	0.496
-224.684	-33.076	-0.143	-0.079
-223.669	99.736	0.214	0.245
-222.655	104.921	0.233	0.272
-221.640	-19.755	-0.199	0.122
-220.625	7.418	0.174	0.129
-219.611	-30.371	-0.071	-0.040
-218.596	45.137	0.142	0.129
-217.582	-176.720	-0.147	0.004
-216.567	-114.061	-0.514	-0.098
-215.552	-175.137	0.200	0.005
-214.538	800.000	0.040	-0.144
-213.523	-26.045	0.421	0.245
-212.509	-114.995	0.054	0.010
-211.494	157.951	0.033	0.046
-210.479	459.139	0.141	0.310
-209.465	161.517	-0.123	-0.170
-208.450	-200.000	0.059	-0.400
-207.436	-74.502	-0.133	0.047
-206.421	-136.698	0.065	0.007
-205.406	-152.316	-0.191	-0.014
-204.392	-32.805	0.108	-0.059
-203.377	-33.518	-0.051	0.028
-202.363	-145.015	0.371	0.033
-201.348	-1.898	0.144	-0.100
-200.333	14.236	0.221	-0.170
-199.319	800.000	-0.113	-0.345
-198.304	40.628	-0.165	-0.147
-197.290	-17.872	0.197	-0.122
-196.275	-71.151	-0.358	-0.133
-195.260	-200.000	0.024	-0.167
-194.246	-28.361	-0.145	-0.082
-193.231	58.701	0.323	0.314
-192.217	406.329	0.048	-0.100
-191.202	-119.088	-0.194	-0.034
-190.187	-200.000	-0.006	0.205
-189.173	-5.323	0.310	0.210
-188.158	-135.529	-0.271	-0.032
-187.144	145.362	0.079	0.104
-186.129	-67.117	0.376	0.147
-185.114	732.443	-0.058	0.153
-184.100	-200.000	-0.027	-0.146
-183.085	-142.393	0.472	0.046
-182.071	-51.374	0.139	0.064
-181.056	-174.744	0.016	-0.000
-180.042	-71.105	0.046	0.017
-179.027	-53.826	-0.309	0.139
-178.012	-32.317	0.348	-0.192
-176.998	-200.000	0.016	-0.280
-175.983	800.000	-0.023	-0.095
-174.969	-200.000	-0.032	0.355
-173.954	10.985	0.218	0.164
-172.939	-163.855	0.321	-0.015
-171.925	800.000	-0.044	-0.166
-170.910	-17.951	0.288	0.178
-169.896	11.217	-0.079	-0.059
-168.881	-107.444	-0.312	0.067
-167.866	187.620	-0.118	-0.173
-166.852	487.915	0.114	0.256
-165.837	159.620	0.233	-0.321
-164.823	-200.000	-0.008	0.052
-163.808	34.171	-0.129	-0.111
-162.793	46.183	-0.106	-0.097
-161.779	-59.211	-0.355	0.151
-160.764	-111.650	-0.062	-0.012
-159.750	-74.160	0.037	-0.013
-158.735	-69.407	0.099	-0.038
-157.720	800.000	0.050	0.155
-156.706	-184.069	0.144	-0.002
-155.691	-159.506	0.067	-0.004
-154.677	216.420	0.051	-0.080
-153.662	-111.758	0.095	0.019
-152.647	-200.000	0.009	-0.085
-151.633	800.000	-0.021	0.074
-150.618	219.489	0.383	0.604
-149.604	800.000	-0.067	0.280
-148.589	-38.425	-0.283	0.148
-147.574	800.000	-0.063	0.256
-146.560	617.868	0.171	-0.423
-145.545	288.176	-0.146	0.260
-144.531	445.978	-0.097	-0.210
-143.516	-67.312	-0.357	-0.138
-142.502	-57.869	-0.222	-0.096
-141.487	-200.000	-0.007	-0.190
-140.472	800.000	0.050	0.138
-139.458	-200.000	-0.023	0.360
-138.443	207.339	-0.213	-0.327
-137.429	201.333	0.229	0.348
-136.414	-15.319	-0.165	-0.104
-135.399	66.133	0.244	-0.244
-134.385	220.965	0.300	-0.475
-133.370	-60.729	-0.243	-0.102
-132.356	-124.315	0.222	0.034
-131.341	403.888	0.085	0.176
-130.326	-19.507	-0.171	0.104
-129.312	433.581	-0.146	-0.312
-128.297	-35.940	0.152	-0.081
-127.283	320.451	-0.045	-0.085
-126.268	-58.367	-0.375	-0.161
-125.253	-175.918	0.180	-0.005
-124.239	173.747	-0.135	0.192
-123.224	221.832	-0.128	0.204
-122.210	-200.000	-0.010	-0.052
-121.195	800.000	0.036	-0.125
-120.180	-143.315	-0.226	0.021
-119.166	-101.999	0.076	-0.018
-118.151	441.721	0.153	-0.330
-117.137	-164.911	0.142	0.006
-116.122	800.000	-0.072	0.275
-115.107	19.493	0.177	0.140
-114.093	-116.532	0.212	0.039
-113.078	800.000	-0.094	-0.353
-112.064	-200.000	0.001	0.063
-111.049	-6.132	0.268	-0.180
-110.034	786.837	0.058	0.157
-109.020	-21.321	0.068	-0.041
-108.005	39.712	-0.105	0.093
-106.991	-16.516	-0.224	-0.140
-105.976	-83.145	-0.358	-0.113
-104.962	-121.253	0.435	0.072
-103.947	-170.606	0.130	0.004
-102.932	403.193	0.054	0.112
-101.918	376.042	-0.023	-0.047
-100.903	-158.185	-0.422	-0.024
-99.889	800.000	-0.089	-0.302
-98.874	800.000	-0.012	-0.043
-97.859	800.000	-0.137	0.528
-96.845	47.460	0.183	0.168
-95.830	-81.842	0.025	0.008
-94.816	493.062	0.051	-0.114
-93.801	800.000	-0.187	-0.523
-92.786	19.484	-0.092	-0.073
-91.772	-200.000	-0.003	-0.213
-90.757	-46.493	-0.250	0.121
-89.743	12.717	0.207	-0.157
-88.728	115.239	-0.120	0.144
-87.713	432.877	0.094	0.200
-86.699	271.839	0.041	0.072
-85.684	88.313	0.151	-0.165
-84.670	800.000	0.032	0.107
-83.655	800.000	-0.107	0.369
-82.640	185.772	0.094	-0.138
-81.626	104.171	-0.266	-0.308
-80.611	134.075	-0.105	-0.134
-79.597	246.563	-0.048	0.080
-78.582	27.612	-0.124	0.102
-77.567	557.198	-0.129	0.305
-76.553	179.208	-0.149	0.215
-75.538	-200.000	0.007	0.112
-74.524	96.213	-0.195	-0.220
-73.509	-130.476	-0.215	-0.029
-72.494	245.555	0.095	0.158
-71.480	31.152	-0.095	-0.080
-70.465	166.317	0.094	-0.132
-69.451	-200.000	0.019	0.216
-68.436	142.102	-0.083	-0.108
-67.422	-36.385	-0.357	-0.189
-66.407	220.230	-0.130	-0.205
-65.392	800.000	0.081	0.311
-64.378	-200.000	-0.024	-0.344
-63.363	16.586	0.122	-0.095
-62.349	471.406	0.161	-0.355
-61.334	118.367	-0.931	-1.129
-60.319	79.007	0.410	0.432
-59.305	-200.000	-0.058	-1.201
-58.290	159.567	0.728	0.996
-57.276	193.331	0.704	1.046
-56.261	-200.000	98.963	601.434
-55.246	602.257	1418.976	3467.134
-54.232	187.961	2615.186	3839.698
-53.217	116.015	2180.075	2623.294
-52.203	43.072	1717.131	1539.662
-51.188	35.807	1530.693	1322.717
-50.173	33.495	1503.903	1283.870
-49.159	52.178	1554.903	1456.629
-48.144	53.713	1573.005	1484.119
-47.130	35.880	1530.324	1322.690
-46.115	32.993	1515.180	1289.867
-45.100	32.753	1512.005	1285.476
-44.086	32.640	1510.836	1283.661
-43.071	32.599	1508.511	1281.355
-42.057	32.537	1507.063	1279.657
-41.042	32.507	1505.830	1278.356
-40.027	32.608	1504.477	1277.839
-39.013	32.596	1502.554	1276.077
-37.998	32.555	1501.560	1274.904
-36.984	32.607	1500.307	1274.142
-35.969	32.630	1498.714	1272.893
-34.954	32.669	1496.935	1271.595
-33.940	32.572	1496.524	1270.539
-32.925	32.663	1495.094	1269.887
-31.911	32.647	1493.455	1268.336
-30.896	32.668	1492.119	1267.296
-29.881	32.729	1490.641	1266.396
-28.867	32.643	1489.404	1264.718
-27.852	32.642	1487.770	1263.272
-26.838	32.640	1486.588	1262.206
-25.823	32.725	1484.624	1261.057
-24.809	32.677	1482.660	1259.020
-23.794	32.743	1481.639	1258.543
-22.779	32.654	1480.573	1256.995
-21.765	32.636	1479.499	1255.916
-20.750	32.595	1478.604	1254.832
-19.736	32.698	1477.351	1254.401
-18.721	32.620	1476.266	1252.910
-17.706	32.672	1474.897	1252.050
-16.692	32.649	1474.093	1251.164
-15.677	32.604	1473.054	1249.935
-14.663	32.625	1472.174	1249.276
-13.648	32.574	1470.980	1247.871
-12.633	32.612	1470.025	1247.265
-11.619	32.612	1469.573	1246.833
-10.604	32.594	1468.230	1245.526
-9.590	32.576	1467.658	1244.873
-8.575	32.510	1467.115	1243.928
-7.560	32.557	1465.924	1243.177
-6.546	32.638	1465.024	1242.900
-5.531	32.663	1464.058	1242.191
-4.517	32.539	1463.417	1240.784
-3.502	32.574	1461.763	1239.565
-2.487	32.559	1461.136	1238.886
-1.473	32.629	1459.659	1238.043
-0.458	32.615	1458.454	1236.878
0.556	30.307	1448.412	1224.923
1.571	26.957	1422.508	1181.148
2.586	23.176	1359.904	1105.496
3.600	21.367	1277.113	1027.479
4.615	20.293	1231.398	984.522
5.629	17.352	1176.400	924.502
6.644	8.409	1090.665	811.791
7.659	1.029	1048.851	744.433
8.673	-0.049	1043.528	735.317
9.688	-0.334	1040.421	731.674
10.702	-0.413	1038.430	729.823
11.717	-0.503	1036.971	728.299
12.731	2.713	1040.052	746.061
13.746	11.941	1052.723	800.351
14.761	18.122	1060.801	836.762
15.775	18.567	1060.698	838.785
16.790	18.498	1060.071	837.880
17.804	18.271	1058.963	835.819
18.819	18.120	1058.048	834.288
19.834	18.136	1057.407	833.785
20.848	18.168	1056.736	833.340
21.863	18.120	1056.480	832.827
22.877	18.079	1056.236	832.363
23.892	18.047	1055.207	831.324
24.907	18.091	1054.230	830.692
25.921	17.942	1054.328	829.974
26.936	18.263	1052.729	830.199
27.950	18.211	1051.602	828.987
28.965	18.196	1050.677	828.109
29.980	18.052	1048.522	825.641
30.994	17.965	1047.335	824.217
32.009	18.231	1046.198	824.528
33.023	18.263	1045.743	824.251
34.038	18.053	1044.428	822.131
35.053	17.990	1044.001	821.420
36.067	18.260	1043.046	821.895
37.082	18.154	1042.614	820.973
38.096	18.205	1041.548	820.302
39.111	18.299	1040.631	819.960
40.126	18.490	1039.348	819.787
41.140	18.406	1038.258	818.456
42.155	18.136	1036.898	816.025
43.169	17.847	1035.898	813.787
44.184	17.947	1035.044	813.521
45.199	17.955	1033.457	812.237
46.213	17.881	1032.139	810.779
47.228	17.860	1031.575	810.163
48.242	17.980	1030.535	809.845
49.257	18.010	1029.357	808.990
50.271	18.063	1028.489	808.488
51.286	18.200	1027.687	808.433
52.301	18.099	1026.971	807.320
53.315	18.100	1026.654	807.003
54.330	18.040	1025.598	805.820
55.344	18.171	1024.487	805.492
56.359	18.141	1023.406	804.432
57.374	18.094	1023.339	804.084
58.388	18.114	1021.644	802.774
59.403	18.049	1021.319	802.146
60.417	18.100	1019.998	801.276
61.432	17.940	1019.676	800.202
62.447	17.955	1018.611	799.364
63.461	18.140	1017.807	799.527
64.476	18.025	1017.042	798.322
65.490	18.075	1016.442	798.011
66.505	18.008	1015.148	796.614
67.520	17.960	1014.786	796.037
68.534	18.152	1013.676	795.988
69.549	18.000	1012.505	794.292
70.563	17.764	1011.562	792.386
71.578	17.621	1010.745	791.012
72.593	17.748	1009.746	790.750
73.607	17.536	1008.753	788.918
74.622	17.650	1007.868	788.686
75.636	17.991	1007.197	789.665
76.651	18.012	1006.685	789.291
77.666	17.927	1005.364	787.795
78.680	17.849	1004.388	786.601
79.695	17.770	1003.807	785.713
80.709	17.867	1003.834	786.109
81.724	17.973	1002.489	785.474
82.739	17.878	1001.582	784.259
83.753	17.924	1000.925	783.885
84.768	18.140	999.883	783.991
85.782	18.304	999.479	784.353
86.797	18.387	998.440	783.853
87.812	18.358	997.535	782.937
88.826	18.187	996.381	781.181
89.841	18.269	995.534	780.823
90.855	18.364	994.743	780.565
91.870	18.486	993.925	780.412
92.884	18.360	993.199	779.201
93.899	18.238	991.861	777.525
94.914	18.210	991.201	776.811
95.928	18.262	990.474	776.408
96.943	18.266	989.574	775.655
97.957	18.124	988.579	774.165
98.972	17.962	987.420	772.456
99.987	17.725	986.629	770.695
101.001	17.787	985.808	770.269
102.016	18.012	985.517	770.988
103.030	18.151	983.976	770.341
104.045	18.060	982.941	769.049
105.060	17.877	981.664	767.161
106.074	17.692	980.754	765.550
107.089	17.736	980.385	765.393
108.103	18.123	979.929	766.706
109.118	18.276	978.824	766.456
110.133	18.067	977.961	764.778
111.147	18.074	976.751	763.798
112.162	18.215	975.357	763.269
113.176	17.853	974.478	760.901
114.191	17.942	973.352	760.348
115.206	18.167	971.893	760.141
116.220	17.757	970.748	757.358
117.235	17.605	970.251	756.230
118.249	17.771	969.533	756.338
119.264	17.841	968.648	755.890
120.279	17.843	967.626	755.037
121.293	17.728	966.935	753.922
122.308	17.867	966.587	754.199
123.322	17.980	965.506	753.787
124.337	17.823	964.461	752.214
125.352	17.820	962.741	750.793
126.366	17.466	961.472	748.178
127.381	17.200	960.055	745.841
128.395	17.617	959.584	747.239
129.410	18.139	959.197	749.160
130.424	18.298	958.650	749.364
131.439	18.439	957.017	748.636
132.454	18.229	955.799	746.701
133.468	18.190	955.051	745.882
134.483	18.207	954.355	745.345
135.497	18.205	953.686	744.747
136.512	18.318	953.417	744.964
137.527	18.418	952.506	744.619
138.541	18.506	951.158	743.882
139.556	18.462	950.383	743.020
140.570	18.472	949.761	742.512
141.585	18.574	948.276	741.728
142.600	18.379	948.099	740.680
143.614	18.404	947.101	739.940
144.629	18.510	946.409	739.793
145.643	18.643	946.207	740.144
146.658	18.491	944.855	738.366
147.673	18.446	943.520	737.064
148.687	18.371	942.673	736.014
149.702	18.295	941.776	734.920
150.716	18.330	940.354	733.896
151.731	18.256	939.273	732.670
152.746	18.395	938.269	732.420
153.760	18.465	938.304	732.679
154.775	18.620	937.341	732.526
155.789	18.598	936.500	731.712
156.804	18.658	935.653	731.239
157.819	18.548	934.509	729.810
158.833	18.643	933.290	729.199
159.848	18.645	933.082	728.981
160.862	18.698	931.927	728.239
161.877	18.542	930.972	726.769
162.892	18.517	930.146	725.952
163.906	18.575	929.778	725.846
164.921	18.531	929.033	725.016
165.935	18.552	928.010	724.242
166.950	18.612	926.607	723.335
167.964	18.640	925.784	722.744
168.979	18.498	924.780	721.301
169.994	18.474	923.650	720.256
171.008	18.404	922.788	719.226
172.023	18.532	921.927	719.026
173.037	18.663	920.859	718.679
174.052	18.476	919.827	717.026
175.067	18.221	919.103	715.335
176.081	18.211	918.540	714.793
177.096	18.423	917.762	715.009
178.110	18.447	916.391	713.975
179.125	18.340	915.122	712.480
180.140	18.011	914.592	710.635
181.154	18.254	913.483	710.718
182.169	18.140	913.251	710.004
183.183	18.322	912.320	709.972
184.198	18.687	912.141	711.284
185.213	18.472	911.398	709.748
186.227	18.557	910.663	709.467
187.242	18.559	910.347	709.166
188.256	18.696	909.304	708.855
189.271	18.550	908.391	707.478
190.286	18.670	907.784	707.439
191.300	18.451	906.915	705.795
192.315	18.095	905.984	703.545
193.329	17.623	904.379	700.298
194.344	17.152	903.771	697.828
195.359	17.615	903.973	699.826
196.373	18.378	903.679	702.667
197.388	18.595	903.451	703.316
198.402	18.451	902.569	701.979
199.417	18.379	902.064	701.228
200.432	18.427	901.361	700.817
201.446	18.251	900.470	699.344
202.461	17.958	899.702	697.490
203.475	18.096	898.978	697.427
204.490	17.706	897.451	694.592
205.504	16.494	896.157	688.599
206.519	16.991	896.068	690.491
207.534	17.929	896.248	694.386
208.548	18.098	895.562	694.480
209.563	18.482	895.117	695.631
210.577	18.557	894.402	695.320
211.592	18.177	893.559	693.062
212.607	18.420	893.655	694.061
213.621	18.536	892.504	693.571
214.636	18.640	891.791	693.377
215.650	18.629	891.196	692.811
216.665	18.536	890.799	692.064
217.680	18.657	890.315	692.115
218.694	18.817	889.563	692.114
219.709	18.344	888.566	689.375
220.723	18.115	887.130	687.279
221.738	18.282	887.301	688.021
222.753	18.468	886.639	688.195
223.767	18.431	885.615	687.189
224.782	18.522	885.123	687.111
225.796	18.672	884.658	687.290
226.811	18.677	884.016	686.751
227.826	18.580	882.301	684.969
228.840	17.717	881.096	680.532
229.855	17.662	880.842	680.054
230.869	17.910	880.503	680.722
231.884	17.665	879.123	678.620
232.899	17.643	878.817	678.236
233.913	18.482	878.837	681.529
234.928	18.582	878.510	681.612
235.942	18.580	877.571	680.817
236.957	18.639	876.780	680.377
237.972	18.333	875.725	678.284
238.986	18.149	875.211	677.099
240.001	18.328	874.604	677.277
241.015	18.440	873.692	676.956
242.030	18.401	873.235	676.385
243.045	18.346	873.057	675.971
244.059	18.475	872.176	675.739
245.074	18.682	871.194	675.732
246.088	18.654	870.371	674.926
247.103	18.264	869.646	672.769
248.117	18.450	868.613	672.641
249.132	18.765	868.552	673.771
250.147	19.051	868.172	674.538
251.161	18.964	867.476	673.595
252.176	19.136	867.031	673.866
253.190	19.122	866.556	673.381
254.205	19.072	866.154	672.813
255.220	19.383	865.387	673.371
256.234	19.458	864.450	672.875
257.249	19.353	863.823	671.920
258.263	19.174	862.912	670.456
259.278	19.152	862.900	670.301
260.293	19.318	862.646	670.691
261.307	19.240	861.836	669.698
262.322	19.270	860.865	669.000
263.336	19.220	859.594	667.759
264.351	18.658	858.185	664.429
265.366	17.567	856.486	658.840
266.380	17.068	855.634	656.194
267.395	18.034	856.336	660.412
268.409	18.797	856.215	663.208
269.424	18.822	855.402	662.617
270.439	18.923	855.170	662.765
271.453	19.079	854.447	662.748
272.468	19.137	853.647	662.293
273.482	19.363	853.011	662.609
274.497	19.447	852.600	662.555
275.512	19.300	851.565	661.127
276.526	18.717	850.065	657.670
277.541	18.939	849.382	657.933
278.555	19.312	849.280	659.224
279.570	18.876	848.549	656.932
280.585	18.796	847.552	655.797
281.599	18.914	847.127	655.858
282.614	19.003	846.542	655.687
283.628	18.557	845.665	653.253
284.643	18.345	844.716	651.653
285.657	18.748	845.004	653.352
286.672	18.705	843.843	652.233
287.687	18.276	843.117	649.985
288.701	18.554	843.081	650.955
289.716	18.891	842.737	651.910
290.730	18.602	841.780	650.017
291.745	18.506	840.814	648.850
292.760	18.204	839.937	646.974
293.774	18.276	839.365	646.751
294.789	18.910	839.718	649.359
295.803	19.659	839.216	651.742
296.818	19.722	839.027	651.774
297.833	19.832	838.464	651.692
298.847	19.506	837.219	649.441
299.862	19.352	836.034	647.886
300.876	19.344	835.982	647.759
301.891	19.660	835.589	648.582
302.906	19.629	834.913	647.886
303.920	19.220	833.636	645.304
304.935	19.001	832.909	643.865
305.949	19.314	832.840	644.927
306.964	19.573	832.064	645.235
307.979	19.354	831.870	644.210
308.993	19.323	830.928	643.307
310.008	19.703	830.598	644.413
311.022	19.833	830.350	644.648
312.037	19.708	829.490	643.459
313.052	19.288	829.326	641.709
314.066	19.332	828.236	640.974
315.081	18.939	827.005	638.505
316.095	18.217	825.980	634.979
317.110	18.632	826.019	636.494
318.125	19.447	826.146	639.555
319.139	19.089	825.067	637.340
320.154	18.221	823.451	632.824
321.168	17.815	822.712	630.702
322.183	18.418	822.499	632.711
323.197	19.118	822.631	635.339
324.212	19.397	822.584	636.276
325.227	19.444	822.146	636.055
326.241	19.583	821.934	636.345
327.256	19.620	821.331	635.958
328.270	19.452	820.771	634.852
329.285	19.374	819.977	633.894
330.300	19.350	818.999	632.993
331.314	19.061	818.224	631.280
332.329	19.142	817.797	631.190
333.343	19.447	816.991	631.630
334.358	19.627	816.802	632.088
335.373	19.677	815.972	631.570
336.387	19.780	815.260	631.341
337.402	19.862	815.236	631.564
338.416	20.035	814.824	631.819
339.431	19.985	814.033	630.969
340.446	19.871	813.508	630.091
341.460	19.875	812.999	629.656
342.475	20.024	812.276	629.583
343.489	19.778	811.650	628.147
344.504	19.850	811.138	627.955
345.519	19.942	811.043	628.162
346.533	20.116	810.452	628.278
347.548	20.312	809.943	628.538
348.562	20.201	809.992	628.120
349.577	20.251	809.427	627.806
350.592	20.330	808.902	627.631
351.606	20.364	808.205	627.157
352.621	20.449	807.495	626.858
353.635	20.080	807.320	625.334
354.650	20.203	806.687	625.232
355.665	19.902	805.390	623.086
356.679	19.004	804.222	618.899
357.694	18.780	803.307	617.335
358.708	19.312	803.523	619.359
359.723	19.345	802.544	618.667
360.738	19.723	802.296	619.777
361.752	20.077	802.375	621.051
362.767	20.177	801.876	620.968
363.781	20.271	801.701	621.114
364.796	20.487	801.546	621.713
365.810	20.679	800.579	621.596
366.825	20.743	800.601	621.786
367.840	20.532	800.183	620.652
368.854	20.288	799.846	619.466
369.869	20.132	798.836	618.071
370.883	19.966	798.466	617.139
371.898	20.106	797.592	616.906
372.913	20.122	796.686	616.210
373.927	19.858	796.154	614.803
374.942	20.097	795.608	615.176
375.956	20.428	795.138	615.934
376.971	20.261	794.976	615.162
377.986	20.453	794.218	615.201
379.000	20.545	793.835	615.174
380.015	20.528	793.345	614.681
381.029	20.447	792.565	613.736
382.044	20.398	792.375	613.360
383.059	20.416	792.076	613.141
384.073	20.663	790.813	612.977
385.088	20.617	790.630	612.617
386.102	20.722	790.164	612.574
387.117	20.404	789.800	611.119
388.132	20.449	789.198	610.758
389.146	20.379	788.454	609.882
390.161	19.863	787.624	607.376
391.175	19.868	787.079	606.916
392.190	20.327	786.993	608.408
393.205	20.288	786.398	607.757
394.219	19.570	784.857	604.002
395.234	18.084	783.168	597.460
396.248	17.452	782.461	594.659
397.263	18.414	783.246	598.566
398.278	20.070	783.892	604.790
399.292	20.549	783.528	606.126
400.307	20.313	783.152	604.962
401.321	20.155	783.040	604.269
402.336	20.265	782.596	604.257
403.350	20.600	782.365	605.192
404.365	20.684	782.380	605.442
405.380	20.962	782.079	606.122
406.394	21.301	781.362	606.689
407.409	21.349	781.235	606.705
408.423	21.117	780.556	605.319
409.438	21.206	779.751	604.948
410.453	21.109	779.698	604.517
411.467	21.164	779.313	604.355
412.482	21.328	778.362	604.131
413.496	21.078	778.056	602.978
414.511	21.129	777.735	602.850
415.526	21.335	777.180	603.079
416.540	21.205	777.131	602.538
417.555	21.046	776.592	601.521
418.569	20.954	775.686	600.447
419.584	20.865	775.092	599.630
420.599	21.086	774.526	599.899
421.613	156.704	1359.883	1793.007
422.628	135.242	1445.165	1793.131
