DTS Sentinel unit serial number:	SN413079Multiplexer serial number:	ORYXHardware model number:	OX4-SRSoftware version number:	ORYX F/W v4.00 Oryx Data Collector v3.7.2.0data status	okinstallation	princeton_trtdifferential loss correction	single-endedforward channel	channel 3reverse channel	N/Adate	2019/09/11time	03:14:11forward acquisition time	60.00reverse acquisition time	0.00gamma	496.2192k internal	0.2332k external	0.2332temperature offset calibration	0.9909default loss term (dB/km)	0.3790temperature slope calibration	1.0000multiplexer offset coefficient	1.0000multiplexer slope coefficient	1.0000fibre end	0.00T internal ref (°C)	29.37T ext. ref 1 (°C)	-0.30T ext. ref 2 (°C)	24.03length (m)	temperature (°C)	Stokes	anti-Stokes-747.200	-21.805	-0.197	0.121
-746.185	612.400	0.112	0.282
-745.171	-83.687	0.232	-0.075
-744.156	87.236	-0.321	0.357
-743.142	115.155	-0.174	0.213
-742.127	-141.574	-0.218	-0.022
-741.112	154.050	0.233	0.322
-740.098	800.000	-0.163	0.546
-739.083	388.309	0.128	-0.267
-738.069	73.669	-0.152	-0.160
-737.054	-15.219	-0.337	-0.217
-736.039	-85.715	-0.288	0.090
-735.025	-18.056	0.198	0.125
-734.010	-200.000	-0.059	-0.336
-732.996	16.302	-0.128	-0.102
-731.981	-43.561	0.241	0.122
-730.966	108.342	-0.228	-0.274
-729.952	172.073	-0.221	-0.319
-728.937	60.071	-0.197	-0.196
-727.923	209.338	-0.059	-0.094
-726.908	800.000	-0.062	-0.181
-725.894	116.192	-0.070	0.087
-724.879	474.734	0.206	0.468
-723.864	-200.000	-0.010	0.309
-722.850	800.000	-0.092	0.277
-721.835	-200.000	-0.016	-0.191
-720.821	123.060	0.080	-0.100
-719.806	-200.000	-0.012	-0.425
-718.791	-200.000	-0.020	0.237
-717.777	-149.272	0.358	0.029
-716.762	154.864	0.035	-0.049
-715.748	800.000	-0.040	0.125
-714.733	-4.143	-0.253	-0.176
-713.718	216.165	0.043	0.069
-712.704	-28.580	-0.170	0.098
-711.689	-200.000	0.005	0.037
-710.675	-95.850	-0.551	0.148
-709.660	-126.720	-0.484	-0.072
-708.645	-86.259	-0.128	0.040
-707.631	-94.119	-0.146	-0.040
-706.616	29.788	-0.054	-0.046
-705.602	-76.468	0.133	0.047
-704.587	1.337	0.074	-0.053
-703.572	-200.000	0.029	-0.364
-702.558	-79.188	-0.327	-0.111
-701.543	800.000	0.005	-0.019
-700.529	-200.000	0.036	-0.316
-699.514	9.021	-0.246	-0.187
-698.499	329.064	-0.114	-0.219
-697.485	-174.477	0.189	0.005
-696.470	95.531	-0.195	0.223
-695.456	-29.466	0.193	0.111
-694.441	-151.136	-0.301	-0.023
-693.426	-47.449	-0.306	-0.150
-692.412	-181.006	0.286	-0.006
-691.397	11.363	0.028	-0.022
-690.383	800.000	0.075	-0.219
-689.368	24.680	0.126	-0.105
-688.354	-42.164	-0.305	-0.156
-687.339	148.960	-0.234	-0.318
-686.324	508.807	-0.095	0.222
-685.310	-200.000	0.003	0.099
-684.295	-151.169	-0.450	0.034
-683.281	456.331	-0.190	-0.423
-682.266	-200.000	-0.042	-0.264
-681.251	20.071	-0.299	-0.242
-680.237	190.286	0.172	0.259
-679.222	53.105	0.067	-0.064
-678.208	105.704	0.211	-0.251
-677.193	800.000	-0.077	-0.270
-676.178	133.471	-0.053	0.069
-675.164	-178.947	0.194	0.004
-674.149	-58.869	-0.151	-0.065
-673.135	-37.658	-0.426	0.228
-672.120	-200.000	0.026	0.274
-671.105	506.911	0.059	0.137
-670.091	414.853	-0.057	-0.122
-669.076	-165.019	0.210	-0.009
-668.062	-31.698	-0.256	0.144
-667.047	29.945	-0.376	0.322
-666.032	128.241	0.140	-0.179
-665.018	-200.000	-0.026	-0.182
-664.003	800.000	-0.134	0.395
-662.989	246.035	0.137	-0.231
-661.974	17.038	-0.182	-0.145
-660.959	267.093	0.126	0.220
-659.945	-4.155	-0.205	-0.142
-658.930	-200.000	-0.020	-0.137
-657.916	-200.000	-0.005	0.105
-656.901	272.232	-0.059	0.105
-655.886	-119.657	0.044	0.008
-654.872	17.110	0.356	0.283
-653.857	-200.000	-0.015	-0.211
-652.843	29.038	0.238	-0.202
-651.828	800.000	-0.056	-0.195
-650.814	9.826	-0.251	-0.191
-649.799	800.000	-0.063	0.238
-648.784	184.216	0.119	-0.177
-647.770	184.641	0.273	-0.405
-646.755	-43.096	0.253	0.129
-645.741	-63.417	0.300	0.124
-644.726	-134.306	0.127	-0.016
-643.711	-88.641	0.169	-0.050
-642.697	-200.000	0.022	-0.147
-641.682	-35.806	-0.161	-0.087
-640.668	800.000	0.020	-0.088
-639.653	-200.000	-0.060	-0.273
-638.638	-17.017	-0.211	-0.134
-637.624	-52.931	-0.058	-0.027
-636.609	91.708	-0.019	0.022
-635.595	-116.817	0.349	0.064
-634.580	-64.538	0.081	0.033
-633.565	-116.775	0.160	0.029
-632.551	-51.021	-0.073	-0.034
-631.536	-86.167	-0.159	-0.049
-630.522	-200.000	0.022	0.154
-629.507	-200.000	0.035	0.284
-628.492	173.603	-0.144	0.208
-627.478	472.728	-0.062	-0.141
-626.463	-86.652	-0.274	-0.084
-625.449	-13.145	-0.304	-0.198
-624.434	481.753	-0.082	0.185
-623.419	-200.000	0.025	0.265
-622.405	-200.000	0.009	0.281
-621.390	173.407	0.078	-0.112
-620.376	613.781	-0.138	0.345
-619.361	411.292	-0.152	-0.323
-618.346	-186.234	0.034	-0.000
-617.332	800.000	-0.031	0.111
-616.317	-200.000	-0.009	-0.361
-615.303	-3.532	-0.202	0.141
-614.288	-54.618	0.382	-0.173
-613.273	87.987	-0.079	-0.088
-612.259	42.812	-0.165	-0.151
-611.244	-59.912	0.260	-0.111
-610.230	66.275	0.168	0.171
-609.215	-112.774	-0.251	-0.050
-608.201	286.697	-0.102	-0.184
-607.186	-104.286	-0.113	0.026
-606.171	-200.000	0.024	-0.167
-605.157	290.098	-0.031	-0.056
-604.142	800.000	0.031	-0.094
-603.128	-112.923	-0.131	0.026
-602.113	-130.515	0.061	0.008
-601.098	13.657	0.225	-0.175
-600.084	-6.044	0.152	0.104
-599.069	35.243	0.198	0.174
-598.055	-61.512	0.295	-0.124
-597.040	221.424	-0.039	-0.063
-596.025	-200.000	-0.026	-0.117
-595.011	-15.436	0.325	0.207
-593.996	-147.583	-0.293	-0.025
-592.982	212.721	0.157	-0.247
-591.967	-200.000	-0.029	-0.404
-590.952	-200.000	0.015	0.280
-589.938	65.401	-0.082	0.083
-588.923	-200.000	-0.143	0.001
-587.909	168.642	-0.151	0.215
-586.894	72.354	-0.282	-0.293
-585.879	800.000	0.040	0.115
-584.865	-0.007	0.139	0.099
-583.850	188.802	0.155	-0.232
-582.836	800.000	-0.088	-0.271
-581.821	-200.000	0.062	0.374
-580.806	-56.428	-0.091	0.040
-579.792	2.877	0.064	-0.046
-578.777	800.000	0.015	-0.055
-577.763	800.000	-0.026	-0.079
-576.748	-200.000	0.071	-0.321
-575.733	130.106	0.159	-0.203
-574.719	80.167	-0.079	0.085
-573.704	800.000	0.116	-0.359
-572.690	4.042	-0.173	0.127
-571.675	33.003	0.102	0.088
-570.661	-200.000	0.016	-0.183
-569.646	249.991	0.095	-0.161
-568.631	-50.527	0.188	0.089
-567.617	-200.000	0.013	0.383
-566.602	-93.284	0.456	-0.127
-565.588	593.736	0.010	-0.025
-564.573	800.000	0.080	-0.338
-563.558	-42.883	-0.103	0.052
-562.544	-200.000	0.012	-0.061
-561.529	107.418	-0.140	-0.167
-560.515	-67.595	0.336	0.132
-559.500	138.856	0.138	-0.181
-558.485	181.934	-0.119	0.176
-557.471	73.374	-0.063	-0.066
-556.456	-116.263	-0.152	0.028
-555.442	104.991	0.098	0.116
-554.427	-200.000	0.171	-0.000
-553.412	800.000	-0.065	-0.183
-552.398	-169.873	-0.053	-0.002
-551.383	-200.000	0.027	0.191
-550.369	777.412	0.027	0.075
-549.354	-200.000	-0.055	0.258
-548.339	82.104	-0.116	0.125
-547.325	-19.518	-0.028	0.017
-546.310	146.788	0.046	0.062
-545.296	25.029	0.161	0.133
-544.281	-9.887	-0.155	0.103
-543.266	56.931	-0.310	-0.302
-542.252	606.668	0.068	-0.170
-541.237	121.568	-0.014	-0.018
-540.223	-200.000	0.014	-0.194
-539.208	219.250	0.111	-0.178
-538.193	643.210	-0.072	0.183
-537.179	-70.771	0.152	-0.057
-536.164	-200.000	-0.240	0.001
-535.150	8.576	-0.277	-0.208
-534.135	88.017	0.064	-0.070
-533.121	-200.000	0.013	0.277
-532.106	184.563	0.241	0.356
-531.091	374.259	-0.048	-0.097
-530.077	131.962	-0.148	-0.190
-529.062	-99.170	-0.429	-0.108
-528.048	35.301	0.117	0.103
-527.033	327.600	0.225	-0.431
-526.018	-91.111	-0.308	-0.088
-525.004	-72.664	0.181	-0.066
-523.989	267.291	-0.216	-0.377
-522.975	800.000	0.016	0.051
-521.960	-158.810	0.256	0.015
-520.945	-28.057	-0.092	0.053
-519.931	-0.209	0.272	0.193
-518.916	-200.000	0.035	0.328
-517.902	-150.645	-0.209	0.016
-516.887	-82.522	-0.304	0.098
-515.872	-24.512	-0.080	-0.048
-514.858	-84.151	0.178	-0.056
-513.843	-200.000	-0.008	0.081
-512.829	-16.093	-0.301	-0.191
-511.814	-200.000	-0.043	0.413
-510.799	-119.302	0.370	-0.064
-509.785	-163.241	-0.114	-0.005
-508.770	-200.000	0.007	0.135
-507.756	800.000	0.064	-0.253
-506.741	174.337	0.141	-0.204
-505.726	-68.331	-0.275	0.107
-504.712	118.922	0.133	-0.163
-503.697	-200.000	0.077	0.434
-502.683	-200.000	-0.002	0.356
-501.668	-6.381	-0.217	-0.148
-500.653	145.590	0.038	0.050
-499.639	-17.750	0.172	-0.108
-498.624	335.676	0.043	-0.083
-497.610	-147.688	0.694	0.058
-496.595	-200.000	0.013	-0.091
-495.581	160.783	-0.091	0.126
-494.566	800.000	0.038	0.151
-493.551	-200.000	0.015	0.103
-492.537	-200.000	0.042	0.237
-491.522	14.216	-0.036	-0.028
-490.508	282.477	0.182	0.326
-489.493	44.724	-0.069	0.063
-488.478	-103.754	-0.221	-0.052
-487.464	10.945	-0.214	0.163
-486.449	800.000	-0.070	0.255
-485.435	-27.090	0.402	0.234
-484.420	-22.021	-0.055	-0.033
-483.405	-200.000	0.062	0.277
-482.391	417.775	0.190	0.404
-481.376	459.713	0.107	0.238
-480.362	800.000	0.075	0.266
-479.347	78.148	0.192	0.204
-478.332	-200.000	-0.019	0.278
-477.318	-69.330	-0.263	0.101
-476.303	-116.073	0.162	-0.030
-475.289	109.616	0.060	0.072
-474.274	-200.000	0.017	0.084
-473.259	4.485	-0.022	-0.016
-472.245	-200.000	0.000	0.021
-471.230	145.902	0.147	-0.196
-470.216	51.440	-0.181	0.172
-469.201	-200.000	0.046	-0.267
-468.186	800.000	-0.035	-0.129
-467.172	-153.797	-0.190	0.013
-466.157	523.997	0.132	-0.309
-465.143	96.627	0.036	0.041
-464.128	30.571	0.165	-0.141
-463.113	-145.033	-0.310	0.028
-462.099	-59.168	0.288	-0.123
-461.084	-85.090	0.052	0.016
-460.070	-112.127	-0.223	0.045
-459.055	103.863	0.144	0.168
-458.040	726.748	-0.054	0.143
-457.026	481.577	-0.061	-0.138
-456.011	-200.000	0.001	-0.174
-454.997	-183.661	0.088	0.002
-453.982	109.455	0.075	-0.089
-452.968	-189.313	-0.698	0.008
-451.953	800.000	0.081	0.248
-450.938	-200.000	0.021	-0.334
-449.924	-18.987	0.073	0.045
-448.909	-48.937	-0.021	0.010
-447.895	264.509	-0.144	0.249
-446.880	83.302	-0.065	0.070
-445.865	-101.295	0.076	-0.018
-444.851	-200.000	-0.014	0.146
-443.836	-155.670	0.185	-0.012
-442.822	800.000	0.022	-0.083
-441.807	-13.851	0.126	0.081
-440.792	786.272	-0.053	-0.144
-439.778	-19.397	0.258	0.159
-438.763	161.867	0.035	-0.048
-437.749	34.522	-0.318	-0.276
-436.734	-120.612	-0.213	0.036
-435.719	-116.372	0.194	-0.036
-434.705	-200.000	-0.023	0.247
-433.690	184.462	0.167	0.246
-432.676	4.992	-0.069	0.050
-431.661	-200.000	0.021	-0.303
-430.646	107.456	0.125	0.147
-429.632	133.959	0.129	-0.167
-428.617	-200.000	-0.006	0.212
-427.603	643.303	0.085	-0.216
-426.588	800.000	-0.040	-0.137
-425.573	-92.836	-0.236	-0.066
-424.559	274.435	-0.051	0.090
-423.544	-13.970	-0.428	0.275
-422.530	-52.752	0.336	-0.154
-421.515	152.827	-0.105	-0.143
-420.500	18.952	0.166	-0.132
-419.486	-125.457	-0.304	-0.046
-418.471	-200.000	0.001	0.127
-417.457	800.000	0.028	-0.109
-416.442	-83.530	-0.104	0.033
-415.428	-78.277	0.314	0.107
-414.413	5.706	0.054	0.039
-413.398	-32.038	0.145	-0.080
-412.384	682.587	-0.087	0.224
-411.369	-200.000	-0.038	0.291
-410.355	-200.000	0.031	-0.138
-409.340	365.406	-0.142	0.284
-408.325	-137.116	-0.105	0.012
-407.311	-95.905	-0.180	-0.048
-406.296	-55.468	-0.353	-0.157
-405.282	800.000	0.095	-0.300
-404.267	-53.037	0.271	0.124
-403.252	-55.570	0.101	0.045
-402.238	-200.000	-0.013	-0.137
-401.223	418.369	0.054	0.115
-400.209	-20.424	0.163	-0.099
-399.194	-14.483	-0.165	0.105
-398.179	20.013	0.073	-0.058
-397.165	-78.272	-0.327	-0.112
-396.150	-200.000	0.035	-0.234
-395.136	29.948	-0.383	0.324
-394.121	767.709	-0.113	-0.306
-393.106	88.183	-0.033	0.036
-392.092	-200.000	-0.007	-0.106
-391.077	-124.364	-0.295	0.046
-390.063	5.623	0.239	-0.175
-389.048	-200.000	-0.001	-0.082
-388.033	162.751	-0.113	-0.157
-387.019	-200.000	0.006	-0.039
-386.004	800.000	-0.035	0.117
-384.990	161.016	-0.065	0.090
-383.975	43.733	-0.273	-0.248
-382.960	-75.175	0.196	-0.070
-381.946	800.000	0.075	0.248
-380.931	-90.172	-0.524	-0.151
-379.917	-200.000	-0.029	-0.191
-378.902	-200.000	0.015	0.233
-377.888	-200.000	-0.016	-0.108
-376.873	221.266	0.059	0.094
-375.858	-162.819	-0.193	-0.009
-374.844	22.965	-0.176	0.143
-373.829	800.000	-0.104	-0.291
-372.815	800.000	-0.027	0.108
-371.800	800.000	-0.031	-0.124
-370.785	643.387	0.164	0.414
-369.771	114.963	0.129	0.156
-368.756	76.657	-0.183	0.192
-367.742	-200.000	0.006	0.229
-366.727	-88.596	-0.110	0.033
-365.712	164.431	-0.116	0.162
-364.698	247.363	0.079	-0.132
-363.683	-200.000	0.012	0.123
-362.669	-200.000	0.001	0.068
-361.654	150.072	0.067	-0.090
-360.639	-95.956	0.149	-0.039
-359.625	800.000	-0.084	-0.240
-358.610	392.783	0.151	-0.311
-357.596	-17.159	-0.098	0.061
-356.581	425.860	0.042	0.089
-355.566	82.103	-0.018	-0.019
-354.552	323.341	0.141	-0.266
-353.537	-0.339	-0.152	-0.107
-352.523	425.663	0.070	-0.150
-351.508	-97.413	0.092	0.024
-350.493	19.873	0.164	-0.131
-349.479	-106.902	-0.236	0.052
-348.464	-200.000	-0.040	0.262
-347.450	81.715	-0.159	0.170
-346.435	-200.000	-0.030	0.310
-345.420	-168.138	0.089	0.003
-344.406	407.023	-0.161	0.337
-343.391	-200.000	0.021	-0.203
-342.377	529.838	0.036	-0.083
-341.362	225.692	0.113	-0.181
-340.348	-200.000	-0.031	0.247
-339.333	260.560	-0.109	-0.186
-338.318	800.000	-0.089	0.253
-337.304	800.000	-0.166	-0.526
-336.289	266.629	0.155	0.268
-335.275	374.340	-0.148	0.298
-334.260	800.000	-0.127	0.382
-333.245	-55.962	0.196	0.086
-332.231	183.344	0.113	-0.165
-331.216	227.457	0.056	-0.091
-330.202	800.000	0.059	-0.253
-329.187	-60.614	-0.166	-0.070
-328.172	-200.000	-0.028	-0.139
-327.158	-77.279	0.209	-0.072
-326.143	-25.953	-0.174	0.102
-325.129	800.000	-0.025	0.089
-324.114	156.247	-0.150	0.205
-323.099	-53.878	0.219	-0.099
-322.085	-60.759	-0.376	-0.158
-321.070	448.145	-0.015	-0.032
-320.056	800.000	0.028	-0.091
-319.041	-129.528	-0.036	-0.005
-318.026	132.706	0.109	-0.139
-317.012	32.301	0.094	-0.080
-315.997	287.622	-0.072	-0.129
-314.983	85.519	0.111	0.121
-313.968	-41.815	-0.141	0.072
-312.953	-200.000	0.013	-0.201
-311.939	33.833	-0.181	0.156
-310.924	-121.336	0.106	0.018
-309.910	-200.000	-0.010	-0.177
-308.895	-16.052	0.167	-0.105
-307.880	-81.784	0.350	0.114
-306.866	214.484	-0.090	-0.141
-305.851	236.027	0.169	-0.277
-304.837	18.119	0.049	0.039
-303.822	-164.556	-0.378	-0.017
-302.807	-53.671	0.224	-0.101
-301.793	-200.000	-0.021	-0.309
-300.778	800.000	0.069	0.214
-299.764	95.513	0.203	0.229
-298.749	346.292	0.062	-0.121
-297.735	-200.000	0.001	-0.103
-296.720	392.683	-0.143	-0.293
-295.705	-141.019	0.124	0.013
-294.691	-200.000	-0.026	0.144
-293.676	86.069	0.043	0.047
-292.662	800.000	-0.024	-0.083
-291.647	360.539	-0.141	0.279
-290.632	-55.467	0.208	-0.092
-289.618	463.430	-0.104	-0.230
-288.603	188.275	0.095	0.141
-287.589	-90.350	-0.051	0.015
-286.574	-137.407	-0.065	0.007
-285.559	-200.000	0.016	-0.144
-284.545	800.000	0.098	0.303
-283.530	800.000	0.041	-0.133
-282.516	563.533	-0.017	-0.042
-281.501	-75.468	0.080	-0.028
-280.486	-180.472	-0.166	-0.003
-279.472	796.022	0.172	-0.467
-278.457	-152.696	0.346	-0.024
-277.443	-200.000	0.046	0.426
-276.428	30.089	-0.132	-0.111
-275.413	-200.000	0.009	0.310
-274.399	152.037	-0.072	0.097
-273.384	-144.871	-0.252	-0.023
-272.370	-172.330	-0.094	-0.003
-271.355	-25.926	0.084	0.049
-270.340	-46.175	0.093	-0.045
-269.326	-200.000	-0.007	-0.335
-268.311	-1.004	-0.385	0.269
-267.297	-105.275	-0.233	-0.052
-266.282	6.104	0.018	-0.013
-265.267	61.744	0.046	0.046
-264.253	169.019	0.105	0.147
-263.238	203.193	0.022	-0.033
-262.224	-34.678	-0.256	0.138
-261.209	549.779	0.069	0.164
-260.195	-200.000	0.007	0.185
-259.180	-200.000	-0.007	0.056
-258.165	636.828	-0.024	0.061
-257.151	-37.149	-0.336	0.178
-256.136	-3.048	0.257	-0.177
-255.122	-200.000	0.007	-0.362
-254.107	746.794	-0.111	0.295
-253.092	800.000	0.130	0.376
-252.078	6.456	0.107	-0.079
-251.063	-103.967	-0.192	0.044
-250.049	381.196	-0.121	-0.244
-249.034	-36.504	-0.075	0.040
-248.019	-121.631	0.354	-0.058
-247.005	44.504	-0.185	0.168
-245.990	398.350	0.162	0.335
-244.976	-171.852	-0.109	0.004
-243.961	-55.677	0.321	-0.142
-242.946	-200.000	-0.043	-0.201
-241.932	-200.000	-0.003	0.142
-240.917	-35.812	0.200	0.107
-239.903	-124.338	0.169	0.026
-238.888	-66.611	0.095	-0.037
-237.873	-109.321	-0.195	0.041
-236.859	182.406	-0.290	0.422
-235.844	180.561	0.116	0.169
-234.830	-200.000	-0.100	0.000
-233.815	-145.550	-0.052	0.005
-232.800	-125.068	0.254	0.038
-231.786	229.727	-0.163	0.262
-230.771	372.730	-0.076	-0.151
-229.757	-71.074	-0.052	0.019
-228.742	-103.842	0.124	0.029
-227.727	1.321	0.253	-0.179
-226.713	-200.000	-0.051	-0.287
-225.698	11.073	-0.246	-0.185
-224.684	-118.858	0.183	-0.032
-223.669	142.845	0.143	0.187
-222.655	584.925	-0.057	0.137
-221.640	24.670	-0.072	-0.059
-220.625	155.439	0.065	-0.088
-219.611	-88.521	-0.135	0.040
-218.596	-113.369	-0.085	-0.016
-217.582	-97.322	0.170	0.044
-216.567	-71.316	0.149	0.055
-215.552	-134.474	0.122	0.015
-214.538	-59.799	0.155	-0.066
-213.523	140.270	-0.046	0.059
-212.509	-79.681	0.218	-0.072
-211.494	-114.090	-0.084	0.016
-210.479	479.957	-0.125	-0.279
-209.465	-50.401	-0.280	0.130
-208.450	800.000	0.099	-0.419
-207.436	118.003	-0.153	0.186
-206.421	-200.000	-0.047	0.305
-205.406	-200.000	-0.001	-0.104
-204.392	-162.918	0.157	0.008
-203.377	800.000	0.059	0.168
-202.363	74.487	-0.059	-0.061
-201.348	-167.430	0.128	0.005
-200.333	-200.000	0.027	-0.200
-199.319	-200.000	-0.049	0.296
-198.304	800.000	0.053	-0.160
-197.290	77.224	-0.233	-0.244
-196.275	-50.509	0.477	-0.221
-195.260	-7.832	-0.154	0.102
-194.246	-200.000	0.009	-0.102
-193.231	-14.343	-0.208	-0.132
-192.217	104.346	-0.234	-0.271
-191.202	-200.000	-0.039	-0.320
-190.187	43.556	0.123	-0.111
-189.173	-92.595	0.489	-0.135
-188.158	-200.000	-0.042	-0.330
-187.144	194.434	-0.067	0.100
-186.129	-136.434	0.168	-0.019
-185.114	208.446	0.036	0.056
-184.100	333.040	0.181	0.345
-183.085	-169.037	-0.303	-0.011
-182.071	-200.000	-0.010	-0.229
-181.056	140.413	0.141	-0.184
-180.042	309.434	-0.097	0.178
-179.027	279.797	0.109	-0.192
-178.012	-200.000	-0.040	-0.223
-176.998	-74.176	0.192	0.068
-175.983	-200.000	-0.020	0.087
-174.969	-120.155	-0.140	-0.024
-173.954	-32.661	0.301	-0.165
-172.939	-200.000	0.060	0.445
-171.925	-200.000	0.063	-0.328
-170.910	-137.470	0.280	0.031
-169.896	296.683	-0.031	-0.056
-168.881	-47.829	0.218	0.104
-167.866	508.937	-0.038	0.086
-166.852	155.254	-0.300	0.406
-165.837	-134.735	0.083	0.010
-164.823	19.591	-0.175	-0.138
-163.808	-142.567	-0.290	-0.028
-162.793	560.628	-0.050	-0.119
-161.779	-147.900	0.200	0.016
-160.764	687.186	0.036	-0.094
-159.750	-125.672	-0.024	0.004
-158.735	272.267	-0.020	0.035
-157.720	-200.000	0.005	0.117
-156.706	-64.294	-0.125	0.050
-155.691	151.195	-0.144	0.193
-154.677	25.830	-0.226	0.185
-153.662	99.178	-0.238	0.271
-152.647	165.867	0.030	-0.042
-151.633	-200.000	0.006	-0.190
-150.618	28.979	-0.228	-0.190
-149.604	409.360	0.177	0.369
-148.589	190.140	-0.206	-0.305
-147.574	-86.883	0.259	-0.078
-146.560	93.457	0.393	-0.437
-145.545	32.739	-0.222	-0.189
-144.531	97.841	0.019	0.022
-143.516	800.000	0.034	0.144
-142.502	-112.647	0.174	-0.034
-141.487	52.939	-0.124	-0.116
-140.472	-11.994	0.101	-0.065
-139.458	260.154	0.098	0.167
-138.443	-17.017	0.274	-0.170
-137.429	-19.413	0.172	-0.105
-136.414	37.050	0.207	-0.180
-135.399	800.000	0.095	0.354
-134.385	-200.000	0.021	0.131
-133.370	-200.000	-0.036	-0.312
-132.356	800.000	0.103	0.391
-131.341	423.849	-0.092	0.194
-130.326	-120.202	-0.250	0.042
-129.312	195.616	0.137	0.205
-128.297	-45.402	-0.246	0.120
-127.283	-200.000	0.009	0.072
-126.268	1.861	0.106	-0.075
-125.253	155.649	0.082	0.111
-124.239	-17.402	-0.063	-0.039
-123.224	124.847	-0.007	0.009
-122.210	-200.000	-0.052	0.290
-121.195	-157.242	0.169	0.010
-120.180	20.057	0.304	-0.241
-119.166	-71.875	-0.199	-0.073
-118.151	90.596	-0.370	0.407
-117.137	146.947	-0.210	0.278
-116.122	247.329	-0.204	0.338
-115.107	-134.507	-0.073	0.009
-114.093	-96.529	0.092	0.024
-113.078	-200.000	-0.030	-0.328
-112.064	-200.000	-0.062	0.359
-111.049	-200.000	0.045	0.263
-110.034	-144.401	-0.319	0.029
-109.020	145.176	0.120	0.158
-108.005	-97.709	-0.385	-0.098
-106.991	-200.000	-0.030	0.180
-105.976	800.000	-0.072	0.217
-104.962	-29.339	-0.135	0.076
-103.947	-200.000	-0.040	0.215
-102.932	800.000	0.013	-0.050
-101.918	-86.740	0.254	-0.076
-100.903	800.000	0.038	0.119
-99.889	78.525	0.153	0.161
-98.874	-56.580	-0.095	-0.041
-97.859	116.818	-0.048	0.058
-96.845	-104.115	0.421	-0.096
-95.830	23.149	-0.202	-0.163
-94.816	-93.355	-0.141	-0.038
-93.801	463.361	-0.151	0.330
-92.786	149.975	0.139	0.185
-91.772	800.000	0.125	0.511
-90.757	-200.000	-0.003	0.137
-89.743	-30.545	-0.209	-0.116
-88.728	-192.852	0.028	0.000
-87.713	800.000	0.036	0.148
-86.699	-32.051	0.179	-0.098
-85.684	-200.000	-0.011	0.155
-84.670	-77.228	-0.248	0.085
-83.655	800.000	0.031	0.095
-82.640	-107.127	-0.338	-0.073
-81.626	-180.470	-0.206	0.004
-80.611	38.532	0.214	0.187
-79.597	-17.747	-0.309	0.190
-78.582	-89.375	-0.302	0.087
-77.567	800.000	0.036	-0.124
-76.553	109.793	0.122	0.144
-75.538	107.220	0.271	-0.316
-74.524	-72.165	-0.157	0.057
-73.509	-19.517	0.232	0.141
-72.494	-200.000	0.026	-0.148
-71.480	88.551	0.077	0.084
-70.465	99.781	0.208	0.236
-69.451	82.520	0.160	-0.170
-68.436	800.000	-0.089	-0.305
-67.422	262.157	-0.056	0.095
-66.407	-200.000	0.050	0.279
-65.392	-77.280	-0.115	0.039
-64.378	-200.000	-0.020	0.379
-63.363	91.198	0.247	-0.271
-62.349	-151.856	-0.349	0.025
-61.334	53.210	-0.936	-0.878
-60.319	70.674	0.614	0.623
-59.305	800.000	-0.293	-1.193
-58.290	272.265	0.569	0.983
-57.276	224.843	0.976	1.547
-56.261	-200.000	106.116	612.687
-55.246	505.347	1511.303	3428.875
-54.232	176.222	2702.682	3844.416
-53.217	109.946	2185.205	2567.697
-52.203	40.029	1704.670	1499.992
-51.188	32.561	1515.523	1282.877
-50.173	30.139	1488.944	1244.092
-49.159	51.346	1544.776	1436.351
-48.144	51.389	1561.649	1452.276
-47.130	32.742	1517.035	1285.188
-46.115	29.835	1502.033	1252.776
-45.100	29.497	1498.878	1247.808
-44.086	29.463	1496.832	1245.824
-43.071	29.327	1494.750	1243.124
-42.057	29.364	1492.696	1241.621
-41.042	29.334	1491.724	1240.557
-40.027	29.270	1490.667	1239.199
-39.013	29.348	1488.693	1238.037
-37.998	29.298	1487.751	1236.865
-36.984	29.357	1486.131	1235.869
-35.969	29.406	1484.344	1234.660
-34.954	29.349	1483.537	1233.554
-33.940	29.313	1481.867	1231.881
-32.925	29.322	1480.481	1230.740
-31.911	29.380	1479.229	1230.035
-30.896	29.380	1478.426	1229.320
-29.881	29.423	1476.764	1228.178
-28.867	29.475	1475.932	1227.779
-27.852	29.504	1473.927	1226.254
-26.838	29.453	1472.223	1224.452
-25.823	29.479	1470.842	1223.425
-24.809	29.514	1469.292	1222.323
-23.794	29.301	1468.484	1220.187
-22.779	29.372	1467.482	1219.777
-21.765	29.458	1465.969	1219.039
-20.750	29.503	1464.937	1218.429
-19.736	29.482	1463.596	1217.126
-18.721	29.391	1462.668	1215.709
-17.706	29.310	1461.718	1214.340
-16.692	29.483	1459.747	1213.788
-15.677	29.441	1458.974	1212.820
-14.663	29.343	1458.254	1211.531
-13.648	29.190	1458.184	1210.424
-12.633	29.341	1456.635	1210.080
-11.619	29.346	1455.825	1209.388
-10.604	29.376	1454.778	1208.667
-9.590	29.360	1453.930	1207.811
-8.575	29.226	1453.625	1206.633
-7.560	29.420	1452.047	1206.546
-6.546	29.326	1451.277	1205.243
-5.531	29.321	1450.686	1204.669
-4.517	29.271	1449.856	1203.605
-3.502	29.225	1448.750	1202.342
-2.487	29.268	1447.465	1201.506
-1.473	29.256	1446.993	1200.988
-0.458	29.260	1445.618	1199.827
0.556	27.039	1435.712	1189.779
1.571	24.337	1410.633	1151.471
2.586	21.163	1352.277	1084.059
3.600	19.648	1271.526	1010.383
4.615	18.694	1226.955	969.492
5.629	16.253	1172.160	912.926
6.644	8.051	1088.286	806.186
7.659	1.005	1047.673	741.620
8.673	-0.158	1041.938	731.831
9.688	-0.367	1038.680	728.462
10.702	-0.350	1036.604	727.026
11.717	-0.334	1035.000	725.912
12.731	3.026	1038.421	744.543
13.746	11.870	1051.388	796.990
14.761	18.634	1059.754	836.347
15.775	20.302	1061.652	845.904
16.790	20.596	1061.434	847.088
17.804	20.372	1060.387	845.087
18.819	20.212	1059.522	843.547
19.834	20.151	1059.474	843.138
20.848	20.413	1058.407	843.489
21.863	20.447	1057.965	843.225
22.877	20.352	1057.555	842.364
23.892	20.305	1057.160	841.743
24.907	20.395	1056.158	841.310
25.921	20.410	1055.313	840.634
26.936	20.452	1054.543	840.150
27.950	20.468	1053.186	839.073
28.965	20.186	1052.330	836.953
29.980	20.184	1050.706	835.578
30.994	20.282	1048.810	834.468
32.009	20.416	1048.386	834.704
33.023	20.541	1047.266	834.334
34.038	20.321	1046.101	832.279
35.053	20.175	1045.670	831.164
36.067	20.496	1044.579	831.761
37.082	20.454	1044.023	831.042
38.096	20.473	1043.410	830.572
39.111	20.629	1042.171	830.255
40.126	20.710	1041.408	829.960
41.140	20.648	1040.131	828.573
42.155	20.451	1038.620	826.358
43.169	20.151	1037.421	823.907
44.184	20.109	1036.287	822.733
45.199	20.219	1035.116	822.255
46.213	19.993	1034.284	820.449
47.228	20.113	1033.204	820.087
48.242	20.222	1032.378	819.874
49.257	20.236	1031.733	819.358
50.271	20.296	1031.059	819.032
51.286	20.396	1030.190	818.742
52.301	20.442	1029.388	818.248
53.315	20.478	1028.453	817.600
54.330	20.433	1027.774	816.779
55.344	20.461	1026.841	816.094
56.359	20.466	1025.683	815.128
57.374	20.451	1024.891	814.356
58.388	20.208	1023.858	812.325
59.403	20.219	1023.413	811.952
60.417	20.144	1022.718	810.974
61.432	20.120	1021.685	809.975
62.447	20.143	1021.014	809.476
63.461	20.221	1020.215	809.138
64.476	20.269	1019.408	808.648
65.490	20.299	1018.457	807.963
66.505	20.164	1017.817	806.753
67.520	20.278	1016.952	806.527
68.534	20.291	1016.025	805.782
69.549	20.140	1014.934	804.145
70.563	19.824	1013.754	801.675
71.578	19.687	1012.878	800.277
72.593	19.785	1012.029	799.988
73.607	19.675	1010.751	798.398
74.622	19.576	1010.282	797.500
75.636	19.936	1009.021	798.094
76.651	20.170	1008.680	798.834
77.666	19.903	1007.405	796.525
78.680	19.861	1006.774	795.763
79.695	19.930	1006.221	795.573
80.709	19.943	1005.701	795.146
81.724	20.051	1004.652	794.745
82.739	20.067	1003.881	794.136
83.753	19.938	1003.221	792.952
84.768	20.303	1002.347	793.864
85.782	20.542	1001.700	794.372
86.797	20.728	1000.793	794.433
87.812	20.569	1000.414	793.336
88.826	20.437	999.581	792.002
89.841	20.427	998.115	790.728
90.855	20.606	997.382	790.890
91.870	20.547	996.295	789.691
92.884	20.566	995.414	789.010
93.899	20.498	994.706	788.069
94.914	20.424	993.598	786.785
95.928	20.439	992.929	786.252
96.943	20.548	992.315	786.190
97.957	20.159	991.080	783.386
98.972	20.084	990.030	782.148
99.987	19.962	988.637	780.427
101.001	20.003	987.872	779.939
102.016	20.241	987.451	780.611
103.030	20.312	986.596	780.183
104.045	20.325	985.313	779.157
105.060	20.055	984.016	776.854
106.074	20.058	982.558	775.647
107.089	19.951	982.573	775.113
108.103	20.361	982.034	776.454
109.118	20.544	981.038	776.414
110.133	20.209	979.654	773.754
111.147	20.208	978.914	773.097
112.162	20.099	977.265	771.243
113.176	19.895	976.338	769.536
114.191	20.068	975.707	769.740
115.206	20.141	974.853	769.323
116.220	19.950	973.282	767.169
117.235	19.690	972.547	765.368
118.249	19.914	971.844	765.740
119.264	19.863	971.183	764.923
120.279	19.757	970.278	763.675
121.293	19.858	969.357	763.330
122.308	19.918	968.667	762.981
123.322	19.959	967.617	762.268
124.337	19.940	966.608	761.324
125.352	19.837	965.074	759.593
126.366	19.419	963.597	756.531
127.381	19.028	962.411	753.823
128.395	19.507	962.233	755.714
129.410	20.177	961.751	758.200
130.424	20.415	960.299	758.027
131.439	20.437	959.827	757.682
132.454	20.289	958.241	755.717
133.468	20.236	957.669	754.969
134.483	20.201	957.057	754.266
135.497	20.363	956.005	754.078
136.512	20.386	955.901	754.028
137.527	20.561	954.732	753.795
138.541	20.536	954.043	753.077
139.556	20.519	953.277	752.332
140.570	20.610	952.328	751.910
141.585	20.606	951.211	750.945
142.600	20.660	950.912	750.878
143.614	20.425	949.896	748.994
144.629	20.670	948.961	749.246
145.643	20.871	948.763	749.891
146.658	20.578	947.811	747.811
147.673	20.502	946.339	746.254
148.687	20.402	945.123	744.802
149.702	20.262	944.522	743.664
150.716	20.300	943.376	742.858
151.731	20.219	942.388	741.668
152.746	20.378	941.328	741.447
153.760	20.475	941.001	741.537
154.775	20.694	940.521	742.027
155.789	20.692	939.065	740.803
156.804	20.629	937.996	739.630
157.819	20.600	937.184	738.799
158.833	20.622	936.603	738.368
159.848	20.763	935.720	738.204
160.862	20.734	935.131	737.553
161.877	20.669	934.304	736.559
162.892	20.712	933.288	735.878
163.906	20.859	932.827	736.070
164.921	20.735	931.693	734.586
165.935	20.636	930.354	733.048
166.950	20.736	929.484	732.719
167.964	20.789	928.250	731.903
168.979	20.781	927.105	730.903
169.994	20.736	926.365	730.066
171.008	20.429	925.673	728.169
172.023	20.706	924.627	728.442
173.037	20.711	923.785	727.734
174.052	20.656	922.911	726.752
175.067	20.373	921.907	724.714
176.081	20.516	921.057	724.578
177.096	20.532	920.054	723.793
178.110	20.608	919.355	723.495
179.125	20.315	918.442	721.495
180.140	20.095	917.605	719.858
181.154	20.161	916.839	719.470
182.169	20.184	916.377	719.140
183.183	20.300	916.316	719.510
184.198	20.620	915.766	720.337
185.213	20.700	914.580	719.670
186.227	20.574	914.332	718.892
187.242	20.632	913.363	718.306
188.256	20.805	912.764	718.487
189.271	20.588	912.267	717.137
190.286	20.779	911.072	716.921
191.300	20.578	910.138	715.295
192.315	20.250	908.681	712.740
193.329	19.557	907.345	708.783
194.344	19.126	906.432	706.242
195.359	19.622	906.690	708.415
196.373	20.414	906.992	711.836
197.388	20.757	906.478	712.774
198.402	20.594	905.673	711.410
199.417	20.401	905.626	710.522
200.432	20.523	904.823	710.328
201.446	20.381	904.350	709.311
202.461	20.199	903.077	707.509
203.475	20.201	902.738	707.187
204.490	19.841	900.877	704.203
205.504	18.729	899.351	698.425
206.519	19.156	899.133	699.933
207.534	20.090	899.518	703.967
208.548	20.103	899.048	703.589
209.563	20.491	898.684	704.816
210.577	20.500	897.924	704.195
211.592	20.154	897.224	702.180
212.607	20.673	896.758	703.855
213.621	20.696	896.809	703.926
214.636	20.704	895.775	703.082
215.650	20.743	895.558	703.010
216.665	20.719	894.375	701.921
217.680	20.800	893.915	701.823
218.694	20.867	893.400	701.628
219.709	20.543	892.546	699.592
220.723	20.229	891.497	697.443
221.738	20.373	891.137	697.678
222.753	20.630	890.599	698.228
223.767	20.537	889.830	697.193
224.782	20.470	889.342	696.479
225.796	20.684	888.554	696.658
226.811	20.949	887.924	697.160
227.826	20.424	887.180	694.415
228.840	19.634	884.970	689.475
229.855	19.592	884.554	688.921
230.869	20.019	884.281	690.349
231.884	19.652	883.050	687.866
232.899	19.602	882.624	687.275
233.913	20.366	883.130	690.648
234.928	20.639	882.154	690.907
235.942	20.483	881.741	689.907
236.957	20.523	880.923	689.361
237.972	20.311	880.298	687.973
238.986	20.262	879.173	686.838
240.001	20.337	878.682	686.691
241.015	20.405	877.907	686.294
242.030	20.322	877.438	685.540
243.045	20.603	876.850	686.126
244.059	20.606	876.715	685.973
245.074	20.803	875.914	686.059
246.088	20.583	875.349	684.691
247.103	20.325	874.240	682.750
248.117	20.411	873.632	682.550
249.132	20.828	873.514	684.039
250.147	21.144	873.292	685.042
251.161	21.266	872.913	685.163
252.176	21.383	872.127	684.944
253.190	21.345	871.512	684.253
254.205	21.448	870.799	684.034
255.220	21.610	870.667	684.504
256.234	21.569	870.012	683.768
257.249	21.493	869.106	682.699
258.263	21.334	868.310	681.395
259.278	21.318	867.906	680.955
260.293	21.357	867.383	680.636
261.307	21.527	866.920	680.874
262.322	21.432	865.874	679.622
263.336	21.304	865.530	678.796
264.351	20.790	863.992	675.535
265.366	19.646	861.825	669.351
266.380	19.389	860.857	667.544
267.395	20.118	861.379	670.712
268.409	20.977	861.501	674.073
269.424	21.023	860.684	673.552
270.439	21.026	860.765	673.566
271.453	21.127	859.717	673.074
272.468	21.331	858.983	673.227
273.482	21.505	858.587	673.528
274.497	21.632	858.375	673.789
275.512	21.338	857.451	671.876
276.526	20.596	856.176	667.968
277.541	20.844	855.824	668.585
278.555	21.337	855.285	669.998
279.570	21.180	854.361	668.611
280.585	20.846	853.366	666.497
281.599	20.967	853.162	666.742
282.614	21.154	852.804	667.116
283.628	20.613	852.076	664.422
284.643	20.406	850.989	662.724
285.657	20.997	850.613	664.628
286.672	20.637	850.060	662.765
287.687	20.239	849.224	660.540
288.701	20.574	849.217	661.751
289.716	20.859	848.640	662.327
290.730	20.543	847.835	660.439
291.745	20.514	847.277	659.837
292.760	20.396	845.914	658.270
293.774	20.422	845.471	657.965
294.789	21.130	846.026	661.020
295.803	21.698	846.172	663.228
296.818	21.915	845.500	663.464
297.833	21.990	844.846	663.174
298.847	21.541	844.098	660.832
299.862	21.261	842.571	658.523
300.876	21.494	842.167	659.029
301.891	21.726	842.279	659.930
302.906	21.831	841.384	659.567
303.920	21.331	840.577	656.997
304.935	21.144	839.949	655.747
305.949	21.608	839.562	657.127
306.964	21.696	839.216	657.127
307.979	21.445	838.619	655.663
308.993	21.529	837.874	655.337
310.008	21.620	838.098	655.795
311.022	21.911	837.404	656.279
312.037	21.715	836.605	654.865
313.052	21.452	836.254	653.551
314.066	21.450	835.558	652.939
315.081	20.902	833.822	649.483
316.095	20.161	832.598	645.714
317.110	20.628	833.004	647.710
318.125	21.581	833.000	651.198
319.139	21.069	831.790	648.293
320.154	19.959	829.878	642.627
321.168	19.626	829.378	640.947
322.183	20.101	830.021	643.153
323.197	21.090	830.145	646.857
324.212	21.472	829.576	647.774
325.227	21.421	829.294	647.306
326.241	21.693	829.078	648.086
327.256	21.630	828.191	647.104
328.270	21.503	827.620	646.131
329.285	21.424	826.896	645.217
330.300	21.445	825.648	644.262
331.314	21.045	825.366	642.512
332.329	21.110	824.884	642.320
333.343	21.388	824.706	643.147
334.358	21.539	824.024	643.114
335.373	21.665	823.742	643.301
336.387	21.717	823.189	643.001
337.402	21.869	822.461	642.934
338.416	21.987	822.430	643.285
339.431	22.017	821.699	642.764
340.446	22.133	820.931	642.533
341.460	22.159	821.107	642.710
342.475	22.145	820.112	641.824
343.489	22.001	819.518	640.776
344.504	21.975	818.598	639.905
345.519	22.171	818.741	640.675
346.533	22.403	818.073	640.939
347.548	22.504	817.809	641.044
348.562	22.502	817.185	640.489
349.577	22.516	816.591	640.018
350.592	22.533	815.979	639.543
351.606	22.407	815.634	638.760
352.621	22.250	815.686	638.176
353.635	22.346	814.688	637.685
354.650	22.174	814.111	636.556
355.665	22.025	812.787	634.923
356.679	20.930	811.462	629.879
357.694	20.909	810.822	629.247
358.708	21.478	810.814	631.240
359.723	21.303	810.159	630.043
360.738	21.630	810.273	631.258
361.752	22.039	810.082	632.524
362.767	22.036	810.010	632.402
363.781	22.414	809.492	633.302
364.796	22.596	809.275	633.729
365.810	22.609	808.773	633.328
366.825	22.720	808.494	633.450
367.840	22.865	807.968	633.504
368.854	22.655	806.727	631.722
369.869	22.339	805.914	629.897
370.883	22.227	805.345	628.997
371.898	22.229	805.248	628.872
372.913	22.121	804.275	627.672
373.927	22.090	803.690	627.049
374.942	22.329	803.525	627.717
375.956	22.370	802.902	627.322
376.971	22.439	802.482	627.185
377.986	22.509	802.018	627.014
379.000	22.641	801.699	627.180
380.015	22.698	801.302	627.017
381.029	22.496	800.583	625.683
382.044	22.613	799.913	625.515
383.059	22.737	799.272	625.400
384.073	22.760	798.983	625.199
385.088	22.711	798.679	624.734
386.102	22.812	798.076	624.564
387.117	22.454	797.560	622.839
388.132	22.457	796.669	622.099
389.146	22.331	796.085	621.143
390.161	21.821	795.092	618.516
391.175	21.866	794.728	618.336
392.190	22.366	795.131	620.357
393.205	22.431	794.237	619.835
394.219	21.462	792.653	615.137
395.234	20.003	790.222	608.077
396.248	19.338	789.284	604.970
397.263	20.279	790.385	609.064
398.278	22.103	791.560	616.322
399.292	22.641	790.912	617.648
400.307	22.139	790.888	615.813
401.321	22.120	790.373	615.293
402.336	22.253	789.858	615.303
403.350	22.644	789.674	616.471
404.365	22.913	789.304	617.069
405.380	23.157	789.577	618.081
406.394	23.508	788.857	618.687
407.409	23.529	788.922	618.755
408.423	23.275	788.832	617.743
409.438	23.339	787.788	617.096
410.453	23.373	787.401	616.854
411.467	23.486	786.994	616.875
412.482	23.306	786.641	615.919
413.496	23.280	785.968	615.245
414.511	23.536	785.585	615.781
415.526	23.447	785.244	615.150
416.540	23.381	784.850	614.558
417.555	23.296	784.384	613.843
418.569	22.938	783.789	612.085
419.584	22.869	783.115	611.264
420.599	23.094	782.631	611.612
421.613	157.540	1364.225	1798.261
422.628	136.180	1448.975	1798.363
