DTS Sentinel unit serial number:	SN413079Multiplexer serial number:	ORYXHardware model number:	OX4-SRSoftware version number:	ORYX F/W v4.00 Oryx Data Collector v3.7.2.0data status	okinstallation	princeton_trtdifferential loss correction	single-endedforward channel	channel 3reverse channel	N/Adate	2019/09/11time	23:18:11forward acquisition time	60.00reverse acquisition time	0.00gamma	496.2192k internal	0.2317k external	0.2317temperature offset calibration	1.0051default loss term (dB/km)	0.3790temperature slope calibration	1.0000multiplexer offset coefficient	1.0000multiplexer slope coefficient	1.0000fibre end	0.00T internal ref (°C)	34.37T ext. ref 1 (°C)	1.87T ext. ref 2 (°C)	28.88length (m)	temperature (°C)	Stokes	anti-Stokes-747.200	-135.122	0.165	-0.020
-746.185	405.337	-0.109	0.232
-745.171	50.537	0.122	-0.117
-744.156	-200.000	0.032	0.626
-743.142	-200.000	0.050	0.232
-742.127	-94.795	-0.453	0.124
-741.112	-155.490	-0.141	0.009
-740.098	800.000	0.038	0.148
-739.083	800.000	0.009	-0.034
-738.069	-51.650	0.198	-0.094
-737.054	380.088	-0.142	0.294
-736.039	-165.230	-0.444	-0.020
-735.025	-7.531	-0.182	0.125
-734.010	-82.856	0.223	-0.073
-732.996	23.053	-0.247	-0.205
-731.981	34.092	-0.190	-0.168
-730.966	-200.000	-0.000	0.020
-729.952	14.965	0.017	-0.014
-728.937	-92.504	-0.211	0.060
-727.923	497.211	-0.061	0.142
-726.908	89.776	0.068	0.077
-725.894	800.000	0.106	0.441
-724.879	84.407	-0.241	0.267
-723.864	102.347	-0.125	-0.148
-722.850	-142.370	-0.424	-0.042
-721.835	140.906	0.137	-0.183
-720.821	-200.000	0.021	0.340
-719.806	-200.000	-0.064	-0.343
-718.791	304.856	-0.053	-0.099
-717.777	-67.640	-0.275	-0.109
-716.762	45.867	-0.054	0.051
-715.748	178.445	0.148	-0.218
-714.733	-64.570	0.187	-0.077
-713.718	-115.005	-0.128	0.025
-712.704	-156.367	0.171	-0.011
-711.689	-200.000	-0.108	-0.528
-710.675	-56.161	0.255	-0.115
-709.660	619.203	0.055	0.140
-708.645	150.067	0.267	-0.367
-707.631	-62.402	0.600	0.252
-706.616	120.775	-0.176	-0.221
-705.602	211.522	0.207	-0.330
-704.587	-93.996	-0.231	-0.064
-703.572	-35.497	0.176	-0.097
-702.558	-151.333	-0.116	-0.009
-701.543	-3.077	-0.100	0.070
-700.529	800.000	0.032	-0.108
-699.514	-200.000	0.013	-0.161
-698.499	-200.000	0.010	-0.240
-697.485	328.910	-0.099	-0.192
-696.470	437.983	0.226	0.498
-695.456	-200.000	0.002	-0.156
-694.441	43.554	-0.101	-0.093
-693.426	-200.000	0.042	-0.511
-692.412	-200.000	0.046	0.314
-691.397	-29.111	0.078	0.045
-690.383	-127.348	-0.259	-0.038
-689.368	-8.530	-0.179	-0.122
-688.354	-62.426	-0.365	0.153
-687.339	399.759	-0.199	-0.421
-686.324	-45.237	-0.228	0.115
-685.310	151.111	-0.195	0.267
-684.295	2.436	-0.059	-0.043
-683.281	631.082	0.046	-0.118
-682.266	63.840	-0.062	-0.063
-681.251	40.016	-0.220	-0.200
-680.237	-120.527	0.105	0.018
-679.222	-200.000	0.035	0.309
-678.208	57.236	0.201	-0.198
-677.193	308.074	0.180	-0.339
-676.178	-116.299	0.162	-0.030
-675.164	-36.313	0.242	-0.132
-674.149	7.033	0.204	0.153
-673.135	-200.000	0.046	0.307
-672.120	289.790	0.164	0.300
-671.105	-19.589	0.282	0.176
-670.091	-99.548	0.264	0.067
-669.076	18.119	0.189	0.152
-668.062	-73.400	-0.342	-0.126
-667.047	31.047	-0.227	0.197
-666.032	-82.759	0.243	-0.079
-665.018	-61.779	-0.467	-0.197
-664.003	-58.248	-0.212	-0.093
-662.989	-106.048	0.329	0.075
-661.974	-46.141	-0.192	-0.095
-660.959	-154.561	-0.430	0.029
-659.945	800.000	0.065	-0.210
-658.930	173.030	-0.169	0.246
-657.916	-75.823	-0.236	-0.084
-656.901	-164.717	0.168	-0.008
-655.886	800.000	-0.067	-0.247
-654.872	-25.737	0.105	0.062
-653.857	-200.000	0.058	-0.396
-652.843	-3.734	0.286	-0.201
-651.828	47.533	0.091	0.086
-650.814	-25.332	0.177	0.106
-649.799	-67.178	0.071	-0.028
-648.784	268.033	-0.111	0.197
-647.770	34.633	-0.330	-0.291
-646.755	-34.838	-0.098	0.054
-645.741	-184.058	0.212	0.004
-644.726	4.524	-0.169	-0.125
-643.711	44.544	0.186	-0.172
-642.697	-30.919	0.154	0.088
-641.682	53.344	0.083	-0.080
-640.668	187.634	0.060	-0.091
-639.653	-200.000	0.027	-0.164
-638.638	-200.000	-0.048	-0.362
-637.624	-200.000	0.040	-0.407
-636.609	-200.000	0.073	0.456
-635.595	-77.436	0.431	0.151
-634.580	63.044	0.102	-0.103
-633.565	-200.000	-0.030	-0.139
-632.551	72.379	-0.220	0.231
-631.536	-200.000	-0.005	-0.217
-630.522	380.292	-0.089	0.184
-629.507	-139.841	-0.251	0.027
-628.492	-200.000	-0.027	0.373
-627.478	73.649	-0.078	0.082
-626.463	800.000	-0.086	0.256
-625.449	578.669	0.078	0.191
-624.434	-200.000	-0.003	0.025
-623.419	113.146	0.146	-0.179
-622.405	137.281	0.199	0.262
-621.390	94.446	0.170	0.194
-620.376	417.406	-0.056	-0.121
-619.361	-46.596	-0.170	-0.084
-618.346	135.538	-0.178	-0.233
-617.332	48.856	-0.092	-0.087
-616.317	-6.774	0.087	0.060
-615.303	63.737	-0.226	-0.229
-614.288	101.843	0.070	0.082
-613.273	-58.999	0.341	0.148
-612.259	356.165	-0.087	-0.175
-611.244	571.286	0.104	-0.255
-610.230	-49.142	-0.233	0.112
-609.215	287.663	-0.083	-0.152
-608.201	800.000	-0.025	-0.102
-607.186	96.162	-0.077	-0.088
-606.171	-67.354	-0.248	-0.098
-605.157	258.488	-0.228	0.396
-604.142	-102.457	-0.167	-0.040
-603.128	-200.000	0.012	-0.109
-602.113	156.022	0.248	-0.345
-601.098	-112.268	-0.278	0.056
-600.084	-118.899	0.370	-0.066
-599.069	6.773	-0.162	0.122
-598.055	35.699	0.139	0.123
-597.040	-163.534	-0.252	0.012
-596.025	-151.272	-0.234	-0.018
-595.011	-38.286	0.166	0.089
-593.996	-3.550	0.202	-0.142
-592.982	-200.000	-0.004	0.087
-591.967	462.162	0.075	0.170
-590.952	43.856	0.204	-0.188
-589.938	-200.000	-0.021	0.423
-588.923	51.735	0.088	0.085
-587.909	68.100	-0.075	0.077
-586.894	-200.000	-0.002	0.116
-585.879	800.000	-0.087	-0.290
-584.865	800.000	0.077	-0.291
-583.850	-81.938	-0.068	-0.022
-582.836	78.242	-0.155	-0.166
-581.821	-152.369	0.278	-0.020
-580.806	-104.679	-0.222	-0.051
-579.792	-7.778	-0.381	-0.259
-578.777	-132.362	0.121	-0.016
-577.763	38.773	0.050	-0.045
-576.748	-200.000	-0.042	0.203
-575.733	-200.000	-0.009	-0.069
-574.719	-118.389	-0.194	0.035
-573.704	-98.579	-0.156	-0.040
-572.690	29.205	0.173	-0.148
-571.675	76.583	-0.127	-0.135
-570.661	155.906	-0.107	0.149
-569.646	-200.000	0.031	-0.181
-568.631	93.345	-0.217	-0.246
-567.617	564.301	0.152	-0.371
-566.602	-33.951	0.149	0.083
-565.588	800.000	0.020	0.063
-564.573	-170.093	-0.174	-0.006
-563.558	-82.686	0.026	0.008
-562.544	-200.000	0.017	-0.084
-561.529	601.887	0.027	0.069
-560.515	-190.363	0.028	0.000
-559.500	-93.507	0.034	-0.009
-558.485	55.785	0.182	0.178
-557.471	-200.000	0.075	-0.333
-556.456	-200.000	0.056	-0.358
-555.442	-14.259	-0.069	0.044
-554.427	22.244	0.283	-0.232
-553.412	-49.829	0.300	-0.143
-552.398	-55.974	-0.201	0.090
-551.383	16.658	0.042	-0.033
-550.369	205.797	-0.174	0.271
-549.354	448.980	-0.099	0.219
-548.339	55.680	-0.184	-0.179
-547.325	139.746	-0.015	-0.019
-546.310	58.022	0.144	-0.142
-545.296	-69.905	-0.242	-0.093
-544.281	-94.404	-0.317	0.087
-543.266	800.000	-0.102	0.337
-542.252	112.507	0.030	-0.036
-541.237	578.000	-0.195	-0.480
-540.223	-144.117	-0.185	0.017
-539.208	-200.000	0.095	-0.000
-538.193	-200.000	-0.042	-0.243
-537.179	74.945	0.270	-0.286
-536.164	800.000	0.129	0.415
-535.150	100.443	0.123	0.143
-534.135	-132.548	0.502	-0.065
-533.121	-135.035	-0.068	-0.008
-532.106	-29.857	-0.179	-0.102
-531.091	-45.400	0.388	0.193
-530.077	-200.000	-0.046	0.514
-529.062	-20.423	-0.083	-0.052
-528.048	800.000	0.080	-0.288
-527.033	-200.000	-0.005	0.108
-526.018	800.000	0.054	0.182
-525.004	324.720	0.169	-0.325
-523.989	-141.292	0.424	-0.043
-522.975	800.000	0.031	-0.137
-521.960	96.301	0.124	0.142
-520.945	102.400	0.105	0.123
-519.931	-200.000	0.012	0.057
-518.916	-6.229	-0.125	-0.086
-517.902	-176.087	-0.078	-0.002
-516.887	-10.212	-0.124	0.083
-515.872	-117.574	0.217	0.039
-514.858	-200.000	-0.069	-0.616
-513.843	-200.000	-0.015	-0.234
-512.829	-128.170	0.104	-0.015
-511.814	-19.513	0.145	-0.090
-510.799	-70.038	-0.402	-0.154
-509.785	-117.458	-0.183	-0.033
-508.770	9.399	0.329	-0.249
-507.756	58.354	0.096	0.094
-506.741	-79.777	-0.122	0.041
-505.726	79.009	-0.163	-0.175
-504.712	-15.325	0.241	0.155
-503.697	252.833	0.101	-0.172
-502.683	110.414	-0.145	0.175
-501.668	800.000	0.057	-0.209
-500.653	98.839	-0.321	-0.372
-499.639	800.000	-0.091	-0.265
-498.624	189.110	-0.158	0.237
-497.610	-105.487	-0.179	0.041
-496.595	534.208	0.073	-0.174
-495.581	-200.000	-0.026	0.155
-494.566	331.202	-0.152	0.294
-493.551	-37.674	0.208	0.111
-492.537	-200.000	-0.050	-0.301
-491.522	800.000	-0.078	-0.246
-490.508	-200.000	-0.019	0.186
-489.493	75.883	0.068	-0.072
-488.478	-157.333	-0.148	0.009
-487.464	-78.049	0.070	0.024
-486.449	24.633	-0.176	-0.146
-485.435	-3.944	0.206	0.143
-484.420	-75.043	0.190	-0.068
-483.405	800.000	0.074	0.291
-482.391	303.609	-0.175	0.325
-481.376	56.641	0.178	-0.173
-480.362	71.868	-0.183	0.191
-479.347	81.242	-0.225	0.244
-478.332	-8.405	0.097	-0.065
-477.318	-134.788	-0.067	-0.008
-476.303	-200.000	-0.196	0.001
-475.289	81.974	-0.313	0.339
-474.274	19.156	0.071	-0.057
-473.259	626.516	-0.114	0.287
-472.245	-17.808	0.135	0.085
-471.230	311.932	-0.251	0.471
-470.216	31.603	-0.154	-0.132
-469.201	587.112	0.183	0.451
-468.186	-10.381	-0.273	-0.181
-467.172	-178.055	-0.224	-0.005
-466.157	-49.369	0.082	0.039
-465.143	-20.221	-0.177	0.109
-464.128	57.080	0.195	0.191
-463.113	-200.000	0.015	-0.194
-462.099	800.000	0.032	-0.091
-461.084	-5.752	-0.104	-0.071
-460.070	800.000	0.081	0.337
-459.055	53.492	-0.284	-0.273
-458.040	800.000	0.030	-0.090
-457.026	-13.152	0.079	0.051
-456.011	500.285	-0.103	0.237
-454.997	800.000	-0.025	-0.095
-453.982	-200.000	0.018	0.107
-452.968	-136.848	-0.173	-0.020
-451.953	557.164	0.028	0.067
-450.938	24.739	-0.242	0.201
-449.924	-109.108	0.124	-0.027
-448.909	-38.304	-0.165	-0.088
-447.895	15.927	-0.235	-0.185
-446.880	0.203	-0.206	-0.147
-445.865	-33.296	0.341	0.189
-444.851	-27.692	-0.220	-0.128
-443.836	111.497	-0.260	0.313
-442.822	73.303	0.204	-0.213
-441.807	-72.626	-0.129	0.048
-440.792	144.158	-0.056	0.075
-439.778	800.000	-0.054	0.224
-438.763	38.898	-0.212	0.189
-437.749	-94.295	0.359	-0.098
-436.734	-200.000	-0.020	-0.183
-435.719	-200.000	0.045	-0.222
-434.705	380.188	-0.165	-0.338
-433.690	-82.048	0.276	0.090
-432.676	-74.693	0.227	0.082
-431.661	138.267	-0.163	0.214
-430.646	6.132	0.147	-0.109
-429.632	35.180	0.134	-0.117
-428.617	746.237	-0.052	-0.140
-427.603	657.115	0.126	-0.324
-426.588	23.631	-0.077	-0.063
-425.573	29.551	-0.097	0.083
-424.559	-89.335	-0.067	-0.020
-423.544	-199.290	-0.300	-0.002
-422.530	46.845	-0.114	0.106
-421.515	-111.338	0.405	-0.083
-420.500	-200.000	0.006	-0.368
-419.486	51.768	-0.290	-0.276
-418.471	473.839	-0.036	0.080
-417.457	411.161	0.015	0.032
-416.442	800.000	0.051	0.170
-415.428	246.431	-0.160	0.269
-414.413	-12.558	0.338	0.221
-413.398	800.000	-0.120	0.399
-412.384	31.377	0.220	0.189
-411.369	-200.000	-0.021	0.153
-410.355	52.441	-0.124	0.118
-409.340	113.071	0.203	-0.246
-408.325	-171.163	0.237	-0.008
-407.311	-200.000	0.040	-0.300
-406.296	63.363	-0.161	-0.162
-405.282	-200.000	0.013	-0.348
-404.267	-89.185	0.154	0.045
-403.252	-84.518	0.182	0.057
-402.238	4.751	0.161	-0.118
-401.223	-200.000	-0.013	-0.244
-400.209	249.513	-0.039	0.066
-399.194	-149.469	0.305	-0.024
-398.179	800.000	-0.091	0.302
-397.165	800.000	0.028	-0.109
-396.150	-200.000	0.034	-0.254
-395.136	-111.729	-0.322	-0.065
-394.121	-43.843	-0.253	-0.127
-393.106	359.823	0.028	-0.057
-392.092	475.765	0.057	0.128
-391.077	-200.000	-0.039	0.200
-390.063	150.686	-0.075	0.102
-389.048	-19.350	0.129	-0.080
-388.033	47.550	0.197	0.183
-387.019	-150.127	-0.363	-0.028
-386.004	95.734	-0.066	0.076
-384.990	338.661	0.084	0.164
-383.975	-40.046	-0.499	-0.260
-382.960	800.000	0.093	-0.262
-381.946	-5.694	0.100	0.068
-380.931	-200.000	0.019	0.457
-379.917	800.000	0.089	-0.377
-378.902	800.000	0.079	0.241
-377.888	-121.743	0.164	0.027
-376.873	-113.329	-0.329	-0.064
-375.858	-52.828	0.097	0.045
-374.844	617.634	0.059	-0.148
-373.829	-86.420	-0.207	-0.064
-372.815	-57.869	0.248	0.108
-371.800	33.420	-0.106	0.092
-370.785	129.498	-0.131	0.167
-369.771	170.440	0.109	0.156
-368.756	130.149	0.186	-0.237
-367.742	-200.000	-0.002	0.113
-366.727	-39.816	-0.190	0.099
-365.712	500.656	0.064	-0.148
-364.698	-69.195	0.271	0.104
-363.683	-106.575	-0.222	0.049
-362.669	268.566	-0.076	-0.133
-361.654	189.574	-0.154	-0.230
-360.639	81.467	-0.173	-0.187
-359.625	-149.988	0.210	-0.016
-358.610	-7.716	0.116	-0.078
-357.596	-1.341	0.004	-0.003
-356.581	800.000	0.070	-0.200
-355.566	800.000	0.059	-0.175
-354.552	-200.000	0.073	0.730
-353.537	800.000	0.095	0.352
-352.523	334.151	-0.128	-0.247
-351.508	-200.000	-0.001	0.025
-350.493	32.441	-0.140	-0.121
-349.479	-19.540	-0.166	0.102
-348.464	800.000	0.029	-0.102
-347.450	-200.000	-0.003	-0.094
-346.435	-87.739	0.239	-0.072
-345.420	-114.081	-0.177	-0.034
-344.406	131.784	-0.123	-0.157
-343.391	6.515	0.305	-0.226
-342.377	-155.100	-0.095	-0.006
-341.362	800.000	-0.061	0.226
-340.348	248.703	-0.116	0.195
-339.333	-200.000	-0.011	-0.149
-338.318	85.703	-0.145	0.159
-337.304	-200.000	-0.004	0.048
-336.289	109.877	0.062	-0.074
-335.275	227.501	0.062	-0.100
-334.260	800.000	0.015	-0.042
-333.245	-88.993	0.286	0.084
-332.231	173.235	0.120	0.172
-331.216	82.255	-0.119	0.128
-330.202	-110.148	-0.110	0.023
-329.187	223.922	0.068	-0.109
-328.172	-71.792	-0.087	-0.032
-327.158	-200.000	0.053	-0.265
-326.143	564.114	-0.143	0.345
-325.129	-33.449	0.093	0.051
-324.114	-135.513	-0.142	0.017
-323.099	-200.000	-0.059	-0.261
-322.085	-200.000	0.054	0.306
-321.070	29.543	0.121	0.102
-320.056	-70.924	-0.082	-0.031
-319.041	261.043	-0.131	-0.226
-318.026	576.254	-0.141	-0.343
-317.012	343.168	-0.051	0.100
-315.997	-71.388	-0.153	0.057
-314.983	-200.000	0.056	-0.318
-313.968	-124.315	-0.127	0.020
-312.953	125.312	0.154	0.193
-311.939	-111.444	-0.250	0.051
-310.924	-120.122	0.080	-0.014
-309.910	619.360	-0.145	-0.362
-308.895	-200.000	0.017	0.094
-307.880	-28.580	0.206	0.118
-306.866	-123.874	0.197	0.031
-305.851	156.585	0.061	-0.084
-304.837	-200.000	-0.018	0.125
-303.822	-200.000	0.022	0.095
-302.807	-59.920	-0.056	0.024
-301.793	14.428	0.233	-0.181
-300.778	39.538	-0.271	-0.242
-299.764	800.000	-0.050	-0.140
-298.749	-80.635	0.121	0.040
-297.735	800.000	-0.083	0.269
-296.720	24.914	0.193	0.159
-295.705	-59.042	-0.070	-0.030
-294.691	-200.000	-0.014	-0.132
-293.676	800.000	0.086	0.329
-292.662	-200.000	-0.003	0.117
-291.647	62.034	0.133	-0.132
-290.632	-52.059	0.251	-0.116
-289.618	-129.799	-0.220	-0.030
-288.603	-117.942	-0.142	0.025
-287.589	-130.247	0.154	-0.021
-286.574	-64.735	0.204	0.082
-285.559	-200.000	0.020	0.170
-284.545	-200.000	-0.025	0.294
-283.530	-112.265	0.232	0.046
-282.516	-149.527	-0.106	0.008
-281.501	800.000	-0.031	0.110
-280.486	118.441	-0.080	0.098
-279.472	227.530	0.171	0.277
-278.457	58.422	-0.184	0.180
-277.443	109.416	-0.111	-0.132
-276.428	800.000	-0.064	0.213
-275.413	-200.000	-0.028	-0.243
-274.399	800.000	-0.090	-0.301
-273.384	122.226	-0.223	0.277
-272.370	-51.516	0.125	0.058
-271.355	345.120	-0.048	0.095
-270.340	118.948	0.086	-0.106
-269.326	-81.203	0.147	-0.048
-268.311	-200.000	-0.038	0.191
-267.297	89.794	0.221	0.245
-266.282	-165.444	-0.164	-0.007
-265.267	519.707	-0.053	-0.123
-264.253	-200.000	0.044	-0.282
-263.238	-200.000	0.034	0.333
-262.224	61.797	0.178	0.176
-261.209	40.594	-0.048	0.043
-260.195	-126.172	0.317	-0.047
-259.180	-11.064	0.501	0.329
-258.165	800.000	0.107	0.322
-257.151	78.356	0.273	0.290
-256.136	-30.470	0.189	0.107
-255.122	6.363	-0.202	-0.149
-254.107	619.254	-0.147	0.367
-253.092	-128.288	-0.236	0.033
-252.078	116.774	-0.063	-0.076
-251.063	384.113	0.031	-0.064
-250.049	-28.940	0.138	0.078
-249.034	-200.000	0.045	-0.474
-248.019	14.972	-0.148	-0.115
-247.005	-200.000	-0.047	-0.208
-245.990	98.866	-0.097	0.111
-244.976	-59.322	0.171	0.073
-243.961	187.580	-0.184	-0.273
-242.946	17.547	0.234	0.185
-241.932	-95.741	-0.198	-0.053
-240.917	294.363	-0.056	0.101
-239.903	121.360	-0.199	0.246
-238.888	81.044	-0.224	0.240
-237.873	591.927	-0.036	0.088
-236.859	551.909	0.065	0.156
-235.844	623.091	-0.090	0.225
-234.830	800.000	-0.033	0.122
-233.815	-100.528	0.189	0.046
-232.800	-9.764	-0.120	-0.080
-231.786	-75.848	-0.127	-0.045
-230.771	185.987	0.160	0.236
-229.757	-172.864	-0.346	0.011
-228.742	111.734	0.147	-0.176
-227.727	-200.000	0.367	0.000
-226.713	-62.188	-0.070	-0.029
-225.698	-152.370	0.216	-0.015
-224.684	-56.523	0.198	-0.087
-223.669	112.269	-0.095	-0.114
-222.655	119.455	0.203	0.250
-221.640	-87.548	0.129	-0.039
-220.625	60.251	0.180	0.177
-219.611	-1.557	-0.151	-0.105
-218.596	51.131	-0.197	-0.185
-217.582	-200.000	0.036	-0.238
-216.567	800.000	0.073	-0.242
-215.552	36.685	-0.075	-0.066
-214.538	17.318	-0.052	-0.041
-213.523	800.000	0.082	0.299
-212.509	-18.365	0.026	-0.016
-211.494	-200.000	-0.018	0.152
-210.479	-200.000	0.007	-0.218
-209.465	-167.930	0.141	0.005
-208.450	-7.031	-0.136	-0.092
-207.436	251.584	0.048	-0.082
-206.421	137.154	-0.210	-0.272
-205.406	245.935	-0.181	-0.303
-204.392	-140.895	0.271	0.028
-203.377	2.223	0.344	0.246
-202.363	-82.269	0.313	-0.101
-201.348	125.347	0.168	0.210
-200.333	4.657	0.110	-0.080
-199.319	-87.118	0.408	0.123
-198.304	800.000	0.045	0.162
-197.290	100.706	0.026	-0.030
-196.275	300.552	-0.104	-0.190
-195.260	265.307	-0.105	0.182
-194.246	437.344	-0.064	-0.138
-193.231	28.548	0.376	0.316
-192.217	210.136	0.093	-0.145
-191.202	-41.995	-0.076	0.038
-190.187	-130.517	0.059	0.008
-189.173	123.114	0.175	0.217
-188.158	337.068	0.093	0.178
-187.144	74.744	-0.213	-0.222
-186.129	-17.990	0.080	0.050
-185.114	-20.200	0.063	-0.039
-184.100	-200.000	-0.014	-0.283
-183.085	-186.010	0.212	-0.003
-182.071	-20.004	-0.157	-0.096
-181.056	-32.811	0.307	-0.169
-180.042	69.099	0.067	0.069
-179.027	-88.447	-0.138	0.041
-178.012	800.000	-0.075	0.257
-176.998	92.016	0.137	-0.153
-175.983	304.643	-0.060	-0.110
-174.969	800.000	0.090	-0.390
-173.954	43.566	0.204	0.185
-172.939	383.612	0.059	0.120
-171.925	-186.573	-0.024	0.000
-170.910	-4.035	-0.330	-0.227
-169.896	-200.000	-0.019	-0.109
-168.881	-200.000	-0.021	0.186
-167.866	-55.154	0.472	0.210
-166.852	639.475	0.048	0.120
-165.837	-55.571	0.153	-0.068
-164.823	121.831	-0.226	-0.279
-163.808	300.329	-0.096	-0.176
-162.793	800.000	-0.044	-0.138
-161.779	34.343	-0.179	-0.154
-160.764	-68.312	-0.232	0.089
-159.750	800.000	-0.124	0.403
-158.735	-200.000	0.099	0.568
-157.720	-118.548	0.038	0.007
-156.706	153.919	-0.135	0.184
-155.691	633.303	-0.061	0.153
-154.677	125.729	0.063	-0.078
-153.662	-14.906	-0.133	0.084
-152.647	-78.509	-0.066	-0.022
-151.633	800.000	-0.082	-0.265
-150.618	-155.208	0.428	0.028
-149.604	102.551	0.148	0.172
-148.589	45.795	0.215	-0.197
-147.574	-47.242	-0.084	0.040
-146.560	-76.804	-0.246	-0.085
-145.545	-31.091	-0.189	0.105
-144.531	25.017	0.106	-0.087
-143.516	-200.000	0.008	-0.155
-142.502	-58.955	-0.307	-0.131
-141.487	800.000	0.053	-0.184
-140.472	-115.476	0.241	0.045
-139.458	-154.977	0.081	-0.005
-138.443	-200.000	0.003	-0.101
-137.429	-18.354	-0.245	0.151
-136.414	61.070	0.045	-0.044
-135.399	-18.914	-0.272	0.168
-134.385	588.116	0.075	-0.182
-133.370	-55.262	0.255	-0.113
-132.356	-166.985	0.278	-0.011
-131.341	-50.681	-0.083	-0.039
-130.326	12.862	0.407	-0.311
-129.312	800.000	-0.018	0.060
-128.297	168.189	-0.336	0.473
-127.283	-200.000	-0.015	-0.065
-126.268	-111.686	0.221	0.044
-125.253	78.766	-0.180	-0.191
-124.239	454.503	-0.114	-0.250
-123.224	-200.000	0.027	-0.314
-122.210	408.581	-0.096	-0.200
-121.195	-109.503	0.375	-0.078
-120.180	-50.920	0.335	0.155
-119.166	56.828	-0.199	-0.191
-118.151	-38.851	0.287	-0.149
-117.137	800.000	0.115	0.352
-116.122	800.000	0.150	0.440
-115.107	-66.767	-0.276	0.108
-114.093	-64.262	-0.079	-0.032
-113.078	47.043	-0.273	-0.251
-112.064	-116.237	-0.039	-0.007
-111.049	271.542	0.106	0.184
-110.034	304.288	-0.109	-0.200
-109.020	291.116	-0.042	-0.076
-108.005	423.662	0.042	0.090
-106.991	69.700	-0.122	-0.124
-105.976	245.370	-0.069	0.115
-104.962	-200.000	0.059	-0.382
-103.947	-84.146	0.162	-0.051
-102.932	-200.000	0.004	0.319
-101.918	19.894	-0.166	0.132
-100.903	-157.092	-0.367	-0.022
-99.889	480.738	0.065	-0.147
-98.874	-200.000	-0.011	-0.082
-97.859	-71.449	0.281	0.104
-96.845	287.720	-0.078	-0.140
-95.830	-200.000	-0.049	0.373
-94.816	525.309	-0.059	-0.138
-93.801	162.520	-0.202	0.279
-92.786	-109.061	-0.138	0.029
-91.772	338.036	0.048	0.092
-90.757	-200.000	0.009	0.084
-89.743	69.460	-0.023	0.024
-88.728	28.293	-0.254	-0.211
-87.713	-98.119	0.352	-0.089
-86.699	-114.946	-0.162	-0.030
-85.684	-41.140	-0.437	-0.223
-84.670	-184.746	0.166	-0.003
-83.655	800.000	-0.052	0.163
-82.640	-200.000	0.039	-0.216
-81.626	-23.507	-0.202	-0.120
-80.611	93.633	0.311	-0.348
-79.597	40.295	-0.105	0.093
-78.582	-51.689	-0.260	0.119
-77.567	125.323	0.065	0.081
-76.553	7.970	0.089	-0.066
-75.538	-86.047	-0.116	0.035
-74.524	800.000	0.063	0.235
-73.509	32.527	0.105	0.089
-72.494	-18.035	-0.036	0.022
-71.480	-47.037	-0.179	-0.086
-70.465	-200.000	-0.034	-0.214
-69.451	-200.000	-0.009	-0.221
-68.436	-119.618	0.260	-0.044
-67.422	-39.229	0.138	-0.071
-66.407	-3.036	0.039	-0.027
-65.392	623.706	0.044	0.109
-64.378	-200.000	0.006	-0.249
-63.363	165.633	0.208	-0.290
-62.349	-55.975	0.197	0.087
-61.334	70.987	-1.034	-1.056
-60.319	183.661	0.291	0.424
-59.305	-200.000	-0.134	-0.972
-58.290	192.239	0.536	0.796
-57.276	393.147	0.735	1.508
-56.261	-200.000	98.612	587.842
-55.246	549.140	1393.056	3290.565
-54.232	153.438	2588.942	3493.843
-53.217	113.057	2176.830	2601.161
-52.203	44.708	1713.879	1553.526
-51.188	37.417	1526.481	1333.816
-50.173	35.066	1499.233	1294.085
-49.159	54.945	1550.939	1475.827
-48.144	58.336	1569.814	1517.018
-47.130	37.843	1525.036	1335.257
-46.115	34.654	1509.245	1299.713
-45.100	34.493	1506.027	1295.797
-44.086	34.451	1504.135	1293.836
-43.071	34.347	1502.629	1291.783
-42.057	34.379	1500.858	1290.427
-41.042	34.398	1499.333	1289.189
-40.027	34.402	1497.266	1287.388
-39.013	34.334	1496.140	1285.913
-37.998	34.285	1494.960	1284.514
-36.984	34.356	1493.965	1284.090
-35.969	34.442	1492.256	1283.147
-34.954	34.266	1491.652	1281.391
-33.940	34.348	1489.668	1280.188
-32.925	34.346	1488.614	1279.218
-31.911	34.341	1486.879	1277.644
-30.896	34.459	1486.165	1277.767
-29.881	34.509	1483.946	1276.148
-28.867	34.464	1482.751	1274.769
-27.852	34.483	1481.390	1273.676
-26.838	34.417	1480.238	1272.190
-25.823	34.369	1479.216	1270.944
-24.809	34.412	1477.310	1269.544
-23.794	34.376	1475.681	1267.855
-22.779	34.329	1474.541	1266.511
-21.765	34.427	1473.563	1266.268
-20.750	34.568	1472.133	1265.925
-19.736	34.441	1471.353	1264.363
-18.721	34.372	1470.462	1263.093
-17.706	34.479	1469.144	1262.616
-16.692	34.383	1468.121	1261.055
-15.677	34.421	1467.370	1260.608
-14.663	34.389	1466.181	1259.325
-13.648	34.274	1465.528	1257.952
-12.633	34.301	1464.345	1257.069
-11.619	34.344	1463.494	1256.572
-10.604	34.333	1462.609	1255.692
-9.590	34.343	1461.490	1254.743
-8.575	34.330	1461.253	1254.402
-7.560	34.332	1460.285	1253.539
-6.546	34.395	1459.371	1253.118
-5.531	34.331	1458.367	1251.784
-4.517	34.297	1457.810	1251.032
-3.502	34.318	1456.464	1249.966
-2.487	34.382	1455.302	1249.341
-1.473	34.326	1454.000	1247.803
-0.458	34.293	1453.216	1246.869
0.556	34.455	1443.682	1235.304
1.571	31.587	1417.845	1194.807
2.586	28.094	1357.574	1122.520
3.600	26.463	1276.661	1046.103
4.615	24.880	1229.944	998.905
5.629	21.085	1172.475	931.916
6.644	11.175	1085.539	813.492
7.659	3.186	1042.636	742.829
8.673	2.074	1036.744	733.228
9.688	1.857	1033.610	729.908
10.702	1.711	1032.275	728.199
11.717	1.848	1029.858	727.086
12.731	5.395	1034.594	747.341
13.746	15.353	1049.039	805.760
14.761	22.901	1058.502	849.402
15.775	24.695	1060.469	859.537
16.790	24.865	1059.974	859.877
17.804	24.830	1058.938	858.791
18.819	24.712	1057.852	857.269
19.834	24.638	1057.825	856.819
20.848	24.891	1057.106	857.373
21.863	24.909	1056.671	857.027
22.877	24.963	1056.289	856.902
23.892	24.920	1055.525	856.003
24.907	24.919	1054.639	855.200
25.921	24.748	1054.415	854.129
26.936	24.892	1053.486	853.986
27.950	24.825	1052.238	852.581
28.965	24.695	1051.332	851.153
29.980	24.629	1049.801	849.522
30.994	24.648	1048.561	848.535
32.009	24.838	1047.847	848.784
33.023	24.931	1046.911	848.390
34.038	24.806	1045.599	846.663
35.053	24.675	1045.387	845.792
36.067	24.893	1044.728	846.216
37.082	24.858	1044.166	845.522
38.096	24.896	1043.046	844.718
39.111	25.086	1042.244	844.890
40.126	25.092	1041.766	844.455
41.140	25.048	1040.603	843.230
42.155	24.815	1038.888	840.675
43.169	24.537	1037.758	838.380
44.184	24.513	1036.595	837.253
45.199	24.430	1036.126	836.411
46.213	24.512	1034.731	835.596
47.228	24.405	1034.019	834.447
48.242	24.655	1033.410	835.050
49.257	24.648	1033.027	834.631
50.271	24.774	1031.883	834.224
51.286	24.841	1031.174	833.886
52.301	24.911	1030.346	833.469
53.315	24.888	1029.784	832.835
54.330	24.934	1028.829	832.200
55.344	24.861	1028.172	831.258
56.359	24.743	1027.715	830.270
57.374	24.733	1026.770	829.385
58.388	24.629	1025.783	828.030
59.403	24.623	1024.633	827.001
60.417	24.508	1024.185	826.034
61.432	24.474	1023.096	824.928
62.447	24.489	1022.839	824.716
63.461	24.637	1022.045	824.686
64.476	24.648	1021.580	824.289
65.490	24.555	1020.651	823.038
66.505	24.429	1019.788	821.689
67.520	24.573	1018.965	821.617
68.534	24.575	1018.369	821.070
69.549	24.478	1016.916	819.381
70.563	24.096	1016.503	817.224
71.578	24.070	1015.160	815.952
72.593	24.149	1014.424	815.652
73.607	24.089	1013.040	814.193
74.622	23.938	1012.961	813.365
75.636	24.220	1012.104	813.893
76.651	24.386	1011.544	814.130
77.666	24.246	1010.854	812.862
78.680	24.270	1009.632	811.918
79.695	24.210	1008.876	810.964
80.709	24.331	1008.410	811.069
81.724	24.390	1007.564	810.583
82.739	24.387	1006.840	809.918
83.753	24.386	1006.119	809.261
84.768	24.613	1005.234	809.508
85.782	25.014	1004.924	811.002
86.797	25.142	1004.372	811.060
87.812	25.203	1003.013	810.169
88.826	24.962	1002.350	808.473
89.841	24.962	1001.625	807.816
90.855	25.116	1001.086	808.007
91.870	25.050	1000.117	806.853
92.884	25.059	999.380	806.228
93.899	25.007	998.296	805.050
94.914	24.886	997.495	803.788
95.928	24.970	996.908	803.623
96.943	25.048	996.103	803.250
97.957	24.766	994.596	800.701
98.972	24.597	993.241	798.786
99.987	24.418	992.297	797.157
101.001	24.575	991.972	797.524
102.016	24.802	991.603	798.172
103.030	24.756	990.733	797.194
104.045	24.667	989.794	795.970
105.060	24.611	988.240	794.404
106.074	24.471	987.383	793.024
107.089	24.488	986.320	792.173
108.103	24.691	986.596	793.225
109.118	24.793	985.539	792.759
110.133	24.604	984.001	790.615
111.147	24.390	983.691	789.349
112.162	24.475	981.843	788.174
113.176	24.343	980.320	786.298
114.191	24.292	980.172	785.883
115.206	24.457	979.882	786.310
116.220	24.193	978.661	784.098
117.235	24.254	977.284	783.196
118.249	24.176	977.205	782.720
119.264	24.283	976.243	782.348
120.279	24.085	975.403	780.738
121.293	24.151	974.608	780.320
122.308	24.276	974.190	780.464
123.322	24.252	973.448	779.695
124.337	23.994	972.548	777.780
125.352	24.129	970.586	776.731
126.366	23.827	969.262	774.288
127.381	23.485	967.720	771.501
128.395	23.936	967.931	773.563
129.410	24.477	967.597	775.576
130.424	24.618	967.164	775.773
131.439	24.652	965.942	774.871
132.454	24.846	964.498	774.486
133.468	24.772	964.028	773.720
134.483	24.684	963.589	772.917
135.497	24.606	963.020	772.056
136.512	24.769	962.446	772.231
137.527	24.931	961.716	772.276
138.541	24.863	961.064	771.391
139.556	24.998	960.106	771.133
140.570	24.975	959.484	770.470
141.585	24.956	958.411	769.454
142.600	25.091	957.695	769.393
143.614	25.037	956.493	768.128
144.629	25.069	956.253	768.005
145.643	25.360	955.416	768.508
146.658	25.180	954.642	767.048
147.673	24.798	953.184	764.178
148.687	25.007	952.297	764.290
149.702	24.966	950.589	762.678
150.716	24.755	949.934	761.188
151.731	24.659	949.085	760.033
152.746	24.866	948.296	760.213
153.760	24.921	947.948	760.100
154.775	25.102	947.592	760.515
155.789	25.177	946.397	759.804
156.804	25.109	945.493	758.723
157.819	25.087	944.506	757.772
158.833	25.038	943.792	756.927
159.848	25.324	943.090	757.503
160.862	25.315	942.324	756.782
161.877	25.097	941.189	754.886
162.892	24.992	940.644	753.940
163.906	25.091	939.662	753.505
164.921	25.207	938.612	753.082
165.935	25.104	937.646	751.807
166.950	25.237	936.592	751.453
167.964	25.105	935.980	750.342
168.979	25.208	934.674	749.660
169.994	25.101	933.629	748.310
171.008	24.923	932.264	746.409
172.023	25.055	932.171	746.817
173.037	25.154	931.407	746.549
174.052	25.133	930.145	745.385
175.067	24.921	929.512	743.933
176.081	24.862	928.493	742.805
177.096	24.921	927.871	742.486
178.110	24.889	927.233	741.778
179.125	24.731	926.036	740.101
180.140	24.409	925.024	737.897
181.154	24.542	923.998	737.560
182.169	24.610	924.333	738.043
183.183	24.744	923.822	738.125
184.198	25.085	923.009	738.816
185.213	25.077	922.565	738.363
186.227	25.068	921.846	737.684
187.242	25.073	921.532	737.389
188.256	25.124	920.865	736.996
189.271	25.275	920.111	736.949
190.286	25.222	919.451	736.139
191.300	25.085	918.351	734.633
192.315	24.543	917.102	731.348
193.329	23.729	915.744	726.869
194.344	23.452	914.266	724.501
195.359	24.024	914.697	727.116
196.373	24.832	914.982	730.581
197.388	25.040	915.040	731.412
198.402	24.973	914.320	730.496
199.417	25.144	913.416	730.406
200.432	25.107	913.259	730.066
201.446	25.047	912.319	729.004
202.461	24.667	911.341	726.614
203.475	24.521	911.753	726.283
204.490	24.142	909.877	723.188
205.504	22.924	907.530	716.322
206.519	23.498	907.470	718.537
207.534	24.482	907.784	722.712
208.548	24.670	907.105	722.865
209.563	25.009	906.953	724.049
210.577	25.012	906.332	723.503
211.592	24.700	905.651	721.636
212.607	25.110	905.618	723.201
213.621	25.278	904.806	723.163
214.636	25.107	904.314	722.019
215.650	25.236	903.868	722.120
216.665	25.015	903.322	720.728
217.680	25.115	902.517	720.427
218.694	25.202	902.290	720.528
219.709	24.877	901.119	718.225
220.723	24.466	900.021	715.641
221.738	24.760	899.570	716.398
222.753	25.084	899.215	717.346
223.767	25.043	898.300	716.390
224.782	24.956	898.068	715.792
225.796	25.226	897.484	716.342
226.811	25.383	896.629	716.224
227.826	24.851	895.661	713.267
228.840	24.077	894.254	709.001
229.855	24.020	893.375	708.015
230.869	24.319	892.738	708.637
231.884	23.923	892.359	706.700
232.899	23.888	891.931	706.162
233.913	24.694	891.980	709.337
234.928	24.929	891.287	709.654
235.942	24.855	890.476	708.653
236.957	24.825	890.282	708.316
237.972	24.674	889.029	706.660
238.986	24.434	888.861	705.514
240.001	24.538	888.079	705.244
241.015	24.444	887.639	704.459
242.030	24.791	886.413	704.794
243.045	25.001	886.097	705.304
244.059	24.991	885.663	704.859
245.074	25.064	885.156	704.678
246.088	25.128	884.538	704.375
247.103	24.623	883.813	701.755
248.117	24.790	883.319	701.957
249.132	25.226	883.271	703.565
250.147	25.699	882.794	704.976
251.161	25.712	882.365	704.620
252.176	26.015	881.483	705.038
253.190	25.781	881.064	703.730
254.205	25.788	881.089	703.712
255.220	26.082	880.455	704.293
256.234	26.116	879.208	703.365
257.249	25.925	878.864	702.284
258.263	25.801	878.222	701.226
259.278	25.880	877.529	700.916
260.293	25.900	877.347	700.787
261.307	26.004	876.737	700.644
262.322	25.787	876.490	699.539
263.336	25.771	875.468	698.600
264.351	25.268	874.023	695.438
265.366	24.207	871.910	689.589
266.380	23.708	871.450	687.237
267.395	24.558	871.714	690.672
268.409	25.431	871.723	693.993
269.424	25.523	870.796	693.545
270.439	25.557	870.663	693.511
271.453	25.608	869.788	692.950
272.468	25.681	869.432	692.884
273.482	25.834	868.969	693.042
274.497	26.022	868.403	693.253
275.512	25.671	867.600	691.201
276.526	25.277	866.079	688.418
277.541	25.324	865.707	688.244
278.555	25.789	865.590	689.868
279.570	25.492	865.190	688.354
280.585	25.375	864.144	687.014
281.599	25.569	863.488	687.172
282.614	25.663	863.260	687.290
283.628	25.189	862.248	684.612
284.643	24.817	861.413	682.471
285.657	25.154	861.632	683.870
286.672	25.119	860.763	682.987
287.687	24.493	860.177	680.079
288.701	25.026	859.471	681.487
289.716	25.289	859.256	682.255
290.730	24.938	858.542	680.297
291.745	24.762	857.605	678.826
292.760	24.841	856.404	678.113
293.774	24.567	856.393	677.006
294.789	25.473	857.195	681.014
295.803	26.102	856.754	682.988
296.818	26.103	856.206	682.493
297.833	26.237	855.982	682.761
298.847	26.032	854.540	680.778
299.862	25.667	853.438	678.461
300.876	25.967	853.016	679.196
301.891	26.135	852.917	679.691
302.906	26.222	852.617	679.719
303.920	25.778	851.285	676.929
304.935	25.713	850.567	676.055
305.949	26.203	850.376	677.683
306.964	26.376	849.794	677.805
307.979	25.964	849.354	675.849
308.993	25.757	848.902	674.658
310.008	26.092	848.688	675.680
311.022	26.317	848.121	676.010
312.037	26.258	847.658	675.362
313.052	25.960	846.730	673.449
314.066	25.916	845.599	672.326
315.081	25.131	844.882	668.770
316.095	24.448	843.308	664.922
317.110	24.948	843.616	666.968
318.125	25.852	843.868	670.476
319.139	25.417	842.679	667.855
320.154	24.275	841.011	662.232
321.168	23.874	840.168	660.022
322.183	24.483	840.492	662.480
323.197	25.495	840.896	666.495
324.212	25.826	840.545	667.383
325.227	25.848	840.308	667.215
326.241	26.006	839.762	667.308
327.256	26.010	838.980	666.645
328.270	25.839	838.527	665.595
329.285	25.770	837.738	664.651
330.300	25.676	836.917	663.596
331.314	25.199	836.449	661.409
332.329	25.395	835.358	661.210
333.343	25.871	835.241	662.807
334.358	25.992	835.629	663.504
335.373	26.110	834.340	662.854
336.387	26.177	834.186	662.921
337.402	26.361	833.666	663.124
338.416	26.394	833.629	663.155
339.431	26.474	832.770	662.706
340.446	26.747	831.786	662.862
341.460	26.707	831.978	662.812
342.475	26.621	831.482	662.045
343.489	26.496	830.381	660.652
344.504	26.477	829.744	660.017
345.519	26.622	829.659	660.421
346.533	26.897	829.610	661.324
347.548	26.820	829.422	660.836
348.562	26.979	828.399	660.541
349.577	26.762	828.080	659.441
350.592	26.819	827.237	658.917
351.606	26.882	826.944	658.854
352.621	26.837	826.099	657.959
353.635	26.632	825.712	656.850
354.650	26.662	825.006	656.338
355.665	26.323	824.198	654.411
356.679	25.439	822.305	649.654
357.694	25.107	821.959	648.125
358.708	26.001	822.073	651.386
359.723	25.552	821.771	649.467
360.738	25.951	821.505	650.640
361.752	26.519	821.115	652.324
362.767	26.479	821.097	652.107
363.781	26.819	820.805	653.042
364.796	27.104	820.482	653.752
365.810	27.138	820.333	653.697
366.825	27.434	819.507	654.044
367.840	27.185	819.569	653.143
368.854	27.013	818.955	651.976
369.869	26.692	818.073	650.066
370.883	26.407	817.302	648.376
371.898	26.618	816.618	648.530
372.913	26.472	816.000	647.459
373.927	26.639	815.241	647.399
374.942	26.773	814.554	647.274
375.956	26.805	814.253	647.090
376.971	26.909	813.648	646.922
377.986	27.021	813.559	647.193
379.000	27.156	813.049	647.212
380.015	27.271	812.506	647.133
381.029	27.035	812.004	645.834
382.044	26.807	811.880	644.870
383.059	27.178	810.638	645.143
384.073	27.336	809.855	645.023
385.088	27.153	809.770	644.247
386.102	27.283	808.884	643.949
387.117	27.072	808.647	642.954
388.132	26.867	807.916	641.590
389.146	26.789	807.060	640.581
390.161	26.228	806.096	637.777
391.175	26.199	805.920	637.479
392.190	26.810	806.560	640.087
393.205	26.830	805.841	639.530
394.219	25.897	803.943	634.685
395.234	24.226	801.574	626.884
396.248	23.261	800.758	622.798
397.263	24.845	801.003	628.502
398.278	26.295	802.887	635.024
399.292	26.976	802.557	637.097
400.307	26.484	801.946	634.832
401.321	26.409	801.605	634.243
402.336	26.390	801.213	633.810
403.350	26.877	801.255	635.491
404.365	27.162	801.058	636.278
405.380	27.483	800.978	637.281
406.394	27.899	800.728	638.481
407.409	27.833	800.342	637.885
408.423	28.028	799.461	637.806
409.438	27.828	799.185	636.834
410.453	27.805	798.608	636.235
411.467	28.018	797.995	636.436
412.482	27.946	797.587	635.803
413.496	27.775	797.311	634.932
414.511	27.998	796.625	635.104
415.526	27.923	796.680	634.829
416.540	27.928	796.294	634.484
417.555	27.933	795.467	633.786
418.569	27.584	794.944	632.104
419.584	27.491	794.348	631.251
420.599	27.460	793.917	630.747
421.613	108.706	1281.012	1445.856
422.628	93.533	1351.983	1445.945
