DTS Sentinel unit serial number:	SN413079Multiplexer serial number:	ORYXHardware model number:	OX4-SRSoftware version number:	ORYX F/W v4.00 Oryx Data Collector v3.7.2.0data status	okinstallation	princeton_trtdifferential loss correction	single-endedforward channel	channel 3reverse channel	N/Adate	2019/09/10time	16:58:11forward acquisition time	60.00reverse acquisition time	0.00gamma	496.2192k internal	0.2299k external	0.2299temperature offset calibration	0.9911default loss term (dB/km)	0.3790temperature slope calibration	1.0000multiplexer offset coefficient	1.0000multiplexer slope coefficient	1.0000fibre end	0.00T internal ref (°C)	37.62T ext. ref 1 (°C)	-0.31T ext. ref 2 (°C)	32.21length (m)	temperature (°C)	Stokes	anti-Stokes-747.200	-102.298	-0.166	-0.041
-746.185	-200.000	0.017	-0.135
-745.171	-200.000	0.037	0.431
-744.156	-200.000	0.107	0.503
-743.142	-200.000	-0.039	0.247
-742.127	800.000	-0.057	0.244
-741.112	-120.198	0.637	0.111
-740.098	56.264	-0.051	-0.050
-739.083	-114.154	0.332	0.066
-738.069	37.782	-0.261	0.237
-737.054	800.000	0.073	-0.233
-736.039	-84.789	0.139	0.045
-735.025	517.005	0.087	0.207
-734.010	-84.078	-0.129	-0.042
-732.996	-52.983	0.054	0.025
-731.981	-107.797	0.367	0.081
-730.966	-67.072	0.124	0.050
-729.952	-200.000	0.041	0.381
-728.937	38.605	0.168	-0.153
-727.923	-131.903	-0.340	0.045
-726.908	-82.650	-0.186	-0.062
-725.894	76.197	0.164	0.177
-724.879	98.024	-0.153	-0.179
-723.864	30.013	-0.130	0.113
-722.850	-75.273	0.185	0.067
-721.835	-200.000	0.038	-0.198
-720.821	554.941	-0.070	-0.171
-719.806	-42.177	-0.360	-0.188
-718.791	-18.485	-0.293	0.186
-717.777	-76.348	-0.184	0.066
-716.762	69.434	-0.119	-0.125
-715.748	303.241	-0.070	0.133
-714.733	-193.135	-0.312	0.003
-713.718	-200.000	0.065	0.455
-712.704	188.700	-0.117	-0.178
-711.689	114.727	-0.157	0.195
-710.675	-200.000	-0.020	0.185
-709.660	317.104	-0.062	-0.119
-708.645	800.000	0.078	-0.320
-707.631	29.831	0.207	-0.180
-706.616	-140.298	-0.213	-0.023
-705.602	143.319	0.186	-0.253
-704.587	-84.981	-0.277	-0.089
-703.572	800.000	-0.050	0.179
-702.558	-6.576	0.107	-0.074
-701.543	-200.000	0.006	-0.115
-700.529	38.485	-0.187	-0.169
-699.514	37.972	-0.192	0.174
-698.499	-116.139	-0.173	-0.033
-697.485	-184.182	-0.284	0.005
-696.470	9.450	0.265	0.204
-695.456	117.988	0.097	0.121
-694.441	-200.000	-0.003	0.108
-693.426	-88.449	0.234	-0.071
-692.412	-90.009	-0.052	0.016
-691.397	-116.307	0.275	-0.052
-690.383	60.695	-0.137	0.138
-689.368	-107.600	0.088	-0.020
-688.354	167.016	-0.055	-0.079
-687.339	800.000	0.084	-0.309
-686.324	331.484	0.097	0.190
-685.310	-200.000	0.226	-0.001
-684.295	-200.000	0.006	0.132
-683.281	218.016	-0.055	-0.090
-682.266	-200.000	-0.008	-0.089
-681.251	88.704	0.065	-0.073
-680.237	-200.000	-0.036	-0.287
-679.222	800.000	0.099	-0.397
-678.208	26.557	0.259	-0.221
-677.193	-9.545	0.217	0.148
-676.178	112.864	-0.137	-0.169
-675.164	0.882	-0.049	0.036
-674.149	83.171	0.114	-0.126
-673.135	800.000	0.056	0.205
-672.120	-177.151	0.099	-0.003
-671.105	800.000	-0.033	-0.114
-670.091	50.243	0.288	-0.276
-669.076	-23.974	-0.253	0.154
-668.062	46.610	-0.106	-0.100
-667.047	-200.000	-0.076	-0.426
-666.032	-184.048	0.271	0.005
-665.018	800.000	0.082	0.261
-664.003	156.294	0.049	0.069
-662.989	641.112	-0.026	0.066
-661.974	94.837	0.115	-0.133
-660.959	-38.515	0.087	0.047
-659.945	-91.932	0.158	-0.046
-658.930	-121.390	0.215	-0.036
-657.916	-133.386	-0.122	-0.016
-656.901	-98.575	0.157	0.041
-655.886	-200.000	-0.028	0.328
-654.872	-200.000	-0.018	-0.332
-653.857	32.127	-0.052	0.046
-652.843	335.769	-0.107	0.211
-651.828	58.801	-0.092	0.092
-650.814	150.115	0.137	-0.190
-649.799	800.000	-0.045	-0.192
-648.784	-200.000	0.013	-0.230
-647.770	392.321	0.050	-0.105
-646.755	-140.227	-0.262	0.028
-645.741	-74.076	0.180	0.066
-644.726	290.344	-0.093	0.171
-643.711	-71.195	0.055	-0.021
-642.697	102.997	-0.078	0.092
-641.682	90.621	0.169	0.192
-640.668	-200.000	-0.040	-0.415
-639.653	-200.000	0.044	-0.369
-638.638	-171.185	-0.270	0.009
-637.624	323.909	-0.113	0.218
-636.609	81.708	0.023	-0.025
-635.595	73.087	-0.011	-0.011
-634.580	144.101	-0.137	0.186
-633.565	-55.328	-0.147	-0.067
-632.551	800.000	0.049	-0.153
-631.536	-19.449	-0.397	-0.250
-630.522	800.000	0.012	-0.035
-629.507	97.666	-0.113	0.132
-628.492	1.913	0.123	-0.090
-627.478	568.452	-0.074	-0.182
-626.463	-114.706	-0.221	0.043
-625.449	117.510	0.027	-0.034
-624.434	103.866	0.099	0.118
-623.419	140.866	-0.099	-0.132
-622.405	800.000	0.071	-0.243
-621.390	-200.000	0.028	-0.267
-620.376	-91.806	0.266	-0.077
-619.361	222.228	-0.107	0.175
-618.346	664.006	0.048	-0.126
-617.332	-90.667	-0.277	0.081
-616.317	-132.955	-0.273	0.035
-615.303	-200.000	0.029	-0.404
-614.288	33.594	-0.097	-0.086
-613.273	125.414	-0.111	0.142
-612.259	-120.713	0.195	0.033
-611.244	72.454	0.190	-0.201
-610.230	-179.248	-0.278	0.006
-609.215	-200.000	0.002	-0.182
-608.201	397.358	0.031	0.066
-607.186	-38.736	-0.218	-0.117
-606.171	-161.197	-0.044	-0.002
-605.157	800.000	-0.045	-0.156
-604.142	-23.764	-0.217	-0.132
-603.128	111.285	-0.202	-0.247
-602.113	-200.000	0.038	0.186
-601.098	-77.130	0.123	-0.043
-600.084	-178.003	0.127	-0.003
-599.069	800.000	0.042	0.132
-598.055	-47.277	-0.130	-0.064
-597.040	-200.000	0.068	-0.365
-596.025	290.072	-0.021	0.038
-595.011	-133.414	-0.265	-0.034
-593.996	800.000	-0.118	-0.362
-592.982	290.635	-0.136	-0.251
-591.967	-200.000	-0.045	-0.404
-590.952	-102.102	0.294	0.072
-589.938	226.884	0.096	0.159
-588.923	-200.000	-0.052	-0.299
-587.909	-155.166	-0.082	-0.005
-586.894	-143.526	0.223	0.022
-585.879	134.955	0.025	0.033
-584.865	350.155	-0.067	0.134
-583.850	687.323	0.068	0.181
-582.836	98.492	0.108	0.126
-581.821	800.000	0.068	-0.238
-580.806	-200.000	0.002	-0.088
-579.792	249.189	-0.111	0.191
-578.777	606.309	0.116	-0.292
-577.763	126.848	0.097	0.124
-576.748	16.641	-0.293	0.235
-575.733	149.342	0.082	0.113
-574.719	116.963	0.074	-0.092
-573.704	-65.699	-0.289	-0.118
-572.690	-43.830	-0.338	0.172
-571.675	-49.018	-0.136	0.066
-570.661	-58.941	-0.160	0.070
-569.646	-115.360	-0.368	0.070
-568.631	120.357	0.111	0.140
-567.617	-200.000	-0.009	0.072
-566.602	-200.000	-0.008	0.067
-565.588	145.815	0.235	-0.320
-564.573	-181.408	0.134	0.003
-563.558	150.394	-0.074	0.101
-562.544	340.703	0.176	0.347
-561.529	713.859	-0.044	-0.118
-560.515	-200.000	-0.047	-0.229
-559.500	-134.409	0.217	-0.027
-558.485	-24.232	-0.220	-0.133
-557.471	210.554	-0.074	0.117
-556.456	371.276	0.030	-0.061
-555.442	-0.891	-0.326	-0.234
-554.427	-29.066	0.181	-0.105
-553.412	9.905	-0.207	0.159
-552.398	23.066	0.088	0.073
-551.383	-35.492	0.226	-0.124
-550.369	-96.466	0.219	0.059
-549.354	-59.740	0.180	0.078
-548.339	446.144	0.064	-0.143
-547.325	800.000	-0.061	-0.184
-546.310	673.159	-0.074	-0.193
-545.296	31.805	0.042	-0.037
-544.281	-82.996	-0.209	0.068
-543.266	-200.000	-0.001	0.055
-542.252	-147.339	-0.214	0.018
-541.237	-136.665	0.140	0.016
-540.223	62.726	-0.114	-0.115
-539.208	-56.591	-0.242	0.109
-538.193	-68.445	0.164	-0.065
-537.179	559.675	-0.089	0.217
-536.164	169.205	0.086	-0.124
-535.150	-200.000	0.008	0.034
-534.135	153.375	-0.134	0.185
-533.121	-41.121	-0.072	0.038
-532.106	98.505	-0.173	-0.202
-531.091	-51.883	0.131	0.062
-530.077	-200.000	0.023	-0.144
-529.062	72.671	-0.165	-0.174
-528.048	613.498	0.073	-0.185
-527.033	66.502	-0.076	0.078
-526.018	310.618	-0.054	0.102
-525.004	784.523	0.133	0.369
-523.989	75.791	-0.091	0.097
-522.975	25.541	-0.247	0.208
-521.960	-200.000	0.005	0.069
-520.945	800.000	0.006	-0.027
-519.931	-123.847	-0.062	-0.010
-518.916	-24.873	0.186	0.112
-517.902	354.149	-0.128	0.257
-516.887	-123.252	-0.064	0.010
-515.872	-200.000	0.003	0.203
-514.858	128.736	0.092	0.118
-513.843	-200.000	-0.014	-0.211
-512.829	-95.460	-0.287	-0.078
-511.814	15.236	-0.166	-0.132
-510.799	-19.546	-0.243	-0.152
-509.785	367.320	-0.203	-0.415
-508.770	53.654	-0.131	-0.127
-507.756	-200.000	-0.059	-0.350
-506.741	-200.000	-0.083	-0.494
-505.726	-200.000	0.011	-0.076
-504.712	11.201	0.230	-0.178
-503.697	-138.006	0.536	0.060
-502.683	217.543	0.104	-0.168
-501.668	-124.497	0.025	0.004
-500.653	800.000	-0.075	0.230
-499.639	-178.868	-0.175	-0.004
-498.624	-200.000	-0.009	-0.265
-497.610	-200.000	-0.004	-0.082
-496.595	191.226	-0.188	-0.286
-495.581	13.599	-0.110	0.086
-494.566	-200.000	-0.004	0.047
-493.551	-98.206	-0.110	-0.028
-492.537	-200.000	-0.008	0.265
-491.522	-121.329	0.099	-0.017
-490.508	41.446	-0.108	0.099
-489.493	-87.663	-0.100	0.031
-488.478	34.294	-0.105	0.093
-487.464	-61.106	-0.185	-0.079
-486.449	28.789	0.070	-0.060
-485.435	417.088	-0.099	0.214
-484.420	-148.878	-0.289	0.024
-483.405	-148.154	0.325	-0.027
-482.391	420.682	-0.046	-0.100
-481.376	55.687	0.079	0.077
-480.362	-43.653	0.148	0.075
-479.347	800.000	-0.093	0.325
-478.332	-13.162	0.078	0.051
-477.318	19.526	-0.096	-0.078
-476.303	498.873	0.095	-0.221
-475.289	422.899	0.070	0.153
-474.274	349.996	0.121	-0.241
-473.259	-166.868	0.071	-0.003
-472.245	-13.066	-0.137	0.090
-471.230	519.028	-0.111	-0.264
-470.216	800.000	-0.112	0.327
-469.201	-102.367	-0.123	0.030
-468.186	36.810	0.338	0.302
-467.172	800.000	-0.065	0.253
-466.157	448.894	0.091	-0.203
-465.143	35.399	-0.402	0.356
-464.128	-87.513	0.327	0.100
-463.113	-14.715	-0.078	-0.051
-462.099	-132.989	0.184	-0.024
-461.084	206.412	-0.085	-0.133
-460.070	800.000	0.052	0.172
-459.055	-77.294	0.308	0.108
-458.040	160.671	-0.106	0.149
-457.026	677.971	0.041	0.108
-456.011	466.571	0.142	0.320
-454.997	-87.061	0.313	0.096
-453.982	-172.408	0.510	0.016
-452.968	800.000	0.015	0.051
-451.953	800.000	-0.050	-0.171
-450.938	-21.487	-0.200	0.123
-449.924	8.044	0.375	0.284
-448.909	-200.000	-0.004	0.107
-447.895	9.976	0.178	-0.137
-446.880	-31.809	0.252	-0.143
-445.865	-93.120	0.235	0.066
-444.851	-200.000	0.070	-0.330
-443.836	-99.569	-0.017	0.004
-442.822	-200.000	0.028	0.244
-441.807	-15.868	0.048	-0.031
-440.792	-200.000	-0.053	-0.245
-439.778	-48.743	-0.056	0.027
-438.763	308.178	-0.059	-0.111
-437.749	-60.664	0.118	0.051
-436.734	-54.894	-0.089	0.041
-435.719	-116.287	0.128	-0.024
-434.705	326.405	-0.084	0.161
-433.690	-86.753	0.107	-0.033
-432.676	800.000	0.084	0.259
-431.661	133.228	0.066	0.086
-430.646	148.660	0.161	0.219
-429.632	149.869	-0.149	0.204
-428.617	235.072	0.112	-0.187
-427.603	800.000	-0.020	0.061
-426.588	-200.000	0.002	-0.195
-425.573	588.196	-0.016	0.040
-424.559	-200.000	0.007	0.186
-423.544	20.454	0.266	0.217
-422.530	-37.497	0.167	0.090
-421.515	800.000	-0.086	0.318
-420.500	800.000	0.063	-0.185
-419.486	-1.608	-0.066	0.047
-418.471	-150.281	0.273	0.021
-417.457	800.000	0.043	-0.185
-416.442	-54.336	-0.094	0.043
-415.428	-188.630	-0.389	-0.005
-414.413	-159.626	0.141	0.008
-413.398	47.651	-0.059	-0.056
-412.384	-105.605	-0.350	0.080
-411.369	-91.953	-0.260	0.074
-410.355	-70.990	0.075	-0.028
-409.340	-200.000	0.019	-0.365
-408.325	234.945	-0.196	0.326
-407.311	596.929	-0.071	-0.176
-406.296	51.116	-0.144	0.137
-405.282	152.624	0.127	0.175
-404.267	-200.000	0.049	0.366
-403.252	-11.250	0.461	0.306
-402.238	-92.533	0.166	-0.047
-401.223	10.713	0.127	-0.098
-400.209	-32.102	0.277	-0.156
-399.194	-22.454	0.037	0.022
-398.179	-200.000	-0.015	0.104
-397.165	-92.414	0.139	0.039
-396.150	4.239	0.181	-0.133
-395.136	-33.723	0.127	-0.070
-394.121	199.202	-0.306	-0.472
-393.106	-114.790	0.165	0.032
-392.092	137.675	0.092	0.121
-391.077	-125.764	0.131	-0.020
-390.063	-66.125	0.286	0.115
-389.048	10.227	-0.223	-0.171
-388.033	-200.000	-0.027	-0.356
-387.019	170.553	-0.108	-0.155
-386.004	106.191	-0.066	0.079
-384.990	-32.081	0.168	-0.094
-383.975	229.288	0.069	-0.113
-382.960	78.100	0.117	0.126
-381.946	-200.000	-0.021	0.573
-380.931	-87.961	-0.105	-0.032
-379.917	-40.081	0.185	-0.097
-378.902	307.678	-0.076	0.143
-377.888	-177.248	0.368	-0.009
-376.873	67.990	-0.024	0.024
-375.858	-44.697	0.226	-0.113
-374.844	285.905	0.145	-0.263
-373.829	65.699	-0.137	0.140
-372.815	-87.442	0.406	0.124
-371.800	488.595	0.068	-0.157
-370.785	110.562	0.071	-0.086
-369.771	-72.655	0.238	-0.088
-368.756	-118.716	0.233	-0.041
-367.742	77.520	0.073	0.078
-366.727	-200.000	-0.052	0.357
-365.712	5.253	-0.342	-0.253
-364.698	-130.888	-0.264	0.035
-363.683	-51.408	0.223	-0.105
-362.669	492.245	0.092	-0.213
-361.654	503.091	-0.157	-0.365
-360.639	-11.571	0.389	0.257
-359.625	179.355	0.065	-0.096
-358.610	-87.079	0.185	0.057
-357.596	-1.864	0.296	0.210
-356.581	-80.879	0.419	0.140
-355.566	90.503	0.194	0.218
-354.552	800.000	-0.039	0.138
-353.537	580.571	-0.165	0.405
-352.523	800.000	0.081	-0.283
-351.508	-200.000	0.060	0.411
-350.493	63.006	-0.088	0.089
-349.479	-200.000	-0.008	0.321
-348.464	165.577	-0.197	0.279
-347.450	-40.614	-0.234	-0.122
-346.435	800.000	0.024	-0.104
-345.420	31.537	-0.117	0.101
-344.406	775.458	0.036	-0.098
-343.391	-93.802	-0.056	0.016
-342.377	-4.714	0.111	-0.077
-341.362	93.249	-0.060	-0.069
-340.348	-134.819	-0.279	0.034
-339.333	800.000	-0.053	0.160
-338.318	0.204	-0.226	-0.162
-337.304	-128.810	-0.257	-0.036
-336.289	28.955	-0.055	0.047
-335.275	-161.061	-0.505	0.027
-334.260	-200.000	0.002	0.124
-333.245	124.561	0.115	0.146
-332.231	-200.000	-0.006	0.785
-331.216	225.569	0.026	0.043
-330.202	-57.446	-0.078	0.034
-329.187	-77.274	-0.244	0.085
-328.172	-124.570	-0.179	-0.028
-327.158	-200.000	0.024	0.119
-326.143	-55.670	0.165	-0.074
-325.129	78.284	0.038	-0.041
-324.114	178.924	0.053	0.078
-323.099	317.929	-0.155	-0.295
-322.085	52.863	0.080	-0.077
-321.070	-200.000	-0.012	-0.122
-320.056	-65.714	0.141	-0.057
-319.041	-200.000	0.000	-0.161
-318.026	-130.376	0.134	0.018
-317.012	392.504	0.076	0.158
-315.997	328.237	0.266	-0.513
-314.983	800.000	-0.020	-0.074
-313.968	52.732	0.313	-0.300
-312.953	205.599	0.038	0.060
-311.939	-200.000	0.121	0.000
-310.924	-34.210	-0.459	-0.253
-309.910	220.687	0.205	0.329
-308.895	-200.000	0.246	0.001
-307.880	163.384	-0.220	-0.310
-306.866	-200.000	-0.013	0.065
-305.851	-200.000	0.026	0.120
-304.837	-78.976	0.066	0.023
-303.822	-200.000	-0.013	0.087
-302.807	-200.000	-0.013	-0.073
-301.793	-200.000	0.018	-0.114
-300.778	51.377	0.322	0.307
-299.764	32.197	-0.296	-0.256
-298.749	-125.334	0.159	0.024
-297.735	800.000	-0.008	-0.031
-296.720	195.986	0.187	-0.286
-295.705	-200.000	0.102	-0.450
-294.691	214.266	0.034	0.054
-293.676	-35.458	-0.076	0.042
-292.662	529.336	-0.159	0.377
-291.647	-4.370	-0.352	0.244
-290.632	384.448	0.148	-0.305
-289.618	296.833	-0.188	-0.345
-288.603	-200.000	0.004	-0.276
-287.589	239.653	0.037	-0.061
-286.574	-94.243	0.215	-0.059
-285.559	-200.000	0.018	-0.108
-284.545	-200.000	-0.004	-0.166
-283.530	-26.263	-0.391	0.230
-282.516	68.460	-0.062	-0.064
-281.501	-144.950	0.158	0.014
-280.486	-53.626	0.027	0.012
-279.472	-111.295	-0.190	0.039
-278.457	-200.000	-0.056	0.261
-277.443	31.929	-0.060	0.052
-276.428	56.025	0.093	-0.091
-275.413	-200.000	0.041	-0.203
-274.399	800.000	0.088	0.290
-273.384	-27.574	-0.145	-0.085
-272.370	-200.000	0.026	0.124
-271.355	201.286	0.031	0.048
-270.340	-23.162	0.307	0.185
-269.326	-69.824	-0.158	-0.060
-268.311	-60.412	-0.195	0.083
-267.297	-200.000	-0.023	-0.127
-266.282	800.000	0.063	0.196
-265.267	-59.090	-0.169	-0.073
-264.253	-83.713	-0.269	0.086
-263.238	-68.707	-0.148	0.057
-262.224	601.635	0.095	0.236
-261.209	-109.024	-0.323	0.069
-260.195	330.546	-0.154	-0.296
-259.180	-200.000	-0.022	-0.200
-258.165	-76.872	0.164	0.057
-257.151	-200.000	0.042	-0.239
-256.136	-126.920	0.294	-0.043
-255.122	-110.193	0.150	0.031
-254.107	-78.796	0.225	0.077
-253.092	-31.782	0.242	-0.136
-252.078	-200.000	-0.032	0.146
-251.063	121.902	0.203	0.254
-250.049	-132.703	0.225	0.029
-249.034	230.164	-0.069	-0.113
-248.019	800.000	0.088	-0.271
-247.005	-121.627	-0.054	0.009
-245.990	-121.577	0.059	-0.010
-244.976	-200.000	0.041	-0.235
-243.961	86.270	0.033	0.036
-242.946	295.738	-0.022	-0.040
-241.932	-200.000	-0.021	0.102
-240.917	-159.835	-0.212	-0.012
-239.903	-200.000	0.062	0.280
-238.888	-78.878	0.091	-0.031
-237.873	800.000	0.001	0.004
-236.859	-40.291	-0.272	-0.141
-235.844	-74.983	0.345	-0.124
-234.830	27.767	0.222	-0.187
-233.815	-73.784	0.336	0.122
-232.800	-8.526	-0.202	0.136
-231.786	187.673	0.077	0.115
-230.771	-95.779	0.080	0.021
-229.757	284.272	-0.131	-0.235
-228.742	105.338	-0.270	0.319
-227.727	-200.000	0.020	0.470
-226.713	-200.000	0.048	-0.280
-225.698	-65.494	0.352	-0.141
-224.684	156.409	0.130	0.179
-223.669	-200.000	-0.006	0.109
-222.655	-10.945	-0.087	0.057
-221.640	-84.289	0.149	0.047
-220.625	-45.912	-0.115	-0.057
-219.611	-200.000	-0.000	-0.392
-218.596	86.881	0.072	-0.079
-217.582	-200.000	-0.031	0.276
-216.567	-11.540	0.216	-0.142
-215.552	20.654	-0.181	-0.147
-214.538	-78.513	-0.164	0.056
-213.523	213.846	-0.107	0.169
-212.509	183.920	-0.086	-0.127
-211.494	21.497	-0.102	-0.083
-210.479	-200.000	-0.024	-0.138
-209.465	790.502	0.084	0.232
-208.450	800.000	-0.078	0.334
-207.436	-71.741	0.106	-0.040
-206.421	158.134	0.109	0.151
-205.406	135.631	0.039	-0.050
-204.392	349.373	-0.053	-0.104
-203.377	-71.481	0.321	0.120
-202.363	-200.000	-0.019	-0.122
-201.348	-132.292	0.228	0.030
-200.333	-183.465	0.126	-0.002
-199.319	800.000	0.036	-0.134
-198.304	800.000	0.087	-0.250
-197.290	-106.063	-0.139	-0.031
-196.275	145.588	-0.066	0.088
-195.260	-199.466	-0.257	0.001
-194.246	800.000	-0.147	0.515
-193.231	-200.000	0.048	-0.241
-192.217	-119.926	0.229	-0.039
-191.202	-27.721	-0.500	0.290
-190.187	-125.061	-0.109	-0.017
-189.173	24.585	-0.257	0.212
-188.158	60.994	0.162	0.160
-187.144	-98.380	-0.246	-0.063
-186.129	3.304	0.023	-0.016
-185.114	-117.958	0.175	0.031
-184.100	-24.284	0.123	0.073
-183.085	-118.632	0.158	-0.028
-182.071	-31.589	0.335	0.188
-181.056	-112.181	0.167	0.034
-180.042	109.136	-0.158	0.188
-179.027	-106.726	0.099	0.022
-178.012	-108.095	-0.239	0.052
-176.998	800.000	-0.144	-0.425
-175.983	-111.130	0.074	-0.015
-174.969	250.465	0.164	0.278
-173.954	197.112	-0.096	0.146
-172.939	-96.066	-0.386	-0.102
-171.925	-46.001	-0.047	0.023
-170.910	-73.952	-0.233	0.084
-169.896	280.500	0.164	0.292
-168.881	-81.477	0.271	-0.089
-167.866	-83.705	0.317	0.101
-166.852	85.728	-0.208	0.228
-165.837	-200.000	-0.011	-0.061
-164.823	800.000	0.022	0.060
-163.808	482.211	-0.067	0.153
-162.793	-200.000	-0.018	-0.133
-161.779	-150.762	-0.230	0.017
-160.764	-200.000	0.024	-0.188
-159.750	800.000	0.052	0.195
-158.735	-200.000	-0.031	0.184
-157.720	-108.363	-0.068	0.015
-156.706	-42.942	-0.150	0.076
-155.691	-200.000	-0.067	-0.361
-154.677	174.805	-0.099	0.142
-153.662	800.000	0.028	-0.083
-152.647	-4.712	-0.428	-0.294
-151.633	-167.970	-0.225	0.009
-150.618	-97.076	0.283	0.074
-149.604	-64.340	0.377	-0.153
-148.589	201.076	-0.201	-0.308
-147.574	-200.000	0.024	-0.306
-146.560	189.068	-0.120	0.179
-145.545	-107.579	0.282	0.062
-144.531	-89.333	0.222	0.065
-143.516	-64.267	0.416	-0.169
-142.502	-200.000	0.032	0.151
-141.487	34.172	-0.067	0.058
-140.472	304.226	-0.003	-0.006
-139.458	-9.973	-0.139	-0.092
-138.443	171.911	0.107	0.153
-137.429	-96.826	-0.169	0.044
-136.414	301.613	0.083	-0.153
-135.399	-46.427	0.082	-0.040
-134.385	800.000	-0.089	-0.260
-133.370	534.644	-0.094	-0.222
-132.356	-56.199	0.461	0.204
-131.341	-200.000	-0.017	0.221
-130.326	-20.787	0.105	0.064
-129.312	-31.081	0.079	-0.044
-128.297	235.279	0.102	-0.167
-127.283	100.202	-0.150	0.174
-126.268	800.000	0.083	0.257
-125.253	344.520	-0.058	-0.112
-124.239	-165.061	0.442	-0.020
-123.224	197.472	0.156	0.237
-122.210	-107.259	0.049	-0.011
-121.195	34.577	0.154	-0.134
-120.180	330.359	-0.038	-0.073
-119.166	-174.610	-0.244	-0.007
-118.151	-6.200	-0.215	-0.146
-117.137	785.345	0.124	0.338
-116.122	-159.662	0.251	0.014
-115.107	472.261	0.129	0.290
-114.093	21.460	-0.141	0.114
-113.078	71.032	-0.342	-0.352
-112.064	683.638	-0.083	-0.216
-111.049	389.526	-0.156	0.321
-110.034	177.450	-0.177	-0.257
-109.020	26.741	-0.239	0.200
-108.005	260.123	0.175	-0.300
-106.991	800.000	-0.062	-0.245
-105.976	589.410	-0.071	0.173
-104.962	-200.000	0.004	-0.285
-103.947	137.977	0.142	0.185
-102.932	-123.631	0.350	-0.055
-101.918	605.077	0.116	-0.287
-100.903	339.074	0.116	-0.224
-99.889	-171.401	0.357	-0.012
-98.874	422.018	0.068	-0.145
-97.859	-128.371	0.200	0.028
-96.845	-200.000	0.071	0.363
-95.830	184.604	0.160	0.236
-94.816	246.871	0.110	-0.184
-93.801	25.700	0.117	-0.097
-92.786	-200.000	-0.040	-0.186
-91.772	800.000	-0.042	-0.151
-90.757	-50.344	-0.142	-0.067
-89.743	-103.316	-0.141	0.033
-88.728	279.323	-0.049	0.088
-87.713	6.621	-0.034	0.025
-86.699	800.000	0.077	0.292
-85.684	-200.000	0.076	0.474
-84.670	-76.059	-0.193	-0.068
-83.655	800.000	-0.063	0.174
-82.640	58.106	0.267	-0.260
-81.626	-30.585	0.254	-0.143
-80.611	800.000	0.049	0.149
-79.597	-194.508	0.262	-0.002
-78.582	-96.984	-0.083	0.022
-77.567	303.156	-0.024	-0.045
-76.553	-114.639	0.263	0.050
-75.538	-148.849	0.184	-0.015
-74.524	-57.230	0.282	0.123
-73.509	12.624	-0.260	-0.199
-72.494	170.965	-0.141	-0.200
-71.480	800.000	-0.104	-0.302
-70.465	783.056	-0.057	-0.156
-69.451	-200.000	-0.003	-0.325
-68.436	-135.634	-0.212	0.025
-67.422	800.000	-0.048	-0.149
-66.407	14.580	-0.095	-0.074
-65.392	-51.133	0.142	-0.066
-64.378	142.829	-0.100	-0.133
-63.363	-139.458	-0.106	0.011
-62.349	263.697	-0.017	-0.029
-61.334	10.817	-0.739	-0.561
-60.319	210.487	0.330	0.514
-59.305	-200.000	-0.061	-1.261
-58.290	522.340	0.415	0.969
-57.276	800.000	0.555	1.547
-56.261	-200.000	85.324	502.284
-55.246	548.341	1375.700	3272.561
-54.232	180.168	2627.703	3827.029
-53.217	117.750	2275.312	2782.272
-52.203	47.476	1802.602	1668.812
-51.188	40.677	1608.126	1439.620
-50.173	38.241	1580.006	1397.002
-49.159	54.596	1623.842	1554.540
-48.144	58.736	1643.566	1603.353
-47.130	41.203	1603.145	1438.737
-46.115	37.965	1588.235	1402.076
-45.100	37.719	1585.288	1397.649
-44.086	37.735	1582.842	1395.554
-43.071	37.694	1581.004	1393.584
-42.057	37.609	1579.408	1391.515
-41.042	37.622	1578.092	1390.393
-40.027	37.652	1576.740	1389.357
-39.013	37.612	1575.059	1387.536
-37.998	37.592	1573.516	1385.984
-36.984	37.793	1571.993	1386.016
-35.969	37.659	1570.717	1383.887
-34.954	37.681	1569.597	1382.997
-33.940	37.588	1568.655	1381.456
-32.925	37.691	1566.390	1380.131
-31.911	37.718	1565.345	1379.346
-30.896	37.627	1564.063	1377.519
-29.881	37.713	1562.582	1376.773
-28.867	37.698	1561.240	1375.427
-27.852	37.745	1560.041	1374.646
-26.838	37.697	1558.092	1372.539
-25.823	37.641	1556.579	1370.754
-24.809	37.583	1555.126	1369.014
-23.794	37.674	1553.455	1368.126
-22.779	37.712	1552.298	1367.320
-21.765	37.628	1551.543	1366.016
-20.750	37.748	1550.129	1365.556
-19.736	37.655	1548.916	1363.779
-18.721	37.609	1547.694	1362.328
-17.706	37.650	1546.865	1361.833
-16.692	37.588	1545.313	1359.977
-15.677	37.510	1544.525	1358.683
-14.663	37.588	1542.900	1357.744
-13.648	37.519	1542.287	1356.673
-12.633	37.583	1541.318	1356.210
-11.619	37.573	1540.114	1355.028
-10.604	37.598	1538.823	1354.013
-9.590	37.572	1538.347	1353.363
-8.575	37.510	1537.700	1352.306
-7.560	37.621	1536.514	1351.983
-6.546	37.580	1535.509	1350.760
-5.531	37.545	1534.703	1349.755
-4.517	37.573	1533.710	1349.022
-3.502	37.536	1532.710	1347.829
-2.487	37.493	1531.875	1346.742
-1.473	37.513	1530.410	1345.541
-0.458	37.573	1528.994	1344.657
0.556	35.222	1519.478	1333.962
1.571	32.599	1491.457	1291.291
2.586	28.898	1425.775	1210.015
3.600	26.827	1339.692	1124.036
4.615	25.230	1292.057	1074.416
5.629	21.606	1233.469	1004.848
6.644	10.734	1139.917	870.576
7.659	1.527	1092.799	787.029
8.673	-0.060	1086.603	774.324
9.688	-0.289	1083.356	770.768
10.702	-0.471	1081.926	768.748
11.717	-0.420	1080.349	767.821
12.731	2.830	1084.601	787.465
13.746	12.419	1098.469	847.095
14.761	17.397	1104.285	877.237
15.775	15.776	1100.512	865.826
16.790	14.826	1099.164	859.803
17.804	14.513	1097.550	856.858
18.819	14.114	1096.682	854.056
19.834	14.229	1096.007	854.041
20.848	14.178	1095.115	853.013
21.863	14.156	1094.301	852.187
22.877	13.996	1094.198	851.215
23.892	13.992	1093.861	850.854
24.907	14.016	1092.359	849.737
25.921	13.955	1092.029	849.089
26.936	14.148	1090.860	849.093
27.950	14.136	1089.874	848.187
28.965	14.106	1088.689	847.037
29.980	14.100	1086.702	845.388
30.994	14.077	1084.919	843.810
32.009	14.130	1084.138	843.396
33.023	14.131	1083.688	842.974
34.038	13.924	1082.758	841.130
35.053	13.934	1081.222	839.911
36.067	14.069	1080.541	839.991
37.082	14.152	1079.519	839.540
38.096	14.152	1078.727	838.849
39.111	14.273	1077.508	838.441
40.126	14.251	1076.642	837.579
41.140	14.327	1075.451	836.959
42.155	14.169	1074.091	835.033
43.169	13.972	1073.264	833.332
44.184	14.016	1071.937	832.447
45.199	14.106	1070.645	831.822
46.213	13.954	1070.020	830.499
47.228	13.953	1068.347	829.126
48.242	13.887	1067.148	827.794
49.257	13.972	1065.860	827.141
50.271	14.027	1064.602	826.369
51.286	14.002	1064.446	826.046
52.301	14.007	1062.947	824.837
53.315	14.037	1062.153	824.296
54.330	14.052	1061.063	823.454
55.344	14.008	1060.729	822.902
56.359	14.071	1059.425	822.131
57.374	14.160	1058.311	821.632
58.388	13.993	1057.312	819.959
59.403	14.044	1056.406	819.435
60.417	14.051	1055.819	818.941
61.432	13.863	1055.520	817.712
62.447	13.963	1054.322	817.202
63.461	14.044	1053.357	816.782
64.476	14.026	1052.468	815.931
65.490	14.053	1051.272	815.066
66.505	13.886	1050.737	813.757
67.520	14.056	1049.638	813.669
68.534	14.036	1048.936	812.955
69.549	13.994	1048.094	812.024
70.563	13.930	1047.063	810.842
71.578	13.845	1046.371	809.816
72.593	13.892	1045.807	809.539
73.607	13.945	1044.546	808.748
74.622	13.947	1043.581	807.939
75.636	14.007	1042.583	807.386
76.651	13.988	1041.945	806.731
77.666	14.062	1040.441	805.852
78.680	13.946	1039.706	804.652
79.695	13.844	1039.494	803.923
80.709	13.965	1038.852	803.938
81.724	14.021	1037.933	803.429
82.739	13.934	1037.489	802.593
83.753	13.942	1036.038	801.436
84.768	14.155	1034.850	801.473
85.782	14.170	1034.025	800.837
86.797	14.169	1033.501	800.353
87.812	14.072	1032.571	799.097
88.826	13.942	1031.743	797.764
89.841	13.977	1030.615	796.988
90.855	14.025	1029.488	796.278
91.870	14.053	1028.919	795.898
92.884	14.054	1027.960	795.090
93.899	13.974	1026.847	793.779
94.914	14.060	1025.838	793.337
95.928	14.121	1025.141	793.019
96.943	14.094	1024.624	792.421
97.957	13.991	1023.654	791.112
98.972	13.968	1022.489	790.033
99.987	13.890	1020.959	788.409
101.001	13.731	1020.756	787.428
102.016	13.843	1020.097	787.380
103.030	13.952	1018.997	786.979
104.045	13.909	1017.584	785.614
105.060	13.769	1016.398	783.969
106.074	13.649	1015.100	782.329
107.089	13.778	1014.540	782.440
108.103	14.090	1013.531	783.059
109.118	14.067	1013.107	782.555
110.133	13.948	1011.875	780.976
111.147	13.907	1011.313	780.278
112.162	13.974	1010.080	779.572
113.176	13.828	1008.754	777.798
114.191	13.940	1007.875	777.576
115.206	13.793	1007.457	776.496
116.220	13.848	1005.927	775.507
117.235	13.912	1004.790	774.859
118.249	13.928	1004.001	774.257
119.264	13.932	1002.776	773.262
120.279	13.958	1001.912	772.647
121.293	13.960	1001.301	772.116
122.308	13.959	1000.566	771.477
123.322	13.893	999.912	770.600
124.337	13.933	998.341	769.504
125.352	13.989	997.068	768.714
126.366	13.816	995.114	766.342
127.381	13.642	993.748	764.420
128.395	13.863	993.065	764.843
129.410	13.986	991.941	764.477
130.424	14.194	991.307	764.878
131.439	14.084	990.187	763.442
132.454	14.039	989.081	762.314
133.468	14.083	988.257	761.815
134.483	13.959	987.844	760.860
135.497	14.033	986.677	760.234
136.512	14.135	986.084	760.174
137.527	14.136	985.303	759.510
138.541	14.177	984.293	758.850
139.556	14.230	983.326	758.277
140.570	14.180	982.532	757.373
141.585	14.100	981.642	756.254
142.600	14.071	980.711	755.341
143.614	14.027	980.010	754.533
144.629	14.070	979.346	754.150
145.643	14.205	978.092	753.728
146.658	13.978	977.378	752.085
147.673	14.101	976.320	751.760
148.687	14.095	974.903	750.576
149.702	13.978	974.320	749.534
150.716	14.025	973.169	748.790
151.731	14.065	972.081	748.068
152.746	14.090	971.848	747.934
153.760	14.220	970.813	747.656
154.775	14.169	970.293	746.964
155.789	14.175	969.355	746.199
156.804	14.163	967.705	744.810
157.819	14.250	966.869	744.493
158.833	14.150	966.497	743.690
159.848	14.209	965.933	743.457
160.862	14.302	964.756	742.899
161.877	14.147	964.196	741.710
162.892	14.198	962.976	740.936
163.906	14.388	962.622	741.442
164.921	14.364	961.577	740.461
165.935	14.150	960.580	738.681
166.950	14.293	959.188	738.178
167.964	14.290	958.105	737.265
168.979	14.181	956.905	735.797
169.994	14.196	956.193	735.249
171.008	14.139	955.144	734.128
172.023	14.053	954.608	733.269
173.037	14.259	952.980	732.860
174.052	13.988	952.263	731.053
175.067	14.006	950.900	730.022
176.081	14.006	950.448	729.612
177.096	14.078	950.168	729.648
178.110	14.176	948.957	729.082
179.125	14.098	947.617	727.645
180.140	14.073	946.789	726.838
181.154	14.007	946.034	725.906
182.169	14.095	945.553	725.854
183.183	14.070	944.454	724.840
184.198	14.179	944.224	725.073
185.213	14.120	943.626	724.292
186.227	14.281	942.614	724.150
187.242	14.330	941.765	723.647
188.256	14.201	941.533	722.846
189.271	14.256	940.381	722.136
190.286	14.280	939.343	721.377
191.300	14.413	938.111	720.942
192.315	14.047	938.117	719.303
193.329	13.738	936.639	716.772
194.344	13.679	935.924	715.906
195.359	13.840	935.786	716.432
196.373	14.181	934.941	717.189
197.388	14.113	934.612	716.583
198.402	14.038	934.065	715.778
199.417	14.048	933.408	715.251
200.432	14.054	932.521	714.533
201.446	13.964	931.714	713.465
202.461	13.880	930.926	712.439
203.475	13.736	931.148	711.929
204.490	13.501	929.954	709.943
205.504	13.190	928.627	707.536
206.519	13.476	927.759	708.037
207.534	13.922	927.459	709.652
208.548	14.056	926.548	709.462
209.563	14.189	926.449	709.891
210.577	14.108	926.079	709.200
211.592	14.089	924.584	707.912
212.607	14.245	924.324	708.316
213.621	14.232	923.561	707.611
214.636	14.128	923.246	706.868
215.650	14.169	922.589	706.474
216.665	14.192	921.773	705.887
217.680	14.205	921.335	705.542
218.694	14.183	920.810	704.987
219.709	14.119	919.452	703.612
220.723	13.850	919.164	702.191
221.738	14.132	918.344	702.694
222.753	14.251	917.576	702.547
223.767	14.235	916.696	701.744
224.782	14.216	915.779	700.901
225.796	14.342	914.708	700.549
226.811	14.134	914.790	699.673
227.826	14.220	913.093	698.676
228.840	13.954	912.298	696.889
229.855	13.903	911.479	695.986
230.869	13.992	911.027	695.953
231.884	13.807	910.000	694.335
232.899	13.967	909.333	694.431
233.913	14.234	909.124	695.326
234.928	14.404	908.347	695.382
235.942	14.291	907.734	694.377
236.957	14.522	906.841	694.595
237.972	14.414	905.848	693.326
238.986	14.409	905.199	692.745
240.001	14.352	904.758	692.109
241.015	14.433	903.808	691.659
242.030	14.328	903.294	690.769
243.045	14.494	902.622	690.883
244.059	14.513	901.770	690.246
245.074	14.501	901.033	689.574
246.088	14.611	900.222	689.344
247.103	14.241	899.598	687.280
248.117	14.128	898.952	686.256
249.132	14.409	898.280	686.841
250.147	14.447	897.805	686.576
251.161	14.366	896.883	685.478
252.176	14.485	896.272	685.438
253.190	14.525	895.089	684.638
254.205	14.518	894.461	684.069
255.220	14.679	893.951	684.278
256.234	14.621	893.803	683.863
257.249	14.768	892.851	683.678
258.263	14.645	892.484	682.833
259.278	14.594	891.255	681.624
260.293	14.626	890.890	681.414
261.307	14.650	890.184	680.913
262.322	14.635	889.201	680.038
263.336	14.569	888.404	679.103
264.351	14.398	887.500	677.653
265.366	13.879	886.256	674.537
266.380	13.685	886.026	673.512
267.395	13.963	885.518	674.197
268.409	14.347	884.763	675.118
269.424	14.515	883.899	675.082
270.439	14.472	883.557	674.586
271.453	14.648	882.809	674.666
272.468	14.726	881.841	674.181
273.482	14.699	881.288	673.590
274.497	14.751	880.826	673.385
275.512	14.697	879.120	671.806
276.526	14.400	878.254	669.892
277.541	14.482	877.672	669.717
278.555	14.752	877.434	670.560
279.570	14.650	876.647	669.488
280.585	14.405	875.464	667.545
281.599	14.369	875.408	667.301
282.614	14.654	874.516	667.703
283.628	14.557	873.657	666.600
284.643	14.276	873.412	665.231
285.657	14.511	872.905	665.723
286.672	14.475	872.255	665.025
287.687	14.351	871.208	663.676
288.701	14.347	871.037	663.470
289.716	14.519	870.482	663.672
290.730	14.392	869.723	662.530
291.745	14.424	869.105	662.129
292.760	14.362	868.093	661.051
293.774	14.320	867.381	660.284
294.789	14.621	867.085	661.193
295.803	14.918	866.954	662.212
296.818	14.987	865.947	661.655
297.833	15.112	865.332	661.622
298.847	15.178	864.246	660.994
299.862	14.858	863.894	659.404
300.876	14.826	863.286	658.754
301.891	14.970	862.252	658.476
302.906	15.027	861.783	658.284
303.920	14.811	860.600	656.471
304.935	14.801	859.626	655.631
305.949	14.850	859.410	655.603
306.964	14.949	858.716	655.403
307.979	14.894	858.309	654.818
308.993	14.950	857.962	654.716
310.008	15.216	857.393	655.262
311.022	15.158	856.751	654.489
312.037	14.964	856.283	653.313
313.052	14.979	855.604	652.797
314.066	14.950	854.906	652.093
315.081	14.664	854.367	650.512
316.095	14.402	853.477	648.757
317.110	14.806	852.942	649.862
318.125	15.002	852.742	650.416
319.139	14.852	852.097	649.284
320.154	14.664	850.948	647.619
321.168	14.476	850.161	646.236
322.183	14.672	850.208	646.973
323.197	14.914	850.194	647.844
324.212	15.106	849.286	647.838
325.227	15.363	848.671	648.305
326.241	15.270	848.547	647.793
327.256	15.345	847.451	647.190
328.270	15.258	847.537	646.860
329.285	15.100	846.911	645.717
330.300	14.993	846.082	644.617
331.314	15.039	845.560	644.336
332.329	15.162	844.588	644.014
333.343	15.248	843.944	643.795
334.358	15.309	843.249	643.443
335.373	15.319	842.656	642.972
336.387	15.158	842.324	642.043
337.402	15.349	841.498	642.089
338.416	15.345	841.352	641.905
339.431	15.149	840.518	640.464
340.446	15.150	839.607	639.716
341.460	15.214	839.052	639.480
342.475	15.337	838.493	639.467
343.489	15.221	837.334	638.084
344.504	15.192	836.732	637.457
345.519	15.225	836.922	637.671
346.533	15.340	836.083	637.416
347.548	15.478	835.879	637.728
348.562	15.690	834.992	637.796
349.577	15.556	834.662	636.982
350.592	15.524	834.107	636.380
351.606	15.520	833.639	635.953
352.621	15.504	833.351	635.615
353.635	15.511	832.970	635.293
354.650	15.549	832.095	634.715
355.665	15.442	831.755	633.994
356.679	14.984	830.762	631.453
357.694	14.928	830.417	630.926
358.708	15.093	830.006	631.178
359.723	15.107	829.357	630.683
360.738	15.292	829.105	631.129
361.752	15.673	828.668	632.174
362.767	15.698	828.051	631.743
363.781	15.628	827.793	631.226
364.796	15.780	826.813	630.993
365.810	15.705	826.335	630.291
366.825	15.825	826.230	630.607
367.840	15.833	825.775	630.232
368.854	15.615	825.545	629.185
369.869	15.606	825.059	628.725
370.883	15.440	824.063	627.292
371.898	15.494	823.655	627.127
372.913	15.429	822.690	626.092
373.927	15.240	822.237	624.989
374.942	15.387	821.960	625.270
375.956	15.546	821.367	625.358
376.971	15.702	820.453	625.186
377.986	15.744	819.784	624.776
379.000	15.930	819.156	624.934
380.015	15.816	818.593	624.025
381.029	15.762	818.131	623.418
382.044	15.663	817.368	622.413
383.059	15.966	816.806	623.051
384.073	15.706	816.374	621.707
385.088	15.831	815.867	621.726
386.102	15.747	815.431	621.029
387.117	15.929	815.178	621.454
388.132	16.033	814.381	621.173
389.146	15.868	813.893	620.141
390.161	15.703	813.433	619.127
391.175	15.597	812.864	618.248
392.190	15.561	812.649	617.900
393.205	15.657	811.715	617.485
394.219	15.444	811.371	616.389
395.234	15.164	810.613	614.730
396.248	15.106	810.324	614.244
397.263	15.321	809.768	614.557
398.278	15.721	809.570	615.817
399.292	16.189	809.405	617.350
400.307	15.961	809.141	616.258
401.321	16.101	808.579	616.288
402.336	16.027	808.619	615.992
403.350	15.964	807.680	614.992
404.365	16.085	807.007	614.869
405.380	15.986	806.562	614.112
406.394	16.094	806.266	614.230
407.409	16.125	805.719	613.869
408.423	16.222	804.902	613.544
409.438	16.068	804.348	612.511
410.453	16.114	803.952	612.320
411.467	16.205	803.613	612.338
412.482	16.374	802.877	612.336
413.496	16.303	802.573	611.793
414.511	16.237	802.535	611.470
415.526	16.296	801.963	611.194
416.540	16.250	801.680	610.759
417.555	16.224	800.739	609.892
418.569	16.033	800.791	609.188
419.584	16.044	799.754	608.385
420.599	16.077	799.531	608.279
421.613	150.965	1355.576	1779.641
422.628	130.974	1436.590	1779.784
