DTS Sentinel unit serial number:	SN413079Multiplexer serial number:	ORYXHardware model number:	OX4-SRSoftware version number:	ORYX F/W v4.00 Oryx Data Collector v3.7.2.0data status	okinstallation	princeton_trtdifferential loss correction	single-endedforward channel	channel 3reverse channel	N/Adate	2019/09/11time	23:38:11forward acquisition time	60.00reverse acquisition time	0.00gamma	496.2192k internal	0.2317k external	0.2317temperature offset calibration	1.0053default loss term (dB/km)	0.3790temperature slope calibration	1.0000multiplexer offset coefficient	1.0000multiplexer slope coefficient	1.0000fibre end	0.00T internal ref (°C)	34.12T ext. ref 1 (°C)	1.87T ext. ref 2 (°C)	28.55length (m)	temperature (°C)	Stokes	anti-Stokes-747.200	-83.634	0.165	-0.053
-746.185	-200.000	-0.009	-0.108
-745.171	97.233	-0.164	0.191
-744.156	90.278	-0.122	0.138
-743.142	147.068	0.036	-0.050
-742.127	32.818	-0.158	0.139
-741.112	-40.630	0.045	-0.023
-740.098	-67.473	0.192	0.076
-739.083	-200.000	0.016	0.164
-738.069	-10.236	-0.321	0.215
-737.054	-200.000	0.008	-0.063
-736.039	-36.897	-0.324	-0.176
-735.025	-119.434	-0.106	-0.019
-734.010	170.555	-0.110	-0.160
-732.996	-113.312	-0.297	-0.059
-731.981	42.078	-0.174	-0.160
-730.966	25.198	-0.044	-0.037
-729.952	493.368	0.028	0.065
-728.937	203.115	0.032	-0.049
-727.923	-134.752	0.023	-0.003
-726.908	-29.660	-0.248	-0.143
-725.894	-14.662	-0.125	0.081
-724.879	-153.124	-0.117	0.008
-723.864	-116.349	-0.166	-0.031
-722.850	-105.940	0.130	0.030
-721.835	423.812	0.114	-0.248
-720.821	-13.090	-0.179	0.117
-719.806	534.510	-0.054	0.129
-718.791	-200.000	-0.012	-0.109
-717.777	-200.000	-0.154	0.001
-716.762	-200.000	-0.008	-0.072
-715.748	-200.000	0.039	0.280
-714.733	-17.614	0.227	0.144
-713.718	96.191	-0.133	0.154
-712.704	-145.992	-0.244	-0.022
-711.689	72.753	0.166	-0.175
-710.675	33.697	0.083	-0.073
-709.660	67.478	0.363	0.374
-708.645	800.000	-0.021	-0.076
-707.631	-200.000	0.009	-0.178
-706.616	753.213	0.109	0.298
-705.602	-40.814	-0.392	0.205
-704.587	84.041	-0.065	-0.072
-703.572	197.636	0.072	-0.111
-702.558	303.905	-0.052	-0.097
-701.543	-72.080	0.049	-0.018
-700.529	-200.000	-0.025	0.133
-699.514	-200.000	-0.018	-0.306
-698.499	-159.003	-0.172	-0.010
-697.485	112.769	-0.134	-0.163
-696.470	-13.888	0.135	-0.088
-695.456	28.243	-0.082	-0.070
-694.441	-39.552	0.071	-0.038
-693.426	-200.000	0.009	-0.281
-692.412	82.473	-0.276	-0.302
-691.397	-136.977	0.435	-0.050
-690.383	-12.300	0.066	-0.044
-689.368	29.514	0.048	0.041
-688.354	800.000	0.031	-0.105
-687.339	310.832	0.227	0.429
-686.324	127.769	0.125	0.161
-685.310	-200.000	0.023	-0.409
-684.295	-84.179	0.162	-0.052
-683.281	-156.337	0.062	0.004
-682.266	311.446	-0.034	0.065
-681.251	49.670	-0.132	0.125
-680.237	800.000	0.207	-0.592
-679.222	-123.872	-0.168	0.027
-678.208	-178.310	-0.140	-0.003
-677.193	-200.000	-0.026	-0.163
-676.178	31.699	-0.115	-0.100
-675.164	56.603	-0.119	0.117
-674.149	132.240	0.096	0.125
-673.135	-132.347	-0.246	0.032
-672.120	49.175	0.356	0.338
-671.105	-86.750	-0.158	0.049
-670.091	164.401	-0.147	-0.209
-669.076	-152.241	-0.383	0.028
-668.062	-200.000	0.013	0.151
-667.047	25.634	-0.206	0.173
-666.032	-153.108	0.069	0.005
-665.018	-173.818	-0.108	-0.003
-664.003	800.000	-0.066	0.257
-662.989	-53.969	0.215	-0.099
-661.974	800.000	-0.052	-0.160
-660.959	241.017	0.242	-0.407
-659.945	-70.267	-0.201	-0.077
-658.930	65.335	-0.226	-0.231
-657.916	-82.446	0.323	-0.106
-656.901	1.684	0.083	-0.060
-655.886	70.825	-0.130	0.136
-654.872	-99.579	-0.028	0.007
-653.857	-181.463	-0.378	-0.007
-652.843	-70.505	-0.147	0.056
-651.828	150.722	-0.207	0.283
-650.814	708.367	-0.078	-0.209
-649.799	63.958	-0.096	0.097
-648.784	181.938	-0.083	0.124
-647.770	-15.031	-0.018	-0.012
-646.755	58.297	-0.202	0.199
-645.741	-200.000	0.095	0.539
-644.726	-165.879	0.167	-0.007
-643.711	-108.532	-0.268	0.058
-642.697	42.550	-0.151	0.139
-641.682	713.546	0.055	0.146
-640.668	429.482	0.069	-0.151
-639.653	-169.135	-0.294	-0.011
-638.638	-141.545	-0.457	0.047
-637.624	54.311	-0.151	0.147
-636.609	-200.000	-0.048	0.263
-635.595	396.403	-0.154	-0.324
-634.580	800.000	-0.106	-0.306
-633.565	38.375	-0.104	-0.093
-632.551	218.146	-0.067	-0.107
-631.536	-96.413	0.354	0.094
-630.522	255.370	-0.195	-0.336
-629.507	-200.000	-0.003	-0.140
-628.492	-200.000	0.034	-0.254
-627.478	-87.148	-0.041	0.013
-626.463	800.000	0.055	-0.204
-625.449	800.000	-0.107	-0.331
-624.434	2.505	0.081	-0.059
-623.419	219.061	0.141	0.226
-622.405	82.547	-0.234	-0.256
-621.390	800.000	-0.040	-0.150
-620.376	82.208	-0.184	-0.201
-619.361	-35.187	-0.107	0.059
-618.346	162.231	0.025	0.035
-617.332	-41.483	-0.194	0.101
-616.317	144.753	-0.115	-0.154
-615.303	280.252	0.180	0.324
-614.288	704.409	0.021	-0.057
-613.273	-200.000	-0.008	-0.110
-612.259	-56.468	0.271	-0.121
-611.244	20.359	-0.211	-0.172
-610.230	111.210	0.125	-0.151
-609.215	800.000	0.111	-0.415
-608.201	-135.322	0.074	0.009
-607.186	-200.000	0.092	0.434
-606.171	-40.459	-0.207	-0.108
-605.157	-28.998	0.390	-0.225
-604.142	2.642	0.396	0.289
-603.128	59.126	0.085	-0.084
-602.113	-90.672	-0.233	0.068
-601.098	431.340	0.064	0.139
-600.084	-101.105	-0.208	-0.051
-599.069	-14.295	0.300	-0.194
-598.055	-200.000	0.008	-0.099
-597.040	-128.025	0.745	0.108
-596.025	-200.000	0.024	-0.336
-595.011	3.794	-0.255	0.187
-593.996	400.507	-0.033	0.069
-592.982	800.000	0.094	0.317
-591.967	380.554	0.029	-0.059
-590.952	-200.000	-0.048	-0.296
-589.938	602.108	-0.055	0.138
-588.923	290.236	-0.055	-0.101
-587.909	-24.796	0.321	0.192
-586.894	-62.094	-0.112	0.047
-585.879	-179.660	0.097	0.002
-584.865	-122.324	-0.285	0.047
-583.850	-14.089	-0.350	-0.227
-582.836	800.000	0.063	-0.250
-581.821	-95.522	0.273	-0.074
-580.806	213.812	0.090	-0.143
-579.792	132.954	0.217	-0.282
-578.777	31.901	0.082	-0.071
-577.763	54.329	-0.168	-0.162
-576.748	-200.000	0.020	0.232
-575.733	-8.035	-0.292	0.198
-574.719	12.119	0.139	-0.108
-573.704	219.692	0.143	-0.230
-572.690	-93.303	0.049	-0.014
-571.675	-58.487	0.252	-0.110
-570.661	216.898	0.258	0.414
-569.646	-158.573	0.271	-0.016
-568.631	-200.000	0.002	0.132
-567.617	20.724	-0.358	0.291
-566.602	-173.388	-0.196	-0.006
-565.588	182.821	0.076	0.112
-564.573	-200.000	-0.009	-0.252
-563.558	-120.821	-0.307	-0.052
-562.544	-130.825	-0.256	0.035
-561.529	-111.535	0.224	-0.046
-560.515	-10.272	-0.270	-0.180
-559.500	108.378	-0.197	-0.236
-558.485	50.440	0.202	0.192
-557.471	-88.505	0.276	-0.083
-556.456	-156.818	-0.154	-0.010
-555.442	800.000	0.038	-0.129
-554.427	-22.958	0.168	0.102
-553.412	800.000	-0.023	-0.083
-552.398	25.151	-0.251	-0.210
-551.383	124.868	0.132	0.167
-550.369	-200.000	-0.003	-0.029
-549.354	102.707	0.213	0.251
-548.339	234.469	0.054	-0.090
-547.325	800.000	-0.014	0.062
-546.310	-112.490	0.142	-0.029
-545.296	-87.970	-0.292	0.088
-544.281	-37.782	-0.199	-0.107
-543.266	800.000	-0.121	0.386
-542.252	147.150	-0.129	-0.174
-541.237	131.238	-0.113	-0.146
-540.223	-94.810	0.102	0.028
-539.208	-90.732	-0.170	0.049
-538.193	-127.378	0.412	-0.060
-537.179	-85.300	0.171	-0.054
-536.164	-200.000	-0.036	-0.198
-535.150	80.680	-0.108	0.117
-534.135	-16.020	0.100	0.064
-533.121	-101.962	-0.148	0.036
-532.106	114.727	-0.205	-0.250
-531.091	-20.198	-0.264	0.163
-530.077	-53.193	0.528	0.243
-529.062	-2.880	-0.236	-0.166
-528.048	525.438	0.191	-0.452
-527.033	-10.295	0.148	-0.098
-526.018	-92.283	-0.348	-0.098
-525.004	117.988	0.196	-0.242
-523.989	-200.000	0.054	0.300
-522.975	-12.854	0.170	0.111
-521.960	-153.392	0.242	0.017
-520.945	-68.977	0.108	0.042
-519.931	-200.000	-0.010	-0.302
-518.916	800.000	0.089	-0.348
-517.902	6.763	0.134	0.100
-516.887	127.809	0.206	0.263
-515.872	-200.000	-0.009	0.123
-514.858	75.533	-0.276	-0.293
-513.843	800.000	-0.041	0.138
-512.829	294.216	0.163	-0.298
-511.814	43.611	-0.062	-0.057
-510.799	-200.000	0.027	-0.222
-509.785	-200.000	0.003	-0.145
-508.770	158.259	0.134	0.187
-507.756	-200.000	-0.041	-0.391
-506.741	-103.516	-0.200	0.047
-505.726	-200.000	0.061	0.281
-504.712	262.217	-0.057	0.098
-503.697	-123.350	0.138	0.022
-502.683	-88.836	-0.295	-0.088
-501.668	-30.968	-0.363	0.205
-500.653	-200.000	-0.004	0.171
-499.639	182.249	-0.282	-0.417
-498.624	-90.663	-0.240	-0.070
-497.610	15.727	-0.066	0.052
-496.595	-62.488	0.210	0.087
-495.581	-33.183	0.181	0.100
-494.566	70.500	-0.143	-0.149
-493.551	-159.953	0.119	0.006
-492.537	-74.997	0.057	-0.020
-491.522	-200.000	0.023	-0.291
-490.508	519.881	0.072	-0.170
-489.493	764.277	0.030	0.082
-488.478	105.416	-0.092	-0.108
-487.464	800.000	-0.021	-0.081
-486.449	-192.371	-0.192	0.002
-485.435	-82.124	-0.247	-0.081
-484.420	-200.000	0.021	0.212
-483.405	800.000	0.072	-0.225
-482.391	-121.422	0.338	-0.056
-481.376	-200.000	-0.022	0.169
-480.362	-120.448	0.175	0.030
-479.347	-32.979	0.163	-0.090
-478.332	-69.076	0.245	0.094
-477.318	-200.000	-0.000	-0.200
-476.303	800.000	-0.088	0.359
-475.289	800.000	0.018	0.065
-474.274	800.000	0.047	-0.178
-473.259	-47.441	-0.293	0.143
-472.245	-33.251	-0.106	0.059
-471.230	-124.684	-0.334	-0.052
-470.216	-61.426	-0.211	0.089
-469.201	-101.497	0.067	0.016
-468.186	785.061	0.040	-0.111
-467.172	800.000	-0.044	0.151
-466.157	15.620	-0.124	-0.098
-465.143	95.572	-0.169	-0.193
-464.128	-111.986	-0.088	-0.018
-463.113	1.513	-0.157	-0.113
-462.099	-200.000	0.003	0.083
-461.084	-44.606	-0.224	0.112
-460.070	-99.772	0.319	0.080
-459.055	126.160	-0.131	-0.166
-458.040	215.931	0.153	0.243
-457.026	102.305	0.175	0.205
-456.011	-29.195	0.087	-0.050
-454.997	672.677	-0.059	0.154
-453.982	-60.812	0.145	-0.062
-452.968	-67.190	-0.119	0.047
-451.953	-136.424	0.017	0.002
-450.938	-61.298	-0.291	0.123
-449.924	800.000	-0.173	0.519
-448.909	-200.000	-0.010	-0.112
-447.895	180.464	0.075	0.110
-446.880	-200.000	-0.002	0.020
-445.865	321.279	-0.281	-0.534
-444.851	358.667	-0.065	0.129
-443.836	-200.000	0.008	-0.129
-442.822	-112.730	0.135	-0.027
-441.807	219.748	0.065	-0.104
-440.792	-79.181	0.176	0.060
-439.778	-44.493	-0.211	-0.106
-438.763	-36.479	0.322	-0.173
-437.749	-72.394	0.100	0.037
-436.734	-149.907	-0.112	0.009
-435.719	-16.991	-0.273	-0.172
-434.705	22.776	-0.058	-0.047
-433.690	124.822	-0.064	-0.081
-432.676	65.713	0.132	-0.134
-431.661	-40.423	-0.322	0.167
-430.646	750.130	-0.034	0.092
-429.632	800.000	-0.067	-0.247
-428.617	-200.000	-0.044	-0.251
-427.603	53.292	-0.263	0.252
-426.588	800.000	0.090	0.307
-425.573	-200.000	-0.055	0.260
-424.559	800.000	0.082	-0.299
-423.544	47.290	0.033	0.031
-422.530	77.999	-0.173	0.185
-421.515	-193.114	-0.146	-0.001
-420.500	-165.099	0.418	0.019
-419.486	-1.282	-0.187	-0.132
-418.471	245.087	-0.100	0.168
-417.457	-4.291	0.309	-0.213
-416.442	622.400	0.092	-0.231
-415.428	44.839	0.177	0.163
-414.413	638.752	-0.076	-0.194
-413.398	-140.777	0.259	0.027
-412.384	170.549	0.120	0.172
-411.369	345.898	-0.056	0.109
-410.355	-200.000	-0.002	0.091
-409.340	-69.489	-0.100	0.038
-408.325	271.147	-0.039	-0.068
-407.311	-200.000	0.048	-0.232
-406.296	-60.584	0.182	-0.077
-405.282	-45.293	-0.290	-0.144
-404.267	141.923	-0.028	0.037
-403.252	65.762	0.042	0.043
-402.238	-94.722	0.228	-0.062
-401.223	-32.054	-0.260	-0.145
-400.209	-74.133	0.104	-0.037
-399.194	118.369	-0.085	0.105
-398.179	-200.000	0.026	0.252
-397.165	-162.481	-0.351	-0.017
-396.150	-200.000	-0.049	0.418
-395.136	800.000	-0.095	0.283
-394.121	-110.509	0.050	-0.010
-393.106	439.308	0.096	-0.209
-392.092	-152.702	0.461	0.033
-391.077	-200.000	-0.011	-0.243
-390.063	-110.105	0.311	-0.065
-389.048	-99.920	-0.398	-0.099
-388.033	-68.912	0.270	0.104
-387.019	-200.000	0.006	0.075
-386.004	-200.000	-0.009	-0.060
-384.990	-143.471	0.449	0.043
-383.975	-200.000	0.022	0.510
-382.960	59.086	0.225	-0.221
-381.946	153.823	0.079	0.108
-380.931	-75.662	0.107	-0.038
-379.917	800.000	-0.030	0.114
-378.902	248.435	0.012	0.019
-377.888	125.709	-0.213	-0.268
-376.873	12.058	0.179	0.137
-375.858	-17.076	-0.195	-0.123
-374.844	-106.817	-0.205	-0.045
-373.829	-24.204	0.292	-0.174
-372.815	317.265	0.124	-0.234
-371.800	-145.464	0.169	-0.015
-370.785	309.088	0.090	0.168
-369.771	65.551	-0.061	0.062
-368.756	-30.072	-0.098	0.056
-367.742	149.324	-0.251	-0.340
-366.727	-200.000	-0.016	0.206
-365.712	-76.224	0.186	-0.066
-364.698	-82.324	0.308	0.100
-363.683	-133.234	-0.106	0.013
-362.669	-155.428	-0.032	-0.002
-361.654	-192.776	0.322	0.003
-360.639	-180.462	0.167	0.003
-359.625	-200.000	-0.026	-0.169
-358.610	21.379	0.074	-0.060
-357.596	800.000	0.155	-0.470
-356.581	-200.000	-0.007	-0.237
-355.566	-77.633	0.447	0.154
-354.552	-68.496	0.135	-0.052
-353.537	-59.700	-0.287	-0.123
-352.523	-200.000	-0.015	0.073
-351.508	162.312	-0.097	0.136
-350.493	-123.880	0.405	-0.064
-349.479	302.598	-0.302	-0.557
-348.464	-31.437	-0.202	0.113
-347.450	81.812	-0.240	0.259
-346.435	606.323	0.114	0.282
-345.420	-81.277	-0.233	-0.077
-344.406	800.000	0.116	0.354
-343.391	-200.000	0.003	0.018
-342.377	45.760	0.226	-0.209
-341.362	166.836	-0.072	-0.101
-340.348	-116.603	0.067	0.012
-339.333	800.000	-0.062	-0.179
-338.318	-200.000	0.015	-0.133
-337.304	800.000	-0.088	-0.317
-336.289	-80.854	0.148	0.049
-335.275	-149.566	0.328	-0.026
-334.260	162.044	-0.167	-0.233
-333.245	72.300	0.081	-0.085
-332.231	20.799	0.142	0.115
-331.216	-184.694	0.216	-0.003
-330.202	91.546	-0.146	0.164
-329.187	-39.787	-0.101	0.053
-328.172	800.000	0.087	-0.377
-327.158	-178.911	-0.242	0.005
-326.143	485.426	0.188	0.427
-325.129	234.830	-0.118	-0.193
-324.114	126.898	0.168	-0.212
-323.099	-169.230	-0.249	0.009
-322.085	-65.498	-0.292	0.117
-321.070	-109.826	-0.195	-0.041
-320.056	-27.525	-0.180	-0.104
-319.041	60.072	-0.144	-0.141
-318.026	536.855	0.105	0.248
-317.012	607.714	0.025	0.062
-315.997	-126.228	0.100	-0.015
-314.983	-12.661	-0.224	0.145
-313.968	109.692	-0.193	-0.230
-312.953	800.000	-0.034	0.120
-311.939	-200.000	0.033	-0.445
-310.924	-200.000	-0.002	-0.212
-309.910	47.467	0.062	-0.057
-308.895	-62.288	-0.022	0.009
-307.880	-200.000	0.023	0.181
-306.866	420.210	0.106	0.226
-305.851	-98.088	0.031	0.008
-304.837	-36.569	0.175	0.094
-303.822	-45.316	-0.132	0.065
-302.807	-200.000	-0.007	0.035
-301.793	95.267	0.246	-0.279
-300.778	151.658	0.086	-0.117
-299.764	373.684	0.097	0.196
-298.749	-117.369	0.337	0.061
-297.735	333.729	-0.208	-0.400
-296.720	72.347	0.090	0.094
-295.705	-77.951	-0.255	-0.087
-294.691	-91.058	0.238	0.068
-293.676	30.965	-0.357	-0.304
-292.662	-69.840	-0.114	0.043
-291.647	-163.440	-0.195	0.009
-290.632	154.391	-0.085	0.116
-289.618	-40.961	0.124	0.064
-288.603	311.374	0.066	-0.124
-287.589	-129.591	0.450	0.062
-286.574	638.042	-0.031	-0.078
-285.559	10.956	-0.012	-0.009
-284.545	70.934	-0.092	-0.095
-283.530	198.418	0.145	-0.221
-282.516	-16.942	-0.283	0.178
-281.501	-92.543	0.072	-0.020
-280.486	604.321	0.069	0.171
-279.472	-200.000	-0.007	0.122
-278.457	-200.000	0.005	0.110
-277.443	-92.664	0.245	0.068
-276.428	-62.755	-0.303	-0.125
-275.413	-155.541	-0.251	0.016
-274.399	800.000	-0.016	-0.060
-273.384	213.378	0.150	0.235
-272.370	-122.211	-0.161	-0.026
-271.355	4.424	-0.293	0.214
-270.340	800.000	0.092	0.259
-269.326	104.279	-0.103	0.121
-268.311	40.087	0.169	0.151
-267.297	164.739	0.195	0.274
-266.282	-106.365	-0.415	0.092
-265.267	-200.000	0.039	0.191
-264.253	227.454	-0.140	0.227
-263.238	-150.638	0.193	-0.015
-262.224	-19.050	-0.162	0.100
-261.209	82.338	0.110	0.118
-260.195	-200.000	-0.040	0.236
-259.180	163.619	-0.146	-0.204
-258.165	-81.040	0.111	0.036
-257.151	-28.938	-0.295	0.168
-256.136	-138.299	-0.147	0.016
-255.122	-36.847	0.139	-0.074
-254.107	-82.328	0.076	-0.025
-253.092	-62.298	-0.284	-0.118
-252.078	65.128	0.115	-0.116
-251.063	28.048	-0.116	0.097
-250.049	-14.076	-0.121	0.077
-249.034	2.123	0.274	0.196
-248.019	-21.733	0.308	-0.186
-247.005	295.803	0.058	0.106
-245.990	-85.438	0.159	0.049
-244.976	778.272	-0.104	0.281
-243.961	-163.103	0.252	-0.012
-242.946	800.000	-0.088	0.350
-241.932	-67.202	-0.189	-0.074
-240.917	-64.000	-0.126	0.051
-239.903	215.668	-0.166	0.261
-238.888	-115.179	0.359	-0.068
-237.873	-97.310	-0.155	0.040
-236.859	-35.598	0.302	0.163
-235.844	323.960	0.174	-0.329
-234.830	596.620	0.129	-0.317
-233.815	-200.000	0.007	0.056
-232.800	186.116	-0.227	0.335
-231.786	-200.000	0.041	0.206
-230.771	-134.553	0.198	0.024
-229.757	-152.177	0.040	-0.003
-228.742	-200.000	-0.071	-0.356
-227.727	89.867	-0.114	-0.126
-226.713	-200.000	-0.010	-0.383
-225.698	18.969	-0.087	-0.069
-224.684	304.621	-0.208	0.384
-223.669	149.925	0.067	-0.090
-222.655	-200.000	-0.021	-0.109
-221.640	-110.028	0.158	-0.033
-220.625	92.794	0.056	-0.062
-219.611	380.216	0.172	0.351
-218.596	56.741	-0.089	-0.086
-217.582	176.034	-0.096	-0.139
-216.567	17.851	0.101	-0.080
-215.552	47.463	-0.096	0.089
-214.538	30.723	-0.197	-0.167
-213.523	-13.575	0.243	0.156
-212.509	-99.953	-0.356	0.088
-211.494	-200.000	0.194	0.000
-210.479	210.304	-0.011	-0.018
-209.465	800.000	-0.101	0.351
-208.450	-3.372	0.213	-0.147
-207.436	800.000	0.103	0.341
-206.421	-200.000	0.036	0.389
-205.406	-112.043	0.174	-0.035
-204.392	586.309	-0.042	-0.103
-203.377	-139.439	-0.096	0.010
-202.363	-132.642	0.199	0.025
-201.348	31.107	0.419	-0.356
-200.333	800.000	0.094	-0.260
-199.319	800.000	-0.053	-0.224
-198.304	800.000	0.054	-0.217
-197.290	800.000	-0.031	-0.108
-196.275	458.934	-0.038	0.084
-195.260	794.589	-0.151	0.411
-194.246	-67.909	0.101	0.039
-193.231	-182.222	-0.191	0.004
-192.217	-168.027	0.308	0.012
-191.202	-200.000	-0.013	0.235
-190.187	-169.313	0.115	0.004
-189.173	121.365	0.174	0.215
-188.158	800.000	0.077	0.263
-187.144	149.604	0.029	-0.038
-186.129	335.815	-0.018	0.034
-185.114	436.808	-0.055	-0.118
-184.100	297.854	0.145	-0.264
-183.085	-125.076	-0.545	0.083
-182.071	-65.483	-0.322	0.128
-181.056	151.538	-0.114	0.154
-180.042	-200.000	0.076	0.412
-179.027	741.919	-0.105	0.279
-178.012	146.887	-0.075	-0.100
-176.998	-71.570	0.283	0.105
-175.983	279.489	-0.021	0.037
-174.969	103.473	-0.313	-0.363
-173.954	-200.000	0.073	0.338
-172.939	-200.000	0.045	0.257
-171.925	-200.000	-0.048	0.231
-170.910	0.612	-0.032	0.023
-169.896	-43.778	0.368	0.183
-168.881	-24.281	-0.101	0.060
-167.866	-93.633	0.371	-0.101
-166.852	11.374	-0.224	0.170
-165.837	-159.034	-0.144	0.008
-164.823	-14.610	0.132	-0.084
-163.808	580.229	-0.141	0.341
-162.793	118.022	-0.293	-0.357
-161.779	440.416	0.104	0.226
-160.764	19.366	0.145	-0.115
-159.750	-200.000	-0.023	0.122
-158.735	139.003	0.020	-0.026
-157.720	-200.000	-0.018	0.456
-156.706	800.000	-0.038	-0.118
-155.691	-48.734	-0.121	0.058
-154.677	-10.096	0.150	0.099
-153.662	-58.534	0.008	-0.003
-152.647	74.276	-0.073	0.076
-151.633	9.660	-0.124	-0.093
-150.618	-3.871	-0.338	0.232
-149.604	-200.000	0.093	0.442
-148.589	-124.848	0.355	0.054
-147.574	-200.000	-0.019	0.182
-146.560	-200.000	-0.035	-0.334
-145.545	-101.046	-0.026	0.006
-144.531	-200.000	0.020	-0.318
-143.516	-102.415	-0.091	-0.022
-142.502	61.484	0.155	-0.152
-141.487	-200.000	-0.074	-0.449
-140.472	-21.224	-0.143	0.086
-139.458	800.000	-0.058	0.223
-138.443	305.528	0.089	0.163
-137.429	-4.453	-0.058	-0.040
-136.414	-40.229	0.230	0.118
-135.399	45.014	-0.104	-0.095
-134.385	800.000	-0.072	-0.217
-133.370	-128.460	-0.227	-0.032
-132.356	-200.000	-0.052	-0.332
-131.341	800.000	-0.038	0.115
-130.326	800.000	-0.059	0.183
-129.312	143.715	0.117	-0.154
-128.297	8.640	-0.326	-0.243
-127.283	-46.593	-0.205	-0.099
-126.268	-85.353	0.121	0.037
-125.253	-120.067	-0.040	-0.007
-124.239	-200.000	-0.050	-0.397
-123.224	-200.000	0.209	0.001
-122.210	309.409	0.091	0.169
-121.195	1.192	-0.250	0.178
-120.180	-90.634	0.282	0.080
-119.166	58.787	-0.181	-0.176
-118.151	-200.000	-0.034	-0.201
-117.137	223.044	-0.064	-0.102
-116.122	154.721	-0.159	0.216
-115.107	-22.204	-0.167	0.100
-114.093	753.671	0.161	0.430
-113.078	-78.258	-0.168	-0.057
-112.064	-122.605	0.165	0.026
-111.049	-48.193	-0.232	-0.111
-110.034	20.249	-0.146	0.117
-109.020	-26.091	0.149	0.086
-108.005	-200.000	0.045	-0.244
-106.991	-156.716	0.142	0.009
-105.976	117.052	0.157	-0.190
-104.962	-70.117	-0.189	0.071
-103.947	18.355	-0.029	-0.023
-102.932	-200.000	-0.007	-0.129
-101.918	145.006	0.165	-0.218
-100.903	-33.224	0.247	-0.135
-99.889	-55.340	0.078	0.035
-98.874	79.826	-0.162	0.172
-97.859	138.749	-0.125	-0.162
-96.845	-122.472	0.229	-0.037
-95.830	82.753	-0.038	-0.041
-94.816	90.788	0.104	-0.115
-93.801	89.194	0.156	-0.172
-92.786	432.161	-0.035	0.074
-91.772	80.344	-0.213	-0.227
-90.757	800.000	0.123	-0.363
-89.743	54.451	-0.191	-0.181
-88.728	-141.713	-0.138	0.014
-87.713	-200.000	-0.001	0.049
-86.699	-22.286	-0.121	0.072
-85.684	-34.682	0.186	-0.100
-84.670	91.105	-0.141	0.157
-83.655	151.636	0.213	0.287
-82.640	-122.118	0.460	-0.074
-81.626	-72.494	-0.108	-0.039
-80.611	-200.000	0.004	-0.208
-79.597	-200.000	0.017	-0.129
-78.582	-75.599	-0.081	0.029
-77.567	-200.000	-0.005	-0.072
-76.553	-200.000	0.011	-0.274
-75.538	-50.874	0.093	0.043
-74.524	-200.000	0.004	-0.022
-73.509	-70.153	-0.278	0.104
-72.494	-200.000	-0.016	0.185
-71.480	22.872	-0.170	0.138
-70.465	379.749	-0.026	0.053
-69.451	272.366	0.115	0.201
-68.436	-200.000	0.031	0.255
-67.422	-103.819	0.307	-0.071
-66.407	34.913	0.310	0.268
-65.392	193.888	-0.035	-0.052
-64.378	310.360	-0.022	0.041
-63.363	800.000	0.007	0.023
-62.349	-200.000	-0.012	0.271
-61.334	80.514	-0.866	-0.920
-60.319	200.223	0.400	0.605
-59.305	422.184	-0.427	-0.902
-58.290	111.455	0.908	1.079
-57.276	465.045	0.659	1.454
-56.261	-200.000	97.894	588.251
-55.246	548.895	1392.826	3288.770
-54.232	154.132	2587.186	3497.372
-53.217	113.324	2175.462	2601.310
-52.203	44.452	1712.665	1550.162
-51.188	37.223	1525.665	1331.503
-50.173	34.877	1498.747	1292.126
-49.159	54.794	1549.340	1472.981
-48.144	57.725	1568.475	1511.236
-47.130	37.660	1523.973	1332.807
-46.115	34.368	1508.948	1297.249
-45.100	34.190	1505.436	1292.974
-44.086	34.260	1503.542	1291.768
-43.071	34.172	1501.728	1289.562
-42.057	34.009	1500.483	1287.340
-41.042	34.027	1498.916	1286.065
-40.027	34.224	1497.205	1285.874
-39.013	34.110	1495.933	1283.967
-37.998	34.078	1494.367	1282.353
-36.984	34.092	1494.026	1282.104
-35.969	34.113	1492.078	1280.523
-34.954	34.105	1490.187	1278.796
-33.940	34.175	1488.844	1278.064
-32.925	34.101	1488.095	1276.869
-31.911	34.080	1486.482	1275.297
-30.896	34.214	1485.451	1275.257
-29.881	34.195	1484.106	1273.925
-28.867	34.186	1482.632	1272.552
-27.852	34.199	1481.221	1271.378
-26.838	34.146	1479.964	1269.894
-25.823	34.214	1478.209	1268.788
-24.809	34.142	1476.582	1266.866
-23.794	34.208	1474.770	1265.700
-22.779	34.087	1474.375	1264.502
-21.765	34.137	1472.954	1263.566
-20.750	34.181	1471.745	1262.774
-19.736	34.115	1470.880	1261.544
-18.721	34.232	1469.285	1260.901
-17.706	34.134	1468.602	1259.615
-16.692	34.096	1467.457	1258.331
-15.677	34.065	1466.933	1257.627
-14.663	34.052	1466.152	1256.823
-13.648	34.031	1465.042	1255.682
-12.633	34.066	1464.244	1255.180
-11.619	34.213	1462.879	1254.928
-10.604	34.128	1462.264	1253.790
-9.590	34.167	1460.902	1252.829
-8.575	34.146	1460.076	1251.936
-7.560	34.120	1459.784	1251.459
-6.546	34.097	1458.967	1250.558
-5.531	34.071	1458.186	1249.671
-4.517	34.121	1456.677	1248.656
-3.502	34.118	1455.990	1248.000
-2.487	34.011	1454.838	1246.259
-1.473	34.132	1453.506	1245.863
-0.458	34.084	1452.843	1244.931
0.556	34.367	1442.990	1233.589
1.571	31.516	1418.414	1194.301
2.586	28.394	1357.570	1123.857
3.600	26.783	1277.090	1047.838
4.615	25.547	1230.841	1002.909
5.629	21.898	1173.826	936.919
6.644	11.525	1085.841	815.101
7.659	3.194	1043.249	742.973
8.673	2.024	1037.366	733.102
9.688	1.887	1034.038	730.027
10.702	1.833	1032.315	728.488
11.717	1.726	1030.657	726.743
12.731	5.468	1035.367	747.917
13.746	15.627	1049.516	807.085
14.761	23.108	1059.319	850.671
15.775	24.763	1060.102	859.187
16.790	25.000	1059.844	860.038
17.804	24.887	1059.317	858.991
18.819	24.656	1058.229	856.926
19.834	24.714	1057.744	856.734
20.848	24.939	1056.703	856.892
21.863	25.057	1056.810	857.467
22.877	24.961	1056.699	856.844
23.892	25.029	1055.811	856.373
24.907	24.758	1055.047	854.381
25.921	24.748	1054.600	853.896
26.936	24.876	1053.472	853.519
27.950	24.805	1052.393	852.231
28.965	24.814	1051.540	851.508
29.980	24.672	1049.883	849.418
30.994	24.699	1048.644	848.466
32.009	24.898	1048.160	848.942
33.023	24.955	1047.554	848.647
34.038	24.763	1046.047	846.444
35.053	24.869	1045.133	846.128
36.067	24.865	1045.298	846.169
37.082	24.803	1044.730	845.343
38.096	24.951	1043.141	844.678
39.111	25.125	1042.587	844.976
40.126	25.230	1041.999	844.918
41.140	25.081	1040.345	842.804
42.155	24.935	1038.968	840.929
43.169	24.547	1038.151	838.371
44.184	24.478	1036.935	836.992
45.199	24.580	1036.517	837.057
46.213	24.419	1035.388	835.318
47.228	24.485	1034.684	834.987
48.242	24.640	1033.901	835.004
49.257	24.641	1033.420	834.546
50.271	24.666	1032.826	834.110
51.286	24.855	1031.877	834.151
52.301	24.968	1031.250	834.098
53.315	25.000	1030.068	833.215
54.330	24.891	1029.360	832.062
55.344	24.775	1028.816	831.011
56.359	24.919	1027.541	830.574
57.374	24.862	1026.838	829.670
58.388	24.576	1026.087	827.665
59.403	24.684	1025.096	827.289
60.417	24.703	1024.672	826.961
61.432	24.543	1023.929	825.552
62.447	24.556	1023.272	825.005
63.461	24.653	1022.666	824.894
64.476	24.845	1021.371	824.663
65.490	24.682	1020.633	823.241
66.505	24.625	1019.975	822.374
67.520	24.608	1019.106	821.524
68.534	24.487	1018.977	820.794
69.549	24.467	1017.655	819.561
70.563	24.250	1016.628	817.667
71.578	24.155	1015.753	816.454
72.593	24.172	1015.108	815.944
73.607	24.068	1014.024	814.526
74.622	23.984	1013.062	813.296
75.636	24.163	1012.671	813.726
76.651	24.506	1011.671	814.415
77.666	24.292	1010.853	812.710
78.680	24.219	1009.986	811.608
79.695	24.175	1009.632	811.053
80.709	24.346	1009.338	811.522
81.724	24.502	1008.036	811.113
82.739	24.540	1007.418	810.717
83.753	24.385	1006.615	809.293
84.768	24.830	1005.676	810.482
85.782	25.025	1005.732	811.340
86.797	25.256	1004.775	811.541
87.812	25.188	1003.953	810.497
88.826	25.034	1003.094	809.037
89.841	24.979	1002.784	808.470
90.855	25.153	1001.970	808.527
91.870	25.043	1000.923	807.114
92.884	25.170	1000.120	806.966
93.899	25.038	998.964	805.368
94.914	25.061	998.310	804.873
95.928	24.998	997.799	804.108
96.943	25.032	996.655	803.266
97.957	24.873	994.989	801.142
98.972	24.503	994.802	799.263
99.987	24.303	993.707	797.419
101.001	24.395	993.484	797.582
102.016	24.690	992.725	798.218
103.030	24.795	991.974	798.013
104.045	24.910	990.304	797.112
105.060	24.549	989.549	794.826
106.074	24.451	988.351	793.359
107.089	24.466	987.667	792.807
108.103	24.841	987.380	794.170
109.118	24.895	986.368	793.525
110.133	24.592	985.033	791.039
111.147	24.669	983.854	790.361
112.162	24.382	983.329	788.602
113.176	24.212	982.171	786.853
114.191	24.404	981.330	786.955
115.206	24.540	980.555	786.865
116.220	24.255	979.201	784.454
117.235	24.127	978.057	782.906
118.249	24.202	977.755	782.925
119.264	24.276	976.637	782.283
120.279	24.169	976.097	781.315
121.293	24.185	975.276	780.660
122.308	24.277	974.398	780.288
123.322	24.223	973.859	779.554
124.337	24.309	972.454	778.736
125.352	24.254	971.292	777.497
126.366	23.801	970.065	774.469
127.381	23.494	968.562	771.865
128.395	23.986	968.543	773.922
129.410	24.652	967.936	776.261
130.424	24.771	967.376	776.263
131.439	24.691	966.781	775.370
132.454	24.655	965.364	774.010
133.468	24.821	964.387	773.875
134.483	24.733	963.493	772.710
135.497	24.684	963.342	772.304
136.512	24.846	962.974	772.643
137.527	25.082	961.855	772.694
138.541	25.048	961.333	772.062
139.556	25.032	960.583	771.322
140.570	25.056	959.467	770.458
141.585	24.986	959.197	769.876
142.600	25.136	958.454	769.851
143.614	25.032	957.298	768.410
144.629	25.200	956.156	768.147
145.643	25.333	955.969	768.497
146.658	25.333	954.743	767.444
147.673	24.916	954.041	765.028
148.687	24.998	952.629	764.181
149.702	24.935	951.445	762.894
150.716	24.939	950.580	762.150
151.731	24.761	949.729	760.644
152.746	24.956	948.977	760.803
153.760	25.008	948.872	760.874
154.775	25.241	947.737	760.881
155.789	25.276	946.900	760.292
156.804	25.079	946.211	758.839
157.819	25.175	945.247	758.403
158.833	25.099	944.437	757.366
159.848	25.156	943.854	757.071
160.862	25.383	942.872	757.172
161.877	25.176	941.979	755.518
162.892	25.040	941.267	754.307
163.906	25.074	940.339	753.641
164.921	25.188	939.006	752.982
165.935	25.169	938.287	752.261
166.950	25.259	937.008	751.545
167.964	25.143	936.428	750.528
168.979	25.104	935.591	749.627
169.994	25.075	934.066	748.217
171.008	24.904	933.509	746.990
172.023	24.977	933.039	746.855
173.037	25.228	931.817	746.857
174.052	24.951	930.798	744.819
175.067	24.823	929.763	743.395
176.081	24.803	928.933	742.583
177.096	24.962	928.090	742.504
178.110	24.937	927.518	741.874
179.125	24.705	926.673	740.173
180.140	24.657	925.084	738.640
181.154	24.512	924.784	737.736
182.169	24.663	924.076	737.729
183.183	24.827	924.290	738.512
184.198	24.993	924.085	738.969
185.213	25.149	922.927	738.619
186.227	25.007	922.571	737.682
187.242	25.201	922.088	738.031
188.256	25.227	921.151	737.324
189.271	25.185	920.149	736.282
190.286	25.311	919.506	736.218
191.300	25.155	918.736	734.901
192.315	24.604	917.345	731.468
193.329	23.897	915.068	726.700
194.344	23.367	914.535	724.044
195.359	24.001	915.057	726.986
196.373	24.859	915.524	730.798
197.388	25.152	915.174	731.647
198.402	25.122	914.382	730.828
199.417	25.101	913.640	730.083
200.432	25.123	913.506	730.002
201.446	24.957	912.545	728.495
202.461	24.544	911.678	726.059
203.475	24.754	911.458	726.676
204.490	24.278	910.016	723.530
205.504	23.214	907.815	717.405
206.519	23.536	907.881	718.698
207.534	24.392	908.441	722.547
208.548	24.500	907.834	722.438
209.563	24.926	907.237	723.621
210.577	24.888	906.974	723.193
211.592	24.572	906.378	721.377
212.607	24.954	905.980	722.539
213.621	25.104	905.367	722.591
214.636	25.152	904.344	721.901
215.650	25.228	904.040	721.904
216.665	25.160	903.117	720.829
217.680	25.222	903.052	720.963
218.694	25.324	902.475	720.847
219.709	25.002	901.269	718.530
220.723	24.589	900.735	716.382
221.738	24.982	899.724	717.090
222.753	24.963	899.818	717.024
223.767	24.996	898.850	716.324
224.782	25.243	897.809	716.413
225.796	25.248	897.717	716.300
226.811	25.342	897.250	716.235
227.826	24.957	895.736	713.432
228.840	24.180	894.456	709.257
229.855	24.107	893.733	708.332
230.869	24.300	893.454	708.817
231.884	24.022	892.129	706.599
232.899	24.052	892.164	706.680
233.913	24.803	892.310	709.716
234.928	25.000	891.761	709.997
235.942	24.823	891.116	708.720
236.957	24.869	890.681	708.493
237.972	24.644	889.447	706.557
238.986	24.512	888.765	705.432
240.001	24.660	888.385	705.653
241.015	24.781	887.284	705.193
242.030	24.692	886.812	704.406
243.045	24.915	886.302	704.818
244.059	24.962	885.897	704.617
245.074	25.136	885.735	705.109
246.088	25.151	884.861	704.409
247.103	24.670	883.909	701.703
248.117	24.722	883.638	701.628
249.132	25.336	883.449	703.826
250.147	25.605	883.329	704.720
251.161	25.673	882.510	704.270
252.176	26.062	882.016	705.335
253.190	25.942	881.547	704.430
254.205	26.000	881.153	704.281
255.220	26.091	881.131	704.553
256.234	26.191	879.809	703.825
257.249	26.069	879.152	702.762
258.263	25.752	878.719	701.121
259.278	25.934	878.216	701.366
260.293	26.002	877.866	701.288
261.307	26.033	877.110	700.741
262.322	25.875	876.489	699.569
263.336	25.780	876.049	698.789
264.351	25.452	874.551	696.259
265.366	24.239	872.523	689.891
266.380	23.742	871.732	687.283
267.395	24.558	872.490	690.977
268.409	25.499	872.339	694.434
269.424	25.424	871.400	693.338
270.439	25.572	871.419	693.863
271.453	25.670	870.574	693.505
272.468	25.791	869.807	693.298
273.482	25.954	869.496	693.617
274.497	25.989	869.575	693.752
275.512	25.712	868.268	691.585
276.526	25.145	866.658	688.066
277.541	25.391	866.147	688.544
278.555	25.801	866.017	689.951
279.570	25.646	865.226	688.664
280.585	25.318	864.669	686.907
281.599	25.527	863.983	687.099
282.614	25.559	864.030	687.198
283.628	25.245	862.509	684.728
284.643	24.704	862.032	682.225
285.657	25.228	861.826	684.001
286.672	25.143	861.152	683.081
287.687	24.597	860.055	680.074
288.701	24.913	859.983	681.157
289.716	25.384	859.725	682.684
290.730	25.195	858.058	680.584
291.745	24.988	857.723	679.472
292.760	24.835	856.958	678.228
293.774	24.838	856.632	677.922
294.789	25.700	857.027	681.439
295.803	26.235	856.812	683.232
296.818	26.256	856.544	683.037
297.833	26.383	856.159	683.149
298.847	26.033	854.973	680.821
299.862	25.817	854.047	679.208
300.876	25.892	853.631	679.100
301.891	26.326	853.494	680.565
302.906	26.319	852.668	679.822
303.920	25.827	851.842	677.254
304.935	25.841	850.816	676.432
305.949	26.033	851.165	677.368
306.964	26.248	850.482	677.573
307.979	26.032	849.624	676.018
308.993	26.042	849.092	675.575
310.008	26.276	848.936	676.264
311.022	26.441	848.636	676.586
312.037	26.291	847.930	675.401
313.052	26.019	847.378	673.885
314.066	25.842	846.591	672.538
315.081	25.156	845.658	669.178
316.095	24.339	844.132	664.871
317.110	24.891	844.153	666.882
318.125	25.866	844.350	670.611
319.139	25.504	843.224	668.313
320.154	24.375	841.295	662.531
321.168	24.045	840.199	660.387
322.183	24.380	840.974	662.184
323.197	25.467	841.211	666.343
324.212	25.843	840.866	667.405
325.227	25.825	840.528	667.010
326.241	26.095	839.971	667.510
327.256	25.919	839.263	666.235
328.270	25.846	838.683	665.445
329.285	25.797	837.765	664.480
330.300	25.651	837.271	663.489
331.314	25.365	836.298	661.606
332.329	25.550	835.647	661.713
333.343	25.846	835.502	662.630
334.358	26.070	835.609	663.480
335.373	26.172	834.398	662.835
336.387	26.080	834.336	662.389
337.402	26.467	833.882	663.388
338.416	26.478	833.993	663.459
339.431	26.639	832.996	663.197
340.446	26.660	832.533	662.845
341.460	26.819	832.158	663.070
342.475	26.729	831.369	662.054
343.489	26.421	831.111	660.663
344.504	26.619	830.035	660.474
345.519	26.797	830.035	661.064
346.533	26.927	829.781	661.277
347.548	26.917	829.274	660.776
348.562	26.994	828.864	660.673
349.577	27.030	827.879	659.958
350.592	26.958	827.638	659.449
351.606	26.778	827.324	658.486
352.621	26.907	826.534	658.266
353.635	26.786	825.992	657.339
354.650	26.752	825.550	656.806
355.665	26.346	824.426	654.381
356.679	25.306	822.592	649.110
357.694	25.253	822.224	648.571
358.708	25.987	822.214	651.156
359.723	25.882	821.535	650.182
360.738	26.042	821.802	650.915
361.752	26.632	821.057	652.394
362.767	26.582	821.409	652.436
363.781	26.877	821.124	653.212
364.796	27.101	820.995	653.858
365.810	27.274	820.585	654.099
366.825	27.255	820.269	653.719
367.840	27.307	819.812	653.483
368.854	27.307	818.896	652.695
369.869	26.802	817.980	650.097
370.883	26.524	817.427	648.606
371.898	26.834	816.835	649.187
372.913	26.699	816.138	648.092
373.927	26.492	815.744	646.984
374.942	26.630	815.392	647.138
375.956	26.851	814.591	647.236
376.971	26.953	814.348	647.348
377.986	27.038	813.835	647.188
379.000	27.158	813.652	647.410
380.015	27.166	813.283	647.088
381.029	27.212	812.107	646.260
382.044	26.983	811.633	645.013
383.059	27.231	811.108	645.419
384.073	27.229	810.946	645.224
385.088	27.211	810.398	644.668
386.102	27.074	809.951	643.770
387.117	27.011	808.986	642.722
388.132	27.022	808.242	642.115
389.146	26.751	807.676	640.651
390.161	26.280	806.793	638.229
391.175	26.416	806.435	638.371
392.190	26.832	806.573	639.890
393.205	26.864	806.052	639.532
394.219	25.927	804.122	634.648
395.234	24.398	801.617	627.243
396.248	23.212	801.130	622.638
397.263	24.588	801.864	627.996
398.278	26.303	803.425	635.195
399.292	26.793	803.076	636.583
400.307	26.529	802.454	635.111
401.321	26.556	802.176	634.927
402.336	26.530	801.748	634.441
403.350	26.960	801.401	635.618
404.365	27.251	801.596	636.735
405.380	27.476	801.565	637.441
406.394	27.925	800.847	638.382
407.409	27.969	800.766	638.416
408.423	27.827	800.290	637.485
409.438	27.959	799.295	637.094
410.453	28.039	798.804	636.925
411.467	27.869	798.748	636.231
412.482	27.947	797.820	635.707
413.496	27.875	797.498	635.146
414.511	28.037	797.373	635.552
415.526	28.042	796.944	635.172
416.540	27.938	796.667	634.534
417.555	27.968	795.967	634.023
418.569	27.627	795.182	632.162
419.584	27.353	794.913	630.941
420.599	27.588	794.395	631.287
421.613	109.505	1281.196	1449.345
422.628	94.290	1352.107	1449.467
