DTS Sentinel unit serial number:	SN413079Multiplexer serial number:	ORYXHardware model number:	OX4-SRSoftware version number:	ORYX F/W v4.00 Oryx Data Collector v3.7.2.0data status	okinstallation	princeton_trtdifferential loss correction	single-endedforward channel	channel 3reverse channel	N/Adate	2019/09/12time	00:10:11forward acquisition time	60.00reverse acquisition time	0.00gamma	496.2192k internal	0.2318k external	0.2318temperature offset calibration	1.0060default loss term (dB/km)	0.3790temperature slope calibration	1.0000multiplexer offset coefficient	1.0000multiplexer slope coefficient	1.0000fibre end	0.00T internal ref (°C)	33.62T ext. ref 1 (°C)	1.99T ext. ref 2 (°C)	28.21length (m)	temperature (°C)	Stokes	anti-Stokes-747.200	-93.869	0.338	-0.094
-746.185	800.000	-0.102	0.299
-745.171	-11.372	0.175	0.117
-744.156	-170.407	-0.166	-0.006
-743.142	664.361	-0.130	0.340
-742.127	800.000	-0.032	-0.125
-741.112	-89.084	-0.367	-0.110
-740.098	-200.000	0.005	0.352
-739.083	-26.573	-0.243	0.144
-738.069	145.116	-0.335	0.454
-737.054	-200.000	-0.015	-0.127
-736.039	-117.618	-0.182	0.033
-735.025	-200.000	-0.016	0.083
-734.010	-46.010	-0.114	0.057
-732.996	-200.000	-0.011	0.213
-731.981	43.008	-0.300	0.277
-730.966	176.002	0.313	0.459
-729.952	-62.190	-0.146	-0.061
-728.937	76.781	0.046	-0.049
-727.923	-161.055	-0.382	0.020
-726.908	67.041	-0.281	0.289
-725.894	800.000	0.038	0.152
-724.879	800.000	-0.076	0.216
-723.864	633.239	0.031	-0.079
-722.850	55.732	0.181	-0.178
-721.835	198.876	-0.083	0.129
-720.821	33.360	-0.231	-0.202
-719.806	104.090	-0.152	-0.181
-718.791	365.393	-0.200	-0.407
-717.777	42.014	0.270	0.248
-716.762	381.268	0.094	-0.195
-715.748	-200.000	-0.068	0.440
-714.733	99.712	-0.297	-0.348
-713.718	241.602	-0.068	-0.114
-712.704	48.808	-0.083	0.079
-711.689	4.780	0.171	0.127
-710.675	-50.868	0.274	0.130
-709.660	-200.000	-0.002	0.081
-708.645	800.000	0.093	-0.260
-707.631	-200.000	0.002	0.065
-706.616	800.000	0.077	0.251
-705.602	-200.000	-0.041	0.400
-704.587	-142.318	-0.100	0.010
-703.572	151.506	0.049	0.068
-702.558	442.571	-0.117	0.260
-701.543	40.352	0.144	-0.131
-700.529	10.401	-0.191	0.147
-699.514	56.687	0.180	0.177
-698.499	147.151	-0.087	0.118
-697.485	15.170	0.135	-0.107
-696.470	-132.370	0.428	0.056
-695.456	-200.000	-0.006	0.121
-694.441	-26.347	0.402	-0.238
-693.426	2.324	-0.139	0.102
-692.412	-41.522	0.273	0.142
-691.397	99.795	0.106	0.124
-690.383	800.000	0.043	0.170
-689.368	-200.000	0.000	-0.205
-688.354	-110.728	-0.133	0.028
-687.339	148.087	0.160	0.219
-686.324	465.982	-0.112	-0.253
-685.310	-200.000	0.017	-0.345
-684.295	205.163	0.112	0.176
-683.281	7.249	-0.265	-0.200
-682.266	-200.000	-0.100	-0.460
-681.251	800.000	-0.058	-0.197
-680.237	-74.776	0.325	0.118
-679.222	793.614	-0.009	-0.025
-678.208	-46.127	0.152	-0.076
-677.193	-97.222	-0.100	-0.026
-676.178	-200.000	-0.010	0.067
-675.164	-56.700	0.162	-0.072
-674.149	-200.000	-0.037	-0.223
-673.135	65.218	-0.107	-0.110
-672.120	237.492	-0.120	-0.201
-671.105	-44.181	0.101	-0.051
-670.091	-147.571	-0.079	-0.007
-669.076	184.878	-0.136	-0.204
-668.062	-200.000	0.042	0.189
-667.047	-99.873	0.057	0.014
-666.032	-112.563	0.169	-0.034
-665.018	-200.000	-0.019	-0.105
-664.003	21.776	-0.226	0.186
-662.989	800.000	-0.068	-0.249
-661.974	-56.755	0.172	-0.077
-660.959	800.000	0.127	-0.364
-659.945	-5.065	0.110	0.077
-658.930	-14.938	0.181	-0.117
-657.916	544.928	-0.033	0.078
-656.901	296.216	-0.122	0.225
-655.886	-43.331	0.060	0.031
-654.872	-140.704	0.307	-0.032
-653.857	-153.188	-0.106	-0.007
-652.843	-200.000	-0.013	-0.152
-651.828	-7.179	0.043	-0.029
-650.814	800.000	-0.071	0.215
-649.799	-200.000	0.032	-0.144
-648.784	120.009	0.148	0.185
-647.770	60.108	0.202	0.201
-646.755	54.349	-0.237	-0.230
-645.741	-43.257	-0.407	-0.208
-644.726	-36.301	-0.114	0.062
-643.711	-174.499	0.259	-0.007
-642.697	-60.176	-0.209	-0.090
-641.682	46.777	-0.168	-0.157
-640.668	-36.977	0.255	0.138
-639.653	-186.128	0.126	-0.002
-638.638	-195.559	0.170	0.001
-637.624	-127.957	0.214	-0.031
-636.609	-39.755	-0.191	0.101
-635.595	116.123	-0.190	0.234
-634.580	-95.695	-0.182	0.049
-633.565	39.753	0.045	0.041
-632.551	48.888	-0.299	-0.283
-631.536	-200.000	-0.026	-0.156
-630.522	249.366	0.096	0.164
-629.507	-5.321	-0.033	-0.023
-628.492	100.388	-0.080	-0.094
-627.478	-66.428	-0.239	-0.096
-626.463	-106.692	0.459	-0.103
-625.449	-74.604	-0.289	0.105
-624.434	-4.010	-0.435	0.304
-623.419	-68.491	-0.177	0.069
-622.405	307.044	0.080	-0.150
-621.390	-200.000	-0.417	0.001
-620.376	36.731	0.213	0.190
-619.361	-106.353	0.218	0.049
-618.346	542.584	-0.050	-0.121
-617.332	153.617	0.136	-0.187
-616.317	-99.831	0.314	-0.079
-615.303	135.527	-0.025	-0.033
-614.288	39.089	0.230	0.207
-613.273	-106.303	-0.197	0.044
-612.259	75.716	0.116	-0.124
-611.244	-200.000	0.025	-0.338
-610.230	44.073	0.324	-0.299
-609.215	-87.003	0.208	-0.064
-608.201	-89.834	-0.246	-0.072
-607.186	-83.431	-0.475	0.153
-606.171	6.522	-0.232	0.173
-605.157	-145.658	-0.044	0.004
-604.142	202.468	0.140	-0.218
-603.128	184.044	0.053	-0.079
-602.113	-10.691	0.274	-0.182
-601.098	800.000	0.077	-0.224
-600.084	5.299	-0.147	-0.109
-599.069	191.148	-0.112	-0.170
-598.055	-200.000	0.020	0.161
-597.040	-200.000	-0.075	0.339
-596.025	18.766	0.137	-0.110
-595.011	16.605	-0.136	-0.108
-593.996	-200.000	-0.040	-0.204
-592.982	-149.280	-0.413	-0.033
-591.967	-169.520	0.063	0.002
-590.952	232.367	-0.101	-0.167
-589.938	-200.000	0.036	0.255
-588.923	-33.074	-0.281	0.157
-587.909	-200.000	-0.003	-0.054
-586.894	-6.049	-0.188	-0.129
-585.879	-143.740	-0.409	-0.039
-584.865	-102.479	0.327	-0.079
-583.850	-43.550	-0.350	0.178
-582.836	-115.057	0.146	-0.028
-581.821	-200.000	0.051	0.338
-580.806	-21.535	0.250	0.153
-579.792	800.000	0.056	-0.183
-578.777	399.477	-0.087	0.183
-577.763	-200.000	0.052	0.288
-576.748	4.630	-0.300	0.221
-575.733	13.828	0.139	-0.108
-574.719	205.125	0.111	-0.174
-573.704	265.029	0.092	-0.161
-572.690	585.908	0.110	-0.272
-571.675	-181.460	-0.117	0.002
-570.661	-200.000	0.019	0.152
-569.646	-88.255	-0.188	-0.056
-568.631	-43.290	-0.161	0.082
-567.617	-192.172	-0.055	-0.001
-566.602	800.000	-0.029	-0.102
-565.588	-173.232	0.128	-0.004
-564.573	-200.000	0.050	-0.314
-563.558	-200.000	-0.030	-0.247
-562.544	155.257	-0.074	0.102
-561.529	-109.868	0.265	0.056
-560.515	-200.000	-0.000	-0.044
-559.500	420.516	0.126	-0.270
-558.485	-200.000	0.007	-0.208
-557.471	-4.326	-0.146	-0.102
-556.456	78.579	0.262	-0.281
-555.442	800.000	-0.023	-0.082
-554.427	-61.169	0.134	-0.057
-553.412	-182.872	-0.177	-0.003
-552.398	-114.304	0.416	0.081
-551.383	60.033	0.181	-0.180
-550.369	-200.000	-0.002	0.073
-549.354	94.345	0.233	0.266
-548.339	52.159	0.162	0.155
-547.325	52.880	0.052	0.050
-546.310	611.041	-0.079	-0.198
-545.296	-48.044	-0.367	-0.178
-544.281	-170.732	0.118	-0.004
-543.266	-117.901	0.029	-0.005
-542.252	216.137	-0.029	0.046
-541.237	800.000	-0.147	0.551
-540.223	-200.000	0.012	-0.100
-539.208	148.279	0.083	-0.113
-538.193	343.057	-0.094	0.184
-537.179	444.072	-0.127	-0.279
-536.164	-60.138	-0.215	-0.092
-535.150	2.230	0.170	0.124
-534.135	-35.635	0.249	-0.135
-533.121	800.000	-0.021	0.089
-532.106	-42.172	0.164	0.084
-531.091	-154.052	-0.175	-0.012
-530.077	81.059	-0.087	0.095
-529.062	542.906	-0.151	-0.360
-528.048	-200.000	0.010	0.258
-527.033	-48.530	0.166	-0.080
-526.018	-66.384	0.085	-0.034
-525.004	-83.986	-0.126	0.040
-523.989	-114.673	0.061	0.012
-522.975	-28.171	-0.217	0.126
-521.960	-200.000	0.012	-0.062
-520.945	-130.548	-0.296	-0.040
-519.931	-200.000	-0.054	-0.255
-518.916	800.000	0.038	0.137
-517.902	-6.321	-0.091	0.062
-516.887	-43.874	0.086	0.043
-515.872	313.113	0.016	0.029
-514.858	-16.432	0.169	0.108
-513.843	-148.736	0.220	-0.018
-512.829	-114.466	0.374	-0.072
-511.814	-137.287	-0.070	0.008
-510.799	417.842	-0.202	-0.433
-509.785	-200.000	0.016	-0.227
-508.770	126.226	-0.224	0.284
-507.756	-97.567	0.287	0.075
-506.741	90.640	0.134	-0.150
-505.726	29.388	-0.053	0.045
-504.712	-27.092	0.091	0.053
-503.697	97.658	-0.190	0.219
-502.683	-200.000	0.075	0.000
-501.668	228.613	-0.133	0.217
-500.653	-200.000	0.002	-0.161
-499.639	66.484	-0.334	-0.340
-498.624	177.772	-0.044	-0.065
-497.610	368.516	-0.032	0.066
-496.595	2.202	0.428	0.310
-495.581	80.592	-0.202	-0.218
-494.566	-131.498	-0.441	0.058
-493.551	7.925	-0.149	-0.112
-492.537	-101.312	0.293	-0.072
-491.522	-142.583	-0.125	-0.012
-490.508	-43.649	-0.171	-0.087
-489.493	687.097	-0.051	-0.133
-488.478	215.394	-0.201	-0.319
-487.464	-135.630	0.224	-0.027
-486.449	215.793	-0.028	0.044
-485.435	-85.533	-0.158	0.049
-484.420	40.823	-0.186	-0.168
-483.405	-200.000	-0.007	0.422
-482.391	-87.154	0.262	0.080
-481.376	800.000	-0.023	0.098
-480.362	800.000	0.054	-0.226
-479.347	47.502	-0.265	0.247
-478.332	-126.804	0.133	-0.020
-477.318	800.000	0.043	-0.131
-476.303	640.706	0.119	0.302
-475.289	100.372	0.086	0.099
-474.274	800.000	0.019	-0.052
-473.259	800.000	-0.035	-0.122
-472.245	428.346	0.133	-0.289
-471.230	397.765	-0.157	-0.329
-470.216	-200.000	0.013	-0.324
-469.201	-191.773	0.218	-0.002
-468.186	-12.559	-0.255	-0.167
-467.172	-200.000	0.041	-0.193
-466.157	66.463	-0.224	0.228
-465.143	81.702	0.285	0.309
-464.128	402.417	-0.226	0.475
-463.113	-52.417	0.222	0.103
-462.099	89.022	0.170	0.189
-461.084	69.961	0.062	0.064
-460.070	-200.000	0.018	-0.104
-459.055	78.082	-0.116	-0.124
-458.040	-83.747	0.123	-0.039
-457.026	-7.810	0.032	0.022
-456.011	74.948	-0.090	0.095
-454.997	39.082	0.150	0.134
-453.982	-200.000	0.037	0.348
-452.968	-33.574	-0.210	-0.116
-451.953	5.833	0.230	0.171
-450.938	800.000	-0.086	0.240
-449.924	314.151	-0.041	0.076
-448.909	-200.000	-0.014	0.242
-447.895	521.916	0.029	-0.069
-446.880	-200.000	-0.035	0.184
-445.865	-111.793	-0.329	-0.067
-444.851	-33.441	0.111	0.061
-443.836	175.324	0.135	0.195
-442.822	-200.000	-0.049	-0.219
-441.807	131.706	0.133	-0.171
-440.792	440.983	-0.189	-0.413
-439.778	-126.589	0.098	-0.014
-438.763	78.965	0.108	0.116
-437.749	800.000	0.045	-0.168
-436.734	-87.802	-0.140	-0.042
-435.719	102.310	-0.192	0.225
-434.705	-70.148	0.048	0.018
-433.690	500.262	-0.106	-0.246
-432.676	-154.697	0.242	-0.016
-431.661	800.000	-0.042	-0.179
-430.646	-200.000	0.000	-0.366
-429.632	356.767	-0.079	-0.157
-428.617	158.876	0.076	0.105
-427.603	-0.648	-0.240	-0.170
-426.588	-94.608	0.186	-0.051
-425.573	800.000	0.106	0.319
-424.559	127.600	-0.115	0.146
-423.544	-0.644	0.171	0.121
-422.530	-32.427	-0.162	0.090
-421.515	-52.029	0.186	0.086
-420.500	-188.947	-0.104	0.001
-419.486	631.136	-0.066	-0.168
-418.471	-78.119	-0.048	0.016
-417.457	-200.000	-0.024	-0.166
-416.442	42.734	0.169	0.154
-415.428	-92.161	0.119	0.034
-414.413	164.639	0.117	-0.164
-413.398	-107.622	0.373	-0.082
-412.384	-123.675	0.337	-0.053
-411.369	-168.103	0.303	-0.012
-410.355	164.923	0.070	0.098
-409.340	-15.051	-0.193	-0.124
-408.325	-36.957	-0.097	0.052
-407.311	-123.751	0.168	0.026
-406.296	-7.552	-0.162	0.110
-405.282	-200.000	-0.017	-0.242
-404.267	318.226	0.076	0.144
-403.252	-165.893	0.057	0.002
-402.238	-200.000	-0.076	-0.438
-401.223	-57.656	0.118	0.052
-400.209	-200.000	0.019	0.116
-399.194	20.756	0.045	-0.036
-398.179	208.259	0.062	-0.097
-397.165	77.709	-0.149	0.158
-396.150	-79.666	0.144	0.048
-395.136	-151.375	0.077	0.006
-394.121	800.000	-0.119	0.355
-393.106	-118.756	0.185	-0.033
-392.092	-40.185	-0.130	-0.067
-391.077	103.713	0.078	0.092
-390.063	-95.190	-0.069	0.019
-389.048	800.000	-0.039	-0.136
-388.033	-62.206	-0.398	-0.166
-387.019	-91.967	0.237	-0.067
-386.004	285.360	-0.100	-0.180
-384.990	-200.000	0.241	0.001
-383.975	-138.412	-0.187	-0.021
-382.960	-195.861	0.365	-0.003
-381.946	-200.000	-0.001	-0.085
-380.931	-73.607	0.218	-0.079
-379.917	14.138	0.180	0.140
-378.902	-106.793	0.235	-0.052
-377.888	201.689	-0.069	-0.107
-376.873	0.116	0.075	0.053
-375.858	800.000	0.068	0.226
-374.844	37.356	0.105	-0.093
-373.829	-29.453	0.161	-0.092
-372.815	-200.000	0.000	0.094
-371.800	800.000	0.032	-0.117
-370.785	-101.088	-0.434	-0.106
-369.771	800.000	0.049	0.203
-368.756	48.723	0.108	0.101
-367.742	333.180	0.029	-0.055
-366.727	-105.669	-0.391	-0.088
-365.712	76.474	-0.107	-0.113
-364.698	193.839	-0.133	-0.200
-363.683	-200.000	-0.035	0.389
-362.669	-200.000	0.001	0.310
-361.654	-89.327	0.236	-0.069
-360.639	-161.465	0.077	-0.004
-359.625	78.510	-0.281	0.299
-358.610	18.137	0.127	0.101
-357.596	-24.267	-0.279	0.166
-356.581	-37.996	-0.071	-0.038
-355.566	-35.714	0.197	0.106
-354.552	73.840	0.033	0.035
-353.537	-122.832	-0.190	-0.031
-352.523	2.738	-0.176	-0.127
-351.508	12.858	-0.198	-0.152
-350.493	-152.078	-0.527	-0.038
-349.479	800.000	0.146	0.431
-348.464	-14.443	0.242	-0.155
-347.450	-91.338	0.278	0.079
-346.435	251.309	0.057	-0.096
-345.420	205.219	0.068	0.106
-344.406	0.599	-0.228	0.162
-343.391	19.540	0.162	0.129
-342.377	-28.572	0.381	0.219
-341.362	101.973	0.145	0.169
-340.348	-69.872	-0.283	-0.108
-339.333	-181.963	0.121	0.002
-338.318	-91.577	0.040	0.011
-337.304	0.813	0.330	-0.236
-336.289	705.998	0.039	-0.103
-335.275	400.254	-0.073	-0.153
-334.260	-200.000	0.024	0.318
-333.245	21.070	0.039	-0.031
-332.231	-94.925	-0.148	-0.040
-331.216	94.222	0.203	0.230
-330.202	-143.728	0.336	0.032
-329.187	-72.718	0.374	-0.137
-328.172	-25.013	-0.146	0.086
-327.158	310.668	-0.076	0.142
-326.143	-200.000	0.035	0.319
-325.129	12.523	-0.095	-0.073
-324.114	-146.781	-0.180	-0.016
-323.099	-200.000	-0.057	0.377
-322.085	321.563	0.138	0.261
-321.070	-200.000	-0.052	-0.318
-320.056	-29.385	-0.123	-0.070
-319.041	-200.000	0.063	-0.421
-318.026	31.317	-0.214	-0.183
-317.012	36.482	-0.181	0.159
-315.997	78.851	0.132	-0.141
-314.983	-139.108	-0.140	-0.015
-313.968	85.410	-0.121	0.132
-312.953	800.000	0.055	0.196
-311.939	35.455	0.272	0.238
-310.924	-29.676	-0.256	0.145
-309.910	-86.377	0.334	-0.102
-308.895	-139.847	0.146	0.015
-307.880	-200.000	0.055	0.269
-306.866	-37.796	-0.382	0.202
-305.851	-131.596	0.131	-0.017
-304.837	360.647	0.040	0.080
-303.822	800.000	0.075	0.274
-302.807	-93.277	0.350	0.097
-301.793	106.423	0.155	-0.183
-300.778	12.504	0.404	-0.310
-299.764	-74.639	-0.030	-0.011
-298.749	477.951	-0.040	0.089
-297.735	14.054	-0.232	-0.180
-296.720	-46.555	0.127	0.062
-295.705	-141.096	0.217	-0.022
-294.691	320.819	-0.135	0.255
-293.676	-51.831	0.231	0.107
-292.662	-6.245	-0.454	0.308
-291.647	-28.183	0.288	0.166
-290.632	-157.803	-0.139	0.008
-289.618	-200.000	0.004	0.088
-288.603	178.003	-0.040	0.058
-287.589	91.004	0.153	0.171
-286.574	800.000	0.084	0.311
-285.559	-118.747	0.046	-0.008
-284.545	-26.217	0.261	0.152
-283.530	88.980	0.231	-0.256
-282.516	179.261	-0.068	-0.099
-281.501	800.000	0.097	-0.315
-280.486	-200.000	-0.096	-0.442
-279.472	-23.597	-0.180	-0.107
-278.457	-200.000	0.023	-0.147
-277.443	-138.908	-0.318	-0.034
-276.428	-200.000	-0.019	0.236
-275.413	52.309	0.179	-0.170
-274.399	69.270	-0.061	0.063
-273.384	266.553	-0.121	0.211
-272.370	22.413	-0.039	-0.032
-271.355	181.436	0.070	0.102
-270.340	-200.000	-0.023	-0.213
-269.326	-48.588	-0.265	-0.127
-268.311	800.000	0.078	0.245
-267.297	151.356	0.054	0.073
-266.282	235.869	0.108	0.177
-265.267	2.290	-0.158	0.113
-264.253	395.749	-0.075	-0.156
-263.238	99.885	0.150	0.173
-262.224	577.774	0.083	0.201
-261.209	-200.000	0.053	-0.363
-260.195	115.655	0.045	0.054
-259.180	99.409	0.128	-0.147
-258.165	800.000	-0.091	-0.291
-257.151	-170.180	-0.264	-0.009
-256.136	647.437	0.128	-0.326
-255.122	22.217	-0.049	-0.040
-254.107	-36.270	-0.074	0.040
-253.092	411.678	-0.013	0.026
-252.078	409.244	-0.069	-0.146
-251.063	800.000	-0.101	-0.319
-250.049	-84.373	-0.271	0.085
-249.034	182.581	-0.152	-0.222
-248.019	-96.846	0.212	0.055
-247.005	-200.000	-0.085	-0.384
-245.990	-200.000	-0.026	0.229
-244.976	79.041	-0.155	0.165
-243.961	55.596	0.189	-0.182
-242.946	-200.000	-0.011	-0.059
-241.932	619.808	-0.108	-0.270
-240.917	-200.000	0.015	0.236
-239.903	-16.211	-0.030	-0.019
-238.888	284.727	-0.043	-0.077
-237.873	31.155	-0.108	-0.092
-236.859	268.491	-0.044	-0.077
-235.844	21.834	-0.236	-0.191
-234.830	320.511	-0.176	-0.332
-233.815	232.055	-0.078	0.127
-232.800	-180.820	-0.306	-0.006
-231.786	-200.000	0.004	0.031
-230.771	-200.000	-0.087	0.433
-229.757	-100.390	-0.230	0.056
-228.742	-200.000	-0.020	0.323
-227.727	800.000	-0.111	-0.327
-226.713	800.000	-0.086	-0.267
-225.698	791.235	0.109	0.297
-224.684	291.070	0.083	0.149
-223.669	634.900	0.079	-0.199
-222.655	-132.011	-0.132	-0.017
-221.640	120.803	-0.115	-0.142
-220.625	226.282	-0.154	-0.248
-219.611	-200.000	-0.002	-0.110
-218.596	-111.070	0.124	-0.025
-217.582	-172.245	0.170	0.005
-216.567	582.390	0.096	0.233
-215.552	-133.874	-0.408	0.050
-214.538	-95.172	0.211	0.056
-213.523	611.565	-0.044	-0.110
-212.509	-200.000	0.007	0.108
-211.494	448.205	-0.069	-0.150
-210.479	-30.969	-0.203	0.113
-209.465	800.000	0.038	-0.108
-208.450	195.591	-0.204	0.308
-207.436	251.707	-0.062	0.105
-206.421	-200.000	0.007	0.090
-205.406	312.795	0.130	-0.242
-204.392	270.018	-0.103	0.180
-203.377	346.180	0.183	0.356
-202.363	800.000	-0.028	0.117
-201.348	-200.000	-0.095	-0.578
-200.333	-162.202	-0.480	0.024
-199.319	-169.917	0.336	0.012
-198.304	45.116	-0.188	0.172
-197.290	-21.440	0.189	-0.114
-196.275	128.055	0.116	-0.147
-195.260	800.000	0.194	0.564
-194.246	258.844	0.148	-0.253
-193.231	-200.000	0.007	0.182
-192.217	-200.000	-0.036	-0.230
-191.202	1.176	-0.133	-0.095
-190.187	203.183	-0.246	-0.376
-189.173	-160.362	0.374	0.020
-188.158	-41.690	-0.140	0.071
-187.144	-129.336	-0.143	-0.020
-186.129	-129.820	0.435	-0.059
-185.114	19.626	0.145	0.115
-184.100	207.737	0.067	-0.104
-183.085	-77.994	0.328	-0.112
-182.071	-200.000	-0.006	0.210
-181.056	-123.276	-0.223	0.035
-180.042	-41.585	0.228	0.116
-179.027	-186.985	-0.092	-0.001
-178.012	800.000	-0.020	-0.062
-176.998	101.193	0.165	0.190
-175.983	132.112	-0.289	0.368
-174.969	-200.000	-0.024	-0.109
-173.954	-200.000	-0.054	0.278
-172.939	-80.233	0.241	-0.080
-171.925	-4.835	0.389	0.265
-170.910	239.638	0.035	-0.057
-169.896	-200.000	-0.067	0.303
-168.881	-68.493	0.147	-0.056
-167.866	-24.760	-0.301	0.177
-166.852	394.424	-0.110	-0.226
-165.837	21.772	0.194	0.157
-164.823	221.276	-0.061	0.097
-163.808	66.348	-0.079	0.079
-162.793	-91.531	0.391	-0.110
-161.779	-72.465	-0.175	0.064
-160.764	49.171	-0.247	0.230
-159.750	243.836	-0.036	-0.059
-158.735	800.000	0.010	0.040
-157.720	75.145	-0.159	0.165
-156.706	-63.229	0.146	0.060
-155.691	-155.990	-0.344	0.022
-154.677	7.249	0.282	0.208
-153.662	558.285	0.102	-0.244
-152.647	156.689	-0.076	-0.104
-151.633	36.650	0.194	-0.170
-150.618	-128.956	-0.139	0.019
-149.604	-68.155	0.248	0.095
-148.589	166.631	-0.273	-0.383
-147.574	421.878	-0.048	-0.101
-146.560	-93.267	-0.105	-0.029
-145.545	19.753	0.365	0.291
-144.531	-34.533	-0.114	0.062
-143.516	-81.811	0.352	0.114
-142.502	68.796	0.155	0.158
-141.487	5.119	-0.214	-0.156
-140.472	287.415	-0.033	-0.059
-139.458	-71.900	0.188	0.069
-138.443	-200.000	-0.207	0.001
-137.429	-122.444	0.084	0.014
-136.414	542.262	-0.113	-0.267
-135.399	-170.372	0.032	-0.001
-134.385	-29.154	-0.212	-0.120
-133.370	-179.336	-0.085	0.002
-132.356	-169.857	0.102	0.004
-131.341	-200.000	0.022	0.148
-130.326	264.287	0.070	-0.121
-129.312	-63.483	0.149	0.060
-128.297	-200.000	-0.046	0.217
-127.283	265.799	0.069	-0.120
-126.268	10.688	0.149	0.112
-125.253	123.280	0.198	-0.245
-124.239	-134.792	0.075	-0.009
-123.224	133.461	0.131	-0.167
-122.210	-12.997	0.134	-0.086
-121.195	166.011	0.131	0.184
-120.180	303.677	-0.079	-0.145
-119.166	-8.039	0.208	-0.139
-118.151	-127.066	0.175	-0.025
-117.137	800.000	-0.076	-0.215
-116.122	-130.607	0.193	0.026
-115.107	-4.787	0.074	0.051
-114.093	-76.413	0.178	0.062
-113.078	800.000	0.062	-0.184
-112.064	-155.555	0.178	-0.011
-111.049	-20.037	-0.270	-0.164
-110.034	274.058	0.094	0.164
-109.020	149.162	-0.244	0.327
-108.005	-200.000	0.006	0.428
-106.991	-124.144	-0.384	0.059
-105.976	-67.797	0.281	0.109
-104.962	-26.001	-0.175	-0.101
-103.947	465.537	0.072	0.160
-102.932	-128.238	0.180	-0.025
-101.918	129.354	0.126	-0.159
-100.903	800.000	0.051	0.212
-99.889	-200.000	0.026	0.222
-98.874	-11.719	-0.282	0.183
-97.859	65.227	-0.125	0.125
-96.845	124.195	0.049	-0.061
-95.830	-133.361	0.211	-0.026
-94.816	199.037	0.057	-0.086
-93.801	-135.681	-0.188	-0.022
-92.786	130.110	-0.120	0.152
-91.772	-200.000	-0.007	0.135
-90.757	-104.972	0.228	0.052
-89.743	-110.397	0.089	-0.018
-88.728	-200.000	0.004	0.168
-87.713	-200.000	-0.010	-0.132
-86.699	-36.164	0.120	-0.064
-85.684	800.000	0.093	-0.278
-84.670	-200.000	0.026	0.408
-83.655	-200.000	0.029	0.191
-82.640	-200.000	0.004	0.104
-81.626	-200.000	0.014	0.075
-80.611	101.598	0.208	0.239
-79.597	-42.464	-0.328	0.165
-78.582	-111.071	-0.142	-0.029
-77.567	-38.110	0.119	-0.062
-76.553	215.829	-0.199	-0.312
-75.538	459.393	-0.037	0.082
-74.524	-200.000	0.022	0.299
-73.509	122.568	-0.166	0.205
-72.494	305.945	-0.207	-0.380
-71.480	-61.242	-0.299	-0.124
-70.465	-95.148	-0.078	-0.021
-69.451	-87.159	-0.169	-0.051
-68.436	-127.909	0.303	0.043
-67.422	280.675	-0.202	-0.356
-66.407	241.720	0.097	0.160
-65.392	-101.239	0.210	-0.051
-64.378	800.000	0.026	-0.103
-63.363	296.064	-0.025	-0.044
-62.349	-46.494	0.370	0.179
-61.334	12.061	-0.879	-0.666
-60.319	-200.000	0.048	0.475
-59.305	-200.000	0.004	-1.030
-58.290	195.731	0.764	1.145
-57.276	800.000	0.570	1.670
-56.261	-200.000	96.841	580.663
-55.246	542.785	1389.145	3264.809
-54.232	155.978	2575.931	3499.084
-53.217	110.544	2168.971	2569.156
-52.203	43.669	1709.746	1541.330
-51.188	36.682	1523.149	1325.406
-50.173	34.405	1496.057	1286.434
-49.159	54.069	1545.564	1464.260
-48.144	55.793	1564.058	1493.545
-47.130	37.061	1521.962	1326.761
-46.115	33.902	1507.259	1292.441
-45.100	33.734	1503.702	1288.199
-44.086	33.662	1501.978	1286.184
-43.071	33.643	1499.911	1284.237
-42.057	33.494	1498.599	1282.054
-41.042	33.663	1496.675	1281.495
-40.027	33.712	1495.619	1280.874
-39.013	33.580	1494.325	1278.823
-37.998	33.548	1493.200	1277.597
-36.984	33.547	1492.408	1276.860
-35.969	33.682	1490.719	1276.274
-34.954	33.664	1489.233	1274.830
-33.940	33.515	1488.106	1272.812
-32.925	33.863	1485.794	1273.119
-31.911	33.702	1484.910	1271.231
-30.896	33.681	1483.787	1270.079
-29.881	33.683	1482.871	1269.257
-28.867	33.831	1481.138	1268.710
-27.852	33.708	1479.695	1266.606
-26.838	33.738	1478.229	1265.497
-25.823	33.626	1477.131	1263.762
-24.809	33.606	1475.377	1262.077
-23.794	33.615	1474.007	1260.915
-22.779	33.612	1472.935	1259.930
-21.765	33.563	1471.727	1258.522
-20.750	33.704	1469.986	1257.919
-19.736	33.618	1469.439	1256.833
-18.721	33.658	1467.916	1255.742
-17.706	33.683	1467.167	1255.218
-16.692	33.696	1465.702	1254.002
-15.677	33.612	1465.060	1252.845
-14.663	33.543	1464.545	1251.903
-13.648	33.587	1463.358	1251.128
-12.633	33.577	1462.018	1249.863
-11.619	33.608	1461.558	1249.627
-10.604	33.540	1460.785	1248.470
-9.590	33.554	1459.294	1247.237
-8.575	33.635	1458.593	1247.117
-7.560	33.525	1458.395	1246.177
-6.546	33.637	1457.133	1245.786
-5.531	33.553	1456.469	1244.618
-4.517	33.518	1455.569	1243.568
-3.502	33.626	1454.000	1242.885
-2.487	33.646	1453.238	1242.318
-1.473	33.628	1452.127	1241.198
-0.458	33.606	1450.940	1239.994
0.556	33.928	1441.759	1228.758
1.571	31.110	1416.692	1189.351
2.586	27.830	1360.482	1121.939
3.600	26.235	1281.107	1047.150
4.615	25.033	1233.663	1001.572
5.629	21.592	1176.388	936.611
6.644	11.467	1088.898	816.482
7.659	3.311	1046.137	745.028
8.673	2.221	1040.405	735.636
9.688	1.887	1037.269	731.747
10.702	1.871	1035.305	730.222
11.717	1.961	1033.464	729.289
12.731	5.577	1038.036	749.791
13.746	15.685	1052.025	808.676
14.761	23.204	1061.892	852.550
15.775	24.971	1062.819	861.726
16.790	25.123	1062.886	862.435
17.804	24.998	1061.884	860.946
18.819	24.723	1061.513	859.248
19.834	24.897	1060.903	859.513
20.848	25.075	1060.271	859.781
21.863	25.104	1059.884	859.531
22.877	24.997	1059.810	858.879
23.892	25.174	1058.503	858.591
24.907	25.013	1057.629	857.039
25.921	25.082	1056.888	856.691
26.936	25.022	1056.557	856.063
27.950	24.931	1055.247	854.490
28.965	24.922	1054.385	853.675
29.980	24.810	1053.019	851.959
30.994	24.917	1051.392	851.077
32.009	25.003	1050.934	851.036
33.023	25.111	1050.721	851.302
34.038	24.975	1049.289	849.420
35.053	24.878	1048.599	848.331
36.067	25.016	1047.968	848.397
37.082	24.983	1047.396	847.702
38.096	25.138	1046.314	847.483
39.111	25.104	1046.025	847.013
40.126	25.355	1044.805	847.137
41.140	25.239	1043.209	845.220
42.155	24.930	1042.199	842.876
43.169	24.565	1040.877	840.015
44.184	24.626	1039.748	839.317
45.199	24.867	1038.553	839.407
46.213	24.652	1037.638	837.587
47.228	24.619	1037.101	836.921
48.242	24.804	1036.286	837.059
49.257	24.872	1035.916	837.002
50.271	24.800	1035.010	835.860
51.286	25.191	1034.112	836.887
52.301	25.149	1033.399	836.039
53.315	25.124	1032.688	835.272
54.330	25.085	1032.297	834.702
55.344	24.921	1031.476	833.202
56.359	25.067	1030.246	832.813
57.374	25.115	1029.738	832.550
58.388	24.917	1028.815	830.811
59.403	24.762	1027.862	829.248
60.417	24.835	1027.275	829.040
61.432	24.699	1026.340	827.585
62.447	24.672	1026.085	827.181
63.461	24.737	1025.580	827.001
64.476	24.845	1024.602	826.636
65.490	24.836	1023.561	825.681
66.505	24.763	1022.434	824.364
67.520	24.781	1021.642	823.733
68.534	24.881	1021.215	823.779
69.549	24.744	1020.216	822.271
70.563	24.401	1018.882	819.547
71.578	24.323	1018.297	818.648
72.593	24.306	1017.508	817.859
73.607	24.180	1016.495	816.396
74.622	24.095	1015.688	815.289
75.636	24.495	1014.687	816.243
76.651	24.601	1014.442	816.458
77.666	24.487	1013.209	814.870
78.680	24.318	1012.626	813.558
79.695	24.263	1012.195	812.889
80.709	24.534	1011.207	813.258
81.724	24.538	1010.758	812.843
82.739	24.556	1009.613	811.932
83.753	24.669	1008.733	811.666
84.768	24.801	1008.289	811.837
85.782	25.221	1007.693	813.191
86.797	25.407	1007.001	813.403
87.812	25.316	1006.392	812.424
88.826	25.211	1005.498	811.156
89.841	25.288	1004.384	810.535
90.855	25.309	1003.765	810.060
91.870	25.256	1003.091	809.203
92.884	25.288	1002.263	808.607
93.899	25.145	1001.268	807.091
94.914	25.173	1000.203	806.285
95.928	25.168	999.764	805.837
96.943	25.278	998.625	805.342
97.957	25.028	997.578	803.307
98.972	24.629	996.878	800.885
99.987	24.620	995.325	799.526
101.001	24.634	995.099	799.334
102.016	24.983	994.296	800.180
103.030	24.971	993.563	799.467
104.045	24.731	992.967	797.845
105.060	24.736	991.406	796.544
106.074	24.640	990.333	795.183
107.089	24.524	989.906	794.253
108.103	24.954	989.642	795.881
109.118	25.085	988.738	795.664
110.133	24.759	986.924	792.692
111.147	24.754	986.225	792.036
112.162	24.674	985.375	790.930
113.176	24.458	984.038	788.833
114.191	24.587	983.264	788.714
115.206	24.649	982.802	788.548
116.220	24.250	981.754	785.875
117.235	24.142	980.448	784.287
118.249	24.314	979.930	784.561
119.264	24.329	979.227	783.994
120.279	24.308	978.297	783.089
121.293	24.338	977.794	782.749
122.308	24.381	977.164	782.363
123.322	24.359	976.197	781.421
124.337	24.427	974.825	780.550
125.352	24.286	973.913	779.137
126.366	23.861	972.373	775.979
127.381	23.600	970.705	773.443
128.395	24.126	971.049	775.944
129.410	24.677	970.805	778.079
130.424	24.972	969.937	778.595
131.439	25.049	968.708	777.877
132.454	24.921	967.722	776.459
133.468	24.999	966.945	776.104
134.483	24.822	966.416	774.846
135.497	24.936	965.480	774.517
136.512	25.078	965.150	774.798
137.527	25.187	964.298	774.516
138.541	25.125	963.552	773.584
139.556	25.139	963.004	773.135
140.570	25.052	961.814	771.735
141.585	25.091	961.198	771.340
142.600	25.260	960.481	771.425
143.614	25.136	959.507	770.039
144.629	25.285	958.579	769.869
145.643	25.492	958.470	770.598
146.658	25.348	957.088	768.805
147.673	25.101	955.929	766.747
148.687	25.013	954.820	765.414
149.702	24.951	954.133	764.531
150.716	24.902	952.677	763.087
151.731	24.903	951.510	762.091
152.746	25.041	950.823	762.063
153.760	25.142	950.559	762.209
154.775	25.242	950.189	762.273
155.789	25.355	949.189	761.881
156.804	25.291	948.001	760.587
157.819	25.298	946.944	759.704
158.833	25.169	946.512	758.745
159.848	25.346	945.637	758.722
160.862	25.416	945.082	758.508
161.877	25.424	943.608	757.290
162.892	25.283	942.806	755.985
163.906	25.398	942.093	755.831
164.921	25.450	940.651	754.827
165.935	25.081	940.120	752.784
166.950	25.294	939.105	752.796
167.964	25.389	938.048	752.282
168.979	25.188	937.345	750.808
169.994	25.126	936.129	749.509
171.008	25.058	934.850	748.136
172.023	25.242	934.490	748.551
173.037	25.323	933.823	748.285
174.052	25.330	932.627	747.290
175.067	25.043	931.971	745.507
176.081	25.002	931.142	744.606
177.096	25.057	930.335	744.124
178.110	25.045	929.358	743.225
179.125	24.905	928.231	741.677
180.140	24.741	927.023	739.970
181.154	24.770	926.566	739.660
182.169	24.754	926.080	739.139
183.183	25.022	926.092	740.191
184.198	25.337	925.929	741.295
185.213	25.328	924.813	740.299
186.227	25.093	924.223	738.793
187.242	25.259	924.019	739.250
188.256	25.317	923.284	738.836
189.271	25.277	922.529	738.000
190.286	25.286	921.822	737.406
191.300	25.245	920.403	736.036
192.315	24.648	919.627	732.904
193.329	24.072	917.441	728.743
194.344	23.578	916.662	726.037
195.359	24.074	917.349	728.548
196.373	24.862	917.646	731.941
197.388	25.248	916.917	732.874
198.402	25.043	916.596	731.716
199.417	25.122	915.571	731.155
200.432	25.318	915.030	731.457
201.446	25.015	914.634	729.843
202.461	24.797	913.600	728.062
203.475	24.744	913.295	727.541
204.490	24.400	911.815	724.898
205.504	23.222	909.700	718.375
206.519	23.741	909.464	720.231
207.534	24.624	909.735	723.960
208.548	24.803	909.123	724.137
209.563	25.067	909.384	725.350
210.577	25.204	908.148	724.851
211.592	24.764	907.376	722.394
212.607	25.232	907.721	724.496
213.621	25.394	906.796	724.346
214.636	25.230	906.130	723.092
215.650	25.312	905.789	723.083
216.665	25.405	905.074	722.825
217.680	25.255	905.018	722.110
218.694	25.417	904.256	722.089
219.709	25.137	903.301	720.141
220.723	24.691	902.373	717.547
221.738	24.805	902.019	717.660
222.753	25.135	901.374	718.406
223.767	25.219	900.334	717.848
224.782	25.337	899.376	717.491
225.796	25.451	899.353	717.864
226.811	25.535	899.229	718.038
227.826	25.098	897.771	715.069
228.840	24.266	896.298	710.519
229.855	24.142	895.650	709.449
230.869	24.400	895.248	710.091
231.884	24.112	894.298	708.132
232.899	24.118	893.599	707.538
233.913	24.894	894.276	711.098
234.928	25.202	893.484	711.626
235.942	24.848	893.298	710.009
236.957	25.019	892.308	709.839
237.972	24.691	891.320	707.693
238.986	24.703	890.274	706.847
240.001	24.936	889.972	707.464
241.015	24.873	889.373	706.675
242.030	24.921	888.723	706.287
243.045	25.136	888.291	706.728
244.059	25.137	887.917	706.374
245.074	25.435	887.089	706.826
246.088	25.252	886.574	705.632
247.103	24.925	885.601	703.510
248.117	25.012	885.065	703.364
249.132	25.337	885.108	704.612
250.147	25.896	884.635	706.365
251.161	26.033	883.920	706.267
252.176	25.991	883.768	705.917
253.190	26.108	883.414	706.032
254.205	26.121	882.673	705.426
255.220	26.163	882.310	705.238
256.234	26.134	881.809	704.661
257.249	26.165	881.057	704.121
258.263	26.011	880.355	702.898
259.278	25.949	879.912	702.237
260.293	26.048	879.403	702.156
261.307	26.145	878.810	701.998
262.322	26.113	877.834	701.032
263.336	26.005	877.110	699.972
264.351	25.483	875.763	696.814
265.366	24.494	873.611	691.213
266.380	23.885	873.062	688.360
267.395	24.764	873.617	692.140
268.409	25.681	873.456	695.495
269.424	25.614	872.932	694.758
270.439	25.804	872.903	695.406
271.453	25.770	871.964	694.466
272.468	25.890	871.334	694.367
273.482	26.058	870.872	694.583
274.497	26.166	870.565	694.693
275.512	25.971	869.575	693.091
276.526	25.290	868.236	689.347
277.541	25.610	867.824	690.190
278.555	25.860	868.359	691.514
279.570	25.787	866.880	689.995
280.585	25.468	866.249	688.211
281.599	25.713	865.657	688.616
282.614	25.786	865.639	688.821
283.628	25.349	863.956	685.750
284.643	24.937	863.284	683.583
285.657	25.504	863.331	685.725
286.672	25.259	862.596	684.148
287.687	24.870	861.259	681.545
288.701	25.220	861.645	683.123
289.716	25.568	861.538	684.302
290.730	25.291	860.502	682.367
291.745	25.144	859.474	680.933
292.760	25.050	858.462	679.714
293.774	24.866	857.923	678.531
294.789	25.813	858.852	682.795
295.803	26.466	858.860	685.217
296.818	26.382	858.076	684.211
297.833	26.496	858.079	684.586
298.847	26.226	856.444	682.199
299.862	25.923	855.525	680.266
300.876	26.257	854.797	680.885
301.891	26.461	854.974	681.733
302.906	26.425	854.803	681.400
303.920	26.036	853.541	678.872
304.935	25.844	852.813	677.510
305.949	26.346	852.297	678.927
306.964	26.393	851.823	678.667
307.979	26.251	851.221	677.595
308.993	26.091	850.885	676.667
310.008	26.525	850.411	677.855
311.022	26.527	850.105	677.560
312.037	26.482	849.571	676.907
313.052	26.223	848.946	675.380
314.066	26.066	848.181	674.123
315.081	25.412	846.546	670.326
316.095	24.663	845.429	666.589
317.110	25.145	845.625	668.482
318.125	26.037	845.777	671.869
319.139	25.703	844.821	669.804
320.154	24.390	843.412	663.749
321.168	23.999	842.201	661.283
322.183	24.661	842.289	663.752
323.197	25.628	842.695	667.605
324.212	25.825	842.523	668.140
325.227	26.098	842.254	668.880
326.241	26.217	841.876	668.962
327.256	26.225	840.554	667.883
328.270	26.069	840.249	667.004
329.285	25.931	839.875	666.138
330.300	25.919	839.136	665.450
331.314	25.462	838.597	663.274
332.329	25.604	837.648	662.989
333.343	26.007	837.133	664.008
334.358	26.446	836.951	665.419
335.373	26.230	836.640	664.319
336.387	26.335	835.952	664.101
337.402	26.553	835.764	664.693
338.416	26.788	835.513	665.296
339.431	26.658	834.948	664.311
340.446	26.711	834.213	663.860
341.460	26.886	834.105	664.356
342.475	26.808	833.463	663.503
343.489	26.642	832.764	662.281
344.504	26.488	832.512	661.459
345.519	26.918	831.877	662.466
346.533	27.040	831.689	662.702
347.548	27.120	831.052	662.429
348.562	27.174	830.799	662.363
349.577	27.013	830.278	661.303
350.592	26.819	829.664	660.052
351.606	26.907	829.214	659.954
352.621	27.162	828.227	660.036
353.635	26.965	827.810	658.929
354.650	26.829	827.109	657.821
355.665	26.515	826.001	655.743
356.679	25.370	824.604	650.432
357.694	25.333	824.296	649.998
358.708	26.146	823.839	652.522
359.723	26.048	823.702	651.998
360.738	26.214	823.748	652.579
361.752	26.717	823.469	654.115
362.767	26.808	822.944	653.968
363.781	27.107	822.735	654.825
364.796	27.502	822.410	655.928
365.810	27.432	822.285	655.518
366.825	27.471	822.163	655.506
367.840	27.408	821.806	654.934
368.854	27.362	820.837	653.938
369.869	26.918	819.938	651.572
370.883	26.598	819.634	650.124
371.898	26.882	818.700	650.342
372.913	26.696	818.375	649.362
373.927	26.755	817.764	649.031
374.942	26.875	816.780	648.620
375.956	27.027	816.390	648.797
376.971	27.085	815.996	648.632
377.986	27.158	815.858	648.729
379.000	27.416	815.094	648.982
380.015	27.379	814.756	648.524
381.029	27.284	814.055	647.569
382.044	27.100	813.414	646.349
383.059	27.386	812.764	646.792
384.073	27.313	812.173	646.005
385.088	27.537	811.929	646.549
386.102	27.472	810.988	645.512
387.117	27.276	810.422	644.310
388.132	27.081	810.188	643.375
389.146	27.078	809.074	642.424
390.161	26.510	808.303	639.748
391.175	26.329	808.346	639.084
392.190	26.985	808.406	641.395
393.205	27.140	808.004	641.568
394.219	25.930	805.850	635.537
395.234	24.561	803.500	628.809
396.248	23.705	802.566	625.014
397.263	24.580	803.357	628.654
398.278	26.462	805.217	636.686
399.292	26.997	804.971	638.314
400.307	26.628	803.953	636.155
401.321	26.608	803.575	635.729
402.336	26.757	803.199	635.899
403.350	27.177	803.152	637.278
404.365	27.427	803.106	638.064
405.380	27.743	802.952	638.992
406.394	27.973	802.734	639.566
407.409	28.198	802.373	640.007
408.423	28.173	801.661	639.296
409.438	27.924	801.408	638.167
410.453	27.995	800.983	638.023
411.467	28.164	800.279	637.995
412.482	28.096	799.834	637.347
413.496	28.110	799.002	636.676
414.511	28.147	798.904	636.668
415.526	28.212	798.516	636.530
416.540	28.131	798.247	635.977
417.555	28.035	797.877	635.294
418.569	27.862	796.970	633.915
419.584	27.805	796.288	633.117
420.599	27.871	796.034	633.086
421.613	109.596	1283.415	1451.193
422.628	94.373	1354.412	1451.270
