DTS Sentinel unit serial number:	SN413079Multiplexer serial number:	ORYXHardware model number:	OX4-SRSoftware version number:	ORYX F/W v4.00 Oryx Data Collector v3.7.2.0data status	okinstallation	princeton_trtdifferential loss correction	single-endedforward channel	channel 3reverse channel	N/Adate	2019/09/12time	04:54:10forward acquisition time	60.00reverse acquisition time	0.00gamma	496.2192k internal	0.2323k external	0.2323temperature offset calibration	1.0053default loss term (dB/km)	0.3790temperature slope calibration	1.0000multiplexer offset coefficient	1.0000multiplexer slope coefficient	1.0000fibre end	0.00T internal ref (°C)	31.69T ext. ref 1 (°C)	1.85T ext. ref 2 (°C)	27.18length (m)	temperature (°C)	Stokes	anti-Stokes-747.200	800.000	-0.093	0.378
-746.185	34.704	-0.241	0.212
-745.171	-200.000	-0.070	0.478
-744.156	-200.000	0.058	0.354
-743.142	10.051	-0.175	-0.134
-742.127	-0.413	-0.304	-0.218
-741.112	561.447	-0.108	-0.263
-740.098	-39.282	0.251	0.133
-739.083	800.000	-0.086	0.343
-738.069	26.741	-0.396	0.335
-737.054	649.384	-0.144	0.373
-736.039	-42.067	-0.296	0.153
-735.025	-69.397	0.186	0.072
-734.010	-75.889	0.076	0.027
-732.996	-48.963	-0.261	-0.126
-731.981	-96.057	-0.182	-0.049
-730.966	-200.000	0.035	0.421
-729.952	-131.165	-0.019	-0.003
-728.937	489.586	0.098	-0.226
-727.923	244.072	0.148	-0.251
-726.908	-42.298	-0.170	-0.088
-725.894	-200.000	-0.064	-0.446
-724.879	31.408	0.186	0.161
-723.864	638.064	0.030	0.076
-722.850	800.000	0.046	-0.159
-721.835	-82.828	-0.176	0.057
-720.821	800.000	0.075	0.220
-719.806	3.468	-0.187	-0.137
-718.791	-66.538	-0.347	0.139
-717.777	800.000	-0.100	0.341
-716.762	-0.750	-0.018	-0.013
-715.748	461.751	-0.110	0.248
-714.733	-37.060	-0.163	0.088
-713.718	481.660	0.105	-0.241
-712.704	-200.000	-0.023	-0.177
-711.689	75.120	-0.172	0.183
-710.675	-38.190	0.211	0.113
-709.660	-81.268	0.190	-0.063
-708.645	196.795	-0.032	-0.049
-707.631	362.229	0.038	-0.077
-706.616	101.234	0.145	-0.170
-705.602	800.000	-0.042	-0.127
-704.587	-125.429	0.117	0.018
-703.572	-73.087	0.059	0.022
-702.558	-200.000	-0.029	-0.271
-701.543	-200.000	-0.007	-0.052
-700.529	162.816	0.123	-0.174
-699.514	411.028	0.084	0.180
-698.499	-200.000	-0.023	-0.125
-697.485	-94.089	-0.256	0.071
-696.470	471.948	0.119	0.270
-695.456	669.706	-0.073	-0.189
-694.441	-200.000	0.028	-0.137
-693.426	23.124	0.130	0.108
-692.412	-9.279	0.162	-0.109
-691.397	319.943	0.258	-0.494
-690.383	-200.000	-0.047	0.222
-689.368	-121.246	-0.503	0.085
-688.354	-50.382	0.136	0.065
-687.339	46.232	-0.089	0.083
-686.324	-200.000	0.052	0.594
-685.310	-200.000	0.065	-0.320
-684.295	51.874	0.356	0.341
-683.281	-200.000	-0.003	-0.180
-682.266	-37.033	-0.155	-0.084
-681.251	-138.243	-0.166	-0.018
-680.237	58.405	-0.138	-0.136
-679.222	-90.292	0.187	-0.055
-678.208	0.419	0.157	-0.113
-677.193	-200.000	-0.023	0.107
-676.178	-200.000	0.002	0.122
-675.164	549.235	-0.024	0.057
-674.149	-149.002	-0.309	-0.025
-673.135	255.095	-0.129	-0.222
-672.120	-70.774	0.272	-0.104
-671.105	140.470	-0.192	-0.255
-670.091	306.643	0.074	-0.140
-669.076	788.492	-0.107	-0.297
-668.062	152.816	0.035	0.049
-667.047	-99.103	0.066	-0.017
-666.032	-112.966	0.302	-0.060
-665.018	-112.690	0.019	0.004
-664.003	72.211	0.027	0.029
-662.989	269.892	0.051	-0.091
-661.974	-118.851	-0.140	0.025
-660.959	284.852	0.141	0.256
-659.945	-150.037	0.237	-0.019
-658.930	-200.000	-0.001	0.146
-657.916	-127.959	0.339	-0.049
-656.901	-200.000	-0.061	-0.391
-655.886	119.255	-0.052	0.065
-654.872	-200.000	-0.049	0.259
-653.857	-103.265	0.295	0.070
-652.843	3.859	-0.146	-0.107
-651.828	-121.441	0.153	-0.026
-650.814	-200.000	0.025	0.174
-649.799	123.641	-0.037	0.046
-648.784	-152.353	0.069	-0.005
-647.770	-174.371	-0.265	0.008
-646.755	-116.867	0.069	-0.013
-645.741	79.936	0.128	0.138
-644.726	4.742	0.143	0.106
-643.711	-117.125	0.245	0.045
-642.697	-18.257	0.028	0.018
-641.682	-93.692	0.158	-0.044
-640.668	-200.000	0.038	0.171
-639.653	127.936	0.037	-0.047
-638.638	570.356	0.135	0.329
-637.624	8.027	-0.052	0.039
-636.609	29.511	0.218	0.186
-635.595	583.513	-0.183	0.452
-634.580	-9.923	-0.015	0.010
-633.565	639.323	0.022	-0.057
-632.551	-200.000	0.050	-0.235
-631.536	-136.078	-0.283	0.033
-630.522	92.314	-0.159	0.181
-629.507	9.091	0.082	0.062
-628.492	-200.000	0.051	-0.277
-627.478	-133.032	0.121	0.015
-626.463	-174.754	-0.263	0.007
-625.449	-20.053	0.139	-0.086
-624.434	116.047	-0.148	0.182
-623.419	800.000	-0.033	-0.093
-622.405	-200.000	0.002	-0.016
-621.390	-200.000	-0.027	-0.199
-620.376	-87.609	-0.283	0.086
-619.361	-200.000	0.023	-0.105
-618.346	-88.001	-0.145	-0.044
-617.332	554.628	-0.124	0.300
-616.317	-41.838	0.300	0.154
-615.303	800.000	-0.036	-0.122
-614.288	-78.718	0.199	-0.068
-613.273	-108.202	-0.340	0.074
-612.259	-16.527	0.064	-0.041
-611.244	-88.402	0.290	0.087
-610.230	388.553	0.084	-0.175
-609.215	194.427	0.150	0.229
-608.201	800.000	-0.046	0.145
-607.186	299.955	-0.021	0.039
-606.171	622.239	0.158	-0.401
-605.157	-58.294	-0.029	-0.013
-604.142	-200.000	-0.066	0.295
-603.128	566.095	0.037	-0.090
-602.113	-200.000	0.026	-0.188
-601.098	0.846	0.261	-0.188
-600.084	68.185	-0.049	-0.051
-599.069	252.161	0.108	0.185
-598.055	800.000	-0.081	-0.259
-597.040	-200.000	-0.006	-0.407
-596.025	45.173	0.232	0.215
-595.011	-141.875	0.066	0.007
-593.996	176.686	0.103	-0.151
-592.982	164.997	-0.264	-0.374
-591.967	-200.000	0.011	-0.123
-590.952	-9.219	-0.147	-0.099
-589.938	-48.150	-0.321	-0.156
-588.923	168.496	-0.110	-0.157
-587.909	-12.092	-0.304	-0.200
-586.894	489.710	0.108	0.248
-585.879	190.343	0.097	-0.147
-584.865	800.000	0.017	-0.062
-583.850	-200.000	0.001	-0.150
-582.836	113.818	0.016	-0.020
-581.821	45.851	0.279	0.259
-580.806	549.624	-0.127	-0.304
-579.792	211.667	-0.127	-0.200
-578.777	160.387	0.230	0.322
-577.763	-23.287	-0.254	0.153
-576.748	-51.805	0.063	-0.029
-575.733	800.000	-0.031	-0.117
-574.719	-50.549	0.324	-0.153
-573.704	13.667	-0.168	-0.131
-572.690	-57.707	-0.151	0.066
-571.675	555.498	0.019	0.046
-570.661	62.937	-0.221	-0.222
-569.646	-200.000	0.024	-0.142
-568.631	105.051	-0.040	-0.048
-567.617	139.534	-0.235	-0.310
-566.602	800.000	-0.030	0.110
-565.588	-135.158	-0.276	-0.033
-564.573	800.000	-0.153	-0.535
-563.558	28.340	0.083	-0.070
-562.544	69.663	0.017	0.018
-561.529	100.846	0.071	-0.082
-560.515	-68.610	0.125	-0.049
-559.500	-27.036	-0.132	0.077
-558.485	-65.052	0.273	-0.110
-557.471	-200.000	0.040	-0.179
-556.456	-40.852	0.074	0.038
-555.442	-118.652	0.077	-0.014
-554.427	250.170	-0.158	0.269
-553.412	-200.000	-0.033	0.197
-552.398	-3.284	-0.169	-0.118
-551.383	773.674	-0.046	0.127
-550.369	49.096	-0.201	-0.189
-549.354	800.000	-0.063	-0.219
-548.339	-200.000	0.033	0.227
-547.325	-117.566	-0.417	0.075
-546.310	-200.000	0.003	-0.256
-545.296	-76.749	-0.075	0.026
-544.281	48.013	0.289	-0.271
-543.266	350.127	0.083	-0.164
-542.252	-200.000	-0.005	0.128
-541.237	740.021	-0.071	-0.192
-540.223	39.140	-0.087	0.078
-539.208	165.172	0.050	0.071
-538.193	-107.455	0.189	0.042
-537.179	-162.730	0.364	0.018
-536.164	-142.326	-0.024	-0.002
-535.150	-200.000	0.007	-0.061
-534.135	-200.000	-0.046	-0.214
-533.121	-29.080	0.115	-0.066
-532.106	265.042	-0.088	-0.154
-531.091	236.784	-0.134	-0.222
-530.077	800.000	-0.084	-0.335
-529.062	-163.169	-0.112	0.005
-528.048	-108.086	-0.158	0.034
-527.033	-29.223	-0.176	0.101
-526.018	-81.361	0.174	-0.057
-525.004	800.000	-0.027	-0.103
-523.989	462.445	0.095	-0.212
-522.975	-30.763	-0.130	0.074
-521.960	800.000	-0.088	-0.276
-520.945	-141.307	0.340	-0.035
-519.931	-57.282	0.108	0.048
-518.916	-139.874	0.065	0.007
-517.902	800.000	-0.038	0.145
-516.887	163.301	0.075	-0.106
-515.872	-200.000	-0.045	0.398
-514.858	-36.900	0.171	0.092
-513.843	373.225	0.098	-0.199
-512.829	-200.000	0.006	0.049
-511.814	-114.437	-0.294	0.057
-510.799	-200.000	0.011	0.051
-509.785	-10.870	-0.319	-0.211
-508.770	-110.158	0.338	-0.071
-507.756	-200.000	0.005	0.570
-506.741	45.999	-0.190	0.176
-505.726	-123.172	0.328	-0.053
-504.712	-138.422	0.360	-0.040
-503.697	-50.681	0.246	-0.116
-502.683	258.730	-0.209	-0.361
-501.668	-108.956	-0.184	-0.039
-500.653	35.234	0.168	-0.147
-499.639	173.565	-0.121	-0.175
-498.624	800.000	0.121	-0.372
-497.610	-53.004	0.041	0.019
-496.595	-200.000	-0.006	0.116
-495.581	303.449	0.109	-0.202
-494.566	-159.923	-0.280	0.015
-493.551	-140.061	0.182	0.019
-492.537	58.163	-0.263	-0.258
-491.522	-54.389	0.172	0.078
-490.508	59.611	-0.020	0.020
-489.493	-200.000	0.021	0.091
-488.478	-16.024	0.263	0.167
-487.464	-122.219	-0.054	0.009
-486.449	67.791	-0.082	0.084
-485.435	31.483	0.116	0.100
-484.420	800.000	-0.044	0.149
-483.405	-84.257	-0.133	-0.042
-482.391	-144.159	0.091	0.009
-481.376	21.882	0.205	-0.167
-480.362	-93.981	0.095	0.026
-479.347	46.104	0.235	-0.217
-478.332	-200.000	-0.009	0.056
-477.318	800.000	-0.059	0.210
-476.303	1.035	0.047	-0.033
-475.289	401.546	-0.139	0.293
-474.274	-79.206	-0.163	-0.055
-473.259	800.000	0.030	-0.093
-472.245	-63.190	0.444	-0.183
-471.230	-4.369	0.237	0.164
-470.216	-158.449	0.176	-0.010
-469.201	109.310	-0.153	0.183
-468.186	-200.000	0.013	-0.132
-467.172	15.547	-0.173	0.136
-466.157	274.939	-0.079	0.139
-465.143	128.628	-0.123	0.157
-464.128	-200.000	0.024	-0.113
-463.113	301.093	-0.139	0.257
-462.099	-111.933	-0.092	-0.019
-461.084	800.000	0.081	-0.239
-460.070	-163.596	-0.090	-0.004
-459.055	-79.245	-0.231	0.078
-458.040	53.900	-0.121	0.116
-457.026	-59.499	-0.229	-0.098
-456.011	45.152	0.057	0.052
-454.997	-112.367	-0.116	0.023
-453.982	-51.961	-0.024	0.011
-452.968	682.292	-0.161	0.420
-451.953	-200.000	0.019	-0.122
-450.938	669.419	-0.127	-0.328
-449.924	-200.000	0.013	0.143
-448.909	-73.307	-0.173	-0.063
-447.895	-89.841	-0.161	0.047
-446.880	-123.825	-0.202	0.032
-445.865	174.101	-0.084	-0.121
-444.851	41.221	-0.055	0.050
-443.836	13.499	0.189	-0.147
-442.822	-171.287	-0.345	0.012
-441.807	-99.390	0.265	0.067
-440.792	-45.064	0.228	-0.113
-439.778	24.163	-0.139	-0.114
-438.763	499.116	-0.054	-0.125
-437.749	511.371	-0.061	-0.141
-436.734	-127.212	-0.225	0.033
-435.719	-50.958	-0.380	-0.178
-434.705	800.000	0.043	0.185
-433.690	-99.715	-0.129	0.032
-432.676	-200.000	-0.009	-0.369
-431.661	-8.477	-0.086	0.058
-430.646	379.254	-0.035	-0.071
-429.632	387.852	-0.059	-0.122
-428.617	-139.003	-0.241	0.026
-427.603	-163.732	0.122	-0.006
-426.588	800.000	0.099	0.380
-425.573	318.444	0.075	-0.141
-424.559	144.538	0.175	0.233
-423.544	-200.000	-0.043	0.576
-422.530	224.324	0.112	0.180
-421.515	-125.680	-0.234	0.035
-420.500	-200.000	0.042	-0.244
-419.486	800.000	0.101	-0.283
-418.471	-59.407	0.167	-0.072
-417.457	512.469	-0.120	-0.278
-416.442	800.000	-0.020	0.065
-415.428	800.000	-0.055	0.155
-414.413	103.250	-0.142	0.166
-413.398	342.858	-0.030	-0.059
-412.384	800.000	-0.106	-0.306
-411.369	-115.241	-0.368	0.069
-410.355	-100.729	0.021	-0.005
-409.340	800.000	0.011	0.039
-408.325	-48.364	0.131	-0.063
-407.311	-32.472	0.292	0.162
-406.296	71.354	-0.073	0.075
-405.282	-100.036	0.203	-0.050
-404.267	-0.843	0.141	0.099
-403.252	93.233	-0.034	-0.039
-402.238	-50.302	-0.276	-0.130
-401.223	-200.000	-0.004	0.032
-400.209	-200.000	-0.007	0.431
-399.194	2.926	0.068	0.049
-398.179	-101.208	0.252	0.061
-397.165	800.000	-0.046	0.176
-396.150	258.591	-0.104	0.178
-395.136	-200.000	-0.018	0.088
-394.121	6.964	0.197	-0.146
-393.106	-200.000	0.058	-0.476
-392.092	-125.584	0.239	0.036
-391.077	-108.876	-0.216	0.046
-390.063	454.485	-0.035	0.077
-389.048	397.766	0.127	-0.265
-388.033	250.212	-0.256	-0.432
-387.019	800.000	0.049	0.193
-386.004	-46.966	0.182	0.089
-384.990	-85.909	-0.085	0.026
-383.975	-51.716	-0.100	0.046
-382.960	65.893	-0.248	0.251
-381.946	-127.092	-0.143	0.021
-380.931	182.092	-0.248	0.364
-379.917	-158.462	0.110	0.006
-378.902	69.328	-0.294	-0.301
-377.888	115.605	-0.047	-0.057
-376.873	800.000	-0.049	0.207
-375.858	-120.527	-0.024	0.004
-374.844	-104.616	-0.190	-0.044
-373.829	800.000	0.079	0.342
-372.815	13.969	-0.158	-0.123
-371.800	192.458	-0.181	0.272
-370.785	-200.000	-0.030	0.263
-369.771	444.898	0.049	-0.107
-368.756	-200.000	0.012	0.070
-367.742	800.000	-0.051	0.168
-366.727	157.834	-0.253	-0.349
-365.712	-200.000	-0.048	-0.430
-364.698	315.676	-0.082	-0.154
-363.683	274.210	0.118	0.208
-362.669	-200.000	0.033	-0.202
-361.654	-200.000	0.010	-0.125
-360.639	-13.536	0.082	-0.053
-359.625	-179.892	0.131	0.003
-358.610	187.648	0.238	0.354
-357.596	-144.784	-0.010	-0.001
-356.581	-200.000	0.033	0.210
-355.566	10.471	-0.074	-0.056
-354.552	100.575	-0.078	-0.090
-353.537	160.723	-0.132	-0.184
-352.523	-95.488	0.145	0.039
-351.508	-97.090	-0.093	-0.024
-350.493	-45.682	0.205	-0.101
-349.479	289.157	-0.112	0.202
-348.464	-134.653	-0.191	0.023
-347.450	-151.724	0.044	0.003
-346.435	-66.104	0.143	0.057
-345.420	8.256	-0.220	0.164
-344.406	-118.408	-0.222	-0.039
-343.391	162.940	-0.202	0.282
-342.377	138.962	0.056	-0.073
-341.362	-103.541	-0.110	0.026
-340.348	126.619	0.190	-0.239
-339.333	295.290	0.154	-0.281
-338.318	-200.000	0.005	-0.120
-337.304	800.000	0.034	0.094
-336.289	-43.563	0.258	-0.130
-335.275	150.255	-0.257	-0.346
-334.260	-10.862	0.357	0.234
-333.245	346.398	-0.095	-0.186
-332.231	119.877	0.073	0.089
-331.216	-118.940	-0.088	0.015
-330.202	-134.659	0.101	-0.012
-329.187	211.358	0.166	0.259
-328.172	-28.414	0.316	-0.181
-327.158	-128.100	0.137	0.020
-326.143	252.749	-0.009	0.015
-325.129	-89.749	-0.453	0.132
-324.114	-73.312	0.107	0.039
-323.099	-9.700	-0.203	-0.134
-322.085	31.490	-0.083	-0.071
-321.070	-101.771	0.206	0.050
-320.056	26.418	0.158	-0.131
-319.041	2.327	0.117	-0.084
-318.026	-122.486	0.273	0.044
-317.012	-50.901	0.151	-0.070
-315.997	-200.000	-0.021	0.233
-314.983	-86.960	0.231	0.070
-313.968	-143.488	0.267	-0.025
-312.953	348.209	0.048	-0.095
-311.939	23.341	0.107	0.087
-310.924	-88.280	0.140	-0.042
-309.910	-200.000	0.003	0.020
-308.895	67.212	0.035	0.035
-307.880	-116.548	-0.448	-0.082
-306.866	-124.123	0.220	-0.034
-305.851	33.601	0.051	-0.044
-304.837	50.446	0.104	-0.097
-303.822	93.749	0.268	0.302
-302.807	-200.000	-0.088	0.494
-301.793	125.050	-0.181	-0.226
-300.778	-155.247	-0.237	-0.015
-299.764	-32.729	-0.294	0.162
-298.749	-77.468	-0.047	0.016
-297.735	213.820	-0.118	0.186
-296.720	323.232	0.044	-0.083
-295.705	337.924	-0.105	0.202
-294.691	-77.654	-0.260	0.089
-293.676	-72.879	-0.211	0.077
-292.662	-200.000	0.083	0.445
-291.647	375.707	-0.133	-0.270
-290.632	-64.003	0.319	0.129
-289.618	-149.857	0.245	0.019
-288.603	-154.604	-0.051	0.003
-287.589	61.362	-0.266	0.262
-286.574	800.000	0.094	-0.349
-285.559	63.886	-0.082	-0.082
-284.545	-200.000	0.061	0.359
-283.530	10.086	-0.107	0.080
-282.516	14.184	-0.173	-0.134
-281.501	23.883	0.155	0.127
-280.486	424.199	0.129	-0.276
-279.472	303.164	0.047	0.087
-278.457	800.000	0.103	-0.403
-277.443	-86.484	-0.077	0.023
-276.428	800.000	0.068	0.245
-275.413	-31.486	0.119	-0.067
-274.399	-62.879	0.322	0.132
-273.384	79.580	-0.165	-0.176
-272.370	-75.383	0.150	0.053
-271.355	800.000	-0.081	0.281
-270.340	-58.004	0.128	-0.055
-269.326	503.766	0.025	-0.058
-268.311	739.777	-0.101	-0.268
-267.297	-200.000	0.042	-0.233
-266.282	271.118	0.056	0.098
-265.267	-137.453	-0.268	-0.030
-264.253	-89.956	0.200	0.058
-263.238	-7.376	-0.115	0.077
-262.224	-200.000	-0.078	-0.375
-261.209	-200.000	0.009	-0.309
-260.195	-44.660	-0.055	-0.027
-259.180	-200.000	0.056	0.246
-258.165	380.291	0.136	-0.277
-257.151	305.175	-0.066	-0.122
-256.136	-27.951	0.208	-0.120
-255.122	800.000	-0.007	-0.025
-254.107	-200.000	-0.043	-0.463
-253.092	-200.000	-0.006	-0.173
-252.078	-28.555	0.198	0.113
-251.063	-200.000	0.040	0.182
-250.049	-38.039	0.224	-0.118
-249.034	-119.718	0.496	0.085
-248.019	-200.000	0.053	0.258
-247.005	302.239	0.119	0.219
-245.990	-200.000	0.074	0.364
-244.976	-63.179	0.132	0.054
-243.961	-50.705	0.509	-0.237
-242.946	-72.528	-0.287	-0.105
-241.932	-106.620	-0.455	-0.100
-240.917	45.842	0.180	0.165
-239.903	42.647	0.067	-0.061
-238.888	373.698	-0.315	0.634
-237.873	517.843	0.063	0.145
-236.859	143.716	0.082	-0.108
-235.844	-127.138	0.257	-0.037
-234.830	271.882	0.141	0.246
-233.815	-1.243	0.078	-0.054
-232.800	-108.145	0.258	-0.055
-231.786	-70.379	0.116	-0.043
-230.771	19.920	0.052	-0.042
-229.757	-62.168	0.104	-0.043
-228.742	17.425	0.099	-0.078
-227.727	19.356	-0.292	-0.232
-226.713	800.000	0.050	-0.168
-225.698	30.193	0.122	-0.103
-224.684	-200.000	-0.003	-0.162
-223.669	-50.413	-0.048	0.023
-222.655	243.247	-0.019	0.031
-221.640	21.659	-0.046	-0.037
-220.625	298.343	-0.015	0.027
-219.611	-104.179	0.073	-0.017
-218.596	-200.000	0.003	-0.114
-217.582	186.868	-0.118	0.174
-216.567	800.000	-0.055	0.182
-215.552	-66.239	0.125	0.049
-214.538	-6.212	0.294	-0.199
-213.523	117.322	-0.092	0.112
-212.509	-138.298	0.246	0.027
-211.494	-107.285	-0.241	-0.052
-210.479	183.885	-0.152	-0.223
-209.465	-179.509	-0.273	0.006
-208.450	-200.000	-0.014	-0.096
-207.436	-55.742	-0.345	0.153
-206.421	85.887	-0.117	0.127
-205.406	32.351	0.139	-0.119
-204.392	-148.725	-0.232	-0.019
-203.377	53.202	0.227	-0.215
-202.363	340.299	-0.105	-0.202
-201.348	-166.845	0.164	-0.007
-200.333	800.000	-0.085	0.272
-199.319	-45.607	-0.189	0.093
-198.304	800.000	0.086	-0.340
-197.290	705.441	-0.144	-0.376
-196.275	4.744	-0.165	0.120
-195.260	-63.094	0.169	0.069
-194.246	-70.422	0.423	-0.158
-193.231	493.723	0.055	0.124
-192.217	189.078	0.227	0.335
-191.202	15.554	-0.206	0.160
-190.187	800.000	-0.066	0.239
-189.173	-159.121	-0.199	0.011
-188.158	-71.730	-0.205	0.075
-187.144	-143.927	-0.102	-0.010
-186.129	-1.668	-0.311	0.216
-185.114	800.000	-0.049	0.165
-184.100	93.480	-0.187	0.209
-183.085	800.000	0.135	0.503
-182.071	-60.508	-0.293	0.123
-181.056	144.027	0.275	-0.362
-180.042	-133.840	0.499	0.061
-179.027	64.611	0.153	0.153
-178.012	-200.000	-0.032	0.208
-176.998	552.725	-0.128	0.303
-175.983	-57.139	-0.241	-0.105
-174.969	-200.000	0.036	-0.254
-173.954	3.267	0.153	-0.110
-172.939	368.222	-0.206	0.412
-171.925	-130.112	-0.220	-0.030
-170.910	800.000	0.053	0.159
-169.896	800.000	0.038	0.138
-168.881	-102.400	0.154	-0.036
-167.866	-57.839	0.320	-0.138
-166.852	209.480	0.029	-0.045
-165.837	-6.477	0.289	0.194
-164.823	800.000	0.051	0.202
-163.808	-200.000	0.035	0.264
-162.793	118.151	-0.155	0.189
-161.779	8.000	-0.098	0.073
-160.764	-60.279	-0.054	0.023
-159.750	-154.811	0.163	-0.011
-158.735	45.070	0.089	0.081
-157.720	150.097	0.070	0.094
-156.706	800.000	-0.092	-0.392
-155.691	-101.295	-0.081	-0.020
-154.677	-200.000	-0.024	0.348
-153.662	-171.555	0.311	-0.010
-152.647	-94.540	-0.096	0.026
-151.633	637.380	-0.130	0.327
-150.618	311.391	-0.141	-0.261
-149.604	800.000	-0.078	-0.292
-148.589	642.321	0.026	0.065
-147.574	-200.000	0.030	0.347
-146.560	-29.310	0.179	-0.101
-145.545	-9.112	-0.189	0.125
-144.531	800.000	0.168	-0.550
-143.516	-18.411	-0.178	-0.110
-142.502	768.905	-0.063	-0.169
-141.487	-200.000	-0.007	0.048
-140.472	800.000	-0.059	-0.190
-139.458	42.373	-0.212	0.190
-138.443	800.000	0.057	0.179
-137.429	-200.000	0.020	0.211
-136.414	800.000	-0.132	0.534
-135.399	-77.774	-0.256	0.087
-134.385	-65.387	0.106	-0.042
-133.370	-97.248	0.146	-0.038
-132.356	104.063	-0.287	-0.332
-131.341	256.222	-0.113	0.191
-130.326	319.418	-0.017	-0.032
-129.312	121.145	-0.135	0.165
-128.297	238.989	-0.025	-0.041
-127.283	23.364	0.308	0.249
-126.268	328.176	0.035	0.065
-125.253	75.298	0.249	-0.259
-124.239	466.612	0.134	0.295
-123.224	428.531	0.043	-0.091
-122.210	-51.731	-0.069	-0.032
-121.195	733.059	0.084	0.222
-120.180	800.000	-0.048	0.165
-119.166	-200.000	-0.012	0.084
-118.151	-160.540	-0.057	-0.003
-117.137	-74.508	-0.276	-0.098
-116.122	800.000	-0.050	0.148
-115.107	-163.508	0.119	0.006
-114.093	-31.523	0.165	0.091
-113.078	-161.012	0.411	0.021
-112.064	-200.000	0.050	-0.363
-111.049	-97.757	-0.174	0.044
-110.034	410.115	-0.118	-0.246
-109.020	-200.000	-0.000	-0.014
-108.005	-106.721	0.297	0.065
-106.991	-97.890	-0.036	0.009
-105.976	-100.818	0.310	-0.075
-104.962	-81.714	0.227	-0.073
-103.947	-200.000	0.060	-0.301
-102.932	-13.322	-0.353	0.226
-101.918	93.870	0.140	0.156
-100.903	-94.949	-0.012	0.003
-99.889	800.000	0.024	0.071
-98.874	344.527	-0.043	-0.084
-97.859	562.613	0.026	-0.061
-96.845	800.000	0.058	0.192
-95.830	-57.878	-0.273	0.117
-94.816	-136.263	0.303	-0.035
-93.801	-200.000	-0.024	0.256
-92.786	53.207	-0.036	0.034
-91.772	-200.000	-0.052	0.270
-90.757	-59.588	0.062	-0.026
-89.743	131.749	0.239	0.303
-88.728	-80.078	-0.339	-0.112
-87.713	40.580	0.022	0.020
-86.699	-185.753	0.145	0.002
-85.684	-34.585	-0.116	0.063
-84.670	-200.000	0.019	0.172
-83.655	-25.314	0.208	-0.121
-82.640	-200.000	0.001	0.209
-81.626	-56.074	-0.017	0.008
-80.611	-108.542	-0.343	-0.073
-79.597	800.000	0.073	-0.220
-78.582	-79.779	-0.317	-0.105
-77.567	800.000	-0.005	0.015
-76.553	-200.000	-0.055	-0.424
-75.538	2.302	0.169	-0.120
-74.524	379.157	0.093	-0.187
-73.509	633.774	0.176	0.438
-72.494	-200.000	-0.006	-0.108
-71.480	800.000	0.100	0.279
-70.465	146.404	-0.082	0.108
-69.451	-38.624	0.254	0.132
-68.436	-200.000	-0.017	-0.123
-67.422	137.778	0.070	-0.090
-66.407	-200.000	-0.007	0.337
-65.392	242.820	-0.100	0.165
-64.378	800.000	0.062	0.256
-63.363	502.235	-0.074	0.168
-62.349	800.000	0.081	0.312
-61.334	61.867	-1.098	-1.076
-60.319	35.312	0.570	0.492
-59.305	498.405	-0.378	-0.856
-58.290	216.516	0.617	0.965
-57.276	800.000	0.559	1.899
-56.261	-200.000	96.268	595.693
-55.246	559.720	1366.970	3245.119
-54.232	162.179	2546.629	3508.574
-53.217	112.172	2155.948	2561.769
-52.203	42.241	1700.493	1518.622
-51.188	34.907	1512.269	1300.828
-50.173	32.507	1485.914	1262.040
-49.159	51.686	1535.558	1435.344
-48.144	53.494	1553.202	1464.108
-47.130	35.045	1512.704	1301.932
-46.115	31.904	1497.803	1267.863
-45.100	31.790	1494.327	1264.100
-44.086	31.833	1492.481	1262.777
-43.071	31.812	1490.404	1260.831
-42.057	31.686	1489.304	1259.003
-41.042	31.666	1487.711	1257.474
-40.027	31.646	1486.593	1256.345
-39.013	31.623	1485.241	1254.992
-37.998	31.700	1483.680	1254.142
-36.984	31.680	1482.425	1252.895
-35.969	31.635	1481.037	1251.377
-34.954	31.631	1479.888	1250.328
-33.940	31.741	1478.488	1249.827
-32.925	31.769	1476.647	1248.411
-31.911	31.840	1475.119	1247.538
-30.896	31.814	1474.143	1246.493
-29.881	31.834	1472.771	1245.416
-28.867	31.675	1472.028	1243.684
-27.852	31.688	1470.530	1242.456
-26.838	31.693	1469.192	1241.303
-25.823	31.760	1467.072	1239.906
-24.809	31.747	1465.137	1238.139
-23.794	31.711	1464.058	1236.937
-22.779	31.707	1462.917	1235.902
-21.765	31.706	1461.971	1235.044
-20.750	31.756	1461.073	1234.566
-19.736	31.785	1459.365	1233.267
-18.721	31.645	1458.813	1231.831
-17.706	31.730	1457.184	1230.967
-16.692	31.609	1456.588	1229.614
-15.677	31.595	1455.605	1228.646
-14.663	31.658	1454.237	1227.858
-13.648	31.681	1452.844	1226.783
-12.633	31.701	1452.192	1226.315
-11.619	31.661	1451.826	1225.691
-10.604	31.621	1451.029	1224.711
-9.590	31.654	1449.781	1223.825
-8.575	31.657	1449.311	1223.398
-7.560	31.621	1448.377	1222.330
-6.546	31.654	1446.956	1221.297
-5.531	31.619	1446.427	1220.569
-4.517	31.568	1445.339	1219.272
-3.502	31.537	1444.446	1218.270
-2.487	31.534	1443.663	1217.544
-1.473	31.584	1442.567	1216.895
-0.458	31.665	1440.923	1215.983
0.556	31.995	1431.296	1205.438
1.571	29.326	1406.692	1167.736
2.586	26.358	1350.517	1102.930
3.600	24.957	1271.852	1030.540
4.615	23.658	1225.616	985.781
5.629	19.925	1168.067	919.614
6.644	10.350	1081.443	804.022
7.659	2.842	1040.799	737.755
8.673	2.075	1034.840	729.802
9.688	1.891	1031.776	726.702
10.702	1.755	1030.485	725.081
11.717	1.669	1028.382	723.128
12.731	4.873	1031.449	740.470
13.746	14.386	1045.588	796.205
14.761	22.468	1056.581	843.372
15.775	24.860	1058.016	855.901
16.790	25.065	1058.048	856.829
17.804	25.122	1057.307	856.427
18.819	24.816	1056.532	854.262
19.834	24.938	1055.797	854.171
20.848	25.133	1055.055	854.425
21.863	25.141	1055.153	854.470
22.877	25.279	1054.846	854.801
23.892	25.241	1054.090	853.931
24.907	24.883	1053.998	852.077
25.921	25.090	1052.683	851.923
26.936	25.106	1051.418	850.902
27.950	24.989	1051.023	849.949
28.965	25.133	1049.472	849.305
29.980	24.970	1048.000	847.267
30.994	24.886	1046.756	845.790
32.009	25.074	1046.249	846.190
33.023	25.203	1045.701	846.285
34.038	25.002	1044.409	844.217
35.053	25.030	1043.713	843.710
36.067	25.240	1042.943	843.999
37.082	25.243	1042.080	843.244
38.096	25.193	1041.373	842.359
39.111	25.352	1040.879	842.631
40.126	25.506	1039.818	842.421
41.140	25.293	1039.045	840.722
42.155	25.113	1037.166	838.288
43.169	24.806	1036.055	835.879
44.184	24.699	1035.147	834.575
45.199	24.862	1034.060	834.382
46.213	24.845	1032.864	833.268
47.228	24.676	1032.498	832.109
48.242	25.006	1031.690	832.921
49.257	24.926	1031.412	832.249
50.271	25.001	1030.826	832.054
51.286	25.245	1029.660	832.169
52.301	25.250	1029.001	831.588
53.315	25.300	1027.942	830.886
54.330	25.118	1027.354	829.498
55.344	25.092	1026.544	828.650
56.359	25.058	1025.759	827.784
57.374	25.185	1024.652	827.405
58.388	24.961	1024.137	825.882
59.403	25.072	1023.106	825.489
60.417	24.918	1022.811	824.470
61.432	24.830	1021.340	822.804
62.447	24.838	1020.838	822.366
63.461	24.876	1020.479	822.179
64.476	24.774	1020.263	821.464
65.490	24.928	1018.827	820.941
66.505	24.937	1017.424	819.780
67.520	24.838	1016.889	818.822
68.534	24.988	1016.021	818.735
69.549	24.777	1015.078	816.942
70.563	24.543	1013.918	814.865
71.578	24.513	1012.927	813.860
72.593	24.454	1012.630	813.283
73.607	24.244	1011.452	811.308
74.622	24.360	1010.409	810.929
75.636	24.567	1010.215	811.640
76.651	24.798	1009.090	811.712
77.666	24.589	1008.490	810.212
78.680	24.469	1007.408	808.726
79.695	24.612	1006.910	808.900
80.709	24.732	1006.247	808.841
81.724	24.784	1005.764	808.617
82.739	24.760	1004.862	807.713
83.753	24.736	1003.859	806.727
84.768	24.960	1003.349	807.255
85.782	25.383	1002.956	808.769
86.797	25.572	1002.042	808.815
87.812	25.483	1001.179	807.644
88.826	25.416	999.656	806.043
89.841	25.292	999.505	805.293
90.855	25.411	998.801	805.188
91.870	25.455	997.822	804.527
92.884	25.364	997.069	803.441
93.899	25.231	996.037	801.945
94.914	25.319	995.122	801.528
95.928	25.480	994.059	801.319
96.943	25.290	994.018	800.368
97.957	24.936	992.637	797.612
98.972	24.924	991.051	796.211
99.987	24.688	990.585	794.716
101.001	24.933	989.503	794.865
102.016	25.077	989.255	795.237
103.030	25.058	988.595	794.551
104.045	25.110	987.192	793.586
105.060	24.922	986.163	791.857
106.074	24.708	985.094	789.980
107.089	24.924	984.173	790.128
108.103	25.127	984.171	790.950
109.118	25.331	983.169	790.974
110.133	24.951	981.982	788.277
111.147	24.860	980.988	787.010
112.162	24.770	979.693	785.504
113.176	24.546	978.836	783.767
114.191	24.633	978.106	783.492
115.206	24.856	977.389	783.827
116.220	24.532	976.357	781.510
117.235	24.385	975.151	779.836
118.249	24.500	975.041	780.178
119.264	24.602	974.070	779.780
120.279	24.530	973.149	778.661
121.293	24.520	972.648	778.147
122.308	24.539	971.909	777.567
123.322	24.524	971.414	777.037
124.337	24.631	969.624	776.003
125.352	24.422	968.566	774.178
126.366	24.061	966.857	771.181
127.381	23.699	965.996	768.860
128.395	24.292	965.740	771.153
129.410	24.702	965.629	772.769
130.424	25.035	965.017	773.652
131.439	24.987	963.726	772.341
132.454	24.993	962.854	771.600
133.468	24.976	962.154	770.894
134.483	25.019	961.158	770.215
135.497	25.173	960.541	770.313
136.512	25.270	959.887	770.138
137.527	25.252	959.492	769.674
138.541	25.367	958.519	769.318
139.556	25.267	957.828	768.268
140.570	25.239	957.150	767.538
141.585	25.213	956.608	766.924
142.600	25.348	955.893	766.859
143.614	25.216	954.925	765.450
144.629	25.422	953.802	765.362
145.643	25.625	953.277	765.735
146.658	25.698	951.890	764.864
147.673	25.391	950.618	762.473
148.687	25.275	949.884	761.324
149.702	25.228	948.875	760.248
150.716	25.044	947.924	758.639
151.731	25.035	947.295	758.034
152.746	25.096	946.177	757.329
153.760	25.272	946.041	757.896
154.775	25.528	944.978	758.054
155.789	25.468	944.462	757.323
156.804	25.427	943.128	756.015
157.819	25.383	942.190	755.010
158.833	25.354	941.492	754.262
159.848	25.533	940.868	754.447
160.862	25.605	940.449	754.343
161.877	25.401	939.627	752.766
162.892	25.321	938.745	751.657
163.906	25.379	937.920	751.172
164.921	25.457	936.447	750.253
165.935	25.432	935.566	749.373
166.950	25.527	934.194	748.604
167.964	25.346	934.331	747.893
168.979	25.415	932.867	746.946
169.994	25.479	931.475	746.030
171.008	25.144	930.761	744.002
172.023	25.295	930.482	744.340
173.037	25.658	929.550	745.031
174.052	25.282	928.803	742.809
175.067	25.181	927.495	741.282
176.081	25.165	926.875	740.655
177.096	25.226	925.854	740.026
178.110	25.259	925.183	739.556
179.125	25.035	924.156	737.750
180.140	24.820	923.066	735.931
181.154	24.892	922.791	735.942
182.169	25.005	922.287	735.938
183.183	25.132	922.064	736.216
184.198	25.448	921.405	736.922
185.213	25.465	920.614	736.293
186.227	25.368	920.135	735.447
187.242	25.404	919.847	735.302
188.256	25.421	919.225	734.807
189.271	25.398	918.305	733.914
190.286	25.705	916.955	734.021
191.300	25.442	916.521	732.536
192.315	24.839	914.914	728.735
193.329	24.064	913.373	724.288
194.344	23.636	912.652	721.915
195.359	24.286	913.049	724.809
196.373	25.066	913.384	728.181
197.388	25.416	912.819	729.086
198.402	25.308	912.252	728.129
199.417	25.204	912.039	727.473
200.432	25.337	911.242	727.311
201.446	25.193	910.784	726.301
202.461	24.923	909.804	724.361
203.475	24.927	909.390	723.984
204.490	24.577	907.746	721.199
205.504	23.334	906.182	714.882
206.519	23.821	906.107	716.721
207.534	24.916	906.201	721.146
208.548	24.825	905.806	720.403
209.563	25.255	905.297	721.663
210.577	25.277	905.018	721.464
211.592	24.839	904.313	719.080
212.607	25.464	903.639	720.988
213.621	25.612	903.305	721.252
214.636	25.521	902.388	720.090
215.650	25.569	902.012	719.917
216.665	25.508	901.223	718.983
217.680	25.393	901.270	718.497
218.694	25.590	900.833	718.870
219.709	25.168	899.585	716.128
220.723	24.811	898.808	714.020
221.738	25.133	898.450	714.959
222.753	25.494	897.598	715.653
223.767	25.246	896.854	714.009
224.782	25.255	896.311	713.553
225.796	25.480	896.046	714.171
226.811	25.683	895.284	714.307
227.826	25.130	894.355	711.309
228.840	24.394	892.391	706.771
229.855	24.375	891.896	706.239
230.869	24.466	892.123	706.718
231.884	24.278	890.821	704.878
232.899	24.309	890.349	704.566
233.913	25.116	890.453	707.775
234.928	25.325	890.056	708.221
235.942	25.121	889.552	706.953
236.957	25.258	888.296	706.430
237.972	25.005	887.475	704.721
238.986	24.870	886.827	703.611
240.001	24.880	886.709	703.495
241.015	25.079	885.844	703.529
242.030	25.119	885.302	703.192
243.045	25.215	884.856	703.154
244.059	25.382	884.109	703.150
245.074	25.508	883.810	703.343
246.088	25.381	883.162	702.268
247.103	25.098	882.023	700.198
248.117	25.047	881.387	699.432
249.132	25.517	881.698	701.449
250.147	26.008	881.219	702.922
251.161	26.002	880.903	702.584
252.176	26.138	880.333	702.596
253.190	26.145	879.742	702.089
254.205	26.299	879.321	702.291
255.220	26.375	879.282	702.491
256.234	26.418	878.426	701.912
257.249	26.217	877.782	700.556
258.263	26.250	876.899	699.917
259.278	26.048	876.379	698.657
260.293	26.219	876.636	699.465
261.307	26.273	875.621	698.801
262.322	26.243	875.039	698.159
263.336	26.091	874.252	696.882
264.351	25.513	872.690	693.348
265.366	24.526	870.917	688.073
266.380	24.189	870.121	686.087
267.395	24.924	870.633	689.262
268.409	25.737	870.856	692.507
269.424	25.800	869.893	691.923
270.439	26.066	869.253	692.373
271.453	26.184	868.527	692.184
272.468	26.079	868.273	691.518
273.482	26.138	867.795	691.303
274.497	26.313	867.437	691.627
275.512	25.913	866.774	689.506
276.526	25.385	865.300	686.256
277.541	25.603	865.002	686.790
278.555	26.219	864.325	688.541
279.570	25.909	863.809	686.891
280.585	25.649	863.468	685.568
281.599	25.790	862.715	685.447
282.614	25.990	862.235	685.763
283.628	25.596	860.979	683.207
284.643	25.289	860.075	681.266
285.657	25.608	860.012	682.364
286.672	25.547	859.475	681.647
287.687	24.918	858.806	678.672
288.701	25.243	858.575	679.660
289.716	25.768	858.211	681.300
290.730	25.402	857.274	679.112
291.745	25.133	856.687	677.570
292.760	25.014	855.569	676.178
293.774	24.883	855.456	675.535
294.789	25.960	855.924	679.909
295.803	26.541	855.978	682.080
296.818	26.564	855.481	681.712
297.833	26.634	854.638	681.241
298.847	26.415	853.551	679.495
299.862	25.998	852.694	677.186
300.876	26.071	852.624	677.344
301.891	26.474	852.212	678.468
302.906	26.497	851.439	677.878
303.920	26.125	850.462	675.651
304.935	25.943	849.832	674.408
305.949	26.554	849.409	676.296
306.964	26.610	849.171	676.255
307.979	26.226	848.696	674.384
308.993	26.232	847.830	673.661
310.008	26.700	847.244	674.876
311.022	26.739	847.164	674.900
312.037	26.503	846.541	673.464
313.052	26.229	845.919	671.892
314.066	26.152	845.105	670.901
315.081	25.439	843.681	667.064
316.095	24.747	842.553	663.545
317.110	25.335	842.625	665.724
318.125	26.199	843.189	669.315
319.139	25.831	841.862	666.842
320.154	24.637	840.047	660.932
321.168	24.061	839.136	658.028
322.183	24.669	839.477	660.486
323.197	25.717	840.028	664.731
324.212	26.006	839.787	665.548
325.227	26.037	839.145	665.096
326.241	26.306	838.752	665.718
327.256	26.301	838.009	665.050
328.270	26.099	837.416	663.777
329.285	25.900	837.329	662.916
330.300	25.887	836.064	661.809
331.314	25.776	835.019	660.518
332.329	25.831	834.782	660.472
333.343	26.134	834.345	661.178
334.358	26.369	834.161	661.834
335.373	26.349	833.738	661.367
336.387	26.389	833.351	661.147
337.402	26.580	833.270	661.725
338.416	26.800	832.555	661.899
339.431	26.928	831.628	661.569
340.446	26.816	831.349	660.884
341.460	27.010	830.976	661.235
342.475	27.025	830.415	660.783
343.489	26.857	829.323	659.244
344.504	26.756	828.844	658.440
345.519	27.101	828.852	659.641
346.533	27.250	828.530	659.867
347.548	27.234	828.065	659.381
348.562	27.241	827.628	659.000
349.577	27.409	826.730	658.834
350.592	27.225	826.212	657.697
351.606	27.266	825.596	657.297
352.621	27.214	825.558	657.019
353.635	26.985	825.234	655.876
354.650	27.028	824.292	655.225
355.665	26.668	823.189	652.993
356.679	25.797	821.611	648.548
357.694	25.445	821.243	646.936
358.708	26.065	821.276	649.135
359.723	26.254	820.348	649.023
360.738	26.485	820.016	649.530
361.752	26.859	820.295	651.038
362.767	26.882	819.497	650.429
363.781	27.205	820.061	651.979
364.796	27.395	819.972	652.532
365.810	27.573	819.304	652.580
366.825	27.537	818.933	652.098
367.840	27.504	818.857	651.860
368.854	27.354	818.058	650.632
369.869	27.011	816.756	648.312
370.883	26.859	816.004	647.117
371.898	26.996	815.815	647.399
372.913	26.829	815.198	646.257
373.927	26.908	814.153	645.650
374.942	27.047	813.937	645.917
375.956	27.180	813.290	645.819
376.971	27.129	813.234	645.539
377.986	27.329	812.344	645.484
379.000	27.376	812.385	645.623
380.015	27.491	811.707	645.438
381.029	27.394	810.974	644.454
382.044	27.378	810.445	643.919
383.059	27.532	810.488	644.440
384.073	27.461	809.603	643.429
385.088	27.537	808.989	643.154
386.102	27.495	808.621	642.656
387.117	27.362	807.625	641.337
388.132	27.272	807.048	640.507
389.146	26.972	806.420	638.896
390.161	26.548	805.233	636.409
391.175	26.741	805.262	637.055
392.190	27.238	805.085	638.602
393.205	27.232	804.744	638.253
394.219	26.250	803.028	633.394
395.234	24.514	800.557	625.316
396.248	23.794	799.608	622.003
397.263	24.725	800.790	626.126
398.278	26.571	802.098	633.564
399.292	27.292	801.361	635.443
400.307	26.936	801.255	634.061
401.321	26.769	800.692	632.975
402.336	26.905	800.571	633.296
403.350	27.228	799.975	633.896
404.365	27.567	799.837	634.913
405.380	27.893	800.113	636.210
406.394	28.091	800.134	636.860
407.409	28.347	799.655	637.313
408.423	28.279	798.849	636.380
409.438	28.122	798.252	635.302
410.453	28.151	798.119	635.240
411.467	28.318	797.322	635.130
412.482	28.183	796.799	634.189
413.496	28.125	796.440	633.646
414.511	28.247	796.253	633.862
415.526	28.250	795.966	633.588
416.540	28.206	795.441	632.963
417.555	28.133	794.903	632.225
418.569	27.892	794.086	630.689
419.584	27.838	793.479	629.963
420.599	27.932	793.087	629.923
421.613	111.382	1286.069	1460.579
422.628	95.897	1357.865	1460.711
