DTS Sentinel unit serial number:	SN413079Multiplexer serial number:	ORYXHardware model number:	OX4-SRSoftware version number:	ORYX F/W v4.00 Oryx Data Collector v3.7.2.0data status	okinstallation	princeton_trtdifferential loss correction	single-endedforward channel	channel 3reverse channel	N/Adate	2019/09/11time	02:14:11forward acquisition time	60.00reverse acquisition time	0.00gamma	496.2192k internal	0.2332k external	0.2332temperature offset calibration	0.9912default loss term (dB/km)	0.3790temperature slope calibration	1.0000multiplexer offset coefficient	1.0000multiplexer slope coefficient	1.0000fibre end	0.00T internal ref (°C)	29.19T ext. ref 1 (°C)	-0.31T ext. ref 2 (°C)	23.34length (m)	temperature (°C)	Stokes	anti-Stokes-747.200	-13.031	-0.048	0.032
-746.185	-18.671	0.142	0.089
-745.171	-53.038	0.532	0.246
-744.156	102.935	-0.186	-0.220
-743.142	4.296	0.157	0.116
-742.127	150.204	-0.087	-0.119
-741.112	-31.581	-0.269	-0.152
-740.098	-12.724	-0.136	0.089
-739.083	-200.000	-0.008	-0.060
-738.069	215.706	0.108	-0.173
-737.054	5.754	-0.228	0.170
-736.039	-58.969	-0.198	-0.086
-735.025	-20.252	0.205	-0.127
-734.010	20.063	0.064	0.052
-732.996	-173.981	-0.422	0.012
-731.981	-124.075	-0.051	0.008
-730.966	-55.358	0.225	0.102
-729.952	252.671	0.152	-0.261
-728.937	13.258	-0.282	0.220
-727.923	-80.058	0.104	-0.035
-726.908	232.286	-0.111	-0.183
-725.894	-200.000	-0.020	0.317
-724.879	-37.099	-0.041	-0.022
-723.864	-59.370	-0.129	-0.056
-722.850	-78.654	-0.382	0.131
-721.835	128.112	-0.073	0.093
-720.821	102.424	0.275	-0.323
-719.806	-66.284	-0.337	0.135
-718.791	-200.000	-0.054	-0.281
-717.777	364.127	0.080	-0.161
-716.762	216.691	0.157	-0.252
-715.748	-21.186	0.459	-0.282
-714.733	225.030	-0.171	0.277
-713.718	-107.815	0.074	-0.016
-712.704	66.992	-0.271	-0.277
-711.689	800.000	-0.015	0.059
-710.675	-126.764	0.065	-0.010
-709.660	108.349	0.225	-0.270
-708.645	67.981	0.056	0.058
-707.631	421.343	-0.101	0.218
-706.616	-33.148	0.339	-0.189
-705.602	60.956	-0.238	-0.237
-704.587	-200.000	0.050	0.282
-703.572	467.238	-0.070	0.158
-702.558	-60.102	0.068	-0.029
-701.543	507.943	0.016	-0.037
-700.529	-128.234	-0.362	0.052
-699.514	-93.580	0.252	0.070
-698.499	-83.056	-0.148	0.048
-697.485	800.000	0.106	0.331
-696.470	577.782	-0.032	-0.078
-695.456	27.352	-0.169	0.142
-694.441	13.934	0.311	0.243
-693.426	578.285	0.098	-0.241
-692.412	-125.608	-0.094	0.014
-691.397	-102.825	0.266	0.064
-690.383	616.746	-0.055	-0.139
-689.368	53.546	-0.065	-0.062
-688.354	-2.331	0.081	-0.057
-687.339	-25.080	-0.138	0.082
-686.324	-81.119	-0.123	0.041
-685.310	2.407	-0.198	0.144
-684.295	-200.000	-0.015	-0.156
-683.281	-200.000	0.004	-0.237
-682.266	27.626	0.104	-0.088
-681.251	122.257	-0.161	-0.202
-680.237	83.775	-0.090	-0.098
-679.222	-12.692	0.081	-0.053
-678.208	-24.471	-0.250	-0.149
-677.193	800.000	-0.021	0.068
-676.178	-4.524	-0.085	-0.059
-675.164	-38.154	0.269	-0.143
-674.149	-199.752	0.057	-0.000
-673.135	-200.000	-0.005	-0.051
-672.120	7.299	0.177	0.133
-671.105	217.895	-0.048	-0.076
-670.091	490.221	0.155	-0.356
-669.076	-71.288	-0.045	-0.017
-668.062	-30.832	-0.048	0.027
-667.047	192.010	-0.084	0.127
-666.032	-200.000	0.026	-0.221
-665.018	-121.708	0.205	-0.034
-664.003	225.279	0.050	0.081
-662.989	73.884	-0.292	-0.307
-661.974	-200.000	0.052	-0.239
-660.959	-31.513	-0.308	-0.174
-659.945	-65.419	0.182	0.073
-658.930	800.000	0.022	-0.079
-657.916	800.000	0.068	-0.272
-656.901	41.208	-0.143	0.130
-655.886	441.413	0.161	-0.353
-654.872	-44.795	0.213	0.107
-653.857	23.572	0.191	-0.158
-652.843	-164.155	-0.261	0.012
-651.828	47.585	-0.111	-0.104
-650.814	-128.841	0.605	-0.085
-649.799	-48.679	0.142	0.069
-648.784	-200.000	-0.026	-0.224
-647.770	-97.337	-0.074	-0.019
-646.755	84.428	-0.160	-0.176
-645.741	178.033	0.058	-0.085
-644.726	41.410	0.116	-0.105
-643.711	-75.211	0.056	0.020
-642.697	17.146	0.170	-0.135
-641.682	-200.000	0.039	-0.345
-640.668	9.562	-0.272	-0.207
-639.653	191.586	-0.197	-0.298
-638.638	-1.782	-0.137	-0.096
-637.624	-18.572	0.121	0.076
-636.609	-200.000	-0.024	-0.238
-635.595	-56.454	-0.231	-0.103
-634.580	-121.986	-0.414	-0.068
-633.565	-64.170	0.144	0.059
-632.551	-70.046	0.201	-0.077
-631.536	73.332	-0.106	0.112
-630.522	800.000	-0.132	-0.469
-629.507	-111.028	-0.104	0.021
-628.492	-20.775	0.096	0.059
-627.478	-200.000	0.044	0.222
-626.463	216.836	-0.097	-0.155
-625.449	47.884	-0.087	-0.081
-624.434	172.634	-0.153	-0.221
-623.419	-180.782	-0.131	-0.003
-622.405	-200.000	0.021	0.237
-621.390	-165.140	0.174	0.008
-620.376	-136.965	-0.453	0.052
-619.361	129.958	-0.224	-0.287
-618.346	-113.573	0.081	-0.016
-617.332	-131.117	-0.132	0.018
-616.317	14.740	0.264	0.206
-615.303	190.602	0.139	0.209
-614.288	471.312	0.179	0.402
-613.273	109.040	-0.125	0.149
-612.259	63.197	-0.049	-0.049
-611.244	98.166	0.119	-0.137
-610.230	541.927	0.089	0.213
-609.215	-124.077	0.047	0.007
-608.201	-78.908	-0.371	-0.126
-607.186	-118.049	0.246	-0.044
-606.171	120.513	-0.073	-0.091
-605.157	-200.000	-0.020	-0.118
-604.142	76.582	-0.056	0.059
-603.128	-200.000	-0.021	0.128
-602.113	429.353	-0.066	-0.142
-601.098	522.061	0.087	-0.204
-600.084	105.331	-0.188	0.222
-599.069	22.394	0.195	0.160
-598.055	-13.474	0.197	-0.128
-597.040	-200.000	0.030	-0.395
-596.025	50.512	-0.125	0.118
-595.011	-1.644	-0.226	-0.159
-593.996	-200.000	-0.016	0.130
-592.982	-102.978	-0.222	-0.053
-591.967	375.046	-0.196	-0.399
-590.952	515.941	-0.092	0.214
-589.938	-200.000	-0.005	0.041
-588.923	-200.000	0.023	0.172
-587.909	125.180	-0.137	0.173
-586.894	522.179	0.098	0.230
-585.879	-11.550	-0.079	0.052
-584.865	198.562	-0.155	-0.238
-583.850	-200.000	-0.008	0.214
-582.836	253.901	0.005	0.008
-581.821	432.365	0.070	0.152
-580.806	-138.837	0.157	0.017
-579.792	649.601	-0.138	-0.352
-578.777	-57.831	0.373	-0.163
-577.763	146.107	-0.045	0.060
-576.748	800.000	0.137	-0.421
-575.733	-76.372	0.229	-0.080
-574.719	67.212	-0.420	0.428
-573.704	-143.076	0.258	0.025
-572.690	150.374	0.255	-0.346
-571.675	-122.944	-0.324	0.052
-570.661	-127.692	-0.050	0.007
-569.646	-96.546	-0.460	-0.121
-568.631	-54.866	0.306	0.138
-567.617	219.414	0.046	-0.074
-566.602	-21.257	0.152	-0.093
-565.588	800.000	-0.006	0.021
-564.573	-104.971	-0.139	-0.032
-563.558	-32.379	-0.267	-0.149
-562.544	216.992	-0.046	-0.073
-561.529	-116.985	0.130	-0.024
-560.515	-76.732	-0.233	-0.082
-559.500	-78.913	-0.327	-0.111
-558.485	-146.505	0.249	-0.022
-557.471	-200.000	0.004	-0.102
-556.456	-71.458	-0.283	0.106
-555.442	-200.000	0.016	0.184
-554.427	225.237	-0.080	-0.129
-553.412	-142.493	-0.131	-0.013
-552.398	-82.875	-0.163	-0.052
-551.383	135.620	-0.097	0.126
-550.369	3.162	0.315	-0.229
-549.354	-71.275	0.152	-0.057
-548.339	17.850	0.271	0.216
-547.325	325.537	-0.032	-0.061
-546.310	309.489	-0.213	-0.398
-545.296	-200.000	0.003	0.072
-544.281	477.643	0.117	0.264
-543.266	116.323	0.156	0.191
-542.252	800.000	-0.038	-0.105
-541.237	-107.604	-0.164	-0.036
-540.223	800.000	-0.048	0.149
-539.208	57.002	0.208	-0.202
-538.193	-101.472	-0.358	-0.087
-537.179	-124.345	-0.032	-0.005
-536.164	111.505	0.094	-0.114
-535.150	752.621	-0.005	0.013
-534.135	-200.000	-0.035	-0.469
-533.121	-130.287	0.431	-0.058
-532.106	-200.000	0.031	-0.505
-531.091	800.000	-0.025	-0.100
-530.077	-160.237	0.308	-0.017
-529.062	-200.000	0.035	0.197
-528.048	-46.691	-0.068	0.033
-527.033	87.445	0.084	0.093
-526.018	-200.000	0.026	-0.142
-525.004	274.336	-0.084	0.148
-523.989	-147.821	-0.201	-0.017
-522.975	242.514	-0.177	-0.295
-521.960	-46.409	0.422	0.207
-520.945	462.263	0.137	-0.304
-519.931	-152.476	-0.135	-0.010
-518.916	-62.811	-0.123	0.051
-517.902	-86.026	-0.210	-0.065
-516.887	-73.312	-0.198	-0.072
-515.872	-122.035	0.122	0.020
-514.858	134.676	-0.255	-0.330
-513.843	-179.228	-0.509	0.011
-512.829	332.184	0.099	-0.191
-511.814	516.769	-0.021	-0.048
-510.799	-9.886	0.290	-0.193
-509.785	466.473	-0.125	0.278
-508.770	800.000	-0.042	-0.151
-507.756	209.884	0.063	0.098
-506.741	-24.762	-0.223	0.132
-505.726	201.227	-0.197	0.302
-504.712	-86.045	0.207	0.064
-503.697	139.296	0.090	-0.118
-502.683	-200.000	-0.047	-0.324
-501.668	800.000	-0.169	0.525
-500.653	115.345	0.133	-0.161
-499.639	8.169	-0.179	-0.134
-498.624	572.912	-0.073	0.178
-497.610	149.347	-0.110	0.148
-496.595	545.662	-0.073	-0.175
-495.581	668.232	0.054	-0.140
-494.566	-200.000	0.026	-0.183
-493.551	-9.070	-0.242	-0.162
-492.537	800.000	-0.029	0.085
-491.522	-200.000	0.062	0.285
-490.508	79.705	-0.145	0.155
-489.493	800.000	-0.037	0.138
-488.478	157.087	-0.148	-0.203
-487.464	-200.000	0.017	-0.202
-486.449	-200.000	0.023	0.245
-485.435	466.472	0.111	0.248
-484.420	319.882	0.090	-0.170
-483.405	-200.000	-0.082	0.376
-482.391	-28.027	0.116	0.067
-481.376	-0.380	0.098	-0.069
-480.362	-100.275	0.154	-0.038
-479.347	-8.175	-0.108	-0.072
-478.332	-200.000	0.031	0.205
-477.318	45.007	0.238	-0.218
-476.303	81.106	0.081	0.087
-475.289	800.000	-0.069	0.297
-474.274	135.344	-0.299	0.387
-473.259	800.000	-0.013	-0.055
-472.245	800.000	0.093	-0.333
-471.230	44.509	0.190	0.174
-470.216	-98.066	0.198	-0.051
-469.201	-103.804	-0.305	-0.071
-468.186	228.943	0.189	-0.307
-467.172	218.279	-0.114	-0.181
-466.157	-200.000	0.001	-0.294
-465.143	-125.437	0.107	0.016
-464.128	311.819	-0.107	-0.199
-463.113	136.846	-0.110	0.143
-462.099	-115.803	-0.349	0.065
-461.084	-49.914	0.364	0.172
-460.070	8.676	-0.270	0.203
-459.055	683.569	-0.111	0.289
-458.040	49.110	0.217	0.202
-457.026	230.497	0.144	-0.234
-456.011	10.789	-0.119	0.090
-454.997	240.448	-0.092	0.153
-453.982	-171.050	0.464	-0.016
-452.968	800.000	0.006	0.023
-451.953	800.000	-0.010	0.035
-450.938	-28.901	0.183	-0.105
-449.924	18.372	0.128	0.102
-448.909	-148.137	-0.119	0.010
-447.895	-108.945	-0.219	0.047
-446.880	-89.220	-0.179	-0.052
-445.865	-200.000	0.002	-0.133
-444.851	59.462	0.243	0.239
-443.836	-200.000	0.060	-0.320
-442.822	268.288	0.045	0.078
-441.807	184.159	0.140	0.206
-440.792	138.798	-0.084	0.110
-439.778	-37.994	0.203	-0.107
-438.763	-157.180	-0.160	0.010
-437.749	98.615	0.179	0.205
-436.734	99.512	-0.245	-0.282
-435.719	-95.308	0.198	0.053
-434.705	275.730	-0.113	-0.200
-433.690	63.893	0.194	0.194
-432.676	800.000	-0.039	-0.159
-431.661	-139.852	0.050	0.005
-430.646	-200.000	-0.063	-0.308
-429.632	699.148	0.058	-0.153
-428.617	-175.765	0.128	0.003
-427.603	-200.000	0.054	0.375
-426.588	-147.788	-0.195	0.016
-425.573	-84.510	0.081	0.025
-424.559	-80.425	0.186	0.062
-423.544	-24.695	0.265	-0.157
-422.530	213.153	0.058	0.090
-421.515	-200.000	0.005	-0.573
-420.500	259.981	0.071	0.121
-419.486	-200.000	0.009	0.078
-418.471	-51.413	-0.157	0.073
-417.457	83.638	-0.060	0.065
-416.442	32.710	0.102	0.087
-415.428	-117.406	0.060	-0.011
-414.413	-52.171	-0.121	-0.056
-413.398	-200.000	0.019	-0.303
-412.384	219.282	0.077	-0.122
-411.369	130.306	0.111	-0.141
-410.355	25.347	-0.180	0.149
-409.340	108.399	0.201	0.238
-408.325	-90.425	-0.259	-0.075
-407.311	-65.646	-0.128	0.051
-406.296	-120.013	0.237	-0.040
-405.282	64.361	0.137	-0.137
-404.267	-200.000	0.016	0.095
-403.252	-103.186	0.279	0.066
-402.238	-128.565	-0.065	-0.009
-401.223	800.000	0.066	0.246
-400.209	-28.703	0.089	0.051
-399.194	-200.000	-0.033	0.250
-398.179	-200.000	0.018	0.282
-397.165	-200.000	0.003	-0.205
-396.150	262.629	0.035	0.061
-395.136	-174.448	-0.013	-0.000
-394.121	285.940	0.069	-0.123
-393.106	132.928	-0.125	-0.160
-392.092	21.178	0.293	-0.236
-391.077	30.077	0.085	-0.072
-390.063	72.747	-0.110	-0.113
-389.048	411.253	-0.006	-0.013
-388.033	-200.000	-0.050	-0.320
-387.019	-170.811	0.180	0.006
-386.004	-80.411	-0.337	0.112
-384.990	-101.419	0.147	0.036
-383.975	-200.000	0.004	-0.206
-382.960	800.000	-0.084	-0.296
-381.946	-11.774	0.176	-0.114
-380.931	16.974	-0.148	-0.116
-379.917	302.518	0.165	0.303
-378.902	-57.764	-0.163	0.071
-377.888	506.007	-0.090	0.207
-376.873	88.605	-0.236	0.260
-375.858	-26.969	0.125	-0.073
-374.844	740.139	0.114	0.304
-373.829	-84.901	-0.071	0.022
-372.815	800.000	-0.030	-0.096
-371.800	277.516	-0.182	0.321
-370.785	275.255	-0.125	0.220
-369.771	-200.000	-0.082	-0.440
-368.756	220.795	0.025	0.040
-367.742	-6.297	0.091	0.061
-366.727	78.802	-0.076	0.080
-365.712	215.045	-0.086	0.135
-364.698	-15.767	-0.087	-0.055
-363.683	-200.000	0.071	-0.588
-362.669	-80.474	-0.033	-0.011
-361.654	-62.700	0.265	-0.109
-360.639	-200.000	-0.038	0.168
-359.625	-9.353	-0.063	0.041
-358.610	-9.383	-0.203	0.134
-357.596	800.000	0.068	0.203
-356.581	621.539	-0.067	-0.167
-355.566	-160.083	0.295	-0.016
-354.552	-200.000	0.046	0.271
-353.537	34.193	0.225	0.195
-352.523	-200.000	-0.020	-0.123
-351.508	0.954	0.159	0.113
-350.493	-200.000	-0.015	0.094
-349.479	-40.812	0.216	0.111
-348.464	-200.000	0.032	-0.244
-347.450	147.017	0.065	-0.086
-346.435	374.389	0.056	0.113
-345.420	72.329	0.145	-0.150
-344.406	-121.863	0.192	-0.031
-343.391	-107.581	-0.140	0.030
-342.377	-149.912	-0.185	0.014
-341.362	-30.340	0.510	0.287
-340.348	-73.736	-0.041	-0.015
-339.333	-91.526	-0.269	0.076
-338.318	-113.076	-0.056	0.011
-337.304	400.584	0.052	-0.108
-336.289	-200.000	0.073	0.362
-335.275	800.000	0.034	0.106
-334.260	781.170	-0.065	-0.175
-333.245	-165.137	0.152	-0.007
-332.231	-50.360	-0.366	0.171
-331.216	-133.743	-0.416	0.051
-330.202	-86.955	-0.390	-0.118
-329.187	-169.606	0.595	0.021
-328.172	-77.907	-0.257	0.088
-327.158	800.000	-0.079	-0.273
-326.143	-76.698	-0.199	0.069
-325.129	126.952	-0.050	0.063
-324.114	0.724	0.106	-0.075
-323.099	133.444	-0.217	0.278
-322.085	-62.865	0.220	-0.090
-321.070	375.538	-0.114	-0.231
-320.056	800.000	0.038	-0.124
-319.041	-200.000	0.005	0.126
-318.026	25.117	-0.233	0.191
-317.012	128.161	0.126	0.158
-315.997	-171.811	0.300	0.010
-314.983	-129.043	-0.138	0.019
-313.968	-159.253	0.341	-0.019
-312.953	-120.147	0.069	-0.012
-311.939	-129.064	0.316	0.044
-310.924	207.629	-0.120	0.185
-309.910	241.432	0.091	0.151
-308.895	-25.467	0.143	0.083
-307.880	189.923	0.029	-0.044
-306.866	800.000	-0.036	0.145
-305.851	800.000	0.123	0.430
-304.837	-112.307	-0.343	0.068
-303.822	-200.000	0.007	0.285
-302.807	-23.771	-0.210	0.124
-301.793	-200.000	0.028	0.151
-300.778	71.611	-0.226	0.232
-299.764	-187.942	-0.042	-0.001
-298.749	-103.175	0.255	0.060
-297.735	-146.672	0.310	-0.027
-296.720	-60.579	-0.076	-0.032
-295.705	-200.000	-0.002	0.194
-294.691	62.004	0.189	0.187
-293.676	0.167	0.303	0.213
-292.662	800.000	0.066	0.199
-291.647	-117.498	-0.132	0.024
-290.632	100.067	0.140	-0.160
-289.618	800.000	-0.042	-0.130
-288.603	60.769	-0.071	-0.070
-287.589	208.537	0.124	0.191
-286.574	-200.000	0.025	0.406
-285.559	-200.000	0.052	-0.326
-284.545	-136.396	0.157	-0.018
-283.530	-151.473	0.329	0.024
-282.516	-200.000	0.003	-0.084
-281.501	615.824	-0.136	0.337
-280.486	313.050	-0.104	0.193
-279.472	-139.049	-0.224	0.024
-278.457	-122.238	-0.132	0.021
-277.443	112.545	-0.064	0.077
-276.428	-121.568	-0.138	0.023
-275.413	335.088	-0.003	-0.005
-274.399	152.074	-0.052	0.071
-273.384	94.815	-0.197	0.221
-272.370	-158.162	0.180	-0.010
-271.355	125.174	-0.176	-0.219
-270.340	800.000	0.089	-0.304
-269.326	-153.439	-0.315	-0.022
-268.311	443.795	0.167	0.363
-267.297	-27.875	-0.074	-0.042
-266.282	495.005	0.108	-0.245
-265.267	89.433	0.069	0.076
-264.253	111.658	0.032	-0.038
-263.238	54.262	0.258	-0.245
-262.224	0.233	0.368	-0.259
-261.209	-96.358	-0.243	0.064
-260.195	-109.324	0.327	0.068
-259.180	-178.943	0.349	0.008
-258.165	54.306	0.137	-0.130
-257.151	251.364	0.009	-0.016
-256.136	298.428	-0.143	-0.260
-255.122	-9.379	0.246	-0.162
-254.107	-115.286	0.418	-0.078
-253.092	394.727	-0.066	-0.136
-252.078	-105.992	-0.341	0.076
-251.063	-134.281	0.179	0.022
-250.049	-107.494	0.093	0.020
-249.034	-113.739	-0.470	0.090
-248.019	532.935	-0.136	0.317
-247.005	13.245	-0.334	-0.255
-245.990	-62.102	0.175	-0.072
-244.976	-110.931	-0.076	0.016
-243.961	359.871	-0.046	0.091
-242.946	-200.000	-0.010	0.173
-241.932	-200.000	0.003	0.406
-240.917	432.544	-0.058	-0.124
-239.903	49.251	0.058	-0.054
-238.888	-60.397	-0.223	0.094
-237.873	216.810	0.078	-0.123
-236.859	-200.000	0.002	-0.313
-235.844	116.797	-0.204	-0.247
-234.830	61.014	0.360	0.353
-233.815	800.000	-0.045	0.165
-232.800	800.000	0.068	0.274
-231.786	-47.925	-0.385	-0.184
-230.771	173.948	0.166	0.237
-229.757	56.902	0.112	-0.108
-228.742	-39.193	0.236	-0.122
-227.727	-42.449	0.201	0.101
-226.713	-200.000	-0.026	0.419
-225.698	153.888	-0.267	-0.360
-224.684	-104.138	0.271	-0.062
-223.669	159.390	0.065	0.089
-222.655	-200.000	-0.018	0.193
-221.640	284.863	0.044	0.078
-220.625	-200.000	0.027	0.375
-219.611	-200.000	0.022	0.233
-218.596	-13.134	0.234	-0.150
-217.582	137.694	0.031	-0.041
-216.567	-200.000	0.035	-0.210
-215.552	292.126	-0.105	-0.189
-214.538	-77.251	-0.119	-0.041
-213.523	-76.870	-0.054	-0.019
-212.509	106.791	-0.079	0.092
-211.494	-200.000	0.015	0.130
-210.479	200.005	-0.076	0.116
-209.465	95.158	-0.328	-0.368
-208.450	800.000	0.077	-0.262
-207.436	-200.000	-0.088	-0.407
-206.421	10.280	0.300	-0.225
-205.406	48.032	-0.220	0.203
-204.392	103.175	0.143	-0.165
-203.377	79.046	0.128	-0.135
-202.363	111.287	0.197	0.234
-201.348	192.028	-0.149	0.222
-200.333	101.703	0.222	-0.255
-199.319	800.000	-0.061	0.196
-198.304	800.000	-0.053	0.203
-197.290	-49.192	0.308	0.145
-196.275	156.018	-0.289	-0.393
-195.260	17.154	0.379	0.296
-194.246	800.000	0.064	0.240
-193.231	-200.000	0.027	-0.224
-192.217	-140.559	0.111	0.011
-191.202	-49.454	0.256	0.120
-190.187	-12.199	-0.278	0.179
-189.173	-33.365	-0.565	-0.308
-188.158	-64.967	0.328	0.130
-187.144	-38.184	0.119	-0.062
-186.129	-133.529	-0.197	-0.024
-185.114	-17.092	0.110	-0.068
-184.100	-73.628	-0.204	-0.073
-183.085	88.869	-0.182	0.199
-182.071	800.000	0.080	-0.229
-181.056	-200.000	-0.029	0.133
-180.042	692.316	-0.069	0.179
-179.027	3.678	0.256	-0.184
-178.012	280.355	-0.224	-0.394
-176.998	29.286	-0.207	-0.173
-175.983	-2.936	0.274	0.189
-174.969	-34.942	-0.178	0.095
-173.954	-200.000	0.055	0.392
-172.939	510.689	-0.066	0.150
-171.925	41.927	-0.054	-0.048
-170.910	-127.735	0.136	-0.019
-169.896	758.301	-0.135	-0.359
-168.881	55.721	0.132	-0.126
-167.866	800.000	-0.053	0.213
-166.852	800.000	-0.027	-0.098
-165.837	-131.793	0.214	0.028
-164.823	-200.000	0.019	-0.177
-163.808	-200.000	-0.030	-0.232
-162.793	62.761	-0.306	0.301
-161.779	-164.707	0.086	-0.004
-160.764	422.535	0.019	0.040
-159.750	5.992	-0.051	0.037
-158.735	-200.000	0.034	0.220
-157.720	-117.308	0.069	0.012
-156.706	-93.991	-0.189	-0.051
-155.691	-200.000	0.039	0.393
-154.677	-136.722	-0.236	-0.027
-153.662	135.384	0.119	0.153
-152.647	23.753	0.261	-0.211
-151.633	-130.001	-0.238	-0.032
-150.618	-103.966	-0.106	-0.024
-149.604	103.274	0.143	-0.165
-148.589	-127.901	0.234	-0.033
-147.574	-110.478	-0.210	0.043
-146.560	-200.000	-0.012	-0.064
-145.545	800.000	-0.033	0.142
-144.531	800.000	0.060	-0.206
-143.516	800.000	0.036	0.152
-142.502	800.000	0.067	0.252
-141.487	-148.667	0.233	0.019
-140.472	-103.782	-0.112	0.026
-139.458	-89.683	-0.239	-0.069
-138.443	-200.000	-0.020	0.093
-137.429	800.000	0.061	0.172
-136.414	68.230	-0.104	-0.105
-135.399	199.716	0.114	0.172
-134.385	633.504	0.133	0.332
-133.370	486.625	-0.127	0.284
-132.356	-200.000	0.007	0.033
-131.341	-85.598	-0.133	-0.040
-130.326	245.065	-0.090	0.149
-129.312	227.331	-0.041	0.065
-128.297	-152.632	-0.165	0.012
-127.283	116.019	0.180	-0.216
-126.268	-41.621	0.228	-0.115
-125.253	-152.651	-0.355	-0.025
-124.239	-95.301	0.360	-0.095
-123.224	59.797	-0.160	-0.155
-122.210	25.991	0.046	-0.038
-121.195	5.051	0.293	0.212
-120.180	343.794	-0.073	-0.141
-119.166	54.294	-0.033	0.031
-118.151	-147.367	0.116	0.010
-117.137	8.607	-0.223	-0.165
-116.122	-200.000	0.036	-0.295
-115.107	-152.836	0.490	0.034
-114.093	-140.009	-0.291	-0.030
-113.078	-200.000	0.016	-0.127
-112.064	397.632	-0.081	-0.167
-111.049	289.563	0.109	0.195
-110.034	-127.391	-0.028	-0.004
-109.020	79.453	0.127	-0.134
-108.005	-200.000	0.114	0.491
-106.991	-200.000	0.022	-0.250
-105.976	-131.428	0.163	0.021
-104.962	-46.592	0.261	-0.125
-103.947	-145.791	-0.073	-0.006
-102.932	180.141	0.076	-0.109
-101.918	269.113	-0.014	-0.025
-100.903	-78.602	-0.178	0.060
-99.889	115.205	-0.201	-0.241
-98.874	-46.371	0.377	-0.182
-97.859	-188.184	0.084	0.001
-96.845	48.427	0.152	0.139
-95.830	73.001	0.116	-0.118
-94.816	-39.004	0.102	0.053
-93.801	-120.347	-0.286	0.048
-92.786	43.903	0.322	-0.289
-91.772	800.000	0.042	-0.122
-90.757	768.089	-0.069	-0.183
-89.743	214.464	0.152	0.235
-88.728	16.957	-0.270	0.209
-87.713	-200.000	0.028	0.205
-86.699	-21.868	0.242	-0.145
-85.684	106.948	-0.028	0.033
-84.670	-200.000	0.017	-0.105
-83.655	-68.770	0.259	0.098
-82.640	-200.000	0.008	-0.122
-81.626	80.476	0.124	0.131
-80.611	-99.287	0.100	0.025
-79.597	-200.000	0.054	-0.351
-78.582	-200.000	0.047	-0.236
-77.567	800.000	-0.043	-0.121
-76.553	-200.000	-0.028	0.128
-75.538	61.971	0.171	-0.167
-74.524	-93.414	-0.205	0.056
-73.509	-118.695	-0.161	-0.028
-72.494	-161.637	0.182	0.009
-71.480	800.000	0.140	0.416
-70.465	70.306	0.236	0.239
-69.451	204.854	0.117	-0.178
-68.436	19.727	0.163	0.128
-67.422	-200.000	-0.022	0.142
-66.407	-200.000	-0.045	-0.203
-65.392	-172.421	0.653	-0.020
-64.378	-60.012	-0.283	-0.118
-63.363	92.941	-0.263	-0.291
-62.349	-71.033	-0.132	-0.049
-61.334	42.960	-1.124	-1.004
-60.319	77.379	0.342	0.356
-59.305	-200.000	-0.170	-0.991
-58.290	800.000	0.494	1.538
-57.276	380.301	0.706	1.419
-56.261	-200.000	106.672	625.638
-55.246	520.335	1514.295	3477.255
-54.232	175.722	2705.925	3844.266
-53.217	110.595	2184.958	2573.021
-52.203	39.946	1706.780	1501.209
-51.188	32.305	1518.775	1283.871
-50.173	29.973	1492.727	1246.133
-49.159	51.070	1549.006	1438.402
-48.144	51.282	1565.169	1454.811
-47.130	32.502	1520.605	1286.562
-46.115	29.427	1506.220	1253.485
-45.100	29.275	1502.920	1249.662
-44.086	29.256	1500.054	1247.101
-43.071	29.177	1497.928	1244.748
-42.057	29.189	1496.321	1243.446
-41.042	29.186	1495.483	1242.679
-40.027	29.160	1493.836	1241.085
-39.013	29.221	1491.849	1239.798
-37.998	29.138	1490.900	1238.398
-36.984	29.117	1490.031	1237.486
-35.969	29.010	1488.616	1235.542
-34.954	29.133	1487.065	1235.033
-33.940	29.160	1485.150	1233.575
-32.925	29.157	1484.154	1232.680
-31.911	29.227	1482.724	1231.908
-30.896	29.220	1481.459	1230.762
-29.881	29.311	1480.449	1230.486
-28.867	29.289	1478.900	1228.999
-27.852	29.251	1477.751	1227.743
-26.838	29.283	1476.193	1226.614
-25.823	29.384	1474.378	1225.725
-24.809	29.324	1472.937	1224.084
-23.794	29.253	1471.618	1222.464
-22.779	29.297	1470.392	1221.689
-21.765	29.281	1469.855	1221.089
-20.750	29.252	1468.774	1219.953
-19.736	29.219	1467.592	1218.706
-18.721	29.211	1466.325	1217.552
-17.706	29.161	1465.553	1216.530
-16.692	29.132	1464.215	1215.178
-15.677	29.173	1463.042	1214.428
-14.663	29.106	1462.588	1213.561
-13.648	29.158	1461.340	1212.821
-12.633	29.170	1460.563	1212.206
-11.619	29.116	1459.572	1210.979
-10.604	29.101	1459.017	1210.376
-9.590	29.133	1457.868	1209.585
-8.575	29.131	1456.654	1208.514
-7.560	29.142	1455.875	1207.891
-6.546	29.198	1455.002	1207.491
-5.531	29.144	1454.247	1206.460
-4.517	29.029	1453.861	1205.336
-3.502	29.089	1452.591	1204.632
-2.487	29.233	1450.742	1203.993
-1.473	29.149	1450.260	1202.995
-0.458	29.244	1448.874	1202.418
0.556	26.797	1439.874	1191.348
1.571	23.998	1414.334	1152.019
2.586	20.772	1355.550	1083.988
3.600	19.420	1274.085	1010.837
4.615	18.396	1229.400	969.504
5.629	15.862	1174.712	912.574
6.644	7.664	1090.570	805.722
7.659	0.887	1050.513	742.871
8.673	-0.250	1045.125	733.441
9.688	-0.249	1041.381	730.758
10.702	-0.345	1040.042	729.285
11.717	-0.386	1037.720	727.394
12.731	2.580	1041.433	744.354
13.746	11.447	1053.688	796.477
14.761	18.320	1062.492	836.770
15.775	20.062	1064.726	846.978
16.790	20.312	1064.273	847.763
17.804	20.314	1063.218	846.857
18.819	20.096	1061.999	844.750
19.834	20.144	1061.447	844.469
20.848	20.151	1061.770	844.684
21.863	20.243	1061.155	844.570
22.877	20.284	1060.697	844.331
23.892	20.316	1059.422	843.397
24.907	20.188	1059.003	842.367
25.921	20.250	1058.236	841.981
26.936	20.221	1057.515	841.192
27.950	20.181	1056.617	840.210
28.965	20.131	1055.089	838.679
29.980	20.142	1053.127	837.101
30.994	20.058	1052.452	836.085
32.009	20.227	1051.259	835.874
33.023	20.402	1050.545	836.077
34.038	20.154	1049.296	833.815
35.053	20.061	1049.055	833.105
36.067	20.120	1048.754	833.074
37.082	20.150	1047.646	832.266
38.096	20.422	1046.026	832.206
39.111	20.491	1045.759	832.254
40.126	20.641	1044.642	832.006
41.140	20.477	1043.330	830.106
42.155	20.254	1042.153	828.030
43.169	20.038	1040.604	825.698
44.184	19.879	1039.843	824.265
45.199	20.087	1038.611	824.203
46.213	19.890	1037.786	822.542
47.228	19.804	1036.906	821.362
48.242	20.051	1035.866	821.634
49.257	20.051	1035.023	820.894
50.271	20.281	1034.007	821.104
51.286	20.340	1033.389	820.820
52.301	20.388	1032.442	820.221
53.315	20.324	1031.625	819.201
54.330	20.278	1030.976	818.394
55.344	20.264	1029.831	817.345
56.359	20.173	1029.385	816.490
57.374	20.275	1028.062	815.848
58.388	20.121	1027.107	814.294
59.403	20.119	1026.506	813.737
60.417	19.964	1026.304	812.778
61.432	19.995	1024.952	811.781
62.447	19.770	1024.680	810.439
63.461	19.987	1024.260	811.054
64.476	20.148	1022.591	810.410
65.490	20.142	1021.665	809.576
66.505	20.003	1021.095	808.406
67.520	19.976	1020.336	807.606
68.534	20.232	1019.042	807.706
69.549	20.004	1018.297	805.981
70.563	19.644	1017.005	803.215
71.578	19.508	1016.511	802.122
72.593	19.705	1015.080	801.835
73.607	19.617	1013.676	800.245
74.622	19.558	1013.231	799.550
75.636	19.878	1012.574	800.443
76.651	19.916	1011.898	800.014
77.666	19.978	1010.623	799.220
78.680	19.683	1010.229	797.478
79.695	19.854	1009.274	797.441
80.709	19.818	1008.988	796.977
81.724	19.892	1008.222	796.642
82.739	19.932	1007.098	795.868
83.753	20.022	1006.045	795.381
84.768	20.222	1005.760	796.000
85.782	20.434	1004.995	796.297
86.797	20.569	1004.348	796.332
87.812	20.455	1003.498	795.067
88.826	20.354	1002.658	793.871
89.841	20.370	1002.083	793.418
90.855	20.527	1000.764	793.021
91.870	20.548	1000.204	792.602
92.884	20.443	999.183	791.245
93.899	20.299	998.262	789.787
94.914	20.292	997.549	789.122
95.928	20.532	996.310	789.164
96.943	20.460	995.457	788.090
97.957	20.224	994.551	786.232
98.972	19.998	993.259	784.119
99.987	19.702	992.383	782.020
101.001	19.846	991.404	781.832
102.016	20.212	990.829	782.961
103.030	20.310	989.891	782.594
104.045	20.288	988.266	781.138
105.060	20.037	987.592	779.409
106.074	19.891	986.381	777.728
107.089	19.940	985.998	777.576
108.103	20.129	985.842	778.232
109.118	20.426	984.719	778.612
110.133	20.222	983.200	776.429
111.147	20.017	982.881	775.187
112.162	19.938	981.319	773.533
113.176	19.866	979.820	771.964
114.191	19.906	979.371	771.721
115.206	19.888	978.832	771.145
116.220	19.658	977.302	768.850
117.235	19.609	975.979	767.522
118.249	19.747	975.361	767.582
119.264	19.941	974.141	767.415
120.279	19.723	973.666	766.006
121.293	19.775	972.910	765.572
122.308	19.803	971.955	764.879
123.322	19.835	971.391	764.511
124.337	19.919	969.930	763.661
125.352	19.693	969.333	762.129
126.366	19.252	967.762	758.882
127.381	18.945	966.101	756.165
128.395	19.629	965.859	758.914
129.410	20.204	965.403	761.012
130.424	20.266	964.140	760.220
131.439	20.165	963.150	758.930
132.454	20.093	962.213	757.809
133.468	20.240	961.227	757.611
134.483	19.997	960.380	755.812
135.497	20.109	959.824	755.798
136.512	20.477	958.706	756.453
137.527	20.376	958.603	755.864
138.541	20.558	957.254	755.525
139.556	20.336	956.728	754.079
140.570	20.412	956.082	753.835
141.585	20.432	955.039	753.030
142.600	20.419	954.152	752.210
143.614	20.354	953.076	751.014
144.629	20.500	952.579	751.185
145.643	20.640	951.825	751.128
146.658	20.498	950.897	749.717
147.673	20.433	949.783	748.493
148.687	20.379	948.866	747.472
149.702	20.396	947.654	746.525
150.716	20.356	946.554	745.419
151.731	20.112	945.914	743.802
152.746	20.289	945.210	743.942
153.760	20.446	944.730	744.172
154.775	20.722	943.669	744.452
155.789	20.758	942.697	743.773
156.804	20.596	942.167	742.597
157.819	20.736	940.685	741.960
158.833	20.574	940.349	740.937
159.848	20.582	939.304	740.085
160.862	20.625	938.712	739.734
161.877	20.616	937.576	738.734
162.892	20.529	936.882	737.754
163.906	20.610	936.217	737.511
164.921	20.690	934.954	736.788
165.935	20.511	934.101	735.295
166.950	20.655	932.977	734.952
167.964	20.568	932.429	734.087
168.979	20.625	930.967	733.112
169.994	20.508	929.674	731.535
171.008	20.402	929.185	730.640
172.023	20.648	928.051	730.718
173.037	20.678	927.260	730.158
174.052	20.465	925.809	728.055
175.067	20.223	925.183	726.486
176.081	20.334	924.447	726.310
177.096	20.392	923.891	726.050
178.110	20.450	923.173	725.665
179.125	20.106	922.118	723.335
180.140	19.905	920.641	721.277
181.154	19.974	920.209	721.162
182.169	20.132	919.448	721.158
183.183	20.249	919.299	721.462
184.198	20.618	918.955	722.665
185.213	20.429	918.279	721.284
186.227	20.486	917.427	720.787
187.242	20.433	917.445	720.517
188.256	20.659	916.114	720.342
189.271	20.583	915.621	719.576
190.286	20.655	914.940	719.276
191.300	20.644	913.662	718.162
192.315	20.158	912.262	714.995
193.329	19.450	910.862	710.920
194.344	18.954	910.169	708.274
195.359	19.687	909.933	711.041
196.373	20.336	910.287	713.927
197.388	20.676	910.145	715.149
198.402	20.376	909.292	713.185
199.417	20.454	908.537	712.849
200.432	20.508	908.064	712.635
201.446	20.415	907.197	711.514
202.461	19.968	906.691	709.223
203.475	20.122	906.302	709.486
204.490	19.561	904.796	705.952
205.504	18.584	902.667	700.238
206.519	19.028	902.930	702.196
207.534	20.090	902.572	706.183
208.548	20.071	901.879	705.501
209.563	20.552	901.844	707.370
210.577	20.510	900.971	706.451
211.592	20.340	900.120	705.031
212.607	20.558	900.793	706.382
213.621	20.614	900.398	706.238
214.636	20.588	898.907	704.900
215.650	20.572	898.278	704.278
216.665	20.646	898.131	704.402
217.680	20.636	897.600	703.881
218.694	20.846	896.678	703.948
219.709	20.395	895.963	701.502
220.723	20.061	894.970	699.315
221.738	20.228	894.737	699.745
222.753	20.446	893.928	699.926
223.767	20.580	892.920	699.617
224.782	20.509	892.628	699.040
225.796	20.784	891.454	699.163
226.811	20.909	891.058	699.292
227.826	20.442	889.962	696.496
228.840	19.566	888.669	691.915
229.855	19.602	887.869	691.375
230.869	19.849	887.957	692.371
231.884	19.435	886.689	689.666
232.899	19.527	886.532	689.852
233.913	20.395	886.521	693.251
234.928	20.506	885.928	693.166
235.942	20.398	885.259	692.150
236.957	20.497	884.458	691.859
237.972	20.114	883.608	689.610
238.986	20.024	882.886	688.626
240.001	20.156	882.274	688.612
241.015	20.314	881.578	688.635
242.030	20.314	880.964	688.094
243.045	20.546	880.132	688.303
244.059	20.513	879.730	687.795
245.074	20.753	879.072	688.168
246.088	20.732	878.070	687.241
247.103	20.187	877.491	684.576
248.117	20.096	877.338	684.039
249.132	20.819	876.822	686.424
250.147	20.980	876.595	686.820
251.161	21.093	875.791	686.576
252.176	21.323	875.174	686.936
253.190	21.259	874.958	686.453
254.205	21.304	874.396	686.130
255.220	21.572	873.888	686.721
256.234	21.390	873.481	685.626
257.249	21.377	872.837	685.009
258.263	21.190	871.706	683.330
259.278	21.278	870.884	682.969
260.293	21.452	870.358	683.174
261.307	21.419	870.060	682.751
262.322	21.372	868.958	681.643
263.336	21.219	868.654	680.750
264.351	20.657	867.352	677.482
265.366	19.501	865.409	671.410
266.380	19.083	864.363	668.914
267.395	20.091	864.811	673.118
268.409	20.850	864.812	676.008
269.424	20.841	863.932	675.223
270.439	21.078	863.401	675.666
271.453	21.176	862.875	675.573
272.468	21.173	862.053	674.860
273.482	21.300	861.661	674.982
274.497	21.351	861.543	675.029
275.512	21.267	859.868	673.335
276.526	20.723	858.863	670.393
277.541	20.807	858.466	670.347
278.555	21.228	858.502	671.933
279.570	21.009	857.418	670.185
280.585	20.804	856.639	668.729
281.599	20.842	856.301	668.553
282.614	20.913	855.801	668.374
283.628	20.760	854.237	666.507
284.643	20.347	853.530	664.319
285.657	20.657	853.809	665.665
286.672	20.483	852.932	664.254
287.687	20.038	852.253	661.967
288.701	20.487	851.970	663.404
289.716	20.796	851.654	664.279
290.730	20.509	850.439	662.180
291.745	20.346	849.999	661.155
292.760	20.326	848.720	660.028
293.774	20.153	848.119	658.843
294.789	21.070	848.639	662.674
295.803	21.636	848.914	664.982
296.818	21.708	848.749	665.064
297.833	21.854	847.652	664.700
298.847	21.522	846.436	662.431
299.862	21.184	845.931	660.700
300.876	21.312	845.237	660.582
301.891	21.686	844.859	661.641
302.906	21.674	844.268	661.074
303.920	21.257	843.074	658.507
304.935	21.176	842.726	657.874
305.949	21.565	842.316	658.961
306.964	21.717	841.587	658.902
307.979	21.507	840.790	657.432
308.993	21.393	840.617	656.810
310.008	21.678	840.311	657.584
311.022	21.896	839.795	657.940
312.037	21.681	839.260	656.656
313.052	21.363	838.727	654.988
314.066	21.432	837.665	654.362
315.081	20.834	836.332	651.025
316.095	19.996	835.254	646.999
317.110	20.620	835.471	649.443
318.125	21.383	835.815	652.503
319.139	20.891	834.870	649.872
320.154	19.872	833.048	644.601
321.168	19.523	831.663	642.174
322.183	20.148	832.039	644.734
323.197	20.985	832.461	648.115
324.212	21.126	832.347	648.495
325.227	21.415	831.824	649.102
326.241	21.604	831.126	649.203
327.256	21.487	830.611	648.307
328.270	21.515	829.829	647.743
329.285	21.286	829.341	646.457
330.300	21.123	828.796	645.375
331.314	21.008	827.498	643.880
332.329	20.929	827.282	643.365
333.343	21.321	827.134	644.638
334.358	21.603	826.389	645.041
335.373	21.538	825.956	644.405
336.387	21.508	825.847	644.154
337.402	21.816	825.079	644.630
338.416	21.936	824.797	644.795
339.431	21.974	824.239	644.439
340.446	22.015	823.546	643.991
341.460	22.196	822.763	643.985
342.475	22.074	822.608	643.359
343.489	21.968	821.605	642.131
344.504	21.912	821.023	641.413
345.519	22.015	821.031	641.740
346.533	22.264	820.339	642.053
347.548	22.389	820.317	642.433
348.562	22.380	819.822	641.958
349.577	22.368	819.015	641.224
350.592	22.340	818.597	640.739
351.606	22.257	818.071	639.968
352.621	22.355	817.637	639.929
353.635	22.198	817.287	639.026
354.650	22.005	816.838	637.920
355.665	21.821	815.367	636.046
356.679	20.976	813.716	631.640
357.694	20.665	813.737	630.476
358.708	21.412	813.341	632.816
359.723	21.317	812.706	631.923
360.738	21.563	812.624	632.694
361.752	22.123	812.354	634.450
362.767	22.047	811.871	633.742
363.781	22.331	812.029	634.833
364.796	22.554	811.980	635.543
365.810	22.664	811.376	635.411
366.825	22.644	811.090	635.059
367.840	22.625	811.061	634.912
368.854	22.539	809.938	633.668
369.869	22.213	808.838	631.577
370.883	21.982	808.225	630.217
371.898	22.051	808.185	630.375
372.913	22.081	807.149	629.619
373.927	21.898	806.754	628.600
374.942	22.227	806.030	629.158
375.956	22.243	805.491	628.740
376.971	22.318	804.875	628.472
377.986	22.358	804.887	628.567
379.000	22.543	804.151	628.598
380.015	22.478	804.085	628.257
381.029	22.331	803.212	626.995
382.044	22.335	802.747	626.593
383.059	22.644	801.729	626.842
384.073	22.569	801.517	626.353
385.088	22.577	800.855	625.809
386.102	22.620	800.539	625.658
387.117	22.531	799.529	624.500
388.132	22.428	799.284	623.889
389.146	22.157	798.759	622.461
390.161	21.733	797.728	620.102
391.175	21.632	797.838	619.778
392.190	22.297	797.147	621.536
393.205	22.373	796.758	621.445
394.219	21.349	795.149	616.524
395.234	19.990	792.681	609.778
396.248	19.070	791.987	605.951
397.263	20.135	792.832	610.293
398.278	22.001	793.884	617.623
399.292	22.330	794.303	619.051
400.307	22.038	793.111	617.040
401.321	22.041	792.573	616.579
402.336	22.068	792.290	616.398
403.350	22.320	792.415	617.326
404.365	22.740	792.143	618.530
405.380	22.955	792.215	619.288
406.394	23.154	792.015	619.774
407.409	23.415	791.701	620.388
408.423	23.359	790.582	619.260
409.438	23.128	790.090	618.011
410.453	23.229	789.589	617.919
411.467	23.196	789.654	617.797
412.482	23.276	788.857	617.399
413.496	23.208	788.016	616.448
414.511	23.297	788.007	616.696
415.526	23.135	787.660	615.807
416.540	23.293	787.228	615.965
417.555	23.206	787.010	615.439
418.569	22.885	786.002	613.479
419.584	22.763	785.478	612.595
420.599	23.061	784.684	612.955
421.613	157.596	1364.090	1797.916
422.628	136.309	1448.501	1798.028
