DTS Sentinel unit serial number:	SN413079Multiplexer serial number:	ORYXHardware model number:	OX4-SRSoftware version number:	ORYX F/W v4.00 Oryx Data Collector v3.7.2.0data status	okinstallation	princeton_trtdifferential loss correction	single-endedforward channel	channel 3reverse channel	N/Adate	2019/09/10time	19:38:10forward acquisition time	60.00reverse acquisition time	0.00gamma	496.2192k internal	0.2320k external	0.2320temperature offset calibration	0.9911default loss term (dB/km)	0.3790temperature slope calibration	1.0000multiplexer offset coefficient	1.0000multiplexer slope coefficient	1.0000fibre end	0.00T internal ref (°C)	33.23T ext. ref 1 (°C)	-0.36T ext. ref 2 (°C)	26.02length (m)	temperature (°C)	Stokes	anti-Stokes-747.200	-200.000	-0.003	-0.029
-746.185	-200.000	0.117	0.000
-745.171	-16.223	-0.261	-0.168
-744.156	-5.418	-0.080	-0.056
-743.142	124.764	0.140	-0.178
-742.127	800.000	0.045	0.194
-741.112	16.396	-0.212	0.169
-740.098	-7.130	-0.336	0.230
-739.083	38.538	-0.096	-0.086
-738.069	14.790	-0.066	-0.052
-737.054	-200.000	0.026	-0.180
-736.039	-200.000	-0.026	-0.303
-735.025	-139.478	-0.340	-0.037
-734.010	-35.720	0.237	-0.130
-732.996	-113.621	-0.249	0.049
-731.981	69.472	0.019	-0.019
-730.966	800.000	-0.037	0.139
-729.952	-49.743	0.107	0.051
-728.937	62.743	-0.132	-0.134
-727.923	-63.427	0.308	-0.128
-726.908	610.567	0.023	0.058
-725.894	-125.006	-0.643	0.100
-724.879	-182.149	0.361	0.007
-723.864	800.000	-0.152	-0.427
-722.850	-159.993	-0.121	0.007
-721.835	-42.753	-0.050	-0.026
-720.821	-53.121	0.252	-0.117
-719.806	800.000	-0.038	-0.109
-718.791	473.482	-0.170	-0.386
-717.777	-200.000	-0.007	-0.274
-716.762	-109.792	-0.328	-0.070
-715.748	-116.525	0.155	0.029
-714.733	313.674	0.190	-0.362
-713.718	-27.386	-0.217	-0.128
-712.704	-41.039	0.368	-0.192
-711.689	-18.922	0.321	0.202
-710.675	100.176	0.087	0.102
-709.660	-200.000	0.060	0.474
-708.645	-200.000	-0.032	0.178
-707.631	167.639	0.140	-0.202
-706.616	-8.614	0.071	-0.048
-705.602	125.615	0.127	-0.163
-704.587	-23.315	-0.214	0.130
-703.572	-200.000	0.067	-0.345
-702.558	-20.194	0.235	-0.146
-701.543	231.507	0.153	0.252
-700.529	-115.453	0.224	-0.043
-699.514	52.207	-0.317	-0.305
-698.499	388.370	0.041	0.086
-697.485	697.455	-0.041	0.108
-696.470	-200.000	-0.007	0.175
-695.456	800.000	0.026	-0.102
-694.441	-146.790	-0.238	-0.021
-693.426	105.669	0.119	-0.142
-692.412	22.913	-0.080	-0.066
-691.397	800.000	0.071	-0.291
-690.383	-23.519	-0.201	0.122
-689.368	125.936	0.046	0.059
-688.354	-94.382	-0.391	-0.108
-687.339	-200.000	-0.062	0.335
-686.324	79.689	-0.083	-0.090
-685.310	-92.129	0.293	-0.084
-684.295	-200.000	0.033	0.315
-683.281	-106.783	0.194	-0.043
-682.266	-200.000	-0.024	0.244
-681.251	-147.411	0.340	-0.029
-680.237	-143.553	-0.315	0.030
-679.222	-150.404	-0.200	-0.016
-678.208	-50.038	0.167	0.080
-677.193	-200.000	0.009	0.146
-676.178	-141.319	0.168	-0.017
-675.164	123.573	-0.066	-0.084
-674.149	208.736	-0.094	0.148
-673.135	-69.783	0.300	0.115
-672.120	800.000	-0.024	0.084
-671.105	37.032	0.164	0.147
-670.091	295.621	0.084	0.155
-669.076	-31.987	0.252	0.142
-668.062	531.571	0.041	-0.099
-667.047	-143.337	-0.181	0.018
-666.032	53.741	0.151	0.146
-665.018	0.094	-0.167	-0.120
-664.003	-200.000	0.002	-0.285
-662.989	-81.053	-0.049	0.016
-661.974	531.600	-0.094	0.224
-660.959	122.900	0.113	0.142
-659.945	-129.624	-0.289	-0.040
-658.930	-23.862	-0.189	0.114
-657.916	-115.326	0.238	-0.045
-656.901	-196.550	-0.048	0.000
-655.886	192.555	-0.083	-0.126
-654.872	-69.288	-0.220	-0.085
-653.857	-88.638	0.222	0.067
-652.843	-56.683	0.359	-0.160
-651.828	800.000	0.086	0.262
-650.814	626.153	-0.032	-0.081
-649.799	99.351	-0.141	0.164
-648.784	-24.609	-0.108	0.065
-647.770	-89.382	0.175	-0.052
-646.755	800.000	-0.063	0.271
-645.741	160.620	-0.052	0.073
-644.726	800.000	0.021	0.066
-643.711	246.281	0.173	0.294
-642.697	-200.000	0.028	-0.258
-641.682	-200.000	-0.019	-0.156
-640.668	41.206	-0.266	0.242
-639.653	-200.000	-0.018	0.404
-638.638	33.508	-0.057	0.050
-637.624	21.120	0.144	-0.118
-636.609	-200.000	0.011	-0.292
-635.595	415.620	0.016	0.034
-634.580	-36.862	0.160	-0.087
-633.565	-87.176	-0.112	-0.034
-632.551	-76.892	-0.107	-0.037
-631.536	6.796	-0.035	-0.026
-630.522	-99.567	0.372	-0.094
-629.507	-200.000	0.005	0.167
-628.492	-23.288	-0.111	0.067
-627.478	452.095	-0.075	0.166
-626.463	-163.523	-0.419	-0.020
-625.449	800.000	0.014	-0.058
-624.434	-200.000	0.080	-0.544
-623.419	-180.680	-0.172	-0.004
-622.405	88.998	-0.055	0.062
-621.390	386.119	0.087	-0.181
-620.376	-21.430	0.303	0.186
-619.361	-60.594	-0.319	0.136
-618.346	-66.516	0.261	-0.104
-617.332	-88.763	-0.169	-0.051
-616.317	301.241	-0.168	-0.313
-615.303	-61.637	0.278	-0.117
-614.288	75.470	-0.064	-0.067
-613.273	191.759	0.133	-0.201
-612.259	68.717	0.046	-0.048
-611.244	383.230	-0.078	0.161
-610.230	184.175	0.066	-0.098
-609.215	-181.534	0.205	0.004
-608.201	-54.533	0.245	0.112
-607.186	33.919	0.039	0.034
-606.171	47.628	-0.175	0.165
-605.157	800.000	0.034	-0.122
-604.142	-90.169	0.198	0.058
-603.128	748.019	0.076	-0.206
-602.113	296.241	0.076	0.140
-601.098	19.972	-0.067	-0.054
-600.084	-97.085	-0.062	-0.016
-599.069	38.571	-0.102	0.092
-598.055	354.168	-0.154	-0.308
-597.040	-141.485	-0.196	0.020
-596.025	-32.679	-0.274	-0.153
-595.011	-76.505	0.453	-0.160
-593.996	-200.000	-0.004	0.400
-592.982	-36.127	0.273	0.148
-591.967	-51.662	-0.224	-0.105
-590.952	-84.239	0.027	-0.009
-589.938	-115.392	-0.254	-0.048
-588.923	59.724	-0.293	0.290
-587.909	-109.412	0.165	0.035
-586.894	9.067	0.243	-0.185
-585.879	800.000	0.096	-0.287
-584.865	-200.000	-0.046	0.204
-583.850	800.000	0.110	0.330
-582.836	-82.978	0.324	0.105
-581.821	-200.000	-0.022	-0.455
-580.806	-167.073	-0.141	-0.006
-579.792	114.802	0.161	-0.198
-578.777	800.000	0.099	0.281
-577.763	-79.172	0.167	-0.057
-576.748	195.363	-0.212	0.324
-575.733	62.538	0.123	-0.123
-574.719	-109.449	-0.157	0.033
-573.704	-192.357	0.232	-0.002
-572.690	324.029	-0.087	0.167
-571.675	208.753	0.059	0.093
-570.661	110.387	0.086	0.103
-569.646	-55.881	-0.114	-0.051
-568.631	-40.713	-0.201	-0.105
-567.617	-63.636	0.172	0.071
-566.602	-108.209	0.267	0.058
-565.588	800.000	-0.101	0.303
-564.573	-139.249	0.180	0.019
-563.558	54.921	-0.124	-0.120
-562.544	86.899	-0.347	-0.385
-561.529	-93.354	-0.160	-0.045
-560.515	-200.000	-0.077	0.401
-559.500	-200.000	-0.005	0.444
-558.485	-200.000	0.041	0.182
-557.471	-85.813	-0.084	0.026
-556.456	494.679	-0.041	0.095
-555.442	-160.430	0.300	-0.016
-554.427	10.275	-0.183	-0.140
-553.412	-52.940	0.316	-0.146
-552.398	192.934	0.161	-0.243
-551.383	63.168	-0.041	-0.041
-550.369	596.705	-0.025	-0.062
-549.354	-47.169	0.028	-0.014
-548.339	-126.837	0.154	-0.023
-547.325	111.904	-0.146	-0.177
-546.310	-153.028	-0.111	-0.008
-545.296	405.896	-0.157	0.332
-544.281	0.918	-0.180	-0.130
-543.266	563.907	0.024	-0.059
-542.252	25.501	-0.087	0.073
-541.237	-200.000	-0.037	0.328
-540.223	800.000	-0.042	0.169
-539.208	-1.078	0.134	-0.095
-538.193	-22.341	-0.228	0.139
-537.179	-142.374	0.165	-0.016
-536.164	146.877	0.139	0.187
-535.150	-27.678	0.257	0.150
-534.135	-53.946	-0.145	-0.066
-533.121	100.641	0.089	0.104
-532.106	42.103	-0.196	-0.179
-531.091	-8.565	-0.260	0.175
-530.077	-200.000	0.004	-0.067
-529.062	-103.635	0.320	-0.075
-528.048	32.326	0.177	-0.154
-527.033	-152.135	-0.184	0.013
-526.018	-200.000	-0.006	0.107
-525.004	580.766	0.112	0.275
-523.989	80.959	-0.148	0.160
-522.975	-200.000	0.008	-0.192
-521.960	-12.410	0.231	0.151
-520.945	-200.000	-0.050	0.247
-519.931	-63.512	-0.173	-0.071
-518.916	800.000	0.118	-0.439
-517.902	-200.000	0.026	-0.274
-516.887	-19.514	-0.281	-0.175
-515.872	-97.457	0.328	-0.085
-514.858	36.685	-0.096	0.085
-513.843	-95.633	-0.134	-0.036
-512.829	-75.183	0.176	0.063
-511.814	3.670	-0.090	-0.066
-510.799	-200.000	-0.002	-0.055
-509.785	-200.000	-0.002	-0.015
-508.770	97.705	-0.103	-0.119
-507.756	-200.000	-0.020	-0.120
-506.741	-139.072	-0.202	-0.022
-505.726	-27.438	0.181	0.105
-504.712	-145.607	-0.158	-0.014
-503.697	-200.000	0.052	0.323
-502.683	-86.886	0.090	-0.028
-501.668	452.074	-0.051	0.113
-500.653	-165.932	-0.077	0.003
-499.639	-42.581	0.085	0.043
-498.624	-200.000	0.033	-0.321
-497.610	375.971	0.123	0.252
-496.595	800.000	0.061	-0.172
-495.581	199.756	0.134	0.207
-494.566	53.101	-0.292	-0.280
-493.551	-48.763	0.306	-0.147
-492.537	-148.311	-0.365	-0.030
-491.522	116.865	0.150	-0.184
-490.508	561.084	0.018	-0.045
-489.493	-31.096	-0.269	-0.152
-488.478	132.842	0.159	-0.205
-487.464	-13.377	-0.261	-0.169
-486.449	-77.456	-0.222	0.077
-485.435	-110.347	-0.169	0.035
-484.420	800.000	0.009	0.032
-483.405	-200.000	0.026	-0.235
-482.391	-4.649	0.022	-0.016
-481.376	-200.000	0.027	0.148
-480.362	135.748	-0.130	-0.169
-479.347	231.222	-0.060	0.099
-478.332	-61.680	-0.208	0.087
-477.318	-200.000	0.020	0.105
-476.303	-200.000	0.008	-0.087
-475.289	-19.416	0.083	0.051
-474.274	49.767	0.174	-0.164
-473.259	-200.000	-0.063	-0.454
-472.245	-93.286	-0.163	0.045
-471.230	-159.132	0.363	0.020
-470.216	-100.067	-0.213	-0.053
-469.201	711.043	-0.062	0.165
-468.186	63.353	0.242	-0.243
-467.172	800.000	-0.081	-0.229
-466.157	240.235	0.092	-0.153
-465.143	-12.472	-0.305	0.199
-464.128	175.725	-0.031	0.045
-463.113	-102.687	0.213	-0.051
-462.099	-12.280	0.230	-0.150
-461.084	-72.934	0.293	-0.108
-460.070	273.067	0.024	0.043
-459.055	-9.454	-0.260	0.174
-458.040	-170.933	-0.056	-0.002
-457.026	-99.858	-0.149	-0.037
-456.011	-45.181	-0.045	0.023
-454.997	-200.000	0.021	-0.198
-453.982	-182.287	-0.201	0.004
-452.968	-152.392	-0.457	-0.033
-451.953	20.499	-0.191	-0.154
-450.938	237.758	0.017	-0.028
-449.924	800.000	0.075	-0.288
-448.909	-146.529	-0.213	-0.019
-447.895	-200.000	0.043	0.588
-446.880	8.294	0.114	-0.085
-445.865	130.921	0.014	0.018
-444.851	-69.531	-0.156	-0.060
-443.836	118.341	-0.382	-0.471
-442.822	2.510	0.257	0.186
-441.807	131.749	-0.036	0.046
-440.792	-17.962	-0.199	0.125
-439.778	-146.659	0.077	0.007
-438.763	-156.918	0.268	-0.016
-437.749	-60.103	-0.342	0.146
-436.734	800.000	-0.070	-0.225
-435.719	15.510	0.127	0.100
-434.705	-55.810	0.083	0.037
-433.690	-184.001	-0.113	-0.002
-432.676	231.791	0.144	-0.236
-431.661	299.850	-0.026	0.047
-430.646	150.810	-0.084	-0.113
-429.632	-9.648	0.202	-0.135
-428.617	-103.123	0.172	0.041
-427.603	-200.000	-0.018	0.151
-426.588	150.558	0.159	0.215
-425.573	-200.000	-0.055	0.461
-424.559	465.163	-0.072	0.160
-423.544	-200.000	0.053	0.260
-422.530	166.074	-0.153	0.216
-421.515	47.271	0.051	-0.047
-420.500	800.000	0.095	-0.333
-419.486	800.000	0.043	-0.149
-418.471	800.000	0.071	0.297
-417.457	-32.630	-0.460	-0.256
-416.442	-138.671	0.079	-0.009
-415.428	89.428	0.371	0.412
-414.413	-135.385	0.417	0.050
-413.398	-84.914	0.119	-0.037
-412.384	800.000	-0.058	-0.205
-411.369	-200.000	-0.017	-0.149
-410.355	18.206	-0.120	0.096
-409.340	-152.210	0.243	0.018
-408.325	-127.374	0.028	-0.004
-407.311	-200.000	0.028	0.240
-406.296	-200.000	0.055	0.326
-405.282	319.393	-0.124	-0.234
-404.267	66.326	-0.049	-0.050
-403.252	-200.000	0.051	0.232
-402.238	-101.747	-0.277	0.067
-401.223	795.488	-0.048	-0.133
-400.209	-73.545	0.207	0.075
-399.194	-111.279	-0.060	-0.012
-398.179	-37.411	0.047	0.025
-397.165	-200.000	0.020	-0.119
-396.150	-200.000	-0.010	0.272
-395.136	78.141	-0.184	0.196
-394.121	153.174	0.149	0.204
-393.106	461.601	-0.145	-0.322
-392.092	-107.056	-0.055	0.012
-391.077	-200.000	-0.062	-0.435
-390.063	-200.000	0.002	-0.165
-389.048	-38.013	-0.284	-0.150
-388.033	-200.000	-0.011	-0.160
-387.019	604.519	-0.037	-0.092
-386.004	-62.200	-0.283	0.118
-384.990	-118.354	0.186	0.033
-383.975	800.000	0.091	0.252
-382.960	22.938	0.227	-0.186
-381.946	609.774	0.096	-0.238
-380.931	6.279	0.295	-0.218
-379.917	-200.000	-0.053	-0.270
-378.902	-70.311	-0.258	0.097
-377.888	800.000	0.081	-0.296
-376.873	388.327	0.125	0.257
-375.858	27.045	0.058	-0.048
-374.844	589.180	-0.078	-0.191
-373.829	800.000	-0.033	0.116
-372.815	-105.230	-0.093	0.021
-371.800	-200.000	-0.044	0.201
-370.785	-119.444	0.267	0.046
-369.771	-171.832	0.245	-0.008
-368.756	197.263	-0.103	0.157
-367.742	-96.624	0.270	-0.071
-366.727	-102.163	-0.416	0.100
-365.712	37.147	0.176	0.155
-364.698	-200.000	-0.006	0.094
-363.683	-200.000	-0.007	-0.034
-362.669	5.368	0.126	0.093
-361.654	-200.000	-0.266	0.000
-360.639	-40.958	0.161	0.083
-359.625	-123.035	0.134	0.022
-358.610	800.000	0.067	-0.192
-357.596	92.755	-0.328	-0.369
-356.581	18.385	0.246	-0.196
-355.566	31.099	-0.164	0.140
-354.552	-69.797	0.431	0.164
-353.537	38.526	-0.217	0.193
-352.523	-22.512	0.453	0.273
-351.508	-200.000	0.012	-0.058
-350.493	527.799	0.116	0.272
-349.479	22.810	-0.106	0.086
-348.464	679.922	0.137	-0.355
-347.450	800.000	0.076	0.233
-346.435	53.847	0.204	-0.195
-345.420	-182.034	-0.409	-0.008
-344.406	-84.882	0.456	0.143
-343.391	-200.000	0.026	-0.372
-342.377	108.533	-0.074	-0.088
-341.362	-10.005	0.079	0.052
-340.348	65.928	0.160	-0.162
-339.333	501.905	0.147	-0.338
-338.318	409.348	0.067	0.142
-337.304	15.678	-0.129	0.101
-336.289	-33.491	-0.280	-0.154
-335.275	83.604	-0.097	0.106
-334.260	-200.000	-0.000	0.084
-333.245	800.000	0.035	-0.116
-332.231	-143.123	-0.170	0.016
-331.216	-133.147	-0.070	-0.009
-330.202	-125.367	0.147	-0.022
-329.187	-68.185	-0.170	0.066
-328.172	-156.785	0.129	0.008
-327.158	-4.317	0.188	-0.130
-326.143	211.450	-0.214	0.336
-325.129	-156.665	0.265	-0.016
-324.114	-150.139	0.278	-0.021
-323.099	18.227	-0.184	0.146
-322.085	-200.000	0.088	0.000
-321.070	1.807	0.131	0.094
-320.056	141.829	0.114	0.151
-319.041	80.368	-0.226	0.242
-318.026	-94.814	-0.052	0.014
-317.012	742.048	-0.066	0.175
-315.997	-141.982	-0.003	-0.000
-314.983	-155.545	-0.246	0.016
-313.968	204.314	-0.151	0.233
-312.953	-200.000	0.026	0.253
-311.939	-90.799	-0.134	0.038
-310.924	300.285	0.160	0.293
-309.910	28.575	0.107	0.090
-308.895	-200.000	0.069	0.395
-307.880	-200.000	0.004	-0.040
-306.866	-93.373	0.133	-0.037
-305.851	33.057	0.076	-0.065
-304.837	630.306	-0.090	0.226
-303.822	35.197	-0.074	-0.065
-302.807	109.359	0.184	-0.219
-301.793	-88.973	0.165	-0.049
-300.778	40.444	-0.129	-0.115
-299.764	800.000	-0.078	0.284
-298.749	-200.000	-0.015	0.384
-297.735	418.256	-0.032	0.068
-296.720	46.938	-0.215	-0.199
-295.705	622.700	-0.146	0.364
-294.691	-69.306	-0.292	0.111
-293.676	-81.348	0.061	0.020
-292.662	99.155	-0.059	0.068
-291.647	129.819	0.085	0.108
-290.632	-107.872	-0.232	-0.050
-289.618	210.376	-0.078	0.121
-288.603	146.888	0.240	-0.321
-287.589	41.163	-0.145	0.130
-286.574	-127.055	-0.372	-0.054
-285.559	-61.806	0.359	0.149
-284.545	800.000	0.017	-0.048
-283.530	31.359	-0.380	-0.324
-282.516	364.732	-0.100	-0.200
-281.501	-97.442	-0.125	-0.032
-280.486	453.641	-0.104	-0.229
-279.472	172.390	0.208	0.297
-278.457	-200.000	-0.007	0.239
-277.443	-60.647	0.210	0.088
-276.428	-70.595	-0.200	0.075
-275.413	-49.706	0.078	0.037
-274.399	-127.652	0.193	0.028
-273.384	800.000	-0.059	-0.255
-272.370	279.786	-0.012	-0.021
-271.355	376.379	-0.112	0.226
-270.340	268.456	0.111	-0.193
-269.326	-9.193	0.049	-0.033
-268.311	10.842	-0.236	-0.179
-267.297	5.401	-0.072	0.052
-266.282	11.288	0.070	0.053
-265.267	67.429	0.120	0.122
-264.253	-71.722	-0.077	0.028
-263.238	-200.000	-0.021	0.233
-262.224	25.362	-0.166	-0.137
-261.209	347.672	-0.026	-0.050
-260.195	25.299	0.192	-0.159
-259.180	4.895	-0.220	0.160
-258.165	800.000	-0.039	-0.141
-257.151	-175.486	0.191	-0.005
-256.136	-200.000	0.006	-0.068
-255.122	12.946	-0.097	0.074
-254.107	77.738	0.317	-0.335
-253.092	-129.957	-0.270	0.037
-252.078	-158.123	-0.165	-0.010
-251.063	-107.253	0.185	-0.040
-250.049	47.944	0.197	0.183
-249.034	-53.399	-0.095	-0.043
-248.019	-200.000	-0.003	0.037
-247.005	742.974	0.058	-0.156
-245.990	-200.000	-0.005	-0.183
-244.976	-66.857	0.363	-0.142
-243.961	-200.000	-0.028	0.135
-242.946	800.000	0.052	0.167
-241.932	-81.142	0.118	0.039
-240.917	800.000	0.051	0.153
-239.903	-200.000	-0.026	0.297
-238.888	-95.959	-0.162	0.043
-237.873	-45.632	0.332	0.163
-236.859	-59.989	0.181	-0.077
-235.844	-200.000	0.044	0.203
-234.830	2.880	-0.169	-0.122
-233.815	-30.777	-0.210	-0.118
-232.800	-97.910	-0.199	0.051
-231.786	-80.650	0.116	0.038
-230.771	119.089	0.332	-0.407
-229.757	284.492	-0.057	-0.101
-228.742	-200.000	0.003	0.323
-227.727	46.016	-0.128	-0.117
-226.713	248.097	-0.102	-0.172
-225.698	96.279	-0.043	-0.049
-224.684	4.787	0.062	0.045
-223.669	-48.817	-0.161	-0.077
-222.655	202.579	-0.144	0.220
-221.640	-200.000	-0.013	-0.201
-220.625	-95.194	-0.215	-0.058
-219.611	-200.000	-0.001	-0.051
-218.596	696.059	0.066	-0.172
-217.582	-170.144	-0.236	-0.008
-216.567	96.394	0.054	0.061
-215.552	19.939	0.493	-0.394
-214.538	800.000	-0.097	-0.286
-213.523	-200.000	-0.054	-0.363
-212.509	-16.203	0.217	0.136
-211.494	-24.026	0.242	-0.143
-210.479	-135.368	0.396	-0.047
-209.465	116.101	0.161	0.195
-208.450	78.785	-0.229	-0.242
-207.436	240.353	0.145	-0.239
-206.421	59.366	0.088	0.086
-205.406	-35.259	-0.247	-0.133
-204.392	114.950	-0.088	0.106
-203.377	-200.000	0.036	-0.325
-202.363	115.809	-0.096	0.116
-201.348	139.532	-0.105	0.137
-200.333	479.353	0.158	0.355
-199.319	69.785	-0.434	0.443
-198.304	-166.905	-0.521	-0.021
-197.290	-200.000	0.050	-0.402
-196.275	-169.448	0.201	0.007
-195.260	43.208	-0.079	-0.071
-194.246	-109.778	-0.345	-0.072
-193.231	52.121	0.161	-0.152
-192.217	-65.604	-0.073	-0.029
-191.202	34.715	0.220	0.191
-190.187	-108.810	-0.136	0.029
-189.173	-25.531	0.245	-0.143
-188.158	-92.700	-0.134	-0.037
-187.144	-73.779	0.237	-0.085
-186.129	-34.287	0.196	0.107
-185.114	-45.834	0.262	0.128
-184.100	-200.000	-0.014	0.146
-183.085	-51.743	-0.134	-0.062
-182.071	-200.000	-0.016	0.183
-181.056	-200.000	-0.048	0.230
-180.042	314.744	-0.083	0.155
-179.027	-17.855	0.075	0.046
-178.012	-200.000	-0.043	-0.291
-176.998	322.308	-0.070	-0.131
-175.983	-90.167	0.176	-0.051
-174.969	130.977	-0.058	-0.073
-173.954	800.000	-0.031	0.104
-172.939	109.901	0.165	-0.196
-171.925	-28.839	-0.285	0.162
-170.910	99.649	0.104	0.119
-169.896	41.086	-0.150	0.134
-168.881	327.808	0.054	0.102
-167.866	-111.134	-0.019	0.004
-166.852	-92.088	0.156	0.043
-165.837	-81.144	-0.043	0.014
-164.823	116.789	-0.119	-0.145
-163.808	202.510	-0.168	-0.256
-162.793	-28.738	-0.270	-0.154
-161.779	500.491	0.130	-0.297
-160.764	14.558	-0.179	0.139
-159.750	-69.296	-0.158	-0.060
-158.735	-127.404	0.094	-0.013
-157.720	-200.000	0.002	-0.148
-156.706	800.000	0.051	-0.158
-155.691	25.159	0.321	0.263
-154.677	-80.671	0.055	-0.018
-153.662	2.216	-0.033	0.024
-152.647	-118.716	0.285	-0.050
-151.633	41.109	-0.073	0.065
-150.618	-200.000	0.022	-0.203
-149.604	-200.000	0.037	0.172
-148.589	800.000	-0.123	-0.338
-147.574	73.386	0.169	0.174
-146.560	449.982	-0.022	-0.047
-145.545	79.772	-0.079	-0.084
-144.531	-37.195	-0.239	-0.126
-143.516	638.325	-0.110	-0.277
-142.502	74.248	0.048	-0.050
-141.487	-73.495	0.071	0.026
-140.472	-19.705	0.218	-0.133
-139.458	-99.142	0.129	-0.032
-138.443	222.932	0.037	0.058
-137.429	291.841	-0.126	0.227
-136.414	-200.000	0.016	-0.521
-135.399	52.546	-0.159	0.150
-134.385	800.000	0.051	0.164
-133.370	278.324	0.050	-0.087
-132.356	-175.693	-0.252	0.007
-131.341	208.392	-0.091	0.141
-130.326	193.050	-0.058	-0.087
-129.312	800.000	-0.043	-0.167
-128.297	-52.518	0.148	0.068
-127.283	-107.046	0.408	-0.089
-126.268	-200.000	-0.029	-0.210
-125.253	-200.000	0.016	-0.135
-124.239	26.158	-0.169	0.139
-123.224	101.700	-0.161	-0.185
-122.210	-35.172	0.245	0.132
-121.195	-95.022	0.195	0.052
-120.180	-171.232	-0.219	0.007
-119.166	429.576	0.070	0.148
-118.151	577.731	-0.124	-0.300
-117.137	58.310	0.194	0.188
-116.122	287.561	0.136	0.243
-115.107	343.675	-0.212	-0.410
-114.093	800.000	0.031	-0.123
-113.078	-100.943	-0.106	-0.026
-112.064	-200.000	-0.010	-0.059
-111.049	-37.280	0.284	0.150
-110.034	312.652	-0.011	0.020
-109.020	-18.868	-0.032	0.020
-108.005	-72.286	0.251	-0.092
-106.991	-23.837	-0.153	0.090
-105.976	447.253	0.068	-0.147
-104.962	800.000	-0.075	0.244
-103.947	288.502	-0.098	0.175
-102.932	178.231	-0.103	-0.148
-101.918	-160.208	-0.155	-0.008
-100.903	-40.956	0.013	0.006
-99.889	-152.658	0.186	0.013
-98.874	-57.610	0.162	-0.070
-97.859	-200.000	-0.036	0.501
-96.845	287.149	0.101	0.181
-95.830	438.004	-0.182	0.390
-94.816	-100.062	0.055	-0.014
-93.801	118.716	0.189	0.230
-92.786	175.129	0.154	0.220
-91.772	-127.818	0.481	-0.068
-90.757	800.000	0.046	0.142
-89.743	-200.000	-0.011	0.186
-88.728	-200.000	0.001	-0.089
-87.713	-200.000	0.005	0.071
-86.699	-104.747	0.222	0.050
-85.684	-36.687	-0.049	-0.026
-84.670	191.876	-0.286	0.425
-83.655	7.929	-0.075	-0.055
-82.640	-0.796	0.104	-0.072
-81.626	-200.000	0.288	-0.000
-80.611	-39.552	0.161	0.083
-79.597	795.431	0.084	-0.228
-78.582	800.000	-0.037	0.120
-77.567	-83.999	0.368	-0.115
-76.553	-200.000	0.014	0.147
-75.538	-200.000	-0.079	-0.415
-74.524	345.325	-0.059	-0.113
-73.509	-200.000	0.031	0.296
-72.494	-156.817	0.288	-0.017
-71.480	-113.332	-0.257	0.050
-70.465	-200.000	0.042	-0.202
-69.451	169.307	-0.112	-0.157
-68.436	-85.528	-0.044	0.013
-67.422	-200.000	-0.005	-0.160
-66.407	-95.419	-0.263	-0.070
-65.392	352.265	0.035	-0.068
-64.378	-14.931	0.173	-0.109
-63.363	-124.714	-0.167	0.026
-62.349	-111.876	0.338	-0.067
-61.334	-32.157	-0.804	-0.442
-60.319	1.159	0.451	0.319
-59.305	532.953	-0.388	-0.904
-58.290	342.705	0.525	1.011
-57.276	-200.000	0.296	1.638
-56.261	-200.000	101.867	621.955
-55.246	598.336	1438.697	3511.107
-54.232	183.477	2641.176	3842.279
-53.217	115.820	2191.385	2638.777
-52.203	43.482	1724.599	1551.597
-51.188	36.427	1537.881	1335.011
-50.173	34.051	1511.616	1295.990
-49.159	52.854	1564.064	1471.834
-48.144	54.734	1581.519	1501.251
-47.130	36.608	1537.111	1335.384
-46.115	33.445	1522.656	1301.087
-45.100	33.384	1519.118	1297.595
-44.086	33.240	1517.259	1294.970
-43.071	33.181	1515.779	1293.253
-42.057	33.213	1513.525	1291.497
-41.042	33.227	1512.652	1290.797
-40.027	33.301	1511.246	1290.053
-39.013	33.221	1509.537	1287.997
-37.998	33.209	1508.505	1286.983
-36.984	33.180	1507.306	1285.710
-35.969	33.331	1505.538	1285.175
-34.954	33.242	1504.441	1283.589
-33.940	33.297	1502.904	1282.594
-32.925	33.253	1501.312	1280.892
-31.911	33.357	1500.486	1280.835
-30.896	33.216	1499.327	1278.842
-29.881	33.317	1497.610	1278.009
-28.867	33.314	1495.869	1276.454
-27.852	33.200	1495.031	1274.922
-26.838	33.307	1493.257	1274.076
-25.823	33.243	1492.120	1272.623
-24.809	33.256	1490.352	1271.154
-23.794	33.185	1489.418	1269.830
-22.779	33.331	1487.937	1269.497
-21.765	33.341	1486.708	1268.468
-20.750	33.208	1485.838	1266.783
-19.736	33.286	1484.614	1266.213
-18.721	33.189	1483.887	1264.889
-17.706	33.189	1482.609	1263.752
-16.692	33.188	1481.301	1262.580
-15.677	33.175	1480.716	1261.944
-14.663	33.187	1479.625	1261.047
-13.648	33.215	1478.634	1260.337
-12.633	33.232	1477.731	1259.632
-11.619	33.176	1476.980	1258.565
-10.604	33.184	1476.082	1257.808
-9.590	33.224	1474.859	1256.977
-8.575	33.217	1474.220	1256.338
-7.560	33.278	1473.173	1255.801
-6.546	33.303	1472.423	1255.277
-5.531	33.162	1471.903	1253.851
-4.517	33.181	1470.210	1252.481
-3.502	33.138	1469.902	1251.884
-2.487	33.195	1468.368	1250.907
-1.473	33.215	1467.263	1250.051
-0.458	33.227	1465.876	1248.898
0.556	30.682	1456.178	1236.706
1.571	27.341	1429.288	1191.914
2.586	23.367	1366.829	1114.786
3.600	21.494	1283.872	1035.951
4.615	20.469	1238.316	993.245
5.629	17.619	1182.383	932.722
6.644	8.525	1096.608	818.610
7.659	0.893	1054.508	749.427
8.673	-0.129	1048.456	740.031
9.688	-0.364	1045.585	736.782
10.702	-0.431	1043.940	735.229
11.717	-0.506	1042.334	733.668
12.731	2.729	1045.923	752.004
13.746	11.872	1058.615	806.270
14.761	18.056	1066.159	842.521
15.775	18.304	1065.980	843.527
16.790	18.303	1064.793	842.511
17.804	17.856	1064.549	840.043
18.819	17.735	1063.024	838.168
19.834	17.840	1062.497	838.195
20.848	17.896	1061.863	837.897
21.863	17.878	1061.733	837.632
22.877	17.772	1060.880	836.366
23.892	17.758	1060.544	835.957
24.907	17.767	1059.506	835.107
25.921	17.639	1059.496	834.402
26.936	17.809	1058.230	834.162
27.950	17.789	1056.982	833.005
28.965	17.756	1055.902	831.919
29.980	17.625	1054.491	830.094
30.994	17.586	1052.920	828.599
32.009	17.775	1051.912	828.649
33.023	17.801	1051.148	828.100
34.038	17.670	1049.835	826.355
35.053	17.629	1048.861	825.320
36.067	17.864	1048.280	825.924
37.082	17.709	1047.582	824.555
38.096	18.009	1046.561	825.126
39.111	17.818	1046.337	823.953
40.126	18.106	1044.980	824.202
41.140	18.029	1043.428	822.536
42.155	17.792	1042.112	820.285
43.169	17.573	1040.955	818.249
44.184	17.538	1039.592	816.936
45.199	17.632	1038.977	816.832
46.213	17.532	1037.539	815.150
47.228	17.349	1036.714	813.555
48.242	17.470	1036.064	813.553
49.257	17.632	1034.466	812.997
50.271	17.657	1033.512	812.293
51.286	17.830	1033.053	812.688
52.301	17.714	1032.117	811.326
53.315	17.810	1030.763	810.645
54.330	17.906	1030.058	810.476
55.344	17.791	1029.526	809.438
56.359	17.778	1028.278	808.324
57.374	17.714	1027.676	807.475
58.388	17.624	1026.283	805.884
59.403	17.680	1025.476	805.448
60.417	17.789	1024.857	805.404
61.432	17.587	1023.924	803.645
62.447	17.644	1022.878	803.020
63.461	17.770	1022.547	803.282
64.476	17.687	1021.867	802.288
65.490	17.698	1020.888	801.503
66.505	17.715	1019.324	800.284
67.520	17.623	1018.607	799.217
68.534	17.644	1018.142	798.878
69.549	17.619	1017.295	798.025
70.563	17.235	1016.201	795.300
71.578	17.347	1014.957	794.782
72.593	17.473	1014.437	794.891
73.607	17.359	1013.061	793.214
74.622	17.348	1012.087	792.329
75.636	17.513	1011.335	792.437
76.651	17.651	1010.712	792.521
77.666	17.501	1009.773	791.016
78.680	17.435	1008.574	789.703
79.695	17.448	1007.988	789.234
80.709	17.547	1007.888	789.546
81.724	17.665	1006.664	789.061
82.739	17.581	1005.956	788.049
83.753	17.576	1004.606	786.900
84.768	17.770	1004.606	787.722
85.782	17.995	1003.504	787.829
86.797	18.056	1002.647	787.366
87.812	18.012	1001.904	786.514
88.826	17.831	1001.319	785.150
89.841	17.828	999.743	783.831
90.855	17.940	998.920	783.629
91.870	17.970	998.291	783.204
92.884	18.016	997.502	782.727
93.899	17.885	996.835	781.536
94.914	17.899	995.607	780.566
95.928	17.930	994.893	780.079
96.943	18.006	993.930	779.604
97.957	17.722	992.563	777.170
98.972	17.589	991.851	775.933
99.987	17.433	990.480	774.085
101.001	17.363	989.749	773.128
102.016	17.587	989.407	773.809
103.030	17.879	988.169	774.098
104.045	17.705	986.889	772.236
105.060	17.556	985.567	770.460
106.074	17.257	984.503	768.209
107.089	17.388	983.837	768.211
108.103	17.876	983.253	769.893
109.118	17.934	982.575	769.551
110.133	17.762	981.588	767.938
111.147	17.704	980.356	766.646
112.162	17.619	979.756	765.726
113.176	17.472	978.034	763.655
114.191	17.577	976.888	763.159
115.206	17.587	976.555	762.881
116.220	17.383	975.298	760.919
117.235	17.203	974.424	759.365
118.249	17.383	973.443	759.333
119.264	17.539	972.111	758.924
120.279	17.440	971.384	757.851
121.293	17.418	970.686	757.137
122.308	17.513	970.287	757.184
123.322	17.617	969.153	756.692
124.337	17.579	967.709	755.332
125.352	17.393	966.461	753.467
126.366	17.034	964.953	750.637
127.381	16.858	963.227	748.452
128.395	17.293	962.892	750.044
129.410	17.759	962.239	751.523
130.424	17.847	961.259	751.077
131.439	17.900	960.660	750.778
132.454	17.800	959.393	749.281
133.468	17.776	958.630	748.513
134.483	17.749	957.425	747.387
135.497	17.790	956.844	747.047
136.512	18.033	956.299	747.621
137.527	18.158	955.446	747.430
138.541	18.021	954.576	746.087
139.556	17.924	953.838	745.021
140.570	18.041	952.959	744.779
141.585	18.125	951.875	744.230
142.600	18.009	951.369	743.266
143.614	17.854	950.190	741.605
144.629	18.010	949.888	741.983
145.643	18.244	948.868	742.135
146.658	18.043	947.789	740.355
147.673	18.075	946.502	739.421
148.687	17.927	945.868	738.219
149.702	17.929	944.587	737.163
150.716	17.810	943.665	735.865
151.731	17.827	942.604	735.045
152.746	18.013	941.936	735.264
153.760	17.984	941.523	734.751
154.775	18.267	940.321	734.961
155.789	18.141	939.961	734.074
156.804	18.100	938.982	733.069
157.819	18.146	937.714	732.212
158.833	18.098	937.119	731.475
159.848	18.194	936.273	731.164
160.862	18.244	935.342	730.583
161.877	18.128	934.258	729.178
162.892	18.047	933.645	728.288
163.906	18.100	932.850	727.829
164.921	18.256	931.793	727.603
165.935	18.144	930.713	726.224
166.950	18.184	930.162	725.895
167.964	18.049	929.065	724.404
168.979	18.249	927.671	724.098
169.994	18.047	926.597	722.343
171.008	17.921	925.816	721.139
172.023	18.047	925.110	721.057
173.037	18.215	924.029	720.860
174.052	18.052	922.496	718.912
175.067	17.907	921.736	717.649
176.081	17.997	921.202	717.545
177.096	18.114	920.572	717.485
178.110	18.023	919.837	716.467
179.125	17.818	918.508	714.509
180.140	17.776	917.426	713.429
181.154	17.623	917.053	712.435
182.169	17.805	915.995	712.311
183.183	17.953	915.683	712.622
184.198	18.111	915.499	713.077
185.213	18.099	914.823	712.436
186.227	18.102	913.802	711.591
187.242	18.302	913.185	711.876
188.256	18.196	912.497	710.838
189.271	18.284	911.290	710.199
190.286	18.344	910.861	710.052
191.300	18.127	910.106	708.501
192.315	17.774	908.944	706.075
193.329	17.235	907.140	702.381
194.344	16.818	906.334	699.976
195.359	17.412	906.587	702.562
196.373	17.950	906.746	704.843
197.388	18.044	906.298	704.820
198.402	18.074	905.290	704.097
199.417	17.857	904.606	702.611
200.432	18.114	903.847	703.014
201.446	17.836	903.082	701.217
202.461	17.504	902.540	699.368
203.475	17.576	902.383	699.482
204.490	17.152	900.685	696.365
205.504	16.380	898.405	691.382
206.519	16.838	898.135	692.988
207.534	17.585	899.105	696.731
208.548	17.690	898.649	696.743
209.563	18.119	898.202	698.089
210.577	18.027	897.444	697.062
211.592	17.853	896.675	695.692
212.607	18.206	896.056	696.588
213.621	18.170	895.417	695.884
214.636	18.235	894.719	695.545
215.650	18.164	894.163	694.762
216.665	18.182	893.701	694.417
217.680	18.175	893.288	694.005
218.694	18.256	892.399	693.584
219.709	17.924	891.591	691.546
220.723	17.691	890.697	689.849
221.738	17.849	890.401	690.198
222.753	18.053	889.567	690.315
223.767	17.979	889.038	689.546
224.782	18.214	887.962	689.596
225.796	18.092	887.544	688.722
226.811	18.229	887.045	688.821
227.826	17.920	885.479	686.305
228.840	17.437	884.127	683.256
229.855	17.176	884.059	682.098
230.869	17.578	883.005	682.833
231.884	17.299	882.026	680.900
232.899	17.282	881.773	680.577
233.913	18.020	881.801	683.490
234.928	18.301	881.262	684.136
235.942	18.234	880.742	683.403
236.957	18.166	880.025	682.516
237.972	18.031	878.826	680.988
238.986	17.845	878.192	679.696
240.001	18.023	877.555	679.849
241.015	17.966	876.630	678.845
242.030	18.080	876.104	678.832
243.045	18.082	875.651	678.428
244.059	18.239	875.089	678.556
245.074	18.398	874.415	678.603
246.088	18.306	873.464	677.440
247.103	17.836	872.550	674.816
248.117	17.866	871.694	674.211
249.132	18.216	872.060	675.818
250.147	18.636	870.892	676.509
251.161	18.562	870.460	675.821
252.176	18.860	869.802	676.423
253.190	18.808	869.348	675.807
254.205	18.659	868.917	674.827
255.220	18.829	868.414	675.045
256.234	19.072	867.586	675.295
257.249	19.007	866.923	674.465
258.263	18.719	865.855	672.446
259.278	18.843	865.550	672.635
260.293	18.944	864.733	672.335
261.307	19.037	864.273	672.283
262.322	18.835	863.473	670.809
263.336	18.622	862.571	669.222
264.351	18.205	861.383	666.616
265.366	17.127	859.716	661.070
266.380	16.809	858.371	658.741
267.395	17.604	858.933	662.205
268.409	18.568	858.564	665.607
269.424	18.388	858.501	664.802
270.439	18.571	858.105	665.146
271.453	18.788	857.292	665.297
272.468	18.780	856.717	664.759
273.482	18.952	855.887	664.721
274.497	18.913	855.520	664.227
275.512	18.762	854.749	662.989
276.526	18.343	852.810	659.812
277.541	18.448	852.578	659.978
278.555	18.875	852.285	661.337
279.570	18.562	851.508	659.473
280.585	18.366	850.735	658.060
281.599	18.352	850.079	657.443
282.614	18.572	849.689	657.927
283.628	18.334	848.490	656.029
284.643	18.015	847.627	654.081
285.657	18.393	847.542	655.405
286.672	18.292	847.092	654.613
287.687	17.818	845.837	651.775
288.701	18.031	845.742	652.455
289.716	18.539	845.133	653.866
290.730	18.233	844.065	651.817
291.745	18.062	843.362	650.567
292.760	17.831	842.583	649.027
293.774	17.830	841.729	648.311
294.789	18.642	841.966	651.518
295.803	19.350	841.873	654.075
296.818	19.228	841.747	653.459
297.833	19.412	841.136	653.622
298.847	19.286	839.719	651.987
299.862	18.813	839.285	649.805
300.876	18.934	838.944	649.939
301.891	19.280	837.937	650.408
302.906	19.282	837.498	650.019
303.920	18.854	836.342	647.452
304.935	18.679	835.440	646.036
305.949	18.985	835.410	647.107
306.964	19.184	834.998	647.480
307.979	18.939	834.346	645.997
308.993	19.084	833.630	645.927
310.008	19.275	833.735	646.669
311.022	19.462	833.034	646.770
312.037	19.300	832.065	645.352
313.052	19.060	831.831	644.218
314.066	19.072	831.238	643.744
315.081	18.538	830.026	640.754
316.095	17.867	828.643	637.125
317.110	18.299	828.634	638.674
318.125	19.114	828.489	641.546
319.139	18.766	827.950	639.777
320.154	17.819	826.212	634.854
321.168	17.528	825.242	632.972
322.183	17.962	825.412	634.660
323.197	18.639	825.785	637.406
324.212	18.987	825.229	638.212
325.227	19.148	825.051	638.615
326.241	19.262	824.400	638.476
327.256	19.215	823.864	637.830
328.270	19.049	823.766	637.085
329.285	19.015	822.861	636.200
330.300	18.900	822.045	635.090
331.314	18.803	821.406	634.182
332.329	18.737	820.645	633.296
333.343	19.131	820.146	634.307
334.358	19.210	819.793	634.267
335.373	19.193	819.283	633.755
336.387	19.430	818.202	633.733
337.402	19.470	818.068	633.720
338.416	19.633	817.760	634.022
339.431	19.516	817.030	632.971
340.446	19.406	816.192	631.863
341.460	19.682	815.751	632.477
342.475	19.577	814.989	631.446
343.489	19.366	814.596	630.314
344.504	19.397	814.127	630.009
345.519	19.603	813.909	630.536
346.533	19.875	813.340	631.031
347.548	19.978	812.854	630.974
348.562	20.018	812.270	630.610
349.577	19.838	812.172	629.825
350.592	19.849	811.670	629.418
351.606	19.861	811.042	628.921
352.621	20.021	810.191	628.786
353.635	19.825	810.026	627.890
354.650	19.746	809.376	627.043
355.665	19.632	808.345	625.776
356.679	18.435	807.181	620.488
357.694	18.488	806.403	620.027
358.708	19.028	806.180	621.754
359.723	18.950	805.631	620.994
360.738	19.328	805.549	622.239
361.752	19.592	805.327	622.966
362.767	19.690	804.738	622.808
363.781	19.734	804.774	622.939
364.796	20.220	804.327	624.286
365.810	20.171	803.604	623.494
366.825	20.099	803.644	623.210
367.840	20.251	803.083	623.266
368.854	20.065	802.537	622.122
369.869	19.641	801.709	619.903
370.883	19.653	801.324	619.592
371.898	19.671	800.839	619.227
372.913	19.564	799.895	618.060
373.927	19.584	798.851	617.272
374.942	19.720	798.845	617.699
375.956	19.861	798.269	617.701
376.971	20.006	797.193	617.332
377.986	20.001	797.001	617.109
379.000	20.101	796.583	617.086
380.015	20.141	796.304	616.957
381.029	19.981	795.898	616.020
382.044	20.052	795.064	615.574
383.059	20.094	794.351	615.115
384.073	20.028	794.044	614.588
385.088	20.164	793.556	614.638
386.102	20.199	793.150	614.395
387.117	20.124	792.858	613.847
388.132	20.112	792.127	613.185
389.146	19.875	791.534	611.835
390.161	19.310	790.754	609.181
391.175	19.539	789.806	609.205
392.190	19.838	790.047	610.392
393.205	19.822	789.309	609.711
394.219	19.039	788.006	605.896
395.234	17.798	786.212	600.099
396.248	17.401	784.991	597.720
397.263	18.156	785.885	601.003
398.278	19.797	786.684	607.325
399.292	20.173	786.991	608.831
400.307	19.712	786.354	606.667
401.321	19.845	785.674	606.556
402.336	19.864	785.542	606.465
403.350	19.944	785.601	606.737
404.365	20.291	785.078	607.497
405.380	20.449	785.223	608.107
406.394	20.741	784.681	608.654
407.409	20.921	784.088	608.768
408.423	20.772	783.660	607.865
409.438	20.681	782.653	606.709
410.453	20.690	782.358	606.461
411.467	20.909	781.940	606.846
412.482	20.716	781.835	606.037
413.496	20.673	781.146	605.302
414.511	20.860	780.509	605.402
415.526	20.932	780.506	605.599
416.540	20.939	779.789	605.012
417.555	20.971	779.229	604.636
418.569	20.637	778.378	602.765
419.584	20.428	778.132	601.796
420.599	20.515	777.884	601.852
421.613	156.527	1359.519	1795.633
422.628	135.199	1444.252	1795.728
