DTS Sentinel unit serial number:	SN413079Multiplexer serial number:	ORYXHardware model number:	OX4-SRSoftware version number:	ORYX F/W v4.00 Oryx Data Collector v3.7.2.0data status	okinstallation	princeton_trtdifferential loss correction	single-endedforward channel	channel 3reverse channel	N/Adate	2019/09/10time	21:10:11forward acquisition time	60.00reverse acquisition time	0.00gamma	496.2192k internal	0.2328k external	0.2328temperature offset calibration	0.9915default loss term (dB/km)	0.3790temperature slope calibration	1.0000multiplexer offset coefficient	1.0000multiplexer slope coefficient	1.0000fibre end	0.00T internal ref (°C)	31.44T ext. ref 1 (°C)	-0.32T ext. ref 2 (°C)	24.55length (m)	temperature (°C)	Stokes	anti-Stokes-747.200	96.163	0.161	0.186
-746.185	561.962	-0.132	0.322
-745.171	193.246	-0.225	0.343
-744.156	462.387	0.125	0.281
-743.142	-52.963	-0.244	0.113
-742.127	-200.000	0.038	0.170
-741.112	480.991	0.189	0.431
-740.098	712.973	0.085	0.228
-739.083	363.275	-0.059	-0.119
-738.069	800.000	0.090	0.308
-737.054	244.874	-0.114	0.194
-736.039	-8.998	-0.327	-0.220
-735.025	-36.877	0.252	0.136
-734.010	-82.996	0.042	0.014
-732.996	-32.476	0.150	0.084
-731.981	694.457	0.070	-0.186
-730.966	98.745	-0.269	-0.313
-729.952	411.313	0.157	-0.335
-728.937	-187.047	-0.254	-0.004
-727.923	-179.205	-0.241	-0.005
-726.908	167.312	0.119	-0.170
-725.894	800.000	0.034	-0.146
-724.879	-200.000	0.062	0.295
-723.864	580.132	0.052	-0.127
-722.850	291.240	-0.162	-0.297
-721.835	-165.028	0.379	-0.017
-720.821	-140.446	0.210	-0.022
-719.806	-82.774	-0.125	-0.041
-718.791	186.325	0.062	-0.093
-717.777	-200.000	-0.056	-0.334
-716.762	-62.766	-0.356	-0.148
-715.748	1.591	-0.239	-0.173
-714.733	425.454	-0.043	-0.093
-713.718	-9.479	-0.042	-0.028
-712.704	-200.000	0.042	-0.420
-711.689	92.524	0.161	0.182
-710.675	-200.000	0.021	0.093
-709.660	-95.917	-0.303	-0.081
-708.645	-200.000	0.017	-0.140
-707.631	-200.000	0.004	0.130
-706.616	68.505	-0.234	0.242
-705.602	448.299	-0.129	0.285
-704.587	-200.000	-0.038	-0.184
-703.572	-98.156	-0.235	0.061
-702.558	-45.947	-0.358	-0.178
-701.543	68.353	-0.314	-0.323
-700.529	-200.000	-0.075	-0.361
-699.514	-200.000	0.064	-0.345
-698.499	-200.000	0.008	-0.082
-697.485	-200.000	-0.015	-0.107
-696.470	-15.014	0.110	-0.071
-695.456	-129.098	-0.385	-0.054
-694.441	309.377	-0.085	0.160
-693.426	-89.626	-0.243	0.072
-692.412	159.049	-0.113	0.158
-691.397	-82.636	0.094	0.031
-690.383	-180.992	0.354	0.007
-689.368	800.000	-0.065	0.216
-688.354	57.781	-0.248	-0.244
-687.339	403.290	-0.079	-0.167
-686.324	-12.437	-0.341	0.224
-685.310	-63.747	-0.290	0.119
-684.295	-32.994	0.106	0.059
-683.281	664.932	-0.060	-0.155
-682.266	-163.309	0.155	0.007
-681.251	-200.000	0.069	-0.329
-680.237	-16.047	0.264	-0.169
-679.222	-19.232	0.232	0.145
-678.208	-112.278	-0.403	0.081
-677.193	-78.744	-0.307	-0.105
-676.178	-40.434	-0.293	0.153
-675.164	-1.955	-0.188	0.133
-674.149	711.049	0.078	-0.208
-673.135	249.401	0.102	0.174
-672.120	-200.000	0.011	0.096
-671.105	-84.878	0.043	0.013
-670.091	-26.972	0.364	-0.214
-669.076	-84.976	-0.378	0.119
-668.062	80.731	-0.160	-0.173
-667.047	-43.984	-0.131	-0.066
-666.032	-130.133	0.437	0.060
-665.018	102.575	0.127	-0.149
-664.003	-7.842	0.141	0.096
-662.989	-28.944	0.195	-0.112
-661.974	-102.063	0.239	0.058
-660.959	115.092	0.259	-0.318
-659.945	25.944	0.261	-0.218
-658.930	-200.000	0.055	-0.452
-657.916	-200.000	0.024	0.190
-656.901	800.000	0.081	0.252
-655.886	188.348	-0.026	0.039
-654.872	-31.423	0.140	0.079
-653.857	800.000	0.137	-0.433
-652.843	-174.499	0.208	-0.006
-651.828	-30.745	0.197	-0.112
-650.814	141.932	0.156	-0.208
-649.799	-162.393	-0.190	-0.009
-648.784	-200.000	0.036	0.249
-647.770	-22.455	0.113	0.068
-646.755	-10.051	-0.071	0.047
-645.741	396.621	0.066	0.139
-644.726	-183.663	-0.150	-0.003
-643.711	800.000	-0.055	-0.220
-642.697	402.417	-0.045	-0.095
-641.682	125.289	0.094	0.119
-640.668	800.000	0.048	0.169
-639.653	-12.383	-0.069	0.045
-638.638	-29.336	-0.218	0.125
-637.624	28.879	-0.221	-0.188
-636.609	-138.883	-0.152	0.017
-635.595	87.590	-0.145	-0.161
-634.580	542.438	-0.058	0.139
-633.565	-124.573	0.400	0.062
-632.551	314.382	0.054	-0.103
-631.536	-136.688	-0.217	-0.025
-630.522	131.851	0.176	-0.227
-629.507	-52.595	0.226	0.105
-628.492	-121.179	0.359	-0.060
-627.478	-197.055	-0.213	0.001
-626.463	98.565	-0.026	-0.030
-625.449	-200.000	0.002	-0.027
-624.434	800.000	0.106	-0.371
-623.419	95.634	0.027	-0.031
-622.405	800.000	0.100	0.317
-621.390	443.345	-0.057	0.125
-620.376	-63.239	0.172	-0.071
-619.361	-53.223	-0.109	0.050
-618.346	35.727	0.100	-0.088
-617.332	8.170	0.175	0.131
-616.317	-103.462	0.089	0.021
-615.303	166.793	0.110	-0.157
-614.288	-139.305	-0.101	-0.011
-613.273	-150.126	-0.151	0.012
-612.259	-8.657	-0.081	-0.055
-611.244	42.857	0.088	-0.081
-610.230	-27.240	0.237	0.138
-609.215	19.611	-0.262	-0.212
-608.201	33.216	-0.134	-0.116
-607.186	-19.702	-0.094	-0.058
-606.171	-46.267	0.276	-0.136
-605.157	59.863	-0.192	-0.190
-604.142	25.611	-0.229	-0.191
-603.128	38.472	-0.165	-0.147
-602.113	800.000	0.027	-0.112
-601.098	-3.272	0.264	0.184
-600.084	163.068	-0.122	0.172
-599.069	-73.653	-0.194	-0.071
-598.055	800.000	-0.017	0.062
-597.040	-79.877	-0.360	0.121
-596.025	269.892	0.122	-0.214
-595.011	-123.690	-0.294	-0.047
-593.996	-55.347	0.268	-0.120
-592.982	-123.413	-0.425	0.068
-591.967	389.789	-0.173	-0.360
-590.952	-200.000	-0.027	0.333
-589.938	596.769	-0.071	-0.177
-588.923	289.858	0.080	-0.146
-587.909	-167.125	-0.129	-0.005
-586.894	35.944	0.048	0.043
-585.879	-200.000	-0.032	-0.489
-584.865	224.538	0.033	0.054
-583.850	78.381	0.161	0.172
-582.836	115.214	0.158	0.193
-581.821	-100.766	-0.070	-0.017
-580.806	61.428	0.162	0.161
-579.792	-200.000	-0.003	-0.153
-578.777	-185.242	-0.318	0.005
-577.763	-109.207	0.202	-0.043
-576.748	-200.000	-0.005	0.052
-575.733	158.449	-0.090	0.125
-574.719	-200.000	-0.050	0.317
-573.704	-200.000	0.004	0.107
-572.690	68.238	0.201	0.207
-571.675	7.140	-0.096	-0.072
-570.661	101.995	0.138	0.161
-569.646	-39.539	0.297	0.156
-568.631	-200.000	-0.050	-0.290
-567.617	-76.979	0.128	0.045
-566.602	-139.500	-0.415	-0.044
-565.588	58.228	0.167	0.164
-564.573	800.000	0.045	0.160
-563.558	79.964	0.150	0.162
-562.544	-200.000	-0.013	0.075
-561.529	20.767	-0.206	-0.167
-560.515	-200.000	0.014	0.179
-559.500	100.070	-0.068	0.079
-558.485	26.477	-0.274	-0.229
-557.471	562.838	-0.131	-0.318
-556.456	-200.000	-0.007	0.134
-555.442	-200.000	0.001	0.025
-554.427	26.785	0.318	0.266
-553.412	42.348	-0.290	0.264
-552.398	105.324	-0.315	0.372
-551.383	260.657	-0.121	0.209
-550.369	-200.000	-0.043	0.360
-549.354	800.000	-0.094	0.263
-548.339	-131.380	-0.199	0.026
-547.325	44.761	-0.201	-0.185
-546.310	113.249	-0.134	0.162
-545.296	800.000	0.121	-0.340
-544.281	-137.105	0.203	0.023
-543.266	-51.906	-0.066	-0.031
-542.252	69.343	0.153	-0.157
-541.237	-167.656	-0.319	-0.013
-540.223	-200.000	-0.008	0.140
-539.208	-49.296	0.166	0.079
-538.193	398.995	0.099	0.207
-537.179	-72.615	-0.462	0.170
-536.164	-61.531	0.226	0.095
-535.150	47.273	-0.162	0.151
-534.135	-88.781	0.146	-0.043
-533.121	385.193	-0.077	0.158
-532.106	-131.841	-0.255	-0.033
-531.091	-63.847	-0.395	-0.161
-530.077	35.250	0.149	0.131
-529.062	-34.092	0.335	-0.184
-528.048	491.765	-0.055	0.125
-527.033	800.000	0.011	0.044
-526.018	800.000	-0.063	-0.178
-525.004	186.336	0.112	0.167
-523.989	95.979	-0.193	0.221
-522.975	-60.794	-0.220	0.093
-521.960	70.100	0.106	0.109
-520.945	-19.350	0.283	-0.176
-519.931	-126.276	0.328	0.049
-518.916	-200.000	0.030	0.200
-517.902	-162.744	0.260	-0.013
-516.887	-116.715	-0.145	-0.027
-515.872	-200.000	-0.062	-0.391
-514.858	707.132	0.025	0.065
-513.843	-153.883	0.425	-0.029
-512.829	77.032	0.072	-0.076
-511.814	-150.225	-0.131	0.010
-510.799	-90.029	-0.081	0.024
-509.785	232.904	-0.218	0.358
-508.770	-23.747	-0.155	-0.093
-507.756	-165.403	0.352	-0.015
-506.741	63.977	-0.090	-0.091
-505.726	-200.000	-0.000	0.099
-504.712	443.372	0.071	0.156
-503.697	198.504	0.066	0.101
-502.683	-58.016	-0.399	0.174
-501.668	56.811	-0.127	0.123
-500.653	-132.494	-0.040	-0.005
-499.639	-11.430	0.125	-0.082
-498.624	-144.678	-0.206	0.019
-497.610	181.948	0.196	-0.288
-496.595	-103.775	-0.035	-0.008
-495.581	-50.363	-0.223	-0.105
-494.566	-200.000	0.009	-0.127
-493.551	148.768	0.152	0.206
-492.537	-200.000	0.030	0.235
-491.522	-72.490	0.295	-0.109
-490.508	-200.000	-0.053	-0.269
-489.493	59.461	-0.290	-0.285
-488.478	-200.000	-0.074	-0.377
-487.464	800.000	-0.057	-0.196
-486.449	155.740	-0.142	-0.195
-485.435	99.898	0.127	0.147
-484.420	53.769	0.073	-0.070
-483.405	800.000	0.058	-0.220
-482.391	-200.000	-0.052	0.297
-481.376	-30.560	-0.299	0.169
-480.362	-200.000	0.027	0.193
-479.347	-121.812	0.385	-0.063
-478.332	319.248	-0.131	0.248
-477.318	-38.925	0.231	0.121
-476.303	-200.000	-0.011	0.057
-475.289	-157.074	0.177	-0.011
-474.274	108.440	0.252	0.300
-473.259	773.678	-0.053	0.144
-472.245	177.614	0.024	-0.035
-471.230	11.514	-0.061	-0.047
-470.216	-94.884	-0.498	0.135
-469.201	-200.000	-0.011	0.079
-468.186	-54.072	-0.511	0.232
-467.172	-132.264	0.381	-0.049
-466.157	-200.000	-0.022	-0.125
-465.143	-137.607	0.135	0.015
-464.128	-200.000	0.021	0.122
-463.113	800.000	-0.080	-0.241
-462.099	-100.021	0.018	0.005
-461.084	-52.142	0.124	-0.057
-460.070	23.461	0.227	-0.186
-459.055	800.000	-0.025	-0.085
-458.040	-98.096	0.255	-0.065
-457.026	-200.000	0.019	-0.232
-456.011	-94.256	-0.129	0.035
-454.997	473.372	-0.096	-0.216
-453.982	-17.899	0.360	0.225
-452.968	-141.419	-0.233	0.023
-451.953	-136.460	-0.001	0.000
-450.938	37.153	-0.119	-0.105
-449.924	-117.598	-0.323	-0.058
-448.909	-115.528	-0.032	0.006
-447.895	18.853	-0.267	-0.213
-446.880	147.526	0.154	-0.206
-445.865	-57.669	0.275	-0.120
-444.851	14.866	0.108	0.084
-443.836	-189.755	0.203	0.002
-442.822	513.799	-0.052	-0.121
-441.807	15.165	-0.035	-0.027
-440.792	195.661	-0.045	0.068
-439.778	-200.000	-0.057	0.000
-438.763	-200.000	0.019	-0.312
-437.749	-200.000	0.013	-0.109
-436.734	184.399	-0.079	-0.116
-435.719	-96.153	-0.363	-0.096
-434.705	97.558	-0.113	0.129
-433.690	-24.738	-0.461	-0.273
-432.676	-61.088	0.078	0.033
-431.661	298.405	-0.241	-0.441
-430.646	2.110	0.102	-0.073
-429.632	-200.000	-0.024	0.220
-428.617	773.274	-0.122	-0.331
-427.603	-74.033	0.094	-0.034
-426.588	62.351	0.040	0.040
-425.573	-77.236	-0.354	0.123
-424.559	328.085	0.014	0.027
-423.544	286.916	0.144	-0.260
-422.530	94.776	0.190	-0.215
-421.515	132.346	-0.145	0.186
-420.500	-200.000	-0.015	-0.178
-419.486	-200.000	-0.045	0.237
-418.471	57.339	0.040	0.039
-417.457	478.710	-0.086	-0.195
-416.442	263.913	-0.115	-0.198
-415.428	800.000	0.031	-0.101
-414.413	-200.000	0.052	0.304
-413.398	800.000	-0.059	0.170
-412.384	-200.000	0.018	0.113
-411.369	124.696	0.122	0.153
-410.355	-75.695	-0.190	0.067
-409.340	-70.844	0.160	-0.060
-408.325	-19.356	-0.265	0.164
-407.311	-137.638	-0.263	0.029
-406.296	319.169	-0.062	0.117
-405.282	-162.471	0.110	-0.005
-404.267	101.939	0.189	0.219
-403.252	50.042	0.097	0.091
-402.238	35.271	0.033	0.029
-401.223	28.799	-0.203	0.171
-400.209	-200.000	0.012	0.244
-399.194	-200.000	0.000	0.045
-398.179	-5.306	-0.278	0.190
-397.165	-143.987	0.040	-0.004
-396.150	32.862	0.166	-0.143
-395.136	497.147	-0.045	0.103
-394.121	-62.621	0.013	-0.005
-393.106	20.789	0.426	-0.343
-392.092	-123.042	-0.143	0.023
-391.077	-16.774	-0.226	0.142
-390.063	-128.932	-0.326	-0.046
-389.048	-200.000	-0.012	0.202
-388.033	-37.246	-0.244	-0.130
-387.019	-200.000	0.003	0.322
-386.004	-88.651	0.083	-0.024
-384.990	3.791	-0.123	0.089
-383.975	-91.272	-0.085	-0.024
-382.960	-132.412	0.158	0.020
-381.946	-200.000	0.019	-0.144
-380.931	-2.134	0.105	0.073
-379.917	-68.434	0.192	-0.074
-378.902	-120.521	0.225	-0.038
-377.888	-14.445	0.330	0.211
-376.873	-200.000	-0.004	-0.256
-375.858	-103.007	-0.120	0.028
-374.844	-80.759	0.419	-0.138
-373.829	-71.187	0.285	-0.106
-372.815	-91.133	-0.370	0.105
-371.800	-200.000	-0.024	-0.346
-370.785	-200.000	0.045	-0.321
-369.771	397.337	0.208	-0.432
-368.756	-200.000	0.045	-0.265
-367.742	-115.814	-0.118	0.022
-366.727	328.486	-0.094	-0.179
-365.712	124.446	0.260	-0.325
-364.698	-200.000	0.003	-0.311
-363.683	-200.000	-0.001	0.007
-362.669	73.674	0.101	0.106
-361.654	127.098	0.303	-0.382
-360.639	44.342	0.165	-0.151
-359.625	-135.759	0.196	0.023
-358.610	224.749	0.233	0.375
-357.596	485.623	-0.077	0.173
-356.581	-76.645	-0.258	-0.090
-355.566	-100.500	-0.166	0.041
-354.552	-17.789	-0.231	0.144
-353.537	-151.478	-0.400	-0.029
-352.523	236.629	0.149	-0.245
-351.508	800.000	-0.055	0.153
-350.493	-14.591	-0.177	-0.113
-349.479	-138.064	-0.125	0.014
-348.464	-37.195	-0.246	0.131
-347.450	29.076	0.188	-0.158
-346.435	-65.230	0.126	0.050
-345.420	179.177	-0.227	-0.329
-344.406	-160.586	0.416	0.022
-343.391	651.375	0.076	-0.193
-342.377	-55.284	-0.325	0.145
-341.362	-200.000	0.002	0.152
-340.348	34.323	0.073	-0.064
-339.333	128.174	0.045	-0.057
-338.318	43.101	0.069	0.063
-337.304	-18.822	0.283	-0.175
-336.289	-29.110	-0.073	0.042
-335.275	-200.000	-0.008	0.227
-334.260	51.371	-0.205	-0.194
-333.245	-69.068	-0.026	-0.010
-332.231	308.867	0.166	-0.308
-331.216	79.188	-0.222	-0.236
-330.202	-200.000	-0.044	0.283
-329.187	17.018	0.514	-0.404
-328.172	139.921	0.077	0.101
-327.158	-200.000	0.075	-0.382
-326.143	-85.969	0.090	-0.028
-325.129	-45.005	0.121	-0.060
-324.114	29.414	-0.253	0.213
-323.099	-177.508	-0.100	0.002
-322.085	-132.598	0.122	0.016
-321.070	-106.190	0.079	0.018
-320.056	-200.000	-0.159	-0.000
-319.041	-32.550	0.285	0.157
-318.026	54.875	0.170	-0.163
-317.012	-200.000	-0.053	-0.356
-315.997	-106.889	0.209	0.046
-314.983	-21.802	0.371	0.223
-313.968	43.927	0.043	0.039
-312.953	92.602	-0.139	0.155
-311.939	600.566	0.143	-0.352
-310.924	-200.000	-0.003	-0.200
-309.910	-75.715	-0.106	-0.037
-308.895	146.340	0.241	-0.321
-307.880	-89.218	0.359	-0.105
-306.866	-200.000	0.020	0.159
-305.851	-159.013	0.226	-0.013
-304.837	-125.291	0.162	0.025
-303.822	-200.000	-0.023	0.275
-302.807	-30.797	0.157	0.088
-301.793	265.450	0.141	-0.244
-300.778	-200.000	-0.062	0.439
-299.764	-29.509	-0.342	-0.194
-298.749	-94.382	-0.093	-0.025
-297.735	-111.826	0.012	-0.002
-296.720	99.806	0.092	0.106
-295.705	365.567	0.014	0.028
-294.691	800.000	-0.011	0.041
-293.676	-152.650	-0.222	0.016
-292.662	-200.000	-0.049	-0.372
-291.647	-95.484	0.252	0.067
-290.632	-33.861	0.025	-0.014
-289.618	39.065	0.165	0.146
-288.603	-155.381	-0.253	0.016
-287.589	-121.334	0.102	-0.017
-286.574	116.840	-0.011	0.013
-285.559	721.793	0.072	-0.191
-284.545	-158.707	-0.208	-0.012
-283.530	-106.524	0.293	0.065
-282.516	-126.281	0.280	0.041
-281.501	42.784	0.147	-0.133
-280.486	-200.000	0.009	-0.094
-279.472	-33.253	0.304	-0.167
-278.457	-200.000	0.010	-0.251
-277.443	-125.946	0.184	-0.027
-276.428	129.003	0.159	-0.200
-275.413	235.068	-0.202	0.330
-274.399	800.000	0.111	-0.405
-273.384	389.289	0.145	-0.296
-272.370	-104.166	-0.200	-0.046
-271.355	-34.552	-0.192	0.104
-270.340	2.650	-0.181	0.130
-269.326	-189.108	0.032	0.000
-268.311	136.755	-0.123	0.158
-267.297	-1.939	0.112	-0.078
-266.282	-5.396	0.134	-0.091
-265.267	-137.068	0.161	-0.018
-264.253	-84.590	-0.265	0.083
-263.238	-200.000	-0.022	0.160
-262.224	-200.000	-0.038	-0.221
-261.209	-27.879	-0.122	0.070
-260.195	-200.000	0.008	-0.135
-259.180	-140.633	-0.528	-0.054
-258.165	-59.457	-0.241	0.103
-257.151	284.152	0.075	0.133
-256.136	-63.826	0.122	0.049
-255.122	30.205	-0.235	0.198
-254.107	189.915	0.020	-0.030
-253.092	-40.391	-0.490	0.252
-252.078	-103.220	-0.250	0.059
-251.063	800.000	0.036	0.104
-250.049	-86.893	-0.148	-0.045
-249.034	-11.350	-0.180	-0.117
-248.019	214.890	-0.155	0.243
-247.005	-16.794	0.135	-0.084
-245.990	8.154	0.046	0.034
-244.976	55.561	0.039	0.038
-243.961	626.496	0.139	-0.347
-242.946	647.292	-0.015	0.038
-241.932	-55.185	0.161	-0.071
-240.917	-192.308	0.165	-0.002
-239.903	-34.223	-0.194	-0.105
-238.888	-0.151	-0.076	0.053
-237.873	-200.000	0.010	0.442
-236.859	-200.000	0.021	0.166
-235.844	125.861	-0.025	-0.031
-234.830	415.669	0.143	0.302
-233.815	-120.444	-0.242	-0.041
-232.800	-32.181	-0.282	0.156
-231.786	-200.000	0.016	-0.136
-230.771	-60.870	0.117	0.049
-229.757	298.155	-0.201	-0.364
-228.742	206.271	0.155	-0.238
-227.727	24.173	-0.129	0.105
-226.713	274.400	0.200	0.350
-225.698	104.739	0.050	-0.059
-224.684	44.259	0.105	-0.095
-223.669	-2.440	0.161	-0.111
-222.655	-200.000	-0.011	0.136
-221.640	-200.000	0.060	-0.287
-220.625	49.968	0.055	0.051
-219.611	118.451	0.011	-0.013
-218.596	177.787	0.094	0.135
-217.582	-200.000	-0.004	-0.088
-216.567	1.667	0.207	-0.147
-215.552	-200.000	0.003	-0.015
-214.538	472.608	0.164	-0.365
-213.523	800.000	0.027	0.085
-212.509	158.689	0.075	0.103
-211.494	-13.099	0.108	-0.069
-210.479	159.506	0.096	0.131
-209.465	37.899	-0.198	0.173
-208.450	104.945	0.114	-0.132
-207.436	56.575	-0.150	-0.144
-206.421	800.000	-0.015	-0.051
-205.406	139.698	0.283	0.368
-204.392	193.757	0.105	0.157
-203.377	-94.870	-0.328	0.088
-202.363	76.448	0.067	0.070
-201.348	602.439	0.049	0.121
-200.333	-93.829	0.033	0.009
-199.319	19.606	0.427	0.339
-198.304	21.552	0.173	0.139
-197.290	-134.463	-0.442	0.053
-196.275	-25.128	0.456	-0.267
-195.260	-79.893	-0.671	0.223
-194.246	-35.275	-0.130	0.070
-193.231	2.089	-0.344	0.245
-192.217	-200.000	-0.015	0.243
-191.202	276.997	-0.019	-0.033
-190.187	-67.880	0.026	0.010
-189.173	-3.491	0.318	0.218
-188.158	5.309	0.105	0.076
-187.144	96.741	0.216	0.244
-186.129	-179.686	0.039	0.001
-185.114	-200.000	0.004	0.093
-184.100	-83.197	-0.328	-0.104
-183.085	-20.884	-0.151	-0.091
-182.071	98.095	0.003	0.003
-181.056	800.000	0.058	-0.177
-180.042	-57.829	0.152	0.065
-179.027	78.815	-0.174	0.184
-178.012	-200.000	-0.032	0.436
-176.998	540.598	0.129	0.302
-175.983	80.500	0.254	-0.269
-174.969	144.788	0.201	0.265
-173.954	177.000	-0.116	0.166
-172.939	-90.699	0.162	-0.046
-171.925	-17.969	-0.247	0.152
-170.910	63.918	0.185	0.184
-169.896	231.186	-0.067	0.108
-168.881	114.821	0.157	0.189
-167.866	800.000	0.095	-0.294
-166.852	-200.000	0.042	0.296
-165.837	270.259	0.085	0.147
-164.823	44.604	-0.258	-0.234
-163.808	-200.000	0.005	-0.475
-162.793	-89.993	0.049	-0.014
-161.779	-89.624	0.253	0.073
-160.764	800.000	0.084	0.282
-159.750	800.000	0.021	-0.074
-158.735	275.692	-0.077	-0.134
-157.720	-129.288	-0.217	0.030
-156.706	800.000	0.070	0.209
-155.691	10.876	-0.157	-0.118
-154.677	-157.137	0.245	-0.015
-153.662	-50.034	0.303	0.141
-152.647	-200.000	0.000	-0.186
-151.633	-200.000	0.027	-0.218
-150.618	429.740	0.137	-0.292
-149.604	-110.793	0.097	0.020
-148.589	171.044	0.134	0.189
-147.574	800.000	-0.035	0.105
-146.560	-55.378	0.206	-0.091
-145.545	23.758	-0.352	-0.286
-144.531	-77.768	-0.122	-0.041
-143.516	-200.000	0.068	0.388
-142.502	-200.000	0.011	0.077
-141.487	-200.000	0.019	0.314
-140.472	-200.000	0.017	-0.110
-139.458	-1.292	0.276	-0.192
-138.443	-75.000	-0.132	-0.047
-137.429	414.674	0.152	0.319
-136.414	-23.115	0.175	0.104
-135.399	-78.462	0.313	0.105
-134.385	-200.000	-0.008	-0.131
-133.370	-25.260	-0.211	-0.123
-132.356	800.000	-0.079	0.295
-131.341	-156.709	0.169	-0.010
-130.326	-92.299	-0.118	0.033
-129.312	-92.904	-0.176	0.048
-128.297	-53.988	0.068	-0.030
-127.283	92.221	-0.055	-0.061
-126.268	-41.250	-0.150	0.076
-125.253	132.888	-0.269	-0.342
-124.239	800.000	0.074	-0.286
-123.224	-168.523	-0.133	0.005
-122.210	-200.000	0.011	0.195
-121.195	84.817	0.051	-0.055
-120.180	-138.660	-0.397	0.043
-119.166	-200.000	0.019	0.120
-118.151	137.905	0.234	0.302
-117.137	24.984	0.066	-0.054
-116.122	-7.576	0.034	0.023
-115.107	397.760	-0.157	0.322
-114.093	-200.000	0.004	-0.117
-113.078	800.000	0.077	-0.233
-112.064	218.780	-0.058	0.091
-111.049	228.325	0.063	-0.101
-110.034	147.908	0.212	0.280
-109.020	28.066	0.135	-0.112
-108.005	-60.057	-0.285	0.119
-106.991	396.993	0.175	0.359
-105.976	-106.900	0.046	-0.010
-104.962	-6.045	0.213	0.143
-103.947	263.423	-0.132	0.226
-102.932	-109.980	-0.195	0.040
-101.918	-71.764	0.185	0.068
-100.903	330.146	-0.127	-0.240
-99.889	-200.000	0.014	-0.256
-98.874	-200.000	0.004	-0.043
-97.859	-140.629	-0.105	0.011
-96.845	-159.240	0.084	-0.005
-95.830	367.192	-0.115	0.228
-94.816	16.760	-0.186	0.145
-93.801	49.658	0.129	0.119
-92.786	102.860	0.143	0.164
-91.772	800.000	0.052	0.149
-90.757	-200.000	-0.045	-0.202
-89.743	320.107	0.017	0.032
-88.728	-24.672	-0.186	-0.109
-87.713	-139.165	-0.249	-0.026
-86.699	173.511	0.031	0.044
-85.684	-138.651	-0.173	-0.019
-84.670	-200.000	-0.022	0.239
-83.655	-167.759	0.136	-0.005
-82.640	800.000	0.136	-0.407
-81.626	-152.065	0.597	-0.043
-80.611	-200.000	0.018	-0.131
-79.597	201.341	-0.066	0.099
-78.582	-142.128	0.313	0.031
-77.567	161.289	0.195	0.268
-76.553	111.560	-0.089	-0.105
-75.538	-200.000	-0.033	0.225
-74.524	-100.032	-0.137	-0.034
-73.509	-77.048	0.258	0.088
-72.494	256.150	0.201	-0.339
-71.480	476.308	0.145	0.322
-70.465	-38.977	0.253	0.131
-69.451	296.252	0.081	-0.147
-68.436	489.809	-0.055	0.124
-67.422	-123.701	0.299	-0.046
-66.407	680.939	-0.140	0.358
-65.392	-200.000	-0.019	0.178
-64.378	-63.166	0.151	-0.061
-63.363	800.000	0.052	0.174
-62.349	-39.207	0.049	0.025
-61.334	190.300	-0.825	-1.215
-60.319	70.081	0.471	0.477
-59.305	800.000	-0.164	-0.652
-58.290	360.310	0.472	0.927
-57.276	303.627	0.820	1.491
-56.261	-200.000	97.773	606.920
-55.246	596.759	1402.029	3406.627
-54.232	192.518	2594.720	3842.262
-53.217	116.372	2164.045	2601.821
-52.203	42.160	1700.760	1515.031
-51.188	34.684	1513.944	1297.989
-50.173	32.252	1487.878	1259.323
-49.159	51.559	1538.407	1434.106
-48.144	53.320	1555.770	1462.241
-47.130	34.788	1514.832	1299.255
-46.115	31.710	1500.178	1265.872
-45.100	31.544	1496.607	1261.686
-44.086	31.486	1495.040	1259.928
-43.071	31.453	1492.437	1257.460
-42.057	31.385	1491.357	1256.046
-41.042	31.538	1489.382	1255.355
-40.027	31.497	1488.211	1254.044
-39.013	31.405	1486.543	1251.973
-37.998	31.449	1485.505	1251.341
-36.984	31.403	1484.459	1250.106
-35.969	31.390	1483.085	1248.813
-34.954	31.389	1481.725	1247.610
-33.940	31.452	1480.158	1246.663
-32.925	31.502	1478.609	1245.639
-31.911	31.550	1477.476	1244.953
-30.896	31.645	1475.704	1244.046
-29.881	31.516	1475.106	1242.636
-28.867	31.536	1473.544	1241.400
-27.852	31.565	1471.907	1240.166
-26.838	31.508	1470.739	1238.757
-25.823	31.421	1469.221	1236.853
-24.809	31.527	1467.250	1235.844
-23.794	31.536	1465.922	1234.738
-22.779	31.444	1464.860	1233.184
-21.765	31.432	1464.235	1232.533
-20.750	31.516	1462.719	1231.757
-19.736	31.445	1461.907	1230.561
-18.721	31.408	1460.857	1229.383
-17.706	31.458	1459.197	1228.264
-16.692	31.428	1457.928	1226.951
-15.677	31.533	1456.847	1226.683
-14.663	31.413	1456.285	1225.372
-13.648	31.323	1455.441	1224.025
-12.633	31.406	1454.403	1223.645
-11.619	31.359	1454.065	1223.005
-10.604	31.333	1453.146	1222.013
-9.590	31.366	1452.283	1221.460
-8.575	31.334	1451.167	1220.258
-7.560	31.444	1450.113	1220.043
-6.546	31.384	1449.455	1219.052
-5.531	31.280	1449.229	1218.131
-4.517	31.439	1447.422	1217.603
-3.502	31.475	1446.372	1216.903
-2.487	31.349	1445.379	1215.199
-1.473	31.304	1444.865	1214.426
-0.458	31.333	1443.146	1213.126
0.556	28.974	1433.599	1201.805
1.571	25.785	1407.472	1159.305
2.586	22.137	1345.326	1085.525
3.600	20.430	1263.868	1009.796
4.615	19.372	1219.169	968.058
5.629	16.744	1163.687	909.825
6.644	8.011	1079.656	800.344
7.659	0.799	1038.756	735.004
8.673	-0.135	1033.245	726.521
9.688	-0.245	1029.678	723.418
10.702	-0.365	1028.602	722.022
11.717	-0.533	1026.939	719.981
12.731	2.567	1030.014	737.006
13.746	11.588	1042.257	789.456
14.761	18.038	1050.482	826.926
15.775	18.987	1050.723	831.635
16.790	18.897	1050.564	830.999
17.804	18.730	1049.592	829.351
18.819	18.700	1048.316	828.124
19.834	18.667	1047.926	827.584
20.848	18.755	1047.219	827.374
21.863	18.659	1047.226	826.848
22.877	18.638	1046.720	826.273
23.892	18.722	1045.654	825.759
24.907	18.585	1044.904	824.438
25.921	18.739	1043.944	824.348
26.936	18.685	1044.006	824.064
27.950	18.606	1042.992	822.811
28.965	18.604	1041.535	821.578
29.980	18.539	1039.508	819.596
30.994	18.535	1038.158	818.443
32.009	18.697	1037.586	818.693
33.023	18.781	1036.782	818.384
34.038	18.608	1035.314	816.332
35.053	18.552	1034.488	815.339
36.067	18.870	1033.842	816.269
37.082	18.732	1033.395	815.189
38.096	18.819	1032.569	814.876
39.111	18.865	1031.964	814.546
40.126	18.996	1030.380	813.844
41.140	18.838	1029.645	812.443
42.155	18.663	1028.023	810.267
43.169	18.577	1026.447	808.550
44.184	18.425	1025.560	807.064
45.199	18.647	1024.398	807.119
46.213	18.529	1023.450	805.748
47.228	18.383	1022.485	804.232
48.242	18.550	1021.699	804.326
49.257	18.608	1020.350	803.465
50.271	18.674	1019.753	803.231
51.286	18.678	1018.944	802.541
52.301	18.723	1018.170	802.071
53.315	18.577	1017.532	800.814
54.330	18.674	1016.512	800.394
55.344	18.650	1015.467	799.391
56.359	18.774	1014.633	799.241
57.374	18.823	1014.030	798.921
58.388	18.569	1012.572	796.520
59.403	18.550	1012.004	795.916
60.417	18.535	1011.220	795.158
61.432	18.433	1010.409	793.981
62.447	18.553	1009.478	793.735
63.461	18.596	1009.083	793.551
64.476	18.658	1008.118	793.009
65.490	18.633	1006.873	791.843
66.505	18.601	1005.521	790.561
67.520	18.521	1004.880	789.620
68.534	18.570	1004.545	789.514
69.549	18.437	1003.589	788.079
70.563	18.197	1002.266	785.871
71.578	18.168	1001.739	785.256
72.593	18.318	1000.956	785.259
73.607	18.191	999.495	783.461
74.622	18.121	999.062	782.731
75.636	18.352	998.378	783.183
76.651	18.579	997.153	783.191
77.666	18.433	996.306	781.787
78.680	18.431	995.369	780.976
79.695	18.264	995.464	780.218
80.709	18.440	994.324	780.057
81.724	18.543	993.626	779.912
82.739	18.590	992.609	779.257
83.753	18.410	992.111	777.979
84.768	18.701	991.476	778.734
85.782	18.863	990.553	778.675
86.797	18.959	989.900	778.524
87.812	18.860	989.088	777.372
88.826	18.812	988.453	776.584
89.841	18.833	987.146	775.587
90.855	18.931	986.179	775.200
91.870	18.933	985.272	774.425
92.884	18.891	984.552	773.604
93.899	18.856	983.415	772.484
94.914	18.812	982.543	771.535
95.928	18.851	982.107	771.296
96.943	18.861	981.247	770.597
97.957	18.663	979.903	768.586
98.972	18.412	979.046	766.724
99.987	18.276	977.484	764.827
101.001	18.288	977.423	764.765
102.016	18.649	976.682	765.726
103.030	18.706	975.549	765.024
104.045	18.599	974.258	763.469
105.060	18.355	973.235	761.518
106.074	18.235	971.768	759.767
107.089	18.372	971.049	759.744
108.103	18.721	971.106	761.269
109.118	18.948	969.868	761.239
110.133	18.664	968.854	759.118
111.147	18.532	967.987	757.789
112.162	18.580	966.671	756.903
113.176	18.264	965.359	754.417
114.191	18.429	964.661	754.529
115.206	18.517	963.762	754.148
116.220	18.206	962.591	751.799
117.235	18.119	961.597	750.573
118.249	18.312	960.883	750.799
119.264	18.453	959.589	750.337
120.279	18.228	958.897	748.744
121.293	18.372	958.232	748.788
122.308	18.427	957.857	748.669
123.322	18.372	956.840	747.568
124.337	18.359	955.569	746.451
125.352	18.343	953.909	745.020
126.366	17.958	952.122	741.886
127.381	17.687	950.885	739.684
128.395	18.033	950.966	741.180
129.410	18.697	950.250	743.434
130.424	18.769	949.363	742.985
131.439	18.925	947.949	742.485
132.454	18.742	947.374	741.180
133.468	18.797	945.926	740.220
134.483	18.772	945.387	739.625
135.497	18.719	944.653	738.758
136.512	18.891	944.100	739.000
137.527	19.007	943.550	739.000
138.541	18.968	942.494	737.943
139.556	19.152	941.719	738.059
140.570	18.986	940.930	736.662
141.585	18.962	939.672	735.510
142.600	18.864	939.352	734.777
143.614	18.864	938.125	733.751
144.629	19.036	937.917	734.258
145.643	19.212	937.011	734.233
146.658	19.027	935.921	732.527
147.673	18.926	934.530	730.944
148.687	18.965	933.393	730.157
149.702	18.880	932.514	729.044
150.716	18.707	931.859	727.732
151.731	18.830	930.695	727.281
152.746	18.894	929.707	726.713
153.760	18.934	929.349	726.542
154.775	19.072	928.934	726.736
155.789	19.093	928.070	726.082
156.804	18.984	927.139	724.829
157.819	19.052	925.672	723.906
158.833	19.133	925.182	723.799
159.848	19.196	923.955	723.040
160.862	19.156	923.156	722.182
161.877	19.027	922.752	721.263
162.892	18.923	921.868	720.072
163.906	19.172	921.056	720.415
164.921	19.166	920.175	719.638
165.935	18.983	919.343	718.159
166.950	19.094	918.366	717.797
167.964	19.140	917.195	717.008
168.979	19.125	916.137	716.057
169.994	19.070	915.242	715.064
171.008	18.886	914.589	713.725
172.023	19.009	913.286	713.155
173.037	19.137	912.598	713.088
174.052	18.919	911.442	711.217
175.067	18.724	910.777	709.829
176.081	18.816	909.963	709.512
177.096	18.955	909.395	709.581
178.110	18.943	908.324	708.633
179.125	18.848	906.811	706.998
180.140	18.736	906.051	705.885
181.154	18.658	905.559	705.117
182.169	18.744	904.920	704.910
183.183	18.921	904.515	705.259
184.198	19.032	904.212	705.415
185.213	18.915	903.441	704.271
186.227	18.920	902.571	703.550
187.242	19.021	902.068	703.512
188.256	19.146	901.253	703.321
189.271	18.942	900.601	701.920
190.286	19.160	899.630	701.989
191.300	18.871	898.857	700.149
192.315	18.743	897.414	698.443
193.329	18.028	896.197	694.527
194.344	17.607	895.293	692.054
195.359	18.294	895.258	694.755
196.373	18.983	895.555	697.720
197.388	19.007	895.340	697.588
198.402	18.996	894.202	696.597
199.417	18.768	893.507	695.071
200.432	18.863	893.348	695.269
201.446	18.694	892.195	693.628
202.461	18.486	891.680	692.327
203.475	18.494	891.060	691.817
204.490	18.089	889.458	688.881
205.504	17.077	887.413	683.161
206.519	17.653	887.399	685.410
207.534	18.542	887.766	689.206
208.548	18.616	887.367	689.134
209.563	18.893	887.209	690.062
210.577	18.975	886.002	689.389
211.592	18.789	884.952	687.766
212.607	19.142	885.077	689.218
213.621	18.971	884.942	688.369
214.636	19.113	883.646	687.867
215.650	19.263	883.067	687.954
216.665	19.132	882.458	686.893
217.680	19.089	882.490	686.689
218.694	19.202	881.742	686.497
219.709	18.908	880.288	684.133
220.723	18.748	879.216	682.604
221.738	18.919	878.605	682.746
222.753	19.049	878.544	683.156
223.767	19.082	877.712	682.578
224.782	19.237	876.764	682.397
225.796	19.074	876.736	681.666
226.811	19.368	875.527	681.829
227.826	18.814	874.242	678.582
228.840	18.141	873.195	675.053
229.855	18.211	873.066	675.168
230.869	18.423	871.964	675.093
231.884	18.229	871.200	673.677
232.899	18.231	870.976	673.454
233.913	18.936	870.860	676.078
234.928	19.068	870.214	676.034
235.942	19.137	869.433	675.640
236.957	18.982	868.804	674.481
237.972	18.853	867.605	672.985
238.986	18.662	867.207	671.869
240.001	18.697	867.117	671.879
241.015	18.877	866.258	671.859
242.030	18.911	865.368	671.239
243.045	19.004	864.757	671.071
244.059	18.966	864.307	670.514
245.074	19.208	863.719	670.940
246.088	19.071	863.241	669.977
247.103	18.757	861.859	667.625
248.117	18.761	861.530	667.325
249.132	19.306	860.951	668.932
250.147	19.479	861.287	669.806
251.161	19.524	860.406	669.237
252.176	19.602	859.566	668.827
253.190	19.682	858.597	668.323
254.205	19.743	858.229	668.214
255.220	19.814	858.325	668.504
256.234	19.827	857.401	667.774
257.249	19.916	856.521	667.373
258.263	19.783	855.657	666.130
259.278	19.701	855.276	665.457
260.293	19.860	854.790	665.630
261.307	19.796	854.734	665.283
262.322	19.662	853.812	663.993
263.336	19.649	852.807	663.103
264.351	19.206	851.557	660.372
265.366	17.983	849.375	653.943
266.380	17.717	848.317	652.055
267.395	18.573	849.119	655.887
268.409	19.398	848.642	658.615
269.424	19.390	848.216	658.194
270.439	19.573	847.688	658.422
271.453	19.573	847.545	658.253
272.468	19.693	846.712	658.006
273.482	19.704	846.569	657.879
274.497	19.937	846.017	658.276
275.512	19.837	844.466	656.634
276.526	19.194	843.387	653.296
277.541	19.393	842.665	653.435
278.555	19.832	842.376	654.813
279.570	19.569	841.453	653.046
280.585	19.370	840.714	651.662
281.599	19.516	840.140	651.710
282.614	19.650	839.795	651.891
283.628	19.171	838.876	649.315
284.643	18.914	837.781	647.443
285.657	19.237	838.092	648.839
286.672	19.149	837.560	648.042
287.687	18.727	836.422	645.516
288.701	19.119	836.078	646.668
289.716	19.508	835.622	647.715
290.730	19.029	835.225	645.553
291.745	18.786	834.443	643.982
292.760	18.780	833.158	642.912
293.774	18.836	832.155	642.291
294.789	19.544	833.087	645.598
295.803	20.119	832.940	647.577
296.818	20.181	832.581	647.475
297.833	20.295	831.974	647.368
298.847	20.026	830.884	645.460
299.862	19.617	830.025	643.213
300.876	19.937	829.280	643.773
301.891	20.149	829.052	644.325
302.906	20.175	828.424	643.877
303.920	19.713	827.043	641.031
304.935	19.697	826.253	640.305
305.949	19.925	826.429	641.230
306.964	20.140	826.064	641.685
307.979	19.866	825.410	640.106
308.993	19.863	824.688	639.481
310.008	20.194	824.522	640.518
311.022	20.391	823.680	640.533
312.037	20.128	823.513	639.378
313.052	19.919	822.954	638.116
314.066	19.949	821.953	637.393
315.081	19.418	820.651	634.376
316.095	18.717	819.448	630.812
317.110	19.305	819.401	632.880
318.125	20.169	819.405	635.998
319.139	19.518	819.198	633.394
320.154	18.475	817.086	627.888
321.168	17.998	816.947	625.977
322.183	18.788	816.706	628.627
323.197	19.630	816.782	631.712
324.212	19.924	816.145	632.239
325.227	19.934	816.143	632.215
326.241	20.119	815.519	632.350
327.256	20.040	814.791	631.443
328.270	19.986	814.183	630.720
329.285	19.987	813.438	630.090
330.300	19.660	812.982	628.492
331.314	19.616	812.260	627.718
332.329	19.685	811.479	627.311
333.343	19.926	811.135	627.864
334.358	20.190	810.774	628.486
335.373	20.180	810.235	627.977
336.387	20.178	809.602	627.423
337.402	20.369	809.447	627.938
338.416	20.589	808.576	628.002
339.431	20.468	808.052	627.103
340.446	20.288	807.629	626.067
341.460	20.641	807.245	626.986
342.475	20.608	806.501	626.236
343.489	20.526	805.369	625.008
344.504	20.383	804.937	624.100
345.519	20.634	805.224	625.170
346.533	20.795	804.719	625.302
347.548	20.863	804.136	625.038
348.562	20.834	803.903	624.696
349.577	20.794	803.373	624.087
350.592	20.900	802.705	623.892
351.606	20.955	801.983	623.473
352.621	20.956	801.638	623.151
353.635	20.831	801.032	622.179
354.650	20.719	800.468	621.289
355.665	20.299	799.687	619.128
356.679	19.441	798.050	614.749
357.694	19.203	797.520	613.440
358.708	19.962	797.338	615.948
359.723	19.865	796.705	615.060
360.738	19.980	796.733	615.434
361.752	20.641	796.258	617.358
362.767	20.640	796.243	617.290
363.781	20.919	795.824	617.899
364.796	21.079	795.870	618.449
365.810	21.136	795.320	618.168
366.825	21.005	795.066	617.451
367.840	21.179	794.529	617.596
368.854	20.938	793.886	616.191
369.869	20.568	793.288	614.364
370.883	20.525	792.543	613.579
371.898	20.734	791.670	613.586
372.913	20.530	791.272	612.508
373.927	20.385	790.485	611.334
374.942	20.509	790.330	611.594
375.956	20.711	789.883	611.904
376.971	20.824	789.105	611.646
377.986	20.898	788.459	611.351
379.000	21.084	788.195	611.742
380.015	20.960	788.056	611.147
381.029	20.900	787.296	610.293
382.044	20.862	786.485	609.478
383.059	21.116	785.906	609.862
384.073	21.187	785.392	609.659
385.088	21.130	784.776	608.928
386.102	21.173	784.687	608.953
387.117	20.904	784.282	607.647
388.132	20.882	783.754	607.107
389.146	20.972	782.757	606.595
390.161	20.234	781.867	603.285
391.175	20.213	782.158	603.384
392.190	20.674	781.775	604.638
393.205	20.856	781.191	604.766
394.219	19.878	779.658	600.136
395.234	18.672	777.334	594.119
396.248	18.144	776.398	591.526
397.263	19.078	777.349	595.430
398.278	20.590	778.448	601.455
399.292	21.113	778.016	602.874
400.307	20.896	777.454	601.636
401.321	20.653	777.135	600.496
402.336	20.760	776.794	600.549
403.350	21.005	776.522	601.131
404.365	21.351	776.395	602.174
405.380	21.477	776.406	602.563
406.394	21.754	775.886	603.056
407.409	21.886	775.476	603.140
408.423	21.975	774.793	602.860
409.438	21.721	774.147	601.435
410.453	21.680	773.822	600.989
411.467	21.818	773.834	601.416
412.482	21.767	773.044	600.575
413.496	21.809	772.413	600.174
414.511	21.846	772.163	600.055
415.526	21.683	772.022	599.332
416.540	21.708	771.939	599.303
417.555	21.763	771.381	599.002
418.569	21.556	770.153	597.292
419.584	21.391	769.718	596.338
420.599	21.630	769.050	596.582
421.613	157.690	1360.271	1795.459
422.628	135.931	1446.416	1795.562
