DTS Sentinel unit serial number:	SN413079Multiplexer serial number:	ORYXHardware model number:	OX4-SRSoftware version number:	ORYX F/W v4.00 Oryx Data Collector v3.7.2.0data status	okinstallation	princeton_trtdifferential loss correction	single-endedforward channel	channel 3reverse channel	N/Adate	2019/09/11time	23:34:11forward acquisition time	60.00reverse acquisition time	0.00gamma	496.2192k internal	0.2318k external	0.2318temperature offset calibration	1.0053default loss term (dB/km)	0.3790temperature slope calibration	1.0000multiplexer offset coefficient	1.0000multiplexer slope coefficient	1.0000fibre end	0.00T internal ref (°C)	34.19T ext. ref 1 (°C)	1.87T ext. ref 2 (°C)	28.83length (m)	temperature (°C)	Stokes	anti-Stokes-747.200	108.303	0.034	0.041
-746.185	800.000	0.048	0.197
-745.171	-200.000	0.006	0.269
-744.156	-134.432	-0.260	0.032
-743.142	-105.578	-0.098	0.022
-742.127	244.161	-0.111	0.189
-741.112	450.883	0.023	0.051
-740.098	-142.763	0.406	-0.040
-739.083	201.691	0.159	-0.247
-738.069	173.107	-0.239	0.348
-737.054	-200.000	0.024	0.182
-736.039	7.694	0.455	0.345
-735.025	-5.790	0.332	-0.230
-734.010	25.362	-0.225	-0.189
-732.996	32.746	-0.201	0.176
-731.981	-21.783	0.265	-0.163
-730.966	162.053	-0.103	0.146
-729.952	-117.639	0.179	-0.033
-728.937	73.502	0.298	-0.316
-727.923	47.789	-0.296	-0.280
-726.908	-83.120	0.252	0.082
-725.894	-71.131	-0.149	0.057
-724.879	-200.000	-0.025	0.185
-723.864	800.000	-0.021	-0.076
-722.850	-200.000	0.115	0.564
-721.835	-200.000	-0.020	-0.124
-720.821	800.000	-0.049	-0.144
-719.806	-67.428	-0.280	0.111
-718.791	-17.497	-0.119	-0.075
-717.777	285.481	-0.041	-0.076
-716.762	25.223	0.190	-0.160
-715.748	800.000	-0.029	-0.107
-714.733	-12.450	-0.174	-0.115
-713.718	-101.882	0.311	-0.076
-712.704	151.610	-0.064	-0.088
-711.689	-41.381	0.233	-0.121
-710.675	195.063	-0.187	-0.287
-709.660	-75.367	0.277	-0.100
-708.645	-136.552	-0.249	0.029
-707.631	-176.667	-0.044	-0.001
-706.616	-109.843	0.306	0.065
-705.602	42.709	-0.274	-0.252
-704.587	-200.000	-0.021	-0.182
-703.572	123.988	-0.214	-0.272
-702.558	247.848	-0.151	-0.257
-701.543	-89.056	-0.108	-0.032
-700.529	14.204	-0.384	-0.302
-699.514	266.082	-0.126	0.223
-698.499	228.905	0.138	-0.227
-697.485	-119.281	0.098	0.017
-696.470	-43.129	-0.128	-0.066
-695.456	96.121	0.081	-0.093
-694.441	-200.000	-0.064	0.299
-693.426	-131.134	-0.327	0.044
-692.412	-75.586	0.245	-0.088
-691.397	12.076	-0.216	-0.168
-690.383	174.374	-0.299	-0.436
-689.368	-179.907	0.183	-0.004
-688.354	106.083	-0.164	-0.196
-687.339	-72.074	-0.151	-0.056
-686.324	-30.553	-0.119	0.068
-685.310	800.000	0.087	-0.320
-684.295	-200.000	0.088	-0.495
-683.281	-200.000	0.048	-0.231
-682.266	-22.174	-0.169	0.104
-681.251	774.083	0.028	0.078
-680.237	-59.342	0.070	-0.030
-679.222	-95.348	-0.219	-0.059
-678.208	800.000	-0.013	-0.042
-677.193	-200.000	-0.051	0.227
-676.178	-65.875	-0.082	0.033
-675.164	-78.536	0.294	0.101
-674.149	681.525	-0.126	0.331
-673.135	-18.499	-0.126	-0.080
-672.120	270.924	-0.075	-0.132
-671.105	-189.946	-0.227	0.003
-670.091	-91.050	0.136	0.040
-669.076	-200.000	-0.006	0.139
-668.062	-132.698	-0.280	-0.036
-667.047	-62.303	0.272	-0.114
-666.032	667.319	0.078	-0.204
-665.018	-200.000	0.029	0.258
-664.003	270.882	0.020	-0.036
-662.989	-40.922	0.173	-0.090
-661.974	-200.000	0.041	0.324
-660.959	415.331	0.041	0.089
-659.945	463.248	0.079	-0.178
-658.930	779.362	-0.159	0.440
-657.916	-60.348	-0.151	0.065
-656.901	-34.676	-0.062	0.034
-655.886	-40.351	-0.120	-0.063
-654.872	74.453	0.094	0.099
-653.857	-78.278	-0.354	-0.123
-652.843	-127.695	-0.228	-0.033
-651.828	-34.263	-0.387	-0.214
-650.814	-200.000	0.000	-0.262
-649.799	-200.000	-0.006	0.359
-648.784	-71.092	-0.358	0.136
-647.770	800.000	0.135	0.401
-646.755	-22.596	-0.172	0.105
-645.741	-66.724	0.290	0.116
-644.726	54.807	0.295	-0.287
-643.711	-200.000	-0.054	0.402
-642.697	482.046	0.091	0.209
-641.682	-200.000	-0.016	-0.258
-640.668	35.455	0.134	-0.118
-639.653	259.137	0.034	0.059
-638.638	-34.922	-0.215	-0.119
-637.624	641.806	0.173	-0.444
-636.609	196.177	0.035	-0.053
-635.595	800.000	0.073	-0.215
-634.580	-200.000	-0.003	0.122
-633.565	-74.457	-0.215	-0.078
-632.551	177.400	-0.114	-0.168
-631.536	-54.301	-0.072	-0.033
-630.522	174.765	-0.248	-0.362
-629.507	-48.946	0.226	0.109
-628.492	95.290	0.210	0.241
-627.478	-23.258	-0.220	0.133
-626.463	800.000	0.044	0.145
-625.449	-68.592	0.474	0.185
-624.434	-200.000	0.018	0.303
-623.419	-29.889	-0.208	0.120
-622.405	-155.597	0.150	0.010
-621.390	-200.000	0.020	0.210
-620.376	-92.397	-0.276	-0.078
-619.361	35.032	-0.163	-0.144
-618.346	800.000	0.050	0.203
-617.332	-200.000	0.013	0.163
-616.317	-200.000	0.005	0.020
-615.303	-56.440	-0.340	0.152
-614.288	-200.000	-0.005	-0.060
-613.273	800.000	0.037	-0.150
-612.259	421.294	0.076	0.164
-611.244	-141.856	-0.020	-0.002
-610.230	-147.762	-0.309	-0.026
-609.215	578.278	0.165	0.407
-608.201	-200.000	0.015	0.084
-607.186	-124.452	0.395	-0.062
-606.171	-41.879	-0.201	-0.104
-605.157	73.379	0.338	0.356
-604.142	-72.871	0.290	-0.107
-603.128	80.507	-0.138	0.149
-602.113	-164.998	-0.472	-0.021
-601.098	45.102	-0.161	0.150
-600.084	-200.000	-0.070	-0.325
-599.069	-132.238	0.323	-0.042
-598.055	-17.003	0.263	-0.167
-597.040	-16.791	0.270	-0.172
-596.025	117.919	-0.206	0.255
-595.011	-4.074	-0.112	-0.078
-593.996	176.621	0.160	0.235
-592.982	-98.020	-0.199	0.052
-591.967	-55.894	0.493	-0.221
-590.952	800.000	0.119	-0.340
-589.938	-1.324	-0.241	-0.171
-588.923	-13.496	-0.311	0.203
-587.909	185.198	0.126	-0.189
-586.894	-44.742	0.129	0.065
-585.879	-9.949	0.288	0.193
-584.865	-200.000	0.034	0.186
-583.850	424.682	-0.082	-0.177
-582.836	130.391	0.053	0.068
-581.821	-0.119	0.057	-0.041
-580.806	800.000	-0.051	-0.213
-579.792	-200.000	-0.003	-0.138
-578.777	560.874	0.193	0.469
-577.763	437.450	0.134	-0.293
-576.748	-76.862	0.182	-0.064
-575.733	4.224	-0.136	0.100
-574.719	97.950	-0.222	0.257
-573.704	-76.589	0.264	-0.093
-572.690	-176.627	-0.182	0.005
-571.675	-162.331	-0.102	0.005
-570.661	-200.000	0.012	-0.060
-569.646	-57.629	-0.287	0.126
-568.631	-200.000	-0.017	-0.111
-567.617	-200.000	0.001	-0.171
-566.602	-31.829	0.150	-0.084
-565.588	-120.462	-0.360	-0.062
-564.573	344.028	-0.184	0.363
-563.558	101.380	0.137	-0.160
-562.544	800.000	0.036	0.125
-561.529	24.968	0.084	0.070
-560.515	-25.460	-0.147	0.087
-559.500	496.013	-0.038	0.088
-558.485	-200.000	0.020	0.112
-557.471	502.946	-0.017	-0.039
-556.456	-200.000	-0.016	0.407
-555.442	800.000	0.033	0.109
-554.427	44.595	-0.172	0.159
-553.412	-200.000	0.014	-0.214
-552.398	289.065	-0.206	0.375
-551.383	-47.724	-0.039	0.019
-550.369	-14.159	-0.082	0.053
-549.354	75.482	0.119	-0.126
-548.339	800.000	0.068	-0.288
-547.325	-200.000	0.037	0.215
-546.310	333.874	0.138	-0.268
-545.296	192.989	0.141	0.214
-544.281	213.538	0.168	0.267
-543.266	-200.000	-0.010	-0.374
-542.252	117.237	-0.222	-0.274
-541.237	800.000	-0.187	0.534
-540.223	-200.000	0.017	-0.151
-539.208	-71.167	0.111	-0.042
-538.193	-200.000	0.006	-0.276
-537.179	-167.168	0.246	-0.010
-536.164	-40.305	-0.099	-0.052
-535.150	11.442	0.164	-0.126
-534.135	149.734	0.100	-0.135
-533.121	-67.694	0.160	0.063
-532.106	-8.344	0.048	0.033
-531.091	361.706	-0.106	0.213
-530.077	-137.012	0.132	-0.015
-529.062	-66.122	0.173	-0.069
-528.048	81.362	-0.170	0.185
-527.033	200.942	-0.115	-0.178
-526.018	139.783	-0.178	-0.235
-525.004	800.000	0.028	0.117
-523.989	-155.588	0.378	0.024
-522.975	-200.000	0.036	0.167
-521.960	-90.963	0.028	-0.008
-520.945	71.190	-0.168	0.175
-519.931	67.049	-0.254	0.259
-518.916	77.773	-0.032	0.034
-517.902	49.677	0.157	-0.149
-516.887	-182.538	0.206	-0.004
-515.872	-6.819	0.165	0.112
-514.858	387.299	-0.088	-0.182
-513.843	83.760	0.152	-0.167
-512.829	800.000	-0.061	0.195
-511.814	528.170	0.118	-0.279
-510.799	-59.389	-0.229	-0.099
-509.785	252.141	0.152	-0.260
-508.770	403.960	0.077	0.162
-507.756	-200.000	-0.032	-0.141
-506.741	241.856	-0.059	-0.099
-505.726	65.508	-0.287	-0.291
-504.712	-128.013	-0.283	-0.041
-503.697	800.000	-0.073	-0.239
-502.683	349.488	0.092	0.182
-501.668	-147.541	-0.454	0.038
-500.653	-200.000	0.028	0.492
-499.639	-200.000	-0.012	0.116
-498.624	-200.000	0.029	0.276
-497.610	-65.177	0.384	-0.155
-496.595	-89.452	-0.011	0.003
-495.581	800.000	0.059	0.233
-494.566	-16.231	-0.085	-0.054
-493.551	-34.483	0.216	-0.119
-492.537	116.204	0.076	0.093
-491.522	-200.000	-0.005	0.124
-490.508	800.000	0.104	-0.378
-489.493	-25.763	-0.167	-0.099
-488.478	800.000	0.048	-0.160
-487.464	-200.000	-0.034	0.528
-486.449	-200.000	-0.027	0.132
-485.435	-200.000	-0.037	-0.180
-484.420	190.206	-0.123	-0.185
-483.405	-41.690	0.279	0.143
-482.391	130.821	0.190	0.245
-481.376	-116.543	-0.182	-0.034
-480.362	9.955	-0.305	-0.232
-479.347	-164.313	0.257	-0.012
-478.332	134.610	-0.170	0.221
-477.318	-66.344	-0.216	0.086
-476.303	763.228	0.105	-0.285
-475.289	-29.098	-0.357	-0.205
-474.274	-7.908	0.116	0.079
-473.259	800.000	-0.135	0.410
-472.245	619.030	0.074	0.185
-471.230	125.403	0.122	0.154
-470.216	-200.000	0.014	0.322
-469.201	148.422	0.121	0.164
-468.186	-148.976	-0.142	0.011
-467.172	-200.000	0.003	-0.270
-466.157	235.509	-0.213	-0.352
-465.143	-16.992	0.316	-0.199
-464.128	217.367	0.091	-0.146
-463.113	-154.527	0.345	-0.023
-462.099	33.903	0.180	0.157
-461.084	-99.288	0.071	-0.018
-460.070	77.396	-0.103	-0.110
-459.055	-136.463	-0.422	-0.049
-458.040	-119.635	-0.162	0.028
-457.026	92.033	-0.033	0.037
-456.011	-128.963	0.416	-0.058
-454.997	186.058	-0.052	-0.077
-453.982	800.000	-0.071	-0.232
-452.968	39.109	0.259	-0.232
-451.953	-200.000	0.019	-0.192
-450.938	-124.597	-0.148	-0.023
-449.924	800.000	0.057	-0.181
-448.909	158.843	0.318	-0.442
-447.895	306.857	-0.192	-0.357
-446.880	-70.898	0.071	0.027
-445.865	29.001	0.119	0.101
-444.851	-141.509	-0.420	-0.043
-443.836	-120.210	0.523	-0.089
-442.822	800.000	-0.099	0.282
-441.807	800.000	-0.132	-0.376
-440.792	-200.000	0.075	-0.335
-439.778	206.667	0.069	0.107
-438.763	-152.628	-0.103	0.007
-437.749	-200.000	-0.003	-0.145
-436.734	67.424	-0.273	-0.279
-435.719	48.935	0.399	-0.375
-434.705	127.275	-0.148	0.188
-433.690	-200.000	-0.018	-0.212
-432.676	-64.509	0.268	0.109
-431.661	-60.075	-0.391	-0.167
-430.646	255.065	-0.150	0.256
-429.632	-200.000	0.032	0.253
-428.617	800.000	-0.036	-0.127
-427.603	-113.700	0.338	-0.066
-426.588	-11.706	0.242	-0.159
-425.573	-200.000	-0.018	0.092
-424.559	187.527	0.160	-0.238
-423.544	-65.669	-0.266	0.107
-422.530	26.077	-0.190	-0.159
-421.515	-131.110	-0.227	-0.030
-420.500	132.129	0.133	-0.171
-419.486	-150.209	0.036	-0.003
-418.471	-200.000	0.078	-0.341
-417.457	-135.043	0.111	0.013
-416.442	-163.433	0.077	0.004
-415.428	-34.415	0.158	-0.087
-414.413	119.883	0.151	0.187
-413.398	-200.000	-0.046	0.366
-412.384	10.992	-0.189	-0.144
-411.369	-79.952	0.231	-0.078
-410.355	800.000	-0.108	0.369
-409.340	-2.055	-0.110	0.077
-408.325	800.000	-0.054	-0.190
-407.311	-200.000	0.039	0.268
-406.296	-160.245	-0.139	0.008
-405.282	-47.527	0.300	0.145
-404.267	-200.000	0.090	-0.543
-403.252	14.471	0.291	-0.227
-402.238	259.372	-0.141	0.243
-401.223	135.683	-0.026	-0.034
-400.209	-148.748	-0.098	-0.008
-399.194	44.224	-0.264	-0.242
-398.179	-79.980	-0.163	0.055
-397.165	261.651	0.134	-0.231
-396.150	-38.863	0.190	-0.100
-395.136	129.047	-0.276	0.351
-394.121	313.663	-0.120	-0.224
-393.106	49.968	-0.209	-0.197
-392.092	44.411	-0.082	0.075
-391.077	-9.948	-0.044	-0.029
-390.063	-200.000	-0.005	-0.354
-389.048	800.000	0.054	0.155
-388.033	-59.164	0.151	0.065
-387.019	27.240	-0.281	0.236
-386.004	523.676	0.152	0.356
-384.990	-7.944	0.191	0.128
-383.975	125.377	-0.095	-0.120
-382.960	-124.768	-0.112	-0.017
-381.946	115.802	0.205	0.250
-380.931	-200.000	-0.040	-0.189
-379.917	-90.128	0.188	-0.055
-378.902	-200.000	-0.021	0.100
-377.888	142.959	-0.124	0.164
-376.873	744.383	-0.087	0.234
-375.858	-52.215	0.148	-0.069
-374.844	-26.884	0.106	-0.062
-373.829	-177.534	-0.156	0.004
-372.815	72.954	0.278	0.290
-371.800	-110.038	0.510	0.106
-370.785	800.000	0.096	0.411
-369.771	800.000	-0.131	0.431
-368.756	-21.432	-0.169	0.103
-367.742	-111.634	0.302	-0.061
-366.727	58.149	0.122	-0.120
-365.712	289.215	-0.102	-0.184
-364.698	-94.440	-0.152	0.041
-363.683	160.448	-0.239	0.333
-362.669	368.034	-0.129	0.261
-361.654	307.561	0.109	0.203
-360.639	-105.223	0.105	0.024
-359.625	-97.418	-0.072	-0.019
-358.610	241.616	-0.102	-0.170
-357.596	88.259	-0.125	-0.139
-356.581	-200.000	-0.021	-0.322
-355.566	235.041	0.069	-0.113
-354.552	145.830	0.037	-0.050
-353.537	153.746	-0.050	-0.068
-352.523	-190.138	0.072	0.001
-351.508	224.911	-0.126	-0.203
-350.493	-181.941	0.309	0.006
-349.479	-200.000	-0.014	-0.074
-348.464	65.491	-0.288	-0.291
-347.450	-34.118	0.106	-0.058
-346.435	-89.522	0.187	-0.055
-345.420	645.237	-0.104	-0.264
-344.406	255.093	0.150	-0.256
-343.391	350.108	-0.136	0.267
-342.377	-200.000	-0.005	-0.062
-341.362	800.000	0.016	-0.056
-340.348	312.330	-0.107	-0.201
-339.333	800.000	-0.057	0.181
-338.318	331.431	-0.048	-0.093
-337.304	285.242	0.166	-0.297
-336.289	280.740	0.207	0.369
-335.275	-27.564	0.145	0.084
-334.260	142.764	0.094	0.124
-333.245	-200.000	-0.004	0.034
-332.231	-21.924	-0.208	-0.126
-331.216	800.000	0.035	0.110
-330.202	162.229	-0.244	-0.340
-329.187	-44.545	-0.324	0.162
-328.172	0.824	0.201	0.144
-327.158	34.050	0.288	-0.250
-326.143	101.699	-0.092	-0.107
-325.129	116.930	0.077	0.094
-324.114	-136.924	0.102	0.012
-323.099	113.211	-0.099	0.120
-322.085	-200.000	-0.024	-0.120
-321.070	800.000	0.010	-0.032
-320.056	324.191	0.220	0.418
-319.041	-200.000	-0.017	-0.075
-318.026	-145.650	-0.093	-0.008
-317.012	238.703	0.058	0.096
-315.997	277.054	-0.162	0.286
-314.983	-200.000	0.028	0.149
-313.968	2.517	-0.117	-0.085
-312.953	-200.000	-0.018	-0.425
-311.939	-75.097	-0.179	-0.064
-310.924	-134.075	-0.204	-0.025
-309.910	-134.493	-0.474	0.058
-308.895	-126.314	0.109	0.016
-307.880	-23.921	-0.216	0.129
-306.866	57.127	0.101	0.098
-305.851	470.930	0.072	0.162
-304.837	350.074	0.161	0.317
-303.822	153.210	0.065	0.088
-302.807	-161.911	-0.007	-0.000
-301.793	339.578	-0.053	-0.103
-300.778	-200.000	-0.017	0.152
-299.764	-109.165	-0.089	0.019
-298.749	-200.000	-0.008	0.127
-297.735	628.696	0.098	-0.246
-296.720	-171.382	-0.176	-0.006
-295.705	414.028	0.072	0.152
-294.691	113.599	-0.230	-0.278
-293.676	32.402	-0.116	-0.099
-292.662	-200.000	0.090	0.426
-291.647	-75.841	0.213	0.075
-290.632	507.392	-0.087	-0.201
-289.618	28.982	0.174	-0.147
-288.603	309.028	-0.092	0.171
-287.589	-63.146	0.171	0.070
-286.574	291.042	-0.077	-0.139
-285.559	56.940	0.004	-0.004
-284.545	34.731	-0.035	0.030
-283.530	800.000	0.102	0.323
-282.516	-93.923	0.164	-0.045
-281.501	157.736	-0.320	0.441
-280.486	-96.551	-0.094	0.025
-279.472	15.542	-0.198	0.154
-278.457	69.497	-0.160	0.164
-277.443	223.422	-0.124	-0.199
-276.428	66.440	0.014	0.014
-275.413	800.000	-0.067	0.186
-274.399	-48.597	0.088	0.042
-273.384	557.161	-0.033	-0.079
-272.370	-200.000	0.035	0.242
-271.355	643.762	-0.052	0.131
-270.340	3.679	-0.265	-0.192
-269.326	419.474	0.141	0.301
-268.311	-127.851	0.118	0.017
-267.297	-177.929	0.071	0.002
-266.282	-37.139	0.285	0.151
-265.267	379.851	0.103	-0.210
-264.253	-40.789	-0.323	-0.166
-263.238	-116.445	0.223	0.041
-262.224	160.488	0.036	-0.051
-261.209	131.628	-0.068	-0.087
-260.195	-133.101	-0.306	-0.038
-259.180	800.000	0.149	-0.475
-258.165	-200.000	-0.030	0.177
-257.151	-40.923	-0.069	-0.035
-256.136	-200.000	-0.037	-0.213
-255.122	-36.886	0.071	0.038
-254.107	-26.344	-0.090	-0.053
-253.092	800.000	0.066	-0.182
-252.078	-47.953	-0.111	-0.053
-251.063	-97.443	-0.140	0.036
-250.049	45.873	-0.149	-0.137
-249.034	147.941	0.094	-0.126
-248.019	-102.179	-0.329	-0.079
-247.005	-200.000	-0.027	0.166
-245.990	-200.000	-0.019	0.162
-244.976	-12.073	0.101	-0.066
-243.961	103.636	-0.108	0.126
-242.946	61.102	0.100	-0.098
-241.932	101.733	0.278	-0.322
-240.917	-72.563	-0.074	-0.027
-239.903	108.938	-0.087	0.103
-238.888	-21.053	0.068	0.041
-237.873	-143.334	-0.202	0.019
-236.859	178.744	-0.087	-0.126
-235.844	142.749	-0.264	-0.348
-234.830	-200.000	-0.062	-0.276
-233.815	-176.130	-0.435	0.011
-232.800	23.030	-0.246	-0.201
-231.786	-89.032	0.456	-0.134
-230.771	33.242	0.337	-0.290
-229.757	64.284	-0.115	-0.115
-228.742	-200.000	0.055	-0.244
-227.727	519.690	-0.089	-0.206
-226.713	-115.304	0.291	0.055
-225.698	185.335	0.158	0.233
-224.684	800.000	0.044	0.121
-223.669	156.491	0.109	0.150
-222.655	-6.064	-0.091	-0.062
-221.640	-60.410	0.169	-0.071
-220.625	-200.000	-0.004	-0.017
-219.611	-149.515	-0.031	-0.002
-218.596	-200.000	0.021	-0.257
-217.582	-157.210	0.219	0.013
-216.567	-121.849	-0.299	-0.049
-215.552	113.269	-0.190	-0.228
-214.538	800.000	0.111	0.337
-213.523	158.882	-0.060	0.082
-212.509	-115.777	0.046	0.009
-211.494	152.122	0.036	-0.048
-210.479	-200.000	0.021	-0.138
-209.465	-200.000	0.027	0.151
-208.450	410.762	0.060	0.127
-207.436	-112.629	0.233	0.046
-206.421	140.553	0.267	0.350
-205.406	800.000	0.044	-0.139
-204.392	-9.170	-0.126	0.083
-203.377	53.756	0.280	-0.266
-202.363	-55.113	0.100	0.044
-201.348	-124.955	0.160	0.024
-200.333	785.582	0.068	-0.186
-199.319	-31.732	0.269	0.150
-198.304	-2.331	-0.226	-0.157
-197.290	-103.835	0.300	0.069
-196.275	-132.630	0.062	0.008
-195.260	-200.000	0.029	-0.132
-194.246	368.263	0.173	-0.347
-193.231	-200.000	0.029	-0.224
-192.217	-106.587	0.094	0.021
-191.202	525.123	-0.003	-0.008
-190.187	-200.000	-0.001	0.195
-189.173	-47.003	-0.191	0.093
-188.158	-200.000	-0.043	0.285
-187.144	209.603	-0.099	0.154
-186.129	-34.356	0.034	-0.018
-185.114	-157.150	0.087	-0.005
-184.100	-200.000	0.000	-0.006
-183.085	-55.032	-0.282	-0.126
-182.071	101.035	-0.080	0.092
-181.056	739.912	0.104	-0.278
-180.042	-132.959	-0.379	0.048
-179.027	-200.000	-0.013	0.130
-178.012	800.000	0.040	-0.144
-176.998	-47.527	-0.328	0.158
-175.983	800.000	-0.051	0.172
-174.969	-97.130	-0.095	-0.025
-173.954	-176.970	-0.087	-0.002
-172.939	185.437	-0.099	-0.145
-171.925	-27.275	0.343	0.197
-170.910	-26.291	-0.106	-0.061
-169.896	121.862	-0.055	-0.068
-168.881	-85.539	-0.323	-0.099
-167.866	-200.000	-0.021	0.268
-166.852	-124.534	0.229	-0.035
-165.837	-55.648	0.121	0.054
-164.823	-91.026	0.107	-0.030
-163.808	-24.189	-0.163	-0.096
-162.793	43.301	0.154	0.139
-161.779	-73.764	-0.380	0.137
-160.764	-65.351	-0.171	-0.068
-159.750	26.753	-0.140	0.116
-158.735	123.410	0.220	0.273
-157.720	84.364	0.158	0.171
-156.706	800.000	-0.085	-0.360
-155.691	-85.802	-0.272	-0.083
-154.677	486.715	0.076	0.172
-153.662	-200.000	0.027	0.280
-152.647	-68.509	0.069	0.026
-151.633	-200.000	-0.010	0.043
-150.618	60.876	0.125	0.123
-149.604	-32.281	0.040	0.022
-148.589	800.000	-0.112	-0.384
-147.574	-20.720	0.297	-0.180
-146.560	110.783	-0.083	-0.099
-145.545	379.223	-0.211	0.427
-144.531	-4.068	-0.231	-0.159
-143.516	-200.000	0.006	-0.035
-142.502	326.578	0.051	0.097
-141.487	-43.878	0.204	-0.101
-140.472	-200.000	0.023	-0.281
-139.458	8.898	0.109	-0.081
-138.443	26.334	0.182	-0.150
-137.429	800.000	-0.071	0.287
-136.414	67.655	0.212	0.214
-135.399	800.000	0.042	0.145
-134.385	-129.603	0.146	-0.020
-133.370	-95.540	0.204	-0.054
-132.356	800.000	0.104	-0.333
-131.341	-145.559	-0.100	-0.009
-130.326	38.363	0.222	-0.196
-129.312	-4.091	0.012	0.008
-128.297	-92.847	0.156	-0.043
-127.283	-200.000	-0.044	0.308
-126.268	-200.000	-0.002	-0.153
-125.253	800.000	0.069	-0.259
-124.239	-140.062	-0.277	-0.029
-123.224	-86.432	-0.293	-0.089
-122.210	-116.280	0.050	-0.009
-121.195	159.510	0.089	-0.122
-120.180	119.439	-0.180	-0.220
-119.166	0.931	-0.106	-0.075
-118.151	-38.670	-0.155	0.081
-117.137	14.747	0.335	0.258
-116.122	-190.426	-0.296	-0.003
-115.107	800.000	0.100	-0.289
-114.093	175.272	-0.163	0.233
-113.078	-115.945	0.145	-0.027
-112.064	800.000	-0.111	-0.351
-111.049	-200.000	0.013	0.138
-110.034	-200.000	0.025	0.380
-109.020	-200.000	-0.048	0.260
-108.005	800.000	0.026	-0.079
-106.991	-9.777	0.096	-0.063
-105.976	-20.726	-0.138	0.084
-104.962	-61.525	0.227	0.094
-103.947	-200.000	-0.046	0.325
-102.932	-49.274	0.162	0.076
-101.918	-99.387	-0.106	-0.026
-100.903	800.000	0.111	-0.360
-99.889	584.151	0.062	-0.150
-98.874	-15.897	0.204	-0.128
-97.859	-200.000	0.049	-0.247
-96.845	-37.090	-0.074	0.039
-95.830	-73.508	-0.181	-0.065
-94.816	-138.170	0.137	0.015
-93.801	116.678	-0.246	-0.298
-92.786	-82.735	0.090	-0.029
-91.772	-40.647	-0.311	-0.159
-90.757	13.347	-0.122	0.093
-89.743	-105.288	-0.195	0.044
-88.728	2.388	0.260	0.186
-87.713	-57.827	-0.247	-0.107
-86.699	-200.000	0.051	-0.232
-85.684	28.803	0.178	0.149
-84.670	71.259	0.154	0.157
-83.655	251.746	0.049	0.083
-82.640	157.153	0.062	-0.084
-81.626	-63.015	-0.212	0.086
-80.611	-71.318	0.107	-0.039
-79.597	137.234	0.023	0.029
-78.582	424.908	-0.140	-0.297
-77.567	-82.845	0.242	-0.077
-76.553	-61.852	-0.212	0.088
-75.538	-89.045	-0.244	0.071
-74.524	-66.577	0.259	0.101
-73.509	227.111	0.148	0.236
-72.494	-200.000	0.001	0.264
-71.480	83.534	-0.128	0.137
-70.465	244.957	0.086	0.143
-69.451	-41.029	-0.308	0.157
-68.436	209.205	0.106	0.163
-67.422	-155.353	-0.201	-0.013
-66.407	74.044	0.095	0.098
-65.392	111.208	0.361	0.428
-64.378	800.000	0.064	0.250
-63.363	384.859	0.048	-0.097
-62.349	-12.817	0.174	-0.112
-61.334	-43.583	-0.941	-0.468
-60.319	292.267	0.301	0.540
-59.305	420.171	-0.309	-0.653
-58.290	258.647	0.622	1.056
-57.276	800.000	0.554	1.934
-56.261	-200.000	97.680	589.189
-55.246	550.244	1394.637	3295.408
-54.232	153.779	2589.568	3496.279
-53.217	113.370	2175.862	2601.479
-52.203	44.522	1713.693	1551.201
-51.188	37.348	1526.095	1332.369
-50.173	34.988	1499.254	1292.962
-49.159	54.717	1550.333	1473.002
-48.144	57.920	1569.096	1512.755
-47.130	37.648	1524.819	1333.103
-46.115	34.474	1509.397	1298.005
-45.100	34.250	1506.132	1293.628
-44.086	34.118	1504.453	1291.233
-43.071	34.196	1502.101	1289.692
-42.057	34.125	1500.846	1288.085
-41.042	34.225	1499.086	1287.199
-40.027	34.197	1497.918	1285.959
-39.013	34.182	1496.271	1284.388
-37.998	34.162	1494.994	1283.105
-36.984	34.212	1493.862	1282.420
-35.969	34.212	1492.437	1281.150
-34.954	34.114	1491.389	1279.537
-33.940	34.159	1490.009	1278.608
-32.925	34.209	1488.334	1277.456
-31.911	34.238	1487.370	1276.769
-30.896	34.205	1486.006	1275.330
-29.881	34.318	1484.098	1274.393
-28.867	34.261	1483.173	1273.169
-27.852	34.288	1481.439	1271.812
-26.838	34.284	1479.891	1270.408
-25.823	34.167	1479.077	1268.875
-24.809	34.085	1477.866	1267.243
-23.794	34.226	1475.865	1266.412
-22.779	34.206	1474.793	1265.308
-21.765	34.204	1473.179	1263.860
-20.750	34.159	1472.822	1263.208
-19.736	34.216	1470.964	1261.938
-18.721	34.210	1470.387	1261.357
-17.706	34.098	1469.660	1259.941
-16.692	34.324	1467.677	1259.681
-15.677	34.159	1466.960	1257.932
-14.663	34.099	1466.635	1257.205
-13.648	34.092	1465.623	1256.241
-12.633	34.187	1464.570	1255.913
-11.619	34.125	1463.814	1254.804
-10.604	34.189	1462.262	1253.848
-9.590	34.258	1461.556	1253.645
-8.575	34.241	1460.631	1252.690
-7.560	34.228	1460.241	1252.222
-6.546	34.145	1459.683	1251.148
-5.531	34.146	1458.656	1250.224
-4.517	34.115	1457.767	1249.211
-3.502	34.130	1456.451	1248.133
-2.487	34.148	1455.563	1247.440
-1.473	34.048	1454.582	1245.891
-0.458	34.138	1453.102	1245.165
0.556	34.337	1443.993	1233.912
1.571	31.609	1418.176	1194.371
2.586	28.279	1357.854	1123.083
3.600	26.678	1276.929	1046.810
4.615	25.529	1230.329	1002.121
5.629	21.723	1172.872	934.967
6.644	11.371	1086.066	814.279
7.659	3.203	1042.795	742.489
8.673	2.143	1036.986	733.202
9.688	1.819	1034.363	729.729
10.702	1.802	1032.724	728.427
11.717	1.718	1030.648	726.498
12.731	5.418	1035.489	747.559
13.746	15.502	1049.429	806.195
14.761	23.305	1058.933	851.076
15.775	24.790	1060.289	859.230
16.790	25.019	1059.783	859.841
17.804	24.947	1058.998	858.785
18.819	24.734	1058.125	856.983
19.834	24.885	1057.390	857.031
20.848	24.808	1057.315	856.530
21.863	24.823	1057.404	856.596
22.877	25.028	1056.567	856.821
23.892	25.003	1055.644	855.876
24.907	24.768	1055.391	854.475
25.921	24.811	1054.594	853.959
26.936	24.900	1053.203	853.181
27.950	24.817	1052.289	851.972
28.965	24.820	1051.163	851.000
29.980	24.708	1049.776	849.267
30.994	24.784	1048.589	848.593
32.009	24.839	1047.910	848.229
33.023	24.893	1047.530	848.103
34.038	24.833	1046.411	846.835
35.053	24.669	1045.596	845.326
36.067	24.897	1044.765	845.658
37.082	24.885	1044.019	844.922
38.096	24.915	1043.636	844.677
39.111	24.951	1042.844	844.134
40.126	25.101	1041.991	844.075
41.140	25.182	1040.906	843.503
42.155	24.777	1039.530	840.412
43.169	24.550	1038.206	838.199
44.184	24.573	1037.315	837.515
45.199	24.657	1036.313	837.026
46.213	24.536	1035.395	835.641
47.228	24.433	1034.447	834.321
48.242	24.687	1033.704	834.837
49.257	24.859	1033.218	835.174
50.271	24.792	1032.193	833.956
51.286	25.089	1031.776	834.932
52.301	25.025	1030.921	833.868
53.315	25.064	1030.275	833.451
54.330	24.891	1029.758	832.157
55.344	24.888	1028.758	831.260
56.359	24.890	1028.028	830.606
57.374	24.847	1027.168	829.640
58.388	24.550	1026.232	827.433
59.403	24.646	1025.342	827.087
60.417	24.620	1024.999	826.618
61.432	24.463	1023.837	824.880
62.447	24.627	1023.191	825.046
63.461	24.700	1022.433	824.699
64.476	24.824	1021.460	824.412
65.490	24.693	1020.634	823.068
66.505	24.601	1019.832	821.927
67.520	24.543	1019.378	821.220
68.534	24.667	1018.848	821.292
69.549	24.493	1017.964	819.706
70.563	24.194	1016.701	817.243
71.578	24.174	1015.782	816.344
72.593	24.165	1014.996	815.595
73.607	24.092	1013.752	814.192
74.622	24.094	1012.639	813.233
75.636	24.354	1012.386	814.148
76.651	24.470	1011.927	814.237
77.666	24.223	1011.351	812.572
78.680	24.159	1009.901	811.044
79.695	24.381	1009.363	811.553
80.709	24.526	1008.746	811.643
81.724	24.461	1008.308	810.923
82.739	24.515	1007.547	810.484
83.753	24.462	1007.004	809.735
84.768	24.816	1005.970	810.435
85.782	25.157	1005.336	811.397
86.797	25.262	1004.941	811.480
87.812	25.200	1004.003	810.371
88.826	25.072	1003.370	809.209
89.841	25.047	1002.409	808.250
90.855	25.115	1001.632	807.862
91.870	25.210	1000.536	807.332
92.884	25.124	999.997	806.440
93.899	25.019	999.299	805.331
94.914	24.915	997.903	803.671
95.928	25.008	997.770	803.910
96.943	25.061	996.864	803.346
97.957	24.814	995.357	800.954
98.972	24.626	994.478	799.334
99.987	24.435	993.757	797.831
101.001	24.595	992.737	797.655
102.016	24.864	992.129	798.298
103.030	24.851	991.629	797.768
104.045	24.734	990.462	796.235
105.060	24.693	989.756	795.416
106.074	24.477	988.634	793.483
107.089	24.579	987.644	793.073
108.103	24.782	987.269	793.601
109.118	24.968	986.312	793.584
110.133	24.727	984.855	791.279
111.147	24.698	983.661	790.120
112.162	24.479	982.729	788.333
113.176	24.179	981.869	786.251
114.191	24.428	981.180	786.728
115.206	24.562	980.468	786.675
116.220	24.333	978.980	784.409
117.235	24.178	977.888	782.781
118.249	24.301	977.544	782.978
119.264	24.294	977.201	782.603
120.279	24.155	975.585	780.630
121.293	24.248	975.003	780.504
122.308	24.346	974.371	780.355
123.322	24.397	973.294	779.646
124.337	24.232	972.721	778.401
125.352	24.165	971.322	776.917
126.366	23.756	969.699	773.771
127.381	23.477	968.131	771.237
128.395	23.916	968.299	773.213
129.410	24.743	967.779	776.318
130.424	24.766	967.349	776.006
131.439	24.839	966.481	775.558
132.454	24.717	965.288	774.004
133.468	24.694	964.898	773.521
134.483	24.815	963.694	773.012
135.497	24.705	963.473	772.292
136.512	24.996	962.514	772.709
137.527	25.022	962.093	772.416
138.541	24.954	961.204	771.342
139.556	24.979	960.439	770.765
140.570	24.951	959.908	770.152
141.585	25.079	958.637	769.614
142.600	25.005	958.531	769.142
143.614	24.950	957.013	767.620
144.629	25.148	956.232	767.773
145.643	25.212	956.052	767.834
146.658	25.238	954.811	766.881
147.673	25.031	953.820	765.133
148.687	25.093	952.474	764.249
149.702	24.851	951.850	762.652
150.716	24.846	950.346	761.360
151.731	24.802	949.279	760.248
152.746	24.955	949.210	760.778
153.760	25.057	948.533	760.601
154.775	25.069	947.587	759.822
155.789	25.235	946.659	759.715
156.804	25.215	945.850	758.915
157.819	25.095	944.982	757.644
158.833	25.243	943.799	757.255
159.848	25.402	943.189	757.368
160.862	25.225	943.208	756.569
161.877	25.221	941.950	755.477
162.892	25.104	941.142	754.269
163.906	25.215	940.225	753.933
164.921	25.266	939.271	753.315
165.935	25.254	938.024	752.198
166.950	25.225	936.909	751.118
167.964	25.126	936.388	750.221
168.979	25.117	935.365	749.297
169.994	25.026	934.589	748.228
171.008	24.894	933.530	746.762
172.023	24.956	932.718	746.304
173.037	25.241	931.938	746.802
174.052	25.157	930.434	745.180
175.067	24.943	929.477	743.462
176.081	24.849	928.958	742.591
177.096	24.934	928.324	742.370
178.110	24.992	926.955	741.449
179.125	24.763	926.257	739.877
180.140	24.547	924.902	737.840
181.154	24.556	924.532	737.517
182.169	24.702	924.112	737.719
183.183	24.891	923.751	738.144
184.198	25.096	923.901	739.045
185.213	25.141	922.870	738.338
186.227	24.956	922.205	736.980
187.242	25.086	922.155	737.410
188.256	25.199	921.370	737.182
189.271	25.201	920.147	736.143
190.286	25.237	919.618	735.805
191.300	25.198	918.306	734.530
192.315	24.549	916.914	730.699
193.329	23.818	915.364	726.410
194.344	23.425	914.433	724.004
195.359	23.870	915.363	726.496
196.373	24.945	914.901	730.450
197.388	25.104	914.824	730.972
198.402	25.089	913.867	730.081
199.417	25.078	913.276	729.502
200.432	25.067	913.190	729.323
201.446	24.860	912.656	727.991
202.461	24.595	911.920	726.262
203.475	24.757	910.878	726.025
204.490	24.323	909.287	722.932
205.504	23.112	907.704	716.708
206.519	23.446	907.688	717.984
207.534	24.453	908.239	722.435
208.548	24.621	907.620	722.560
209.563	24.936	907.131	723.378
210.577	25.085	906.019	723.028
211.592	24.946	905.118	721.687
212.607	25.090	905.580	722.572
213.621	25.311	904.915	722.867
214.636	25.127	904.271	721.546
215.650	25.306	903.383	721.493
216.665	25.110	903.392	720.651
217.680	25.205	902.767	720.469
218.694	25.265	902.307	720.277
219.709	24.994	901.376	718.384
220.723	24.585	900.232	715.772
221.738	24.914	899.931	716.787
222.753	25.072	899.056	716.656
223.767	24.994	898.215	715.614
224.782	25.053	897.665	715.345
225.796	25.285	897.122	715.776
226.811	25.444	896.737	716.038
227.826	24.858	895.303	712.500
228.840	24.103	894.337	708.664
229.855	24.076	893.354	707.714
230.869	24.446	892.921	708.780
231.884	24.046	891.967	706.370
232.899	24.074	891.399	705.970
233.913	24.885	891.916	709.532
234.928	25.081	891.058	709.564
235.942	24.799	891.197	708.493
236.957	24.990	889.947	708.193
237.972	24.569	889.413	706.043
238.986	24.574	888.299	705.116
240.001	24.736	887.854	705.338
241.015	24.766	887.074	704.776
242.030	24.832	886.365	704.407
243.045	24.829	886.516	704.454
244.059	24.965	885.768	704.331
245.074	25.101	885.256	704.400
246.088	25.083	884.682	703.807
247.103	24.739	883.696	701.613
248.117	24.807	883.040	701.297
249.132	25.252	883.269	703.160
250.147	25.503	883.165	703.999
251.161	25.875	882.324	704.721
252.176	25.921	881.872	704.477
253.190	25.882	881.261	703.776
254.205	25.719	880.844	702.742
255.220	26.053	880.755	703.913
256.234	26.039	879.750	702.992
257.249	25.862	879.198	701.800
258.263	25.853	878.438	701.097
259.278	25.772	877.997	700.368
260.293	25.917	877.097	700.151
261.307	26.011	876.969	700.353
262.322	25.782	876.431	698.971
263.336	25.786	875.550	698.224
264.351	25.475	874.089	695.791
265.366	24.360	872.099	689.837
266.380	23.881	871.093	687.131
267.395	24.730	871.861	690.958
268.409	25.685	871.147	694.016
269.424	25.533	870.983	693.235
270.439	25.508	870.838	692.962
271.453	25.748	869.735	692.947
272.468	25.866	869.291	692.987
273.482	25.847	869.025	692.642
274.497	25.933	868.938	692.839
275.512	25.916	867.710	691.733
276.526	25.271	866.190	687.991
277.541	25.573	865.885	688.842
278.555	25.803	865.951	689.718
279.570	25.546	865.057	687.962
280.585	25.264	864.587	686.445
281.599	25.477	863.700	686.494
282.614	25.640	863.474	686.876
283.628	25.344	861.836	684.384
284.643	24.837	861.760	682.333
285.657	25.332	861.346	683.829
286.672	25.224	860.475	682.666
287.687	24.733	859.531	679.992
288.701	25.003	859.542	680.964
289.716	25.328	859.537	682.136
290.730	25.011	858.422	679.988
291.745	24.912	857.509	678.829
292.760	24.717	856.942	677.582
293.774	24.615	856.350	676.669
294.789	25.682	856.575	680.826
295.803	26.309	856.696	683.232
296.818	26.182	856.641	682.646
297.833	26.372	855.788	682.626
298.847	26.022	854.832	680.481
299.862	25.743	853.742	678.503
300.876	25.720	853.751	678.364
301.891	26.060	853.374	679.283
302.906	26.380	852.205	679.495
303.920	25.933	851.298	677.034
304.935	25.807	850.883	676.169
305.949	26.244	850.537	677.476
306.964	26.333	849.962	677.291
307.979	25.932	849.742	675.553
308.993	25.896	849.119	674.863
310.008	26.208	848.792	675.710
311.022	26.407	848.334	676.031
312.037	26.260	847.670	674.895
313.052	25.962	847.337	673.454
314.066	25.646	846.704	671.713
315.081	25.375	844.397	668.813
316.095	24.511	843.573	664.886
317.110	25.068	843.594	666.918
318.125	25.764	844.226	669.950
319.139	25.468	843.008	667.825
320.154	24.260	841.336	661.956
321.168	23.700	840.365	659.057
322.183	24.498	840.763	662.273
323.197	25.542	840.709	666.040
324.212	25.833	840.218	666.670
325.227	25.969	840.202	667.103
326.241	25.961	840.220	667.028
327.256	25.989	839.104	666.185
328.270	25.701	838.697	664.739
329.285	25.784	838.069	664.489
330.300	25.560	837.501	663.153
331.314	25.266	836.865	661.509
332.329	25.473	835.838	661.402
333.343	25.952	835.704	662.997
334.358	26.027	835.252	662.855
335.373	26.264	834.621	663.168
336.387	26.148	834.124	662.289
337.402	26.607	833.684	663.564
338.416	26.541	833.474	663.096
339.431	26.479	832.788	662.262
340.446	26.651	832.212	662.376
341.460	26.678	832.037	662.275
342.475	26.733	830.923	661.531
343.489	26.610	830.277	660.510
344.504	26.574	829.844	659.978
345.519	26.630	829.597	659.924
346.533	26.954	829.658	661.098
347.548	27.087	829.222	661.174
348.562	27.139	828.190	660.480
349.577	27.112	827.792	660.007
350.592	26.996	827.298	659.133
351.606	27.044	826.698	658.771
352.621	26.781	826.496	657.599
353.635	26.686	826.337	657.070
354.650	26.541	825.765	656.032
355.665	26.451	824.309	654.490
356.679	25.153	822.900	648.623
357.694	25.182	822.164	648.089
358.708	25.840	822.531	650.700
359.723	25.872	821.468	649.918
360.738	26.117	821.471	650.746
361.752	26.381	821.567	651.715
362.767	26.536	821.320	652.020
363.781	27.019	820.736	653.238
364.796	27.239	820.508	653.789
365.810	27.208	820.238	653.402
366.825	27.283	819.657	653.154
367.840	27.394	819.936	653.717
368.854	27.230	818.769	652.138
369.869	26.733	818.204	649.851
370.883	26.589	817.128	648.422
371.898	26.792	816.850	648.872
372.913	26.750	815.653	647.713
373.927	26.693	815.337	647.200
374.942	26.865	814.943	647.444
375.956	26.959	814.495	647.366
376.971	26.992	813.860	646.923
377.986	27.060	813.818	647.076
379.000	27.180	813.306	647.038
380.015	27.223	812.926	646.832
381.029	27.206	811.922	645.914
382.044	27.096	811.314	644.984
383.059	27.143	810.663	644.574
384.073	27.127	810.677	644.470
385.088	27.408	809.848	644.753
386.102	27.333	809.312	644.004
387.117	27.050	809.040	642.728
388.132	26.887	808.438	641.616
389.146	26.679	807.723	640.256
390.161	26.270	806.515	637.800
391.175	26.288	806.177	637.540
392.190	26.834	806.538	639.693
393.205	26.856	805.846	639.166
394.219	25.926	804.005	634.377
395.234	24.164	801.925	626.489
396.248	23.460	800.718	623.019
397.263	24.588	801.713	627.705
398.278	26.407	802.936	635.001
399.292	26.851	802.682	636.300
400.307	26.600	801.708	634.594
401.321	26.424	801.853	634.034
402.336	26.707	801.552	634.731
403.350	26.940	800.981	635.039
404.365	27.254	801.415	636.427
405.380	27.556	801.111	637.185
406.394	27.855	801.101	638.168
407.409	27.993	800.825	638.371
408.423	27.924	799.985	637.403
409.438	27.990	799.413	637.123
410.453	28.065	798.574	636.657
411.467	27.976	798.212	636.004
412.482	28.067	797.680	635.842
413.496	27.902	797.484	635.054
414.511	27.923	797.137	634.795
415.526	28.082	796.863	635.072
416.540	27.909	796.142	633.840
417.555	27.961	795.502	633.458
418.569	27.637	795.042	631.910
419.584	27.472	794.700	631.012
420.599	27.569	794.099	630.813
421.613	109.379	1281.152	1448.283
422.628	94.154	1352.141	1448.385
