DTS Sentinel unit serial number:	SN413079Multiplexer serial number:	ORYXHardware model number:	OX4-SRSoftware version number:	ORYX F/W v4.00 Oryx Data Collector v3.7.2.0data status	okinstallation	princeton_trtdifferential loss correction	single-endedforward channel	channel 3reverse channel	N/Adate	2019/09/10time	21:46:10forward acquisition time	60.00reverse acquisition time	0.00gamma	496.2192k internal	0.2330k external	0.2330temperature offset calibration	0.9918default loss term (dB/km)	0.3790temperature slope calibration	1.0000multiplexer offset coefficient	1.0000multiplexer slope coefficient	1.0000fibre end	0.00T internal ref (°C)	30.91T ext. ref 1 (°C)	-0.30T ext. ref 2 (°C)	24.17length (m)	temperature (°C)	Stokes	anti-Stokes-747.200	511.779	-0.129	0.301
-746.185	-128.141	-0.309	0.045
-745.171	-92.720	0.302	0.085
-744.156	722.181	-0.036	0.096
-743.142	88.775	0.221	-0.247
-742.127	-200.000	0.048	0.263
-741.112	-141.272	0.174	-0.018
-740.098	800.000	0.042	-0.121
-739.083	-34.622	0.209	-0.115
-738.069	162.092	-0.187	0.264
-737.054	691.447	0.149	-0.392
-736.039	-126.846	-0.439	-0.065
-735.025	-99.409	0.349	-0.088
-734.010	-122.243	0.315	0.052
-732.996	-178.665	-0.122	0.003
-731.981	211.054	-0.088	0.140
-730.966	-160.352	-0.183	-0.010
-729.952	800.000	-0.090	-0.258
-728.937	-167.768	-0.086	-0.003
-727.923	49.904	0.182	-0.173
-726.908	179.986	-0.096	-0.142
-725.894	124.940	0.170	0.215
-724.879	-200.000	-0.013	-0.219
-723.864	224.138	-0.072	-0.117
-722.850	16.284	-0.149	-0.118
-721.835	-200.000	-0.008	0.050
-720.821	510.964	-0.124	0.290
-719.806	31.090	0.078	0.067
-718.791	-111.537	-0.121	-0.025
-717.777	-66.807	0.157	0.062
-716.762	-200.000	-0.074	-0.475
-715.748	-83.033	0.116	-0.038
-714.733	433.188	0.067	0.147
-713.718	725.396	0.035	0.095
-712.704	-133.499	-0.199	0.025
-711.689	-11.341	0.111	-0.074
-710.675	-3.794	0.100	-0.070
-709.660	68.837	0.139	-0.144
-708.645	-61.448	0.081	0.034
-707.631	-200.000	-0.015	0.230
-706.616	-200.000	0.002	-0.090
-705.602	-169.810	-0.340	-0.012
-704.587	-200.000	-0.020	-0.141
-703.572	-200.000	0.020	0.233
-702.558	-147.146	0.370	-0.032
-701.543	163.418	-0.158	0.223
-700.529	-83.904	-0.187	0.060
-699.514	18.051	0.127	-0.101
-698.499	-13.468	-0.190	0.124
-697.485	478.269	0.103	0.233
-696.470	800.000	0.041	-0.138
-695.456	-200.000	-0.017	-0.214
-694.441	-80.806	-0.059	-0.020
-693.426	399.059	-0.140	0.295
-692.412	-55.396	0.149	0.067
-691.397	32.991	-0.189	-0.164
-690.383	800.000	0.064	0.219
-689.368	753.261	-0.063	0.172
-688.354	-200.000	-0.004	0.021
-687.339	-7.082	-0.014	0.009
-686.324	-95.605	-0.223	-0.060
-685.310	800.000	0.026	-0.106
-684.295	-51.958	-0.179	0.083
-683.281	92.470	-0.150	-0.170
-682.266	-200.000	0.006	0.068
-681.251	484.493	0.026	0.058
-680.237	-106.408	0.224	0.050
-679.222	800.000	-0.065	-0.203
-678.208	-200.000	-0.043	-0.305
-677.193	107.579	-0.102	-0.122
-676.178	274.287	-0.240	-0.427
-675.164	15.971	0.219	0.173
-674.149	-200.000	-0.129	-0.000
-673.135	-200.000	-0.033	0.214
-672.120	-200.000	0.024	-0.336
-671.105	467.010	-0.157	-0.354
-670.091	-60.624	-0.328	0.140
-669.076	-200.000	-0.029	-0.351
-668.062	800.000	0.068	0.228
-667.047	-23.356	0.198	0.119
-666.032	-48.123	-0.057	0.027
-665.018	-200.000	-0.016	0.088
-664.003	-37.772	0.016	0.009
-662.989	326.356	-0.097	0.187
-661.974	309.899	0.197	-0.371
-660.959	11.797	0.119	0.091
-659.945	252.759	0.084	0.144
-658.930	800.000	0.089	-0.282
-657.916	-30.833	-0.114	-0.065
-656.901	-75.959	0.246	-0.087
-655.886	-25.532	-0.416	-0.246
-654.872	89.877	-0.049	-0.055
-653.857	51.811	-0.058	-0.055
-652.843	-88.816	0.327	0.097
-651.828	800.000	0.052	-0.189
-650.814	115.764	0.377	-0.463
-649.799	101.251	0.247	-0.288
-648.784	67.500	-0.132	0.135
-647.770	126.249	-0.052	0.065
-646.755	-200.000	0.012	-0.153
-645.741	405.990	0.092	-0.194
-644.726	-50.215	0.264	-0.125
-643.711	255.845	0.131	0.226
-642.697	-137.626	0.305	-0.034
-641.682	800.000	-0.020	-0.075
-640.668	800.000	0.045	0.176
-639.653	148.693	0.019	0.025
-638.638	439.595	0.145	-0.318
-637.624	146.856	-0.167	0.225
-636.609	-139.046	-0.110	-0.012
-635.595	-143.677	-0.200	0.019
-634.580	-41.222	-0.265	-0.137
-633.565	549.591	-0.119	-0.285
-632.551	682.419	-0.044	0.115
-631.536	-200.000	0.012	0.356
-630.522	14.325	0.104	-0.082
-629.507	-3.591	-0.404	-0.282
-628.492	-200.000	-0.025	0.158
-627.478	-200.000	-0.076	0.368
-626.463	-10.202	0.127	0.085
-625.449	511.133	0.072	-0.169
-624.434	-94.236	-0.370	-0.102
-623.419	-11.535	-0.039	0.026
-622.405	-54.907	0.081	-0.037
-621.390	-5.602	-0.058	0.040
-620.376	-24.674	-0.287	0.171
-619.361	97.942	-0.154	-0.177
-618.346	110.133	-0.150	-0.180
-617.332	47.935	-0.059	-0.055
-616.317	40.298	0.084	-0.075
-615.303	-139.063	0.096	-0.010
-614.288	129.877	-0.017	-0.022
-613.273	-44.272	-0.257	0.129
-612.259	121.536	0.154	0.192
-611.244	26.942	-0.125	-0.105
-610.230	-200.000	-0.030	0.421
-609.215	-40.483	0.116	-0.061
-608.201	452.376	-0.171	0.380
-607.186	-118.313	0.099	-0.018
-606.171	-116.741	0.218	0.040
-605.157	319.917	0.085	-0.161
-604.142	-77.697	0.068	-0.024
-603.128	-61.849	-0.228	0.096
-602.113	473.141	-0.136	-0.306
-601.098	800.000	0.072	-0.278
-600.084	108.565	0.117	-0.140
-599.069	591.157	0.074	-0.183
-598.055	-200.000	0.096	-0.468
-597.040	205.507	0.228	-0.354
-596.025	-11.662	0.100	0.066
-595.011	800.000	-0.061	0.182
-593.996	138.809	-0.181	0.239
-592.982	-39.710	-0.434	-0.227
-591.967	-135.424	-0.268	-0.032
-590.952	-200.000	-0.001	-0.161
-589.938	-200.000	-0.004	0.274
-588.923	-131.282	-0.179	-0.024
-587.909	-99.854	-0.251	-0.063
-586.894	494.546	0.163	-0.374
-585.879	-40.484	0.126	-0.065
-584.865	551.632	0.059	0.141
-583.850	237.294	-0.063	-0.105
-582.836	-54.215	0.120	0.054
-581.821	-200.000	-0.054	-0.434
-580.806	-73.625	0.194	-0.071
-579.792	-156.172	0.284	-0.018
-578.777	287.689	-0.069	-0.124
-577.763	-184.535	-0.376	0.006
-576.748	-200.000	0.072	0.445
-575.733	-66.530	0.201	-0.080
-574.719	151.053	-0.032	-0.044
-573.704	541.038	-0.083	0.197
-572.690	-78.787	-0.326	0.111
-571.675	-200.000	-0.018	-0.498
-570.661	178.121	-0.092	-0.135
-569.646	-52.521	-0.162	0.075
-568.631	-115.511	0.583	-0.110
-567.617	66.858	-0.217	0.221
-566.602	-111.317	0.225	-0.046
-565.588	116.526	0.080	-0.098
-564.573	-116.714	-0.242	0.044
-563.558	51.709	-0.087	-0.083
-562.544	-200.000	-0.024	0.282
-561.529	800.000	0.018	-0.052
-560.515	401.318	0.072	0.151
-559.500	-86.305	-0.305	-0.094
-558.485	-103.921	-0.028	0.007
-557.471	-137.748	-0.089	0.010
-556.456	26.948	0.065	-0.055
-555.442	-92.927	0.228	0.063
-554.427	19.308	-0.098	0.079
-553.412	7.417	0.165	0.123
-552.398	748.235	0.068	0.183
-551.383	369.399	0.197	0.398
-550.369	-200.000	-0.032	-0.273
-549.354	72.401	0.091	-0.095
-548.339	48.202	-0.238	0.222
-547.325	251.486	0.105	-0.179
-546.310	-182.074	0.331	-0.006
-545.296	-116.433	0.269	-0.050
-544.281	-152.855	-0.574	0.041
-543.266	800.000	0.045	0.160
-542.252	800.000	-0.078	-0.308
-541.237	-59.096	0.233	-0.100
-540.223	-200.000	-0.000	-0.068
-539.208	-53.015	-0.246	-0.113
-538.193	254.416	0.109	-0.187
-537.179	54.122	-0.115	0.111
-536.164	-47.959	0.218	-0.105
-535.150	-200.000	0.005	-0.121
-534.135	129.133	0.266	-0.338
-533.121	800.000	0.126	-0.383
-532.106	-79.541	0.070	-0.024
-531.091	191.078	-0.077	0.115
-530.077	305.823	0.256	-0.475
-529.062	-123.520	0.110	-0.017
-528.048	-49.588	-0.062	-0.029
-527.033	17.750	0.138	-0.109
-526.018	800.000	0.032	-0.103
-525.004	-120.578	-0.200	-0.034
-523.989	-63.875	-0.274	-0.112
-522.975	95.625	0.103	-0.117
-521.960	-3.558	-0.158	0.110
-520.945	15.636	0.221	-0.173
-519.931	-91.908	-0.226	0.064
-518.916	-57.299	0.212	-0.093
-517.902	-143.745	-0.144	0.014
-516.887	-200.000	-0.063	-0.290
-515.872	37.559	-0.203	0.179
-514.858	-146.377	-0.236	0.021
-513.843	-169.316	0.085	-0.003
-512.829	-200.000	0.079	-0.404
-511.814	-63.492	0.279	-0.114
-510.799	100.482	0.138	0.160
-509.785	-69.002	0.260	0.100
-508.770	32.971	0.079	-0.068
-507.756	679.663	-0.084	-0.219
-506.741	-140.027	0.066	0.007
-505.726	-77.968	0.059	0.020
-504.712	800.000	-0.097	0.287
-503.697	-163.224	-0.040	0.002
-502.683	726.230	-0.084	-0.223
-501.668	-132.109	-0.564	-0.073
-500.653	-71.212	0.210	0.078
-499.639	577.558	0.142	0.346
-498.624	-66.188	-0.174	0.069
-497.610	800.000	-0.116	-0.362
-496.595	-71.229	0.293	0.109
-495.581	800.000	0.088	0.383
-494.566	-64.843	0.127	0.051
-493.551	-200.000	-0.006	-0.289
-492.537	36.823	0.338	0.298
-491.522	132.342	-0.130	0.167
-490.508	-200.000	0.001	0.080
-489.493	231.304	0.128	-0.209
-488.478	166.036	-0.142	0.200
-487.464	219.310	-0.212	-0.338
-486.449	-53.977	0.532	-0.242
-485.435	51.093	0.131	0.124
-484.420	-89.780	0.212	-0.062
-483.405	39.106	-0.031	0.027
-482.391	393.305	0.135	0.280
-481.376	40.223	0.222	0.199
-480.362	3.309	-0.002	0.001
-479.347	-200.000	-0.062	-0.352
-478.332	-82.240	0.135	0.044
-477.318	800.000	-0.057	0.222
-476.303	620.927	-0.015	0.037
-475.289	-27.669	0.136	-0.079
-474.274	65.571	-0.161	0.162
-473.259	-200.000	0.046	0.229
-472.245	17.559	-0.439	-0.348
-471.230	-200.000	0.048	0.272
-470.216	161.769	0.075	-0.105
-469.201	-186.749	0.541	-0.008
-468.186	188.209	-0.080	-0.119
-467.172	39.991	-0.105	-0.094
-466.157	74.056	-0.165	-0.172
-465.143	-45.339	-0.122	0.060
-464.128	9.333	-0.153	-0.115
-463.113	-51.217	0.054	-0.025
-462.099	-200.000	0.037	0.235
-461.084	-44.015	-0.087	0.044
-460.070	800.000	-0.110	-0.338
-459.055	-124.350	-0.210	0.033
-458.040	192.287	0.115	-0.172
-457.026	126.175	-0.423	0.532
-456.011	-200.000	-0.009	-0.310
-454.997	-200.000	0.039	-0.305
-453.982	569.680	-0.037	0.090
-452.968	-150.543	0.039	0.003
-451.953	-40.213	0.342	0.177
-450.938	-138.405	0.053	-0.006
-449.924	301.860	0.067	0.124
-448.909	605.085	0.050	-0.123
-447.895	43.669	-0.279	-0.254
-446.880	-109.555	-0.096	0.020
-445.865	-24.722	0.123	0.073
-444.851	800.000	0.062	0.264
-443.836	12.884	-0.168	-0.129
-442.822	-110.379	-0.260	0.054
-441.807	151.299	0.077	0.104
-440.792	63.049	0.271	0.270
-439.778	-200.000	0.000	-0.098
-438.763	12.881	0.189	-0.145
-437.749	-136.875	0.209	-0.024
-436.734	-102.406	-0.340	0.081
-435.719	-139.301	-0.532	0.057
-434.705	181.288	-0.025	0.037
-433.690	-101.247	-0.219	0.053
-432.676	800.000	0.051	-0.164
-431.661	24.725	0.222	0.183
-430.646	71.723	0.095	0.098
-429.632	-200.000	0.021	0.114
-428.617	386.112	0.112	-0.231
-427.603	800.000	0.018	-0.075
-426.588	99.775	-0.223	0.257
-425.573	-59.339	-0.024	-0.010
-424.559	-114.141	-0.094	-0.018
-423.544	142.466	-0.151	0.200
-422.530	-63.380	-0.114	0.047
-421.515	72.132	-0.108	0.112
-420.500	-124.584	0.220	0.034
-419.486	186.678	-0.059	0.088
-418.471	178.788	-0.116	0.169
-417.457	-200.000	0.034	0.166
-416.442	-136.714	-0.564	-0.065
-415.428	204.200	0.201	0.310
-414.413	-117.210	-0.189	0.034
-413.398	-54.179	0.124	0.056
-412.384	-30.656	0.262	0.147
-411.369	123.036	0.147	0.182
-410.355	800.000	0.038	-0.136
-409.340	-151.116	-0.192	-0.014
-408.325	-112.345	-0.356	-0.071
-407.311	-55.848	-0.178	0.079
-406.296	-9.524	0.219	0.145
-405.282	-68.295	-0.278	-0.107
-404.267	58.958	-0.133	0.130
-403.252	87.519	0.065	-0.071
-402.238	-200.000	0.059	-0.000
-401.223	-85.152	0.193	-0.060
-400.209	147.414	0.217	-0.290
-399.194	47.598	0.192	0.178
-398.179	31.845	-0.269	0.230
-397.165	76.463	0.167	-0.176
-396.150	116.909	-0.089	0.108
-395.136	104.267	-0.106	0.124
-394.121	-132.425	0.193	0.025
-393.106	379.399	-0.042	-0.085
-392.092	-128.478	0.281	0.040
-391.077	509.425	0.057	0.133
-390.063	-33.951	-0.161	0.088
-389.048	-111.042	0.171	-0.035
-388.033	41.527	0.112	0.101
-387.019	-200.000	0.017	-0.122
-386.004	49.346	-0.214	0.200
-384.990	-127.973	0.273	0.039
-383.975	-200.000	-0.012	0.398
-382.960	800.000	0.084	0.340
-381.946	4.845	0.290	-0.212
-380.931	-55.782	-0.217	-0.096
-379.917	-10.676	0.084	0.055
-378.902	-132.597	-0.190	0.024
-377.888	-103.389	0.332	-0.078
-376.873	-200.000	-0.019	-0.102
-375.858	22.543	0.144	0.117
-374.844	86.945	0.222	0.243
-373.829	45.867	0.109	-0.100
-372.815	-77.718	-0.333	0.114
-371.800	327.717	0.097	-0.185
-370.785	49.677	0.037	0.035
-369.771	-34.640	0.162	0.088
-368.756	-14.846	-0.209	0.133
-367.742	800.000	0.043	-0.175
-366.727	-189.601	-0.231	-0.003
-365.712	-42.804	-0.201	-0.101
-364.698	-200.000	-0.003	-0.362
-363.683	-76.635	0.117	-0.041
-362.669	-53.233	-0.154	0.070
-361.654	-140.238	0.361	-0.038
-360.639	800.000	0.058	0.165
-359.625	279.249	0.072	-0.128
-358.610	8.852	-0.295	0.221
-357.596	-50.851	-0.212	-0.099
-356.581	110.615	-0.205	-0.245
-355.566	43.442	-0.208	0.189
-354.552	-200.000	0.035	-0.346
-353.537	54.860	-0.151	-0.144
-352.523	218.649	-0.098	-0.155
-351.508	4.278	0.173	0.126
-350.493	102.211	-0.154	0.179
-349.479	261.697	-0.167	0.287
-348.464	-50.092	-0.050	0.023
-347.450	704.072	0.077	0.201
-346.435	-85.232	-0.189	-0.059
-345.420	-31.921	0.175	-0.097
-344.406	-0.039	0.152	-0.107
-343.391	-200.000	-0.070	-0.316
-342.377	-130.507	0.142	-0.019
-341.362	-200.000	-0.013	0.117
-340.348	800.000	0.028	0.091
-339.333	390.647	0.142	0.293
-338.318	125.223	-0.143	-0.178
-337.304	800.000	0.078	-0.333
-336.289	-75.030	0.201	0.071
-335.275	-200.000	-0.101	0.000
-334.260	-200.000	-0.002	0.322
-333.245	800.000	0.060	0.167
-332.231	-128.803	0.168	0.023
-331.216	800.000	-0.048	0.154
-330.202	-111.666	0.091	-0.018
-329.187	165.477	-0.150	-0.210
-328.172	-200.000	0.044	-0.379
-327.158	-76.427	-0.235	0.082
-326.143	-109.695	-0.296	-0.062
-325.129	800.000	-0.068	-0.201
-324.114	451.216	-0.037	-0.081
-323.099	-90.669	0.345	-0.099
-322.085	-46.996	-0.287	0.139
-321.070	-67.122	-0.086	0.034
-320.056	75.876	-0.130	-0.136
-319.041	-155.354	-0.224	-0.014
-318.026	-28.468	0.029	-0.016
-317.012	-95.740	-0.171	-0.045
-315.997	-200.000	-0.007	0.122
-314.983	104.760	0.199	0.233
-313.968	176.906	-0.140	0.202
-312.953	22.195	-0.059	0.048
-311.939	792.471	0.105	0.287
-310.924	216.582	-0.145	-0.229
-309.910	183.402	-0.053	0.078
-308.895	-200.000	-0.077	-0.390
-307.880	-98.400	0.233	-0.059
-306.866	193.901	0.093	-0.139
-305.851	326.251	0.092	-0.174
-304.837	-99.810	-0.089	-0.022
-303.822	-200.000	-0.025	0.271
-302.807	-198.048	-0.152	0.001
-301.793	-200.000	0.015	0.089
-300.778	-88.075	-0.124	0.037
-299.764	-122.357	0.139	0.022
-298.749	42.858	0.117	-0.105
-297.735	-100.828	-0.234	-0.057
-296.720	-200.000	-0.003	-0.295
-295.705	385.675	0.094	-0.191
-294.691	103.583	0.269	-0.312
-293.676	-119.751	0.253	-0.043
-292.662	-200.000	0.003	-0.134
-291.647	-51.124	-0.227	-0.105
-290.632	-47.877	0.058	-0.028
-289.618	14.743	0.085	-0.066
-288.603	55.725	-0.102	0.098
-287.589	-171.721	-0.087	0.003
-286.574	-26.317	0.254	0.147
-285.559	103.883	0.299	0.347
-284.545	191.056	0.069	0.103
-283.530	-20.338	0.317	0.193
-282.516	-111.331	-0.232	0.047
-281.501	-200.000	-0.009	0.115
-280.486	31.987	-0.094	-0.080
-279.472	584.571	-0.142	0.346
-278.457	-129.316	0.101	-0.014
-277.443	-72.890	0.187	-0.068
-276.428	800.000	-0.024	-0.065
-275.413	38.130	0.151	0.133
-274.399	319.308	-0.177	0.333
-273.384	-95.548	-0.203	-0.054
-272.370	-200.000	-0.102	0.478
-271.355	-200.000	0.012	-0.098
-270.340	112.469	0.034	-0.041
-269.326	244.465	0.194	0.322
-268.311	-167.974	-0.165	0.006
-267.297	-44.402	-0.175	0.087
-266.282	-200.000	0.033	0.145
-265.267	639.560	0.072	-0.182
-264.253	-63.920	0.146	-0.059
-263.238	527.743	-0.056	-0.129
-262.224	50.115	0.023	-0.022
-261.209	800.000	0.072	0.204
-260.195	51.901	0.238	0.224
-259.180	103.448	0.114	-0.132
-258.165	721.766	0.129	0.339
-257.151	800.000	0.077	0.286
-256.136	-92.106	0.307	0.086
-255.122	-200.000	-0.013	-0.163
-254.107	-96.009	-0.229	0.060
-253.092	-89.522	0.185	-0.054
-252.078	-200.000	-0.040	-0.209
-251.063	608.941	-0.051	0.126
-250.049	7.207	0.364	0.268
-249.034	166.008	-0.230	-0.321
-248.019	153.868	0.263	-0.356
-247.005	-88.009	-0.114	-0.034
-245.990	178.369	-0.109	0.157
-244.976	-69.477	0.152	-0.058
-243.961	-21.663	0.177	0.106
-242.946	-11.709	0.298	-0.193
-241.932	-41.971	-0.422	-0.214
-240.917	-11.346	0.375	0.244
-239.903	-85.162	0.146	-0.045
-238.888	-107.583	-0.157	-0.034
-237.873	-200.000	0.074	0.327
-236.859	3.359	-0.098	0.070
-235.844	677.341	0.094	-0.241
-234.830	-29.942	0.171	-0.096
-233.815	-125.699	-0.318	-0.047
-232.800	-62.646	-0.368	-0.151
-231.786	-8.579	0.266	-0.176
-230.771	-88.828	-0.276	-0.081
-229.757	-87.527	0.188	0.056
-228.742	-117.399	0.128	-0.023
-227.727	-64.953	-0.249	0.099
-226.713	-61.114	-0.298	0.124
-225.698	-200.000	0.001	0.288
-224.684	-175.016	-0.189	0.005
-223.669	-34.954	0.177	-0.095
-222.655	198.032	-0.051	0.077
-221.640	-92.580	0.220	0.061
-220.625	800.000	-0.046	0.139
-219.611	800.000	-0.086	0.276
-218.596	-130.316	-0.211	0.028
-217.582	-200.000	0.045	-0.257
-216.567	-147.187	-0.162	0.014
-215.552	84.532	-0.242	-0.261
-214.538	33.159	0.212	0.182
-213.523	-149.947	0.096	0.007
-212.509	-42.184	-0.218	-0.110
-211.494	83.920	-0.179	-0.193
-210.479	169.007	-0.091	-0.127
-209.465	800.000	-0.080	-0.311
-208.450	800.000	0.022	0.092
-207.436	-85.408	-0.106	-0.032
-206.421	-97.844	0.163	-0.042
-205.406	-46.414	0.176	0.085
-204.392	38.398	0.091	-0.080
-203.377	11.902	-0.208	0.157
-202.363	94.987	-0.067	-0.075
-201.348	44.084	0.152	0.137
-200.333	6.051	0.261	0.191
-199.319	-2.317	0.167	0.115
-198.304	420.382	-0.139	-0.294
-197.290	147.379	0.147	0.195
-196.275	800.000	-0.062	-0.180
-195.260	-200.000	0.014	0.389
-194.246	348.844	0.077	-0.150
-193.231	800.000	-0.111	-0.470
-192.217	111.508	0.114	-0.135
-191.202	137.201	-0.141	0.182
-190.187	267.409	-0.298	0.513
-189.173	6.738	-0.165	-0.121
-188.158	16.488	0.099	-0.077
-187.144	-200.000	0.020	0.441
-186.129	60.783	0.195	-0.190
-185.114	119.323	-0.105	-0.128
-184.100	1.142	0.082	0.058
-183.085	800.000	0.005	0.018
-182.071	-105.106	0.027	-0.006
-181.056	-103.126	-0.240	0.056
-180.042	53.002	0.039	0.037
-179.027	154.105	-0.154	0.208
-178.012	-122.829	-0.352	-0.056
-176.998	333.546	0.177	-0.337
-175.983	219.215	0.140	0.221
-174.969	234.852	-0.090	-0.146
-173.954	-200.000	-0.001	0.127
-172.939	-178.264	0.308	0.007
-171.925	274.997	0.138	0.240
-170.910	-141.806	-0.238	0.023
-169.896	-71.131	0.186	0.069
-168.881	800.000	0.071	0.247
-167.866	-15.105	-0.337	0.213
-166.852	-192.451	0.129	-0.001
-165.837	-83.043	-0.125	0.040
-164.823	-111.063	0.253	-0.051
-163.808	-107.353	-0.125	-0.027
-162.793	133.033	0.203	0.258
-161.779	-200.000	0.003	-0.019
-160.764	800.000	0.012	-0.035
-159.750	54.494	0.144	0.137
-158.735	-153.906	-0.026	0.002
-157.720	110.006	0.202	-0.239
-156.706	-132.783	0.067	-0.008
-155.691	60.747	0.257	-0.251
-154.677	-164.816	0.493	-0.022
-153.662	800.000	-0.054	-0.190
-152.647	-126.743	-0.236	0.034
-151.633	6.467	-0.160	-0.117
-150.618	-100.781	0.155	0.038
-149.604	-65.019	0.219	0.087
-148.589	306.324	0.110	0.202
-147.574	-200.000	0.030	0.235
-146.560	56.627	-0.140	-0.134
-145.545	-200.000	-0.021	-0.312
-144.531	-32.049	-0.244	-0.134
-143.516	-166.514	0.185	0.008
-142.502	800.000	0.084	-0.274
-141.487	-200.000	-0.089	0.459
-140.472	-80.067	-0.231	-0.076
-139.458	44.721	-0.330	0.298
-138.443	-200.000	-0.008	-0.132
-137.429	-6.842	-0.280	0.187
-136.414	-37.392	-0.028	0.015
-135.399	-200.000	0.033	0.198
-134.385	-200.000	-0.051	-0.254
-133.370	-3.385	0.130	-0.089
-132.356	-27.223	-0.361	0.207
-131.341	-200.000	-0.025	0.129
-130.326	307.384	-0.046	0.084
-129.312	-88.532	-0.090	-0.026
-128.297	23.242	-0.027	-0.022
-127.283	-200.000	-0.023	0.185
-126.268	199.676	0.063	0.095
-125.253	133.225	0.034	0.044
-124.239	90.083	0.078	0.085
-123.224	465.633	0.077	0.170
-122.210	-156.309	0.108	-0.007
-121.195	83.258	0.133	0.142
-120.180	-148.111	-0.313	-0.026
-119.166	-200.000	-0.010	0.178
-118.151	-2.449	0.039	-0.027
-117.137	-200.000	0.004	-0.129
-116.122	800.000	-0.068	-0.186
-115.107	-131.102	0.175	-0.023
-114.093	-200.000	0.010	-0.140
-113.078	180.364	-0.357	-0.514
-112.064	800.000	-0.040	0.116
-111.049	-200.000	-0.023	0.112
-110.034	800.000	0.102	-0.326
-109.020	-200.000	0.030	0.138
-108.005	-8.411	-0.119	-0.078
-106.991	500.245	0.091	0.207
-105.976	-95.673	0.150	-0.039
-104.962	-200.000	0.025	-0.143
-103.947	289.312	-0.123	0.219
-102.932	-156.395	0.271	0.017
-101.918	-149.727	-0.140	0.011
-100.903	244.854	-0.057	-0.094
-99.889	-69.104	-0.315	-0.119
-98.874	-200.000	-0.029	0.292
-97.859	-190.676	0.212	-0.002
-96.845	-80.362	-0.276	0.091
-95.830	-90.812	0.237	-0.067
-94.816	361.191	-0.178	-0.351
-93.801	-57.337	0.062	0.027
-92.786	124.393	0.208	-0.257
-91.772	-77.622	0.229	-0.078
-90.757	257.770	0.139	0.234
-89.743	53.947	-0.069	-0.066
-88.728	-54.285	-0.124	0.055
-87.713	182.774	-0.085	-0.123
-86.699	-200.000	-0.007	-0.097
-85.684	800.000	-0.028	0.114
-84.670	276.014	0.069	0.120
-83.655	190.102	0.108	0.159
-82.640	800.000	0.025	-0.076
-81.626	800.000	0.033	-0.143
-80.611	199.998	0.205	0.308
-79.597	563.689	-0.127	0.302
-78.582	-13.294	-0.140	0.089
-77.567	36.945	-0.193	0.168
-76.553	-57.375	0.237	-0.102
-75.538	-149.767	-0.387	-0.030
-74.524	366.139	-0.093	0.184
-73.509	-181.329	-0.330	0.006
-72.494	800.000	-0.111	0.370
-71.480	-13.947	-0.445	-0.282
-70.465	-56.959	-0.253	-0.109
-69.451	214.239	-0.087	0.135
-68.436	-200.000	-0.007	-0.107
-67.422	149.484	-0.068	-0.090
-66.407	-55.063	0.266	0.118
-65.392	374.478	-0.097	-0.194
-64.378	-37.898	-0.140	-0.073
-63.363	-104.252	0.318	-0.072
-62.349	243.235	-0.111	-0.182
-61.334	266.257	-0.816	-1.397
-60.319	-22.404	0.565	0.335
-59.305	800.000	-0.277	-1.182
-58.290	-200.000	0.188	1.246
-57.276	300.653	0.847	1.531
-56.261	-200.000	99.771	616.838
-55.246	558.081	1432.287	3386.016
-54.232	187.907	2626.806	3845.164
-53.217	116.209	2165.349	2599.716
-52.203	41.684	1696.022	1505.896
-51.188	34.179	1506.980	1287.474
-50.173	31.710	1480.089	1248.019
-49.159	52.629	1532.352	1434.389
-48.144	53.353	1550.269	1456.011
-47.130	34.386	1507.458	1289.078
-46.115	31.212	1493.176	1255.508
-45.100	30.908	1489.946	1250.700
-44.086	30.893	1487.916	1248.848
-43.071	30.909	1485.603	1246.963
-42.057	30.820	1484.089	1245.051
-41.042	31.041	1482.312	1244.986
-40.027	31.002	1480.743	1243.355
-39.013	30.965	1479.685	1242.174
-37.998	30.827	1478.328	1240.065
-36.984	30.851	1477.051	1239.107
-35.969	30.806	1475.556	1237.500
-34.954	30.872	1475.108	1237.514
-33.940	30.789	1473.960	1235.949
-32.925	30.913	1471.632	1234.774
-31.911	30.927	1470.772	1234.095
-30.896	30.962	1468.867	1232.680
-29.881	31.017	1467.790	1232.093
-28.867	31.044	1466.367	1231.022
-27.852	30.936	1465.036	1229.143
-26.838	30.995	1463.282	1228.013
-25.823	30.909	1462.361	1226.626
-24.809	30.901	1460.726	1225.153
-23.794	31.029	1458.679	1224.229
-22.779	30.914	1458.070	1222.916
-21.765	30.948	1457.286	1222.433
-20.750	31.033	1455.551	1221.485
-19.736	30.943	1455.022	1220.403
-18.721	30.907	1453.719	1219.029
-17.706	30.996	1452.231	1218.309
-16.692	30.888	1451.404	1216.861
-15.677	30.895	1450.278	1215.917
-14.663	30.850	1449.442	1214.873
-13.648	30.877	1448.482	1214.195
-12.633	30.963	1447.111	1213.558
-11.619	30.856	1446.813	1212.563
-10.604	30.896	1445.951	1212.055
-9.590	30.873	1445.151	1211.188
-8.575	30.868	1444.055	1210.189
-7.560	30.897	1443.382	1209.766
-6.546	30.866	1442.705	1208.947
-5.531	30.836	1441.791	1207.940
-4.517	30.887	1441.438	1207.926
-3.502	30.880	1439.871	1206.520
-2.487	30.818	1439.184	1205.493
-1.473	30.835	1438.188	1204.724
-0.458	30.826	1436.779	1203.434
0.556	28.517	1426.959	1191.951
1.571	25.437	1401.278	1150.707
2.586	21.930	1341.103	1079.656
3.600	20.291	1259.647	1004.508
4.615	19.200	1215.966	963.494
5.629	16.496	1161.528	905.809
6.644	7.970	1078.117	798.120
7.659	0.828	1037.842	733.687
8.673	-0.117	1031.922	724.882
9.688	-0.298	1029.358	722.146
10.702	-0.387	1027.123	720.087
11.717	-0.409	1025.464	718.755
12.731	2.666	1028.488	735.580
13.746	11.528	1040.515	786.978
14.761	18.172	1049.138	825.606
15.775	19.321	1049.745	831.558
16.790	19.244	1049.425	830.858
17.804	19.187	1048.457	829.743
18.819	18.871	1047.562	827.442
19.834	19.057	1046.852	827.704
20.848	19.070	1046.961	827.776
21.863	19.021	1046.162	826.837
22.877	19.069	1045.746	826.664
23.892	19.048	1045.075	825.963
24.907	18.921	1044.247	824.624
25.921	19.102	1043.289	824.664
26.936	19.141	1042.561	824.200
27.950	19.041	1041.636	822.917
28.965	18.965	1040.752	821.784
29.980	18.859	1038.916	819.757
30.994	18.881	1037.757	818.874
32.009	19.132	1036.570	819.059
33.023	19.094	1036.068	818.411
34.038	18.904	1034.661	816.323
35.053	18.920	1033.555	815.456
36.067	19.118	1033.282	816.104
37.082	19.080	1032.559	815.285
38.096	19.106	1032.201	815.052
39.111	19.238	1031.006	814.659
40.126	19.263	1030.257	814.113
41.140	19.296	1028.607	812.892
42.155	18.998	1027.711	810.710
43.169	18.757	1026.160	808.280
44.184	18.788	1025.013	807.448
45.199	18.818	1023.822	806.583
46.213	18.844	1022.761	805.796
47.228	18.702	1021.903	804.384
48.242	18.822	1021.025	804.182
49.257	18.933	1019.850	803.704
50.271	18.904	1019.298	803.066
51.286	18.981	1018.486	802.711
52.301	19.127	1017.381	802.452
53.315	19.026	1016.695	801.368
54.330	19.045	1015.772	800.657
55.344	19.023	1014.765	799.693
56.359	19.030	1014.315	799.298
57.374	19.134	1013.175	798.813
58.388	18.861	1012.112	796.638
59.403	18.969	1011.338	796.460
60.417	18.909	1010.631	795.553
61.432	18.791	1010.046	794.478
62.447	18.754	1009.422	793.744
63.461	19.076	1008.174	794.179
64.476	18.986	1007.544	793.199
65.490	19.117	1006.245	792.709
66.505	18.934	1005.576	791.268
67.520	18.780	1005.198	790.191
68.534	19.022	1003.922	790.234
69.549	18.840	1003.346	788.872
70.563	18.613	1001.671	786.444
71.578	18.550	1001.617	786.045
72.593	18.484	1000.540	784.829
73.607	18.523	999.322	783.982
74.622	18.429	998.958	783.198
75.636	18.614	998.088	783.289
76.651	18.815	997.318	783.535
77.666	18.743	995.882	782.009
78.680	18.667	995.037	780.929
79.695	18.758	994.272	780.674
80.709	18.730	994.505	780.661
81.724	18.787	993.537	780.090
82.739	18.797	992.076	778.919
83.753	18.863	991.491	778.690
84.768	18.973	991.340	779.000
85.782	19.075	990.512	778.745
86.797	19.439	989.534	779.549
87.812	19.195	988.830	777.828
88.826	19.221	987.225	776.613
89.841	19.124	986.873	775.831
90.855	19.268	986.031	775.745
91.870	19.302	985.224	775.198
92.884	19.289	983.803	773.950
93.899	19.322	983.206	773.560
94.914	19.152	982.222	771.955
95.928	19.194	982.109	771.987
96.943	19.356	980.650	771.496
97.957	18.902	979.882	768.797
98.972	18.901	978.306	767.486
99.987	18.547	977.613	765.296
101.001	18.655	976.868	765.127
102.016	19.004	976.627	766.425
103.030	19.182	975.368	766.161
104.045	19.051	974.091	764.506
105.060	18.702	972.834	761.904
106.074	18.711	971.695	760.983
107.089	18.730	971.275	760.673
108.103	19.105	970.882	761.960
109.118	19.231	969.709	761.525
110.133	18.828	969.102	759.200
111.147	18.888	968.075	758.596
112.162	18.957	966.692	757.747
113.176	18.649	965.529	755.415
114.191	18.694	964.673	754.875
115.206	18.959	963.555	755.096
116.220	18.574	962.615	752.608
117.235	18.432	961.433	750.992
118.249	18.606	960.870	751.250
119.264	18.698	959.420	750.449
120.279	18.495	959.176	749.304
121.293	18.584	958.516	749.115
122.308	18.807	957.281	749.054
123.322	18.712	956.810	748.203
124.337	18.803	955.616	747.601
125.352	18.549	954.105	745.247
126.366	18.271	952.231	742.513
127.381	17.999	951.120	740.403
128.395	18.437	950.813	741.997
129.410	18.927	950.306	743.657
130.424	19.151	949.454	743.888
131.439	19.191	948.124	742.956
132.454	19.040	947.033	741.384
133.468	19.042	946.278	740.737
134.483	18.896	945.569	739.486
135.497	19.123	944.577	739.619
136.512	19.353	944.316	740.337
137.527	19.262	943.490	739.236
138.541	19.229	942.813	738.500
139.556	19.256	942.092	737.984
140.570	19.314	940.826	737.176
141.585	19.228	940.008	736.100
142.600	19.300	939.516	735.958
143.614	19.221	938.554	734.801
144.629	19.269	937.975	734.490
145.643	19.638	936.664	734.966
146.658	19.345	935.826	733.001
147.673	19.269	934.613	731.662
148.687	19.301	933.484	730.849
149.702	19.123	932.617	729.350
150.716	19.134	931.251	728.263
151.731	19.186	930.403	727.758
152.746	19.145	930.088	727.272
153.760	19.405	929.244	727.648
154.775	19.567	928.276	727.505
155.789	19.444	927.629	726.415
156.804	19.489	926.533	725.683
157.819	19.395	924.999	724.024
158.833	19.433	924.723	723.903
159.848	19.481	923.952	723.436
160.862	19.533	923.157	722.968
161.877	19.284	922.290	721.184
162.892	19.291	921.475	720.509
163.906	19.483	920.749	720.683
164.921	19.455	919.916	719.847
165.935	19.388	918.784	718.620
166.950	19.342	918.046	717.788
167.964	19.454	917.032	717.395
168.979	19.355	915.901	716.040
169.994	19.328	914.857	715.045
171.008	19.293	913.801	714.011
172.023	19.321	913.009	713.447
173.037	19.586	911.923	713.633
174.052	19.209	910.835	711.159
175.067	19.111	909.784	709.872
176.081	19.135	909.183	709.440
177.096	19.363	908.230	709.570
178.110	19.345	907.647	708.978
179.125	19.040	906.597	706.844
180.140	18.843	905.465	705.089
181.154	18.866	904.655	704.491
182.169	18.988	904.064	704.469
183.183	19.093	904.258	704.988
184.198	19.300	903.750	705.378
185.213	19.380	902.623	704.762
186.227	19.372	901.986	704.168
187.242	19.432	901.714	704.137
188.256	19.551	900.322	703.476
189.271	19.401	899.784	702.381
190.286	19.481	899.106	702.114
191.300	19.240	898.540	700.631
192.315	19.068	896.936	698.621
193.329	18.292	895.407	694.220
194.344	17.923	894.714	692.128
195.359	18.612	894.809	694.931
196.373	19.264	894.788	697.492
197.388	19.462	894.242	697.806
198.402	19.313	893.810	696.806
199.417	19.265	892.857	695.809
200.432	19.292	892.480	695.562
201.446	19.168	891.649	694.353
202.461	18.768	891.072	692.230
203.475	18.651	890.737	691.436
204.490	18.401	889.003	689.025
205.504	17.409	887.207	683.588
206.519	17.962	887.210	685.750
207.534	18.780	887.347	689.079
208.548	18.973	886.557	689.177
209.563	19.338	886.335	690.405
210.577	19.331	885.622	689.762
211.592	19.026	884.873	687.897
212.607	19.443	884.644	689.325
213.621	19.363	884.314	688.687
214.636	19.354	883.275	687.782
215.650	19.434	882.702	687.595
216.665	19.656	881.770	687.689
217.680	19.564	881.451	687.013
218.694	19.525	880.998	686.447
219.709	19.181	880.279	684.459
220.723	18.767	879.012	681.769
221.738	19.084	878.543	682.602
222.753	19.330	878.233	683.277
223.767	19.441	876.933	682.644
224.782	19.490	875.981	682.038
225.796	19.435	875.845	681.654
226.811	19.508	875.424	681.551
227.826	19.162	874.154	679.138
228.840	18.522	872.280	675.102
229.855	18.414	871.789	674.240
230.869	18.762	871.153	675.054
231.884	18.386	870.459	672.982
232.899	18.466	870.310	673.123
233.913	19.146	870.343	675.755
234.928	19.522	869.375	676.418
235.942	19.310	869.093	675.310
236.957	19.388	868.266	674.913
237.972	19.074	867.304	672.878
238.986	19.103	866.205	672.077
240.001	19.132	865.880	671.879
241.015	19.173	865.528	671.705
242.030	19.293	864.821	671.566
243.045	19.427	864.242	671.580
244.059	19.375	863.781	670.959
245.074	19.549	863.226	671.145
246.088	19.546	862.603	670.592
247.103	18.986	861.559	667.544
248.117	19.021	861.016	667.203
249.132	19.514	860.689	668.801
250.147	19.945	860.400	670.183
251.161	20.015	859.332	669.566
252.176	20.108	859.121	669.702
253.190	20.060	858.638	669.079
254.205	19.985	858.137	668.340
255.220	20.245	857.759	668.990
256.234	20.234	857.123	668.394
257.249	20.001	856.801	667.183
258.263	20.080	855.264	666.232
259.278	19.997	854.888	665.560
260.293	20.215	854.298	665.882
261.307	20.099	853.935	665.091
262.322	20.060	853.192	664.304
263.336	19.816	852.561	662.821
264.351	19.466	850.911	660.141
265.366	18.330	848.915	654.194
266.380	17.914	847.774	651.673
267.395	18.977	848.434	656.181
268.409	19.757	848.613	659.233
269.424	19.675	848.150	658.503
270.439	19.906	847.713	658.985
271.453	19.899	846.804	658.196
272.468	20.092	845.892	658.159
273.482	20.277	845.287	658.334
274.497	20.361	845.169	658.504
275.512	19.988	843.973	656.098
276.526	19.471	842.905	653.255
277.541	19.759	842.090	653.652
278.555	20.012	842.006	654.487
279.570	19.851	840.936	652.991
280.585	19.587	840.348	651.481
281.599	19.672	840.271	651.684
282.614	19.948	839.492	652.060
283.628	19.412	838.670	649.346
284.643	19.047	837.610	647.096
285.657	19.657	837.370	649.145
286.672	19.475	836.580	647.796
287.687	19.118	835.715	645.727
288.701	19.358	836.128	646.891
289.716	19.854	834.969	647.792
290.730	19.464	834.247	645.715
291.745	19.183	833.901	644.339
292.760	19.097	832.542	642.912
293.774	19.002	832.190	642.229
294.789	19.903	832.641	645.885
295.803	20.385	832.304	647.364
296.818	20.455	831.929	647.276
297.833	20.579	831.837	647.610
298.847	20.356	830.279	645.510
299.862	20.213	829.055	643.968
300.876	20.181	829.136	643.857
301.891	20.378	828.689	644.182
302.906	20.538	827.753	643.992
303.920	20.128	826.781	641.662
304.935	19.867	826.204	640.193
305.949	20.305	825.498	641.204
306.964	20.411	825.301	641.386
307.979	20.216	824.771	640.200
308.993	20.193	824.419	639.786
310.008	20.590	823.746	640.668
311.022	20.703	823.456	640.804
312.037	20.525	822.829	639.605
313.052	20.288	822.136	638.137
314.066	20.291	821.356	637.485
315.081	19.581	820.430	634.103
316.095	18.928	819.019	630.563
317.110	19.523	818.967	632.648
318.125	20.143	819.131	634.992
319.139	19.787	818.331	633.011
320.154	18.888	816.723	628.425
321.168	18.677	815.345	626.541
322.183	19.002	815.984	628.163
323.197	19.726	816.419	631.086
324.212	20.148	815.667	631.989
325.227	20.177	815.853	632.184
326.241	20.377	815.084	632.258
327.256	20.213	814.678	631.289
328.270	20.327	813.877	631.029
329.285	20.182	813.293	629.996
330.300	20.063	812.358	628.781
331.314	19.941	811.793	627.846
332.329	19.894	811.073	627.065
333.343	20.124	810.403	627.324
334.358	20.342	810.499	628.133
335.373	20.423	809.805	627.828
336.387	20.417	809.398	627.435
337.402	20.674	808.734	627.795
338.416	21.007	808.163	628.496
339.431	20.707	807.475	626.825
340.446	20.724	807.395	626.767
341.460	20.936	806.856	627.056
342.475	20.862	806.063	626.119
343.489	20.836	804.938	625.099
344.504	20.707	804.732	624.417
345.519	20.864	804.342	624.626
346.533	21.008	804.069	624.873
347.548	21.065	803.492	624.572
348.562	21.167	803.119	624.594
349.577	21.075	803.035	624.145
350.592	21.029	802.815	623.753
351.606	21.164	801.480	623.143
352.621	21.175	801.175	622.889
353.635	21.162	800.515	622.275
354.650	20.849	800.345	620.970
355.665	20.726	799.085	619.501
356.679	19.699	797.777	614.783
357.694	19.613	797.219	613.991
358.708	20.149	797.031	615.697
359.723	20.194	796.387	615.304
360.738	20.400	796.338	615.941
361.752	20.667	796.457	616.928
362.767	20.718	796.051	616.739
363.781	21.234	795.318	617.944
364.796	21.326	795.116	618.055
365.810	21.579	794.500	618.415
366.825	21.447	794.304	617.742
367.840	21.464	794.380	617.808
368.854	21.286	793.574	616.499
369.869	20.965	792.529	614.501
370.883	20.870	791.915	613.636
371.898	20.940	791.688	613.651
372.913	20.792	790.796	612.386
373.927	20.806	789.991	611.758
374.942	20.850	789.894	611.783
375.956	21.023	789.260	611.844
376.971	21.147	788.621	611.729
377.986	21.223	788.068	611.511
379.000	21.369	787.726	611.703
380.015	21.451	786.973	611.352
381.029	21.309	786.757	610.632
382.044	21.239	786.119	609.838
383.059	21.425	785.873	610.243
384.073	21.431	785.212	609.699
385.088	21.391	785.103	609.421
386.102	21.342	784.121	608.433
387.117	21.516	783.385	608.412
388.132	21.276	782.963	607.198
389.146	21.137	782.386	606.214
390.161	20.732	781.556	604.113
391.175	20.615	781.003	603.225
392.190	20.973	781.501	604.796
393.205	21.040	780.444	604.158
394.219	20.239	779.217	600.385
395.234	18.836	776.675	593.530
396.248	18.206	775.655	590.524
397.263	19.405	776.379	595.161
398.278	20.986	777.734	601.609
399.292	21.336	777.666	602.708
400.307	21.164	776.993	601.542
401.321	20.996	776.336	600.400
402.336	20.911	776.556	600.226
403.350	21.357	776.271	601.487
404.365	21.570	776.317	602.203
405.380	21.792	775.908	602.596
406.394	22.031	775.290	602.883
407.409	22.185	775.009	603.139
408.423	22.164	774.535	602.645
409.438	22.049	773.853	601.669
410.453	22.068	772.979	600.998
411.467	22.264	773.073	601.690
412.482	22.091	772.596	600.675
413.496	22.051	772.010	600.029
414.511	22.080	771.944	600.024
415.526	22.172	771.501	599.941
416.540	22.005	771.273	599.140
417.555	22.046	770.366	598.522
418.569	21.804	769.648	597.088
419.584	21.792	769.055	596.534
420.599	21.853	768.707	596.418
421.613	158.596	1360.653	1798.331
422.628	136.735	1446.891	1798.449
