DTS Sentinel unit serial number:	SN413079Multiplexer serial number:	ORYXHardware model number:	OX4-SRSoftware version number:	ORYX F/W v4.00 Oryx Data Collector v3.7.2.0data status	okinstallation	princeton_trtdifferential loss correction	single-endedforward channel	channel 3reverse channel	N/Adate	2019/09/12time	02:26:11forward acquisition time	60.00reverse acquisition time	0.00gamma	496.2192k internal	0.2321k external	0.2321temperature offset calibration	1.0067default loss term (dB/km)	0.3790temperature slope calibration	1.0000multiplexer offset coefficient	1.0000multiplexer slope coefficient	1.0000fibre end	0.00T internal ref (°C)	32.50T ext. ref 1 (°C)	2.08T ext. ref 2 (°C)	27.11length (m)	temperature (°C)	Stokes	anti-Stokes-747.200	400.140	0.022	0.047
-746.185	-200.000	-0.070	0.603
-745.171	789.544	-0.083	0.231
-744.156	-200.000	0.003	0.486
-743.142	-77.562	0.196	-0.069
-742.127	770.095	-0.044	-0.122
-741.112	213.299	-0.080	0.128
-740.098	-95.978	0.201	0.054
-739.083	-200.000	0.017	-0.332
-738.069	26.198	-0.394	0.333
-737.054	66.364	0.186	0.191
-736.039	-200.000	-0.003	-0.130
-735.025	-90.773	0.314	-0.091
-734.010	-4.364	-0.362	-0.253
-732.996	22.949	-0.264	0.219
-731.981	-200.000	0.016	0.154
-730.966	447.452	0.085	0.189
-729.952	262.303	-0.084	-0.146
-728.937	752.069	0.086	-0.233
-727.923	-200.000	0.005	0.091
-726.908	-34.568	-0.422	0.233
-725.894	800.000	-0.148	-0.422
-724.879	374.525	0.111	-0.229
-723.864	145.099	-0.081	-0.110
-722.850	-51.687	-0.294	-0.138
-721.835	-114.596	-0.257	-0.050
-720.821	-200.000	-0.012	0.071
-719.806	-200.000	-0.003	0.159
-718.791	-36.313	0.113	0.061
-717.777	-200.000	0.001	0.091
-716.762	14.181	-0.121	-0.095
-715.748	-116.572	-0.153	-0.028
-714.733	63.030	0.343	0.347
-713.718	74.624	0.108	0.115
-712.704	215.643	-0.088	-0.142
-711.689	27.978	0.113	0.096
-710.675	-75.898	0.377	0.135
-709.660	231.264	0.106	0.175
-708.645	201.897	-0.029	0.045
-707.631	-109.724	0.317	-0.067
-706.616	-156.703	0.142	-0.009
-705.602	364.926	-0.044	0.089
-704.587	-130.752	-0.184	-0.025
-703.572	-21.001	0.174	-0.107
-702.558	128.483	-0.133	-0.171
-701.543	23.485	-0.222	-0.184
-700.529	-78.414	0.239	0.083
-699.514	-200.000	-0.009	0.246
-698.499	395.683	-0.203	-0.427
-697.485	258.742	0.267	0.464
-696.470	274.289	0.156	-0.279
-695.456	26.860	-0.086	0.072
-694.441	-136.954	-0.250	-0.029
-693.426	800.000	-0.033	0.099
-692.412	69.403	0.032	-0.034
-691.397	-135.673	0.164	-0.020
-690.383	-200.000	-0.003	-0.197
-689.368	232.548	0.141	0.233
-688.354	-26.320	0.229	0.135
-687.339	-189.850	-0.240	0.003
-686.324	-200.000	-0.016	0.186
-685.310	121.737	0.164	0.206
-684.295	511.762	0.045	-0.107
-683.281	-200.000	-0.033	-0.229
-682.266	-200.000	0.005	-0.056
-681.251	-16.389	0.105	-0.067
-680.237	177.416	-0.044	-0.064
-679.222	67.415	-0.123	0.126
-678.208	223.246	0.097	-0.157
-677.193	-190.308	0.073	-0.001
-676.178	-200.000	-0.007	-0.330
-675.164	9.098	0.094	0.071
-674.149	800.000	-0.118	-0.366
-673.135	-200.000	-0.029	-0.243
-672.120	-27.118	-0.091	0.054
-671.105	-75.945	0.055	-0.020
-670.091	137.842	-0.022	-0.030
-669.076	-200.000	0.008	-0.151
-668.062	-113.358	0.139	-0.027
-667.047	-200.000	0.017	-0.241
-666.032	52.884	-0.133	-0.128
-665.018	-200.000	0.067	0.350
-664.003	102.330	-0.112	-0.132
-662.989	711.921	0.091	0.243
-661.974	-125.064	-0.344	0.053
-660.959	-108.662	-0.215	0.047
-659.945	-200.000	0.015	-0.077
-658.930	0.345	-0.089	0.064
-657.916	-200.000	0.007	-0.113
-656.901	50.800	-0.129	0.123
-655.886	-145.929	0.148	0.013
-654.872	110.315	0.121	-0.146
-653.857	800.000	-0.056	0.192
-652.843	-64.428	0.177	-0.072
-651.828	-24.044	-0.166	-0.100
-650.814	-200.000	0.000	-0.410
-649.799	46.006	0.205	-0.191
-648.784	800.000	-0.038	0.127
-647.770	-200.000	-0.001	0.224
-646.755	273.972	-0.131	0.234
-645.741	139.847	0.294	-0.390
-644.726	-176.198	0.216	0.006
-643.711	-48.290	-0.124	0.060
-642.697	800.000	-0.073	0.267
-641.682	366.514	-0.146	0.297
-640.668	-67.200	-0.386	-0.153
-639.653	25.357	-0.237	-0.198
-638.638	184.384	0.069	0.102
-637.624	-116.315	-0.146	-0.027
-636.609	-128.855	-0.201	-0.028
-635.595	-166.520	-0.187	-0.008
-634.580	-108.801	0.147	0.032
-633.565	800.000	0.086	-0.295
-632.551	466.540	0.049	-0.110
-631.536	-49.353	0.299	-0.144
-630.522	-200.000	-0.013	-0.171
-629.507	336.396	0.100	-0.195
-628.492	115.298	-0.107	-0.132
-627.478	791.763	0.035	0.098
-626.463	-34.513	-0.231	-0.127
-625.449	-145.715	0.210	-0.019
-624.434	-122.479	0.242	0.040
-623.419	214.903	-0.077	-0.123
-622.405	351.076	0.133	-0.265
-621.390	-200.000	-0.022	0.270
-620.376	-44.181	-0.294	0.148
-619.361	115.646	0.075	0.092
-618.346	-81.600	0.255	0.084
-617.332	-53.972	-0.073	0.033
-616.317	-25.441	0.047	0.028
-615.303	800.000	0.071	-0.298
-614.288	-46.720	-0.113	0.056
-613.273	-58.205	0.155	0.068
-612.259	702.506	-0.055	-0.146
-611.244	-200.000	-0.025	0.276
-610.230	-187.609	-0.150	0.002
-609.215	168.955	0.139	0.199
-608.201	-65.634	0.145	-0.059
-607.186	-200.000	-0.027	0.129
-606.171	-200.000	-0.028	-0.409
-605.157	-200.000	-0.024	-0.484
-604.142	107.737	0.104	-0.124
-603.128	35.937	-0.089	-0.079
-602.113	-200.000	-0.018	0.318
-601.098	110.952	0.204	-0.246
-600.084	-1.861	-0.140	-0.099
-599.069	800.000	-0.089	0.251
-598.055	-106.806	0.407	0.091
-597.040	-20.307	0.392	0.242
-596.025	-38.050	-0.417	-0.223
-595.011	105.091	-0.104	-0.124
-593.996	260.976	0.158	-0.274
-592.982	259.890	-0.150	0.261
-591.967	-200.000	-0.042	0.200
-590.952	-41.836	0.212	0.109
-589.938	-200.000	0.011	0.132
-588.923	-19.868	-0.225	0.140
-587.909	-10.580	-0.303	0.202
-586.894	62.117	0.101	-0.102
-585.879	41.925	-0.227	0.207
-584.865	32.201	-0.138	-0.120
-583.850	461.062	-0.135	0.302
-582.836	116.296	-0.072	-0.089
-581.821	-75.720	-0.304	-0.108
-580.806	463.696	-0.218	0.490
-579.792	-82.358	0.183	-0.060
-578.777	-200.000	-0.011	0.088
-577.763	193.099	0.069	0.105
-576.748	-200.000	-0.051	0.243
-575.733	-200.000	-0.057	-0.338
-574.719	141.263	-0.197	-0.262
-573.704	-136.299	0.135	0.016
-572.690	214.490	0.074	0.117
-571.675	-54.430	0.146	0.066
-570.661	-200.000	0.013	0.425
-569.646	-105.672	0.269	-0.061
-568.631	-74.960	0.187	0.067
-567.617	-137.144	0.063	-0.007
-566.602	-200.000	-0.005	-0.121
-565.588	-90.297	0.170	0.050
-564.573	522.908	0.036	0.086
-563.558	-36.759	0.165	0.089
-562.544	22.910	0.057	-0.047
-561.529	-99.229	0.381	0.096
-560.515	77.526	0.075	-0.080
-559.500	-98.349	0.127	0.033
-558.485	-47.265	0.313	0.153
-557.471	-102.104	-0.149	0.036
-556.456	44.825	-0.164	-0.151
-555.442	-200.000	0.025	0.349
-554.427	152.308	-0.030	0.041
-553.412	-146.982	0.216	-0.019
-552.398	-93.004	0.070	0.019
-551.383	-40.889	-0.197	-0.102
-550.369	800.000	0.050	-0.169
-549.354	-35.700	-0.125	0.068
-548.339	-71.215	-0.166	0.062
-547.325	55.334	-0.225	-0.218
-546.310	800.000	0.055	0.156
-545.296	-73.338	0.095	0.035
-544.281	-26.655	-0.109	0.064
-543.266	800.000	-0.056	-0.176
-542.252	185.665	-0.143	-0.213
-541.237	-95.738	-0.368	0.099
-540.223	283.541	0.133	-0.240
-539.208	28.410	-0.172	0.146
-538.193	-11.583	0.087	-0.057
-537.179	-101.424	-0.062	-0.015
-536.164	800.000	-0.048	0.183
-535.150	-200.000	0.018	0.090
-534.135	-65.169	-0.255	-0.103
-533.121	517.677	-0.076	-0.179
-532.106	-32.265	0.225	-0.126
-531.091	-200.000	0.017	-0.117
-530.077	-72.462	-0.120	-0.044
-529.062	800.000	-0.126	-0.352
-528.048	-40.957	-0.284	0.147
-527.033	537.463	0.033	-0.077
-526.018	90.554	-0.165	0.185
-525.004	-108.090	0.373	-0.081
-523.989	-29.138	0.307	0.176
-522.975	224.183	-0.146	0.237
-521.960	398.270	0.109	0.228
-520.945	-52.369	0.159	-0.074
-519.931	-32.110	0.244	-0.137
-518.916	-200.000	0.033	0.273
-517.902	-68.317	0.373	0.145
-516.887	-30.197	0.223	-0.127
-515.872	1.358	0.190	0.137
-514.858	318.822	0.056	-0.106
-513.843	-50.788	0.316	-0.149
-512.829	-32.251	0.047	-0.026
-511.814	-39.622	0.227	-0.119
-510.799	-85.898	-0.404	-0.125
-509.785	337.250	-0.080	0.155
-508.770	-34.562	-0.133	0.073
-507.756	-200.000	-0.035	-0.205
-506.741	-200.000	-0.043	-0.244
-505.726	69.580	0.111	0.114
-504.712	-37.696	-0.057	-0.030
-503.697	-23.577	-0.089	-0.053
-502.683	80.787	0.129	0.139
-501.668	191.652	-0.137	-0.207
-500.653	-112.024	0.391	0.079
-499.639	-40.360	0.168	-0.087
-498.624	-91.866	0.069	-0.020
-497.610	159.831	-0.023	-0.032
-496.595	800.000	0.109	-0.339
-495.581	-76.011	-0.329	0.116
-494.566	77.245	-0.157	0.167
-493.551	-141.036	0.101	0.010
-492.537	-104.149	0.383	-0.089
-491.522	542.026	0.045	0.108
-490.508	-200.000	0.029	0.148
-489.493	331.856	0.028	0.054
-488.478	-83.840	0.137	-0.044
-487.464	37.640	-0.202	-0.180
-486.449	25.416	-0.234	0.195
-485.435	-200.000	0.026	0.122
-484.420	-124.159	-0.263	-0.041
-483.405	161.243	0.014	-0.019
-482.391	-83.156	0.286	0.092
-481.376	-24.592	-0.088	-0.052
-480.362	-92.373	-0.227	0.064
-479.347	800.000	0.076	0.212
-478.332	-29.017	-0.093	-0.054
-477.318	-124.052	-0.190	0.030
-476.303	44.349	0.067	-0.062
-475.289	800.000	0.018	0.079
-474.274	-200.000	-0.015	0.140
-473.259	107.122	0.121	-0.143
-472.245	6.531	0.232	0.173
-471.230	-200.000	-0.015	-0.123
-470.216	-200.000	-0.018	-0.227
-469.201	409.535	-0.121	-0.256
-468.186	82.628	-0.102	0.110
-467.172	-79.751	0.322	-0.108
-466.157	36.082	0.052	0.046
-465.143	-19.195	0.118	-0.073
-464.128	-200.000	0.047	-0.238
-463.113	360.988	0.094	0.188
-462.099	252.343	0.096	-0.164
-461.084	-99.227	-0.243	0.061
-460.070	-78.257	0.148	-0.051
-459.055	205.199	0.177	0.275
-458.040	91.496	-0.119	0.134
-457.026	110.156	0.035	-0.042
-456.011	-150.738	-0.319	-0.024
-454.997	-0.430	0.093	0.066
-453.982	-75.676	0.211	-0.075
-452.968	-115.595	-0.174	-0.033
-451.953	92.940	0.113	-0.127
-450.938	297.350	-0.090	0.164
-449.924	-4.064	-0.249	-0.173
-448.909	-60.826	-0.301	0.127
-447.895	-40.169	-0.104	0.054
-446.880	-200.000	0.029	0.202
-445.865	-200.000	0.013	0.321
-444.851	45.994	-0.015	-0.014
-443.836	218.047	-0.117	-0.187
-442.822	800.000	-0.078	-0.309
-441.807	38.785	-0.215	-0.192
-440.792	-42.556	0.072	0.037
-439.778	-87.010	0.200	-0.061
-438.763	84.740	0.290	-0.317
-437.749	-200.000	0.071	-0.325
-436.734	-128.402	-0.390	-0.055
-435.719	255.536	0.046	0.080
-434.705	238.346	-0.172	-0.284
-433.690	-81.214	-0.125	0.041
-432.676	288.091	0.090	0.163
-431.661	800.000	-0.075	0.308
-430.646	-200.000	-0.003	0.048
-429.632	-85.374	0.268	-0.083
-428.617	-200.000	-0.021	0.235
-427.603	475.454	-0.074	-0.166
-426.588	220.812	0.123	0.198
-425.573	48.140	-0.277	0.258
-424.559	-93.288	0.200	-0.055
-423.544	-181.859	0.128	-0.002
-422.530	103.533	-0.060	-0.070
-421.515	-26.612	0.073	0.043
-420.500	-113.619	0.112	-0.022
-419.486	-200.000	-0.072	0.334
-418.471	800.000	-0.056	-0.180
-417.457	-200.000	-0.019	0.194
-416.442	-72.427	-0.143	-0.053
-415.428	10.289	-0.165	-0.125
-414.413	-82.485	-0.287	-0.093
-413.398	-200.000	0.025	0.135
-412.384	-80.061	0.367	0.123
-411.369	-63.689	-0.133	0.054
-410.355	-200.000	-0.036	-0.458
-409.340	-2.973	-0.057	-0.040
-408.325	-93.393	0.146	0.041
-407.311	39.096	-0.318	0.283
-406.296	-29.482	0.077	-0.044
-405.282	-137.740	-0.464	-0.052
-404.267	488.966	0.041	-0.094
-403.252	-200.000	-0.023	0.286
-402.238	-84.779	-0.309	0.097
-401.223	32.481	0.278	-0.239
-400.209	800.000	-0.056	-0.210
-399.194	253.238	0.048	-0.081
-398.179	135.700	-0.073	-0.095
-397.165	276.092	0.260	-0.460
-396.150	-88.901	0.477	-0.141
-395.136	-121.251	0.094	0.016
-394.121	-94.152	0.170	-0.046
-393.106	85.363	0.168	-0.184
-392.092	534.120	0.037	-0.087
-391.077	-191.443	0.037	0.000
-390.063	153.077	-0.167	-0.228
-389.048	-141.377	0.098	-0.010
-388.033	-200.000	-0.014	0.143
-387.019	-58.433	0.152	0.066
-386.004	-25.094	0.046	0.027
-384.990	132.735	-0.043	0.055
-383.975	11.050	-0.154	-0.117
-382.960	-112.156	0.114	-0.023
-381.946	-169.187	-0.309	-0.011
-380.931	-48.954	-0.130	-0.062
-379.917	-121.948	-0.166	0.027
-378.902	-200.000	0.019	-0.230
-377.888	-67.026	0.142	0.056
-376.873	112.729	0.111	-0.133
-375.858	-61.487	-0.012	0.005
-374.844	340.428	-0.036	-0.071
-373.829	45.996	0.289	-0.266
-372.815	-64.452	-0.080	-0.032
-371.800	-80.170	0.202	-0.067
-370.785	-83.224	-0.034	0.011
-369.771	-119.039	0.322	0.056
-368.756	86.891	-0.070	-0.077
-367.742	-40.482	-0.101	-0.052
-366.727	24.558	-0.075	-0.062
-365.712	97.194	0.032	0.036
-364.698	477.048	0.070	-0.158
-363.683	-200.000	-0.037	-0.216
-362.669	-185.974	0.519	0.008
-361.654	-106.549	-0.280	-0.062
-360.639	-200.000	0.070	-0.335
-359.625	800.000	-0.119	0.358
-358.610	-200.000	0.044	-0.278
-357.596	800.000	0.075	0.238
-356.581	62.715	0.131	0.130
-355.566	188.382	0.082	0.121
-354.552	-49.186	0.296	-0.141
-353.537	4.574	-0.152	-0.111
-352.523	-166.162	0.139	-0.006
-351.508	-200.000	-0.020	0.203
-350.493	73.257	0.213	0.222
-349.479	-81.876	0.100	0.033
-348.464	-37.271	0.256	-0.136
-347.450	15.662	0.099	-0.077
-346.435	-51.286	-0.162	0.075
-345.420	-88.473	0.200	0.059
-344.406	-127.125	-0.274	-0.040
-343.391	46.490	0.258	-0.238
-342.377	285.912	-0.070	0.125
-341.362	36.494	-0.184	-0.162
-340.348	-103.709	0.357	0.083
-339.333	75.635	0.077	-0.081
-338.318	-200.000	-0.003	-0.022
-337.304	800.000	0.032	-0.132
-336.289	-200.000	-0.004	0.099
-335.275	-25.883	-0.356	0.209
-334.260	-190.171	-0.142	0.002
-333.245	-1.049	0.214	0.151
-332.231	-186.807	0.464	0.006
-331.216	129.411	0.223	-0.283
-330.202	-27.425	-0.168	0.097
-329.187	8.510	0.071	-0.053
-328.172	-2.187	-0.136	0.095
-327.158	2.841	-0.326	0.236
-326.143	0.327	-0.218	-0.155
-325.129	800.000	0.072	0.289
-324.114	-90.332	0.259	0.075
-323.099	-161.049	-0.097	0.005
-322.085	-149.205	0.312	-0.025
-321.070	800.000	-0.055	0.232
-320.056	-29.302	0.506	-0.288
-319.041	-200.000	0.015	0.137
-318.026	101.460	0.087	0.101
-317.012	-109.652	0.429	0.090
-315.997	-200.000	0.047	-0.231
-314.983	143.087	-0.050	0.066
-313.968	-55.144	0.241	-0.108
-312.953	-61.678	0.128	0.053
-311.939	36.093	-0.033	0.029
-310.924	110.298	-0.418	0.500
-309.910	-60.301	0.188	0.080
-308.895	800.000	-0.061	-0.198
-307.880	-104.545	0.219	-0.050
-306.866	-114.322	-0.097	0.019
-305.851	-200.000	0.035	0.200
-304.837	-78.854	0.260	0.088
-303.822	-200.000	-0.026	-0.121
-302.807	150.237	0.087	-0.117
-301.793	800.000	0.095	-0.289
-300.778	-200.000	0.014	0.349
-299.764	199.543	0.128	-0.196
-298.749	87.234	0.156	-0.171
-297.735	427.304	-0.178	0.381
-296.720	-200.000	-0.037	-0.444
-295.705	78.714	0.165	0.175
-294.691	448.321	0.143	0.313
-293.676	143.731	-0.138	0.183
-292.662	800.000	0.029	0.097
-291.647	-151.213	0.490	0.036
-290.632	199.515	0.037	0.056
-289.618	800.000	-0.084	0.268
-288.603	-101.196	0.218	0.053
-287.589	-1.693	0.110	-0.077
-286.574	-181.953	-0.213	0.004
-285.559	77.234	-0.355	0.375
-284.545	-105.756	-0.033	-0.007
-283.530	-200.000	0.016	-0.108
-282.516	76.660	-0.153	0.161
-281.501	-37.734	0.129	0.068
-280.486	-32.354	0.361	-0.200
-279.472	77.322	-0.123	0.129
-278.457	17.762	-0.071	-0.056
-277.443	26.696	0.144	0.120
-276.428	244.296	0.180	0.301
-275.413	-57.460	-0.151	-0.066
-274.399	-100.621	0.375	0.092
-273.384	-25.789	-0.291	-0.170
-272.370	800.000	-0.202	0.637
-271.355	-136.515	0.436	0.050
-270.340	-200.000	0.019	0.112
-269.326	232.515	-0.060	-0.098
-268.311	-106.889	0.129	-0.028
-267.297	723.264	0.082	-0.216
-266.282	323.278	-0.093	0.175
-265.267	223.795	-0.295	-0.472
-264.253	5.562	-0.231	-0.169
-263.238	-200.000	-0.028	0.227
-262.224	4.009	0.267	-0.193
-261.209	36.670	-0.261	0.229
-260.195	-15.360	-0.149	-0.094
-259.180	177.846	0.064	-0.092
-258.165	175.559	-0.113	-0.162
-257.151	145.032	-0.206	-0.274
-256.136	-94.316	0.269	-0.073
-255.122	-200.000	0.018	0.271
-254.107	-80.455	-0.180	0.060
-253.092	-12.652	0.216	0.140
-252.078	-200.000	0.026	-0.256
-251.063	-84.402	-0.294	-0.092
-250.049	-68.671	-0.355	0.136
-249.034	27.354	-0.149	-0.125
-248.019	-143.036	-0.155	-0.015
-247.005	-70.032	-0.122	-0.046
-245.990	97.987	-0.018	-0.021
-244.976	449.627	0.087	0.191
-243.961	-45.604	0.184	0.090
-242.946	41.487	0.107	0.096
-241.932	-200.000	-0.043	-0.265
-240.917	55.757	-0.192	0.184
-239.903	35.760	-0.258	-0.225
-238.888	-181.988	0.162	-0.003
-237.873	-173.363	-0.567	-0.017
-236.859	800.000	0.081	0.283
-235.844	4.849	-0.166	0.121
-234.830	288.521	0.145	-0.260
-233.815	-63.597	-0.267	-0.108
-232.800	800.000	0.050	0.207
-231.786	-150.724	0.331	0.025
-230.771	134.779	-0.238	0.307
-229.757	130.022	0.252	-0.320
-228.742	49.702	-0.087	0.081
-227.727	-180.792	-0.191	-0.004
-226.713	-93.294	0.146	0.040
-225.698	297.267	0.155	-0.283
-224.684	-148.127	-0.283	-0.023
-223.669	-31.277	-0.260	-0.145
-222.655	20.092	-0.305	0.244
-221.640	800.000	-0.089	0.265
-220.625	-88.196	-0.368	0.109
-219.611	-71.766	0.215	0.079
-218.596	245.812	-0.139	0.231
-217.582	646.882	-0.111	-0.280
-216.567	71.743	-0.340	-0.350
-215.552	55.151	-0.105	-0.101
-214.538	-59.048	-0.286	0.122
-213.523	14.757	-0.302	-0.233
-212.509	-154.203	-0.351	-0.024
-211.494	-200.000	0.014	-0.406
-210.479	54.026	-0.283	0.270
-209.465	193.412	-0.084	0.126
-208.450	173.808	-0.133	-0.191
-207.436	800.000	-0.100	0.328
-206.421	17.470	0.155	0.122
-205.406	-200.000	-0.059	-0.261
-204.392	-30.666	-0.143	0.080
-203.377	-54.450	-0.122	-0.055
-202.363	145.736	-0.110	-0.146
-201.348	127.944	0.252	0.318
-200.333	112.747	0.205	0.246
-199.319	-10.814	-0.107	0.070
-198.304	800.000	0.057	-0.198
-197.290	-55.598	-0.131	-0.058
-196.275	-200.000	-0.017	0.077
-195.260	420.287	0.144	0.305
-194.246	-200.000	-0.029	0.295
-193.231	8.935	-0.235	0.175
-192.217	22.738	0.241	-0.195
-191.202	-104.117	0.208	0.048
-190.187	268.690	0.212	0.367
-189.173	-118.833	-0.242	-0.042
-188.158	48.769	0.226	0.209
-187.144	-45.238	-0.238	0.117
-186.129	-81.451	-0.172	-0.056
-185.114	709.693	0.054	-0.141
-184.100	587.570	-0.147	-0.358
-183.085	367.483	-0.133	0.266
-182.071	-125.533	0.177	-0.027
-181.056	77.983	0.203	0.214
-180.042	800.000	0.048	0.205
-179.027	-200.000	0.008	-0.280
-178.012	407.107	0.066	-0.138
-176.998	-78.360	0.246	0.084
-175.983	800.000	-0.100	-0.385
-174.969	-42.771	0.065	-0.033
-173.954	-51.329	0.149	0.069
-172.939	322.747	-0.095	-0.179
-171.925	-61.348	0.229	-0.095
-170.910	-162.542	-0.182	-0.009
-169.896	-114.490	-0.470	0.089
-168.881	-200.000	0.051	-0.240
-167.866	-200.000	-0.061	-0.273
-166.852	-200.000	0.017	0.076
-165.837	-200.000	0.072	0.335
-164.823	16.347	-0.053	0.042
-163.808	-200.000	-0.023	0.152
-162.793	-73.927	0.085	0.031
-161.779	-160.746	0.041	-0.002
-160.764	-96.763	0.086	0.022
-159.750	-200.000	0.007	-0.037
-158.735	87.275	-0.185	-0.202
-157.720	-166.187	-0.289	-0.012
-156.706	70.349	-0.182	-0.186
-155.691	-101.586	-0.102	0.024
-154.677	-188.703	-0.392	0.005
-153.662	60.648	-0.140	-0.137
-152.647	14.487	0.068	0.053
-151.633	167.190	0.190	-0.266
-150.618	-200.000	-0.036	0.368
-149.604	-42.178	0.069	-0.035
-148.589	78.059	0.107	-0.112
-147.574	36.014	-0.277	-0.241
-146.560	331.516	-0.041	0.079
-145.545	182.286	0.080	-0.117
-144.531	85.592	-0.069	0.075
-143.516	-200.000	-0.040	0.405
-142.502	-56.597	0.210	-0.092
-141.487	-72.176	0.353	0.129
-140.472	-17.078	-0.294	0.183
-139.458	-95.112	0.146	-0.039
-138.443	-16.504	-0.310	-0.194
-137.429	675.119	-0.069	-0.176
-136.414	-200.000	0.005	0.046
-135.399	224.658	0.188	-0.300
-134.385	-200.000	-0.073	-0.348
-133.370	800.000	0.059	-0.173
-132.356	-48.977	0.199	0.094
-131.341	-118.449	0.200	0.035
-130.326	-29.662	-0.221	0.124
-129.312	800.000	0.049	0.175
-128.297	-26.502	-0.077	-0.045
-127.283	-118.365	0.222	0.039
-126.268	-200.000	0.060	0.321
-125.253	112.445	-0.216	-0.258
-124.239	-154.966	-0.178	-0.012
-123.224	800.000	-0.060	-0.235
-122.210	189.871	-0.035	-0.052
-121.195	165.857	-0.166	-0.231
-120.180	419.297	0.081	-0.171
-119.166	479.561	-0.071	0.160
-118.151	-121.774	-0.304	0.050
-117.137	-89.072	0.127	0.037
-116.122	800.000	0.075	0.209
-115.107	81.061	-0.069	0.073
-114.093	-17.239	0.165	-0.102
-113.078	-62.244	0.010	-0.004
-112.064	-19.405	-0.431	0.263
-111.049	-107.834	0.054	-0.012
-110.034	-168.044	-0.185	-0.007
-109.020	340.590	0.081	0.157
-108.005	0.479	0.016	-0.012
-106.991	91.236	0.161	0.179
-105.976	71.274	-0.056	-0.057
-104.962	-78.278	0.135	0.046
-103.947	23.055	-0.080	-0.065
-102.932	475.533	0.036	-0.080
-101.918	800.000	0.030	-0.102
-100.903	474.440	-0.025	0.057
-99.889	39.340	0.045	-0.040
-98.874	-31.474	0.250	0.139
-97.859	607.404	-0.070	0.173
-96.845	22.406	-0.112	0.090
-95.830	224.456	0.165	0.262
-94.816	-200.000	0.007	0.366
-93.801	17.890	-0.141	-0.111
-92.786	100.454	-0.195	-0.223
-91.772	57.810	-0.092	0.089
-90.757	-113.982	-0.236	0.045
-89.743	180.521	-0.203	0.294
-88.728	-101.145	0.316	-0.076
-87.713	68.121	0.026	0.026
-86.699	126.147	0.199	0.248
-85.684	-53.371	0.141	0.064
-84.670	-200.000	-0.045	0.338
-83.655	-200.000	-0.000	0.120
-82.640	72.028	0.321	-0.329
-81.626	-55.642	-0.260	-0.115
-80.611	148.804	0.203	0.271
-79.597	131.407	-0.254	0.322
-78.582	-200.000	0.011	-0.468
-77.567	-200.000	0.009	-0.109
-76.553	254.730	-0.137	0.230
-75.538	-200.000	0.034	-0.472
-74.524	-60.917	0.086	0.036
-73.509	111.078	0.075	-0.089
-72.494	48.707	-0.035	-0.032
-71.480	69.451	-0.150	0.152
-70.465	-200.000	0.005	0.158
-69.451	-200.000	0.085	0.383
-68.436	115.396	0.097	0.117
-67.422	13.092	0.177	-0.135
-66.407	-77.734	-0.307	-0.105
-65.392	109.591	-0.307	0.362
-64.378	763.874	0.149	-0.399
-63.363	-8.162	0.343	0.227
-62.349	800.000	0.070	0.216
-61.334	45.518	-1.122	-1.019
-60.319	128.094	0.189	0.237
-59.305	800.000	-0.390	-1.361
-58.290	104.004	0.843	0.975
-57.276	800.000	0.393	1.610
-56.261	-200.000	95.883	585.474
-55.246	565.352	1368.679	3264.971
-54.232	162.676	2540.284	3507.356
-53.217	111.952	2156.013	2562.132
-52.203	42.934	1704.159	1528.447
-51.188	35.720	1517.568	1312.043
-50.173	33.266	1491.419	1272.900
-49.159	51.991	1539.965	1442.754
-48.144	53.753	1558.126	1471.764
-47.130	35.793	1517.738	1312.475
-46.115	32.756	1502.619	1278.798
-45.100	32.608	1499.626	1275.196
-44.086	32.625	1497.543	1273.487
-43.071	32.530	1495.882	1271.385
-42.057	32.573	1494.355	1270.325
-41.042	32.465	1493.048	1268.441
-40.027	32.537	1491.501	1267.560
-39.013	32.442	1490.118	1265.692
-37.998	32.471	1488.913	1264.812
-36.984	32.548	1487.532	1264.107
-35.969	32.530	1485.917	1262.564
-34.954	32.532	1484.781	1261.567
-33.940	32.594	1483.312	1260.680
-32.925	32.517	1481.969	1258.974
-31.911	32.532	1480.671	1257.923
-30.896	32.588	1479.172	1256.969
-29.881	32.612	1478.086	1256.157
-28.867	32.592	1476.554	1254.670
-27.852	32.561	1475.130	1253.209
-26.838	32.623	1473.667	1252.329
-25.823	32.553	1472.662	1250.958
-24.809	32.485	1470.913	1248.972
-23.794	32.541	1468.757	1247.460
-22.779	32.549	1467.886	1246.725
-21.765	32.603	1466.246	1245.638
-20.750	32.635	1465.345	1245.039
-19.736	32.502	1464.731	1243.589
-18.721	32.447	1463.564	1242.186
-17.706	32.444	1462.425	1241.148
-16.692	32.404	1461.475	1240.029
-15.677	32.431	1460.472	1239.310
-14.663	32.464	1459.250	1238.441
-13.648	32.439	1458.075	1237.230
-12.633	32.502	1457.549	1237.148
-11.619	32.419	1456.560	1235.710
-10.604	32.433	1455.907	1235.204
-9.590	32.411	1455.358	1234.539
-8.575	32.523	1454.137	1234.192
-7.560	32.497	1452.880	1232.903
-6.546	32.453	1452.226	1232.014
-5.531	32.366	1451.644	1230.901
-4.517	32.440	1450.306	1230.200
-3.502	32.398	1449.757	1229.415
-2.487	32.409	1448.381	1228.272
-1.473	32.435	1447.307	1227.482
-0.458	32.472	1446.086	1226.637
0.556	32.955	1436.232	1215.082
1.571	30.023	1411.936	1175.843
2.586	26.842	1359.402	1112.517
3.600	25.414	1280.822	1039.854
4.615	23.850	1232.667	991.950
5.629	20.328	1174.983	926.681
6.644	10.732	1088.696	810.857
7.659	3.306	1046.220	743.413
8.673	2.334	1040.850	734.865
9.688	2.062	1037.665	731.251
10.702	2.001	1035.804	729.579
11.717	1.934	1033.984	727.914
12.731	5.597	1038.209	748.354
13.746	15.316	1051.819	804.957
14.761	22.969	1061.927	849.565
15.775	24.939	1064.200	860.789
16.790	25.351	1063.586	862.192
17.804	25.279	1062.491	860.887
18.819	25.087	1061.731	859.272
19.834	25.039	1061.408	858.706
20.848	25.288	1060.869	859.384
21.863	25.374	1060.595	859.498
22.877	25.284	1060.030	858.536
23.892	25.334	1059.606	858.355
24.907	25.349	1058.560	857.502
25.921	25.141	1058.376	856.283
26.936	25.194	1057.460	855.721
27.950	25.293	1056.206	855.101
28.965	25.199	1055.027	853.626
29.980	25.075	1053.604	851.809
30.994	25.054	1052.818	850.996
32.009	25.248	1051.370	850.673
33.023	25.455	1050.761	851.082
34.038	25.187	1049.788	848.951
35.053	25.197	1048.943	848.239
36.067	25.216	1048.946	848.258
37.082	25.287	1047.558	847.394
38.096	25.363	1046.730	847.008
39.111	25.455	1046.121	846.878
40.126	25.526	1045.218	846.404
41.140	25.424	1044.459	845.237
42.155	25.182	1042.852	842.725
43.169	24.920	1041.385	840.233
44.184	24.839	1040.881	839.373
45.199	25.025	1039.684	839.204
46.213	24.880	1038.264	837.305
47.228	24.813	1038.030	836.730
48.242	25.048	1037.012	836.931
49.257	25.152	1036.521	836.948
50.271	25.109	1035.956	836.217
51.286	25.288	1035.176	836.348
52.301	25.409	1034.503	836.294
53.315	25.418	1033.545	835.488
54.330	25.312	1032.490	834.066
55.344	25.182	1031.988	832.986
56.359	25.270	1031.023	832.541
57.374	25.261	1030.219	831.774
58.388	25.119	1029.161	830.192
59.403	24.983	1028.424	828.893
60.417	25.054	1027.779	828.627
61.432	24.867	1026.797	826.900
62.447	24.844	1026.354	826.363
63.461	24.991	1025.441	826.231
64.476	25.014	1025.223	826.092
65.490	25.079	1023.984	825.320
66.505	24.887	1023.295	823.806
67.520	25.035	1022.269	823.589
68.534	25.145	1021.232	823.185
69.549	24.946	1020.604	821.693
70.563	24.664	1019.588	819.508
71.578	24.478	1018.536	817.739
72.593	24.704	1017.758	818.076
73.607	24.385	1016.743	815.729
74.622	24.426	1015.581	814.911
75.636	24.622	1015.392	815.584
76.651	24.965	1014.826	816.622
77.666	24.756	1014.123	815.032
78.680	24.610	1013.113	813.480
79.695	24.667	1012.272	812.995
80.709	24.757	1011.808	812.957
81.724	24.919	1010.937	812.922
82.739	24.912	1010.085	812.135
83.753	24.735	1009.470	810.766
84.768	25.162	1008.721	812.024
85.782	25.398	1008.439	812.797
86.797	25.694	1006.939	812.850
87.812	25.740	1006.028	812.252
88.826	25.406	1005.494	810.242
89.841	25.322	1004.836	809.262
90.855	25.580	1003.993	809.670
91.870	25.567	1002.973	808.718
92.884	25.609	1002.020	808.069
93.899	25.473	1001.265	806.779
94.914	25.214	1000.337	804.795
95.928	25.512	999.872	805.689
96.943	25.481	998.965	804.748
97.957	25.235	997.559	802.442
98.972	24.917	996.920	800.437
99.987	24.780	995.398	798.531
101.001	24.882	994.905	798.520
102.016	25.089	994.828	799.310
103.030	25.125	993.803	798.577
104.045	25.041	992.455	797.050
105.060	25.118	990.905	796.079
106.074	24.850	990.168	794.224
107.089	24.899	989.617	793.929
108.103	25.216	989.303	795.015
109.118	25.382	988.087	794.701
110.133	24.986	986.917	791.937
111.147	25.035	985.727	791.130
112.162	24.839	984.978	789.596
113.176	24.679	983.809	787.882
114.191	24.851	983.226	788.105
115.206	24.934	982.281	787.642
116.220	24.570	981.144	785.061
117.235	24.389	980.440	783.634
118.249	24.673	979.529	784.081
119.264	24.671	978.824	783.440
120.279	24.579	977.875	782.207
121.293	24.533	977.210	781.405
122.308	24.548	977.142	781.347
123.322	24.746	975.842	781.101
124.337	24.806	974.087	779.890
125.352	24.519	973.324	777.961
126.366	24.048	971.801	774.623
127.381	23.776	970.745	772.532
128.395	24.406	970.683	775.150
129.410	24.990	970.410	777.399
130.424	25.130	969.699	777.371
131.439	25.149	968.670	776.559
132.454	25.138	967.422	775.443
133.468	25.018	966.834	774.383
134.483	25.043	965.633	773.459
135.497	25.206	965.088	773.660
136.512	25.381	964.776	774.094
137.527	25.457	963.805	773.573
138.541	25.343	963.399	772.691
139.556	25.401	962.555	772.192
140.570	25.429	961.545	771.437
141.585	25.422	961.020	770.914
142.600	25.517	960.296	770.674
143.614	25.399	959.129	769.166
144.629	25.428	958.774	768.935
145.643	25.813	957.492	769.483
146.658	25.670	956.962	768.378
147.673	25.433	955.729	766.312
148.687	25.344	954.803	765.122
149.702	25.418	953.341	764.199
150.716	25.205	952.466	762.523
151.731	25.164	951.722	761.686
152.746	25.323	950.596	761.390
153.760	25.496	950.459	761.947
154.775	25.680	949.493	761.885
155.789	25.605	948.931	761.048
156.804	25.563	948.075	760.119
157.819	25.567	947.021	759.221
158.833	25.664	946.068	758.801
159.848	25.694	945.815	758.656
160.862	25.707	945.080	758.056
161.877	25.493	943.880	756.124
162.892	25.515	942.840	755.320
163.906	25.603	942.320	755.203
164.921	25.540	941.288	754.044
165.935	25.454	940.408	752.914
166.950	25.475	939.055	751.851
167.964	25.594	938.401	751.760
168.979	25.549	937.493	750.775
169.994	25.433	935.960	748.999
171.008	25.296	935.176	747.733
172.023	25.492	934.689	748.094
173.037	25.752	933.790	748.390
174.052	25.473	932.638	746.244
175.067	25.237	932.383	744.993
176.081	25.328	930.771	744.014
177.096	25.233	930.592	743.412
178.110	25.416	929.273	743.051
179.125	25.086	928.567	741.057
180.140	24.768	927.324	738.685
181.154	24.888	927.092	738.931
182.169	25.126	926.311	739.223
183.183	25.185	926.380	739.460
184.198	25.622	925.737	740.681
185.213	25.468	925.294	739.626
186.227	25.449	924.437	738.796
187.242	25.446	924.169	738.506
188.256	25.515	922.963	737.759
189.271	25.395	922.322	736.688
190.286	25.647	921.647	737.118
191.300	25.589	920.570	735.953
192.315	24.948	919.240	732.207
193.329	24.160	917.675	727.676
194.344	23.756	916.904	725.350
195.359	24.265	917.467	727.810
196.373	25.389	917.078	732.024
197.388	25.615	917.043	732.849
198.402	25.425	916.490	731.569
199.417	25.427	915.993	731.117
200.432	25.345	915.583	730.389
201.446	25.266	915.044	729.577
202.461	25.089	913.787	727.791
203.475	25.058	913.457	727.336
204.490	24.727	912.021	724.790
205.504	23.560	909.587	718.068
206.519	24.022	909.552	719.850
207.534	24.876	910.107	723.679
208.548	25.139	909.373	724.090
209.563	25.307	909.568	724.861
210.577	25.518	908.554	724.840
211.592	25.218	907.589	722.797
212.607	25.566	907.846	724.338
213.621	25.590	907.547	724.135
214.636	25.557	906.466	723.075
215.650	25.539	905.810	722.415
216.665	25.558	905.206	721.945
217.680	25.554	905.067	721.756
218.694	25.593	904.788	721.625
219.709	25.394	903.354	719.620
220.723	24.968	902.524	717.191
221.738	25.225	902.234	717.927
222.753	25.355	901.745	717.991
223.767	25.481	900.587	717.510
224.782	25.359	900.349	716.770
225.796	25.581	899.651	717.037
226.811	25.706	899.081	717.018
227.826	25.466	897.675	714.876
228.840	24.793	895.664	710.541
229.855	24.614	895.513	709.645
230.869	24.741	895.481	710.064
231.884	24.476	894.508	708.176
232.899	24.449	894.212	707.773
233.913	25.156	894.526	710.762
234.928	25.362	893.904	711.022
235.942	25.229	893.395	710.026
236.957	25.259	892.513	709.383
237.972	25.169	891.409	708.088
238.986	24.952	890.595	706.522
240.001	24.971	890.636	706.567
241.015	24.964	889.690	705.724
242.030	25.086	889.491	705.987
243.045	25.403	888.857	706.669
244.059	25.545	888.125	706.580
245.074	25.511	887.881	706.189
246.088	25.591	887.146	705.859
247.103	25.203	885.754	703.169
248.117	25.171	885.523	702.797
249.132	25.770	885.257	704.867
250.147	26.036	885.339	705.913
251.161	26.122	884.699	705.674
252.176	26.437	884.376	706.588
253.190	26.358	884.010	705.924
254.205	26.298	883.371	705.115
255.220	26.463	883.077	705.462
256.234	26.719	881.636	705.245
257.249	26.344	881.545	703.652
258.263	26.263	880.776	702.659
259.278	26.264	880.253	702.186
260.293	26.374	880.221	702.525
261.307	26.361	879.286	701.664
262.322	26.370	878.714	701.183
263.336	26.327	877.920	700.319
264.351	25.727	876.720	696.979
265.366	24.644	874.368	690.862
266.380	24.247	873.335	688.453
267.395	25.165	874.252	692.660
268.409	25.909	874.571	695.725
269.424	25.912	873.558	694.870
270.439	26.107	872.821	694.974
271.453	26.187	872.269	694.781
272.468	26.299	871.660	694.663
273.482	26.220	871.835	694.440
274.497	26.352	871.324	694.479
275.512	26.235	870.222	693.087
276.526	25.616	869.089	689.754
277.541	25.837	868.448	690.028
278.555	26.217	868.250	691.266
279.570	26.066	867.504	690.033
280.585	25.836	867.020	688.710
281.599	26.050	866.242	688.845
282.614	26.054	865.942	688.560
283.628	25.491	864.997	685.604
284.643	25.235	864.223	683.954
285.657	25.658	864.147	685.444
286.672	25.547	862.857	683.937
287.687	24.922	862.173	680.958
288.701	25.443	861.919	682.677
289.716	25.846	861.952	684.175
290.730	25.493	860.873	681.919
291.745	25.426	860.219	681.085
292.760	25.087	859.317	679.029
293.774	25.114	858.717	678.594
294.789	25.994	859.307	682.334
295.803	26.590	859.689	684.829
296.818	26.786	858.489	684.555
297.833	26.809	858.468	684.563
298.847	26.403	857.463	682.172
299.862	26.177	856.323	680.354
300.876	26.214	855.702	679.938
301.891	26.457	856.093	681.106
302.906	26.641	855.149	680.984
303.920	26.323	854.232	678.998
304.935	26.230	853.620	678.103
305.949	26.488	853.331	678.783
306.964	26.611	852.620	678.618
307.979	26.320	852.058	677.021
308.993	26.310	851.702	676.640
310.008	26.716	851.054	677.584
311.022	26.794	850.790	677.604
312.037	26.712	850.240	676.800
313.052	26.385	849.751	675.132
314.066	26.369	848.933	674.360
315.081	25.504	847.579	670.002
316.095	24.853	846.075	666.334
317.110	25.389	846.294	668.441
318.125	26.276	846.613	671.936
319.139	25.850	845.329	669.274
320.154	24.558	843.793	663.206
321.168	24.449	842.566	661.779
322.183	25.048	842.795	664.121
323.197	25.963	843.267	667.825
324.212	26.161	842.999	668.285
325.227	26.300	843.247	668.937
326.241	26.521	842.673	669.241
327.256	26.406	841.802	668.065
328.270	26.207	841.270	666.848
329.285	26.219	840.412	666.152
330.300	25.954	839.866	664.685
331.314	25.815	838.940	663.383
332.329	25.835	838.465	663.020
333.343	26.256	838.168	664.277
334.358	26.576	837.774	665.081
335.373	26.620	837.072	664.627
336.387	26.352	836.887	663.436
337.402	26.724	836.399	664.356
338.416	26.997	835.970	664.956
339.431	27.008	835.346	664.441
340.446	27.015	834.635	663.841
341.460	27.209	834.371	664.281
342.475	27.120	833.890	663.517
343.489	27.024	833.008	662.404
344.504	26.896	832.374	661.377
345.519	27.117	832.276	662.044
346.533	27.496	831.909	663.072
347.548	27.439	831.615	662.575
348.562	27.368	831.317	662.019
349.577	27.564	830.434	661.969
350.592	27.348	830.020	660.798
351.606	27.302	829.568	660.210
352.621	27.118	829.028	659.055
353.635	27.196	828.556	658.906
354.650	27.090	827.921	657.957
355.665	26.807	826.635	655.853
356.679	25.602	825.353	650.424
357.694	25.595	824.732	649.851
358.708	26.290	824.620	652.216
359.723	26.233	823.739	651.257
360.738	26.439	824.124	652.246
361.752	26.839	824.022	653.549
362.767	26.970	823.335	653.416
363.781	27.261	823.313	654.390
364.796	27.566	823.192	655.333
365.810	27.597	822.484	654.822
366.825	27.670	822.802	655.279
367.840	27.708	822.172	654.857
368.854	27.501	821.462	653.490
369.869	27.180	820.404	651.443
370.883	26.938	819.826	650.056
371.898	27.088	819.055	649.927
372.913	27.077	818.361	649.277
373.927	26.975	817.955	648.533
374.942	27.181	817.160	648.581
375.956	27.113	817.084	648.221
376.971	27.301	816.612	648.459
377.986	27.469	815.961	648.485
379.000	27.590	815.564	648.541
380.015	27.562	815.258	648.142
381.029	27.614	814.426	647.606
382.044	27.441	813.972	646.576
383.059	27.742	813.313	647.060
384.073	27.523	813.056	646.025
385.088	27.581	812.249	645.528
386.102	27.690	811.672	645.400
387.117	27.428	810.993	643.877
388.132	27.222	810.699	642.859
389.146	27.011	809.992	641.494
390.161	26.563	808.767	638.888
391.175	26.872	808.351	639.593
392.190	27.233	808.464	640.898
393.205	27.260	808.337	640.835
394.219	26.284	806.413	635.822
395.234	24.701	803.816	628.160
396.248	23.783	803.014	624.256
397.263	24.914	804.172	629.074
398.278	26.669	805.286	636.060
399.292	27.347	805.166	638.289
400.307	26.890	804.543	636.135
401.321	26.839	804.053	635.512
402.336	26.880	803.928	635.500
403.350	27.191	803.688	636.346
404.365	27.774	803.539	638.211
405.380	27.971	803.218	638.587
406.394	28.103	803.371	639.115
407.409	28.510	802.789	640.013
408.423	28.262	802.301	638.706
409.438	28.392	801.524	638.481
410.453	28.388	801.280	638.218
411.467	28.414	800.829	637.890
412.482	28.431	800.230	637.418
413.496	28.267	800.012	636.615
414.511	28.455	799.363	636.698
415.526	28.337	799.191	636.096
416.540	28.228	798.847	635.387
417.555	28.217	798.422	634.954
418.569	28.060	797.377	633.523
419.584	27.942	797.087	632.827
420.599	28.017	796.210	632.336
421.613	111.588	1284.883	1459.406
422.628	96.191	1356.089	1459.524
