DTS Sentinel unit serial number:	SN413079Multiplexer serial number:	ORYXHardware model number:	OX4-SRSoftware version number:	ORYX F/W v4.00 Oryx Data Collector v3.7.2.0data status	okinstallation	princeton_trtdifferential loss correction	single-endedforward channel	channel 3reverse channel	N/Adate	2019/09/11time	09:22:11forward acquisition time	60.00reverse acquisition time	0.00gamma	496.2192k internal	0.2306k external	0.2306temperature offset calibration	0.9942default loss term (dB/km)	0.3790temperature slope calibration	1.0000multiplexer offset coefficient	1.0000multiplexer slope coefficient	1.0000fibre end	0.00T internal ref (°C)	34.53T ext. ref 1 (°C)	0.12T ext. ref 2 (°C)	31.55length (m)	temperature (°C)	Stokes	anti-Stokes-747.200	240.603	-0.054	-0.092
-746.185	-200.000	0.025	0.369
-745.171	-6.517	-0.177	-0.122
-744.156	464.220	0.049	-0.111
-743.142	-69.903	0.310	-0.120
-742.127	221.035	-0.143	0.234
-741.112	-200.000	0.012	-0.247
-740.098	-141.817	-0.264	0.027
-739.083	-162.363	0.509	-0.026
-738.069	185.685	-0.145	0.218
-737.054	-200.000	0.031	-0.327
-736.039	-200.000	-0.003	-0.235
-735.025	-59.112	0.226	0.099
-734.010	32.888	0.248	0.218
-732.996	340.599	-0.051	-0.101
-731.981	800.000	0.055	-0.241
-730.966	613.526	0.025	0.063
-729.952	-79.659	0.211	0.072
-728.937	-120.051	-0.328	-0.057
-727.923	-70.089	-0.266	0.103
-726.908	67.881	-0.206	0.214
-725.894	-27.127	0.198	0.118
-724.879	237.987	-0.076	-0.128
-723.864	135.969	0.144	-0.190
-722.850	-200.000	-0.020	0.108
-721.835	-90.278	-0.172	-0.051
-720.821	43.911	-0.031	-0.029
-719.806	71.258	-0.066	0.069
-718.791	-44.227	0.363	0.185
-717.777	-61.216	0.123	-0.053
-716.762	800.000	-0.044	0.153
-715.748	45.260	0.141	-0.132
-714.733	-144.585	-0.096	0.009
-713.718	244.050	-0.124	-0.211
-712.704	800.000	0.009	-0.040
-711.689	-200.000	-0.016	0.436
-710.675	489.203	-0.152	0.353
-709.660	800.000	0.049	0.167
-708.645	77.994	-0.204	0.221
-707.631	533.404	0.036	-0.086
-706.616	-104.442	0.219	-0.051
-705.602	272.707	-0.061	-0.109
-704.587	-60.618	-0.251	0.108
-703.572	800.000	0.021	0.086
-702.558	283.673	0.209	0.382
-701.543	544.349	-0.036	-0.087
-700.529	-146.312	-0.322	-0.029
-699.514	122.691	-0.078	-0.100
-698.499	-28.816	0.362	0.211
-697.485	-76.385	-0.265	-0.095
-696.470	-67.366	0.224	-0.089
-695.456	-42.755	0.040	0.021
-694.441	800.000	-0.079	-0.298
-693.426	36.244	0.244	-0.218
-692.412	-19.472	0.133	0.084
-691.397	-200.000	0.010	-0.145
-690.383	731.296	-0.062	0.169
-689.368	-200.000	0.001	-0.224
-688.354	738.152	-0.062	0.169
-687.339	-119.036	-0.311	0.055
-686.324	-200.000	-0.037	-0.230
-685.310	-200.000	-0.008	0.084
-684.295	-152.049	-0.344	0.025
-683.281	-200.000	-0.025	0.167
-682.266	-105.776	-0.399	0.091
-681.251	-84.727	0.165	0.053
-680.237	275.350	0.097	0.174
-679.222	800.000	0.093	-0.292
-678.208	800.000	-0.073	-0.227
-677.193	-200.000	0.008	-0.204
-676.178	179.862	-0.136	-0.202
-675.164	400.577	-0.078	-0.166
-674.149	-64.915	-0.314	-0.129
-673.135	93.818	0.075	-0.087
-672.120	-34.443	0.116	-0.065
-671.105	487.938	0.119	-0.276
-670.091	157.231	0.017	-0.023
-669.076	-200.000	0.025	-0.160
-668.062	-12.552	0.230	-0.152
-667.047	-32.023	0.106	0.060
-666.032	-99.111	0.339	-0.087
-665.018	254.903	0.090	0.156
-664.003	-4.915	-0.219	-0.153
-662.989	800.000	-0.090	-0.253
-661.974	-200.000	0.012	-0.103
-660.959	-200.000	-0.025	0.188
-659.945	-168.618	0.475	0.018
-658.930	-200.000	-0.002	-0.136
-657.916	280.324	0.117	-0.212
-656.901	109.515	0.103	0.125
-655.886	-109.089	-0.335	0.072
-654.872	800.000	0.088	0.359
-653.857	-200.000	-0.028	-0.305
-652.843	3.655	-0.213	-0.158
-651.828	344.466	-0.105	0.208
-650.814	62.505	-0.189	0.192
-649.799	-144.627	0.076	0.007
-648.784	12.776	-0.075	-0.059
-647.770	267.573	0.077	-0.137
-646.755	-75.628	0.144	-0.052
-645.741	-64.186	0.209	-0.087
-644.726	-26.178	0.327	0.195
-643.711	794.822	-0.082	0.228
-642.697	1.312	0.126	-0.092
-641.682	-200.000	-0.002	0.081
-640.668	75.299	-0.231	-0.247
-639.653	-145.469	-0.133	0.012
-638.638	-191.093	0.246	-0.003
-637.624	-81.571	0.050	0.017
-636.609	-0.196	-0.114	-0.082
-635.595	132.326	-0.068	0.089
-634.580	-46.168	0.224	0.111
-633.565	171.477	0.042	0.061
-632.551	800.000	0.069	0.254
-631.536	628.855	-0.034	-0.088
-630.522	-200.000	-0.017	0.231
-629.507	-200.000	0.225	-0.001
-628.492	6.300	0.184	-0.138
-627.478	-48.829	0.187	0.091
-626.463	402.700	0.099	0.210
-625.449	-97.265	0.122	-0.032
-624.434	268.425	-0.138	0.245
-623.419	-64.870	-0.259	0.106
-622.405	-200.000	0.011	0.093
-621.390	462.455	0.065	0.147
-620.376	99.755	-0.098	-0.115
-619.361	-128.744	0.205	0.029
-618.346	137.937	0.150	0.198
-617.332	-105.507	0.185	-0.042
-616.317	168.348	0.047	-0.068
-615.303	-70.532	-0.356	-0.136
-614.288	304.003	-0.214	-0.402
-613.273	25.208	-0.202	-0.170
-612.259	414.867	-0.092	0.198
-611.244	-102.664	0.145	-0.035
-610.230	-54.602	-0.155	0.071
-609.215	-106.410	-0.029	0.006
-608.201	159.836	-0.158	0.223
-607.186	51.323	-0.130	-0.124
-606.171	132.813	0.089	-0.116
-605.157	-200.000	0.032	-0.205
-604.142	155.873	0.114	0.160
-603.128	-85.569	-0.211	0.067
-602.113	800.000	-0.006	0.024
-601.098	-190.232	-0.300	0.003
-600.084	-35.886	0.159	0.087
-599.069	-74.177	-0.324	-0.119
-598.055	152.564	0.043	0.060
-597.040	-200.000	-0.104	0.473
-596.025	2.226	-0.067	-0.049
-595.011	-113.525	-0.040	0.008
-593.996	407.462	0.083	-0.177
-592.982	-65.903	-0.450	0.182
-591.967	-30.613	-0.276	-0.158
-590.952	43.112	-0.091	-0.084
-589.938	-135.161	0.174	0.021
-588.923	38.458	0.125	0.113
-587.909	-86.407	-0.285	-0.089
-586.894	-18.878	0.285	0.179
-585.879	-200.000	-0.026	0.222
-584.865	-23.439	-0.085	0.051
-583.850	416.967	0.183	0.394
-582.836	219.187	-0.094	0.152
-581.821	800.000	-0.032	0.126
-580.806	5.485	0.274	0.204
-579.792	-200.000	-0.084	-0.378
-578.777	-6.305	0.237	0.164
-577.763	-200.000	-0.003	0.241
-576.748	-56.839	-0.079	-0.035
-575.733	102.383	0.064	0.076
-574.719	800.000	-0.062	0.260
-573.704	5.692	-0.136	-0.102
-572.690	-37.456	0.099	-0.054
-571.675	-131.917	-0.186	0.025
-570.661	-84.981	-0.328	-0.104
-569.646	-4.291	-0.099	-0.069
-568.631	467.388	0.020	-0.044
-567.617	-84.169	-0.316	0.101
-566.602	800.000	-0.156	-0.555
-565.588	466.816	-0.108	0.244
-564.573	14.523	0.198	0.156
-563.558	222.605	-0.085	0.139
-562.544	-140.972	-0.371	-0.038
-561.529	268.636	0.134	0.238
-560.515	99.461	0.120	-0.140
-559.500	-200.000	0.142	-0.668
-558.485	-200.000	0.015	-0.184
-557.471	-67.551	0.110	0.044
-556.456	800.000	-0.048	-0.163
-555.442	73.300	0.289	-0.306
-554.427	-15.422	0.100	0.065
-553.412	-12.915	-0.237	0.156
-552.398	800.000	-0.068	-0.211
-551.383	-47.043	-0.168	0.083
-550.369	116.745	0.296	0.366
-549.354	-200.000	0.025	0.211
-548.339	-126.994	-0.317	-0.047
-547.325	175.261	-0.090	0.132
-546.310	129.263	-0.161	0.208
-545.296	159.435	0.068	0.095
-544.281	362.025	-0.125	-0.252
-543.266	22.536	0.125	-0.103
-542.252	639.805	-0.087	-0.224
-541.237	-154.777	-0.076	-0.005
-540.223	-200.000	-0.044	0.248
-539.208	-200.000	-0.033	0.316
-538.193	175.976	-0.186	-0.272
-537.179	-79.927	-0.333	0.113
-536.164	37.238	-0.129	0.115
-535.150	-102.825	0.111	-0.027
-534.135	307.835	0.167	-0.314
-533.121	460.377	0.187	-0.420
-532.106	-25.817	0.105	-0.062
-531.091	162.401	0.122	0.172
-530.077	-154.804	-0.372	0.025
-529.062	800.000	-0.055	0.171
-528.048	121.242	0.274	-0.344
-527.033	800.000	0.023	0.090
-526.018	-129.120	-0.164	0.023
-525.004	-56.899	0.163	0.073
-523.989	-200.000	0.002	0.057
-522.975	-39.530	-0.295	-0.156
-521.960	-108.239	0.191	-0.042
-520.945	-11.872	-0.084	-0.055
-519.931	-200.000	-0.010	-0.091
-518.916	-200.000	-0.022	0.114
-517.902	-66.119	-0.179	0.072
-516.887	760.689	-0.120	0.327
-515.872	-126.080	0.140	-0.021
-514.858	96.799	-0.192	-0.222
-513.843	800.000	0.066	0.280
-512.829	385.232	0.116	0.242
-511.814	-200.000	-0.001	-0.285
-510.799	-146.671	-0.132	0.012
-509.785	244.591	0.160	-0.271
-508.770	62.010	-0.126	0.126
-507.756	42.747	-0.216	-0.198
-506.741	-83.970	-0.119	0.038
-505.726	537.505	-0.080	0.193
-504.712	52.342	-0.108	-0.104
-503.697	59.354	0.053	0.053
-502.683	-29.872	0.198	0.114
-501.668	-85.238	0.184	-0.058
-500.653	-129.667	0.135	-0.019
-499.639	-120.990	0.459	0.078
-498.624	-161.521	-0.141	-0.007
-497.610	-71.540	-0.177	-0.067
-496.595	229.909	-0.030	-0.050
-495.581	800.000	0.051	-0.162
-494.566	-5.793	0.156	-0.108
-493.551	113.334	0.081	-0.099
-492.537	55.452	0.141	0.137
-491.522	209.602	0.124	-0.196
-490.508	-182.123	-0.097	-0.002
-489.493	800.000	0.108	-0.364
-488.478	-200.000	-0.016	-0.105
-487.464	714.754	0.051	-0.137
-486.449	-70.509	-0.104	0.040
-485.435	-11.446	-0.319	0.211
-484.420	60.477	0.100	-0.100
-483.405	263.688	-0.105	0.184
-482.391	35.671	0.221	-0.196
-481.376	310.991	0.310	-0.584
-480.362	41.226	-0.162	-0.147
-479.347	-16.670	0.671	-0.427
-478.332	-103.295	0.229	0.055
-477.318	83.575	0.189	0.208
-476.303	-26.669	-0.347	0.204
-475.289	-176.113	-0.070	0.002
-474.274	92.311	-0.127	0.144
-473.259	83.597	-0.107	-0.118
-472.245	-3.480	-0.243	0.170
-471.230	-118.791	0.100	0.018
-470.216	-141.770	0.183	0.018
-469.201	4.061	-0.238	-0.175
-468.186	466.956	0.062	-0.141
-467.172	-27.052	-0.159	0.093
-466.157	282.431	0.062	0.113
-465.143	-196.262	0.244	-0.002
-464.128	800.000	0.060	0.209
-463.113	800.000	-0.056	-0.184
-462.099	-123.155	0.242	-0.039
-461.084	33.324	-0.111	-0.097
-460.070	69.907	-0.032	0.033
-459.055	171.555	-0.200	-0.289
-458.040	390.924	0.123	0.257
-457.026	65.611	0.210	0.214
-456.011	36.436	-0.062	0.055
-454.997	800.000	-0.010	0.038
-453.982	91.161	-0.215	-0.243
-452.968	276.670	0.114	-0.204
-451.953	800.000	-0.078	0.266
-450.938	39.105	0.082	0.074
-449.924	659.652	-0.083	0.214
-448.909	800.000	-0.059	-0.193
-447.895	-56.284	-0.261	0.117
-446.880	-180.135	0.170	-0.004
-445.865	-24.685	0.273	0.163
-444.851	39.714	0.096	0.087
-443.836	118.128	-0.143	-0.177
-442.822	-141.462	0.212	0.022
-441.807	-108.860	-0.250	-0.054
-440.792	-122.176	-0.183	0.030
-439.778	-87.931	-0.067	-0.020
-438.763	332.944	0.282	0.547
-437.749	-9.743	0.114	-0.076
-436.734	800.000	-0.023	-0.091
-435.719	-20.094	-0.253	0.157
-434.705	-61.218	0.095	0.040
-433.690	223.742	0.294	-0.476
-432.676	-80.083	0.187	0.063
-431.661	651.326	-0.027	-0.069
-430.646	-200.000	0.008	0.141
-429.632	125.726	-0.329	0.417
-428.617	-143.960	0.158	-0.015
-427.603	-57.835	0.191	0.084
-426.588	-151.504	0.234	-0.017
-425.573	19.829	0.255	0.206
-424.559	-85.103	-0.165	0.052
-423.544	800.000	0.033	0.093
-422.530	90.726	0.078	0.088
-421.515	-44.181	-0.155	-0.078
-420.500	694.291	0.053	0.139
-419.486	-200.000	-0.017	-0.114
-418.471	127.649	0.146	0.187
-417.457	800.000	-0.008	-0.032
-416.442	287.562	0.177	0.322
-415.428	-37.484	-0.177	0.095
-414.413	0.373	0.222	0.159
-413.398	-79.774	-0.257	-0.087
-412.384	-193.422	-0.316	0.003
-411.369	-200.000	-0.006	-0.084
-410.355	63.085	0.089	0.090
-409.340	-200.000	-0.027	-0.311
-408.325	-64.852	0.252	-0.102
-407.311	-50.714	-0.312	0.147
-406.296	-184.426	-0.132	0.002
-405.282	-160.975	0.364	0.019
-404.267	162.107	-0.056	0.078
-403.252	1.434	0.091	0.065
-402.238	-9.668	-0.162	0.108
-401.223	-122.602	-0.143	-0.023
-400.209	-136.554	-0.247	0.029
-399.194	83.447	0.099	0.108
-398.179	116.081	-0.094	-0.115
-397.165	-200.000	0.017	-0.285
-396.150	0.821	-0.121	0.087
-395.136	-58.792	-0.317	0.138
-394.121	106.198	-0.028	0.033
-393.106	-200.000	-0.005	0.072
-392.092	57.165	-0.114	-0.112
-391.077	-66.039	-0.131	0.053
-390.063	12.022	-0.195	0.150
-389.048	56.322	0.100	-0.098
-388.033	32.159	-0.374	0.324
-387.019	-88.195	-0.070	-0.021
-386.004	-28.435	0.346	-0.200
-384.990	-113.693	0.166	-0.033
-383.975	-125.401	-0.133	-0.020
-382.960	80.926	-0.134	0.145
-381.946	107.783	0.124	0.148
-380.931	-13.975	-0.027	0.017
-379.917	800.000	0.044	0.131
-378.902	-20.336	-0.356	0.220
-377.888	800.000	-0.090	-0.256
-376.873	262.531	0.064	-0.111
-375.858	390.261	0.041	-0.085
-374.844	-200.000	0.013	-0.171
-373.829	-140.049	-0.226	0.024
-372.815	-163.950	-0.510	0.024
-371.800	-95.667	-0.215	-0.058
-370.785	116.777	-0.082	-0.100
-369.771	-80.861	0.137	-0.046
-368.756	662.375	0.038	-0.099
-367.742	-98.336	-0.228	-0.058
-366.727	800.000	0.034	0.149
-365.712	138.384	-0.112	0.148
-364.698	-200.000	0.017	-0.334
-363.683	-43.027	0.063	0.032
-362.669	800.000	0.121	-0.442
-361.654	-88.798	0.094	-0.028
-360.639	125.781	0.022	-0.028
-359.625	-153.086	0.243	-0.017
-358.610	-63.844	-0.197	0.081
-357.596	-30.771	0.070	0.040
-356.581	-82.528	0.194	0.063
-355.566	10.328	-0.289	-0.220
-354.552	204.665	0.246	0.383
-353.537	-110.670	-0.081	0.017
-352.523	-111.534	0.206	-0.042
-351.508	221.414	0.091	-0.147
-350.493	-200.000	0.026	0.123
-349.479	239.041	-0.013	0.022
-348.464	266.214	0.124	0.217
-347.450	104.225	0.137	0.161
-346.435	800.000	0.091	0.310
-345.420	-85.568	-0.239	-0.074
-344.406	-85.193	0.309	-0.097
-343.391	-105.624	0.127	0.029
-342.377	-200.000	-0.014	0.128
-341.362	-41.227	-0.095	-0.049
-340.348	12.394	-0.455	0.351
-339.333	60.814	0.364	0.362
-338.318	-43.808	0.124	0.062
-337.304	52.233	-0.226	0.216
-336.289	-71.783	0.285	-0.106
-335.275	-200.000	0.037	-0.258
-334.260	-200.000	0.007	0.101
-333.245	-184.360	0.249	0.004
-332.231	-40.781	-0.055	0.029
-331.216	59.740	-0.247	-0.244
-330.202	800.000	0.100	0.395
-329.187	35.617	0.067	-0.059
-328.172	-200.000	-0.018	-0.130
-327.158	39.275	-0.214	0.191
-326.143	-100.791	-0.320	0.079
-325.129	221.409	-0.104	-0.167
-324.114	-97.340	0.097	0.025
-323.099	-22.705	0.141	-0.085
-322.085	39.127	0.316	-0.283
-321.070	-103.229	-0.039	0.009
-320.056	321.071	-0.145	-0.275
-319.041	-200.000	0.007	0.319
-318.026	-40.028	0.145	-0.076
-317.012	-146.928	-0.382	-0.033
-315.997	-200.000	0.031	0.262
-314.983	-200.000	0.039	0.187
-313.968	158.488	0.308	0.427
-312.953	166.556	0.229	0.325
-311.939	-139.148	-0.123	0.013
-310.924	800.000	-0.050	-0.158
-309.910	95.956	-0.264	-0.302
-308.895	32.255	0.375	0.324
-307.880	166.480	0.196	0.278
-306.866	132.768	0.084	0.108
-305.851	38.747	0.174	-0.155
-304.837	117.800	-0.041	0.050
-303.822	-200.000	-0.010	-0.131
-302.807	800.000	-0.045	-0.138
-301.793	-102.499	0.047	-0.011
-300.778	281.013	-0.066	0.118
-299.764	800.000	0.104	0.334
-298.749	-114.525	-0.322	-0.062
-297.735	-52.048	-0.372	0.173
-296.720	308.526	-0.160	-0.298
-295.705	290.143	0.054	-0.098
-294.691	-192.615	0.312	-0.003
-293.676	117.288	0.033	0.040
-292.662	-200.000	0.008	-0.114
-291.647	800.000	0.051	0.174
-290.632	37.877	-0.065	0.058
-289.618	39.111	0.176	-0.157
-288.603	82.601	-0.113	0.122
-287.589	-105.747	-0.162	0.037
-286.574	-200.000	-0.028	0.317
-285.559	-73.407	-0.071	0.026
-284.545	15.711	0.191	-0.150
-283.530	20.944	-0.534	-0.432
-282.516	247.628	-0.107	-0.180
-281.501	56.203	-0.329	-0.319
-280.486	-200.000	0.001	-0.066
-279.472	291.444	0.104	0.189
-278.457	800.000	-0.083	0.244
-277.443	-151.789	-0.104	0.008
-276.428	-113.294	-0.257	0.051
-275.413	51.209	0.105	-0.100
-274.399	44.184	-0.179	0.164
-273.384	-200.000	0.076	-0.407
-272.370	-69.307	0.286	-0.110
-271.355	-200.000	0.010	-0.125
-270.340	119.880	-0.154	-0.191
-269.326	-17.415	-0.278	-0.175
-268.311	99.046	-0.098	0.114
-267.297	-100.810	-0.254	0.062
-266.282	400.712	-0.042	0.088
-265.267	713.150	0.111	0.292
-264.253	663.457	-0.077	0.199
-263.238	289.136	0.156	0.282
-262.224	-200.000	-0.002	0.054
-261.209	175.143	-0.272	-0.394
-260.195	-21.423	-0.265	0.161
-259.180	30.020	0.081	0.069
-258.165	380.614	-0.147	-0.301
-257.151	-200.000	-0.048	-0.327
-256.136	-126.499	-0.344	-0.051
-255.122	-200.000	0.003	-0.199
-254.107	79.281	-0.050	-0.054
-253.092	91.512	0.196	-0.219
-252.078	800.000	-0.003	-0.010
-251.063	-31.740	0.243	-0.136
-250.049	170.453	0.092	0.131
-249.034	-133.170	0.394	-0.050
-248.019	-115.993	-0.383	-0.071
-247.005	754.850	0.040	-0.107
-245.990	-16.305	0.425	0.269
-244.976	101.934	-0.076	-0.088
-243.961	213.322	-0.139	-0.219
-242.946	800.000	-0.037	-0.130
-241.932	108.578	-0.160	0.191
-240.917	-200.000	0.031	-0.193
-239.903	54.038	-0.020	-0.019
-238.888	3.467	-0.208	0.151
-237.873	-200.000	0.046	-0.228
-236.859	122.428	0.097	-0.122
-235.844	265.724	0.115	-0.200
-234.830	-135.378	0.125	-0.015
-233.815	-6.114	0.214	0.146
-232.800	23.723	-0.314	-0.258
-231.786	191.286	-0.035	-0.052
-230.771	68.709	0.083	-0.085
-229.757	-20.290	-0.300	-0.184
-228.742	-111.180	-0.236	-0.048
-227.727	-200.000	-0.003	0.075
-226.713	-200.000	0.029	-0.232
-225.698	-22.349	-0.216	0.131
-224.684	800.000	-0.110	-0.309
-223.669	-192.875	0.401	-0.004
-222.655	-66.364	-0.081	0.032
-221.640	68.745	-0.096	0.098
-220.625	-195.845	0.117	0.001
-219.611	28.151	-0.137	-0.115
-218.596	-184.865	0.107	-0.002
-217.582	676.580	0.043	-0.111
-216.567	-200.000	0.050	-0.240
-215.552	103.309	0.044	0.052
-214.538	282.347	0.061	0.108
-213.523	-77.590	0.129	-0.045
-212.509	37.916	0.267	-0.236
-211.494	176.423	-0.090	-0.130
-210.479	565.860	0.040	-0.097
-209.465	429.893	0.141	0.304
-208.450	53.721	-0.112	0.107
-207.436	71.865	0.232	-0.241
-206.421	-200.000	-0.021	-0.128
-205.406	54.442	0.130	0.125
-204.392	60.811	0.096	-0.095
-203.377	-34.418	0.147	0.080
-202.363	-52.933	0.184	0.084
-201.348	30.722	0.090	-0.077
-200.333	-2.651	0.134	0.094
-199.319	153.534	0.120	0.164
-198.304	-104.930	0.362	0.083
-197.290	-200.000	-0.009	-0.040
-196.275	-131.009	0.212	0.028
-195.260	243.196	0.184	-0.307
-194.246	-89.044	-0.170	0.050
-193.231	2.045	-0.100	0.072
-192.217	-37.418	-0.041	-0.022
-191.202	58.117	-0.247	0.241
-190.187	150.583	0.019	0.025
-189.173	71.771	0.065	-0.067
-188.158	-52.363	0.149	-0.069
-187.144	800.000	0.010	-0.041
-186.129	-156.801	0.587	-0.036
-185.114	67.253	-0.174	-0.177
-184.100	800.000	0.060	0.246
-183.085	53.409	0.296	0.282
-182.071	425.976	0.173	-0.372
-181.056	-11.449	-0.035	-0.023
-180.042	150.899	0.066	0.089
-179.027	38.925	0.149	0.133
-178.012	-200.000	0.014	-0.212
-176.998	213.705	-0.049	-0.077
-175.983	353.866	0.117	0.231
-174.969	-125.252	0.182	-0.028
-173.954	98.082	0.088	-0.101
-172.939	-200.000	0.003	-0.142
-171.925	-158.997	0.204	0.012
-170.910	-200.000	-0.001	0.105
-169.896	-128.142	0.407	0.058
-168.881	73.413	0.062	-0.065
-167.866	-200.000	-0.006	-0.277
-166.852	-200.000	0.073	-0.425
-165.837	-44.955	-0.184	-0.091
-164.823	585.450	-0.151	0.369
-163.808	388.366	-0.057	-0.117
-162.793	-75.755	0.163	-0.058
-161.779	125.718	-0.209	-0.262
-160.764	229.377	0.219	0.356
-159.750	101.898	-0.183	0.213
-158.735	84.335	0.028	-0.030
-157.720	-55.611	-0.085	-0.038
-156.706	-31.974	0.061	-0.034
-155.691	-200.000	-0.205	0.000
-154.677	-86.842	0.158	-0.048
-153.662	-200.000	0.005	-0.212
-152.647	166.699	0.059	-0.083
-151.633	-95.550	0.140	0.037
-150.618	-200.000	0.021	0.118
-149.604	-200.000	-0.009	-0.300
-148.589	-114.465	0.184	0.035
-147.574	-99.660	-0.062	0.015
-146.560	-200.000	0.022	0.098
-145.545	17.474	0.327	-0.258
-144.531	93.115	-0.085	-0.095
-143.516	483.731	-0.115	0.261
-142.502	-155.915	0.154	-0.010
-141.487	1.540	-0.288	-0.206
-140.472	-200.000	0.002	-0.097
-139.458	8.642	-0.044	-0.033
-138.443	255.524	-0.063	-0.108
-137.429	125.624	0.249	0.312
-136.414	-162.366	0.227	0.011
-135.399	21.908	-0.201	0.163
-134.385	800.000	-0.101	-0.283
-133.370	4.661	-0.198	-0.144
-132.356	-106.957	0.621	0.137
-131.341	-114.819	0.035	0.007
-130.326	-200.000	-0.000	0.158
-129.312	558.454	-0.056	0.134
-128.297	-131.925	-0.179	-0.023
-127.283	59.139	-0.204	-0.199
-126.268	95.070	0.211	0.238
-125.253	-200.000	-0.035	-0.153
-124.239	-200.000	-0.008	-0.265
-123.224	-47.180	0.288	0.139
-122.210	-48.158	0.248	0.119
-121.195	115.550	-0.138	0.167
-120.180	-200.000	0.017	-0.397
-119.166	800.000	0.043	0.133
-118.151	-31.794	0.093	-0.052
-117.137	-100.598	-0.038	-0.009
-116.122	-200.000	-0.010	0.163
-115.107	-61.968	0.166	-0.069
-114.093	-171.006	0.380	0.013
-113.078	-2.725	0.148	0.103
-112.064	-75.025	0.256	0.091
-111.049	-77.607	0.161	-0.055
-110.034	800.000	-0.082	-0.256
-109.020	-22.891	-0.182	0.109
-108.005	-64.143	0.312	0.126
-106.991	-43.927	-0.097	0.048
-105.976	-15.878	0.175	0.111
-104.962	-200.000	0.018	0.209
-103.947	692.931	-0.136	0.352
-102.932	800.000	0.022	-0.062
-101.918	-43.968	0.279	0.139
-100.903	-200.000	-0.038	-0.219
-99.889	-146.010	0.129	0.011
-98.874	71.594	0.259	-0.267
-97.859	126.550	-0.054	0.068
-96.845	-26.692	0.343	0.199
-95.830	253.941	-0.074	-0.125
-94.816	-200.000	-0.062	0.430
-93.801	-146.318	0.346	0.030
-92.786	218.987	-0.075	0.119
-91.772	5.645	-0.162	0.118
-90.757	-38.790	0.124	-0.065
-89.743	29.413	-0.099	0.084
-88.728	-66.178	-0.200	0.079
-87.713	-116.590	0.113	0.021
-86.699	-200.000	-0.007	-0.036
-85.684	-137.186	-0.077	0.009
-84.670	27.593	-0.194	0.162
-83.655	-19.437	0.325	-0.200
-82.640	27.196	-0.054	0.045
-81.626	800.000	-0.034	0.140
-80.611	800.000	0.090	0.263
-79.597	-35.880	0.285	0.153
-78.582	-22.464	0.090	-0.054
-77.567	460.262	0.039	0.087
-76.553	142.284	0.149	0.196
-75.538	178.912	0.137	-0.198
-74.524	-56.484	0.247	-0.109
-73.509	-74.798	-0.207	0.074
-72.494	-143.055	-0.128	-0.012
-71.480	-140.568	0.125	-0.013
-70.465	-92.219	-0.183	0.051
-69.451	-118.661	0.328	0.057
-68.436	260.626	-0.087	-0.150
-67.422	21.296	0.184	-0.148
-66.407	-200.000	-0.002	-0.237
-65.392	-114.470	0.159	0.030
-64.378	-124.567	0.084	0.013
-63.363	-45.749	0.251	-0.123
-62.349	-56.241	0.159	-0.070
-61.334	63.695	-1.037	-1.031
-60.319	-200.000	0.092	0.624
-59.305	199.404	-0.495	-0.751
-58.290	671.827	0.471	1.208
-57.276	800.000	0.560	1.875
-56.261	-200.000	94.848	522.348
-55.246	563.773	1378.009	3304.441
-54.232	184.526	2616.885	3839.209
-53.217	115.334	2222.922	2688.434
-52.203	44.678	1754.975	1597.742
-51.188	37.661	1564.383	1374.843
-50.173	35.214	1536.427	1333.224
-49.159	52.223	1587.007	1497.912
-48.144	55.568	1605.674	1539.169
-47.130	38.017	1560.485	1373.709
-46.115	34.758	1545.532	1337.721
-45.100	34.601	1542.290	1333.759
-44.086	34.625	1539.883	1331.796
-43.071	34.523	1538.653	1329.968
-42.057	34.575	1536.191	1328.151
-41.042	34.504	1535.620	1327.111
-40.027	34.658	1533.667	1326.441
-39.013	34.588	1532.300	1324.717
-37.998	34.553	1531.125	1323.406
-36.984	34.656	1529.536	1322.693
-35.969	34.578	1528.480	1321.190
-34.954	34.460	1527.506	1319.475
-33.940	34.505	1525.707	1318.179
-32.925	34.581	1524.442	1317.561
-31.911	34.529	1523.338	1316.193
-30.896	34.593	1522.097	1315.511
-29.881	34.510	1520.725	1313.700
-28.867	34.621	1519.042	1312.957
-27.852	34.617	1517.237	1311.318
-26.838	34.608	1515.812	1309.976
-25.823	34.532	1514.270	1308.071
-24.809	34.583	1512.663	1306.978
-23.794	34.612	1511.583	1306.193
-22.779	34.476	1510.600	1304.364
-21.765	34.549	1509.297	1303.684
-20.750	34.626	1507.962	1303.004
-19.736	34.637	1506.766	1301.992
-18.721	34.547	1505.829	1300.521
-17.706	34.542	1504.745	1299.498
-16.692	34.573	1503.419	1298.509
-15.677	34.437	1503.025	1297.192
-14.663	34.544	1501.641	1296.678
-13.648	34.446	1500.988	1295.394
-12.633	34.477	1499.776	1294.510
-11.619	34.464	1498.594	1293.348
-10.604	34.515	1497.547	1292.739
-9.590	34.415	1497.268	1291.766
-8.575	34.506	1496.194	1291.408
-7.560	34.516	1495.348	1290.690
-6.546	34.488	1494.700	1289.896
-5.531	34.415	1493.909	1288.668
-4.517	34.507	1492.925	1288.387
-3.502	34.406	1492.074	1286.923
-2.487	34.609	1490.181	1286.604
-1.473	34.431	1489.925	1285.131
-0.458	34.529	1488.549	1284.553
0.556	32.904	1479.542	1275.176
1.571	30.427	1452.423	1235.242
2.586	27.298	1390.566	1162.569
3.600	25.840	1308.511	1085.093
4.615	24.317	1262.166	1037.717
5.629	20.046	1202.675	964.980
6.644	9.355	1111.897	836.721
7.659	1.373	1068.262	763.791
8.673	0.353	1062.233	754.312
9.688	0.051	1059.446	750.757
10.702	0.007	1057.915	749.386
11.717	0.060	1055.901	748.158
12.731	3.698	1060.491	769.494
13.746	13.791	1075.014	830.716
14.761	20.935	1083.857	873.409
15.775	22.027	1085.065	879.780
16.790	22.135	1084.235	879.570
17.804	22.049	1083.411	878.395
18.819	21.851	1082.527	876.610
19.834	21.792	1082.222	875.988
20.848	21.960	1081.581	876.232
21.863	21.984	1081.046	875.843
22.877	21.849	1081.284	875.283
23.892	21.953	1080.131	874.791
24.907	21.792	1079.556	873.446
25.921	21.850	1078.989	873.196
26.936	21.798	1077.785	871.887
27.950	21.831	1076.864	871.231
28.965	21.787	1075.798	870.071
29.980	21.686	1074.231	868.226
30.994	21.709	1072.504	866.868
32.009	21.906	1071.961	867.324
33.023	21.840	1071.642	866.666
34.038	21.774	1069.930	864.879
35.053	21.648	1069.357	863.719
36.067	21.880	1068.815	864.347
37.082	21.814	1067.997	863.284
38.096	21.964	1067.290	863.372
39.111	22.140	1066.349	863.401
40.126	22.257	1065.608	863.296
41.140	22.128	1064.305	861.536
42.155	21.894	1063.038	859.286
43.169	21.462	1061.757	856.062
44.184	21.444	1061.004	855.288
45.199	21.466	1060.066	854.567
46.213	21.415	1058.717	853.152
47.228	21.557	1057.627	852.894
48.242	21.661	1057.041	852.853
49.257	21.660	1056.031	851.955
50.271	21.817	1055.260	852.019
51.286	22.018	1054.275	852.126
52.301	22.026	1053.739	851.656
53.315	21.838	1053.264	850.288
54.330	21.906	1052.296	849.759
55.344	21.924	1051.036	848.754
56.359	21.857	1050.786	848.152
57.374	21.862	1049.726	847.246
58.388	21.792	1048.708	846.012
59.403	21.651	1048.111	844.772
60.417	21.740	1047.282	844.458
61.432	21.606	1046.481	843.095
62.447	21.538	1046.088	842.374
63.461	21.691	1045.096	842.237
64.476	21.819	1044.548	842.336
65.490	21.670	1043.473	840.680
66.505	21.624	1042.386	839.508
67.520	21.571	1041.770	838.686
68.534	21.599	1041.291	838.362
69.549	21.571	1039.900	837.032
70.563	21.283	1038.777	834.679
71.578	21.093	1038.095	833.149
72.593	21.223	1037.091	832.889
73.607	21.209	1035.865	831.766
74.622	21.119	1034.589	830.237
75.636	21.367	1034.097	830.949
76.651	21.508	1033.644	831.183
77.666	21.567	1032.153	830.191
78.680	21.246	1031.755	828.274
79.695	21.241	1031.098	827.647
80.709	21.247	1031.070	827.582
81.724	21.425	1029.740	827.283
82.739	21.388	1029.091	826.515
83.753	21.377	1027.781	825.338
84.768	21.730	1027.205	826.468
85.782	22.019	1026.950	827.552
86.797	22.139	1026.236	827.469
87.812	22.161	1024.982	826.483
88.826	21.909	1024.150	824.560
89.841	21.936	1023.567	824.141
90.855	22.039	1022.387	823.601
91.870	22.187	1021.623	823.609
92.884	22.072	1020.664	822.225
93.899	22.065	1019.621	821.279
94.914	21.974	1018.604	819.959
95.928	22.097	1017.929	819.920
96.943	22.115	1016.965	819.156
97.957	21.710	1015.864	816.310
98.972	21.682	1014.444	814.963
99.987	21.427	1013.745	813.145
101.001	21.444	1013.168	812.692
102.016	21.651	1012.948	813.404
103.030	21.752	1011.602	812.719
104.045	21.668	1010.843	811.646
105.060	21.591	1009.135	809.850
106.074	21.535	1007.884	808.512
107.089	21.374	1007.286	807.217
108.103	21.699	1007.399	808.737
109.118	21.928	1006.079	808.662
110.133	21.654	1004.736	806.249
111.147	21.718	1003.538	805.514
112.162	21.499	1002.592	803.677
113.176	21.205	1001.100	801.062
114.191	21.435	1000.811	801.813
115.206	21.407	999.922	800.902
116.220	21.204	998.835	799.033
117.235	21.095	997.644	797.510
118.249	21.211	996.826	797.316
119.264	21.415	996.007	797.522
120.279	21.329	995.151	796.370
121.293	21.078	994.818	794.894
122.308	21.347	993.308	794.840
123.322	21.373	992.710	794.408
124.337	21.318	991.711	793.290
125.352	21.261	990.255	791.794
126.366	20.801	988.790	788.471
127.381	20.636	987.027	786.249
128.395	20.969	987.306	787.906
129.410	21.572	987.034	790.342
130.424	21.859	985.672	790.477
131.439	21.692	985.171	789.254
132.454	21.684	983.869	788.104
133.468	21.694	983.297	787.620
134.483	21.730	982.383	786.980
135.497	21.619	981.714	785.878
136.512	21.956	981.112	786.840
137.527	22.158	980.290	787.015
138.541	21.946	979.482	785.347
139.556	21.986	978.554	784.712
140.570	22.098	977.752	784.500
141.585	22.075	976.947	783.684
142.600	22.120	976.158	783.178
143.614	21.925	975.459	781.680
144.629	22.056	974.642	781.540
145.643	22.214	974.140	781.770
146.658	22.231	972.841	780.733
147.673	21.862	971.797	778.193
148.687	21.923	970.077	777.014
149.702	21.874	969.410	776.194
150.716	21.741	968.474	774.790
151.731	21.582	967.842	773.511
152.746	21.854	966.721	773.749
153.760	22.023	965.983	773.835
154.775	22.121	965.231	773.597
155.789	22.074	965.267	773.348
156.804	22.164	963.636	772.368
157.819	22.051	962.795	771.132
158.833	21.955	962.131	770.109
159.848	22.177	961.195	770.266
160.862	22.206	960.290	769.597
161.877	22.140	959.704	768.772
162.892	21.984	958.555	767.100
163.906	22.206	957.612	767.249
164.921	22.136	957.074	766.443
165.935	22.180	955.087	764.978
166.950	22.044	954.513	763.859
167.964	22.250	953.723	764.053
168.979	22.107	952.657	762.512
169.994	22.135	951.148	761.357
171.008	21.909	950.448	759.751
172.023	22.079	949.725	759.839
173.037	22.285	949.414	760.416
174.052	22.099	947.709	758.182
175.067	21.845	946.835	756.318
176.081	21.921	945.896	755.828
177.096	22.008	945.383	755.727
178.110	21.962	944.458	754.722
179.125	21.659	943.200	752.348
180.140	21.351	942.864	750.690
181.154	21.480	941.749	750.292
182.169	21.699	941.050	750.607
183.183	21.860	940.587	750.858
184.198	22.070	940.350	751.502
185.213	22.117	939.799	751.199
186.227	22.037	938.870	750.045
187.242	22.008	938.945	749.918
188.256	22.203	937.869	749.821
189.271	22.129	936.771	748.565
190.286	22.258	936.026	748.452
191.300	22.203	935.175	747.471
192.315	21.508	934.068	743.567
193.329	20.828	932.387	739.276
194.344	20.416	931.591	736.831
195.359	21.137	931.382	739.658
196.373	21.871	931.930	743.140
197.388	22.119	931.820	744.037
198.402	22.069	930.732	742.893
199.417	22.011	930.231	742.181
200.432	22.055	929.563	741.766
201.446	21.982	928.935	740.892
202.461	21.531	928.193	738.333
203.475	21.684	927.375	738.260
204.490	21.266	925.906	735.269
205.504	20.057	924.043	728.641
206.519	20.549	924.109	730.696
207.534	21.431	924.535	734.679
208.548	21.586	923.952	734.800
209.563	21.910	923.638	735.845
210.577	21.934	923.275	735.590
211.592	21.618	922.132	733.293
212.607	22.152	921.660	735.086
213.621	22.178	921.055	734.647
214.636	22.295	920.201	734.389
215.650	22.314	920.057	734.290
216.665	22.218	919.532	733.405
217.680	22.129	919.106	732.629
218.694	22.316	918.373	732.756
219.709	22.086	917.090	730.712
220.723	21.598	916.048	727.789
221.738	21.848	916.097	728.804
222.753	22.044	915.537	729.107
223.767	22.009	914.245	727.867
224.782	22.099	914.017	727.996
225.796	22.249	913.237	727.931
226.811	22.467	912.855	728.463
227.826	21.863	911.201	724.585
228.840	21.131	909.924	720.486
229.855	21.080	909.201	719.637
230.869	21.385	909.252	720.874
231.884	21.003	908.208	718.408
232.899	21.113	906.926	717.785
233.913	21.912	907.565	721.512
234.928	21.969	907.574	721.692
235.942	21.972	906.238	720.576
236.957	22.031	905.382	720.074
237.972	21.675	904.926	718.190
238.986	21.470	904.342	716.821
240.001	21.616	903.806	716.931
241.015	21.819	902.864	716.950
242.030	21.803	902.096	716.211
243.045	21.992	901.543	716.481
244.059	22.038	900.915	716.106
245.074	22.195	900.404	716.277
246.088	22.188	899.929	715.804
247.103	21.794	898.952	713.363
248.117	21.789	898.479	712.902
249.132	22.221	898.550	714.654
250.147	22.589	898.411	715.975
251.161	22.854	897.301	716.102
252.176	22.802	896.936	715.538
253.190	22.801	896.344	714.998
254.205	22.741	896.262	714.624
255.220	23.026	895.792	715.339
256.234	23.122	894.936	714.982
257.249	22.862	894.349	713.400
258.263	22.722	893.577	712.157
259.278	22.785	892.917	711.821
260.293	22.852	892.640	711.807
261.307	22.942	892.255	711.797
262.322	22.850	891.460	710.730
263.336	22.826	890.201	709.570
264.351	22.285	888.753	706.181
265.366	21.206	886.768	700.216
266.380	20.761	885.750	697.569
267.395	21.590	886.520	701.435
268.409	22.328	886.454	704.277
269.424	22.251	886.174	703.682
270.439	22.551	885.156	704.013
271.453	22.849	884.232	704.406
272.468	22.663	884.045	703.452
273.482	22.790	883.822	703.717
274.497	22.827	883.278	703.369
275.512	22.774	881.910	702.005
276.526	22.178	880.760	698.660
277.541	22.214	880.489	698.526
278.555	22.576	880.061	699.563
279.570	22.551	879.258	698.766
280.585	22.429	878.150	697.338
281.599	22.473	877.960	697.301
282.614	22.497	878.032	697.391
283.628	22.112	876.421	694.528
284.643	21.748	875.664	692.426
285.657	22.203	875.574	694.091
286.672	22.002	874.824	692.642
287.687	21.546	873.946	690.088
288.701	21.834	874.088	691.276
289.716	22.298	873.622	692.672
290.730	21.929	872.301	690.116
291.745	21.872	871.747	689.389
292.760	21.753	870.613	687.966
293.774	21.669	870.150	687.212
294.789	22.561	870.244	690.724
295.803	23.177	870.885	693.582
296.818	23.093	870.339	692.757
297.833	23.399	869.456	693.193
298.847	23.067	868.497	691.070
299.862	22.798	866.944	688.723
300.876	22.734	867.343	688.728
301.891	23.258	866.945	690.394
302.906	23.316	865.949	689.767
303.920	22.774	865.374	687.139
304.935	22.562	864.623	685.658
305.949	23.053	864.181	687.154
306.964	23.269	863.617	687.485
307.979	22.896	863.245	685.678
308.993	22.896	862.630	685.129
310.008	23.285	862.152	686.198
311.022	23.456	861.847	686.556
312.037	23.138	861.569	685.044
313.052	22.925	860.431	683.254
314.066	22.803	859.833	682.248
315.081	22.052	858.547	678.265
316.095	21.390	857.284	674.654
317.110	21.910	857.567	676.825
318.125	22.783	857.668	680.212
319.139	22.343	856.567	677.585
320.154	21.365	854.888	672.434
321.168	20.736	854.065	669.312
322.183	21.520	853.813	672.066
323.197	22.344	854.614	675.803
324.212	22.658	854.264	676.670
325.227	22.935	853.490	677.061
326.241	22.866	853.465	676.717
327.256	22.817	852.856	675.987
328.270	22.738	851.998	674.944
329.285	22.862	850.884	674.475
330.300	22.596	850.362	672.985
331.314	22.265	850.141	671.489
332.329	22.322	849.348	671.020
333.343	22.733	848.848	672.131
334.358	23.074	848.573	673.154
335.373	23.064	847.531	672.229
336.387	23.146	847.152	672.180
337.402	23.329	846.823	672.553
338.416	23.418	846.180	672.323
339.431	23.383	845.444	671.545
340.446	23.493	845.104	671.633
341.460	23.681	844.517	671.818
342.475	23.684	843.848	671.237
343.489	23.398	843.264	669.634
344.504	23.348	843.095	669.249
345.519	23.584	842.791	669.843
346.533	23.774	842.572	670.322
347.548	23.916	841.658	670.073
348.562	23.889	841.327	669.649
349.577	23.779	840.918	668.848
350.592	23.783	840.361	668.362
351.606	23.868	839.335	667.808
352.621	23.905	838.940	667.571
353.635	23.730	838.417	666.440
354.650	23.645	838.054	665.773
355.665	23.369	837.016	663.858
356.679	22.323	835.223	658.462
357.694	22.212	834.682	657.563
358.708	22.882	834.706	660.028
359.723	22.790	834.241	659.261
360.738	23.009	833.994	659.822
361.752	23.453	833.930	661.372
362.767	23.670	833.161	661.510
363.781	23.837	833.097	662.023
364.796	24.120	833.274	663.162
365.810	24.080	832.888	662.644
366.825	24.178	832.375	662.543
367.840	24.092	832.325	662.124
368.854	23.856	831.807	660.776
369.869	23.587	830.774	658.898
370.883	23.320	830.201	657.397
371.898	23.578	829.372	657.638
372.913	23.497	828.359	656.477
373.927	23.577	827.613	656.122
374.942	23.508	827.492	655.715
375.956	23.743	826.797	655.974
376.971	23.750	826.610	655.793
377.986	23.877	826.035	655.747
379.000	23.941	825.730	655.683
380.015	24.118	825.183	655.843
381.029	24.028	824.272	654.730
382.044	24.036	823.489	654.080
383.059	24.120	823.340	654.210
384.073	24.193	822.541	653.784
385.088	24.164	821.965	653.165
386.102	24.044	821.482	652.284
387.117	24.020	820.818	651.610
388.132	23.903	820.248	650.672
389.146	23.641	819.755	649.263
390.161	23.050	818.744	646.248
391.175	23.150	818.606	646.446
392.190	23.737	818.533	648.476
393.205	23.752	817.938	648.002
394.219	22.755	816.469	643.149
395.234	21.274	813.705	635.532
396.248	20.501	812.674	631.860
397.263	21.636	813.770	636.786
398.278	23.361	815.197	644.124
399.292	23.880	815.066	645.849
400.307	23.402	814.761	643.814
401.321	23.402	813.658	642.885
402.336	23.390	813.580	642.722
403.350	23.705	813.318	643.601
404.365	24.180	813.446	645.367
405.380	24.488	812.929	646.015
406.394	24.755	812.835	646.848
407.409	24.963	812.189	647.029
408.423	24.884	811.887	646.443
409.438	24.761	811.175	645.376
410.453	24.829	810.750	645.225
411.467	25.039	809.954	645.290
412.482	24.924	809.760	644.668
413.496	24.705	809.102	643.298
414.511	24.938	808.883	643.903
415.526	24.784	808.787	643.217
416.540	24.856	808.062	642.844
417.555	24.814	807.788	642.415
418.569	24.552	806.820	640.652
419.584	24.496	805.914	639.672
420.599	24.513	805.810	639.597
421.613	153.493	1364.305	1792.332
422.628	133.306	1445.655	1792.444
