DTS Sentinel unit serial number:	SN413079Multiplexer serial number:	ORYXHardware model number:	OX4-SRSoftware version number:	ORYX F/W v4.00 Oryx Data Collector v3.7.2.0data status	okinstallation	princeton_trtdifferential loss correction	single-endedforward channel	channel 3reverse channel	N/Adate	2019/09/11time	07:54:11forward acquisition time	60.00reverse acquisition time	0.00gamma	496.2192k internal	0.2321k external	0.2321temperature offset calibration	1.0087default loss term (dB/km)	0.3790temperature slope calibration	1.0000multiplexer offset coefficient	1.0000multiplexer slope coefficient	1.0000fibre end	0.00T internal ref (°C)	31.92T ext. ref 1 (°C)	3.86T ext. ref 2 (°C)	28.75length (m)	temperature (°C)	Stokes	anti-Stokes-747.200	155.312	0.160	0.223
-746.185	800.000	0.014	-0.044
-745.171	359.626	0.074	0.150
-744.156	68.885	-0.121	0.126
-743.142	800.000	-0.043	0.184
-742.127	-200.000	0.106	0.611
-741.112	-104.857	0.137	0.032
-740.098	76.676	-0.091	0.097
-739.083	-200.000	0.015	0.238
-738.069	-127.286	0.190	-0.028
-737.054	-19.019	-0.155	0.097
-736.039	-200.000	-0.022	0.161
-735.025	69.771	0.103	-0.108
-734.010	12.490	-0.270	-0.210
-732.996	-148.093	-0.294	-0.025
-731.981	23.868	-0.148	0.123
-730.966	288.858	-0.022	-0.040
-729.952	-200.000	0.020	-0.162
-728.937	-97.008	-0.138	-0.036
-727.923	555.767	-0.069	-0.169
-726.908	730.925	-0.089	0.239
-725.894	-113.458	0.184	-0.036
-724.879	193.350	-0.009	0.014
-723.864	-140.428	0.477	-0.050
-722.850	152.200	-0.126	0.174
-721.835	800.000	-0.027	-0.108
-720.821	-113.471	0.137	-0.027
-719.806	-200.000	-0.002	-0.221
-718.791	369.392	-0.032	0.065
-717.777	225.688	-0.084	0.137
-716.762	-137.662	-0.108	-0.012
-715.748	800.000	-0.052	-0.185
-714.733	-114.879	0.113	-0.022
-713.718	800.000	0.050	-0.160
-712.704	-152.399	-0.155	0.011
-711.689	-164.879	0.139	0.006
-710.675	-132.915	-0.297	-0.038
-709.660	106.310	-0.124	-0.148
-708.645	-1.489	-0.120	0.085
-707.631	-81.312	-0.350	0.116
-706.616	-68.423	-0.159	0.062
-705.602	342.824	-0.159	-0.314
-704.587	-108.049	0.077	-0.017
-703.572	274.533	-0.076	-0.135
-702.558	-72.518	0.061	-0.023
-701.543	800.000	-0.087	-0.361
-700.529	-200.000	0.009	0.057
-699.514	157.466	-0.250	-0.349
-698.499	-159.261	-0.175	0.010
-697.485	-80.747	-0.173	-0.058
-696.470	-47.857	-0.393	-0.192
-695.456	87.466	0.125	0.139
-694.441	-15.920	-0.205	-0.131
-693.426	-100.673	-0.227	0.056
-692.412	-52.283	0.107	0.050
-691.397	-16.046	-0.107	-0.069
-690.383	-164.678	-0.026	0.001
-689.368	-67.118	-0.333	0.132
-688.354	-49.568	0.247	0.119
-687.339	32.145	0.129	-0.112
-686.324	-82.422	0.182	-0.060
-685.310	-150.861	0.095	-0.007
-684.295	800.000	-0.028	0.124
-683.281	25.229	0.182	-0.153
-682.266	34.515	0.271	0.238
-681.251	-122.359	-0.460	0.076
-680.237	800.000	-0.051	0.186
-679.222	215.820	0.135	-0.217
-678.208	-103.711	-0.166	0.039
-677.193	180.136	-0.281	0.415
-676.178	-128.230	0.143	0.021
-675.164	257.906	-0.090	-0.156
-674.149	-41.458	-0.278	0.144
-673.135	-106.561	-0.257	0.058
-672.120	32.303	-0.263	-0.229
-671.105	-200.000	0.000	-0.092
-670.091	-48.927	-0.173	-0.083
-669.076	272.336	-0.080	-0.142
-668.062	411.941	-0.069	-0.148
-667.047	-94.309	0.105	0.029
-666.032	53.828	-0.161	0.156
-665.018	-150.441	-0.284	0.022
-664.003	-113.303	0.345	-0.068
-662.989	-76.750	-0.017	0.006
-661.974	800.000	-0.111	0.452
-660.959	-124.452	-0.303	-0.048
-659.945	-113.855	-0.320	0.063
-658.930	-117.979	-0.153	0.028
-657.916	-113.798	0.122	-0.024
-656.901	125.361	0.116	0.147
-655.886	59.217	-0.174	-0.173
-654.872	-186.917	-0.268	0.004
-653.857	12.090	-0.180	0.140
-652.843	-200.000	0.030	-0.133
-651.828	191.236	0.145	-0.220
-650.814	-22.598	-0.332	-0.202
-649.799	-200.000	-0.041	-0.184
-648.784	-92.107	-0.340	0.097
-647.770	125.038	-0.061	0.077
-646.755	-9.926	-0.401	-0.268
-645.741	222.147	-0.122	-0.197
-644.726	800.000	0.073	-0.289
-643.711	800.000	-0.076	-0.283
-642.697	-200.000	0.025	-0.176
-641.682	-13.659	-0.108	-0.070
-640.668	194.242	0.066	-0.100
-639.653	24.244	0.188	-0.157
-638.638	33.192	-0.222	0.194
-637.624	-200.000	-0.011	0.103
-636.609	-66.693	0.124	0.050
-635.595	32.155	0.219	0.190
-634.580	-128.960	-0.310	-0.044
-633.565	-83.104	0.346	-0.112
-632.551	-3.781	-0.168	0.118
-631.536	-200.000	0.015	0.157
-630.522	353.502	-0.106	-0.211
-629.507	-118.685	0.354	-0.063
-628.492	51.640	-0.225	-0.215
-627.478	-200.000	-0.011	-0.200
-626.463	-112.326	0.139	0.028
-625.449	-100.802	0.019	-0.005
-624.434	364.681	-0.072	-0.146
-623.419	-49.568	0.282	0.135
-622.405	213.963	0.052	-0.083
-621.390	17.552	-0.206	-0.164
-620.376	-200.000	0.035	-0.376
-619.361	-141.754	-0.354	-0.036
-618.346	495.042	0.082	0.190
-617.332	800.000	-0.019	0.055
-616.317	132.774	0.214	0.278
-615.303	-130.769	-0.119	0.016
-614.288	-200.000	-0.008	0.083
-613.273	-200.000	0.033	-0.313
-612.259	79.102	0.138	0.149
-611.244	219.569	-0.146	-0.235
-610.230	-61.402	-0.208	0.088
-609.215	104.245	0.089	0.105
-608.201	-200.000	-0.023	-0.216
-607.186	0.715	-0.159	-0.114
-606.171	-47.665	-0.410	-0.200
-605.157	629.805	0.011	0.028
-604.142	-200.000	-0.004	-0.027
-603.128	-9.616	0.232	-0.155
-602.113	388.200	-0.042	0.087
-601.098	-81.876	0.373	-0.123
-600.084	800.000	0.027	0.097
-599.069	-21.289	-0.193	0.118
-598.055	73.628	-0.171	0.181
-597.040	-200.000	-0.008	-0.229
-596.025	527.367	0.053	-0.125
-595.011	42.985	-0.067	0.061
-593.996	-129.366	0.250	0.035
-592.982	174.880	-0.090	0.131
-591.967	285.610	-0.218	0.395
-590.952	-200.000	-0.004	0.165
-589.938	800.000	0.083	0.274
-588.923	63.653	-0.122	-0.123
-587.909	800.000	-0.022	-0.083
-586.894	800.000	-0.059	-0.182
-585.879	31.314	0.250	0.216
-584.865	-131.253	0.284	-0.038
-583.850	-35.900	-0.246	-0.134
-582.836	-141.941	0.296	-0.030
-581.821	-200.000	-0.020	0.126
-580.806	-116.164	-0.292	0.054
-579.792	-200.000	0.078	-0.386
-578.777	-200.000	-0.026	-0.453
-577.763	374.584	0.094	-0.192
-576.748	9.876	-0.270	0.206
-575.733	-102.391	0.383	-0.092
-574.719	531.555	-0.064	0.152
-573.704	427.624	0.069	-0.149
-572.690	-120.970	-0.061	-0.010
-571.675	-120.420	0.251	0.043
-570.661	199.438	0.054	-0.083
-569.646	-79.686	-0.136	-0.046
-568.631	-76.460	0.286	-0.101
-567.617	435.271	0.073	0.159
-566.602	7.070	-0.392	0.293
-565.588	136.655	-0.063	-0.082
-564.573	-82.135	-0.361	-0.118
-563.558	-59.261	0.293	-0.127
-562.544	-106.491	-0.277	-0.062
-561.529	224.128	-0.039	0.063
-560.515	-85.026	-0.154	-0.048
-559.500	-57.002	0.062	0.027
-558.485	-122.029	-0.255	-0.042
-557.471	257.484	0.152	0.262
-556.456	-200.000	0.053	-0.235
-555.442	-187.019	-0.293	0.004
-554.427	-65.827	-0.179	-0.072
-553.412	-200.000	-0.042	-0.249
-552.398	-186.460	0.052	0.001
-551.383	-26.886	-0.179	-0.105
-550.369	800.000	-0.043	0.186
-549.354	181.389	-0.034	0.051
-548.339	-200.000	-0.034	0.255
-547.325	-7.637	0.056	-0.038
-546.310	-103.187	-0.298	-0.071
-545.296	472.518	0.119	0.269
-544.281	-92.804	0.158	0.044
-543.266	264.858	-0.170	0.297
-542.252	236.761	0.151	-0.251
-541.237	-92.053	0.270	-0.077
-540.223	-166.006	0.263	0.011
-539.208	322.714	0.030	0.057
-538.193	66.131	-0.052	0.053
-537.179	800.000	-0.187	-0.539
-536.164	-139.387	0.065	0.007
-535.150	-97.817	0.270	0.070
-534.135	-200.000	-0.005	-0.107
-533.121	60.341	0.270	-0.268
-532.106	-23.922	-0.261	-0.157
-531.091	70.551	0.161	0.167
-530.077	-98.272	-0.129	-0.033
-529.062	-200.000	0.030	0.362
-528.048	-175.660	-0.176	0.005
-527.033	323.915	0.103	-0.196
-526.018	-200.000	0.078	0.429
-525.004	-101.165	-0.357	-0.088
-523.989	184.419	-0.187	-0.277
-522.975	121.081	-0.127	0.159
-521.960	46.703	0.263	0.244
-520.945	-106.303	-0.283	-0.064
-519.931	118.922	-0.138	-0.171
-518.916	277.618	-0.156	-0.278
-517.902	-0.731	-0.102	0.072
-516.887	121.316	-0.160	0.200
-515.872	303.310	0.057	-0.105
-514.858	-126.319	0.422	-0.063
-513.843	-83.067	-0.489	0.158
-512.829	-42.778	0.209	-0.107
-511.814	-200.000	0.000	0.166
-510.799	-103.241	-0.403	0.095
-509.785	-102.435	0.197	-0.047
-508.770	210.496	-0.065	0.102
-507.756	74.512	-0.329	-0.346
-506.741	-200.000	-0.030	-0.147
-505.726	-50.671	-0.310	-0.146
-504.712	107.266	0.071	-0.084
-503.697	-163.655	0.371	0.018
-502.683	15.204	-0.168	-0.132
-501.668	800.000	0.069	0.257
-500.653	148.414	-0.141	0.190
-499.639	481.463	-0.030	-0.068
-498.624	38.878	-0.175	0.157
-497.610	9.622	0.266	-0.202
-496.595	-200.000	-0.011	-0.248
-495.581	-49.254	-0.226	0.108
-494.566	18.736	0.085	-0.068
-493.551	-127.319	-0.262	0.038
-492.537	-200.000	0.010	-0.197
-491.522	-189.558	0.320	0.004
-490.508	-87.514	-0.147	-0.045
-489.493	204.389	0.232	0.360
-488.478	800.000	-0.147	0.424
-487.464	52.224	-0.116	0.110
-486.449	-93.953	0.103	-0.028
-485.435	-35.549	-0.240	0.130
-484.420	-73.115	-0.252	0.092
-483.405	-200.000	0.001	-0.253
-482.391	800.000	0.073	0.261
-481.376	93.589	0.071	0.081
-480.362	-200.000	-0.055	-0.380
-479.347	101.334	-0.095	-0.110
-478.332	800.000	0.020	0.074
-477.318	-200.000	-0.004	-0.261
-476.303	63.513	0.028	0.029
-475.289	-200.000	-0.006	-0.037
-474.274	-81.608	-0.289	-0.095
-473.259	-6.739	-0.186	0.126
-472.245	120.887	0.048	-0.060
-471.230	105.352	0.197	-0.233
-470.216	-50.552	0.242	-0.114
-469.201	70.675	0.119	-0.124
-468.186	146.454	-0.093	0.124
-467.172	132.549	0.095	-0.122
-466.157	-200.000	-0.003	-0.170
-465.143	385.789	-0.034	0.070
-464.128	-200.000	-0.096	0.475
-463.113	216.089	-0.099	0.158
-462.099	240.341	-0.107	-0.178
-461.084	-152.027	-0.161	-0.012
-460.070	-62.073	0.088	-0.037
-459.055	800.000	0.010	-0.031
-458.040	-80.926	-0.081	-0.027
-457.026	212.054	0.145	-0.229
-456.011	-107.430	-0.094	0.021
-454.997	373.578	-0.037	0.076
-453.982	-200.000	-0.062	-0.299
-452.968	-67.105	0.176	-0.069
-451.953	-200.000	0.024	0.259
-450.938	-137.878	-0.082	-0.009
-449.924	-188.370	0.386	-0.005
-448.909	-119.326	0.199	0.035
-447.895	-200.000	0.065	0.357
-446.880	-78.075	-0.230	0.079
-445.865	800.000	-0.020	0.072
-444.851	-138.928	-0.313	-0.034
-443.836	800.000	0.130	-0.363
-442.822	126.503	-0.033	-0.041
-441.807	-108.025	-0.050	-0.011
-440.792	-69.835	0.071	0.027
-439.778	24.904	0.213	0.177
-438.763	-200.000	0.047	0.310
-437.749	17.024	-0.266	-0.211
-436.734	-71.941	0.505	-0.188
-435.719	-65.881	-0.209	0.083
-434.705	314.618	0.143	0.269
-433.690	-24.453	-0.385	-0.229
-432.676	-184.202	-0.045	-0.001
-431.661	-100.056	-0.114	-0.028
-430.646	0.971	0.063	-0.045
-429.632	597.203	0.123	0.305
-428.617	107.155	-0.146	-0.173
-427.603	-200.000	0.021	-0.196
-426.588	800.000	-0.028	0.103
-425.573	800.000	-0.074	0.250
-424.559	-72.079	0.213	-0.079
-423.544	11.481	0.134	-0.102
-422.530	-102.784	0.081	-0.019
-421.515	800.000	-0.059	0.187
-420.500	159.971	0.149	0.207
-419.486	-147.164	0.367	-0.031
-418.471	675.573	0.082	0.213
-417.457	-76.606	0.187	-0.066
-416.442	-118.398	-0.064	-0.011
-415.428	-196.356	-0.015	-0.000
-414.413	-83.438	-0.169	-0.054
-413.398	800.000	0.033	-0.134
-412.384	-200.000	-0.040	0.284
-411.369	-88.766	0.429	0.127
-410.355	-42.060	-0.277	0.141
-409.340	800.000	-0.038	-0.117
-408.325	-102.088	-0.267	-0.064
-407.311	-144.931	0.401	-0.037
-406.296	137.470	-0.199	0.260
-405.282	43.316	-0.170	0.155
-404.267	-156.677	0.163	-0.010
-403.252	-78.238	-0.100	-0.034
-402.238	-38.930	0.206	-0.108
-401.223	36.362	-0.082	-0.072
-400.209	-66.984	0.132	-0.052
-399.194	256.999	0.012	-0.020
-398.179	-89.114	-0.169	0.050
-397.165	160.852	-0.185	-0.258
-396.150	-72.611	-0.129	-0.047
-395.136	154.744	-0.106	0.146
-394.121	6.512	0.147	-0.109
-393.106	-15.847	0.092	0.059
-392.092	-60.499	0.264	-0.112
-391.077	194.548	-0.194	0.293
-390.063	-200.000	0.036	-0.160
-389.048	153.386	0.192	0.261
-388.033	81.113	-0.045	-0.048
-387.019	167.106	0.204	0.289
-386.004	556.714	-0.126	0.304
-384.990	-63.627	-0.264	-0.108
-383.975	800.000	-0.054	-0.224
-382.960	-14.662	0.242	-0.155
-381.946	31.036	-0.076	-0.065
-380.931	241.198	-0.195	-0.325
-379.917	363.386	0.123	-0.246
-378.902	-200.000	-0.018	-0.424
-377.888	33.502	-0.105	0.090
-376.873	-34.234	-0.273	0.150
-375.858	-116.320	0.117	-0.022
-374.844	-132.094	0.186	0.024
-373.829	-13.224	0.068	0.044
-372.815	-131.367	0.362	-0.048
-371.800	95.983	-0.316	0.360
-370.785	95.271	-0.143	0.162
-369.771	-111.129	0.145	-0.030
-368.756	800.000	0.024	-0.105
-367.742	270.416	0.059	0.103
-366.727	-4.440	0.239	0.164
-365.712	-200.000	0.082	-0.389
-364.698	800.000	0.058	0.180
-363.683	53.043	-0.148	0.141
-362.669	800.000	-0.095	0.292
-361.654	39.148	-0.120	0.107
-360.639	-26.335	-0.283	0.165
-359.625	-110.241	-0.101	0.021
-358.610	126.746	0.115	-0.145
-357.596	186.674	0.196	0.291
-356.581	-200.000	0.048	-0.305
-355.566	65.025	-0.276	0.277
-354.552	-200.000	0.018	-0.081
-353.537	80.924	0.166	0.179
-352.523	-133.471	0.339	-0.042
-351.508	16.632	0.157	-0.123
-350.493	185.068	-0.084	0.124
-349.479	-200.000	0.170	0.000
-348.464	95.349	-0.127	0.144
-347.450	198.685	-0.152	-0.231
-346.435	-124.476	-0.082	-0.013
-345.420	19.122	0.074	0.059
-344.406	-21.957	-0.047	-0.028
-343.391	-109.265	0.123	0.026
-342.377	-98.367	-0.172	0.044
-341.362	548.921	0.102	0.244
-340.348	-200.000	0.015	-0.094
-339.333	-96.020	-0.253	0.067
-338.318	106.647	-0.268	0.316
-337.304	251.652	0.062	0.106
-336.289	146.471	-0.232	0.310
-335.275	162.509	-0.128	0.178
-334.260	-53.934	-0.114	-0.052
-333.245	-200.000	-0.033	-0.255
-332.231	240.296	0.100	0.166
-331.216	-44.526	0.357	-0.178
-330.202	216.649	-0.090	0.142
-329.187	180.206	-0.221	-0.322
-328.172	380.296	-0.015	-0.031
-327.158	20.585	0.023	-0.018
-326.143	-67.442	-0.180	0.070
-325.129	53.872	-0.122	-0.117
-324.114	-111.469	0.086	-0.017
-323.099	131.282	0.069	0.088
-322.085	-127.454	-0.073	0.011
-321.070	-200.000	-0.033	-0.248
-320.056	662.233	-0.028	-0.072
-319.041	-96.749	0.065	0.017
-318.026	21.779	0.271	0.220
-317.012	-15.454	0.128	-0.081
-315.997	80.746	0.238	0.255
-314.983	256.810	-0.214	-0.366
-313.968	291.048	0.162	-0.292
-312.953	-200.000	0.013	-0.197
-311.939	244.220	-0.109	-0.181
-310.924	-200.000	-0.010	-0.272
-309.910	767.441	-0.010	-0.026
-308.895	199.111	0.055	-0.084
-307.880	800.000	-0.081	0.314
-306.866	55.213	0.387	0.372
-305.851	-34.015	-0.533	-0.291
-304.837	-179.357	0.122	-0.003
-303.822	45.687	-0.095	-0.087
-302.807	-42.451	0.204	0.103
-301.793	-37.001	0.170	0.091
-300.778	-200.000	0.012	0.077
-299.764	-159.135	-0.155	-0.009
-298.749	800.000	-0.044	0.167
-297.735	-29.663	0.268	0.152
-296.720	-159.801	-0.098	-0.005
-295.705	-200.000	0.009	0.332
-294.691	146.960	-0.179	-0.239
-293.676	-130.861	-0.357	0.047
-292.662	800.000	-0.061	-0.188
-291.647	-70.061	0.258	0.097
-290.632	172.767	0.207	0.296
-289.618	11.380	0.166	-0.126
-288.603	63.802	0.009	-0.009
-287.589	-62.005	-0.351	-0.145
-286.574	-200.000	0.001	0.137
-285.559	-39.180	-0.090	0.047
-284.545	-200.000	-0.077	0.366
-283.530	238.737	0.187	0.308
-282.516	270.075	0.128	-0.223
-281.501	426.743	0.066	-0.141
-280.486	-200.000	-0.044	0.367
-279.472	-25.420	0.114	-0.067
-278.457	-200.000	0.021	0.293
-277.443	-200.000	-0.038	0.312
-276.428	-118.361	0.385	-0.068
-275.413	-149.406	-0.510	0.040
-274.399	-69.379	-0.197	-0.075
-273.384	98.849	-0.103	-0.118
-272.370	-32.696	0.256	-0.141
-271.355	-200.000	0.025	-0.145
-270.340	73.255	-0.040	-0.041
-269.326	-200.000	-0.024	0.104
-268.311	-131.057	-0.046	-0.006
-267.297	800.000	-0.146	-0.423
-266.282	42.957	0.219	0.198
-265.267	39.593	0.170	-0.151
-264.253	-93.614	-0.102	0.028
-263.238	800.000	0.064	0.230
-262.224	99.466	-0.172	0.198
-261.209	291.979	-0.066	0.119
-260.195	-93.259	0.127	-0.035
-259.180	283.736	-0.027	0.048
-258.165	800.000	0.112	-0.356
-257.151	106.424	0.062	-0.073
-256.136	-89.874	0.336	-0.097
-255.122	800.000	-0.002	-0.008
-254.107	-200.000	-0.011	0.292
-253.092	297.775	0.050	0.091
-252.078	169.065	-0.075	0.106
-251.063	25.960	-0.283	-0.234
-250.049	402.198	0.049	-0.103
-249.034	91.668	0.266	-0.296
-248.019	-132.917	0.276	-0.035
-247.005	-97.296	0.266	-0.069
-245.990	141.456	0.143	0.188
-244.976	-8.390	-0.167	-0.111
-243.961	-200.000	0.042	0.287
-242.946	64.143	0.229	0.228
-241.932	-140.368	0.043	0.004
-240.917	532.184	0.126	-0.295
-239.903	248.831	0.123	-0.207
-238.888	-50.453	0.328	-0.154
-237.873	-60.536	0.548	-0.231
-236.859	-69.937	0.219	0.083
-235.844	-106.120	0.046	0.010
-234.830	800.000	-0.074	0.312
-233.815	-28.197	-0.191	0.110
-232.800	156.606	-0.186	-0.255
-231.786	39.298	-0.243	-0.216
-230.771	161.419	0.108	-0.149
-229.757	62.670	-0.120	-0.119
-228.742	-200.000	0.141	-0.651
-227.727	-12.978	0.147	0.095
-226.713	84.176	-0.153	0.166
-225.698	-86.903	0.237	-0.072
-224.684	37.862	0.116	-0.102
-223.669	800.000	-0.071	-0.242
-222.655	-69.542	0.134	-0.051
-221.640	-166.545	-0.198	-0.008
-220.625	-153.799	0.163	-0.011
-219.611	-85.439	-0.091	-0.028
-218.596	-80.650	-0.083	0.027
-217.582	154.950	0.204	0.278
-216.567	26.614	0.281	-0.233
-215.552	38.390	0.100	-0.088
-214.538	-63.642	0.373	0.151
-213.523	-127.686	-0.325	-0.047
-212.509	11.975	-0.320	-0.243
-211.494	-200.000	0.040	0.215
-210.479	800.000	-0.056	0.182
-209.465	235.513	0.082	0.134
-208.450	-200.000	0.046	-0.264
-207.436	-90.479	-0.252	-0.072
-206.421	-148.022	0.380	-0.031
-205.406	-107.630	0.140	0.030
-204.392	-10.218	0.032	0.021
-203.377	75.769	0.211	0.220
-202.363	115.681	-0.075	0.091
-201.348	-35.525	-0.206	0.111
-200.333	-55.230	0.311	-0.138
-199.319	-0.919	0.271	0.190
-198.304	-85.630	-0.178	-0.055
-197.290	40.286	0.290	0.258
-196.275	17.863	-0.256	0.202
-195.260	800.000	0.035	-0.114
-194.246	279.943	-0.196	-0.347
-193.231	-51.031	0.151	0.070
-192.217	-6.700	0.386	-0.260
-191.202	-200.000	0.026	-0.301
-190.187	121.684	0.167	-0.206
-189.173	75.738	0.082	0.086
-188.158	-200.000	-0.007	0.122
-187.144	-200.000	0.008	-0.052
-186.129	-10.156	-0.003	-0.002
-185.114	-200.000	0.011	0.154
-184.100	-200.000	-0.012	0.070
-183.085	306.341	-0.036	0.066
-182.071	-80.503	0.167	-0.055
-181.056	-200.000	-0.237	-0.001
-180.042	-48.144	0.292	0.139
-179.027	-58.814	0.209	0.090
-178.012	800.000	-0.052	0.198
-176.998	-108.295	-0.088	-0.019
-175.983	138.543	0.220	-0.285
-174.969	108.246	-0.062	0.073
-173.954	22.024	-0.167	-0.135
-172.939	-99.750	-0.241	0.060
-171.925	-173.697	0.129	-0.004
-170.910	-99.891	-0.022	0.005
-169.896	-200.000	-0.030	0.428
-168.881	142.687	-0.148	0.194
-167.866	800.000	-0.042	-0.152
-166.852	-2.360	-0.399	0.276
-165.837	-181.029	-0.264	0.005
-164.823	-135.418	0.255	0.030
-163.808	-197.351	-0.136	-0.001
-162.793	-23.823	-0.389	-0.230
-161.779	-163.393	-0.080	0.004
-160.764	-154.974	-0.199	-0.013
-159.750	90.727	-0.193	0.214
-158.735	-200.000	0.034	0.265
-157.720	380.745	0.176	0.356
-156.706	-200.000	-0.003	-0.105
-155.691	483.724	0.118	0.265
-154.677	-200.000	-0.002	0.132
-153.662	159.194	0.302	0.415
-152.647	800.000	0.070	-0.204
-151.633	-200.000	0.045	0.296
-150.618	-145.008	0.565	0.051
-149.604	-200.000	-0.065	0.588
-148.589	6.388	-0.328	0.241
-147.574	245.930	-0.109	-0.181
-146.560	-27.190	0.129	0.074
-145.545	-155.797	-0.284	-0.018
-144.531	-200.000	0.046	0.242
-143.516	75.068	0.107	-0.111
-142.502	800.000	-0.066	-0.278
-141.487	107.503	-0.255	-0.300
-140.472	68.326	0.116	-0.118
-139.458	-71.794	0.022	0.008
-138.443	209.911	-0.051	-0.080
-137.429	800.000	-0.095	-0.394
-136.414	33.182	0.094	0.080
-135.399	-200.000	0.022	-0.133
-134.385	-44.405	0.014	0.007
-133.370	-45.121	0.071	0.035
-132.356	-14.745	-0.194	-0.123
-131.341	-120.960	0.119	0.020
-130.326	123.428	-0.221	0.273
-129.312	-65.315	0.281	0.112
-128.297	-24.194	0.133	0.078
-127.283	-102.929	-0.414	-0.097
-126.268	113.631	-0.087	0.104
-125.253	-161.412	-0.249	-0.013
-124.239	684.795	0.069	0.177
-123.224	-170.496	0.299	0.010
-122.210	-181.793	-0.369	0.007
-121.195	-200.000	0.008	0.078
-120.180	-89.709	0.135	-0.039
-119.166	800.000	0.042	-0.167
-118.151	217.778	-0.211	-0.332
-117.137	34.078	0.093	-0.080
-116.122	-200.000	0.001	-0.085
-115.107	183.921	0.180	-0.262
-114.093	-51.893	0.506	0.232
-113.078	110.565	-0.152	-0.180
-112.064	34.566	-0.214	-0.184
-111.049	162.428	0.104	-0.144
-110.034	152.532	-0.239	-0.322
-109.020	-39.643	0.112	0.058
-108.005	-99.345	-0.314	-0.078
-106.991	182.666	-0.164	0.239
-105.976	-200.000	-0.002	0.078
-104.962	-200.000	-0.007	-0.167
-103.947	49.408	0.204	-0.190
-102.932	-58.237	-0.076	0.033
-101.918	-59.997	-0.416	-0.175
-100.903	-200.000	-0.012	-0.076
-99.889	5.825	-0.125	-0.091
-98.874	331.110	-0.232	-0.440
-97.859	-68.044	-0.039	-0.015
-96.845	-18.782	0.163	0.100
-95.830	418.618	0.141	0.297
-94.816	20.871	-0.038	0.031
-93.801	612.502	0.165	-0.408
-92.786	26.385	0.131	-0.108
-91.772	302.453	-0.191	-0.349
-90.757	108.167	0.178	0.209
-89.743	800.000	-0.084	0.359
-88.728	237.277	0.055	-0.090
-87.713	78.470	-0.213	-0.224
-86.699	-92.894	-0.443	0.122
-85.684	-41.922	0.393	0.198
-84.670	218.764	0.059	0.093
-83.655	40.741	-0.312	0.277
-82.640	800.000	0.087	0.266
-81.626	-120.688	-0.327	-0.054
-80.611	-200.000	-0.011	0.381
-79.597	-160.140	0.172	0.009
-78.582	100.945	0.285	0.326
-77.567	800.000	0.015	-0.058
-76.553	609.920	-0.046	0.114
-75.538	-132.112	-0.122	-0.016
-74.524	175.744	-0.140	-0.200
-73.509	9.244	-0.195	0.145
-72.494	-174.753	0.284	0.008
-71.480	150.093	0.081	-0.108
-70.465	166.124	-0.176	-0.246
-69.451	-200.000	-0.002	0.233
-68.436	-31.859	-0.139	-0.077
-67.422	-200.000	0.020	0.464
-66.407	-84.025	-0.183	-0.057
-65.392	596.433	0.087	0.211
-64.378	-200.000	0.044	0.197
-63.363	-26.103	0.204	-0.118
-62.349	-200.000	-0.016	0.229
-61.334	-22.279	-1.075	-0.641
-60.319	7.800	0.351	0.258
-59.305	800.000	-0.338	-1.096
-58.290	39.218	0.899	0.792
-57.276	800.000	0.467	1.639
-56.261	-200.000	100.907	641.726
-55.246	621.109	1451.419	3591.894
-54.232	180.313	2663.591	3843.483
-53.217	117.972	2205.433	2672.915
-52.203	42.941	1731.546	1552.810
-51.188	35.018	1544.350	1330.099
-50.173	32.723	1517.282	1291.041
-49.159	53.663	1569.397	1481.605
-48.144	55.164	1587.320	1508.908
-47.130	35.430	1543.399	1331.927
-46.115	32.222	1528.364	1296.808
-45.100	32.070	1525.398	1293.195
-44.086	32.014	1523.461	1291.118
-43.071	31.941	1521.663	1289.038
-42.057	31.880	1519.669	1286.879
-41.042	31.861	1518.376	1285.606
-40.027	31.923	1517.157	1284.943
-39.013	31.912	1515.469	1283.391
-37.998	31.805	1514.080	1281.427
-36.984	31.913	1513.202	1281.372
-35.969	31.937	1511.834	1280.327
-34.954	31.888	1510.432	1278.760
-33.940	31.920	1508.937	1277.658
-32.925	31.989	1507.334	1276.720
-31.911	31.957	1506.338	1275.610
-30.896	32.059	1504.377	1274.591
-29.881	32.015	1503.420	1273.428
-28.867	31.983	1501.985	1271.944
-27.852	31.982	1500.584	1270.701
-26.838	31.966	1498.927	1269.142
-25.823	31.902	1497.694	1267.613
-24.809	32.036	1495.615	1266.706
-23.794	31.997	1494.700	1265.621
-22.779	31.928	1493.284	1263.904
-21.765	31.841	1493.037	1263.062
-20.750	31.998	1491.368	1262.656
-19.736	31.940	1490.529	1261.503
-18.721	32.010	1488.694	1260.374
-17.706	31.923	1488.121	1259.251
-16.692	31.911	1486.786	1257.995
-15.677	32.001	1486.105	1257.971
-14.663	31.858	1485.551	1256.490
-13.648	31.927	1484.258	1255.812
-12.633	31.809	1483.143	1254.025
-11.619	31.920	1481.962	1253.719
-10.604	31.909	1481.215	1252.967
-9.590	31.812	1481.025	1252.111
-8.575	31.955	1479.600	1251.806
-7.560	31.839	1478.706	1250.232
-6.546	31.911	1477.651	1249.765
-5.531	31.822	1477.157	1248.708
-4.517	31.712	1476.610	1247.459
-3.502	31.826	1475.078	1246.879
-2.487	31.798	1474.263	1245.952
-1.473	31.825	1472.456	1244.555
-0.458	31.957	1471.236	1244.346
0.556	32.914	1462.108	1234.010
1.571	30.380	1437.277	1196.640
2.586	27.443	1377.047	1128.228
3.600	26.063	1296.008	1053.682
4.615	24.580	1250.570	1008.287
5.629	22.120	1194.400	949.638
6.644	13.624	1108.215	838.244
7.659	5.714	1065.044	766.936
8.673	4.093	1059.020	754.640
9.688	3.876	1055.039	750.684
10.702	3.740	1053.531	748.883
11.717	3.711	1051.355	747.130
12.731	6.974	1055.343	765.716
13.746	16.067	1068.067	819.262
14.761	22.656	1076.658	857.950
15.775	24.137	1078.159	866.280
16.790	24.453	1077.340	867.080
17.804	24.381	1076.409	865.905
18.819	24.093	1075.804	863.945
19.834	24.269	1074.865	863.967
20.848	24.401	1074.685	864.385
21.863	24.412	1074.251	864.013
22.877	24.314	1074.173	863.398
23.892	24.364	1073.280	862.844
24.907	24.157	1072.310	860.987
25.921	24.296	1071.561	860.981
26.936	24.254	1071.077	860.313
27.950	24.276	1069.954	859.442
28.965	24.301	1068.614	858.412
29.980	24.119	1066.839	856.036
30.994	23.995	1065.921	854.629
32.009	24.297	1065.174	855.401
33.023	24.382	1064.329	855.055
34.038	24.151	1063.095	852.879
35.053	24.131	1062.054	851.876
36.067	24.371	1061.735	852.691
37.082	24.290	1061.046	851.675
38.096	24.436	1060.055	851.503
39.111	24.512	1059.382	851.248
40.126	24.695	1058.462	851.306
41.140	24.500	1057.330	849.393
42.155	24.242	1055.840	846.891
43.169	24.033	1054.591	844.827
44.184	23.997	1053.210	843.473
45.199	23.965	1052.773	842.895
46.213	23.954	1051.713	841.923
47.228	23.875	1050.667	840.634
48.242	24.106	1049.582	840.783
49.257	24.117	1049.024	840.317
50.271	24.192	1048.643	840.290
51.286	24.385	1047.474	840.188
52.301	24.448	1046.522	839.645
53.315	24.424	1046.066	839.092
54.330	24.465	1045.246	838.553
55.344	24.214	1044.456	836.666
56.359	24.247	1043.363	835.875
57.374	24.268	1042.614	835.297
58.388	24.171	1041.582	833.944
59.403	24.093	1041.240	833.228
60.417	24.143	1040.117	832.492
61.432	24.011	1039.082	830.974
62.447	23.850	1039.035	830.110
63.461	24.122	1038.042	830.513
64.476	24.046	1037.545	829.685
65.490	23.977	1036.680	828.601
66.505	24.008	1034.921	827.265
67.520	24.073	1034.270	826.971
68.534	24.023	1034.209	826.620
69.549	23.972	1032.758	825.148
70.563	23.766	1031.475	823.097
71.578	23.547	1031.094	821.706
72.593	23.668	1029.989	821.311
73.607	23.522	1028.766	819.592
74.622	23.600	1027.693	819.025
75.636	23.885	1027.250	819.910
76.651	24.057	1026.074	819.691
77.666	23.796	1025.510	817.970
78.680	23.763	1024.418	816.874
79.695	23.752	1024.069	816.473
80.709	23.773	1023.705	816.204
81.724	24.039	1022.327	816.254
82.739	23.924	1021.448	814.955
83.753	23.904	1020.817	814.286
84.768	24.155	1020.170	814.849
85.782	24.496	1019.687	815.948
86.797	24.585	1018.916	815.667
87.812	24.591	1018.200	815.047
88.826	24.374	1017.448	813.383
89.841	24.494	1016.278	812.925
90.855	24.595	1015.342	812.561
91.870	24.591	1014.630	811.903
92.884	24.533	1013.858	810.949
93.899	24.524	1012.897	810.069
94.914	24.202	1012.161	807.947
95.928	24.370	1011.216	807.884
96.943	24.579	1010.343	808.058
97.957	24.148	1009.164	805.097
98.972	23.917	1008.293	803.287
99.987	23.744	1006.893	801.321
101.001	23.845	1006.503	801.394
102.016	24.174	1006.153	802.526
103.030	24.177	1005.197	801.707
104.045	24.056	1004.172	800.276
105.060	23.993	1002.916	798.921
106.074	23.845	1001.496	797.055
107.089	23.847	1000.894	796.517
108.103	24.185	1000.758	797.850
109.118	24.353	999.262	797.339
110.133	24.139	998.108	795.392
111.147	24.112	996.959	794.286
112.162	24.017	995.700	792.788
113.176	23.779	994.701	790.864
114.191	23.778	994.145	790.345
115.206	23.997	993.337	790.606
116.220	23.669	991.976	787.999
117.235	23.578	990.967	786.725
118.249	23.727	990.083	786.612
119.264	23.803	989.469	786.393
120.279	23.601	988.865	784.947
121.293	23.599	988.029	784.205
122.308	23.624	987.623	783.928
123.322	23.709	986.439	783.291
124.337	23.720	985.523	782.545
125.352	23.621	983.788	780.660
126.366	23.281	981.953	777.641
127.381	22.964	981.112	775.520
128.395	23.402	980.805	777.127
129.410	24.037	980.390	779.512
130.424	24.279	979.067	779.450
131.439	24.262	978.665	778.988
132.454	24.241	977.073	777.559
133.468	24.161	976.923	777.021
134.483	24.141	975.532	775.760
135.497	24.192	974.960	775.460
136.512	24.395	974.698	776.064
137.527	24.528	973.664	775.750
138.541	24.485	972.792	774.798
139.556	24.378	972.442	773.988
140.570	24.311	971.425	772.819
141.585	24.471	970.701	772.866
142.600	24.610	969.887	772.751
143.614	24.287	968.855	770.467
144.629	24.487	968.385	770.889
145.643	24.831	967.079	771.265
146.658	24.823	965.887	770.210
147.673	24.457	965.139	767.970
148.687	24.216	964.415	766.290
149.702	24.234	963.342	765.448
150.716	24.294	961.577	764.233
151.731	24.180	961.324	763.476
152.746	24.289	960.371	763.119
153.760	24.360	959.900	762.981
154.775	24.571	959.143	763.216
155.789	24.575	957.856	762.141
156.804	24.715	956.850	761.867
157.819	24.552	956.478	760.808
158.833	24.513	955.652	759.922
159.848	24.653	954.783	759.755
160.862	24.583	954.170	758.903
161.877	24.492	953.321	757.775
162.892	24.521	952.084	756.850
163.906	24.692	951.416	756.973
164.921	24.614	950.379	755.754
165.935	24.578	949.242	754.631
166.950	24.617	948.050	753.780
167.964	24.596	947.102	752.873
168.979	24.463	946.342	751.640
169.994	24.503	945.074	750.735
171.008	24.446	943.813	749.428
172.023	24.555	943.356	749.454
173.037	24.585	943.066	749.285
174.052	24.544	941.460	747.771
175.067	24.184	940.533	745.461
176.081	24.216	940.064	745.160
177.096	24.323	938.913	744.625
178.110	24.455	938.060	744.436
179.125	24.198	936.865	742.351
180.140	23.990	935.821	740.592
181.154	23.889	935.298	739.692
182.169	24.011	935.043	739.931
183.183	24.233	934.806	740.602
184.198	24.526	934.575	741.570
185.213	24.500	933.324	740.403
186.227	24.547	932.459	739.847
187.242	24.560	932.106	739.554
188.256	24.564	931.356	738.910
189.271	24.455	930.594	737.791
190.286	24.839	929.345	738.322
191.300	24.625	928.700	736.863
192.315	24.102	927.166	733.425
193.329	23.379	925.842	729.340
194.344	23.001	924.772	726.878
195.359	23.613	924.623	729.209
196.373	24.384	925.387	732.917
197.388	24.582	925.311	733.605
198.402	24.538	924.283	732.543
199.417	24.361	923.964	731.500
200.432	24.424	923.661	731.457
201.446	24.378	922.292	730.116
202.461	24.027	921.814	728.238
203.475	24.003	921.462	727.797
204.490	23.664	919.979	725.181
205.504	22.392	917.949	718.329
206.519	22.931	918.011	720.511
207.534	23.999	918.272	725.006
208.548	24.158	917.366	724.872
209.563	24.346	917.793	725.914
210.577	24.498	916.182	725.193
211.592	24.148	915.904	723.485
212.607	24.502	915.503	724.539
213.621	24.549	915.067	724.324
214.636	24.705	914.053	724.087
215.650	24.705	913.552	723.626
216.665	24.665	912.923	722.903
217.680	24.732	912.655	722.898
218.694	24.649	912.409	722.303
219.709	24.388	911.199	720.227
220.723	24.163	909.910	718.240
221.738	24.275	909.905	718.623
222.753	24.570	909.070	719.087
223.767	24.423	908.198	717.742
224.782	24.424	907.740	717.321
225.796	24.651	907.320	717.838
226.811	24.828	906.604	717.918
227.826	24.466	905.238	715.324
228.840	23.543	904.061	710.634
229.855	23.526	903.315	709.916
230.869	23.839	902.996	710.856
231.884	23.470	901.819	708.389
232.899	23.469	901.337	707.947
233.913	24.283	901.868	711.552
234.928	24.489	901.155	711.745
235.942	24.329	900.386	710.440
236.957	24.334	900.149	710.208
237.972	24.149	899.058	708.548
238.986	24.177	897.812	707.615
240.001	24.173	897.352	707.174
241.015	24.217	897.006	707.014
242.030	24.158	896.391	706.233
243.045	24.421	895.767	706.719
244.059	24.410	895.356	706.291
245.074	24.640	894.712	706.630
246.088	24.676	893.784	705.976
247.103	24.160	893.250	703.456
248.117	24.218	892.196	702.790
249.132	24.699	892.584	704.933
250.147	24.971	892.595	705.949
251.161	25.140	891.459	705.655
252.176	25.236	890.922	705.545
253.190	25.369	890.146	705.392
254.205	25.253	890.197	704.912
255.220	25.406	889.567	704.953
256.234	25.498	888.825	704.663
257.249	25.268	888.102	703.127
258.263	25.207	887.705	702.512
259.278	25.256	886.964	702.053
260.293	25.219	886.841	701.748
261.307	25.345	886.221	701.689
262.322	25.364	884.996	700.731
263.336	25.184	884.619	699.668
264.351	24.548	883.174	695.985
265.366	23.691	880.981	690.864
266.380	23.097	880.327	687.981
267.395	23.988	880.780	691.737
268.409	24.894	880.766	695.188
269.424	24.847	879.951	694.301
270.439	25.055	879.569	694.741
271.453	25.088	879.110	694.448
272.468	25.066	878.423	693.756
273.482	25.248	878.054	694.109
274.497	25.356	877.459	693.994
275.512	25.214	876.100	692.311
276.526	24.589	874.897	688.888
277.541	24.899	874.739	689.899
278.555	25.303	874.207	690.973
279.570	25.005	873.671	689.343
280.585	24.738	873.007	687.732
281.599	24.896	872.420	687.816
282.614	25.139	871.986	688.345
283.628	24.622	870.519	685.143
284.643	24.102	870.176	682.821
285.657	24.722	869.908	684.924
286.672	24.665	869.097	684.009
287.687	24.112	868.152	681.088
288.701	24.312	868.327	681.931
289.716	25.028	867.520	683.972
290.730	24.526	866.718	681.364
291.745	24.462	865.762	680.307
292.760	24.248	864.638	678.549
293.774	24.063	864.837	677.939
294.789	24.982	865.348	681.780
295.803	25.813	864.837	684.477
296.818	25.667	864.641	683.709
297.833	25.705	864.205	683.445
298.847	25.489	863.175	681.754
299.862	25.192	862.042	679.673
300.876	25.272	861.565	679.539
301.891	25.746	861.054	680.871
302.906	25.799	860.310	680.420
303.920	25.239	859.404	677.531
304.935	25.109	858.838	676.534
305.949	25.460	858.787	677.758
306.964	25.613	858.210	677.819
307.979	25.482	857.060	676.356
308.993	25.450	856.866	676.024
310.008	25.582	856.648	676.290
311.022	25.776	855.932	676.392
312.037	25.664	855.606	675.654
313.052	25.352	855.211	674.110
314.066	25.289	853.975	672.842
315.081	24.732	852.558	669.580
316.095	23.939	851.271	665.546
317.110	24.410	851.609	667.513
318.125	25.260	852.137	671.048
319.139	24.896	850.778	668.560
320.154	23.762	849.325	663.128
321.168	23.442	848.192	660.991
322.183	24.135	848.177	663.505
323.197	24.919	848.638	666.726
324.212	25.233	848.261	667.541
325.227	25.383	847.861	667.723
326.241	25.545	847.829	668.241
327.256	25.397	846.844	666.856
328.270	25.302	846.487	666.162
329.285	25.256	845.751	665.355
330.300	25.046	844.697	663.688
331.314	24.821	844.021	662.266
332.329	24.858	843.892	662.244
333.343	25.288	843.304	663.315
334.358	25.516	843.185	664.002
335.373	25.551	842.369	663.432
336.387	25.518	842.057	663.005
337.402	25.811	841.811	663.833
338.416	26.042	840.766	663.801
339.431	26.003	840.501	663.389
340.446	25.866	839.900	662.353
341.460	25.990	839.689	662.583
342.475	26.164	838.466	662.197
343.489	25.865	838.131	660.776
344.504	25.879	837.412	660.203
345.519	26.232	837.153	661.233
346.533	26.413	836.620	661.417
347.548	26.341	836.556	661.042
348.562	26.399	835.908	660.685
349.577	26.461	835.422	660.468
350.592	26.379	834.592	659.454
351.606	26.465	833.991	659.237
352.621	26.334	833.813	658.559
353.635	26.244	832.727	657.314
354.650	26.008	832.873	656.515
355.665	25.651	831.733	654.260
356.679	24.780	829.959	649.643
357.694	24.663	829.223	648.586
358.708	25.153	829.641	650.634
359.723	25.232	829.211	650.526
360.738	25.564	828.533	651.138
361.752	25.907	828.673	652.433
362.767	25.847	828.221	651.802
363.781	26.386	828.050	653.560
364.796	26.512	827.894	653.832
365.810	26.569	827.632	653.774
366.825	26.657	827.166	653.667
367.840	26.701	826.725	653.417
368.854	26.557	826.201	652.427
369.869	26.154	825.093	650.042
370.883	25.963	824.628	648.934
371.898	26.181	824.009	649.171
372.913	26.124	823.069	648.171
373.927	25.976	822.315	646.988
374.942	26.187	821.919	647.375
375.956	26.254	821.213	647.001
376.971	26.490	820.852	647.503
377.986	26.462	820.713	647.237
379.000	26.531	820.331	647.125
380.015	26.622	819.652	646.857
381.029	26.489	819.186	645.956
382.044	26.514	817.915	644.989
383.059	26.655	817.777	645.323
384.073	26.616	817.420	644.846
385.088	26.803	816.826	644.986
386.102	26.607	816.519	643.990
387.117	26.447	815.687	642.709
388.132	26.377	815.064	641.911
389.146	26.275	814.053	640.695
390.161	25.664	813.605	638.121
391.175	25.729	813.570	638.266
392.190	26.235	813.294	639.788
393.205	26.295	812.654	639.442
394.219	25.373	810.625	634.532
395.234	23.645	808.618	626.809
396.248	23.084	807.494	623.901
397.263	23.895	809.079	627.936
398.278	26.046	809.605	635.879
399.292	26.360	809.604	636.929
400.307	26.049	808.738	635.100
401.321	25.920	808.595	634.477
402.336	26.056	808.268	634.644
403.350	26.471	807.728	635.621
404.365	26.883	807.865	637.118
405.380	26.988	807.773	637.359
406.394	27.284	807.457	638.092
407.409	27.351	807.250	638.106
408.423	27.404	806.748	637.837
409.438	27.378	805.549	636.743
410.453	27.222	805.737	636.291
411.467	27.282	805.282	636.084
412.482	27.412	804.520	635.879
413.496	27.448	803.725	635.321
414.511	27.317	803.873	634.925
415.526	27.304	803.410	634.458
416.540	27.321	802.977	634.118
417.555	27.297	802.367	633.495
418.569	27.111	801.700	632.267
419.584	27.033	800.871	631.287
420.599	26.946	800.937	630.982
421.613	161.810	1365.761	1796.448
422.628	140.644	1448.031	1796.538
