DTS Sentinel unit serial number:	SN413079Multiplexer serial number:	ORYXHardware model number:	OX4-SRSoftware version number:	ORYX F/W v4.00 Oryx Data Collector v3.7.2.0data status	okinstallation	princeton_trtdifferential loss correction	single-endedforward channel	channel 3reverse channel	N/Adate	2019/09/12time	02:38:11forward acquisition time	60.00reverse acquisition time	0.00gamma	496.2192k internal	0.2321k external	0.2321temperature offset calibration	1.0065default loss term (dB/km)	0.3790temperature slope calibration	1.0000multiplexer offset coefficient	1.0000multiplexer slope coefficient	1.0000fibre end	0.00T internal ref (°C)	32.44T ext. ref 1 (°C)	2.08T ext. ref 2 (°C)	27.14length (m)	temperature (°C)	Stokes	anti-Stokes-747.200	234.502	0.070	0.117
-746.185	-170.422	-0.299	0.011
-745.171	-181.892	0.157	-0.003
-744.156	641.408	0.120	0.309
-743.142	19.969	-0.069	-0.056
-742.127	-23.685	0.389	0.236
-741.112	-141.640	0.528	-0.054
-740.098	441.498	-0.159	0.352
-739.083	436.485	0.073	0.161
-738.069	-120.546	0.174	0.030
-737.054	533.485	0.042	-0.100
-736.039	-62.976	-0.385	0.161
-735.025	66.247	0.168	-0.172
-734.010	-80.572	-0.465	-0.156
-732.996	131.929	0.081	0.106
-731.981	800.000	-0.122	0.368
-730.966	-96.831	-0.174	-0.046
-729.952	237.362	-0.167	0.280
-728.937	71.024	-0.349	0.365
-727.923	111.217	0.109	-0.132
-726.908	-52.773	0.223	-0.104
-725.894	-200.000	-0.040	0.308
-724.879	-167.827	0.129	0.005
-723.864	-200.000	0.010	-0.149
-722.850	35.554	0.163	-0.145
-721.835	-135.471	0.188	-0.023
-720.821	-102.898	0.211	-0.051
-719.806	-80.216	-0.073	-0.025
-718.791	129.101	0.077	0.100
-717.777	-69.834	-0.209	0.080
-716.762	-70.817	0.409	-0.156
-715.748	800.000	0.066	0.207
-714.733	-100.045	-0.081	0.020
-713.718	-74.045	0.228	0.084
-712.704	97.396	0.136	-0.158
-711.689	-141.525	-0.067	-0.007
-710.675	155.073	-0.090	0.125
-709.660	456.559	-0.139	0.310
-708.645	20.543	-0.200	0.163
-707.631	-200.000	0.018	0.227
-706.616	-200.000	0.003	0.219
-705.602	-200.000	-0.007	-0.227
-704.587	-120.446	0.165	-0.028
-703.572	-33.513	0.083	0.046
-702.558	-200.000	-0.028	0.207
-701.543	-200.000	-0.001	-0.391
-700.529	404.139	0.159	-0.337
-699.514	-97.835	-0.286	0.074
-698.499	4.739	0.176	0.130
-697.485	66.830	-0.076	0.079
-696.470	361.144	0.092	-0.186
-695.456	86.805	-0.051	-0.057
-694.441	-118.623	0.143	-0.025
-693.426	5.642	-0.175	0.131
-692.412	690.973	-0.125	0.331
-691.397	-9.104	-0.385	0.260
-690.383	-3.084	0.246	0.173
-689.368	-80.476	0.251	0.084
-688.354	-102.149	0.276	0.067
-687.339	276.801	-0.118	-0.211
-686.324	232.146	-0.122	-0.202
-685.310	28.835	0.128	-0.109
-684.295	-29.651	0.203	-0.117
-683.281	-128.498	0.340	-0.049
-682.266	-101.376	-0.444	0.109
-681.251	-133.242	0.025	-0.003
-680.237	176.182	0.254	-0.371
-679.222	-122.247	-0.255	-0.042
-678.208	-131.473	0.048	-0.006
-677.193	-125.390	-0.162	-0.025
-676.178	377.307	-0.081	-0.167
-675.164	-200.000	-0.012	-0.272
-674.149	581.515	0.140	-0.345
-673.135	14.444	-0.066	0.052
-672.120	124.035	0.089	-0.112
-671.105	-200.000	0.035	0.215
-670.091	800.000	-0.044	0.142
-669.076	45.924	0.131	-0.122
-668.062	800.000	-0.144	0.494
-667.047	-158.204	-0.180	0.011
-666.032	-110.943	-0.070	-0.015
-665.018	53.287	0.044	0.043
-664.003	60.945	0.152	0.152
-662.989	-145.717	-0.202	0.018
-661.974	-48.664	-0.052	-0.025
-660.959	584.567	0.040	-0.099
-659.945	-104.639	0.391	0.091
-658.930	33.644	-0.131	0.115
-657.916	30.752	0.143	-0.123
-656.901	-121.318	0.294	0.049
-655.886	800.000	0.105	0.382
-654.872	-66.909	-0.316	0.126
-653.857	-43.995	-0.125	0.063
-652.843	160.928	-0.186	-0.261
-651.828	-200.000	-0.008	-0.197
-650.814	603.055	0.081	0.203
-649.799	16.485	-0.310	-0.246
-648.784	800.000	-0.079	-0.236
-647.770	651.192	0.100	0.257
-646.755	800.000	-0.038	-0.111
-645.741	-143.686	-0.117	0.011
-644.726	-105.084	-0.161	-0.037
-643.711	-49.206	-0.179	0.086
-642.697	-200.000	-0.021	-0.110
-641.682	137.291	-0.131	-0.172
-640.668	-90.696	-0.291	0.085
-639.653	-96.067	0.144	-0.039
-638.638	27.593	-0.237	-0.201
-637.624	375.881	-0.070	0.143
-636.609	109.942	0.185	-0.224
-635.595	-35.293	0.193	0.105
-634.580	-98.664	0.355	-0.091
-633.565	-61.266	-0.214	0.091
-632.551	534.175	-0.156	-0.373
-631.536	-200.000	0.023	-0.243
-630.522	800.000	0.047	-0.159
-629.507	-106.012	-0.287	-0.065
-628.492	-58.101	0.091	-0.040
-627.478	16.027	0.131	0.104
-626.463	44.587	-0.137	-0.127
-625.449	-118.028	-0.211	-0.038
-624.434	506.248	-0.142	-0.330
-623.419	184.248	0.178	-0.265
-622.405	800.000	-0.034	-0.130
-621.390	178.534	-0.141	-0.207
-620.376	-99.583	0.569	-0.144
-619.361	262.323	0.151	0.264
-618.346	431.021	-0.183	-0.399
-617.332	96.557	0.249	-0.287
-616.317	68.268	0.191	0.197
-615.303	-177.713	-0.112	-0.003
-614.288	-170.930	0.448	-0.015
-613.273	-107.230	-0.437	-0.097
-612.259	57.074	-0.137	0.134
-611.244	-67.349	0.160	0.063
-610.230	-123.936	-0.053	0.008
-609.215	346.563	-0.090	-0.177
-608.201	-46.732	-0.291	0.143
-607.186	113.003	-0.072	0.087
-606.171	-146.264	0.236	0.021
-605.157	73.920	0.149	-0.157
-604.142	-200.000	-0.007	-0.537
-603.128	319.059	0.223	-0.425
-602.113	-176.076	0.155	-0.004
-601.098	577.752	0.097	-0.239
-600.084	-7.747	-0.163	0.110
-599.069	-20.052	0.198	-0.123
-598.055	-7.108	0.106	0.073
-597.040	-10.147	-0.244	0.163
-596.025	63.687	-0.202	-0.204
-595.011	-200.000	0.006	-0.310
-593.996	-132.340	0.061	0.008
-592.982	-200.000	-0.042	-0.189
-591.967	-137.252	-0.364	0.042
-590.952	317.174	-0.090	-0.172
-589.938	204.838	0.251	-0.392
-588.923	3.411	-0.130	-0.095
-587.909	-176.350	0.293	-0.008
-586.894	-84.550	-0.179	-0.057
-585.879	-200.000	-0.020	0.147
-584.865	-146.462	0.129	-0.011
-583.850	-167.215	0.140	0.006
-582.836	800.000	0.005	-0.017
-581.821	396.601	-0.014	-0.028
-580.806	386.831	-0.196	-0.407
-579.792	70.116	-0.111	-0.115
-578.777	800.000	0.049	-0.173
-577.763	-200.000	0.065	-0.402
-576.748	-46.850	-0.281	-0.138
-575.733	-27.150	-0.256	-0.150
-574.719	-95.438	0.249	0.067
-573.704	4.931	-0.123	-0.091
-572.690	-200.000	0.001	0.078
-571.675	-200.000	0.043	-0.214
-570.661	-116.175	-0.187	-0.035
-569.646	-200.000	0.013	0.088
-568.631	38.029	0.276	0.246
-567.617	-20.261	0.272	0.168
-566.602	-122.878	-0.480	-0.078
-565.588	127.060	0.047	-0.060
-564.573	64.750	-0.330	0.334
-563.558	-36.109	0.021	0.011
-562.544	-60.211	-0.348	0.149
-561.529	-200.000	0.046	0.243
-560.515	161.469	0.044	-0.062
-559.500	-32.870	0.102	-0.057
-558.485	469.063	-0.044	0.100
-557.471	58.455	0.202	0.199
-556.456	486.630	-0.079	-0.181
-555.442	-73.156	-0.035	0.013
-554.427	-200.000	-0.013	0.230
-553.412	33.543	-0.105	0.092
-552.398	800.000	0.029	0.096
-551.383	-200.000	0.011	0.170
-550.369	-6.566	0.132	-0.090
-549.354	323.777	0.063	0.121
-548.339	92.465	0.038	0.043
-547.325	-128.281	-0.271	0.039
-546.310	-81.247	0.240	0.079
-545.296	-200.000	0.003	0.326
-544.281	2.949	0.044	0.032
-543.266	-200.000	0.010	0.115
-542.252	-196.945	-0.190	-0.001
-541.237	-104.002	-0.315	0.074
-540.223	-200.000	-0.058	-0.267
-539.208	-200.000	-0.010	-0.126
-538.193	-72.019	0.241	0.090
-537.179	-200.000	-0.031	0.231
-536.164	478.219	-0.063	-0.142
-535.150	0.666	-0.125	0.090
-534.135	-56.819	0.176	-0.078
-533.121	-200.000	0.015	0.261
-532.106	374.371	-0.148	0.303
-531.091	575.946	-0.076	0.186
-530.077	173.685	0.039	0.056
-529.062	-33.090	0.173	-0.096
-528.048	800.000	0.051	0.177
-527.033	30.220	-0.147	-0.126
-526.018	800.000	0.079	-0.237
-525.004	106.008	0.242	-0.288
-523.989	678.370	-0.083	-0.217
-522.975	-200.000	-0.025	-0.205
-521.960	-111.635	0.142	-0.029
-520.945	627.378	0.170	-0.429
-519.931	-57.724	0.291	0.127
-518.916	-7.151	-0.235	0.159
-517.902	-132.759	-0.232	0.030
-516.887	12.150	-0.189	-0.146
-515.872	-86.554	0.098	-0.030
-514.858	-97.513	-0.165	-0.043
-513.843	-185.822	0.272	-0.004
-512.829	-66.287	-0.173	0.069
-511.814	-200.000	0.018	0.189
-510.799	69.006	-0.092	0.094
-509.785	84.613	0.122	-0.134
-508.770	800.000	0.031	0.092
-507.756	7.944	0.103	0.078
-506.741	58.281	0.233	-0.229
-505.726	131.473	-0.107	0.138
-504.712	800.000	0.134	-0.435
-503.697	81.595	0.097	0.106
-502.683	-6.201	0.256	0.175
-501.668	343.945	-0.120	0.236
-500.653	798.250	0.065	0.178
-499.639	575.318	0.105	-0.257
-498.624	-128.263	-0.332	-0.047
-497.610	-24.451	-0.282	-0.168
-496.595	-65.801	0.234	-0.094
-495.581	-55.496	0.064	-0.029
-494.566	-200.000	0.059	-0.327
-493.551	120.406	0.121	-0.151
-492.537	-43.272	-0.259	0.131
-491.522	2.024	-0.055	-0.040
-490.508	37.785	-0.358	0.318
-489.493	-115.207	-0.266	0.050
-488.478	-82.401	-0.134	-0.044
-487.464	-159.732	0.238	0.013
-486.449	1.877	-0.307	0.222
-485.435	-22.788	0.242	-0.146
-484.420	-200.000	0.051	-0.314
-483.405	800.000	0.085	0.254
-482.391	343.674	-0.211	-0.414
-481.376	-100.429	0.324	-0.080
-480.362	97.807	0.225	-0.259
-479.347	800.000	0.036	0.124
-478.332	800.000	-0.071	-0.212
-477.318	18.773	0.035	0.028
-476.303	210.860	0.183	-0.288
-475.289	669.815	0.061	0.157
-474.274	800.000	-0.065	-0.216
-473.259	26.809	-0.232	0.194
-472.245	-136.801	0.003	-0.000
-471.230	281.016	-0.048	-0.086
-470.216	-60.835	-0.339	-0.143
-469.201	99.761	-0.208	0.241
-468.186	800.000	0.093	0.364
-467.172	-115.011	-0.068	-0.013
-466.157	131.942	0.116	0.150
-465.143	49.583	-0.074	0.070
-464.128	94.574	-0.147	0.167
-463.113	19.365	0.277	0.223
-462.099	34.165	0.107	-0.093
-461.084	-92.199	0.282	0.080
-460.070	-105.829	-0.308	0.069
-459.055	-130.745	-0.160	0.021
-458.040	451.606	0.118	0.262
-457.026	106.709	-0.103	-0.123
-456.011	-200.000	-0.011	-0.052
-454.997	-19.186	-0.084	-0.052
-453.982	-200.000	-0.036	0.199
-452.968	-159.469	0.236	0.013
-451.953	30.854	-0.236	-0.202
-450.938	800.000	-0.090	-0.374
-449.924	47.641	-0.225	0.210
-448.909	-200.000	-0.016	-0.104
-447.895	567.076	-0.057	0.138
-446.880	-108.913	0.376	-0.080
-445.865	100.378	0.137	-0.159
-444.851	-19.011	-0.182	0.113
-443.836	282.677	0.174	-0.311
-442.822	28.783	-0.260	-0.220
-441.807	800.000	0.075	0.315
-440.792	216.891	-0.186	-0.296
-439.778	72.109	0.102	-0.106
-438.763	-200.000	0.012	-0.099
-437.749	102.204	0.156	0.182
-436.734	143.035	0.205	0.272
-435.719	-81.629	0.168	-0.055
-434.705	783.493	0.132	-0.360
-433.690	381.914	-0.098	0.200
-432.676	-73.472	0.310	-0.113
-431.661	-149.109	0.198	-0.016
-430.646	9.044	0.083	-0.062
-429.632	-200.000	0.003	0.258
-428.617	68.589	-0.183	-0.188
-427.603	472.034	-0.088	-0.198
-426.588	596.886	0.084	0.207
-425.573	-162.491	-0.100	0.005
-424.559	122.792	-0.127	0.158
-423.544	325.293	-0.063	-0.121
-422.530	-200.000	-0.001	0.063
-421.515	-127.304	-0.215	-0.031
-420.500	-200.000	0.065	-0.309
-419.486	-164.084	-0.429	-0.020
-418.471	-200.000	0.012	0.105
-417.457	-108.554	0.129	0.028
-416.442	-1.810	-0.103	0.072
-415.428	800.000	0.102	0.287
-414.413	18.098	0.048	0.038
-413.398	-49.058	-0.354	0.169
-412.384	-200.000	-0.014	-0.102
-411.369	-101.387	-0.240	0.058
-410.355	-25.792	-0.254	0.149
-409.340	15.264	-0.119	0.093
-408.325	4.463	0.196	-0.143
-407.311	-26.132	0.108	0.064
-406.296	-200.000	0.018	0.308
-405.282	-101.953	-0.428	0.103
-404.267	296.890	0.133	-0.243
-403.252	-75.377	-0.254	0.090
-402.238	-200.000	-0.035	-0.170
-401.223	-160.350	-0.364	-0.020
-400.209	-55.235	0.281	-0.126
-399.194	-200.000	0.025	0.127
-398.179	-59.708	0.183	-0.078
-397.165	327.052	-0.226	0.431
-396.150	78.821	0.008	0.008
-395.136	185.807	0.126	0.186
-394.121	-200.000	-0.013	-0.128
-393.106	-200.000	0.016	0.101
-392.092	-200.000	0.082	0.000
-391.077	-76.983	0.204	-0.071
-390.063	486.035	-0.141	0.321
-389.048	800.000	0.076	-0.209
-388.033	-55.267	-0.301	0.135
-387.019	-67.146	-0.066	-0.026
-386.004	-43.092	0.330	-0.167
-384.990	-150.937	0.177	-0.013
-383.975	102.805	-0.239	-0.279
-382.960	-43.850	0.203	0.102
-381.946	800.000	0.090	0.264
-380.931	-39.973	0.289	0.150
-379.917	25.419	0.078	0.065
-378.902	-15.910	-0.149	0.095
-377.888	-84.281	0.042	0.013
-376.873	117.872	0.038	0.047
-375.858	-200.000	-0.030	-0.265
-374.844	716.324	0.060	-0.159
-373.829	-200.000	0.012	-0.281
-372.815	2.113	0.152	0.110
-371.800	800.000	0.028	-0.089
-370.785	154.042	-0.204	0.279
-369.771	48.944	0.233	0.218
-368.756	-48.757	0.156	-0.074
-367.742	-174.927	-0.072	0.002
-366.727	272.911	0.114	0.200
-365.712	-45.205	-0.234	0.116
-364.698	800.000	-0.067	0.267
-363.683	-161.343	0.278	0.014
-362.669	-200.000	0.006	0.071
-361.654	23.326	-0.226	-0.185
-360.639	-40.851	-0.113	0.058
-359.625	684.154	0.047	0.122
-358.610	-119.872	-0.200	0.034
-357.596	-20.583	-0.086	-0.052
-356.581	-43.343	0.174	-0.088
-355.566	-22.526	-0.111	-0.067
-354.552	-106.400	0.413	-0.092
-353.537	-34.364	-0.115	0.063
-352.523	-32.862	-0.118	-0.065
-351.508	-142.290	-0.158	0.016
-350.493	-200.000	-0.022	0.267
-349.479	-200.000	-0.012	-0.105
-348.464	549.379	-0.174	0.416
-347.450	220.995	-0.098	-0.157
-346.435	-68.771	0.217	0.084
-345.420	15.032	0.203	-0.158
-344.406	-150.869	-0.167	-0.013
-343.391	-86.530	0.260	-0.079
-342.377	-200.000	0.014	-0.223
-341.362	73.939	0.132	0.137
-340.348	-200.000	0.050	0.250
-339.333	53.244	-0.171	0.163
-338.318	-82.002	0.222	-0.072
-337.304	-35.850	0.309	0.166
-336.289	228.118	-0.103	0.166
-335.275	233.426	0.064	0.105
-334.260	-128.064	-0.216	0.031
-333.245	125.714	0.052	-0.065
-332.231	69.588	-0.323	0.330
-331.216	-200.000	-0.009	0.235
-330.202	-138.623	-0.251	-0.027
-329.187	-92.650	0.257	-0.072
-328.172	-50.229	0.165	0.078
-327.158	111.240	-0.083	0.099
-326.143	-200.000	-0.023	-0.293
-325.129	-133.776	0.112	-0.014
-324.114	6.458	-0.130	-0.096
-323.099	-112.731	-0.483	-0.095
-322.085	800.000	0.102	-0.280
-321.070	-155.595	0.192	0.012
-320.056	-125.910	0.515	-0.077
-319.041	-108.446	-0.053	0.011
-318.026	109.581	-0.177	0.211
-317.012	-64.101	0.148	-0.060
-315.997	-144.689	-0.505	-0.046
-314.983	164.339	0.114	-0.159
-313.968	176.659	0.046	0.066
-312.953	800.000	0.109	0.334
-311.939	115.678	-0.091	-0.110
-310.924	-71.120	-0.179	-0.067
-309.910	-200.000	0.007	0.434
-308.895	-68.227	0.172	0.066
-307.880	661.721	-0.085	-0.219
-306.866	-200.000	-0.000	0.017
-305.851	-200.000	0.037	0.188
-304.837	-39.908	-0.193	0.100
-303.822	209.791	-0.212	0.331
-302.807	-200.000	0.008	-0.045
-301.793	469.165	0.151	0.338
-300.778	24.548	0.210	-0.173
-299.764	-13.272	-0.286	-0.184
-298.749	-200.000	-0.471	-0.001
-297.735	159.623	0.162	-0.224
-296.720	65.588	0.115	-0.116
-295.705	-153.429	-0.326	-0.023
-294.691	130.035	0.275	0.350
-293.676	800.000	-0.032	0.127
-292.662	-98.797	0.048	-0.012
-291.647	0.689	0.105	-0.075
-290.632	60.646	-0.114	-0.112
-289.618	-97.614	-0.052	-0.013
-288.603	800.000	-0.105	0.351
-287.589	800.000	0.098	0.316
-286.574	108.663	0.099	-0.118
-285.559	-31.082	0.340	0.190
-284.545	-40.395	0.247	-0.127
-283.530	205.763	-0.130	0.200
-282.516	-23.793	0.167	0.099
-281.501	-162.336	-0.250	0.012
-280.486	-121.846	0.131	-0.021
-279.472	-124.155	0.196	0.030
-278.457	-200.000	0.032	-0.204
-277.443	33.973	0.113	-0.098
-276.428	-77.147	-0.144	-0.050
-275.413	-115.864	0.089	-0.017
-274.399	67.110	-0.059	-0.059
-273.384	-193.645	-0.258	-0.002
-272.370	19.133	0.045	0.036
-271.355	85.521	0.140	0.153
-270.340	-200.000	0.002	-0.126
-269.326	-52.296	-0.233	-0.107
-268.311	365.022	-0.172	0.344
-267.297	-83.040	-0.181	0.058
-266.282	800.000	0.072	0.272
-265.267	171.387	0.183	-0.260
-264.253	-60.338	-0.383	0.162
-263.238	147.512	-0.207	0.277
-262.224	-200.000	0.002	0.111
-261.209	-25.168	0.034	0.020
-260.195	8.430	0.113	0.085
-259.180	-200.000	-0.021	0.098
-258.165	116.792	-0.121	0.148
-257.151	-139.701	0.518	0.055
-256.136	265.364	-0.127	-0.220
-255.122	69.017	0.183	-0.186
-254.107	620.318	-0.075	0.187
-253.092	22.736	0.251	-0.204
-252.078	608.685	-0.106	-0.263
-251.063	162.656	0.138	0.191
-250.049	42.563	0.237	-0.214
-249.034	65.516	-0.127	0.127
-248.019	-5.317	-0.076	0.052
-247.005	-186.947	0.187	0.003
-245.990	782.837	0.082	-0.224
-244.976	378.155	0.045	0.090
-243.961	-200.000	-0.051	0.374
-242.946	-155.138	0.407	-0.026
-241.932	10.969	-0.103	-0.078
-240.917	-200.000	-0.034	0.165
-239.903	-40.273	0.180	-0.093
-238.888	187.302	-0.085	0.126
-237.873	16.978	-0.151	-0.118
-236.859	-27.512	0.286	-0.164
-235.844	-155.139	0.329	0.021
-234.830	6.877	-0.037	0.027
-233.815	241.775	-0.226	-0.374
-232.800	-200.000	0.030	0.154
-231.786	-99.969	0.249	0.062
-230.771	25.033	0.097	0.080
-229.757	-37.230	0.378	0.200
-228.742	-118.443	0.249	-0.044
-227.727	-200.000	-0.012	0.139
-226.713	633.028	0.050	-0.126
-225.698	800.000	-0.087	0.275
-224.684	-200.000	-0.062	0.270
-223.669	-125.330	0.197	0.030
-222.655	28.214	0.102	-0.085
-221.640	3.383	0.084	-0.061
-220.625	800.000	-0.095	0.269
-219.611	-171.277	-0.150	0.005
-218.596	-12.926	-0.102	0.066
-217.582	52.091	0.062	-0.058
-216.567	-66.045	0.130	-0.051
-215.552	-97.292	0.227	-0.058
-214.538	-130.968	0.268	-0.035
-213.523	156.160	0.089	0.122
-212.509	-173.448	0.167	-0.005
-211.494	0.331	-0.071	-0.050
-210.479	53.888	0.071	0.067
-209.465	120.493	-0.075	-0.093
-208.450	-147.700	0.254	0.021
-207.436	139.716	0.123	0.161
-206.421	800.000	0.022	-0.070
-205.406	800.000	-0.022	-0.096
-204.392	-78.829	0.343	-0.116
-203.377	-94.610	-0.263	0.071
-202.363	800.000	0.123	-0.476
-201.348	-74.129	-0.360	-0.129
-200.333	-51.223	0.093	-0.043
-199.319	-91.295	-0.277	0.079
-198.304	67.877	-0.101	0.102
-197.290	47.011	-0.101	0.093
-196.275	-98.310	0.183	-0.047
-195.260	294.011	-0.126	0.228
-194.246	800.000	0.029	0.121
-193.231	-200.000	0.006	0.160
-192.217	-32.623	-0.273	-0.150
-191.202	-103.089	0.182	-0.043
-190.187	-109.274	0.206	0.043
-189.173	-12.181	0.233	-0.151
-188.158	673.941	-0.154	-0.395
-187.144	121.019	-0.205	0.253
-186.129	-200.000	-0.003	-0.431
-185.114	-37.251	0.498	0.263
-184.100	265.044	0.174	0.300
-183.085	25.210	-0.082	0.068
-182.071	-12.018	-0.023	-0.015
-181.056	-1.760	-0.224	-0.156
-180.042	-69.782	0.036	-0.014
-179.027	-92.615	-0.202	0.056
-178.012	44.887	0.214	0.195
-176.998	213.623	0.188	0.294
-175.983	205.080	0.175	0.268
-174.969	166.602	0.121	0.169
-173.954	-85.928	-0.078	0.024
-172.939	-111.610	0.175	-0.035
-171.925	-45.976	0.258	0.126
-170.910	41.968	-0.061	0.054
-169.896	83.185	-0.101	-0.108
-168.881	78.694	-0.316	0.334
-167.866	19.630	-0.148	0.118
-166.852	-4.764	-0.218	0.148
-165.837	800.000	0.118	-0.414
-164.823	19.175	-0.110	-0.087
-163.808	467.777	0.013	0.029
-162.793	231.055	-0.153	0.248
-161.779	800.000	-0.030	-0.099
-160.764	-9.358	0.227	-0.150
-159.750	12.045	-0.071	-0.054
-158.735	800.000	-0.036	0.121
-157.720	-7.829	-0.121	-0.081
-156.706	237.097	0.193	0.316
-155.691	337.657	-0.054	-0.104
-154.677	-81.895	-0.304	-0.098
-153.662	-56.668	-0.292	-0.128
-152.647	-100.906	-0.194	0.047
-151.633	800.000	0.127	-0.432
-150.618	394.407	0.081	-0.166
-149.604	128.585	-0.089	0.112
-148.589	-98.105	0.214	-0.054
-147.574	29.130	0.071	0.059
-146.560	-200.000	-0.020	0.282
-145.545	55.165	0.071	-0.068
-144.531	-102.128	0.269	-0.064
-143.516	138.104	-0.137	-0.177
-142.502	-200.000	-0.055	0.320
-141.487	158.116	0.061	0.084
-140.472	-112.753	0.473	0.093
-139.458	-65.972	0.095	-0.038
-138.443	800.000	0.054	0.175
-137.429	-34.027	0.187	0.101
-136.414	-34.689	-0.330	-0.178
-135.399	201.919	-0.063	-0.096
-134.385	-200.000	-0.010	-0.184
-133.370	-200.000	-0.055	-0.460
-132.356	-200.000	-0.048	-0.216
-131.341	46.352	-0.069	-0.063
-130.326	-200.000	-0.062	-0.333
-129.312	109.814	0.181	0.214
-128.297	157.681	-0.299	0.409
-127.283	-200.000	-0.013	0.179
-126.268	-200.000	-0.035	0.204
-125.253	-182.459	0.071	-0.001
-124.239	800.000	-0.016	-0.048
-123.224	-200.000	0.010	-0.171
-122.210	34.895	-0.144	-0.124
-121.195	-48.383	-0.101	-0.048
-120.180	-65.357	0.346	-0.137
-119.166	121.772	0.068	0.084
-118.151	-18.624	0.197	-0.121
-117.137	-27.096	0.449	0.258
-116.122	-200.000	0.010	0.221
-115.107	92.424	0.215	0.239
-114.093	388.944	0.165	0.337
-113.078	-200.000	0.025	0.460
-112.064	127.363	0.111	-0.138
-111.049	-186.391	0.317	0.004
-110.034	-16.161	0.208	-0.130
-109.020	286.666	0.104	-0.186
-108.005	-1.257	0.282	-0.196
-106.991	-81.961	0.185	-0.060
-105.976	-140.562	-0.199	0.020
-104.962	-20.154	-0.144	-0.088
-103.947	-144.587	-0.180	-0.016
-102.932	151.834	0.110	0.148
-101.918	-61.246	0.146	-0.060
-100.903	800.000	-0.047	0.194
-99.889	-200.000	0.041	0.249
-98.874	-143.225	0.317	-0.030
-97.859	800.000	0.037	0.128
-96.845	-16.038	0.221	-0.139
-95.830	18.289	-0.264	-0.208
-94.816	-40.561	0.244	0.125
-93.801	-200.000	0.012	0.481
-92.786	537.278	-0.081	0.190
-91.772	800.000	-0.087	0.257
-90.757	447.038	-0.095	0.205
-89.743	566.457	-0.137	0.328
-88.728	-15.217	0.146	-0.092
-87.713	-200.000	-0.045	0.216
-86.699	-76.100	-0.122	-0.042
-85.684	254.012	0.102	-0.172
-84.670	-59.028	0.320	-0.136
-83.655	-98.657	0.399	-0.100
-82.640	-117.997	-0.249	-0.044
-81.626	16.693	0.273	-0.213
-80.611	199.355	0.123	0.186
-79.597	-200.000	0.007	0.065
-78.582	0.574	0.070	-0.049
-77.567	6.533	-0.045	-0.033
-76.553	532.614	-0.161	0.375
-75.538	-200.000	0.006	0.101
-74.524	-35.046	-0.042	-0.023
-73.509	748.489	0.061	0.161
-72.494	-93.391	0.112	-0.031
-71.480	392.633	-0.088	0.180
-70.465	-55.036	0.469	-0.208
-69.451	800.000	-0.032	-0.124
-68.436	-72.135	0.104	0.038
-67.422	62.637	0.181	-0.178
-66.407	107.279	0.150	0.175
-65.392	245.168	0.198	-0.328
-64.378	-200.000	-0.094	-0.490
-63.363	168.020	0.217	0.304
-62.349	188.682	0.255	0.375
-61.334	9.924	-0.979	-0.731
-60.319	259.987	0.362	0.616
-59.305	-200.000	-0.177	-1.135
-58.290	258.382	0.552	0.936
-57.276	248.905	0.824	1.373
-56.261	-200.000	95.494	583.306
-55.246	562.696	1366.459	3252.858
-54.232	162.794	2539.706	3506.891
-53.217	112.272	2156.206	2564.560
-52.203	42.954	1703.447	1527.639
-51.188	35.647	1517.973	1311.611
-50.173	33.178	1491.489	1272.099
-49.159	51.925	1540.387	1442.397
-48.144	53.795	1557.946	1471.567
-47.130	35.744	1517.458	1311.619
-46.115	32.668	1502.915	1278.177
-45.100	32.548	1499.580	1274.480
-44.086	32.483	1497.446	1272.175
-43.071	32.530	1495.478	1270.772
-42.057	32.428	1494.046	1268.814
-41.042	32.491	1492.809	1268.139
-40.027	32.525	1491.109	1266.874
-39.013	32.534	1489.300	1265.347
-37.998	32.447	1488.329	1263.891
-36.984	32.491	1487.181	1263.160
-35.969	32.439	1485.969	1261.734
-34.954	32.414	1484.809	1260.526
-33.940	32.409	1483.567	1259.388
-32.925	32.442	1482.219	1258.419
-31.911	32.554	1480.249	1257.441
-30.896	32.413	1479.015	1255.407
-29.881	32.560	1477.832	1255.327
-28.867	32.618	1476.207	1254.283
-27.852	32.556	1474.654	1252.502
-26.838	32.579	1473.657	1251.760
-25.823	32.518	1472.167	1250.041
-24.809	32.393	1470.511	1247.758
-23.794	32.449	1469.168	1246.937
-22.779	32.556	1467.561	1246.231
-21.765	32.540	1466.469	1245.151
-20.750	32.480	1465.637	1243.995
-19.736	32.398	1464.736	1242.640
-18.721	32.454	1463.156	1241.622
-17.706	32.470	1461.794	1240.522
-16.692	32.456	1461.138	1239.823
-15.677	32.387	1460.476	1238.759
-14.663	32.301	1459.446	1237.273
-13.648	32.347	1458.326	1236.576
-12.633	32.390	1457.363	1235.992
-11.619	32.473	1456.181	1235.484
-10.604	32.287	1456.295	1234.313
-9.590	32.331	1454.769	1233.258
-8.575	32.338	1454.073	1232.662
-7.560	32.294	1453.394	1231.751
-6.546	32.375	1452.505	1231.481
-5.531	32.404	1451.231	1230.539
-4.517	32.325	1450.458	1229.317
-3.502	32.303	1449.354	1228.193
-2.487	32.343	1448.075	1227.320
-1.473	32.358	1447.144	1226.576
-0.458	32.296	1446.243	1225.362
0.556	32.963	1435.752	1214.664
1.571	30.031	1411.721	1175.654
2.586	26.873	1358.078	1111.562
3.600	25.304	1280.155	1038.622
4.615	23.861	1231.967	991.395
5.629	20.507	1173.547	926.453
6.644	10.902	1087.124	810.494
7.659	3.289	1045.108	742.505
8.673	2.334	1039.968	734.206
9.688	2.073	1036.608	730.519
10.702	1.958	1034.824	728.645
11.717	1.945	1033.357	727.488
12.731	5.578	1036.987	747.343
13.746	15.406	1051.323	804.968
14.761	22.997	1060.743	848.708
15.775	25.040	1062.973	860.235
16.790	25.305	1062.891	861.365
17.804	25.255	1061.935	860.274
18.819	25.053	1060.834	858.336
19.834	25.094	1060.164	857.914
20.848	25.158	1059.888	857.924
21.863	25.307	1059.863	858.541
22.877	25.380	1059.223	858.291
23.892	25.168	1058.456	856.585
24.907	25.186	1057.720	855.998
25.921	25.288	1056.795	855.660
26.936	25.424	1055.904	855.512
27.950	25.343	1055.001	854.319
28.965	25.145	1054.042	852.526
29.980	25.121	1052.548	851.125
30.994	25.011	1051.789	849.918
32.009	25.279	1050.700	850.228
33.023	25.484	1049.641	850.270
34.038	25.144	1048.965	848.037
35.053	25.204	1047.601	847.141
36.067	25.377	1046.750	847.197
37.082	25.347	1046.726	846.959
38.096	25.297	1046.187	846.213
39.111	25.467	1045.315	846.236
40.126	25.588	1044.703	846.233
41.140	25.546	1043.128	844.683
42.155	25.219	1041.630	841.864
43.169	24.867	1040.615	839.316
44.184	24.866	1039.608	838.427
45.199	25.035	1038.263	838.056
46.213	24.922	1037.553	836.883
47.228	24.848	1037.158	836.143
48.242	24.863	1036.482	835.596
49.257	25.159	1035.343	835.986
50.271	25.159	1034.870	835.527
51.286	25.411	1033.947	835.880
52.301	25.360	1033.037	834.836
53.315	25.398	1032.669	834.641
54.330	25.260	1031.799	833.221
55.344	25.250	1030.814	832.305
56.359	25.232	1030.337	831.764
57.374	25.270	1029.415	831.124
58.388	25.034	1028.494	829.212
59.403	25.053	1027.447	828.383
60.417	25.022	1027.087	827.880
61.432	24.853	1026.268	826.362
62.447	25.011	1025.162	826.129
63.461	25.186	1024.371	826.224
64.476	25.068	1023.857	825.193
65.490	25.008	1023.262	824.366
66.505	24.912	1022.076	822.897
67.520	25.062	1021.042	822.678
68.534	25.038	1020.571	822.114
69.549	25.046	1019.547	821.257
70.563	24.623	1018.403	818.323
71.578	24.582	1017.792	817.573
72.593	24.435	1017.466	816.568
73.607	24.391	1015.738	814.908
74.622	24.541	1015.307	815.175
75.636	24.747	1014.180	815.134
76.651	24.966	1013.837	815.783
77.666	24.829	1012.674	814.156
78.680	24.618	1012.044	812.615
79.695	24.774	1011.709	812.985
80.709	24.761	1011.103	812.368
81.724	24.996	1009.826	812.336
82.739	24.764	1009.203	810.711
83.753	24.861	1008.292	810.348
84.768	25.117	1007.958	811.165
85.782	25.450	1007.577	812.293
86.797	25.681	1006.753	812.599
87.812	25.588	1006.031	811.522
88.826	25.411	1004.779	809.646
89.841	25.374	1003.838	808.647
90.855	25.518	1003.445	808.908
91.870	25.636	1002.286	808.431
92.884	25.645	1001.627	807.871
93.899	25.570	1000.438	806.501
94.914	25.427	999.169	804.767
95.928	25.455	999.251	804.888
96.943	25.617	998.051	804.577
97.957	25.204	996.866	801.703
98.972	24.989	995.870	799.870
99.987	24.874	994.657	798.313
101.001	24.931	994.046	798.006
102.016	25.199	994.020	799.107
103.030	25.189	992.891	798.086
104.045	25.281	991.540	797.340
105.060	25.103	990.702	795.803
106.074	24.916	989.329	793.803
107.089	25.006	988.479	793.448
108.103	25.299	988.359	794.577
109.118	25.396	987.587	794.316
110.133	24.884	986.776	791.332
111.147	24.960	985.678	790.717
112.162	24.874	984.453	789.284
113.176	24.658	983.314	787.351
114.191	24.788	982.539	787.234
115.206	25.036	981.407	787.345
116.220	24.581	981.157	785.078
117.235	24.458	980.011	783.552
118.249	24.634	979.190	783.595
119.264	24.668	978.369	783.020
120.279	24.550	977.361	781.627
121.293	24.688	976.411	781.399
122.308	24.616	976.127	780.788
123.322	24.615	975.358	780.100
124.337	24.648	974.018	779.104
125.352	24.610	972.761	777.865
126.366	24.205	971.528	775.047
127.381	23.776	970.184	772.046
128.395	24.332	970.081	774.309
129.410	24.995	969.784	776.880
130.424	25.196	968.990	777.046
131.439	25.236	967.878	776.257
132.454	25.193	967.075	775.361
133.468	25.099	966.274	774.245
134.483	25.111	965.533	773.633
135.497	25.107	965.011	773.130
136.512	25.255	964.563	773.337
137.527	25.494	963.432	773.390
138.541	25.621	962.306	772.967
139.556	25.360	961.903	771.452
140.570	25.351	961.111	770.711
141.585	25.399	960.539	770.390
142.600	25.495	959.534	769.926
143.614	25.421	958.616	768.804
144.629	25.532	958.267	768.930
145.643	25.799	957.112	769.077
146.658	25.782	955.985	768.030
147.673	25.484	955.232	766.087
148.687	25.400	954.293	764.909
149.702	25.330	952.978	763.492
150.716	25.226	952.290	762.429
151.731	25.014	951.620	760.926
152.746	25.203	950.677	760.906
153.760	25.532	949.549	761.329
154.775	25.564	949.071	761.014
155.789	25.594	948.279	760.440
156.804	25.604	947.276	759.608
157.819	25.554	946.620	758.804
158.833	25.485	945.748	757.748
159.848	25.713	944.682	757.785
160.862	25.822	944.047	757.670
161.877	25.586	943.616	756.263
162.892	25.553	942.383	755.071
163.906	25.677	941.566	754.871
164.921	25.528	940.993	753.720
165.935	25.450	940.060	752.579
166.950	25.621	938.786	752.205
167.964	25.568	937.966	751.261
168.979	25.628	936.859	750.559
169.994	25.416	936.145	749.036
171.008	25.202	935.465	747.533
172.023	25.548	934.218	747.913
173.037	25.589	933.873	747.737
174.052	25.372	932.915	746.005
175.067	25.288	931.757	744.664
176.081	25.331	930.554	743.815
177.096	25.302	930.095	743.262
178.110	25.418	929.340	743.072
179.125	25.224	928.231	741.321
180.140	24.961	926.833	739.053
181.154	24.957	926.704	738.866
182.169	25.108	926.316	739.115
183.183	25.258	925.889	739.326
184.198	25.620	925.621	740.538
185.213	25.580	924.729	739.592
186.227	25.453	924.361	738.713
187.242	25.591	923.691	738.679
188.256	25.509	923.120	737.821
189.271	25.550	922.310	737.275
190.286	25.776	921.323	737.347
191.300	25.563	920.523	735.769
192.315	24.918	919.282	732.075
193.329	24.085	917.958	727.555
194.344	23.744	917.198	725.496
195.359	24.468	917.350	728.510
196.373	25.160	917.313	731.237
197.388	25.554	917.008	732.535
198.402	25.506	915.928	731.412
199.417	25.330	916.135	730.795
200.432	25.500	915.507	730.920
201.446	25.428	914.715	729.933
202.461	25.117	913.965	728.008
203.475	25.208	913.413	727.873
204.490	24.840	911.683	724.938
205.504	23.571	909.976	718.381
206.519	23.914	909.608	719.416
207.534	24.919	910.126	723.828
208.548	24.944	909.734	723.551
209.563	25.336	909.719	725.060
210.577	25.494	908.640	724.774
211.592	25.170	907.817	722.746
212.607	25.589	907.525	724.137
213.621	25.735	907.127	724.345
214.636	25.456	906.677	722.797
215.650	25.733	905.494	722.904
216.665	25.665	904.746	721.969
217.680	25.644	904.775	721.846
218.694	25.740	904.270	721.765
219.709	25.373	903.368	719.509
220.723	25.026	902.520	717.380
221.738	25.388	901.736	718.142
222.753	25.354	901.499	717.754
223.767	25.355	900.661	717.027
224.782	25.551	900.015	717.231
225.796	25.737	899.591	717.570
226.811	25.943	898.778	717.681
227.826	25.398	897.715	714.599
228.840	24.670	896.052	710.320
229.855	24.478	895.407	708.984
230.869	24.710	895.252	709.721
231.884	24.462	894.361	707.966
232.899	24.482	893.539	707.334
233.913	25.370	894.133	711.258
234.928	25.371	894.006	711.100
235.942	25.236	893.206	709.866
236.957	25.214	892.612	709.244
237.972	25.013	891.431	707.449
238.986	24.951	890.961	706.769
240.001	25.211	890.110	707.058
241.015	25.072	889.735	706.149
242.030	25.191	888.865	705.864
243.045	25.234	888.573	705.738
244.059	25.314	888.406	705.859
245.074	25.710	887.760	706.838
246.088	25.591	887.104	705.786
247.103	25.097	886.308	703.154
248.117	25.228	885.598	703.043
249.132	25.613	886.127	704.908
250.147	26.147	885.176	706.178
251.161	26.080	885.129	705.815
252.176	26.361	884.418	706.285
253.190	26.266	883.755	705.324
254.205	26.336	883.505	705.332
255.220	26.662	883.174	706.279
256.234	26.671	882.084	705.378
257.249	26.414	881.864	704.140
258.263	26.382	880.932	703.208
259.278	26.383	880.201	702.568
260.293	26.346	880.186	702.351
261.307	26.445	879.237	701.914
262.322	26.366	878.471	700.934
263.336	26.241	877.822	699.871
264.351	25.823	876.792	697.367
265.366	24.672	874.702	691.197
266.380	24.318	873.472	688.795
267.395	25.110	874.620	692.704
268.409	26.115	874.373	696.324
269.424	25.857	873.911	694.902
270.439	26.099	873.508	695.452
271.453	26.180	872.634	695.007
272.468	26.265	872.030	694.789
273.482	26.267	871.859	694.601
274.497	26.376	871.447	694.629
275.512	26.276	870.239	693.220
276.526	25.701	868.633	689.678
277.541	25.965	868.349	690.403
278.555	26.258	868.289	691.415
279.570	26.124	867.725	690.393
280.585	25.899	866.977	688.877
281.599	25.983	866.341	688.631
282.614	26.150	865.961	688.905
283.628	25.656	864.639	685.910
284.643	25.335	863.837	683.990
285.657	25.664	864.034	685.338
286.672	25.574	863.343	684.391
287.687	25.210	861.988	681.871
288.701	25.538	861.866	682.961
289.716	25.973	862.003	684.660
290.730	25.449	861.270	682.030
291.745	25.432	859.869	680.796
292.760	25.214	859.358	679.503
293.774	25.184	858.846	678.927
294.789	26.052	859.506	682.673
295.803	26.620	859.427	684.700
296.818	26.626	859.367	684.613
297.833	26.891	858.614	684.953
298.847	26.450	857.482	682.327
299.862	26.019	856.235	679.651
300.876	26.399	855.682	680.582
301.891	26.691	855.458	681.442
302.906	26.842	855.060	681.632
303.920	26.445	853.826	679.099
304.935	26.144	853.461	677.619
305.949	26.652	853.070	679.152
306.964	26.843	852.325	679.216
307.979	26.452	852.052	677.472
308.993	26.644	851.393	677.607
310.008	26.753	851.632	678.146
311.022	26.942	851.076	678.348
312.037	26.660	850.206	676.541
313.052	26.407	849.808	675.224
314.066	26.369	848.803	674.224
315.081	25.693	847.428	670.553
316.095	24.921	846.009	666.497
317.110	25.389	846.460	668.536
318.125	26.243	846.758	671.892
319.139	25.925	845.878	669.952
320.154	24.845	843.953	664.360
321.168	24.447	842.564	661.734
322.183	24.911	843.131	663.840
323.197	25.812	843.566	667.467
324.212	26.212	843.061	668.486
325.227	26.390	842.939	668.990
326.241	26.539	842.443	669.089
327.256	26.505	841.749	668.353
328.270	26.228	840.898	666.597
329.285	26.236	840.550	666.289
330.300	26.129	839.590	665.077
331.314	25.783	838.834	663.145
332.329	25.923	838.494	663.333
333.343	26.352	838.402	664.778
334.358	26.600	838.066	665.365
335.373	26.681	837.125	664.856
336.387	26.667	836.843	664.521
337.402	26.706	836.589	664.403
338.416	27.084	836.160	665.391
339.431	27.013	835.592	664.619
340.446	27.094	834.986	664.374
341.460	27.218	834.776	664.603
342.475	27.124	834.122	663.680
343.489	26.998	833.203	662.429
344.504	26.979	832.997	662.139
345.519	27.205	832.600	662.586
346.533	27.412	832.088	662.876
347.548	27.390	831.861	662.556
348.562	27.447	831.340	662.289
349.577	27.513	830.519	661.817
350.592	27.374	830.063	660.890
351.606	27.321	829.488	660.181
352.621	27.304	829.092	659.745
353.635	27.324	828.358	659.176
354.650	27.209	828.133	658.524
355.665	26.749	827.408	656.222
356.679	25.739	825.448	650.960
357.694	25.523	825.278	649.988
358.708	26.391	824.857	652.733
359.723	26.243	824.264	651.673
360.738	26.498	824.231	652.508
361.752	26.953	824.270	654.119
362.767	27.053	824.145	654.325
363.781	27.283	823.704	654.745
364.796	27.795	823.330	656.230
365.810	27.681	823.061	655.548
366.825	27.766	822.858	655.634
367.840	27.552	822.667	654.655
368.854	27.575	821.767	653.965
369.869	27.135	820.811	651.566
370.883	27.047	820.283	650.775
371.898	27.059	819.537	650.170
372.913	27.019	819.139	649.652
373.927	27.097	818.246	649.164
374.942	27.256	817.399	649.003
375.956	27.336	817.295	649.149
376.971	27.349	816.898	648.822
377.986	27.462	816.325	648.713
379.000	27.594	815.986	648.855
380.015	27.861	815.182	649.108
381.029	27.858	814.072	648.157
382.044	27.616	813.989	647.174
383.059	27.653	813.581	646.923
384.073	27.708	812.933	646.546
385.088	27.617	812.608	645.908
386.102	27.651	812.104	645.571
387.117	27.486	811.747	644.648
388.132	27.427	810.622	643.486
389.146	27.332	809.771	642.420
390.161	26.863	808.606	639.786
391.175	26.815	808.737	639.661
392.190	27.202	809.318	641.430
393.205	27.370	808.529	641.342
394.219	26.524	806.562	636.747
395.234	24.672	804.204	628.329
396.248	24.065	803.224	625.374
397.263	25.119	804.009	629.636
398.278	26.972	805.170	636.996
399.292	27.401	805.053	638.352
400.307	26.929	804.980	636.583
401.321	26.936	804.200	635.935
402.336	26.991	804.007	635.917
403.350	27.269	804.144	636.945
404.365	27.711	804.028	638.342
405.380	28.050	803.636	639.161
406.394	28.120	803.569	639.294
407.409	28.389	803.144	639.840
408.423	28.329	802.534	639.089
409.438	28.371	802.009	638.761
410.453	28.351	801.597	638.305
411.467	28.351	801.246	637.969
412.482	28.371	800.456	637.353
413.496	28.488	799.932	637.286
414.511	28.611	799.716	637.485
415.526	28.572	799.456	637.086
416.540	28.555	798.936	636.557
417.555	28.253	798.570	635.163
418.569	28.010	797.714	633.583
419.584	27.859	797.597	632.911
420.599	28.113	796.677	633.005
421.613	111.583	1284.541	1458.914
422.628	96.210	1355.606	1459.030
