DTS Sentinel unit serial number:	SN413079Multiplexer serial number:	ORYXHardware model number:	OX4-SRSoftware version number:	ORYX F/W v4.00 Oryx Data Collector v3.7.2.0data status	okinstallation	princeton_trtdifferential loss correction	single-endedforward channel	channel 3reverse channel	N/Adate	2019/09/11time	00:34:11forward acquisition time	60.00reverse acquisition time	0.00gamma	496.2192k internal	0.2332k external	0.2332temperature offset calibration	0.9914default loss term (dB/km)	0.3790temperature slope calibration	1.0000multiplexer offset coefficient	1.0000multiplexer slope coefficient	1.0000fibre end	0.00T internal ref (°C)	29.25T ext. ref 1 (°C)	-0.30T ext. ref 2 (°C)	22.98length (m)	temperature (°C)	Stokes	anti-Stokes-747.200	-200.000	0.014	0.190
-746.185	800.000	0.072	0.213
-745.171	-133.294	0.431	0.055
-744.156	185.119	0.111	-0.166
-743.142	-91.349	-0.306	-0.088
-742.127	-115.718	-0.307	0.058
-741.112	399.552	0.136	0.287
-740.098	284.788	-0.127	0.230
-739.083	-14.621	-0.090	-0.058
-738.069	-200.000	0.046	0.228
-737.054	-154.047	0.289	-0.020
-736.039	243.708	0.060	-0.102
-735.025	137.705	0.259	0.341
-734.010	-46.440	-0.333	0.165
-732.996	4.213	-0.210	-0.154
-731.981	-38.370	-0.221	-0.118
-730.966	505.478	-0.042	-0.098
-729.952	-48.572	0.113	-0.055
-728.937	800.000	0.029	-0.080
-727.923	-85.395	0.361	-0.113
-726.908	800.000	-0.067	-0.268
-725.894	-165.285	-0.467	-0.021
-724.879	-42.444	0.164	0.084
-723.864	247.314	0.124	-0.211
-722.850	223.492	-0.128	0.207
-721.835	-200.000	-0.064	0.292
-720.821	225.191	-0.225	-0.366
-719.806	-64.850	-0.128	-0.052
-718.791	-200.000	0.019	0.181
-717.777	-27.153	0.066	-0.039
-716.762	111.049	-0.047	-0.057
-715.748	-200.000	-0.041	-0.195
-714.733	-17.635	-0.248	0.157
-713.718	-64.729	0.305	0.124
-712.704	-86.457	-0.148	0.046
-711.689	800.000	-0.076	-0.312
-710.675	71.119	0.281	-0.293
-709.660	-65.055	0.084	0.034
-708.645	-169.421	0.369	0.014
-707.631	-94.070	-0.309	0.085
-706.616	536.757	0.102	0.242
-705.602	197.092	-0.110	-0.168
-704.587	-68.931	-0.283	0.110
-703.572	432.052	-0.082	0.178
-702.558	77.414	0.121	-0.130
-701.543	-60.915	-0.176	-0.075
-700.529	-140.066	0.137	0.014
-699.514	-118.240	0.286	0.051
-698.499	-1.400	0.443	0.314
-697.485	-113.877	0.235	-0.046
-696.470	-200.000	-0.023	-0.172
-695.456	-200.000	0.007	0.095
-694.441	86.588	0.090	-0.099
-693.426	-200.000	-0.011	0.134
-692.412	800.000	0.025	0.097
-691.397	169.110	0.055	0.079
-690.383	-200.000	0.037	-0.301
-689.368	421.343	0.069	-0.148
-688.354	403.412	-0.024	-0.050
-687.339	416.826	-0.110	0.236
-686.324	-89.407	0.194	-0.057
-685.310	-162.533	-0.226	0.011
-684.295	-191.950	-0.009	0.000
-683.281	-200.000	0.067	0.355
-682.266	89.941	-0.118	0.133
-681.251	-36.019	0.387	-0.210
-680.237	-77.273	0.149	0.052
-679.222	-78.664	-0.216	-0.074
-678.208	-73.179	-0.318	0.117
-677.193	53.352	-0.050	-0.048
-676.178	-169.402	0.035	0.001
-675.164	-200.000	-0.025	-0.131
-674.149	-200.000	-0.004	-0.307
-673.135	39.326	0.109	-0.097
-672.120	-200.000	-0.067	-0.345
-671.105	-200.000	-0.053	0.446
-670.091	-49.935	-0.176	-0.084
-669.076	10.021	0.256	-0.195
-668.062	167.348	-0.193	-0.275
-667.047	-102.286	0.340	0.082
-666.032	510.036	-0.111	-0.260
-665.018	198.488	0.118	0.181
-664.003	83.998	0.222	0.243
-662.989	27.767	0.084	-0.071
-661.974	407.465	-0.107	0.226
-660.959	7.408	-0.172	-0.129
-659.945	7.669	-0.293	-0.220
-658.930	-74.672	-0.083	0.030
-657.916	99.267	0.192	0.223
-656.901	-124.230	-0.336	-0.053
-655.886	800.000	-0.059	0.252
-654.872	-122.978	-0.228	0.037
-653.857	248.564	0.052	-0.088
-652.843	207.893	0.104	0.162
-651.828	208.483	0.123	0.193
-650.814	-95.367	0.173	0.047
-649.799	-25.583	-0.216	-0.128
-648.784	-200.000	-0.018	-0.149
-647.770	-39.665	0.327	-0.171
-646.755	-114.819	-0.307	0.059
-645.741	-9.978	-0.072	-0.048
-644.726	-38.646	-0.280	0.148
-643.711	-200.000	-0.024	0.242
-642.697	-20.864	0.021	0.013
-641.682	71.160	0.199	0.207
-640.668	-200.000	0.086	0.000
-639.653	-78.482	-0.062	-0.021
-638.638	-176.428	0.019	-0.000
-637.624	-22.879	-0.209	-0.126
-636.609	-131.494	0.134	-0.018
-635.595	-200.000	0.001	0.059
-634.580	-200.000	-0.008	0.048
-633.565	-200.000	-0.047	-0.253
-632.551	121.784	0.068	0.085
-631.536	-200.000	0.015	-0.084
-630.522	631.725	0.083	0.211
-629.507	-93.736	0.213	-0.059
-628.492	337.752	-0.099	0.193
-627.478	250.256	-0.104	0.177
-626.463	-41.950	0.208	0.107
-625.449	-64.857	0.301	0.122
-624.434	359.247	0.059	-0.118
-623.419	-100.499	0.227	-0.056
-622.405	24.058	0.073	-0.060
-621.390	-200.000	0.022	-0.286
-620.376	86.531	0.167	-0.185
-619.361	196.843	0.104	-0.159
-618.346	-126.189	-0.087	-0.013
-617.332	-20.837	-0.208	-0.128
-616.317	-149.526	0.259	-0.021
-615.303	-200.000	-0.027	0.341
-614.288	359.142	-0.115	-0.231
-613.273	522.564	0.024	-0.056
-612.259	-96.753	0.231	-0.061
-611.244	20.055	-0.256	0.207
-610.230	-149.058	-0.091	-0.007
-609.215	248.520	-0.201	0.341
-608.201	800.000	-0.022	0.065
-607.186	-189.386	-0.134	0.002
-606.171	-35.224	-0.392	-0.213
-605.157	168.586	-0.115	-0.165
-604.142	229.226	0.118	-0.193
-603.128	-200.000	-0.008	-0.146
-602.113	-27.197	-0.191	-0.111
-601.098	13.385	-0.232	0.180
-600.084	-89.767	-0.132	-0.039
-599.069	800.000	0.143	-0.494
-598.055	26.902	-0.222	0.186
-597.040	119.982	-0.107	-0.133
-596.025	-24.152	-0.117	-0.070
-595.011	-77.196	-0.074	-0.026
-593.996	14.898	0.121	0.095
-592.982	164.347	-0.088	0.124
-591.967	-106.368	-0.177	-0.040
-590.952	27.879	-0.274	-0.231
-589.938	800.000	0.071	-0.255
-588.923	-112.741	0.167	-0.033
-587.909	-57.732	0.389	0.170
-586.894	441.285	0.083	0.182
-585.879	-200.000	-0.029	-0.174
-584.865	338.310	0.085	-0.166
-583.850	-76.411	-0.268	0.094
-582.836	800.000	-0.066	-0.271
-581.821	800.000	0.076	-0.262
-580.806	278.670	-0.172	-0.307
-579.792	-79.779	-0.213	0.072
-578.777	15.392	0.259	0.203
-577.763	-51.479	-0.437	-0.204
-576.748	-67.491	0.136	0.053
-575.733	-102.287	0.078	0.019
-574.719	188.776	-0.204	-0.305
-573.704	533.063	-0.053	0.125
-572.690	800.000	0.014	-0.053
-571.675	15.043	-0.068	-0.053
-570.661	-123.305	0.176	-0.028
-569.646	-90.143	-0.391	-0.114
-568.631	4.712	0.242	0.178
-567.617	648.842	-0.080	-0.204
-566.602	-54.357	-0.441	-0.200
-565.588	395.981	0.117	0.243
-564.573	-115.592	-0.127	0.024
-563.558	303.132	0.071	-0.131
-562.544	-120.480	0.173	-0.029
-561.529	216.658	0.182	0.289
-560.515	402.485	-0.123	0.259
-559.500	-200.000	0.014	-0.222
-558.485	-62.541	-0.097	0.040
-557.471	125.111	0.170	0.214
-556.456	-200.000	-0.011	-0.176
-555.442	-44.729	-0.187	0.093
-554.427	-200.000	-0.027	0.181
-553.412	38.784	-0.131	-0.117
-552.398	-5.358	0.081	-0.056
-551.383	800.000	-0.057	-0.204
-550.369	775.296	0.049	-0.133
-549.354	48.310	-0.214	0.200
-548.339	143.083	0.027	-0.035
-547.325	0.597	-0.082	-0.058
-546.310	-104.471	0.311	-0.072
-545.296	-113.713	0.389	-0.076
-544.281	789.445	0.043	-0.119
-543.266	-144.828	0.174	-0.016
-542.252	-200.000	-0.009	0.109
-541.237	-162.421	-0.083	0.004
-540.223	116.361	0.082	-0.100
-539.208	115.849	-0.223	-0.273
-538.193	183.091	0.014	-0.021
-537.179	145.669	-0.099	-0.133
-536.164	228.116	0.070	0.114
-535.150	-29.701	-0.193	0.110
-534.135	-35.606	0.239	-0.130
-533.121	-200.000	-0.029	0.427
-532.106	-161.812	0.463	-0.023
-531.091	-31.573	0.130	-0.073
-530.077	102.261	-0.107	-0.125
-529.062	-30.629	-0.425	0.240
-528.048	-42.452	-0.106	0.054
-527.033	-134.710	-0.316	0.038
-526.018	-200.000	0.005	-0.030
-525.004	0.182	-0.130	0.092
-523.989	103.285	0.120	-0.140
-522.975	-200.000	-0.005	-0.327
-521.960	-4.220	-0.177	-0.123
-520.945	-21.398	-0.066	0.040
-519.931	800.000	-0.027	0.102
-518.916	-200.000	-0.036	-0.473
-517.902	-132.671	0.281	-0.036
-516.887	-4.025	-0.095	0.066
-515.872	465.129	-0.208	0.464
-514.858	75.404	-0.179	-0.188
-513.843	112.684	-0.074	-0.089
-512.829	-18.401	0.099	0.061
-511.814	-91.043	-0.227	-0.065
-510.799	88.750	-0.095	0.105
-509.785	50.421	-0.094	-0.088
-508.770	-48.666	0.356	-0.171
-507.756	-140.547	-0.525	-0.054
-506.741	-200.000	0.022	0.101
-505.726	775.254	0.013	-0.035
-504.712	-14.611	0.165	0.106
-503.697	110.235	-0.115	-0.138
-502.683	82.996	0.079	-0.085
-501.668	-21.107	-0.188	-0.115
-500.653	-31.733	-0.142	-0.080
-499.639	4.565	-0.155	-0.113
-498.624	-152.345	0.187	0.013
-497.610	533.208	0.068	-0.161
-496.595	59.150	0.073	-0.071
-495.581	61.514	0.215	-0.213
-494.566	800.000	-0.032	-0.134
-493.551	376.453	0.049	0.100
-492.537	800.000	0.030	0.128
-491.522	-200.000	-0.021	0.251
-490.508	-64.378	0.283	-0.115
-489.493	800.000	-0.059	0.226
-488.478	-95.008	0.116	-0.031
-487.464	-200.000	0.049	0.348
-486.449	4.005	0.167	0.122
-485.435	-24.471	-0.300	-0.178
-484.420	136.450	-0.176	-0.229
-483.405	-200.000	-0.430	-0.002
-482.391	-62.427	0.086	0.036
-481.376	-200.000	-0.004	0.437
-480.362	294.980	-0.070	0.127
-479.347	-110.018	0.249	0.052
-478.332	-146.930	0.370	0.032
-477.318	4.291	0.111	0.081
-476.303	49.290	0.220	-0.206
-475.289	-20.953	-0.171	-0.104
-474.274	-200.000	-0.140	-0.000
-473.259	234.904	0.031	0.052
-472.245	-106.652	0.140	0.031
-471.230	-11.464	0.235	-0.154
-470.216	244.366	0.153	-0.256
-469.201	-162.359	0.170	0.008
-468.186	-60.634	-0.160	0.068
-467.172	-200.000	0.099	-0.455
-466.157	1.250	0.216	-0.154
-465.143	179.563	0.081	0.117
-464.128	-89.068	0.289	0.085
-463.113	-163.263	0.188	-0.009
-462.099	130.371	-0.058	-0.074
-461.084	403.226	-0.020	-0.043
-460.070	591.741	-0.115	-0.282
-459.055	800.000	-0.047	0.207
-458.040	-96.467	0.144	0.038
-457.026	-165.129	0.287	-0.013
-456.011	231.550	-0.148	-0.241
-454.997	640.091	0.047	0.119
-453.982	144.700	-0.050	-0.066
-452.968	-200.000	0.002	-0.177
-451.953	-47.910	0.033	0.016
-450.938	487.026	0.187	-0.424
-449.924	800.000	0.036	0.116
-448.909	-123.272	-0.265	0.042
-447.895	14.130	-0.147	-0.114
-446.880	-12.979	-0.207	-0.134
-445.865	386.367	-0.088	-0.182
-444.851	511.305	-0.229	0.529
-443.836	4.356	-0.066	-0.048
-442.822	274.252	0.127	-0.223
-441.807	132.570	0.117	0.150
-440.792	332.833	0.069	0.133
-439.778	-99.521	0.148	0.037
-438.763	800.000	-0.026	-0.083
-437.749	136.427	-0.090	0.116
-436.734	75.032	-0.128	0.134
-435.719	409.586	0.090	-0.189
-434.705	-72.868	-0.087	0.032
-433.690	-52.129	0.106	-0.049
-432.676	189.642	-0.024	0.035
-431.661	-32.311	0.292	0.162
-430.646	-200.000	0.004	0.158
-429.632	-163.234	-0.133	0.006
-428.617	251.504	-0.043	0.072
-427.603	-92.533	0.257	-0.072
-426.588	-42.121	-0.063	-0.032
-425.573	29.965	0.114	-0.096
-424.559	209.393	0.172	-0.268
-423.544	-100.400	-0.330	0.081
-422.530	184.040	0.133	-0.196
-421.515	800.000	-0.103	-0.322
-420.500	151.883	-0.112	0.152
-419.486	-146.013	0.217	-0.019
-418.471	-82.765	-0.302	0.097
-417.457	130.121	-0.131	0.167
-416.442	-35.741	-0.291	-0.157
-415.428	-84.239	-0.194	0.061
-414.413	-101.477	0.309	-0.075
-413.398	53.068	-0.080	0.076
-412.384	-161.148	-0.296	-0.015
-411.369	100.908	-0.191	0.221
-410.355	81.253	-0.018	0.019
-409.340	13.904	0.102	0.079
-408.325	800.000	-0.042	-0.151
-407.311	-142.979	-0.054	-0.005
-406.296	217.538	-0.220	-0.348
-405.282	-200.000	-0.065	0.287
-404.267	121.255	0.121	0.149
-403.252	-49.524	0.187	-0.088
-402.238	405.841	0.113	-0.236
-401.223	17.718	0.210	0.166
-400.209	93.521	-0.127	0.142
-399.194	-69.081	0.156	0.060
-398.179	531.289	0.105	0.247
-397.165	-42.161	0.343	0.174
-396.150	-35.751	0.197	-0.106
-395.136	-128.398	0.194	0.027
-394.121	344.751	0.134	0.260
-393.106	100.133	-0.173	0.199
-392.092	57.157	-0.080	-0.078
-391.077	291.250	0.064	0.116
-390.063	-46.682	0.151	-0.074
-389.048	-200.000	-0.011	-0.109
-388.033	-200.000	-0.023	0.217
-387.019	-94.905	-0.245	0.066
-386.004	800.000	-0.012	0.048
-384.990	100.820	0.251	-0.290
-383.975	370.565	-0.066	-0.134
-382.960	42.526	0.169	0.153
-381.946	-6.092	0.236	-0.160
-380.931	-200.000	-0.073	-0.477
-379.917	-200.000	-0.072	0.326
-378.902	-92.063	-0.396	-0.111
-377.888	64.796	0.064	0.064
-376.873	-22.341	-0.059	-0.035
-375.858	800.000	0.099	-0.310
-374.844	-67.227	-0.216	-0.084
-373.829	187.906	0.143	0.212
-372.815	353.701	-0.029	-0.058
-371.800	-6.502	0.084	0.057
-370.785	28.822	-0.209	-0.176
-369.771	12.661	-0.195	-0.149
-368.756	-84.932	0.173	-0.054
-367.742	-83.748	0.232	-0.073
-366.727	-8.875	-0.424	-0.282
-365.712	-61.128	-0.295	0.123
-364.698	369.209	0.069	-0.138
-363.683	800.000	0.125	0.496
-362.669	-120.049	-0.074	-0.013
-361.654	800.000	0.169	-0.618
-360.639	310.349	-0.038	-0.071
-359.625	-25.640	-0.130	-0.076
-358.610	-68.477	0.406	-0.156
-357.596	65.999	-0.158	-0.158
-356.581	-200.000	0.003	-0.258
-355.566	163.278	0.172	0.239
-354.552	17.593	0.180	0.142
-353.537	-200.000	-0.024	0.359
-352.523	-64.087	0.020	0.008
-351.508	515.751	-0.101	0.233
-350.493	-200.000	-0.024	0.172
-349.479	-10.028	0.184	-0.121
-348.464	-89.720	0.117	-0.034
-347.450	-2.867	-0.164	-0.114
-346.435	800.000	-0.058	0.218
-345.420	-131.698	-0.138	0.018
-344.406	2.024	-0.069	0.049
-343.391	-126.573	-0.513	0.075
-342.377	13.900	-0.449	0.346
-341.362	266.153	0.245	0.423
-340.348	51.200	-0.253	-0.238
-339.333	800.000	0.088	-0.381
-338.318	-70.950	0.236	0.088
-337.304	101.108	0.100	-0.116
-336.289	-37.097	0.174	0.092
-335.275	-200.000	-0.028	-0.409
-334.260	-70.570	0.198	-0.074
-333.245	800.000	-0.021	0.059
-332.231	475.284	-0.098	0.219
-331.216	74.372	-0.103	0.107
-330.202	-200.000	-0.008	0.091
-329.187	-200.000	0.025	0.212
-328.172	-200.000	-0.030	0.147
-327.158	800.000	0.009	-0.038
-326.143	17.610	0.286	0.225
-325.129	-28.480	0.227	-0.130
-324.114	-87.480	-0.293	0.088
-323.099	-117.719	-0.465	0.083
-322.085	-172.653	-0.256	0.008
-321.070	375.923	-0.080	0.162
-320.056	-15.392	-0.073	0.046
-319.041	127.329	0.147	-0.184
-318.026	-112.829	0.311	-0.061
-317.012	-16.312	-0.162	0.102
-315.997	-59.450	0.424	-0.180
-314.983	-200.000	-0.064	0.461
-313.968	-170.024	0.297	0.010
-312.953	25.961	0.080	-0.066
-311.939	-200.000	-0.010	0.275
-310.924	-61.117	0.089	-0.037
-309.910	174.521	0.091	-0.131
-308.895	85.723	0.153	-0.166
-307.880	-40.934	0.256	0.131
-306.866	229.445	0.154	0.249
-305.851	71.509	0.318	0.327
-304.837	0.805	-0.116	-0.082
-303.822	-147.687	-0.093	-0.008
-302.807	-33.756	-0.082	-0.045
-301.793	-104.001	-0.217	-0.050
-300.778	-107.840	0.141	0.030
-299.764	-8.054	-0.147	0.098
-298.749	-200.000	0.007	0.408
-297.735	-94.717	0.174	0.047
-296.720	-200.000	0.016	-0.091
-295.705	-193.321	0.125	-0.001
-294.691	-200.000	-0.034	0.282
-293.676	800.000	-0.141	-0.443
-292.662	248.380	-0.059	0.098
-291.647	-200.000	0.002	-0.116
-290.632	120.125	-0.129	-0.158
-289.618	800.000	-0.021	-0.067
-288.603	-45.990	-0.358	-0.174
-287.589	155.496	-0.155	-0.211
-286.574	162.005	-0.099	0.138
-285.559	-200.000	-0.003	-0.249
-284.545	43.849	-0.278	-0.252
-283.530	-200.000	-0.017	0.139
-282.516	-134.256	0.202	-0.025
-281.501	285.551	0.133	0.236
-280.486	-38.075	0.123	-0.065
-279.472	-200.000	0.030	0.208
-278.457	484.619	-0.152	-0.343
-277.443	-200.000	0.072	0.532
-276.428	-56.444	0.337	0.148
-275.413	-112.638	0.250	-0.049
-274.399	-200.000	0.003	-0.091
-273.384	800.000	-0.037	0.138
-272.370	-87.178	-0.216	-0.065
-271.355	-34.141	-0.075	0.041
-270.340	-13.825	0.307	-0.196
-269.326	-7.092	0.131	-0.088
-268.311	1.554	-0.330	0.235
-267.297	57.722	0.225	0.218
-266.282	-200.000	0.005	-0.144
-265.267	-15.420	-0.098	-0.062
-264.253	-200.000	-0.006	-0.085
-263.238	10.480	-0.103	0.077
-262.224	-200.000	-0.014	0.277
-261.209	-85.161	-0.142	-0.044
-260.195	394.593	0.122	0.250
-259.180	-200.000	-0.057	0.473
-258.165	10.847	0.227	0.171
-257.151	121.276	0.178	-0.218
-256.136	682.733	0.050	-0.128
-255.122	392.904	0.028	0.058
-254.107	13.188	0.025	-0.019
-253.092	136.163	-0.132	0.170
-252.078	800.000	-0.180	-0.495
-251.063	-107.071	-0.194	-0.042
-250.049	-83.686	0.185	-0.058
-249.034	-40.424	0.087	-0.045
-248.019	72.624	-0.095	0.098
-247.005	-200.000	0.049	0.319
-245.990	103.379	0.301	0.348
-244.976	296.079	0.161	0.290
-243.961	-110.961	0.179	0.036
-242.946	-34.185	0.295	0.160
-241.932	800.000	-0.078	-0.315
-240.917	169.176	0.204	-0.287
-239.903	800.000	0.088	0.258
-238.888	-165.615	-0.456	0.020
-237.873	-49.696	-0.049	0.023
-236.859	-98.193	0.380	-0.096
-235.844	800.000	-0.016	-0.055
-234.830	17.891	-0.149	-0.117
-233.815	800.000	0.063	-0.245
-232.800	6.441	-0.127	0.093
-231.786	667.447	0.037	-0.093
-230.771	-3.394	-0.265	0.182
-229.757	-0.447	0.164	0.115
-228.742	800.000	0.105	-0.448
-227.727	-151.846	0.157	0.011
-226.713	-113.556	-0.176	-0.034
-225.698	12.902	0.138	-0.105
-224.684	800.000	-0.023	0.087
-223.669	24.106	-0.102	0.083
-222.655	-200.000	-0.026	-0.226
-221.640	-111.773	-0.413	0.082
-220.625	-107.288	0.123	0.027
-219.611	-159.602	0.260	0.014
-218.596	-104.744	-0.242	0.055
-217.582	-167.659	0.460	-0.018
-216.567	742.115	-0.058	0.154
-215.552	-132.002	0.108	0.014
-214.538	-123.949	0.250	-0.039
-213.523	-11.537	-0.104	-0.067
-212.509	60.708	0.179	0.174
-211.494	-115.845	0.162	0.030
-210.479	136.517	-0.125	0.160
-209.465	55.428	-0.192	0.183
-208.450	800.000	0.066	0.203
-207.436	169.520	0.267	0.376
-206.421	367.805	0.064	-0.127
-205.406	20.832	0.046	0.037
-204.392	-200.000	0.037	0.240
-203.377	-47.658	0.257	-0.123
-202.363	-88.370	0.258	-0.076
-201.348	366.800	0.022	0.044
-200.333	800.000	0.045	0.186
-199.319	-54.541	0.232	-0.104
-198.304	25.023	0.100	-0.082
-197.290	-78.735	0.069	-0.023
-196.275	800.000	0.014	0.061
-195.260	-23.948	-0.183	-0.108
-194.246	32.947	0.309	0.263
-193.231	90.209	-0.112	-0.124
-192.217	149.768	-0.080	0.107
-191.202	-134.465	0.260	0.031
-190.187	-98.979	0.249	-0.062
-189.173	9.358	-0.332	0.248
-188.158	-200.000	0.002	-0.235
-187.144	-200.000	-0.023	0.269
-186.129	415.273	-0.116	-0.244
-185.114	5.840	-0.085	0.062
-184.100	52.418	-0.075	0.070
-183.085	258.244	0.206	-0.350
-182.071	682.693	-0.129	-0.332
-181.056	-88.826	-0.163	-0.048
-180.042	-87.373	-0.403	-0.120
-179.027	-139.788	-0.281	0.029
-178.012	-9.471	-0.162	-0.106
-176.998	-75.404	0.233	0.082
-175.983	-146.754	0.102	-0.009
-174.969	-22.286	0.147	0.088
-173.954	800.000	-0.070	-0.219
-172.939	-128.120	-0.098	0.014
-171.925	800.000	0.038	0.131
-170.910	-109.633	-0.245	0.051
-169.896	56.031	-0.031	0.030
-168.881	-96.075	-0.099	0.026
-167.866	-200.000	0.018	0.131
-166.852	38.231	-0.384	0.337
-165.837	490.672	-0.176	0.396
-164.823	-12.173	0.257	0.166
-163.808	-102.159	0.153	0.036
-162.793	-67.009	0.109	-0.042
-161.779	570.109	-0.037	-0.088
-160.764	-24.659	-0.101	0.059
-159.750	-200.000	-0.214	0.000
-158.735	466.067	-0.088	0.194
-157.720	12.926	0.224	0.170
-156.706	-200.000	-0.023	0.187
-155.691	315.802	-0.065	-0.120
-154.677	-120.770	0.210	-0.035
-153.662	61.878	-0.029	-0.028
-152.647	-63.173	0.062	-0.025
-151.633	-124.633	-0.559	0.085
-150.618	-47.628	0.096	-0.046
-149.604	38.103	0.264	0.231
-148.589	-79.718	-0.066	0.022
-147.574	-200.000	-0.023	0.203
-146.560	-117.859	-0.063	-0.011
-145.545	-118.359	-0.344	-0.060
-144.531	-200.000	0.050	0.279
-143.516	-102.292	-0.328	0.077
-142.502	-200.000	0.046	-0.200
-141.487	-200.000	-0.033	-0.204
-140.472	86.217	-0.196	-0.212
-139.458	-85.081	0.185	-0.057
-138.443	388.731	-0.174	0.353
-137.429	-13.105	0.161	-0.103
-136.414	800.000	-0.063	0.267
-135.399	-53.707	-0.079	0.036
-134.385	-145.449	0.103	0.009
-133.370	-200.000	0.004	-0.035
-132.356	33.286	-0.090	0.076
-131.341	179.047	-0.201	0.289
-130.326	-200.000	-0.017	0.211
-129.312	326.023	0.122	0.230
-128.297	-79.347	0.318	-0.106
-127.283	-101.328	-0.192	0.046
-126.268	-26.583	-0.192	-0.111
-125.253	-200.000	-0.015	-0.084
-124.239	87.724	0.186	-0.202
-123.224	-106.375	0.338	-0.074
-122.210	-141.900	-0.336	0.033
-121.195	272.048	-0.187	0.323
-120.180	607.284	-0.044	0.108
-119.166	-146.387	0.533	0.046
-118.151	42.764	0.154	0.138
-117.137	545.313	0.144	0.337
-116.122	-97.141	0.041	0.010
-115.107	128.187	-0.072	0.090
-114.093	800.000	0.033	0.127
-113.078	660.161	0.056	0.142
-112.064	-174.148	0.428	0.012
-111.049	-172.032	-0.076	-0.002
-110.034	-140.962	-0.169	0.017
-109.020	150.540	-0.195	0.260
-108.005	632.715	-0.123	0.306
-106.991	-200.000	0.030	0.207
-105.976	165.977	-0.135	-0.188
-104.962	7.919	0.091	-0.067
-103.947	-47.147	0.138	0.066
-102.932	-0.311	0.384	0.268
-101.918	-93.287	0.149	-0.041
-100.903	570.738	-0.091	0.218
-99.889	13.929	-0.275	-0.210
-98.874	10.596	-0.244	0.182
-97.859	-59.620	0.205	0.086
-96.845	362.396	-0.082	-0.161
-95.830	-40.003	0.042	-0.021
-94.816	52.196	-0.139	-0.130
-93.801	800.000	-0.138	0.422
-92.786	-200.000	0.040	0.252
-91.772	-143.621	-0.165	0.015
-90.757	-128.660	-0.183	-0.025
-89.743	-137.006	0.159	-0.018
-88.728	-100.539	0.295	0.072
-87.713	-66.653	0.454	0.176
-86.699	284.729	-0.198	0.350
-85.684	-129.381	-0.111	-0.015
-84.670	212.049	0.061	0.095
-83.655	-67.809	0.346	0.133
-82.640	207.032	0.079	0.120
-81.626	-200.000	-0.055	0.283
-80.611	-1.210	0.280	-0.194
-79.597	255.282	-0.036	-0.061
-78.582	176.265	-0.155	0.221
-77.567	-75.246	0.249	-0.087
-76.553	212.466	0.266	-0.411
-75.538	-99.164	-0.235	-0.058
-74.524	-200.000	0.002	-0.117
-73.509	-144.189	-0.223	0.020
-72.494	129.013	-0.185	0.231
-71.480	-173.214	0.048	0.001
-70.465	800.000	-0.097	0.332
-69.451	-185.155	-0.120	-0.002
-68.436	648.476	0.033	0.082
-67.422	354.856	0.152	-0.296
-66.407	-50.027	0.017	0.008
-65.392	-40.793	-0.263	-0.134
-64.378	-22.196	-0.229	-0.136
-63.363	287.659	0.238	-0.422
-62.349	197.129	-0.137	0.204
-61.334	140.558	-0.971	-1.256
-60.319	103.678	0.593	0.682
-59.305	800.000	-0.317	-1.202
-58.290	84.381	0.947	1.015
-57.276	289.488	0.805	1.430
-56.261	-200.000	107.052	621.123
-55.246	518.062	1511.489	3464.288
-54.232	176.534	2700.241	3843.531
-53.217	109.877	2180.491	2561.332
-52.203	39.800	1703.764	1497.319
-51.188	32.349	1517.068	1282.621
-50.173	30.089	1490.654	1245.071
-49.159	50.672	1547.211	1433.915
-48.144	50.905	1563.290	1450.358
-47.130	32.596	1518.727	1285.506
-46.115	29.525	1504.261	1252.416
-45.100	29.401	1500.773	1248.625
-44.086	29.224	1498.771	1245.712
-43.071	29.233	1496.749	1244.044
-42.057	29.205	1495.423	1242.703
-41.042	29.301	1493.611	1241.790
-40.027	29.219	1492.295	1240.095
-39.013	29.220	1490.731	1238.758
-37.998	29.196	1489.108	1237.193
-36.984	29.197	1488.355	1236.529
-35.969	29.227	1486.583	1235.208
-34.954	29.152	1485.247	1233.545
-33.940	29.235	1483.644	1232.721
-32.925	29.176	1482.344	1231.196
-31.911	29.312	1480.977	1230.920
-30.896	29.215	1480.396	1229.746
-29.881	29.437	1478.455	1229.561
-28.867	29.295	1477.757	1227.984
-27.852	29.285	1476.601	1226.912
-26.838	29.332	1474.697	1225.592
-25.823	29.276	1473.286	1224.001
-24.809	29.304	1471.612	1222.747
-23.794	29.361	1470.174	1221.879
-22.779	29.291	1469.151	1220.518
-21.765	29.231	1468.720	1219.711
-20.750	29.372	1466.987	1219.160
-19.736	29.294	1466.323	1218.040
-18.721	29.264	1465.252	1216.909
-17.706	29.309	1463.932	1216.058
-16.692	29.272	1462.707	1214.747
-15.677	29.273	1461.427	1213.647
-14.663	29.258	1460.726	1212.915
-13.648	29.191	1459.814	1211.672
-12.633	29.201	1458.883	1210.917
-11.619	29.192	1457.979	1210.057
-10.604	29.203	1457.609	1209.776
-9.590	29.219	1456.422	1208.843
-8.575	29.270	1455.030	1207.979
-7.560	29.232	1454.183	1206.977
-6.546	29.285	1453.381	1206.613
-5.531	29.165	1452.807	1205.298
-4.517	29.208	1451.759	1204.667
-3.502	29.086	1451.052	1203.231
-2.487	29.200	1449.940	1203.004
-1.473	29.258	1448.872	1202.452
-0.458	29.231	1447.354	1200.970
0.556	26.872	1437.922	1189.810
1.571	23.948	1412.857	1150.090
2.586	20.699	1352.830	1080.985
3.600	19.160	1271.513	1006.925
4.615	18.124	1227.209	965.902
5.629	15.725	1172.011	909.418
6.644	7.564	1088.536	803.432
7.659	0.905	1048.765	741.467
8.673	-0.095	1043.088	732.515
9.688	-0.280	1039.855	729.282
10.702	-0.339	1038.193	727.766
11.717	-0.486	1036.586	725.861
12.731	2.633	1039.116	742.697
13.746	11.358	1051.603	794.195
14.761	18.189	1060.723	834.448
15.775	19.868	1061.987	843.559
16.790	20.098	1061.905	844.543
17.804	19.898	1060.868	842.667
18.819	19.654	1060.467	841.087
19.834	19.928	1059.273	841.397
20.848	19.865	1059.216	840.970
21.863	19.866	1058.923	840.671
22.877	19.944	1058.070	840.298
23.892	20.004	1057.036	839.691
24.907	19.893	1056.300	838.492
25.921	19.928	1055.975	838.334
26.936	20.008	1055.055	837.914
27.950	19.960	1054.172	836.905
28.965	19.917	1053.035	835.723
29.980	19.779	1050.989	833.359
30.994	19.869	1049.354	832.424
32.009	19.931	1048.619	832.065
33.023	20.078	1048.325	832.463
34.038	19.690	1047.367	829.765
35.053	19.788	1046.242	829.274
36.067	19.891	1045.816	829.355
37.082	19.968	1044.937	828.951
38.096	20.107	1043.839	828.671
39.111	20.084	1043.292	828.058
40.126	20.172	1042.456	827.738
41.140	20.273	1041.244	827.185
42.155	19.931	1039.555	824.141
43.169	19.524	1038.792	821.529
44.184	19.593	1037.583	820.829
45.199	19.704	1036.067	820.080
46.213	19.772	1034.816	819.343
47.228	19.517	1034.514	817.821
48.242	19.751	1033.491	818.047
49.257	19.770	1032.685	817.426
50.271	19.912	1031.534	817.117
51.286	20.187	1030.624	817.618
52.301	19.948	1030.146	816.039
53.315	19.951	1029.261	815.283
54.330	20.131	1028.022	815.073
55.344	19.946	1027.349	813.601
56.359	19.886	1026.995	812.967
57.374	19.888	1026.022	812.130
58.388	19.782	1024.694	810.510
59.403	19.773	1023.888	809.760
60.417	19.800	1023.237	809.301
61.432	19.635	1022.392	807.789
62.447	19.631	1021.544	807.027
63.461	19.805	1021.308	807.582
64.476	19.910	1020.119	807.064
65.490	19.764	1019.519	805.836
66.505	19.703	1018.190	804.430
67.520	19.742	1017.522	804.014
68.534	19.823	1016.943	803.861
69.549	19.773	1015.758	802.620
70.563	19.481	1014.502	800.202
71.578	19.483	1013.626	799.452
72.593	19.515	1012.650	798.759
73.607	19.420	1011.543	797.377
74.622	19.383	1010.694	796.464
75.636	19.526	1010.385	796.812
76.651	19.689	1009.123	796.498
77.666	19.524	1008.258	794.985
78.680	19.424	1007.947	794.209
79.695	19.487	1007.278	793.899
80.709	19.454	1006.966	793.430
81.724	19.675	1006.077	793.676
82.739	19.713	1004.883	792.840
83.753	19.653	1003.802	791.641
84.768	19.910	1003.210	792.281
85.782	20.161	1002.929	793.137
86.797	20.335	1001.815	792.980
87.812	20.279	1000.955	791.972
88.826	20.076	1000.057	790.268
89.841	19.956	999.463	789.183
90.855	20.251	998.300	789.536
91.870	20.152	997.541	788.415
92.884	20.266	996.794	788.275
93.899	20.147	995.585	786.706
94.914	20.084	994.773	785.709
95.928	20.281	993.515	785.540
96.943	20.151	993.447	784.826
97.957	19.885	992.054	782.457
98.972	19.670	990.969	780.560
99.987	19.443	990.169	778.833
101.001	19.521	989.394	778.507
102.016	19.839	988.793	779.400
103.030	20.003	987.599	779.127
104.045	19.866	986.171	777.316
105.060	19.724	984.947	775.649
106.074	19.621	983.548	774.014
107.089	19.572	983.239	773.481
108.103	19.974	982.889	774.940
109.118	20.187	981.467	774.702
110.133	19.797	981.044	772.558
111.147	19.906	979.669	771.893
112.162	19.768	978.472	770.267
113.176	19.490	977.365	768.087
114.191	19.662	976.430	768.050
115.206	19.697	975.565	767.459
116.220	19.439	974.330	765.273
117.235	19.232	973.347	763.515
118.249	19.302	973.140	763.600
119.264	19.400	972.182	763.213
120.279	19.387	970.616	761.856
121.293	19.417	970.068	761.491
122.308	19.451	969.536	761.160
123.322	19.559	968.351	760.635
124.337	19.575	967.238	759.766
125.352	19.395	966.141	758.047
126.366	19.046	964.118	754.861
127.381	18.755	962.932	752.590
128.395	19.267	962.737	754.613
129.410	19.793	962.527	756.684
130.424	20.015	961.555	756.825
131.439	20.039	960.502	756.034
132.454	19.853	959.450	754.326
133.468	19.813	958.786	753.561
134.483	19.871	957.649	752.854
135.497	19.888	957.336	752.615
136.512	20.104	956.654	752.953
137.527	20.063	955.677	751.938
138.541	20.230	954.849	751.945
139.556	20.265	953.752	751.167
140.570	20.182	953.272	750.363
141.585	20.145	952.387	749.440
142.600	20.193	951.674	749.019
143.614	19.940	951.119	747.421
144.629	20.250	950.150	747.932
145.643	20.531	949.005	748.174
146.658	20.420	947.880	746.746
147.673	20.160	946.569	744.528
148.687	20.069	946.419	743.954
149.702	20.029	944.757	742.410
150.716	20.072	943.073	741.205
151.731	19.903	942.784	740.192
152.746	19.931	942.385	739.930
153.760	20.283	941.752	740.871
154.775	20.342	940.843	740.343
155.789	20.387	939.848	739.687
156.804	20.389	938.809	738.814
157.819	20.310	938.157	737.898
158.833	20.300	937.093	736.955
159.848	20.298	936.903	736.728
160.862	20.314	936.252	736.221
161.877	20.190	934.790	734.482
162.892	20.352	933.742	734.277
163.906	20.448	933.083	734.099
164.921	20.344	932.176	732.882
165.935	20.304	931.134	731.829
166.950	20.315	929.993	730.912
167.964	20.348	929.086	730.278
168.979	20.326	928.164	729.395
169.994	20.227	926.878	727.903
171.008	20.028	926.003	726.319
172.023	20.237	925.446	726.691
173.037	20.356	924.594	726.459
174.052	20.133	923.705	724.764
175.067	20.085	922.308	723.400
176.081	20.128	921.798	723.115
177.096	20.192	920.655	722.422
178.110	20.240	919.766	721.860
179.125	19.887	919.447	720.079
180.140	19.569	918.256	717.762
181.154	19.708	917.461	717.652
182.169	19.820	916.630	717.402
183.183	19.978	916.296	717.733
184.198	20.334	915.833	718.780
185.213	20.410	915.314	718.627
186.227	20.239	914.520	717.231
187.242	20.305	914.226	717.211
188.256	20.326	913.267	716.480
189.271	20.322	912.425	715.742
190.286	20.405	911.913	715.618
191.300	20.437	910.417	714.510
192.315	19.804	909.470	711.106
193.329	19.072	908.073	706.943
194.344	18.761	907.056	704.812
195.359	19.252	907.506	707.116
196.373	20.048	907.537	710.341
197.388	20.336	907.077	711.101
198.402	20.269	906.202	710.074
199.417	20.191	905.692	709.295
200.432	20.200	905.262	708.933
201.446	20.022	904.432	707.492
202.461	19.669	903.605	705.343
203.475	19.648	903.376	705.016
204.490	19.286	901.795	702.246
205.504	18.335	899.679	696.668
206.519	18.784	899.850	698.563
207.534	19.679	900.206	702.418
208.548	19.900	899.471	702.680
209.563	20.185	898.983	703.393
210.577	20.127	898.520	702.734
211.592	19.959	897.159	700.927
212.607	20.292	897.340	702.354
213.621	20.300	896.816	701.915
214.636	20.397	895.811	701.458
215.650	20.287	895.930	701.042
216.665	20.129	895.270	699.828
217.680	20.336	894.279	699.824
218.694	20.490	893.724	699.949
219.709	20.225	892.669	697.998
220.723	19.810	891.662	695.479
221.738	20.069	891.568	696.383
222.753	20.234	891.208	696.702
223.767	20.146	890.012	695.354
224.782	20.176	889.660	695.139
225.796	20.467	888.653	695.457
226.811	20.505	888.219	695.206
227.826	20.030	887.251	692.487
228.840	19.320	885.644	688.338
229.855	19.385	884.778	687.865
230.869	19.642	884.525	688.632
231.884	19.232	883.078	685.811
232.899	19.316	883.029	686.047
233.913	20.074	883.448	689.330
234.928	20.251	882.897	689.542
235.942	20.089	882.274	688.349
236.957	20.186	881.015	687.693
237.972	19.897	880.547	686.120
238.986	19.864	879.764	685.317
240.001	20.084	878.705	685.304
241.015	20.010	878.427	684.732
242.030	19.963	877.747	683.956
243.045	20.118	877.256	684.126
244.059	20.071	876.938	683.632
245.074	20.459	876.223	684.543
246.088	20.402	875.621	683.789
247.103	20.050	874.375	681.372
248.117	20.000	873.669	680.563
249.132	20.466	873.982	682.577
250.147	20.805	873.323	683.334
251.161	20.791	872.685	682.719
252.176	20.845	872.375	682.628
253.190	20.990	871.474	682.429
254.205	20.998	870.843	681.907
255.220	21.140	870.982	682.513
256.234	21.161	869.975	681.744
257.249	21.170	869.353	681.231
258.263	21.003	868.650	679.969
259.278	21.054	867.674	679.344
260.293	21.133	867.171	679.198
261.307	21.101	866.827	678.743
262.322	20.958	866.111	677.566
263.336	20.821	865.608	676.580
264.351	20.408	863.915	673.594
265.366	19.223	861.945	667.412
266.380	18.877	861.207	665.441
267.395	19.779	861.755	669.298
268.409	20.485	861.733	671.953
269.424	20.436	861.229	671.311
270.439	20.724	860.645	671.910
271.453	20.895	859.682	671.759
272.468	20.823	859.554	671.322
273.482	21.054	858.857	671.607
274.497	21.078	858.688	671.508
275.512	20.948	857.407	669.945
276.526	20.437	855.859	666.715
277.541	20.580	855.739	667.113
278.555	20.985	855.217	668.198
279.570	20.704	854.906	666.820
280.585	20.548	853.645	665.181
281.599	20.728	853.156	665.432
282.614	20.779	852.878	665.349
283.628	20.355	851.790	662.824
284.643	19.956	850.976	660.607
285.657	20.472	850.789	662.372
286.672	20.391	849.739	661.187
287.687	19.956	848.497	658.511
288.701	20.269	849.008	660.037
289.716	20.579	848.309	660.615
290.730	20.282	847.479	658.782
291.745	20.038	847.344	657.692
292.760	20.142	845.561	656.644
293.774	20.057	845.112	655.915
294.789	20.753	845.855	659.069
295.803	21.339	846.083	661.410
296.818	21.334	845.639	660.984
297.833	21.502	845.045	661.094
298.847	21.317	843.753	659.329
299.862	20.994	842.700	657.230
300.876	21.045	842.081	656.883
301.891	21.306	842.186	657.890
302.906	21.438	841.329	657.656
303.920	20.977	839.940	654.784
304.935	20.866	839.662	654.091
305.949	21.138	839.339	654.803
306.964	21.341	838.581	654.912
307.979	21.173	837.845	653.654
308.993	21.128	837.952	653.507
310.008	21.475	837.585	654.465
311.022	21.489	837.040	654.033
312.037	21.140	836.477	652.231
313.052	21.252	835.609	651.912
314.066	21.141	834.943	650.924
315.081	20.576	833.359	647.528
316.095	20.040	831.903	644.344
317.110	20.323	832.792	646.031
318.125	21.085	833.099	649.046
319.139	20.800	831.521	646.701
320.154	19.734	830.098	641.584
321.168	19.229	829.207	638.967
322.183	19.983	829.275	641.756
323.197	20.724	829.568	644.671
324.212	20.991	829.367	645.448
325.227	21.168	828.856	645.647
326.241	21.223	828.629	645.615
327.256	21.202	827.745	644.792
328.270	21.243	827.090	644.379
329.285	20.991	826.529	642.955
330.300	20.943	825.696	642.071
331.314	20.614	825.168	640.393
332.329	20.754	824.379	640.241
333.343	21.278	824.154	641.934
334.358	21.198	823.640	641.184
335.373	21.389	822.991	641.322
336.387	21.348	822.780	640.952
337.402	21.557	822.513	641.452
338.416	21.710	821.651	641.283
339.431	21.642	821.385	640.772
340.446	21.756	820.467	640.413
341.460	21.796	820.474	640.510
342.475	21.805	819.583	639.789
343.489	21.660	818.614	638.447
344.504	21.462	818.264	637.397
345.519	21.848	818.066	638.594
346.533	21.954	818.065	638.923
347.548	21.976	817.506	638.508
348.562	22.116	816.780	638.395
349.577	22.096	816.257	637.857
350.592	21.954	816.202	637.239
351.606	22.001	815.309	636.657
352.621	22.015	814.818	636.268
353.635	21.929	814.372	635.551
354.650	21.830	813.780	634.675
355.665	21.588	812.746	632.937
356.679	20.540	811.049	627.777
357.694	20.362	810.403	626.580
358.708	21.056	810.260	628.916
359.723	21.031	810.000	628.568
360.738	21.231	809.717	629.014
361.752	21.705	809.027	630.128
362.767	21.784	809.445	630.682
363.781	21.970	809.085	631.014
364.796	22.208	808.829	631.614
365.810	22.380	808.321	631.779
366.825	22.384	808.165	631.617
367.840	22.356	807.408	630.867
368.854	22.294	806.812	630.123
369.869	21.733	806.167	627.555
370.883	21.729	805.395	626.884
371.898	21.805	804.886	626.707
372.913	21.642	803.894	625.298
373.927	21.645	803.517	624.958
374.942	21.839	802.891	625.106
375.956	22.010	802.470	625.334
376.971	22.102	801.892	625.156
377.986	22.246	801.314	625.162
379.000	22.280	801.094	625.056
380.015	22.244	800.695	624.562
381.029	22.109	800.028	623.507
382.044	22.155	799.367	623.097
383.059	22.141	798.917	622.644
384.073	22.258	798.489	622.668
385.088	22.409	797.784	622.597
386.102	22.549	797.337	622.691
387.117	22.296	796.433	621.036
388.132	22.289	796.032	620.642
389.146	21.922	795.701	619.036
390.161	21.396	794.550	616.232
391.175	21.362	794.576	616.079
392.190	22.104	794.258	618.387
393.205	21.890	793.902	617.306
394.219	21.048	792.338	613.076
395.234	19.558	790.359	606.261
396.248	18.971	789.007	603.113
397.263	19.915	790.106	607.213
398.278	21.826	790.876	614.454
399.292	22.213	790.839	615.726
400.307	21.897	790.183	614.057
401.321	21.619	789.971	612.863
402.336	21.741	789.640	612.979
403.350	22.069	789.471	613.941
404.365	22.481	789.252	615.156
405.380	22.789	789.211	616.145
406.394	23.049	788.622	616.538
407.409	22.995	788.613	616.288
408.423	23.055	787.935	615.912
409.438	22.960	787.100	614.874
410.453	22.926	786.711	614.397
411.467	23.154	786.076	614.638
412.482	22.985	785.864	613.831
413.496	22.995	785.078	613.199
414.511	23.096	784.853	613.319
415.526	22.942	784.831	612.715
416.540	22.993	784.628	612.679
417.555	22.952	783.953	611.953
418.569	22.653	782.926	610.063
419.584	22.665	782.430	609.666
420.599	22.745	782.174	609.689
421.613	157.845	1363.327	1797.482
422.628	136.465	1447.973	1797.581
