DTS Sentinel unit serial number:	SN413079Multiplexer serial number:	ORYXHardware model number:	OX4-SRSoftware version number:	ORYX F/W v4.00 Oryx Data Collector v3.7.2.0data status	okinstallation	princeton_trtdifferential loss correction	single-endedforward channel	channel 3reverse channel	N/Adate	2019/09/11time	10:34:11forward acquisition time	60.00reverse acquisition time	0.00gamma	496.2192k internal	0.2298k external	0.2298temperature offset calibration	0.9941default loss term (dB/km)	0.3790temperature slope calibration	1.0000multiplexer offset coefficient	1.0000multiplexer slope coefficient	1.0000fibre end	0.00T internal ref (°C)	36.50T ext. ref 1 (°C)	0.16T ext. ref 2 (°C)	33.42length (m)	temperature (°C)	Stokes	anti-Stokes-747.200	-127.233	-0.189	-0.028
-746.185	800.000	0.049	0.190
-745.171	-59.197	-0.124	-0.055
-744.156	-88.623	0.303	-0.092
-743.142	573.951	-0.062	-0.155
-742.127	170.066	0.050	0.073
-741.112	-200.000	-0.071	-0.410
-740.098	-46.757	-0.204	0.102
-739.083	-200.000	0.011	-0.169
-738.069	19.767	-0.153	0.125
-737.054	31.065	-0.437	0.382
-736.039	27.033	0.210	0.180
-735.025	140.604	-0.197	0.265
-734.010	7.814	-0.189	0.144
-732.996	-118.285	-0.244	0.044
-731.981	-200.000	-0.016	-0.115
-730.966	102.118	-0.167	0.199
-729.952	-57.693	0.132	0.059
-728.937	800.000	-0.025	-0.080
-727.923	-10.775	-0.318	-0.215
-726.908	117.709	0.072	0.090
-725.894	-9.441	0.373	-0.254
-724.879	76.572	0.120	0.130
-723.864	112.657	-0.298	0.368
-722.850	800.000	-0.064	0.232
-721.835	-0.846	-0.279	0.202
-720.821	-11.833	-0.013	0.009
-719.806	14.539	-0.203	0.162
-718.791	-111.130	-0.222	-0.046
-717.777	-119.937	0.102	-0.018
-716.762	35.239	-0.087	-0.078
-715.748	54.108	-0.146	-0.143
-714.733	75.370	-0.108	0.116
-713.718	75.094	-0.140	-0.150
-712.704	143.919	0.046	-0.062
-711.689	-12.155	-0.081	0.054
-710.675	-107.336	-0.292	0.066
-709.660	-200.000	0.004	-0.146
-708.645	-138.906	-0.132	0.015
-707.631	468.740	0.045	0.103
-706.616	-63.619	0.198	0.083
-705.602	39.194	0.117	0.107
-704.587	-31.539	-0.359	-0.205
-703.572	-104.009	0.382	0.091
-702.558	-72.685	-0.423	-0.159
-701.543	-35.511	-0.145	0.080
-700.529	-12.035	0.111	-0.074
-699.514	-78.212	-0.146	0.051
-698.499	790.714	-0.075	-0.211
-697.485	-200.000	-0.020	0.212
-696.470	-161.309	0.034	0.002
-695.456	413.283	-0.145	-0.315
-694.441	800.000	0.080	0.254
-693.426	800.000	0.109	-0.323
-692.412	-20.653	-0.245	-0.153
-691.397	303.348	-0.175	-0.331
-690.383	51.638	0.332	0.321
-689.368	126.286	-0.194	0.250
-688.354	-200.000	0.037	0.243
-687.339	119.902	-0.053	-0.067
-686.324	-111.400	-0.396	0.082
-685.310	-63.123	-0.290	0.122
-684.295	199.481	-0.025	-0.039
-683.281	-150.968	-0.201	-0.015
-682.266	-48.176	0.156	-0.077
-681.251	-200.000	0.009	0.229
-680.237	-29.390	0.224	0.130
-679.222	575.733	0.127	0.317
-678.208	-80.357	-0.220	-0.075
-677.193	-200.000	-0.011	0.261
-676.178	-80.918	-0.363	-0.123
-675.164	800.000	0.073	0.260
-674.149	66.516	0.047	0.049
-673.135	135.989	-0.097	0.129
-672.120	-95.569	0.098	-0.027
-671.105	92.129	-0.163	0.187
-670.091	222.979	0.095	-0.155
-669.076	121.686	-0.032	-0.040
-668.062	-200.000	-0.002	-0.181
-667.047	93.122	0.183	-0.211
-666.032	30.037	-0.121	-0.105
-665.018	238.252	0.066	-0.111
-664.003	-96.195	0.226	0.061
-662.989	274.680	0.109	-0.196
-661.974	-200.000	-0.009	0.088
-660.959	-25.031	0.211	0.128
-659.945	17.518	-0.150	-0.121
-658.930	-26.335	-0.378	0.226
-657.916	800.000	0.006	0.024
-656.901	800.000	0.052	-0.195
-655.886	800.000	-0.024	0.102
-654.872	-106.212	0.285	-0.065
-653.857	-200.000	-0.008	0.115
-652.843	245.230	-0.089	0.153
-651.828	-109.142	0.177	0.038
-650.814	-80.903	0.173	-0.058
-649.799	737.266	-0.016	0.044
-648.784	59.936	0.217	-0.218
-647.770	-132.165	0.276	-0.036
-646.755	571.554	0.084	0.207
-645.741	-57.755	0.217	0.097
-644.726	-200.000	-0.005	-0.051
-643.711	59.005	0.084	0.084
-642.697	113.503	-0.179	-0.221
-641.682	46.652	-0.168	-0.159
-640.668	-16.953	0.163	-0.105
-639.653	-53.785	0.271	-0.126
-638.638	-111.433	0.031	0.006
-637.624	-144.382	-0.166	-0.016
-636.609	402.901	-0.092	-0.197
-635.595	51.251	-0.119	-0.115
-634.580	-200.000	0.018	0.256
-633.565	86.038	0.362	-0.405
-632.551	29.776	-0.119	0.103
-631.536	121.081	-0.037	0.047
-630.522	533.699	-0.100	0.241
-629.507	-33.705	-0.180	-0.101
-628.492	-200.000	-0.063	-0.298
-627.478	800.000	0.081	-0.239
-626.463	-200.000	0.014	0.251
-625.449	-79.067	-0.220	-0.076
-624.434	800.000	-0.108	0.316
-623.419	98.868	-0.264	-0.310
-622.405	-15.742	0.329	-0.213
-621.390	274.222	-0.116	-0.208
-620.376	33.200	-0.185	0.163
-619.361	-119.232	0.328	0.058
-618.346	-28.362	-0.251	0.147
-617.332	-55.938	0.104	0.047
-616.317	-19.560	0.266	-0.167
-615.303	-105.081	-0.139	0.032
-614.288	-200.000	0.045	-0.221
-613.273	-200.000	-0.009	0.168
-612.259	-111.248	-0.099	-0.021
-611.244	-158.027	0.144	-0.009
-610.230	-111.912	-0.346	-0.071
-609.215	26.996	0.051	0.043
-608.201	800.000	-0.034	-0.122
-607.186	-57.525	-0.415	-0.185
-606.171	46.500	-0.099	-0.094
-605.157	-23.171	0.071	-0.043
-604.142	436.511	-0.150	-0.332
-603.128	-53.809	-0.249	-0.115
-602.113	24.475	0.063	0.053
-601.098	710.313	-0.123	0.331
-600.084	399.069	-0.047	0.101
-599.069	-4.351	0.040	0.028
-598.055	-39.639	-0.127	-0.067
-597.040	-200.000	0.068	0.377
-596.025	-67.592	-0.334	0.133
-595.011	-200.000	-0.009	0.359
-593.996	378.748	-0.076	-0.158
-592.982	-7.397	-0.117	0.080
-591.967	-57.774	-0.427	-0.190
-590.952	30.424	-0.253	-0.220
-589.938	265.736	0.049	0.087
-588.923	82.006	0.219	-0.241
-587.909	-44.064	0.307	-0.157
-586.894	-200.000	-0.029	0.135
-585.879	-200.000	-0.015	0.328
-584.865	60.170	-0.084	-0.084
-583.850	-63.076	0.179	-0.075
-582.836	275.884	0.106	0.190
-581.821	-121.270	0.066	0.011
-580.806	-84.263	0.187	0.060
-579.792	136.676	0.100	0.133
-578.777	553.204	0.118	-0.288
-577.763	-103.762	0.387	-0.092
-576.748	13.172	0.150	-0.118
-575.733	-113.282	0.299	-0.060
-574.719	-91.411	0.172	-0.050
-573.704	739.833	-0.039	0.107
-572.690	784.814	-0.053	-0.147
-571.675	28.401	0.130	0.112
-570.661	35.430	0.083	-0.073
-569.646	27.101	-0.091	0.077
-568.631	272.084	0.134	-0.240
-567.617	597.953	-0.118	-0.297
-566.602	-78.889	-0.176	0.061
-565.588	29.292	-0.074	0.063
-564.573	800.000	-0.042	-0.173
-563.558	70.069	0.156	0.163
-562.544	589.502	0.105	-0.262
-561.529	419.915	-0.033	0.072
-560.515	-73.452	0.139	0.052
-559.500	800.000	0.041	-0.183
-558.485	-174.820	-0.490	0.014
-557.471	800.000	-0.114	0.338
-556.456	629.037	-0.063	-0.162
-555.442	136.037	0.074	0.098
-554.427	85.346	-0.042	-0.047
-553.412	-200.000	0.056	0.454
-552.398	94.598	0.252	-0.291
-551.383	216.014	0.258	-0.416
-550.369	-200.000	0.003	0.133
-549.354	229.365	0.092	-0.152
-548.339	83.016	-0.064	0.071
-547.325	-143.398	-0.169	-0.016
-546.310	-5.849	-0.263	0.182
-545.296	-103.662	0.219	0.052
-544.281	-183.494	-0.202	-0.004
-543.266	-77.236	0.107	0.038
-542.252	784.731	-0.058	0.160
-541.237	235.170	0.149	-0.249
-540.223	443.802	-0.145	0.321
-539.208	123.074	-0.062	0.079
-538.193	-200.000	-0.046	0.333
-537.179	151.931	0.113	0.157
-536.164	215.295	0.085	0.136
-535.150	-24.894	-0.248	-0.149
-534.135	-121.001	-0.176	0.030
-533.121	487.016	-0.170	-0.394
-532.106	-120.503	-0.274	-0.047
-531.091	67.439	0.110	-0.114
-530.077	-47.069	-0.155	-0.077
-529.062	0.896	0.324	0.235
-528.048	-120.163	-0.170	0.029
-527.033	-200.000	-0.014	0.424
-526.018	87.041	0.091	-0.102
-525.004	-52.564	0.122	-0.057
-523.989	-16.360	0.337	0.216
-522.975	406.017	0.100	-0.214
-521.960	202.032	-0.054	0.085
-520.945	-200.000	0.037	0.165
-519.931	800.000	-0.048	0.164
-518.916	-200.000	-0.058	-0.431
-517.902	-137.685	-0.306	0.035
-516.887	192.518	-0.037	-0.057
-515.872	-81.873	-0.195	0.064
-514.858	-55.262	0.122	0.055
-513.843	-188.748	-0.230	0.003
-512.829	545.707	0.039	0.093
-511.814	-200.000	0.029	0.185
-510.799	-65.028	0.192	-0.078
-509.785	-192.022	0.170	0.002
-508.770	244.095	-0.107	-0.182
-507.756	-200.000	0.004	-0.033
-506.741	-57.789	0.074	0.033
-505.726	59.792	0.079	0.078
-504.712	-20.170	-0.158	-0.098
-503.697	127.067	-0.254	0.326
-502.683	-200.000	0.017	-0.206
-501.668	-200.000	-0.026	-0.281
-500.653	166.209	-0.097	0.139
-499.639	-134.909	0.289	0.035
-498.624	-200.000	-0.048	0.317
-497.610	-24.082	0.161	0.097
-496.595	-200.000	0.004	-0.068
-495.581	-17.561	0.255	-0.162
-494.566	-159.219	0.259	-0.015
-493.551	800.000	-0.045	-0.149
-492.537	-200.000	-0.021	-0.168
-491.522	-31.215	-0.241	-0.137
-490.508	-200.000	0.062	0.554
-489.493	65.326	-0.204	-0.209
-488.478	576.064	0.041	-0.101
-487.464	27.650	-0.048	-0.041
-486.449	800.000	0.058	0.233
-485.435	-100.050	0.292	-0.073
-484.420	529.341	-0.168	0.401
-483.405	-97.286	-0.392	0.103
-482.391	-200.000	-0.047	-0.332
-481.376	-10.636	0.229	0.153
-480.362	800.000	-0.092	-0.284
-479.347	608.999	0.024	-0.061
-478.332	746.448	-0.063	0.172
-477.318	-84.187	-0.185	0.059
-476.303	-21.196	-0.293	0.181
-475.289	-119.649	0.294	-0.051
-474.274	120.453	-0.085	0.107
-473.259	-200.000	0.006	0.154
-472.245	-200.000	0.001	0.147
-471.230	-64.937	0.032	0.013
-470.216	800.000	-0.053	0.208
-469.201	41.566	0.365	0.334
-468.186	-48.280	0.169	0.082
-467.172	-200.000	0.004	0.098
-466.157	126.733	-0.183	0.234
-465.143	-200.000	0.007	-0.201
-464.128	-36.329	0.090	0.049
-463.113	-129.483	0.386	0.054
-462.099	-24.454	-0.500	-0.301
-461.084	26.946	-0.234	-0.198
-460.070	-23.473	-0.288	-0.175
-459.055	800.000	-0.114	-0.321
-458.040	800.000	-0.063	-0.206
-457.026	212.654	0.051	-0.081
-456.011	-200.000	0.043	0.226
-454.997	85.637	0.059	-0.066
-453.982	-88.796	0.082	0.024
-452.968	-106.783	0.209	-0.047
-451.953	69.631	0.201	-0.209
-450.938	-167.392	-0.270	-0.011
-449.924	-24.591	-0.316	-0.190
-448.909	-200.000	0.035	-0.184
-447.895	-119.466	0.132	-0.023
-446.880	314.553	0.074	-0.140
-445.865	92.429	0.333	0.378
-444.851	119.848	-0.282	-0.352
-443.836	183.522	-0.160	-0.239
-442.822	-138.012	0.124	0.014
-441.807	-122.857	-0.371	0.060
-440.792	-145.066	-0.262	-0.024
-439.778	-10.875	0.064	-0.042
-438.763	-200.000	-0.031	-0.341
-437.749	-200.000	0.001	-0.241
-436.734	-50.905	0.104	-0.049
-435.719	387.899	-0.054	-0.113
-434.705	-26.128	-0.146	-0.087
-433.690	237.199	-0.030	0.050
-432.676	260.535	-0.246	-0.428
-431.661	648.348	0.147	-0.380
-430.646	-0.946	0.281	-0.201
-429.632	-61.364	-0.024	-0.010
-428.617	-82.944	-0.249	0.081
-427.603	-150.615	-0.293	-0.023
-426.588	150.641	0.111	0.152
-425.573	-29.596	-0.100	0.057
-424.559	427.173	0.018	-0.040
-423.544	-200.000	-0.025	-0.343
-422.530	-133.749	-0.129	0.016
-421.515	-60.739	0.215	0.092
-420.500	102.665	-0.387	0.457
-419.486	-8.829	0.322	0.217
-418.471	91.126	0.110	0.125
-417.457	16.841	0.316	0.252
-416.442	-133.168	-0.291	-0.037
-415.428	-200.000	0.008	-0.185
-414.413	169.655	-0.076	-0.109
-413.398	-200.000	0.001	-0.330
-412.384	800.000	0.059	-0.181
-411.369	-200.000	-0.039	-0.174
-410.355	234.090	0.138	0.230
-409.340	724.870	-0.054	0.145
-408.325	-74.465	-0.133	-0.048
-407.311	-59.294	0.107	-0.046
-406.296	-132.708	-0.378	-0.049
-405.282	20.957	0.114	-0.093
-404.267	-49.066	0.180	-0.087
-403.252	-143.517	-0.142	-0.014
-402.238	-154.077	-0.168	0.011
-401.223	-52.301	-0.419	0.195
-400.209	-200.000	0.036	0.173
-399.194	-112.214	0.276	-0.056
-398.179	-94.206	0.245	0.068
-397.165	-179.210	-0.193	-0.004
-396.150	-200.000	0.443	-0.001
-395.136	143.102	-0.225	0.301
-394.121	-200.000	-0.017	-0.106
-393.106	265.613	-0.113	0.199
-392.092	-25.930	-0.224	-0.133
-391.077	-77.870	0.115	-0.040
-390.063	30.732	-0.128	-0.110
-389.048	-200.000	-0.015	-0.068
-388.033	-200.000	0.025	0.120
-387.019	-200.000	-0.009	0.191
-386.004	88.515	-0.115	-0.129
-384.990	-43.162	-0.299	0.153
-383.975	-11.114	-0.310	0.206
-382.960	468.499	-0.048	0.108
-381.946	800.000	-0.041	-0.135
-380.931	-91.014	0.108	0.031
-379.917	-200.000	0.010	0.071
-378.902	320.042	-0.086	0.164
-377.888	-200.000	-0.057	0.376
-376.873	-4.996	-0.209	0.145
-375.858	565.322	0.086	0.210
-374.844	108.733	0.090	0.108
-373.829	800.000	0.029	-0.113
-372.815	548.347	0.071	-0.171
-371.800	40.411	0.329	0.298
-370.785	-30.149	-0.179	-0.102
-369.771	-24.989	-0.131	0.078
-368.756	-200.000	0.020	-0.415
-367.742	-200.000	-0.013	-0.281
-366.727	8.080	0.186	0.141
-365.712	-148.756	-0.335	0.027
-364.698	323.167	0.203	-0.389
-363.683	-45.405	-0.579	-0.289
-362.669	800.000	-0.042	0.159
-361.654	-171.584	0.262	-0.009
-360.639	52.470	-0.029	-0.027
-359.625	800.000	0.100	0.436
-358.610	426.896	-0.123	-0.266
-357.596	566.640	-0.131	-0.320
-356.581	9.080	-0.162	-0.123
-355.566	-19.187	0.270	0.169
-354.552	800.000	-0.046	0.138
-353.537	-25.426	0.122	-0.073
-352.523	42.614	0.020	0.018
-351.508	-91.049	0.331	-0.095
-350.493	63.386	-0.074	0.075
-349.479	774.703	0.092	0.252
-348.464	50.137	0.249	-0.236
-347.450	-191.980	0.241	-0.002
-346.435	66.345	0.153	-0.156
-345.420	-92.421	-0.112	0.032
-344.406	282.308	-0.067	0.120
-343.391	-86.261	-0.209	0.065
-342.377	-21.304	-0.135	0.083
-341.362	101.216	-0.126	0.148
-340.348	-132.021	0.226	0.030
-339.333	758.007	-0.028	-0.076
-338.318	76.368	-0.270	-0.287
-337.304	-200.000	-0.006	-0.049
-336.289	800.000	-0.071	0.232
-335.275	-200.000	0.006	-0.272
-334.260	41.000	0.157	-0.142
-333.245	26.020	0.227	0.190
-332.231	-138.694	-0.178	0.020
-331.216	329.823	-0.198	-0.382
-330.202	346.533	-0.192	0.379
-329.187	-41.926	0.294	0.152
-328.172	-94.768	-0.284	-0.077
-327.158	252.990	0.083	-0.143
-326.143	158.399	-0.060	0.084
-325.129	197.915	0.065	0.099
-324.114	800.000	-0.118	-0.507
-323.099	-151.464	0.197	-0.015
-322.085	-23.033	0.260	0.157
-321.070	9.689	-0.222	-0.169
-320.056	206.663	0.047	-0.073
-319.041	800.000	0.045	0.171
-318.026	-151.958	0.264	-0.019
-317.012	751.499	-0.109	-0.295
-315.997	800.000	-0.063	0.241
-314.983	10.531	0.323	0.247
-313.968	-59.510	0.165	-0.071
-312.953	322.446	0.107	-0.204
-311.939	800.000	0.047	0.146
-310.924	462.413	-0.113	-0.253
-309.910	201.968	-0.173	-0.267
-308.895	257.101	0.047	0.081
-307.880	-200.000	0.039	0.286
-306.866	-1.724	-0.147	0.104
-305.851	-200.000	-0.030	0.284
-304.837	-61.490	0.212	-0.089
-303.822	139.370	-0.003	-0.004
-302.807	-200.000	0.056	0.317
-301.793	-15.241	-0.300	-0.193
-300.778	-135.595	-0.414	0.049
-299.764	57.192	0.044	0.043
-298.749	53.871	-0.153	-0.148
-297.735	-92.882	0.371	0.104
-296.720	53.208	0.205	0.197
-295.705	-98.424	-0.057	-0.015
-294.691	-110.173	0.151	0.032
-293.676	252.395	0.038	-0.065
-292.662	482.298	-0.025	0.056
-291.647	82.360	0.040	0.043
-290.632	-200.000	-0.046	-0.425
-289.618	800.000	0.114	-0.335
-288.603	800.000	0.083	-0.260
-287.589	-60.935	0.131	-0.056
-286.574	800.000	0.060	0.176
-285.559	-119.266	0.157	0.027
-284.545	2.811	-0.096	0.070
-283.530	554.822	0.097	0.233
-282.516	-200.000	-0.041	0.255
-281.501	-19.170	0.143	0.089
-280.486	153.964	-0.121	0.166
-279.472	800.000	0.116	0.326
-278.457	197.683	0.013	-0.020
-277.443	-200.000	0.005	-0.100
-276.428	381.708	0.154	0.318
-275.413	-22.680	0.107	-0.065
-274.399	-14.862	0.251	0.162
-273.384	55.550	-0.146	0.141
-272.370	264.236	0.045	-0.079
-271.355	217.083	0.266	-0.424
-270.340	-100.857	0.146	-0.036
-269.326	-58.560	-0.153	-0.067
-268.311	-89.617	-0.024	0.007
-267.297	-200.000	0.001	-0.179
-266.282	-150.358	0.148	-0.011
-265.267	489.212	0.149	0.342
-264.253	-7.172	-0.189	-0.129
-263.238	-50.457	0.122	0.057
-262.224	-71.253	-0.058	0.022
-261.209	-200.000	-0.023	0.161
-260.195	142.773	0.037	0.050
-259.180	151.339	-0.206	-0.280
-258.165	-142.326	0.147	-0.015
-257.151	-156.389	-0.242	0.015
-256.136	-34.224	0.287	0.158
-255.122	-200.000	0.002	0.248
-254.107	49.926	0.140	-0.132
-253.092	-76.358	0.190	0.067
-252.078	800.000	0.086	-0.308
-251.063	-151.057	-0.219	0.016
-250.049	435.559	-0.083	0.180
-249.034	-200.000	-0.032	0.225
-248.019	-57.403	0.109	0.048
-247.005	-84.605	0.276	0.087
-245.990	101.480	-0.011	-0.013
-244.976	686.084	0.140	0.367
-243.961	-84.650	-0.225	-0.071
-242.946	6.108	0.023	0.017
-241.932	28.412	0.229	0.194
-240.917	37.814	0.032	-0.029
-239.903	800.000	-0.075	-0.264
-238.888	-115.734	0.278	-0.052
-237.873	-200.000	-0.038	0.212
-236.859	-32.679	-0.132	0.073
-235.844	-84.570	-0.304	-0.096
-234.830	-123.300	-0.429	-0.069
-233.815	-200.000	0.016	-0.160
-232.800	800.000	0.037	-0.143
-231.786	246.635	0.090	0.152
-230.771	94.371	0.093	-0.106
-229.757	-200.000	0.013	-0.142
-228.742	99.151	0.138	-0.159
-227.727	-0.309	0.061	0.043
-226.713	438.112	0.147	-0.322
-225.698	306.417	0.112	-0.209
-224.684	50.721	-0.323	0.306
-223.669	23.588	-0.077	-0.063
-222.655	389.082	0.059	0.122
-221.640	-74.112	0.235	0.085
-220.625	-54.541	-0.111	-0.050
-219.611	-200.000	0.019	0.302
-218.596	150.311	0.110	0.149
-217.582	-10.896	-0.183	0.121
-216.567	-157.775	-0.240	0.014
-215.552	174.044	0.385	0.556
-214.538	-200.000	-0.353	-0.002
-213.523	-126.587	-0.165	-0.024
-212.509	-146.902	0.230	0.020
-211.494	242.702	-0.122	0.204
-210.479	-35.948	0.332	0.180
-209.465	-113.693	-0.244	0.048
-208.450	-200.000	0.000	0.074
-207.436	-107.281	0.203	0.045
-206.421	-134.698	0.142	0.017
-205.406	-200.000	-0.001	-0.059
-204.392	-200.000	-0.019	0.095
-203.377	37.643	-0.283	0.251
-202.363	0.806	0.255	0.183
-201.348	113.166	-0.176	0.213
-200.333	-190.755	0.197	-0.002
-199.319	800.000	0.019	0.081
-198.304	-200.000	0.014	-0.279
-197.290	61.111	0.235	-0.233
-196.275	800.000	0.083	-0.233
-195.260	688.616	0.051	-0.134
-194.246	650.578	-0.062	0.159
-193.231	-103.150	-0.174	-0.041
-192.217	-200.000	0.017	0.092
-191.202	800.000	0.106	0.296
-190.187	-54.523	-0.201	-0.091
-189.173	79.511	0.290	0.311
-188.158	546.787	0.114	0.273
-187.144	-81.170	-0.162	-0.053
-186.129	-200.000	-0.044	0.230
-185.114	55.610	0.186	0.180
-184.100	284.232	0.079	-0.142
-183.085	108.507	-0.051	-0.061
-182.071	800.000	0.063	0.178
-181.056	799.454	0.081	0.224
-180.042	-95.344	-0.257	-0.069
-179.027	800.000	-0.110	0.477
-178.012	-109.545	0.149	-0.032
-176.998	672.031	0.090	-0.232
-175.983	-93.158	-0.377	0.105
-174.969	-68.741	0.337	0.130
-173.954	0.124	0.031	0.022
-172.939	10.744	0.072	0.055
-171.925	800.000	-0.047	-0.190
-170.910	-81.348	-0.369	-0.121
-169.896	-9.555	-0.099	0.066
-168.881	464.088	0.104	0.232
-167.866	-85.479	0.167	-0.052
-166.852	120.294	0.071	-0.088
-165.837	-32.435	0.088	-0.049
-164.823	133.993	0.269	-0.348
-163.808	689.169	0.078	-0.204
-162.793	99.451	0.123	-0.142
-161.779	-200.000	0.027	-0.334
-160.764	426.322	-0.063	-0.135
-159.750	-200.000	-0.013	-0.322
-158.735	-200.000	0.033	-0.259
-157.720	538.783	0.072	-0.172
-156.706	800.000	0.042	0.177
-155.691	-155.743	-0.263	0.017
-154.677	-65.429	0.117	0.047
-153.662	800.000	-0.141	0.427
-152.647	75.951	-0.205	-0.216
-151.633	43.854	0.184	-0.168
-150.618	13.881	-0.114	-0.088
-149.604	800.000	0.020	0.066
-148.589	786.684	0.072	-0.196
-147.574	-51.770	0.346	-0.161
-146.560	800.000	-0.088	-0.293
-145.545	236.725	0.120	0.198
-144.531	-200.000	0.004	0.147
-143.516	-54.705	0.131	-0.059
-142.502	610.884	0.097	0.243
-141.487	-120.337	-0.121	-0.021
-140.472	551.254	-0.121	0.289
-139.458	800.000	0.013	0.046
-138.443	-16.239	0.228	0.145
-137.429	54.957	-0.151	0.145
-136.414	-93.301	-0.096	0.026
-135.399	-1.312	0.282	0.199
-134.385	19.256	-0.271	0.217
-133.370	-49.335	-0.392	0.187
-132.356	-86.780	0.301	-0.092
-131.341	-54.961	-0.249	0.112
-130.326	-119.776	0.171	-0.029
-129.312	-200.000	-0.004	-0.030
-128.297	24.597	0.077	-0.064
-127.283	-53.704	0.374	-0.170
-126.268	31.166	-0.215	0.184
-125.253	800.000	-0.047	-0.138
-124.239	123.043	-0.088	0.109
-123.224	23.313	0.306	-0.250
-122.210	-66.399	-0.225	-0.089
-121.195	9.590	-0.176	-0.133
-120.180	147.588	-0.171	0.229
-119.166	146.660	-0.154	0.206
-118.151	185.899	0.205	-0.304
-117.137	33.504	0.144	0.124
-116.122	-200.000	0.068	-0.340
-115.107	800.000	0.053	-0.156
-114.093	296.463	-0.059	0.107
-113.078	-200.000	-0.012	-0.213
-112.064	720.313	-0.079	0.209
-111.049	-200.000	-0.012	-0.210
-110.034	-200.000	-0.014	-0.103
-109.020	800.000	0.053	0.173
-108.005	137.764	0.226	0.295
-106.991	225.224	-0.128	-0.206
-105.976	246.108	0.173	0.291
-104.962	538.774	0.065	0.153
-103.947	69.515	-0.089	0.092
-102.932	49.151	-0.062	-0.058
-101.918	698.963	0.077	0.201
-100.903	-117.030	0.170	-0.031
-99.889	-75.642	-0.279	0.099
-98.874	-54.574	0.257	-0.116
-97.859	-187.641	0.065	-0.001
-96.845	-139.430	-0.184	0.020
-95.830	53.762	-0.230	-0.220
-94.816	-200.000	-0.065	-0.448
-93.801	-25.071	-0.200	0.118
-92.786	429.325	0.029	-0.062
-91.772	-200.000	-0.010	-0.144
-90.757	-200.000	0.031	0.180
-89.743	-131.882	-0.105	-0.014
-88.728	800.000	-0.149	0.426
-87.713	-84.155	0.377	-0.119
-86.699	-164.462	-0.327	0.015
-85.684	-102.426	-0.219	-0.052
-84.670	-200.000	-0.049	-0.365
-83.655	229.998	-0.190	-0.309
-82.640	-26.644	-0.090	0.053
-81.626	67.218	0.337	-0.341
-80.611	-77.340	-0.209	-0.072
-79.597	800.000	0.055	0.153
-78.582	-137.176	0.357	-0.040
-77.567	-49.530	0.231	-0.109
-76.553	-117.749	-0.218	-0.039
-75.538	-81.253	0.085	-0.028
-74.524	-190.875	-0.169	0.002
-73.509	-100.157	0.252	0.062
-72.494	-33.677	0.179	0.098
-71.480	626.226	0.058	-0.145
-70.465	145.112	-0.162	-0.216
-69.451	122.013	-0.084	0.104
-68.436	-200.000	-0.063	-0.360
-67.422	-28.135	0.155	0.089
-66.407	-200.000	-0.014	0.082
-65.392	37.233	-0.167	-0.147
-64.378	61.352	0.140	-0.138
-63.363	-49.790	-0.119	-0.056
-62.349	-200.000	0.054	0.247
-61.334	-17.024	-0.852	-0.535
-60.319	-91.346	0.340	0.097
-59.305	345.218	-0.450	-0.879
-58.290	165.865	0.716	1.006
-57.276	-200.000	0.407	1.950
-56.261	-200.000	87.289	498.944
-55.246	536.429	1374.386	3242.301
-54.232	183.632	2609.435	3834.230
-53.217	114.994	2248.649	2726.501
-52.203	46.161	1776.473	1635.077
-51.188	39.614	1582.052	1409.470
-50.173	37.040	1554.939	1367.140
-49.159	53.864	1599.164	1526.575
-48.144	57.715	1619.377	1573.359
-47.130	39.994	1577.552	1407.949
-46.115	36.722	1562.896	1371.664
-45.100	36.679	1559.224	1368.081
-44.086	36.559	1557.675	1365.824
-43.071	36.515	1555.579	1363.618
-42.057	36.374	1554.549	1361.672
-41.042	36.410	1552.248	1359.854
-40.027	36.531	1551.163	1359.698
-39.013	36.528	1549.210	1357.911
-37.998	36.386	1548.283	1356.050
-36.984	36.616	1546.474	1356.022
-35.969	36.545	1545.419	1354.546
-34.954	36.457	1544.160	1352.771
-33.940	36.421	1543.088	1351.530
-32.925	36.492	1541.186	1350.307
-31.911	36.598	1539.498	1349.513
-30.896	36.487	1538.432	1347.751
-29.881	36.647	1536.776	1347.365
-28.867	36.503	1536.018	1345.642
-27.852	36.560	1534.273	1344.456
-26.838	36.447	1532.946	1342.452
-25.823	36.473	1531.088	1340.952
-24.809	36.568	1529.178	1339.884
-23.794	36.595	1528.371	1339.310
-22.779	36.649	1526.833	1338.287
-21.765	36.566	1526.183	1337.090
-20.750	36.513	1524.895	1335.545
-19.736	36.567	1523.360	1334.519
-18.721	36.566	1522.356	1333.581
-17.706	36.441	1521.382	1331.807
-16.692	36.525	1519.594	1330.772
-15.677	36.414	1519.433	1329.813
-14.663	36.545	1517.867	1329.291
-13.648	36.493	1516.705	1327.863
-12.633	36.481	1515.646	1326.798
-11.619	36.411	1515.593	1326.219
-10.604	36.455	1514.143	1325.198
-9.590	36.439	1513.555	1324.526
-8.575	36.385	1512.895	1323.526
-7.560	36.551	1511.438	1323.335
-6.546	36.456	1510.439	1321.759
-5.531	36.473	1509.464	1320.965
-4.517	36.488	1508.356	1320.045
-3.502	36.464	1507.614	1319.181
-2.487	36.548	1506.039	1318.321
-1.473	36.446	1505.327	1316.952
-0.458	36.482	1503.721	1315.738
0.556	34.924	1494.357	1306.675
1.571	32.393	1467.292	1265.887
2.586	29.302	1404.233	1191.437
3.600	27.805	1320.484	1111.176
4.615	26.355	1273.564	1063.077
5.629	21.859	1213.466	987.572
6.644	10.381	1120.974	852.166
7.659	1.607	1074.919	772.672
8.673	0.387	1068.832	762.063
9.688	0.114	1066.171	758.724
10.702	0.012	1064.136	756.695
11.717	0.138	1062.585	756.158
12.731	3.900	1067.894	778.836
13.746	14.716	1083.429	845.099
14.761	21.624	1092.160	886.949
15.775	22.142	1092.297	889.605
16.790	22.167	1091.228	888.782
17.804	22.060	1090.413	887.500
18.819	21.830	1089.219	885.287
19.834	22.000	1088.964	885.861
20.848	22.036	1088.407	885.510
21.863	21.971	1088.192	884.930
22.877	22.053	1087.813	884.956
23.892	22.123	1086.806	884.409
24.907	21.945	1086.178	882.924
25.921	21.927	1085.803	882.450
26.936	22.110	1084.685	882.383
27.950	22.029	1083.244	880.731
28.965	22.010	1081.847	879.420
29.980	21.830	1080.630	877.452
30.994	21.795	1079.812	876.536
32.009	22.046	1078.527	876.668
33.023	22.058	1078.225	876.405
34.038	21.920	1076.881	874.549
35.053	21.868	1075.906	873.418
36.067	22.044	1075.404	873.807
37.082	22.065	1074.632	873.209
38.096	22.102	1073.841	872.672
39.111	22.233	1073.363	872.856
40.126	22.385	1072.413	872.760
41.140	22.196	1070.916	870.527
42.155	21.895	1069.706	867.979
43.169	21.629	1068.588	865.682
44.184	21.645	1067.315	864.653
45.199	21.697	1066.346	864.050
46.213	21.651	1065.170	862.791
47.228	21.530	1064.417	861.508
48.242	21.685	1063.692	861.610
49.257	21.793	1062.902	861.422
50.271	21.898	1061.788	860.960
51.286	22.000	1061.512	861.158
52.301	22.031	1060.742	860.613
53.315	22.157	1059.308	859.987
54.330	22.040	1058.949	859.050
55.344	21.841	1058.683	857.785
56.359	21.865	1057.470	856.842
57.374	21.865	1056.683	856.129
58.388	21.857	1055.060	854.698
59.403	21.777	1054.322	853.636
60.417	21.688	1053.738	852.656
61.432	21.653	1053.073	851.873
62.447	21.513	1052.352	850.531
63.461	21.795	1051.687	851.291
64.476	21.903	1050.346	850.650
65.490	21.786	1049.734	849.514
66.505	21.732	1048.312	848.026
67.520	21.714	1047.928	847.556
68.534	21.818	1046.853	847.110
69.549	21.607	1046.378	845.633
70.563	21.401	1044.865	843.343
71.578	21.193	1044.208	841.735
72.593	21.388	1043.125	841.725
73.607	21.285	1041.669	839.983
74.622	21.183	1040.906	838.802
75.636	21.344	1040.897	839.492
76.651	21.604	1039.794	839.776
77.666	21.410	1039.564	838.586
78.680	21.311	1038.095	836.854
79.695	21.455	1037.186	836.735
80.709	21.624	1036.421	836.853
81.724	21.609	1035.819	836.221
82.739	21.651	1034.766	835.495
83.753	21.653	1034.308	835.062
84.768	21.939	1033.665	835.831
85.782	22.098	1032.909	835.903
86.797	22.249	1032.236	836.001
87.812	22.250	1031.396	835.252
88.826	22.136	1030.622	834.012
89.841	22.172	1029.327	833.058
90.855	22.169	1028.904	832.630
91.870	22.249	1027.809	832.046
92.884	22.236	1027.157	831.388
93.899	22.043	1026.226	829.648
94.914	22.054	1025.036	828.665
95.928	22.062	1024.730	828.381
96.943	22.163	1023.550	827.830
97.957	21.819	1022.686	825.440
98.972	21.598	1021.415	823.302
99.987	21.447	1020.363	821.672
101.001	21.539	1019.896	821.655
102.016	21.703	1019.453	821.995
103.030	21.861	1018.293	821.725
104.045	21.806	1016.710	820.119
105.060	21.668	1015.272	818.240
106.074	21.616	1014.352	817.183
107.089	21.694	1013.700	816.951
108.103	21.846	1013.548	817.465
109.118	21.938	1012.823	817.238
110.133	21.755	1011.225	815.024
111.147	21.790	1010.117	814.219
112.162	21.573	1009.032	812.266
113.176	21.269	1008.090	810.028
114.191	21.448	1006.948	809.869
115.206	21.676	1006.045	810.124
116.220	21.312	1005.145	807.647
117.235	21.300	1003.633	806.303
118.249	21.303	1003.651	806.259
119.264	21.364	1002.463	805.515
120.279	21.221	1001.610	804.101
121.293	21.341	1000.842	803.967
122.308	21.409	1000.378	803.834
123.322	21.425	999.430	803.073
124.337	21.423	998.123	801.946
125.352	21.354	996.470	800.230
126.366	20.813	995.331	796.769
127.381	20.574	993.775	794.363
128.395	21.075	993.758	796.565
129.410	21.783	993.164	799.251
130.424	21.866	992.783	799.251
131.439	21.797	991.787	798.065
132.454	21.763	990.610	796.891
133.468	21.886	989.567	796.539
134.483	21.728	989.034	795.322
135.497	21.898	988.158	795.319
136.512	22.069	987.917	795.830
137.527	22.127	987.057	795.327
138.541	22.164	985.764	794.382
139.556	22.161	985.257	793.890
140.570	22.126	984.105	792.736
141.585	22.102	983.452	792.032
142.600	22.241	982.581	791.884
143.614	22.069	981.638	790.282
144.629	22.191	981.248	790.447
145.643	22.319	980.650	790.471
146.658	22.299	979.451	789.345
147.673	22.119	977.893	787.212
148.687	21.969	976.917	785.687
149.702	21.956	975.649	784.538
150.716	21.843	974.710	783.210
151.731	21.830	973.632	782.216
152.746	21.755	973.681	781.851
153.760	22.033	972.853	782.355
154.775	22.254	971.844	782.456
155.789	22.266	971.134	781.872
156.804	22.353	969.408	780.801
157.819	22.239	968.654	779.615
158.833	22.331	967.830	779.291
159.848	22.382	966.981	778.764
160.862	22.331	966.469	778.059
161.877	22.227	965.306	776.595
162.892	22.206	964.482	775.769
163.906	22.211	964.001	775.335
164.921	22.159	963.363	774.525
165.935	22.254	961.818	773.632
166.950	22.139	961.103	772.483
167.964	22.172	960.018	771.689
168.979	22.189	958.408	770.400
169.994	22.153	957.869	769.743
171.008	22.013	956.794	768.198
172.023	22.194	956.067	768.337
173.037	22.204	955.736	768.046
174.052	22.135	953.975	766.260
175.067	21.914	952.928	764.390
176.081	21.988	952.449	764.262
177.096	21.938	951.690	763.365
178.110	22.046	950.784	763.042
179.125	21.704	950.063	760.910
180.140	21.437	948.581	758.498
181.154	21.549	947.834	758.320
182.169	21.588	947.741	758.348
183.183	21.990	947.252	759.626
184.198	22.183	947.190	760.346
185.213	22.196	946.107	759.465
186.227	22.121	945.368	758.481
187.242	22.164	945.128	758.410
188.256	22.165	944.242	757.633
189.271	22.195	943.265	756.914
190.286	22.305	942.574	756.762
191.300	22.260	941.609	755.728
192.315	21.681	940.359	752.173
193.329	20.879	939.151	747.702
194.344	20.606	937.510	745.157
195.359	21.199	937.977	748.003
196.373	21.789	938.393	750.796
197.388	22.060	937.867	751.470
198.402	22.138	936.969	751.016
199.417	21.958	936.588	749.879
200.432	22.033	936.146	749.778
201.446	21.888	935.313	748.423
202.461	21.674	934.545	746.831
203.475	21.497	934.587	746.045
204.490	21.202	932.400	742.976
205.504	20.209	930.506	737.184
206.519	20.499	930.897	738.661
207.534	21.568	930.482	742.805
208.548	21.577	930.203	742.557
209.563	22.110	929.530	744.213
210.577	22.155	928.766	743.726
211.592	21.834	928.215	741.859
212.607	22.190	927.769	742.941
213.621	22.351	927.506	743.348
214.636	22.225	926.500	741.944
215.650	22.289	926.098	741.823
216.665	22.180	925.499	740.821
217.680	22.196	925.205	740.584
218.694	22.306	924.687	740.569
219.709	21.958	923.723	738.266
220.723	21.627	922.234	735.621
221.738	21.792	922.587	736.531
222.753	22.069	921.674	736.900
223.767	21.987	921.034	735.981
224.782	22.083	920.027	735.511
225.796	22.134	919.933	735.584
226.811	22.465	918.675	735.896
227.826	22.053	917.625	733.272
228.840	21.294	915.828	728.606
229.855	21.204	915.239	727.697
230.869	21.417	915.217	728.504
231.884	21.205	913.688	726.340
232.899	21.077	913.628	725.697
233.913	21.870	913.762	729.034
234.928	22.232	913.105	729.951
235.942	21.862	912.849	728.145
236.957	22.022	911.987	728.055
237.972	21.771	911.130	726.269
238.986	21.579	910.415	724.840
240.001	21.601	910.268	724.749
241.015	21.660	909.366	724.210
242.030	21.831	908.319	724.020
243.045	21.975	907.923	724.234
244.059	22.087	907.644	724.408
245.074	22.199	907.183	724.437
246.088	22.255	906.298	723.900
247.103	21.675	905.430	720.756
248.117	21.757	904.855	720.572
249.132	22.276	904.531	722.380
250.147	22.754	904.104	723.938
251.161	22.738	903.684	723.472
252.176	22.922	903.196	723.772
253.190	23.040	902.240	723.422
254.205	22.852	902.391	722.710
255.220	23.082	901.623	722.973
256.234	23.192	900.589	722.529
257.249	23.077	900.310	721.770
258.263	22.779	899.884	720.150
259.278	22.757	899.019	719.304
260.293	22.830	898.908	719.451
261.307	22.883	898.400	719.194
262.322	22.802	897.530	718.106
263.336	22.796	896.806	717.438
264.351	22.377	895.343	714.504
265.366	21.119	893.719	708.043
266.380	20.755	892.299	705.382
267.395	21.473	893.131	708.888
268.409	22.541	892.914	712.977
269.424	22.539	892.161	712.307
270.439	22.547	891.836	712.015
271.453	22.746	891.145	712.202
272.468	22.760	890.458	711.648
273.482	22.731	890.512	711.513
274.497	23.043	889.759	712.103
275.512	22.754	888.488	709.862
276.526	22.313	887.027	706.858
277.541	22.323	886.790	706.648
278.555	22.784	886.773	708.424
279.570	22.637	886.053	707.197
280.585	22.448	885.085	705.603
281.599	22.538	884.505	705.439
282.614	22.672	884.159	705.636
283.628	22.148	883.066	702.607
284.643	21.871	882.343	700.863
285.657	22.238	882.041	702.028
286.672	22.168	881.551	701.297
287.687	21.686	880.457	698.441
288.701	22.025	880.410	699.695
289.716	22.394	879.976	700.756
290.730	22.125	879.164	698.978
291.745	21.954	878.241	697.503
292.760	21.815	877.299	696.142
293.774	21.730	876.782	695.333
294.789	22.550	877.171	698.834
295.803	23.285	877.183	701.695
296.818	23.274	876.860	701.330
297.833	23.341	876.267	701.059
298.847	23.071	875.188	699.067
299.862	22.643	874.144	696.481
300.876	22.882	873.830	697.112
301.891	23.138	873.567	697.850
302.906	23.346	872.765	697.968
303.920	22.936	871.654	695.404
304.935	22.688	871.461	694.211
305.949	23.191	870.807	695.607
306.964	23.297	870.305	695.560
307.979	23.029	869.586	693.874
308.993	22.891	869.400	693.120
310.008	23.245	868.836	694.000
311.022	23.448	868.731	694.651
312.037	23.221	867.847	692.991
313.052	23.079	867.090	691.771
314.066	22.853	866.338	690.225
315.081	22.337	864.577	686.749
316.095	21.496	863.241	682.349
317.110	22.138	863.773	685.214
318.125	22.978	864.077	688.668
319.139	22.566	863.461	686.510
320.154	21.345	861.449	680.104
321.168	20.876	860.609	677.557
322.183	21.654	860.480	680.418
323.197	22.519	860.897	684.050
324.212	22.882	860.412	685.012
325.227	22.851	860.312	684.752
326.241	23.048	859.732	684.992
327.256	22.997	859.060	684.199
328.270	22.831	858.293	682.884
329.285	22.698	857.943	682.032
330.300	22.593	857.163	680.947
331.314	22.386	855.799	679.004
332.329	22.504	855.419	679.098
333.343	22.912	854.888	680.187
334.358	23.052	854.860	680.644
335.373	23.162	854.147	680.440
336.387	23.188	853.337	679.833
337.402	23.419	853.289	680.619
338.416	23.612	853.232	681.255
339.431	23.553	852.206	680.151
340.446	23.536	851.501	679.462
341.460	23.756	851.192	679.999
342.475	23.671	850.669	679.196
343.489	23.436	849.638	677.413
344.504	23.431	849.360	677.112
345.519	23.692	849.089	677.832
346.533	23.868	848.772	678.192
347.548	24.018	848.189	678.236
348.562	23.958	847.724	677.576
349.577	23.939	847.450	677.225
350.592	23.804	846.696	676.049
351.606	23.758	846.048	675.299
352.621	23.811	845.583	675.069
353.635	23.788	844.757	674.261
354.650	23.503	844.557	672.960
355.665	23.387	843.533	671.645
356.679	22.391	841.396	666.118
357.694	22.149	841.354	665.111
358.708	22.908	841.135	667.746
359.723	22.864	840.467	666.994
360.738	23.129	840.248	667.760
361.752	23.499	840.346	669.176
362.767	23.573	839.806	668.967
363.781	23.828	839.993	670.017
364.796	24.083	839.749	670.722
365.810	24.284	839.150	670.942
366.825	24.265	838.805	670.536
367.840	24.212	838.487	670.023
368.854	24.073	838.018	669.066
369.869	23.659	837.088	666.711
370.883	23.472	836.093	665.158
371.898	23.651	835.517	665.312
372.913	23.511	835.090	664.387
373.927	23.509	834.297	663.691
374.942	23.716	833.856	664.057
375.956	23.819	833.198	663.856
376.971	23.976	832.408	663.753
377.986	24.025	831.940	663.506
379.000	24.232	831.768	664.080
380.015	24.297	831.271	663.869
381.029	24.117	830.479	662.506
382.044	23.969	830.037	661.545
383.059	24.034	829.523	661.317
384.073	24.169	828.979	661.328
385.088	24.257	828.381	661.120
386.102	24.249	827.863	660.617
387.117	24.022	827.336	659.296
388.132	23.888	826.581	658.141
389.146	23.749	825.795	656.942
390.161	23.236	824.737	654.148
391.175	23.404	824.566	654.576
392.190	23.764	824.532	655.821
393.205	23.861	824.156	655.819
394.219	22.937	822.458	651.008
395.234	21.447	819.756	643.338
396.248	20.609	818.797	639.447
397.263	21.666	819.664	643.956
398.278	23.449	821.417	651.837
399.292	23.895	821.017	653.102
400.307	23.434	820.627	651.039
401.321	23.412	820.067	650.457
402.336	23.561	819.769	650.708
403.350	23.896	819.466	651.638
404.365	24.186	819.666	652.802
405.380	24.525	819.239	653.648
406.394	24.770	818.976	654.276
407.409	24.968	818.486	654.550
408.423	24.841	818.026	653.660
409.438	24.794	817.371	652.907
410.453	24.852	817.215	652.936
411.467	24.866	816.669	652.492
412.482	24.943	815.821	652.037
413.496	24.689	815.542	650.834
414.511	24.802	815.429	651.095
415.526	24.932	814.866	651.062
416.540	24.829	814.576	650.400
417.555	24.852	813.832	649.829
418.569	24.568	813.018	648.094
419.584	24.582	812.627	647.775
420.599	24.573	811.969	647.161
421.613	151.031	1364.619	1787.477
422.628	131.256	1445.188	1787.607
