DTS Sentinel unit serial number:	SN413079Multiplexer serial number:	ORYXHardware model number:	OX4-SRSoftware version number:	ORYX F/W v4.00 Oryx Data Collector v3.7.2.0data status	okinstallation	princeton_trtdifferential loss correction	single-endedforward channel	channel 3reverse channel	N/Adate	2019/09/11time	05:54:11forward acquisition time	60.00reverse acquisition time	0.00gamma	496.2192k internal	0.2331k external	0.2331temperature offset calibration	0.9907default loss term (dB/km)	0.3790temperature slope calibration	1.0000multiplexer offset coefficient	1.0000multiplexer slope coefficient	1.0000fibre end	0.00T internal ref (°C)	29.44T ext. ref 1 (°C)	-0.23T ext. ref 2 (°C)	23.42length (m)	temperature (°C)	Stokes	anti-Stokes-747.200	-38.603	0.295	0.157
-746.185	60.660	-0.236	0.236
-745.171	-85.916	-0.036	-0.011
-744.156	-100.217	0.190	0.047
-743.142	-103.913	-0.110	-0.026
-742.127	800.000	0.040	0.169
-741.112	800.000	-0.106	-0.312
-740.098	723.512	0.083	-0.222
-739.083	33.549	-0.132	-0.116
-738.069	-200.000	0.026	0.265
-737.054	-134.063	-0.142	0.018
-736.039	38.064	-0.168	0.151
-735.025	800.000	-0.059	0.237
-734.010	-48.570	-0.363	0.176
-732.996	524.449	-0.117	-0.276
-731.981	278.734	-0.162	0.291
-730.966	134.310	0.047	-0.062
-729.952	-159.514	0.190	0.011
-728.937	-46.193	0.236	0.117
-727.923	-200.000	0.000	0.065
-726.908	-142.408	0.209	0.021
-725.894	69.635	0.073	-0.076
-724.879	-200.000	0.448	0.001
-723.864	39.584	-0.176	0.159
-722.850	60.851	0.227	-0.227
-721.835	-45.558	-0.276	-0.138
-720.821	-200.000	0.063	-0.322
-719.806	226.881	-0.048	-0.078
-718.791	800.000	0.086	-0.358
-717.777	-200.000	0.009	-0.259
-716.762	-200.000	0.058	-0.303
-715.748	113.772	0.140	0.171
-714.733	105.375	0.075	-0.089
-713.718	-92.151	-0.255	0.072
-712.704	52.125	-0.036	-0.034
-711.689	800.000	-0.034	-0.116
-710.675	-200.000	0.021	-0.322
-709.660	-33.102	0.313	-0.174
-708.645	158.124	-0.092	0.128
-707.631	800.000	0.099	-0.419
-706.616	22.170	-0.261	-0.214
-705.602	-200.000	-0.019	0.147
-704.587	15.723	-0.287	0.227
-703.572	-200.000	0.004	0.043
-702.558	365.551	-0.062	-0.125
-701.543	-52.754	-0.204	-0.094
-700.529	-141.291	0.118	-0.012
-699.514	175.650	0.029	-0.042
-698.499	-9.569	-0.153	-0.102
-697.485	800.000	0.011	0.033
-696.470	-29.174	0.246	-0.142
-695.456	306.918	-0.107	0.200
-694.441	326.535	0.065	0.126
-693.426	-200.000	-0.034	0.221
-692.412	-168.137	0.367	-0.014
-691.397	-200.000	0.041	-0.210
-690.383	110.672	-0.125	0.151
-689.368	-87.626	0.153	0.046
-688.354	-47.763	0.137	-0.067
-687.339	75.276	-0.166	-0.176
-686.324	-36.787	-0.167	0.090
-685.310	-36.567	-0.113	-0.061
-684.295	800.000	0.089	0.351
-683.281	-49.609	0.232	-0.111
-682.266	-143.318	0.141	0.014
-681.251	-32.010	-0.173	-0.097
-680.237	10.875	0.122	-0.094
-679.222	-103.053	0.061	-0.014
-678.208	-107.288	-0.078	0.017
-677.193	31.116	-0.209	-0.180
-676.178	-101.514	-0.153	0.037
-675.164	2.225	0.057	-0.041
-674.149	-49.037	-0.082	-0.039
-673.135	219.053	-0.111	0.179
-672.120	55.797	0.385	0.375
-671.105	-18.713	-0.302	0.189
-670.091	190.777	0.203	-0.307
-669.076	-200.000	-0.369	-0.002
-668.062	797.055	0.088	-0.245
-667.047	-22.475	0.355	-0.215
-666.032	-200.000	0.021	0.135
-665.018	-151.317	-0.081	0.006
-664.003	250.899	-0.286	-0.487
-662.989	-200.000	0.037	0.193
-661.974	-157.985	-0.182	0.011
-660.959	118.427	-0.109	-0.135
-659.945	345.117	-0.237	-0.467
-658.930	283.957	0.076	-0.137
-657.916	150.167	-0.090	0.122
-656.901	-62.358	0.298	-0.125
-655.886	-71.581	-0.150	-0.056
-654.872	408.492	0.180	0.381
-653.857	19.201	-0.038	-0.031
-652.843	332.550	0.077	0.149
-651.828	428.838	-0.084	-0.183
-650.814	387.844	0.150	0.311
-649.799	65.237	-0.148	-0.150
-648.784	-56.219	-0.298	-0.133
-647.770	-200.000	-0.017	-0.154
-646.755	-27.383	-0.186	0.108
-645.741	62.726	-0.158	-0.158
-644.726	78.281	0.096	0.103
-643.711	-2.204	-0.075	0.053
-642.697	-0.722	0.129	0.092
-641.682	-200.000	-0.041	-0.182
-640.668	-200.000	0.002	-0.109
-639.653	687.020	-0.093	0.243
-638.638	-113.261	0.175	-0.034
-637.624	57.065	0.235	-0.230
-636.609	138.343	-0.098	0.129
-635.595	800.000	0.051	0.146
-634.580	108.127	0.110	-0.132
-633.565	-200.000	-0.148	0.665
-632.551	450.306	0.192	-0.424
-631.536	800.000	-0.026	0.085
-630.522	60.530	-0.031	-0.031
-629.507	-50.569	-0.090	-0.042
-628.492	-162.336	-0.303	0.015
-627.478	216.409	-0.130	-0.207
-626.463	-200.000	0.011	-0.105
-625.449	285.640	-0.150	0.271
-624.434	409.255	-0.155	0.330
-623.419	42.297	-0.072	0.065
-622.405	-127.946	0.204	0.029
-621.390	23.012	-0.187	0.154
-620.376	315.354	-0.121	-0.228
-619.361	-34.059	-0.267	0.147
-618.346	-200.000	-0.017	-0.161
-617.332	-200.000	-0.026	-0.120
-616.317	-200.000	-0.015	0.065
-615.303	-51.226	-0.103	0.048
-614.288	16.552	0.026	-0.020
-613.273	800.000	0.027	-0.084
-612.259	-147.319	0.218	0.019
-611.244	-112.660	0.223	-0.044
-610.230	-22.638	0.094	-0.057
-609.215	15.129	-0.024	-0.019
-608.201	41.391	-0.173	-0.156
-607.186	63.222	0.180	-0.180
-606.171	65.687	0.134	-0.136
-605.157	-200.000	-0.014	0.183
-604.142	136.184	0.141	-0.185
-603.128	-122.682	-0.350	0.057
-602.113	110.557	0.233	0.280
-601.098	659.882	-0.115	0.298
-600.084	-20.512	0.103	-0.063
-599.069	280.836	-0.114	-0.204
-598.055	28.068	0.190	-0.160
-597.040	205.555	0.228	-0.354
-596.025	-148.594	-0.191	0.016
-595.011	-174.831	0.298	-0.008
-593.996	-109.881	-0.512	-0.108
-592.982	800.000	-0.055	-0.158
-591.967	-46.496	-0.144	-0.071
-590.952	52.333	0.049	0.047
-589.938	-92.698	0.108	-0.030
-588.923	44.737	-0.218	-0.200
-587.909	-49.371	-0.178	-0.085
-586.894	17.236	-0.212	-0.168
-585.879	120.312	0.253	0.314
-584.865	-200.000	-0.057	0.370
-583.850	-12.053	0.139	-0.091
-582.836	241.839	-0.148	-0.248
-581.821	800.000	0.038	0.113
-580.806	694.038	-0.030	-0.079
-579.792	-104.699	0.100	0.023
-578.777	-123.222	-0.345	0.055
-577.763	436.838	0.125	0.272
-576.748	-0.501	0.192	0.136
-575.733	259.377	0.083	-0.143
-574.719	-115.118	-0.180	-0.034
-573.704	-36.771	-0.172	-0.092
-572.690	-59.688	0.341	-0.146
-571.675	120.016	-0.023	0.028
-570.661	-95.680	-0.080	-0.021
-569.646	129.393	-0.122	0.156
-568.631	106.850	-0.298	-0.353
-567.617	34.043	-0.167	-0.146
-566.602	800.000	0.073	-0.305
-565.588	185.380	-0.093	-0.138
-564.573	-200.000	0.029	-0.147
-563.558	1.721	-0.031	-0.022
-562.544	-89.064	-0.341	0.101
-561.529	-200.000	0.037	-0.215
-560.515	11.191	-0.234	-0.179
-559.500	-37.953	0.171	0.091
-558.485	541.328	-0.049	0.116
-557.471	201.876	-0.154	-0.237
-556.456	-137.826	0.124	-0.014
-555.442	-200.000	0.008	-0.071
-554.427	-125.036	-0.315	0.048
-553.412	-90.459	-0.082	-0.024
-552.398	-200.000	0.048	0.392
-551.383	-69.196	-0.141	-0.054
-550.369	-95.442	0.404	-0.108
-549.354	23.374	-0.123	-0.101
-548.339	30.149	-0.181	-0.154
-547.325	-200.000	-0.000	0.077
-546.310	-29.825	-0.266	0.151
-545.296	132.945	0.090	-0.116
-544.281	-75.276	-0.152	-0.054
-543.266	-200.000	0.097	0.568
-542.252	-200.000	-0.036	-0.159
-541.237	-1.835	0.108	0.076
-540.223	511.143	-0.083	-0.194
-539.208	-200.000	-0.010	0.104
-538.193	718.932	-0.115	-0.304
-537.179	-81.531	0.127	-0.042
-536.164	-200.000	-0.039	-0.185
-535.150	-94.774	-0.225	-0.061
-534.135	115.451	0.117	0.142
-533.121	-200.000	-0.008	-0.108
-532.106	611.621	0.038	-0.094
-531.091	370.333	0.092	0.187
-530.077	111.998	-0.142	0.171
-529.062	-64.365	-0.398	-0.162
-528.048	-84.754	0.027	-0.009
-527.033	48.627	-0.185	-0.174
-526.018	48.797	0.102	0.096
-525.004	-71.735	0.320	-0.119
-523.989	-95.484	0.236	0.063
-522.975	-200.000	0.032	-0.153
-521.960	-103.977	-0.154	0.036
-520.945	53.739	0.165	0.158
-519.931	17.065	-0.142	-0.112
-518.916	-200.000	0.338	0.001
-517.902	65.166	-0.207	0.208
-516.887	-160.604	-0.140	-0.007
-515.872	-98.130	-0.222	-0.057
-514.858	783.128	-0.065	0.178
-513.843	-200.000	-0.054	0.313
-512.829	53.926	0.112	-0.107
-511.814	-144.084	0.140	-0.013
-510.799	20.729	0.045	-0.036
-509.785	-200.000	0.001	0.009
-508.770	98.459	0.151	0.174
-507.756	800.000	-0.021	-0.089
-506.741	-107.190	0.202	-0.044
-505.726	-124.360	0.179	-0.028
-504.712	212.076	-0.112	-0.176
-503.697	-127.318	0.343	-0.050
-502.683	117.779	-0.055	0.068
-501.668	-200.000	0.011	0.136
-500.653	800.000	-0.045	-0.186
-499.639	-160.927	0.131	0.007
-498.624	800.000	0.090	-0.253
-497.610	299.418	-0.032	-0.059
-496.595	800.000	0.034	0.101
-495.581	800.000	-0.200	0.558
-494.566	-133.455	-0.040	-0.005
-493.551	-49.054	-0.050	-0.024
-492.537	316.911	0.010	0.019
-491.522	237.142	0.045	0.074
-490.508	598.442	0.138	-0.340
-489.493	23.258	0.131	-0.107
-488.478	-200.000	0.023	-0.118
-487.464	-200.000	0.029	0.229
-486.449	87.049	0.232	-0.255
-485.435	13.510	0.192	-0.148
-484.420	-87.791	0.112	0.033
-483.405	-93.402	0.336	0.093
-482.391	-137.774	0.027	-0.003
-481.376	-96.070	0.364	-0.096
-480.362	598.958	-0.168	-0.416
-479.347	-78.772	0.328	-0.111
-478.332	-136.183	0.236	-0.027
-477.318	-120.606	0.109	-0.018
-476.303	-135.936	-0.134	-0.016
-475.289	276.871	0.045	0.079
-474.274	169.278	-0.230	-0.327
-473.259	339.933	0.019	0.037
-472.245	96.768	0.145	0.165
-471.230	95.368	0.064	-0.072
-470.216	43.700	0.034	-0.031
-469.201	258.431	-0.087	0.149
-468.186	-12.636	-0.127	-0.082
-467.172	165.454	0.048	-0.068
-466.157	-74.756	-0.083	-0.030
-465.143	285.502	-0.150	-0.269
-464.128	-200.000	-0.052	-0.265
-463.113	-200.000	-0.004	-0.031
-462.099	66.647	-0.133	-0.135
-461.084	382.935	0.114	0.234
-460.070	61.969	0.027	0.027
-459.055	-49.112	0.216	0.103
-458.040	-200.000	0.015	0.070
-457.026	27.414	-0.246	0.205
-456.011	-137.565	0.116	-0.013
-454.997	-90.435	0.414	0.119
-453.982	-5.432	0.113	0.077
-452.968	70.722	0.163	0.168
-451.953	-2.872	-0.383	-0.266
-450.938	-200.000	0.009	-0.152
-449.924	73.807	0.113	-0.118
-448.909	-93.645	0.069	0.019
-447.895	-71.918	-0.157	-0.058
-446.880	-200.000	-0.077	0.472
-445.865	-200.000	-0.029	0.268
-444.851	-88.036	0.061	-0.018
-443.836	800.000	0.050	-0.187
-442.822	-64.804	-0.289	-0.117
-441.807	-113.902	0.048	0.009
-440.792	-109.271	0.322	0.068
-439.778	38.588	-0.256	0.227
-438.763	-200.000	-0.013	-0.100
-437.749	800.000	0.031	0.097
-436.734	800.000	0.079	0.276
-435.719	-14.228	-0.058	0.037
-434.705	800.000	0.046	0.138
-433.690	13.879	-0.201	0.156
-432.676	-66.682	-0.344	0.135
-431.661	-66.728	-0.117	-0.046
-430.646	300.189	0.022	-0.041
-429.632	24.913	0.054	-0.045
-428.617	-72.148	-0.238	0.088
-427.603	-200.000	-0.048	0.251
-426.588	800.000	0.052	-0.193
-425.573	29.183	0.338	-0.285
-424.559	478.817	-0.115	-0.259
-423.544	-93.324	-0.267	-0.074
-422.530	75.669	-0.169	-0.177
-421.515	-13.012	0.177	0.114
-420.500	243.659	0.142	-0.237
-419.486	172.173	0.214	0.307
-418.471	-133.144	0.044	0.006
-417.457	24.025	0.030	0.025
-416.442	50.825	-0.071	0.067
-415.428	-122.802	0.105	0.017
-414.413	-145.518	-0.270	0.024
-413.398	-200.000	0.029	-0.263
-412.384	-123.724	0.079	0.012
-411.369	-122.335	-0.140	0.023
-410.355	-200.000	0.003	-0.289
-409.340	-200.000	0.011	0.302
-408.325	-58.819	0.211	0.091
-407.311	-6.743	0.333	-0.225
-406.296	110.760	-0.023	-0.027
-405.282	148.638	0.053	0.071
-404.267	800.000	-0.033	-0.106
-403.252	800.000	0.077	-0.246
-402.238	14.416	0.053	0.041
-401.223	165.881	-0.209	0.294
-400.209	93.413	-0.110	0.123
-399.194	639.899	-0.063	0.160
-398.179	48.437	0.129	0.120
-397.165	769.751	0.121	-0.329
-396.150	521.823	-0.088	-0.205
-395.136	161.932	0.187	-0.260
-394.121	-65.959	-0.065	-0.026
-393.106	-200.000	-0.018	0.174
-392.092	-155.872	-0.262	-0.017
-391.077	-3.419	-0.239	0.165
-390.063	731.551	0.097	0.258
-389.048	15.837	0.191	-0.149
-388.033	68.544	-0.171	0.174
-387.019	-200.000	-0.033	-0.197
-386.004	-36.650	-0.123	-0.065
-384.990	-130.853	-0.114	0.015
-383.975	44.802	0.008	-0.008
-382.960	226.520	-0.053	0.086
-381.946	442.722	-0.038	-0.082
-380.931	-46.802	0.152	0.074
-379.917	-77.840	-0.156	0.054
-378.902	479.681	-0.141	-0.317
-377.888	266.557	-0.061	0.105
-376.873	90.943	-0.160	-0.178
-375.858	176.572	0.063	0.091
-374.844	-200.000	0.066	0.569
-373.829	-114.761	-0.366	0.069
-372.815	-200.000	0.015	0.104
-371.800	-200.000	0.032	0.337
-370.785	-33.714	-0.176	0.096
-369.771	-133.345	0.457	-0.057
-368.756	87.523	-0.214	0.234
-367.742	-200.000	0.008	0.156
-366.727	800.000	0.101	0.345
-365.712	-142.056	-0.309	-0.030
-364.698	-37.573	0.040	0.021
-363.683	-200.000	-0.026	0.293
-362.669	800.000	0.052	-0.225
-361.654	-103.208	-0.154	0.036
-360.639	126.950	-0.130	0.164
-359.625	-200.000	0.015	0.169
-358.610	299.566	-0.216	-0.394
-357.596	-7.624	0.179	0.120
-356.581	800.000	0.148	0.424
-355.566	27.806	0.274	0.229
-354.552	-93.897	-0.176	0.048
-353.537	724.617	-0.048	-0.126
-352.523	-83.650	-0.220	0.070
-351.508	-200.000	-0.021	0.093
-350.493	-200.000	-0.014	0.341
-349.479	9.430	-0.175	0.131
-348.464	-138.852	-0.279	0.030
-347.450	338.610	-0.082	-0.157
-346.435	20.568	-0.127	0.102
-345.420	-123.411	0.238	0.038
-344.406	-25.458	-0.176	0.103
-343.391	191.222	-0.096	0.143
-342.377	-48.102	-0.148	-0.071
-341.362	-62.884	0.206	0.085
-340.348	-45.887	-0.482	0.236
-339.333	-200.000	-0.023	0.119
-338.318	-200.000	-0.005	-0.302
-337.304	-73.320	-0.053	-0.019
-336.289	115.082	-0.112	-0.135
-335.275	16.949	-0.080	0.063
-334.260	468.841	0.079	-0.176
-333.245	774.596	0.062	-0.168
-332.231	147.935	-0.118	0.158
-331.216	-3.898	-0.277	0.190
-330.202	-200.000	0.014	0.169
-329.187	-39.664	0.263	0.136
-328.172	374.557	0.101	-0.203
-327.158	455.817	0.151	-0.331
-326.143	192.612	0.251	0.375
-325.129	-200.000	0.021	-0.155
-324.114	13.612	0.347	-0.267
-323.099	13.461	0.160	-0.123
-322.085	-200.000	-0.008	0.218
-321.070	-82.587	0.230	-0.074
-320.056	65.277	-0.054	-0.054
-319.041	-183.329	0.297	-0.005
-318.026	292.904	0.071	0.129
-317.012	-40.451	0.383	0.197
-315.997	800.000	-0.044	0.143
-314.983	-200.000	0.009	-0.127
-313.968	800.000	0.067	-0.193
-312.953	141.382	0.095	-0.125
-311.939	-200.000	-0.100	0.617
-310.924	261.165	0.075	0.128
-309.910	-67.853	0.242	0.094
-308.895	-51.372	0.419	-0.194
-307.880	-139.701	0.114	0.012
-306.866	-48.622	-0.245	-0.116
-305.851	-200.000	0.041	-0.200
-304.837	397.929	0.068	-0.140
-303.822	-200.000	0.029	0.197
-302.807	184.127	0.026	0.038
-301.793	-200.000	-0.008	-0.097
-300.778	-107.061	0.219	-0.048
-299.764	76.459	-0.188	-0.197
-298.749	180.524	0.147	0.213
-297.735	-200.000	-0.007	-0.421
-296.720	240.366	0.149	-0.246
-295.705	-33.575	0.394	0.215
-294.691	297.085	-0.040	0.073
-293.676	138.777	0.274	-0.355
-292.662	76.180	0.086	-0.090
-291.647	-156.965	0.191	0.012
-290.632	-200.000	-0.002	-0.028
-289.618	-18.499	0.092	-0.057
-288.603	537.153	0.123	-0.290
-287.589	45.927	-0.210	-0.192
-286.574	-108.021	-0.259	0.056
-285.559	800.000	-0.068	-0.216
-284.545	264.551	-0.061	0.104
-283.530	800.000	-0.115	0.345
-282.516	-30.070	0.039	-0.022
-281.501	72.437	0.179	-0.185
-280.486	-60.448	-0.172	0.072
-279.472	-125.096	0.291	0.044
-278.457	42.115	0.166	0.149
-277.443	255.776	0.076	0.128
-276.428	-83.202	-0.181	0.058
-275.413	115.297	0.090	0.109
-274.399	177.312	0.202	-0.291
-273.384	-200.000	-0.022	0.199
-272.370	25.327	-0.212	-0.174
-271.355	208.136	0.162	-0.250
-270.340	-200.000	-0.003	0.103
-269.326	800.000	-0.072	0.280
-268.311	491.428	0.121	0.273
-267.297	183.938	-0.016	0.024
-266.282	47.075	0.068	-0.062
-265.267	316.737	-0.076	0.142
-264.253	493.973	0.085	-0.194
-263.238	156.623	-0.105	0.143
-262.224	82.024	0.179	0.192
-261.209	-15.611	-0.105	-0.066
-260.195	122.632	-0.193	0.238
-259.180	-124.504	0.127	0.020
-258.165	98.407	-0.142	-0.161
-257.151	800.000	0.136	0.513
-256.136	381.940	0.163	0.330
-255.122	-2.707	0.107	0.074
-254.107	117.364	0.140	0.171
-253.092	-57.730	-0.239	-0.103
-252.078	-122.026	0.306	0.050
-251.063	-35.831	-0.158	-0.084
-250.049	501.080	-0.060	0.137
-249.034	104.866	-0.069	-0.080
-248.019	-99.977	-0.198	-0.049
-247.005	13.062	-0.059	0.045
-245.990	-15.671	-0.326	-0.205
-244.976	199.912	-0.071	0.108
-243.961	-99.535	-0.306	-0.076
-242.946	-200.000	-0.017	0.323
-241.932	-7.934	0.065	-0.043
-240.917	-87.993	0.389	-0.115
-239.903	46.980	-0.240	0.221
-238.888	-154.246	0.216	0.014
-237.873	436.523	-0.083	-0.178
-236.859	-200.000	-0.014	-0.299
-235.844	-16.432	0.280	0.175
-234.830	800.000	-0.033	0.101
-233.815	456.358	0.147	-0.323
-232.800	449.370	-0.109	-0.237
-231.786	-200.000	0.001	-0.177
-230.771	-200.000	-0.083	-0.407
-229.757	-151.273	-0.061	0.005
-228.742	-13.528	0.334	0.213
-227.727	-25.406	0.114	0.066
-226.713	-65.275	-0.230	-0.091
-225.698	800.000	-0.074	-0.213
-224.684	-200.000	-0.036	-0.342
-223.669	-150.391	0.611	-0.046
-222.655	-89.352	0.144	0.042
-221.640	800.000	0.054	0.197
-220.625	9.306	0.162	-0.121
-219.611	-200.000	-0.052	-0.260
-218.596	-200.000	-0.052	-0.251
-217.582	240.804	-0.070	-0.115
-216.567	-33.160	0.130	0.071
-215.552	800.000	-0.015	0.058
-214.538	-2.547	0.202	0.139
-213.523	322.939	-0.163	0.306
-212.509	5.903	-0.139	-0.101
-211.494	-200.000	-0.018	0.104
-210.479	483.721	-0.120	-0.270
-209.465	-185.191	0.091	0.001
-208.450	-200.000	0.017	0.097
-207.436	394.922	0.124	-0.254
-206.421	526.745	0.111	0.258
-205.406	8.180	-0.013	-0.010
-204.392	800.000	0.089	-0.243
-203.377	-91.299	0.079	0.022
-202.363	-83.060	0.127	-0.040
-201.348	256.667	-0.064	0.108
-200.333	281.761	-0.056	-0.099
-199.319	800.000	-0.203	-0.562
-198.304	800.000	-0.053	0.169
-197.290	-14.556	0.085	-0.054
-196.275	-49.094	0.181	-0.085
-195.260	75.671	0.211	0.220
-194.246	763.194	-0.005	-0.012
-193.231	525.008	0.093	0.215
-192.217	24.572	-0.087	0.071
-191.202	378.194	-0.064	-0.128
-190.187	-55.465	0.189	-0.084
-189.173	-71.773	-0.080	0.029
-188.158	431.379	0.142	0.303
-187.144	182.999	0.113	-0.164
-186.129	-3.840	-0.333	-0.227
-185.114	9.518	-0.194	0.145
-184.100	-100.695	-0.401	0.097
-183.085	84.027	-0.128	-0.137
-182.071	800.000	0.083	0.334
-181.056	800.000	0.034	0.110
-180.042	25.207	-0.238	0.195
-179.027	75.629	-0.196	0.204
-178.012	-22.016	0.486	0.290
-176.998	-178.208	0.233	0.005
-175.983	800.000	-0.050	0.144
-174.969	7.830	-0.362	-0.267
-173.954	63.247	-0.107	-0.105
-172.939	198.279	0.050	0.075
-171.925	181.712	-0.189	0.273
-170.910	-132.820	-0.152	-0.019
-169.896	585.565	-0.041	0.100
-168.881	-200.000	0.042	-0.299
-167.866	-29.257	0.180	-0.102
-166.852	-200.000	0.014	0.080
-165.837	-113.739	0.130	0.025
-164.823	-200.000	-0.000	0.168
-163.808	800.000	0.116	0.405
-162.793	-106.528	-0.050	0.011
-161.779	-65.800	-0.226	0.089
-160.764	92.447	0.186	0.206
-159.750	-116.082	-0.378	0.069
-158.735	10.967	0.069	-0.052
-157.720	107.621	-0.035	0.041
-156.706	800.000	0.117	-0.462
-155.691	-141.570	-0.178	0.018
-154.677	-200.000	0.031	-0.270
-153.662	125.436	0.070	0.087
-152.647	-200.000	-0.043	-0.298
-151.633	282.288	-0.036	0.064
-150.618	34.330	-0.186	-0.160
-149.604	-131.143	-0.747	-0.098
-148.589	62.010	0.082	-0.080
-147.574	428.139	0.077	0.164
-146.560	61.493	-0.270	-0.265
-145.545	-46.794	-0.340	-0.163
-144.531	178.566	0.161	-0.231
-143.516	-143.019	-0.468	-0.045
-142.502	-64.620	-0.165	-0.066
-141.487	800.000	0.109	-0.319
-140.472	-102.764	0.256	0.060
-139.458	266.482	0.099	-0.171
-138.443	124.451	0.128	-0.158
-137.429	-17.605	0.296	-0.183
-136.414	-200.000	-0.012	0.216
-135.399	117.320	0.205	0.247
-134.385	214.730	0.110	-0.171
-133.370	-200.000	0.037	0.188
-132.356	-3.991	-0.312	-0.213
-131.341	-43.516	0.135	-0.067
-130.326	110.547	-0.161	0.190
-129.312	289.822	0.139	-0.248
-128.297	-157.023	-0.273	-0.016
-127.283	-59.157	-0.082	0.035
-126.268	800.000	0.033	0.133
-125.253	42.180	0.174	-0.155
-124.239	-179.241	0.255	-0.006
-123.224	-166.958	-0.147	0.006
-122.210	81.827	0.112	0.119
-121.195	299.543	-0.129	-0.233
-120.180	514.401	-0.147	-0.338
-119.166	178.865	0.201	-0.288
-118.151	111.703	0.050	0.059
-117.137	142.311	-0.097	0.126
-116.122	-16.974	0.227	0.140
-115.107	-133.832	-0.261	0.032
-114.093	800.000	-0.085	-0.280
-113.078	-17.690	-0.094	-0.058
-112.064	95.597	0.009	0.010
-111.049	360.069	-0.083	0.164
-110.034	-200.000	0.001	0.303
-109.020	-135.101	0.219	0.026
-108.005	376.354	-0.088	-0.177
-106.991	265.808	0.049	0.084
-105.976	130.443	0.136	-0.171
-104.962	-200.000	-0.075	-0.360
-103.947	388.158	0.142	-0.288
-102.932	51.421	0.262	-0.244
-101.918	-200.000	-0.009	-0.253
-100.903	-34.671	0.193	-0.104
-99.889	800.000	0.015	0.044
-98.874	571.080	0.108	0.259
-97.859	-200.000	-0.030	-0.194
-96.845	-200.000	-0.060	0.340
-95.830	-140.832	-0.177	-0.018
-94.816	-125.936	-0.230	-0.034
-93.801	800.000	0.035	0.104
-92.786	800.000	0.041	0.169
-91.772	800.000	-0.138	0.577
-90.757	-200.000	-0.011	0.206
-89.743	-74.212	0.440	0.156
-88.728	275.506	-0.024	-0.042
-87.713	-200.000	-0.000	-0.076
-86.699	79.575	0.105	0.111
-85.684	-200.000	-0.012	-0.088
-84.670	-2.749	0.276	0.190
-83.655	-200.000	-0.028	-0.436
-82.640	-200.000	0.020	-0.197
-81.626	-184.380	-0.264	-0.004
-80.611	-15.322	-0.263	-0.165
-79.597	-60.768	-0.161	0.067
-78.582	-200.000	-0.016	0.340
-77.567	800.000	0.046	0.143
-76.553	-200.000	0.015	0.149
-75.538	59.336	-0.201	0.195
-74.524	35.439	0.183	0.158
-73.509	-39.431	0.394	-0.202
-72.494	-152.507	0.314	0.022
-71.480	-200.000	-0.009	0.124
-70.465	-200.000	0.014	-0.137
-69.451	145.957	-0.052	-0.069
-68.436	99.889	0.312	0.354
-67.422	155.163	-0.252	-0.340
-66.407	-200.000	0.012	-0.067
-65.392	-146.858	-0.294	0.025
-64.378	-200.000	0.007	-0.237
-63.363	80.536	-0.119	0.126
-62.349	800.000	0.087	0.329
-61.334	73.191	-1.175	-1.204
-60.319	144.558	0.514	0.673
-59.305	-200.000	-0.062	-0.980
-58.290	682.269	0.319	0.816
-57.276	263.666	0.857	1.461
-56.261	-200.000	106.489	615.030
-55.246	503.552	1510.550	3423.480
-54.232	176.219	2702.181	3845.195
-53.217	110.307	2186.540	2573.418
-52.203	40.112	1704.967	1501.482
-51.188	32.600	1515.129	1283.315
-50.173	30.119	1488.793	1244.328
-49.159	51.411	1544.691	1437.283
-48.144	51.670	1561.077	1454.247
-47.130	32.774	1517.225	1286.077
-46.115	29.732	1502.378	1252.862
-45.100	29.459	1498.875	1248.045
-44.086	29.490	1496.508	1246.234
-43.071	29.350	1494.087	1243.224
-42.057	29.386	1492.648	1242.222
-41.042	29.395	1491.499	1241.277
-40.027	29.401	1490.035	1240.044
-39.013	29.458	1487.951	1238.646
-37.998	29.365	1487.510	1237.607
-36.984	29.421	1485.948	1236.631
-35.969	29.450	1484.437	1235.520
-34.954	29.454	1483.058	1234.353
-33.940	29.384	1481.700	1232.700
-32.925	29.407	1480.898	1232.143
-31.911	29.452	1478.474	1230.373
-30.896	29.422	1477.780	1229.551
-29.881	29.518	1476.448	1229.032
-28.867	29.575	1475.038	1228.190
-27.852	29.548	1473.930	1227.037
-26.838	29.547	1472.383	1225.693
-25.823	29.434	1471.151	1223.867
-24.809	29.503	1469.058	1222.536
-23.794	29.507	1467.505	1221.224
-22.779	29.393	1467.055	1220.048
-21.765	29.528	1465.493	1219.592
-20.750	29.475	1464.776	1218.593
-19.736	29.526	1463.390	1217.728
-18.721	29.473	1462.525	1216.612
-17.706	29.473	1460.739	1215.076
-16.692	29.444	1459.972	1214.204
-15.677	29.495	1459.292	1213.922
-14.663	29.458	1458.206	1212.727
-13.648	29.351	1457.628	1211.496
-12.633	29.271	1456.256	1209.785
-11.619	29.287	1455.691	1209.370
-10.604	29.387	1454.647	1209.109
-9.590	29.418	1453.993	1208.724
-8.575	29.428	1452.942	1207.867
-7.560	29.474	1451.883	1207.236
-6.546	29.432	1450.922	1206.116
-5.531	29.341	1450.586	1205.198
-4.517	29.359	1449.758	1204.577
-3.502	29.341	1448.594	1203.443
-2.487	29.446	1447.617	1203.267
-1.473	29.420	1446.224	1201.897
-0.458	29.422	1445.271	1201.069
0.556	26.973	1435.706	1190.065
1.571	24.105	1410.593	1150.643
2.586	20.988	1352.304	1083.658
3.600	19.500	1272.238	1010.700
4.615	18.351	1227.678	968.721
5.629	16.220	1172.489	913.564
6.644	8.243	1089.037	808.205
7.659	1.108	1049.175	743.644
8.673	-0.039	1042.956	733.578
9.688	-0.222	1039.432	730.144
10.702	-0.395	1038.136	728.328
11.717	-0.255	1035.852	727.341
12.731	3.086	1039.998	746.421
13.746	11.832	1052.454	798.101
14.761	18.659	1061.122	838.057
15.775	20.599	1062.898	848.869
16.790	21.003	1062.277	850.267
17.804	20.729	1061.865	848.524
18.819	20.484	1061.718	847.138
19.834	20.603	1060.721	846.848
20.848	20.729	1060.443	847.167
21.863	20.809	1059.847	847.003
22.877	20.836	1059.321	846.638
23.892	20.914	1058.690	846.437
24.907	20.816	1057.711	845.106
25.921	20.768	1057.087	844.299
26.936	20.759	1056.583	843.780
27.950	20.875	1054.985	842.987
28.965	20.655	1054.155	841.189
29.980	20.585	1051.920	838.992
30.994	20.678	1050.566	838.287
32.009	20.760	1050.071	838.212
33.023	20.898	1049.031	837.970
34.038	20.688	1048.111	836.151
35.053	20.616	1047.055	834.891
36.067	20.937	1046.274	835.734
37.082	20.780	1045.605	834.372
38.096	20.831	1045.278	834.283
39.111	20.904	1044.254	833.742
40.126	21.115	1042.814	833.527
41.140	20.956	1041.843	831.916
42.155	20.703	1040.277	829.387
43.169	20.499	1038.871	827.220
44.184	20.329	1038.077	825.706
45.199	20.591	1036.612	825.713
46.213	20.416	1035.915	824.255
47.228	20.460	1034.685	823.410
48.242	20.514	1034.014	823.061
49.257	20.551	1033.499	822.752
50.271	20.715	1032.214	822.432
51.286	20.881	1031.634	822.682
52.301	20.852	1031.352	822.248
53.315	20.927	1030.523	821.868
54.330	20.876	1029.688	820.886
55.344	20.685	1028.908	819.294
56.359	20.790	1028.034	819.020
57.374	20.825	1027.073	818.347
58.388	20.582	1026.232	816.463
59.403	20.506	1025.374	815.352
60.417	20.585	1024.820	815.209
61.432	20.469	1023.816	813.795
62.447	20.487	1023.112	813.246
63.461	20.642	1022.590	813.486
64.476	20.694	1022.056	813.231
65.490	20.600	1020.786	811.712
66.505	20.604	1019.911	810.962
67.520	20.466	1019.347	809.796
68.534	20.539	1018.534	809.420
69.549	20.538	1017.287	808.352
70.563	20.177	1016.121	805.678
71.578	20.181	1015.441	805.085
72.593	20.202	1014.415	804.300
73.607	20.030	1013.289	802.537
74.622	20.135	1012.155	802.054
75.636	20.394	1011.579	802.727
76.651	20.471	1011.246	802.743
77.666	20.426	1009.903	801.402
78.680	20.235	1009.374	800.029
79.695	20.313	1008.499	799.626
80.709	20.391	1007.996	799.515
81.724	20.457	1007.322	799.214
82.739	20.456	1006.442	798.437
83.753	20.501	1005.492	797.821
84.768	20.729	1005.215	798.576
85.782	20.948	1004.149	798.662
86.797	21.120	1003.623	798.963
87.812	21.043	1002.716	797.815
88.826	20.966	1001.830	796.687
89.841	20.976	1000.650	795.728
90.855	21.066	1000.182	795.693
91.870	20.990	999.715	794.908
92.884	21.142	998.265	794.376
93.899	20.960	997.744	793.062
94.914	20.941	996.687	792.066
95.928	20.901	996.455	791.629
96.943	21.116	994.837	791.247
97.957	20.698	994.021	788.637
98.972	20.416	992.625	786.182
99.987	20.272	991.968	784.941
101.001	20.344	991.087	784.501
102.016	20.651	990.917	785.680
103.030	20.863	989.583	785.510
104.045	20.739	987.935	783.575
105.060	20.322	987.485	781.271
106.074	20.378	985.995	780.277
107.089	20.489	985.277	780.137
108.103	20.828	985.200	781.528
109.118	20.956	984.215	781.251
110.133	20.614	982.961	778.654
111.147	20.572	981.768	777.456
112.162	20.550	980.981	776.664
113.176	20.318	979.462	774.357
114.191	20.483	978.831	774.527
115.206	20.521	978.107	774.054
116.220	20.195	976.927	771.603
117.235	20.033	976.287	770.309
118.249	20.102	975.760	770.129
119.264	20.187	975.116	769.933
120.279	20.368	973.091	769.065
121.293	20.234	972.423	767.876
122.308	20.395	972.065	768.240
123.322	20.291	971.375	767.164
124.337	20.235	970.315	766.012
125.352	20.222	968.766	764.666
126.366	19.809	967.159	761.509
127.381	19.591	966.050	759.614
128.395	19.956	965.930	761.057
129.410	20.654	965.005	763.323
130.424	20.827	964.239	763.409
131.439	20.751	962.880	761.932
132.454	20.608	961.994	760.538
133.468	20.691	961.242	760.240
134.483	20.643	960.303	759.218
135.497	20.648	959.529	758.561
136.512	20.967	958.833	759.335
137.527	20.746	958.855	758.323
138.541	20.927	957.335	757.838
139.556	20.981	956.595	757.423
140.570	21.050	955.421	756.725
141.585	20.947	954.852	755.762
142.600	20.865	954.605	755.143
143.614	20.980	953.141	754.415
144.629	20.954	953.107	754.210
145.643	21.110	952.073	753.998
146.658	21.139	950.929	753.151
147.673	20.861	949.535	750.782
148.687	20.881	948.240	749.779
149.702	20.819	947.462	748.830
150.716	20.742	946.347	747.552
151.731	20.979	945.041	747.472
152.746	20.873	944.630	746.625
153.760	21.070	944.157	747.028
154.775	21.180	942.993	746.510
155.789	21.102	942.892	746.034
156.804	21.093	941.974	745.201
157.819	21.038	940.960	744.101
158.833	21.145	939.971	743.708
159.848	21.220	939.213	743.360
160.862	21.319	938.365	743.046
161.877	21.028	937.686	741.205
162.892	21.091	936.734	740.656
163.906	21.143	936.096	740.303
164.921	21.119	935.064	739.321
165.935	21.017	934.072	738.042
166.950	21.130	933.296	737.839
167.964	21.217	931.762	736.927
168.979	21.026	931.374	735.749
169.994	20.969	929.889	734.273
171.008	20.916	928.594	732.964
172.023	21.245	928.036	733.838
173.037	21.155	927.607	733.058
174.052	20.915	926.612	731.200
175.067	20.837	925.265	729.743
176.081	20.847	924.875	729.417
177.096	20.991	924.035	729.290
178.110	21.034	922.864	728.482
179.125	20.781	922.019	726.692
180.140	20.450	920.966	724.419
181.154	20.558	920.370	724.338
182.169	20.725	919.676	724.423
183.183	20.790	920.014	724.893
184.198	21.099	919.171	725.449
185.213	21.040	918.542	724.647
186.227	20.840	918.000	723.321
187.242	21.120	917.238	723.819
188.256	21.141	916.635	723.368
189.271	21.196	915.568	722.689
190.286	21.202	914.792	722.035
191.300	21.081	913.803	720.695
192.315	20.672	912.648	718.031
193.329	19.944	911.110	713.757
194.344	19.581	910.277	711.546
195.359	20.130	910.827	714.176
196.373	20.830	910.555	716.779
197.388	21.059	910.321	717.474
198.402	20.971	909.828	716.659
199.417	20.977	909.466	716.337
200.432	21.010	908.826	715.905
201.446	20.832	907.602	714.149
202.461	20.641	906.814	712.681
203.475	20.655	906.189	712.186
204.490	20.225	904.780	709.255
205.504	19.142	902.864	703.272
206.519	19.581	902.922	705.048
207.534	20.435	903.563	708.973
208.548	20.513	903.041	708.817
209.563	21.014	902.329	710.238
210.577	20.913	901.835	709.375
211.592	20.766	901.419	708.385
212.607	21.051	901.108	709.236
213.621	21.227	900.597	709.489
214.636	21.207	899.293	708.316
215.650	21.277	898.842	708.182
216.665	21.208	898.052	707.217
217.680	21.094	897.738	706.446
218.694	21.251	897.226	706.616
219.709	21.009	895.921	704.550
220.723	20.508	895.009	701.747
221.738	20.771	894.815	702.595
222.753	20.958	894.443	702.994
223.767	20.810	893.802	701.833
224.782	21.076	892.703	701.978
225.796	21.169	892.173	701.871
226.811	21.233	891.895	701.848
227.826	20.849	890.544	699.182
228.840	20.139	888.917	694.999
229.855	20.034	888.263	694.005
230.869	20.389	888.066	695.211
231.884	20.068	887.358	693.311
232.899	20.024	886.723	692.575
233.913	20.779	886.888	695.664
234.928	21.012	886.225	696.013
235.942	20.902	885.901	695.258
236.957	20.964	885.494	695.121
237.972	20.531	884.163	692.292
238.986	20.613	883.209	691.811
240.001	20.788	882.986	692.271
241.015	20.665	882.205	691.107
242.030	20.805	881.659	691.173
243.045	21.050	880.783	691.396
244.059	20.996	880.646	691.016
245.074	21.236	880.011	691.404
246.088	21.095	879.399	690.307
247.103	20.637	878.676	687.868
248.117	20.786	877.857	687.753
249.132	21.448	877.640	690.135
250.147	21.763	877.603	691.288
251.161	21.676	877.106	690.494
252.176	21.794	876.629	690.522
253.190	21.842	875.637	689.869
254.205	21.779	875.259	689.260
255.220	22.145	874.547	690.075
256.234	21.980	874.065	688.988
257.249	21.873	873.404	687.985
258.263	21.736	873.061	687.118
259.278	21.813	872.262	686.731
260.293	21.641	872.529	686.205
261.307	21.954	871.259	686.368
262.322	21.903	870.278	685.337
263.336	21.699	869.457	683.833
264.351	21.246	868.276	681.079
265.366	20.045	866.181	674.701
266.380	19.670	865.489	672.644
267.395	20.596	865.931	676.532
268.409	21.382	866.031	679.608
269.424	21.494	865.459	679.530
270.439	21.626	864.728	679.411
271.453	21.624	864.403	679.085
272.468	21.646	863.593	678.476
273.482	21.989	862.996	679.273
274.497	22.054	862.526	679.094
275.512	21.730	861.541	677.008
276.526	21.272	859.986	673.958
277.541	21.340	859.877	674.078
278.555	21.725	859.551	675.247
279.570	21.453	859.265	673.913
280.585	21.217	858.489	672.335
281.599	21.392	857.764	672.382
282.614	21.633	857.080	672.713
283.628	21.189	855.933	670.050
284.643	20.797	855.244	667.947
285.657	21.303	855.332	669.897
286.672	21.155	854.200	668.386
287.687	20.549	853.252	665.264
288.701	21.003	853.675	667.273
289.716	21.481	853.171	668.650
290.730	21.002	852.305	666.081
291.745	20.874	851.169	664.646
292.760	20.589	850.524	662.998
293.774	20.660	849.941	662.755
294.789	21.534	850.768	666.673
295.803	22.104	850.820	668.826
296.818	22.174	850.325	668.643
297.833	22.303	849.398	668.346
298.847	21.790	848.489	665.625
299.862	21.625	847.577	664.221
300.876	21.827	846.883	664.386
301.891	22.120	846.756	665.339
302.906	22.321	845.883	665.354
303.920	21.769	844.696	662.277
304.935	21.530	844.241	660.955
305.949	22.012	844.036	662.559
306.964	22.216	843.079	662.518
307.979	22.023	842.347	661.156
308.993	21.933	842.097	660.562
310.008	22.078	842.083	661.037
311.022	22.505	841.358	662.017
312.037	22.290	840.675	660.612
313.052	21.957	840.593	659.238
314.066	21.974	839.155	658.117
315.081	21.248	837.830	654.303
316.095	20.481	836.998	650.723
317.110	21.074	837.005	652.892
318.125	21.943	837.556	656.516
319.139	21.372	836.541	653.526
320.154	20.370	834.505	648.138
321.168	20.033	833.369	645.942
322.183	20.531	834.269	648.444
323.197	21.358	834.230	651.439
324.212	21.712	833.931	652.468
325.227	21.717	833.585	652.154
326.241	22.025	833.148	652.900
327.256	21.984	832.293	652.024
328.270	21.883	831.750	651.162
329.285	21.701	831.462	650.204
330.300	21.548	830.559	648.874
331.314	21.367	829.505	647.323
332.329	21.316	829.023	646.701
333.343	21.773	828.845	648.195
334.358	22.011	828.339	648.622
335.373	22.095	827.254	648.025
336.387	22.110	827.158	647.948
337.402	22.196	826.683	647.834
338.416	22.477	826.276	648.495
339.431	22.381	825.703	647.634
340.446	22.547	825.059	647.681
341.460	22.649	824.971	647.929
342.475	22.523	824.279	646.865
343.489	22.314	823.781	645.651
344.504	22.258	822.896	644.696
345.519	22.756	822.208	645.923
346.533	22.900	822.164	646.357
347.548	22.844	821.588	645.645
348.562	22.874	821.490	645.619
349.577	22.870	820.911	645.092
350.592	22.675	820.533	644.024
351.606	22.826	819.818	643.956
352.621	22.809	819.156	643.321
353.635	22.759	818.534	642.592
354.650	22.671	818.015	641.807
355.665	22.335	817.075	639.792
356.679	21.302	815.525	634.772
357.694	21.266	814.913	634.108
358.708	21.930	814.829	636.394
359.723	21.938	814.201	635.879
360.738	21.948	814.609	636.174
361.752	22.462	814.215	637.674
362.767	22.543	813.571	637.406
363.781	22.760	813.684	638.224
364.796	22.946	813.521	638.711
365.810	23.106	813.006	638.829
366.825	23.168	812.801	638.835
367.840	23.160	812.216	638.287
368.854	22.985	811.677	637.179
369.869	22.635	810.541	634.971
370.883	22.312	810.059	633.373
371.898	22.575	809.634	633.931
372.913	22.560	808.309	632.784
373.927	22.387	808.032	631.889
374.942	22.662	807.596	632.478
375.956	22.632	807.070	631.903
376.971	22.891	806.493	632.324
377.986	22.903	806.474	632.297
379.000	23.001	806.062	632.267
380.015	23.094	805.581	632.165
381.029	22.863	804.779	630.658
382.044	22.980	804.028	630.428
383.059	23.110	803.614	630.511
384.073	23.131	803.155	630.170
385.088	23.173	802.689	629.899
386.102	23.209	801.941	629.384
387.117	23.056	801.012	628.056
388.132	22.734	800.943	626.805
389.146	22.817	799.966	626.279
390.161	22.293	799.048	623.645
391.175	22.289	799.014	623.550
392.190	22.796	798.907	625.208
393.205	22.781	798.489	624.771
394.219	21.783	796.604	619.717
395.234	20.308	794.538	612.849
396.248	19.580	793.568	609.480
397.263	20.871	794.427	614.642
398.278	22.469	795.550	621.096
399.292	22.854	795.225	622.146
400.307	22.473	794.702	620.338
401.321	22.449	794.262	619.856
402.336	22.498	794.316	620.014
403.350	22.899	794.102	621.204
404.365	23.219	794.190	622.345
405.380	23.382	793.451	622.281
406.394	23.758	793.219	623.364
407.409	23.943	792.999	623.785
408.423	23.877	792.231	622.896
409.438	23.823	791.884	622.377
410.453	23.703	791.718	621.772
411.467	23.806	791.115	621.604
412.482	23.740	790.420	620.773
413.496	23.762	790.037	620.492
414.511	23.793	790.004	620.523
415.526	23.737	789.494	619.869
416.540	23.782	788.790	619.420
417.555	23.661	788.583	618.780
418.569	23.452	787.390	617.063
419.584	23.463	787.024	616.760
420.599	23.400	786.739	616.263
421.613	157.196	1365.221	1799.015
422.628	135.996	1449.494	1799.129
