DTS Sentinel unit serial number:	SN413079Multiplexer serial number:	ORYXHardware model number:	OX4-SRSoftware version number:	ORYX F/W v4.00 Oryx Data Collector v3.7.2.0data status	okinstallation	princeton_trtdifferential loss correction	single-endedforward channel	channel 3reverse channel	N/Adate	2019/09/12time	00:54:11forward acquisition time	60.00reverse acquisition time	0.00gamma	496.2192k internal	0.2319k external	0.2319temperature offset calibration	1.0064default loss term (dB/km)	0.3790temperature slope calibration	1.0000multiplexer offset coefficient	1.0000multiplexer slope coefficient	1.0000fibre end	0.00T internal ref (°C)	33.25T ext. ref 1 (°C)	2.05T ext. ref 2 (°C)	28.05length (m)	temperature (°C)	Stokes	anti-Stokes-747.200	330.771	-0.267	0.521
-746.185	4.522	-0.200	-0.148
-745.171	-149.917	0.169	-0.013
-744.156	800.000	-0.095	0.333
-743.142	-120.693	-0.124	0.021
-742.127	-34.180	-0.148	0.082
-741.112	181.990	0.139	-0.208
-740.098	-81.409	-0.125	0.042
-739.083	-81.136	0.063	0.021
-738.069	-123.041	-0.221	-0.036
-737.054	4.709	0.159	0.118
-736.039	-88.750	-0.447	-0.134
-735.025	146.809	-0.114	0.156
-734.010	-92.766	-0.407	0.115
-732.996	-38.727	-0.385	0.205
-731.981	615.507	-0.060	-0.151
-730.966	-146.947	-0.238	0.021
-729.952	-200.000	0.002	-0.145
-728.937	-5.415	0.140	-0.097
-727.923	32.920	-0.161	0.141
-726.908	-200.000	-0.023	-0.215
-725.894	74.698	-0.069	0.073
-724.879	108.623	0.142	-0.172
-723.864	402.406	0.108	0.229
-722.850	800.000	-0.059	-0.224
-721.835	800.000	-0.067	0.199
-720.821	-73.594	-0.337	0.124
-719.806	447.755	0.128	-0.284
-718.791	193.508	0.100	-0.152
-717.777	91.759	0.206	-0.234
-716.762	13.411	0.129	-0.101
-715.748	36.846	0.351	-0.313
-714.733	84.286	0.020	0.022
-713.718	-72.022	0.252	-0.095
-712.704	201.721	-0.036	0.056
-711.689	-102.610	0.219	-0.053
-710.675	404.357	0.070	0.150
-709.660	193.773	-0.217	0.332
-708.645	-14.835	0.303	-0.197
-707.631	-73.242	-0.256	-0.095
-706.616	88.860	0.152	-0.170
-705.602	317.972	-0.084	0.160
-704.587	800.000	-0.077	-0.247
-703.572	-51.246	0.237	-0.112
-702.558	-108.691	-0.142	-0.031
-701.543	0.872	0.133	-0.096
-700.529	254.568	0.164	-0.283
-699.514	800.000	-0.122	0.387
-698.499	-200.000	0.072	-0.370
-697.485	-175.387	-0.115	-0.003
-696.470	-28.393	-0.324	-0.189
-695.456	-41.662	0.310	0.161
-694.441	-158.843	-0.276	0.016
-693.426	-200.000	-0.020	0.326
-692.412	-200.000	0.020	0.167
-691.397	-1.776	-0.260	0.185
-690.383	-76.394	-0.089	-0.032
-689.368	174.702	0.042	-0.061
-688.354	52.201	0.119	0.114
-687.339	63.907	0.237	0.240
-686.324	-121.187	0.276	-0.047
-685.310	800.000	-0.042	0.140
-684.295	7.049	-0.055	0.041
-683.281	-33.437	-0.465	-0.259
-682.266	-69.754	0.083	-0.032
-681.251	-200.000	0.009	-0.101
-680.237	222.217	0.142	-0.231
-679.222	800.000	0.077	-0.291
-678.208	78.652	0.315	-0.340
-677.193	130.515	0.113	0.146
-676.178	38.301	0.093	-0.083
-675.164	81.573	-0.219	-0.240
-674.149	-74.784	-0.154	-0.056
-673.135	316.616	0.124	-0.236
-672.120	-156.478	0.371	0.023
-671.105	216.557	0.175	-0.281
-670.091	-200.000	-0.004	0.123
-669.076	-79.733	-0.059	0.020
-668.062	-200.000	0.037	-0.377
-667.047	-200.000	0.007	0.153
-666.032	-6.031	-0.023	-0.016
-665.018	-151.183	-0.174	0.013
-664.003	800.000	-0.044	-0.158
-662.989	725.926	-0.062	-0.167
-661.974	164.674	-0.066	-0.094
-660.959	104.882	0.139	-0.166
-659.945	543.582	-0.062	-0.149
-658.930	7.855	0.070	-0.053
-657.916	-200.000	-0.024	-0.513
-656.901	44.954	-0.109	-0.102
-655.886	195.634	-0.090	-0.138
-654.872	-60.588	0.235	-0.101
-653.857	-107.069	-0.142	-0.032
-652.843	-7.890	0.079	0.054
-651.828	800.000	0.118	-0.379
-650.814	-106.076	0.352	0.080
-649.799	174.268	0.124	0.181
-648.784	-121.816	-0.209	0.035
-647.770	-200.000	0.004	-0.037
-646.755	-121.450	0.163	0.027
-645.741	-95.381	0.281	-0.076
-644.726	737.925	-0.017	-0.046
-643.711	136.620	0.215	0.282
-642.697	-200.000	-0.007	-0.146
-641.682	-200.000	-0.022	0.185
-640.668	378.404	-0.099	-0.205
-639.653	294.405	0.101	-0.186
-638.638	-171.097	0.184	-0.006
-637.624	-127.285	0.288	0.042
-636.609	-2.933	0.166	-0.117
-635.595	65.027	-0.192	-0.195
-634.580	351.682	-0.054	-0.108
-633.565	-136.341	0.174	-0.020
-632.551	-200.000	-0.016	-0.432
-631.536	446.450	0.021	0.047
-630.522	-39.188	0.286	-0.151
-629.507	709.112	0.175	0.466
-628.492	-182.481	0.492	-0.009
-627.478	96.188	-0.092	-0.106
-626.463	342.112	-0.123	-0.242
-625.449	-76.325	0.446	0.158
-624.434	-200.000	-0.035	0.253
-623.419	356.582	0.125	-0.251
-622.405	12.179	0.169	-0.131
-621.390	-110.416	-0.226	-0.047
-620.376	-143.115	0.025	0.002
-619.361	-200.000	-0.045	0.287
-618.346	-41.346	-0.308	-0.160
-617.332	-200.000	0.019	0.093
-616.317	149.951	-0.229	-0.313
-615.303	64.123	0.058	0.059
-614.288	-53.726	0.329	-0.151
-613.273	274.816	0.135	-0.241
-612.259	85.984	0.023	-0.025
-611.244	-104.595	0.244	-0.057
-610.230	-127.251	0.366	-0.054
-609.215	-55.745	0.176	0.079
-608.201	247.740	-0.053	-0.090
-607.186	193.929	-0.034	-0.051
-606.171	-26.953	-0.053	-0.031
-605.157	787.507	-0.167	-0.461
-604.142	-19.858	-0.240	-0.149
-603.128	-45.884	0.062	0.031
-602.113	61.425	-0.095	-0.095
-601.098	344.510	0.077	-0.152
-600.084	366.929	-0.055	-0.111
-599.069	-200.000	0.232	-0.001
-598.055	26.617	-0.229	-0.193
-597.040	152.600	0.113	-0.155
-596.025	-179.229	0.270	0.006
-595.011	713.710	-0.043	-0.115
-593.996	-80.576	-0.136	0.046
-592.982	241.454	0.170	0.286
-591.967	80.423	-0.219	0.237
-590.952	335.356	-0.167	0.327
-589.938	-116.623	0.185	-0.034
-588.923	-92.415	-0.316	-0.089
-587.909	250.315	-0.209	-0.356
-586.894	-98.667	-0.132	0.034
-585.879	361.647	0.123	-0.248
-584.865	-24.047	0.052	-0.031
-583.850	800.000	0.032	0.113
-582.836	9.577	-0.333	-0.253
-581.821	-200.000	0.019	-0.574
-580.806	635.564	0.025	-0.063
-579.792	-200.000	-0.013	-0.179
-578.777	20.710	0.266	0.216
-577.763	-200.000	0.009	0.246
-576.748	-106.824	-0.172	-0.038
-575.733	800.000	0.035	0.110
-574.719	388.034	-0.139	-0.288
-573.704	-5.666	-0.142	0.098
-572.690	99.755	0.142	-0.165
-571.675	599.990	0.052	-0.131
-570.661	-172.718	0.048	0.002
-569.646	-200.000	0.015	0.350
-568.631	34.747	-0.173	-0.152
-567.617	800.000	0.101	0.280
-566.602	-9.944	0.162	-0.108
-565.588	-200.000	-0.037	0.664
-564.573	-116.624	0.016	0.003
-563.558	-145.708	0.124	0.011
-562.544	482.771	-0.046	0.106
-561.529	724.318	-0.112	-0.300
-560.515	-200.000	0.002	-0.033
-559.500	548.913	-0.099	-0.239
-558.485	-85.814	-0.233	-0.072
-557.471	26.487	-0.059	0.050
-556.456	-200.000	0.005	0.236
-555.442	-200.000	0.026	-0.147
-554.427	-2.907	0.019	0.013
-553.412	143.730	-0.025	0.033
-552.398	66.496	0.128	0.131
-551.383	-200.000	0.017	-0.099
-550.369	74.239	-0.239	-0.252
-549.354	-200.000	-0.006	0.110
-548.339	-71.938	-0.575	-0.215
-547.325	-200.000	0.023	-0.188
-546.310	25.719	0.193	-0.162
-545.296	200.497	0.074	-0.115
-544.281	-200.000	0.067	-0.487
-543.266	579.479	-0.073	0.179
-542.252	-73.384	0.114	0.042
-541.237	-76.446	0.170	-0.060
-540.223	-200.000	0.001	-0.360
-539.208	-200.000	0.068	-0.317
-538.193	-7.279	-0.097	-0.066
-537.179	112.179	-0.154	0.186
-536.164	163.205	-0.060	-0.084
-535.150	98.451	0.098	-0.113
-534.135	349.915	-0.110	0.217
-533.121	330.248	0.147	-0.285
-532.106	22.950	0.269	-0.221
-531.091	70.853	-0.241	0.251
-530.077	-200.000	0.049	-0.417
-529.062	79.191	-0.088	-0.094
-528.048	4.603	0.187	-0.138
-527.033	-121.448	0.173	0.029
-526.018	201.046	-0.098	0.151
-525.004	-200.000	0.064	-0.304
-523.989	-136.144	-0.053	0.006
-522.975	-200.000	-0.096	0.424
-521.960	211.992	0.154	0.244
-520.945	71.223	0.075	-0.078
-519.931	-78.952	-0.164	-0.056
-518.916	28.821	0.132	0.112
-517.902	-56.696	-0.276	-0.122
-516.887	-157.103	0.223	0.014
-515.872	-71.005	-0.140	-0.053
-514.858	-30.260	0.136	0.077
-513.843	-200.000	0.077	-0.458
-512.829	-32.821	0.131	-0.073
-511.814	64.067	-0.188	-0.190
-510.799	-131.716	0.193	0.025
-509.785	97.887	-0.141	-0.163
-508.770	-75.629	0.216	0.077
-507.756	-37.958	-0.281	0.150
-506.741	-200.000	-0.063	0.304
-505.726	-149.317	0.372	0.030
-504.712	226.990	0.089	0.145
-503.697	-126.311	-0.107	0.016
-502.683	292.066	-0.020	-0.037
-501.668	-200.000	0.001	0.156
-500.653	157.266	-0.045	0.063
-499.639	350.381	-0.072	-0.142
-498.624	29.052	0.034	0.029
-497.610	-95.741	0.217	-0.058
-496.595	-9.908	0.050	0.033
-495.581	-15.949	-0.078	-0.049
-494.566	-85.879	-0.403	-0.125
-493.551	-200.000	-0.014	0.126
-492.537	800.000	-0.123	0.393
-491.522	55.619	0.112	-0.109
-490.508	800.000	0.041	0.160
-489.493	48.791	0.166	-0.156
-488.478	298.078	0.060	0.111
-487.464	25.220	-0.082	-0.068
-486.449	-144.249	-0.292	0.027
-485.435	244.452	-0.068	0.115
-484.420	-39.858	0.106	-0.055
-483.405	-200.000	0.028	0.143
-482.391	800.000	-0.047	0.185
-481.376	280.537	0.094	0.169
-480.362	13.619	-0.330	0.256
-479.347	582.291	-0.072	0.177
-478.332	-35.456	-0.226	0.123
-477.318	12.001	-0.117	0.090
-476.303	-200.000	-0.064	0.373
-475.289	230.656	0.172	0.281
-474.274	-60.507	0.211	0.090
-473.259	-164.407	0.130	0.006
-472.245	-200.000	-0.019	-0.207
-471.230	-200.000	-0.025	-0.250
-470.216	54.433	-0.210	0.203
-469.201	15.930	0.116	0.092
-468.186	22.893	-0.313	0.257
-467.172	-97.548	-0.182	-0.047
-466.157	291.617	-0.089	0.162
-465.143	-128.361	0.113	-0.016
-464.128	-124.313	-0.154	0.024
-463.113	158.967	0.086	0.120
-462.099	336.039	-0.070	0.136
-461.084	252.411	-0.151	0.258
-460.070	-156.482	-0.140	0.009
-459.055	-136.169	0.253	-0.030
-458.040	-64.428	-0.065	-0.026
-457.026	-200.000	0.045	-0.296
-456.011	-91.130	-0.208	-0.060
-454.997	-200.000	-0.037	0.182
-453.982	-71.739	0.290	-0.108
-452.968	-46.731	0.308	-0.151
-451.953	118.519	-0.143	-0.176
-450.938	-200.000	0.001	-0.074
-449.924	-200.000	0.022	0.301
-448.909	-74.102	0.425	0.154
-447.895	800.000	-0.019	0.055
-446.880	-106.325	0.169	0.038
-445.865	-47.938	-0.133	0.065
-444.851	254.588	0.062	0.107
-443.836	-163.704	-0.134	-0.006
-442.822	-128.849	-0.117	-0.016
-441.807	-110.277	-0.166	-0.035
-440.792	-57.056	0.222	-0.098
-439.778	-146.014	-0.258	-0.023
-438.763	306.032	0.099	-0.184
-437.749	-114.189	0.125	-0.024
-436.734	-56.876	-0.077	0.034
-435.719	-2.145	-0.241	-0.170
-434.705	27.112	0.190	0.159
-433.690	568.472	0.133	-0.324
-432.676	65.549	-0.123	-0.124
-431.661	800.000	0.104	-0.328
-430.646	70.346	-0.217	-0.224
-429.632	-113.440	-0.160	-0.031
-428.617	800.000	-0.082	-0.266
-427.603	-134.019	-0.273	-0.034
-426.588	8.556	0.156	0.118
-425.573	-51.481	0.177	-0.083
-424.559	16.872	-0.048	-0.038
-423.544	100.119	-0.080	0.093
-422.530	-10.850	0.059	0.039
-421.515	-48.974	-0.091	-0.044
-420.500	-52.618	0.088	0.041
-419.486	-43.429	0.066	0.034
-418.471	-27.933	0.177	0.102
-417.457	-73.075	0.244	-0.089
-416.442	282.423	0.104	-0.186
-415.428	476.432	0.083	0.187
-414.413	-133.011	-0.177	-0.022
-413.398	123.953	-0.247	-0.310
-412.384	366.486	0.220	-0.443
-411.369	-200.000	0.028	-0.188
-410.355	-41.741	-0.103	0.053
-409.340	196.923	-0.094	-0.142
-408.325	0.059	0.257	0.183
-407.311	-76.962	0.064	0.022
-406.296	154.208	-0.174	0.238
-405.282	-200.000	-0.020	-0.100
-404.267	42.202	-0.178	0.162
-403.252	-103.872	0.296	0.069
-402.238	235.085	0.081	0.134
-401.223	89.051	0.163	-0.181
-400.209	-200.000	-0.008	0.121
-399.194	48.653	-0.193	0.181
-398.179	800.000	-0.095	0.351
-397.165	-73.188	-0.146	0.054
-396.150	-106.925	0.197	-0.043
-395.136	-36.825	-0.061	0.032
-394.121	-162.675	-0.215	-0.011
-393.106	-25.422	0.210	-0.124
-392.092	-62.736	0.079	-0.032
-391.077	-150.211	-0.299	-0.023
-390.063	-51.665	-0.251	-0.117
-389.048	-64.173	0.152	-0.062
-388.033	-52.459	-0.123	0.057
-387.019	-26.564	0.112	0.065
-386.004	29.942	0.154	-0.131
-384.990	-104.338	0.349	0.081
-383.975	-200.000	-0.005	0.149
-382.960	282.632	-0.115	-0.206
-381.946	-125.070	-0.382	0.059
-380.931	-200.000	-0.021	0.121
-379.917	7.609	0.103	-0.077
-378.902	29.520	0.169	-0.143
-377.888	-148.606	0.179	-0.015
-376.873	-38.400	0.214	0.113
-375.858	157.281	-0.265	0.366
-374.844	142.001	0.154	0.203
-373.829	-155.850	-0.225	0.014
-372.815	223.695	-0.236	0.380
-371.800	-9.053	0.084	0.056
-370.785	-200.000	0.000	0.126
-369.771	800.000	0.034	0.098
-368.756	-124.226	0.188	-0.029
-367.742	-94.975	-0.392	0.106
-366.727	-26.503	-0.249	-0.146
-365.712	-51.088	0.098	0.046
-364.698	-96.862	-0.163	0.043
-363.683	-78.300	-0.294	-0.101
-362.669	-48.732	-0.175	-0.084
-361.654	-37.833	-0.334	-0.177
-360.639	-200.000	-0.000	-0.043
-359.625	800.000	0.011	0.037
-358.610	-101.917	-0.438	0.106
-357.596	-200.000	-0.013	-0.189
-356.581	602.900	-0.031	0.078
-355.566	-17.287	0.264	0.166
-354.552	88.965	0.175	-0.194
-353.537	800.000	0.071	0.278
-352.523	-122.906	-0.268	-0.043
-351.508	121.576	0.167	-0.208
-350.493	-73.562	-0.165	0.060
-349.479	-200.000	0.002	-0.023
-348.464	-0.792	0.116	-0.082
-347.450	119.095	-0.135	0.167
-346.435	800.000	-0.094	0.274
-345.420	800.000	-0.017	-0.046
-344.406	-51.581	0.128	0.060
-343.391	-200.000	-0.001	0.020
-342.377	9.445	0.178	-0.134
-341.362	333.627	-0.290	-0.559
-340.348	-7.865	-0.094	0.063
-339.333	315.139	-0.041	-0.077
-338.318	-101.266	-0.014	-0.003
-337.304	-33.866	-0.078	-0.043
-336.289	-106.790	-0.089	-0.020
-335.275	-200.000	-0.008	0.257
-334.260	-102.018	-0.254	-0.061
-333.245	-100.684	0.189	0.046
-332.231	-42.318	-0.411	0.209
-331.216	-200.000	0.013	-0.072
-330.202	-200.000	-0.030	0.188
-329.187	440.112	-0.071	-0.155
-328.172	-134.375	0.371	-0.045
-327.158	56.335	0.120	-0.116
-326.143	-200.000	0.007	-0.078
-325.129	185.802	0.106	-0.158
-324.114	-99.034	0.300	0.076
-323.099	14.300	0.181	-0.141
-322.085	334.385	-0.022	-0.042
-321.070	322.179	-0.121	0.229
-320.056	-85.925	0.152	-0.047
-319.041	-200.000	0.005	0.035
-318.026	18.443	-0.087	-0.070
-317.012	-77.525	-0.049	0.017
-315.997	800.000	0.033	0.100
-314.983	800.000	0.098	0.344
-313.968	0.727	0.117	-0.083
-312.953	40.910	0.181	-0.162
-311.939	48.390	-0.086	0.080
-310.924	-156.470	-0.096	0.006
-309.910	71.187	-0.204	-0.210
-308.895	652.272	0.075	0.190
-307.880	44.984	-0.137	0.126
-306.866	-12.483	-0.177	0.115
-305.851	-26.528	0.087	0.051
-304.837	195.609	-0.109	0.165
-303.822	-200.000	0.046	-0.352
-302.807	-48.879	-0.522	-0.249
-301.793	-81.304	0.109	-0.036
-300.778	-200.000	-0.046	-0.224
-299.764	570.553	-0.142	0.343
-298.749	45.566	0.190	-0.174
-297.735	99.996	-0.270	-0.311
-296.720	62.507	-0.195	0.194
-295.705	99.929	0.127	-0.147
-294.691	258.746	0.230	0.395
-293.676	-86.049	-0.138	-0.042
-292.662	128.100	0.123	-0.156
-291.647	-11.544	0.155	0.101
-290.632	-40.063	-0.296	0.153
-289.618	-190.852	-0.207	0.002
-288.603	650.687	0.049	-0.126
-287.589	770.248	0.091	0.246
-286.574	-200.000	-0.048	-0.288
-285.559	-200.000	0.007	0.324
-284.545	393.792	-0.114	0.237
-283.530	-169.427	-0.389	-0.014
-282.516	-200.000	0.041	-0.374
-281.501	-200.000	0.018	0.170
-280.486	-80.305	0.069	-0.023
-279.472	-102.249	0.149	-0.036
-278.457	202.123	-0.129	0.198
-277.443	20.119	0.042	0.034
-276.428	-200.000	-0.023	-0.232
-275.413	207.426	-0.071	-0.109
-274.399	-200.000	0.011	0.445
-273.384	-200.000	0.010	0.130
-272.370	-29.300	-0.489	0.278
-271.355	60.705	-0.274	-0.270
-270.340	800.000	0.131	0.405
-269.326	64.145	0.137	-0.137
-268.311	-171.379	-0.247	0.008
-267.297	-200.000	0.011	0.265
-266.282	-66.044	0.309	-0.122
-265.267	800.000	-0.059	0.184
-264.253	-31.841	0.293	0.163
-263.238	252.197	-0.190	0.321
-262.224	-50.613	-0.098	-0.046
-261.209	103.810	0.167	0.195
-260.195	-200.000	0.020	0.161
-259.180	-200.000	0.043	0.239
-258.165	-144.378	0.323	-0.030
-257.151	-200.000	0.001	-0.218
-256.136	161.634	-0.201	0.279
-255.122	-34.411	0.170	0.093
-254.107	53.337	0.211	-0.201
-253.092	-200.000	-0.005	0.046
-252.078	-106.695	-0.203	-0.045
-251.063	111.261	0.102	0.122
-250.049	-200.000	0.055	0.303
-249.034	-111.267	-0.158	0.032
-248.019	800.000	0.036	0.139
-247.005	32.983	0.098	0.084
-245.990	545.472	0.078	0.184
-244.976	264.047	-0.152	0.262
-243.961	14.354	0.200	0.154
-242.946	-1.081	0.165	0.116
-241.932	87.109	-0.237	-0.260
-240.917	-200.000	-0.042	0.204
-239.903	800.000	0.054	-0.161
-238.888	-47.159	0.337	-0.163
-237.873	-25.202	-0.035	0.021
-236.859	-106.727	-0.023	-0.005
-235.844	465.902	0.064	0.142
-234.830	635.438	0.115	0.290
-233.815	-6.453	0.321	-0.217
-232.800	462.726	0.124	-0.274
-231.786	-136.321	-0.214	-0.025
-230.771	-200.000	0.014	0.062
-229.757	78.161	-0.087	-0.092
-228.742	-95.678	0.478	-0.127
-227.727	-140.626	-0.390	-0.040
-226.713	45.216	-0.119	0.108
-225.698	-23.368	-0.136	0.081
-224.684	-23.809	0.185	0.110
-223.669	151.591	0.227	0.307
-222.655	371.891	0.090	0.182
-221.640	800.000	0.033	-0.092
-220.625	67.604	-0.042	0.042
-219.611	143.996	-0.144	-0.190
-218.596	275.107	-0.060	-0.105
-217.582	-74.027	-0.317	-0.114
-216.567	800.000	-0.065	0.222
-215.552	-134.431	0.432	0.052
-214.538	302.640	0.090	0.165
-213.523	101.245	0.107	-0.123
-212.509	326.196	-0.080	0.152
-211.494	148.440	-0.080	-0.107
-210.479	266.660	0.087	-0.150
-209.465	191.606	0.192	0.287
-208.450	-84.548	0.250	-0.078
-207.436	-91.126	-0.359	-0.102
-206.421	215.231	-0.045	0.070
-205.406	18.223	0.178	-0.141
-204.392	-91.812	0.109	0.031
-203.377	-200.000	-0.047	0.322
-202.363	187.238	0.137	-0.202
-201.348	36.829	-0.131	0.115
-200.333	-66.969	0.406	0.159
-199.319	-200.000	0.007	0.083
-198.304	666.994	-0.036	0.091
-197.290	148.459	-0.235	-0.314
-196.275	-128.402	0.203	0.029
-195.260	-95.886	0.120	0.032
-194.246	-26.193	0.164	-0.096
-193.231	146.979	-0.258	-0.343
-192.217	347.031	0.042	-0.082
-191.202	614.229	0.037	-0.092
-190.187	-200.000	0.035	0.182
-189.173	64.640	-0.070	0.070
-188.158	-200.000	-0.029	-0.340
-187.144	-45.449	0.076	-0.037
-186.129	3.279	-0.206	0.149
-185.114	223.631	-0.143	-0.229
-184.100	800.000	0.044	-0.161
-183.085	-200.000	0.022	-0.211
-182.071	-106.697	-0.323	0.071
-181.056	77.524	-0.176	0.185
-180.042	-200.000	0.012	-0.265
-179.027	-199.610	-0.209	0.001
-178.012	-115.329	-0.123	-0.023
-176.998	28.865	0.172	0.144
-175.983	-125.541	0.234	-0.035
-174.969	-200.000	0.004	0.306
-173.954	63.293	-0.198	-0.197
-172.939	-88.611	0.260	0.077
-171.925	126.481	0.076	-0.095
-170.910	-200.000	-0.040	0.378
-169.896	800.000	0.051	-0.190
-168.881	-8.336	-0.144	-0.096
-167.866	212.899	-0.078	-0.122
-166.852	-39.973	-0.228	0.118
-165.837	-200.000	-0.001	-0.056
-164.823	158.952	0.187	-0.258
-163.808	149.412	0.145	-0.194
-162.793	-65.857	-0.114	0.045
-161.779	-69.004	0.242	-0.092
-160.764	-106.676	0.381	0.084
-159.750	-65.172	-0.183	-0.073
-158.735	-200.000	0.029	0.188
-157.720	-89.722	0.526	-0.152
-156.706	-95.366	-0.140	0.037
-155.691	-140.464	-0.278	0.029
-154.677	-59.521	-0.252	0.107
-153.662	164.054	-0.085	-0.119
-152.647	-70.263	0.417	0.157
-151.633	-200.000	0.044	0.368
-150.618	257.893	-0.097	-0.164
-149.604	800.000	-0.053	-0.224
-148.589	353.251	-0.031	-0.060
-147.574	-116.506	-0.140	-0.025
-146.560	-94.358	0.325	0.088
-145.545	205.273	-0.100	0.153
-144.531	102.823	0.185	-0.214
-143.516	-24.043	-0.278	-0.164
-142.502	133.398	-0.099	-0.126
-141.487	69.238	0.194	-0.197
-140.472	33.130	-0.124	0.106
-139.458	-83.088	-0.345	-0.110
-138.443	19.636	0.130	0.103
-137.429	66.525	-0.075	-0.075
-136.414	440.803	0.143	0.310
-135.399	51.385	0.095	-0.089
-134.385	-113.899	0.137	0.026
-133.370	-55.671	0.211	-0.093
-132.356	-48.959	-0.331	-0.157
-131.341	46.531	0.270	-0.247
-130.326	-21.081	-0.128	0.077
-129.312	304.220	0.045	0.083
-128.297	-200.000	-0.023	-0.541
-127.283	31.975	-0.202	-0.172
-126.268	-152.317	-0.362	-0.026
-125.253	-119.930	-0.313	0.053
-124.239	-67.684	0.212	-0.082
-123.224	235.751	-0.040	-0.066
-122.210	-114.739	0.186	-0.035
-121.195	-200.000	-0.016	-0.311
-120.180	61.851	0.063	0.062
-119.166	-35.971	0.105	-0.056
-118.151	-200.000	0.008	0.145
-117.137	223.087	-0.079	-0.126
-116.122	-47.630	0.158	-0.076
-115.107	800.000	-0.023	0.086
-114.093	-88.462	0.188	-0.056
-113.078	407.137	0.098	0.205
-112.064	-114.142	-0.474	0.090
-111.049	-200.000	-0.005	-0.088
-110.034	-200.000	0.024	-0.312
-109.020	157.606	0.195	-0.267
-108.005	-150.695	0.276	-0.021
-106.991	-55.320	0.238	-0.105
-105.976	-200.000	-0.030	-0.282
-104.962	-120.203	-0.170	-0.029
-103.947	-173.260	-0.302	0.009
-102.932	258.446	0.229	0.389
-101.918	16.530	0.266	0.207
-100.903	192.640	-0.040	-0.059
-99.889	59.378	-0.153	0.149
-98.874	-64.861	0.447	-0.178
-97.859	800.000	0.081	-0.309
-96.845	-200.000	-0.008	-0.243
-95.830	-78.832	-0.245	-0.083
-94.816	264.960	0.107	-0.184
-93.801	164.723	-0.193	0.269
-92.786	1.480	0.020	0.014
-91.772	800.000	-0.107	-0.309
-90.757	322.571	0.092	0.173
-89.743	-13.489	0.043	0.027
-88.728	-199.735	-0.225	0.001
-87.713	-17.119	-0.669	-0.416
-86.699	338.601	0.056	0.108
-85.684	-200.000	-0.005	0.079
-84.670	800.000	0.027	-0.097
-83.655	536.110	-0.053	0.125
-82.640	-63.068	-0.309	-0.126
-81.626	-154.648	0.108	-0.007
-80.611	-200.000	0.000	-0.264
-79.597	-74.174	0.193	-0.069
-78.582	-13.698	-0.090	-0.057
-77.567	-147.060	-0.178	0.015
-76.553	-70.196	0.179	0.067
-75.538	296.687	-0.044	0.079
-74.524	-28.791	0.145	0.082
-73.509	-121.971	0.104	-0.017
-72.494	-200.000	0.061	0.469
-71.480	800.000	-0.085	-0.266
-70.465	-77.251	0.270	-0.092
-69.451	-59.159	-0.124	-0.053
-68.436	-67.764	0.190	0.073
-67.422	-168.481	-0.056	0.002
-66.407	-11.515	0.340	-0.220
-65.392	243.882	0.150	-0.248
-64.378	-88.903	-0.298	-0.087
-63.363	-200.000	-0.013	0.115
-62.349	-200.000	-0.007	-0.126
-61.334	92.986	-0.706	-0.786
-60.319	31.627	0.621	0.526
-59.305	-200.000	-0.120	-0.556
-58.290	138.060	0.574	0.741
-57.276	344.488	0.800	1.547
-56.261	-200.000	95.655	577.937
-55.246	547.987	1385.235	3266.725
-54.232	157.849	2566.905	3502.807
-53.217	111.833	2167.505	2577.411
-52.203	43.532	1709.606	1539.467
-51.188	36.367	1522.516	1322.109
-50.173	34.106	1495.141	1283.055
-49.159	53.123	1543.713	1455.441
-48.144	55.185	1562.039	1486.788
-47.130	36.624	1521.139	1322.458
-46.115	33.466	1506.357	1288.124
-45.100	33.412	1502.943	1284.787
-44.086	33.279	1501.623	1282.708
-43.071	33.341	1498.831	1280.689
-42.057	33.276	1497.696	1279.233
-41.042	33.296	1496.044	1277.909
-40.027	33.326	1494.345	1276.605
-39.013	33.296	1493.533	1275.662
-37.998	33.131	1492.894	1273.950
-36.984	33.236	1491.504	1273.421
-35.969	33.282	1489.775	1272.203
-34.954	33.242	1488.185	1270.529
-33.940	33.249	1486.684	1269.244
-32.925	33.291	1485.276	1268.270
-31.911	33.333	1484.061	1267.462
-30.896	33.355	1482.748	1266.441
-29.881	33.300	1481.733	1265.153
-28.867	33.358	1479.964	1263.982
-27.852	33.363	1478.443	1262.665
-26.838	33.273	1477.790	1261.458
-25.823	33.283	1476.104	1260.036
-24.809	33.363	1473.905	1258.642
-23.794	33.289	1472.558	1256.951
-22.779	33.231	1471.760	1255.830
-21.765	33.206	1470.423	1254.474
-20.750	33.335	1469.038	1254.098
-19.736	33.275	1468.413	1253.122
-18.721	33.294	1467.401	1252.329
-17.706	33.233	1466.344	1250.978
-16.692	33.200	1464.880	1249.460
-15.677	33.201	1464.267	1248.894
-14.663	33.243	1463.257	1248.261
-13.648	33.199	1462.493	1247.265
-12.633	33.225	1461.202	1246.287
-11.619	33.228	1460.482	1245.648
-10.604	33.128	1459.909	1244.452
-9.590	33.214	1458.558	1243.811
-8.575	33.189	1457.979	1243.109
-7.560	33.230	1456.936	1242.438
-6.546	33.221	1456.333	1241.814
-5.531	33.249	1455.207	1240.991
-4.517	33.095	1454.677	1239.479
-3.502	33.226	1453.318	1239.128
-2.487	33.214	1452.025	1237.898
-1.473	33.127	1451.058	1236.456
-0.458	33.151	1449.705	1235.411
0.556	33.706	1440.157	1224.833
1.571	30.937	1415.548	1186.201
2.586	27.643	1360.601	1119.864
3.600	26.000	1282.571	1046.025
4.615	24.624	1235.599	999.930
5.629	21.178	1177.645	934.532
6.644	11.240	1090.113	815.506
7.659	3.369	1046.848	745.131
8.673	2.350	1041.377	736.268
9.688	2.076	1038.020	732.512
10.702	1.961	1036.509	730.832
11.717	1.824	1034.864	728.950
12.731	5.470	1039.685	749.780
13.746	15.514	1053.226	808.031
14.761	23.167	1063.277	852.697
15.775	25.058	1064.356	862.603
16.790	25.197	1064.341	863.182
17.804	25.214	1063.581	862.569
18.819	24.841	1062.607	859.913
19.834	24.940	1062.036	859.849
20.848	25.073	1061.740	860.172
21.863	25.051	1061.599	859.879
22.877	25.287	1060.647	860.161
23.892	25.121	1060.329	859.029
24.907	25.104	1059.682	858.348
25.921	25.051	1059.066	857.520
26.936	25.082	1058.081	856.794
27.950	25.092	1056.767	855.702
28.965	24.994	1055.987	854.528
29.980	25.019	1054.318	853.220
30.994	24.927	1052.955	851.608
32.009	25.107	1052.636	852.127
33.023	25.258	1051.730	852.038
34.038	25.001	1050.199	849.500
35.053	25.020	1049.688	849.106
36.067	25.129	1049.205	849.155
37.082	25.047	1048.383	848.026
38.096	25.138	1047.895	847.989
39.111	25.285	1047.411	848.212
40.126	25.499	1045.946	847.962
41.140	25.295	1044.858	846.043
42.155	25.110	1043.191	843.749
43.169	24.748	1042.528	841.436
44.184	24.761	1041.273	840.407
45.199	24.679	1040.693	839.482
46.213	24.726	1039.380	838.567
47.228	24.697	1039.024	838.073
48.242	24.745	1038.433	837.746
49.257	24.950	1037.563	837.926
50.271	24.992	1036.546	837.227
51.286	25.119	1036.198	837.466
52.301	25.141	1035.085	836.596
53.315	25.178	1034.594	836.298
54.330	25.214	1033.264	835.317
55.344	25.014	1033.133	834.205
56.359	25.075	1032.026	833.524
57.374	24.976	1031.110	832.248
58.388	25.121	1029.768	831.762
59.403	24.860	1029.632	830.368
60.417	24.897	1028.574	829.614
61.432	24.749	1027.796	828.229
62.447	24.746	1027.181	827.644
63.461	24.904	1026.253	827.553
64.476	24.874	1025.731	826.924
65.490	24.878	1024.847	826.155
66.505	24.723	1024.120	824.780
67.520	24.759	1023.589	824.449
68.534	24.891	1022.697	824.265
69.549	24.697	1021.631	822.437
70.563	24.528	1020.166	820.412
71.578	24.406	1019.700	819.402
72.593	24.359	1019.167	818.686
73.607	24.207	1017.623	816.676
74.622	24.263	1016.669	816.095
75.636	24.513	1016.099	816.707
76.651	24.768	1015.355	817.204
77.666	24.689	1014.685	816.230
78.680	24.393	1013.969	814.232
79.695	24.474	1013.213	813.924
80.709	24.630	1012.458	813.955
81.724	24.742	1011.945	813.982
82.739	24.618	1010.990	812.578
83.753	24.748	1010.071	812.359
84.768	25.016	1009.431	812.984
85.782	25.288	1009.027	813.822
86.797	25.377	1008.594	813.806
87.812	25.441	1007.368	813.032
88.826	25.175	1006.745	811.255
89.841	25.274	1005.272	810.444
90.855	25.372	1004.777	810.414
91.870	25.436	1004.261	810.216
92.884	25.362	1003.513	809.208
93.899	25.199	1002.568	807.640
94.914	25.114	1001.617	806.422
95.928	25.260	1000.586	806.174
96.943	25.374	999.745	805.935
97.957	25.043	998.656	803.506
98.972	24.775	997.921	801.640
99.987	24.660	996.695	800.069
101.001	24.733	996.044	799.801
102.016	24.954	995.628	800.388
103.030	25.080	994.541	800.002
104.045	25.089	993.664	799.267
105.060	24.896	992.563	797.452
106.074	24.828	991.507	796.229
107.089	24.847	990.686	795.585
108.103	25.010	990.322	795.947
109.118	25.109	989.576	795.715
110.133	24.803	988.563	793.476
111.147	24.974	987.029	792.928
112.162	24.829	986.133	791.501
113.176	24.488	985.113	789.103
114.191	24.575	984.427	788.868
115.206	24.813	983.673	789.245
116.220	24.594	982.548	787.305
117.235	24.324	981.567	785.260
118.249	24.518	981.059	785.639
119.264	24.534	980.154	784.915
120.279	24.361	979.356	783.447
121.293	24.498	978.263	783.107
122.308	24.590	977.647	782.945
123.322	24.558	977.133	782.327
124.337	24.561	975.953	781.326
125.352	24.351	974.510	779.184
126.366	23.921	973.279	776.253
127.381	23.622	971.669	773.596
128.395	24.163	971.857	776.037
129.410	24.831	971.325	778.449
130.424	25.064	970.546	778.770
131.439	25.112	969.285	777.896
132.454	24.966	968.657	776.689
133.468	25.037	967.712	776.170
134.483	25.060	966.802	775.474
135.497	25.082	966.393	775.170
136.512	25.248	965.741	775.298
137.527	25.205	965.430	774.793
138.541	25.383	964.262	774.557
139.556	25.313	963.536	773.602
140.570	25.354	962.605	772.961
141.585	25.341	962.218	772.526
142.600	25.453	961.230	772.148
143.614	25.319	960.149	770.636
144.629	25.366	959.439	770.198
145.643	25.441	959.153	770.220
146.658	25.516	957.646	769.265
147.673	25.278	956.873	767.559
148.687	25.162	956.070	766.350
149.702	25.092	954.807	764.973
150.716	24.993	953.513	763.445
151.731	25.022	952.450	762.651
152.746	25.140	952.015	762.736
153.760	25.208	951.584	762.615
154.775	25.407	950.900	762.841
155.789	25.552	949.864	762.559
156.804	25.456	949.063	761.441
157.819	25.385	948.173	760.359
158.833	25.438	947.293	759.812
159.848	25.544	946.613	759.647
160.862	25.520	946.012	758.997
161.877	25.468	944.993	757.890
162.892	25.223	944.308	756.241
163.906	25.426	943.393	756.297
164.921	25.410	942.143	755.159
165.935	25.490	941.049	754.553
166.950	25.356	940.633	753.591
167.964	25.452	939.388	752.931
168.979	25.496	938.246	752.131
169.994	25.321	937.636	750.844
171.008	25.216	936.508	749.436
172.023	25.249	936.376	749.403
173.037	25.540	935.205	749.613
174.052	25.406	933.763	747.832
175.067	25.002	933.321	745.730
176.081	25.114	932.100	745.154
177.096	25.118	931.573	744.683
178.110	25.248	930.738	744.488
179.125	25.005	929.591	742.501
180.140	24.669	928.868	740.464
181.154	24.747	927.765	739.844
182.169	24.721	928.148	739.972
183.183	25.054	927.565	740.820
184.198	25.513	926.704	741.964
185.213	25.436	926.123	741.115
186.227	25.234	925.587	739.785
187.242	25.342	925.554	740.139
188.256	25.536	924.416	739.964
189.271	25.519	923.288	738.924
190.286	25.577	922.705	738.631
191.300	25.397	922.307	737.509
192.315	24.805	920.223	733.350
193.329	24.078	918.898	729.252
194.344	23.633	917.836	726.525
195.359	24.208	918.103	729.026
196.373	24.954	918.941	732.677
197.388	25.339	918.455	733.802
198.402	25.214	917.402	732.383
199.417	25.179	916.923	731.797
200.432	25.317	916.667	732.088
201.446	25.172	915.785	730.727
202.461	25.015	915.051	729.438
203.475	24.808	914.793	728.326
204.490	24.496	912.741	725.360
205.504	23.387	911.094	719.488
206.519	23.844	910.944	721.160
207.534	24.733	911.573	725.203
208.548	24.805	910.789	724.806
209.563	25.048	910.921	725.829
210.577	25.159	909.739	725.275
211.592	25.043	908.888	724.061
212.607	25.256	909.049	724.987
213.621	25.528	908.439	725.534
214.636	25.566	907.145	724.590
215.650	25.365	907.160	723.728
216.665	25.403	906.304	723.132
217.680	25.344	906.307	722.833
218.694	25.484	905.362	722.578
219.709	25.235	904.606	720.912
220.723	24.815	903.676	718.419
221.738	25.119	903.337	719.306
222.753	25.280	902.962	719.593
223.767	25.248	901.884	718.541
224.782	25.346	901.300	718.402
225.796	25.413	900.948	718.326
226.811	25.553	900.530	718.490
227.826	25.097	899.148	715.506
228.840	24.448	897.630	711.648
229.855	24.256	896.932	710.264
230.869	24.524	896.454	710.890
231.884	24.372	895.441	709.421
232.899	24.262	895.133	708.674
233.913	24.979	895.701	711.913
234.928	25.219	895.152	712.367
235.942	25.118	894.451	711.346
236.957	25.194	893.875	711.126
237.972	24.821	892.738	708.682
238.986	24.823	891.886	707.951
240.001	24.919	891.640	708.070
241.015	24.997	890.738	707.601
242.030	25.084	890.354	707.578
243.045	25.070	890.109	707.263
244.059	25.226	889.412	707.265
245.074	25.448	888.843	707.622
246.088	25.419	888.180	706.918
247.103	25.013	887.398	704.636
248.117	25.063	886.617	704.149
249.132	25.495	886.684	705.839
250.147	25.939	886.559	707.419
251.161	26.001	886.194	707.309
252.176	26.079	885.729	707.180
253.190	26.107	884.902	706.566
254.205	26.080	884.555	706.122
255.220	26.334	883.876	706.509
256.234	26.299	883.780	706.234
257.249	26.239	882.664	705.047
258.263	26.058	882.219	703.923
259.278	26.045	881.698	703.395
260.293	26.287	881.155	703.842
261.307	26.386	880.198	703.398
262.322	26.073	879.865	701.854
263.336	25.999	879.215	700.984
264.351	25.636	877.494	698.144
265.366	24.574	875.831	692.643
266.380	23.950	875.435	689.848
267.395	24.947	875.252	693.505
268.409	25.792	875.554	696.957
269.424	25.697	875.141	696.197
270.439	25.850	874.549	696.258
271.453	25.972	873.865	696.122
272.468	25.982	873.275	695.629
273.482	26.152	873.096	696.082
274.497	26.279	872.356	695.918
275.512	26.048	871.498	694.285
276.526	25.446	870.306	690.960
277.541	25.671	869.749	691.318
278.555	26.067	869.311	692.430
279.570	25.804	868.636	690.822
280.585	25.697	867.973	689.824
281.599	25.841	867.640	690.052
282.614	25.848	867.632	690.010
283.628	25.385	866.132	686.987
284.643	25.150	865.228	685.308
285.657	25.618	865.003	686.859
286.672	25.335	864.529	685.340
287.687	24.945	863.382	682.884
288.701	25.242	863.604	684.130
289.716	25.550	863.327	685.027
290.730	25.423	861.991	683.422
291.745	25.231	861.259	682.051
292.760	25.056	860.504	680.730
293.774	24.974	859.825	679.818
294.789	25.939	860.485	683.945
295.803	26.551	860.444	686.170
296.818	26.478	860.253	685.681
297.833	26.771	859.397	686.046
298.847	26.286	858.884	683.743
299.862	26.035	857.635	681.739
300.876	26.180	857.543	682.153
301.891	26.367	857.095	682.443
302.906	26.462	856.609	682.356
303.920	26.180	855.469	680.325
304.935	26.133	854.740	679.505
305.949	26.392	854.257	680.036
306.964	26.563	853.919	680.349
307.979	26.343	853.217	678.903
308.993	26.086	852.751	677.509
310.008	26.493	852.608	678.863
311.022	26.670	852.238	679.174
312.037	26.404	851.741	677.718
313.052	26.354	850.948	676.843
314.066	26.166	849.893	675.239
315.081	25.411	849.014	671.659
316.095	24.716	847.365	667.701
317.110	25.427	847.264	670.216
318.125	26.078	848.093	673.242
319.139	25.720	847.051	671.021
320.154	24.583	844.975	665.087
321.168	24.075	844.218	662.541
322.183	24.687	844.731	665.163
323.197	25.697	844.655	668.802
324.212	26.050	844.632	670.033
325.227	26.186	844.170	670.115
326.241	26.321	843.629	670.123
327.256	26.288	843.014	669.457
328.270	26.126	842.340	668.260
329.285	25.904	841.867	667.004
330.300	25.819	841.196	666.100
331.314	25.608	840.158	664.440
332.329	25.741	839.546	664.388
333.343	26.215	839.389	665.953
334.358	26.344	839.313	666.309
335.373	26.312	838.306	665.334
336.387	26.331	838.255	665.302
337.402	26.703	837.914	666.341
338.416	26.873	837.308	666.425
339.431	26.760	836.863	665.599
340.446	26.840	836.388	665.454
341.460	27.104	835.681	665.801
342.475	27.106	834.883	665.113
343.489	26.826	834.576	663.787
344.504	26.707	833.972	662.813
345.519	27.041	833.909	663.924
346.533	27.158	833.543	664.002
347.548	27.189	832.835	663.492
348.562	27.338	832.223	663.490
349.577	27.276	831.761	662.835
350.592	27.147	831.561	662.147
351.606	27.228	830.906	661.864
352.621	27.091	830.388	660.892
353.635	27.012	829.534	659.867
354.650	27.087	829.200	659.818
355.665	26.673	828.160	657.426
356.679	25.690	826.459	652.457
357.694	25.408	826.044	651.049
358.708	26.135	826.037	653.622
359.723	26.115	825.321	652.924
360.738	26.334	825.202	653.565
361.752	26.722	825.359	655.034
362.767	26.789	824.916	654.864
363.781	27.102	824.935	655.954
364.796	27.483	824.499	656.922
365.810	27.435	824.101	656.376
366.825	27.649	823.758	656.814
367.840	27.597	823.492	656.359
368.854	27.348	823.103	655.093
369.869	26.913	821.989	652.584
370.883	26.790	821.244	651.493
371.898	26.807	821.129	651.406
372.913	26.946	819.868	650.845
373.927	26.872	819.398	650.152
374.942	26.988	818.601	649.876
375.956	27.131	818.379	650.155
376.971	27.116	818.011	649.752
377.986	27.287	817.531	649.922
379.000	27.571	817.012	650.467
380.015	27.537	816.442	649.834
381.029	27.352	815.999	648.765
382.044	27.412	815.264	648.336
383.059	27.563	814.797	648.444
384.073	27.476	814.476	647.821
385.088	27.477	813.724	647.169
386.102	27.448	813.240	646.624
387.117	27.342	812.450	645.564
388.132	27.161	811.846	644.386
389.146	27.079	811.040	643.399
390.161	26.359	810.379	640.268
391.175	26.781	809.686	641.154
392.190	27.237	809.891	642.872
393.205	27.274	809.110	642.328
394.219	26.175	807.778	637.338
395.234	24.550	805.339	629.632
396.248	23.697	804.655	626.038
397.263	24.922	805.499	630.957
398.278	26.663	806.578	637.885
399.292	26.943	807.254	639.348
400.307	26.834	806.069	637.971
401.321	26.701	805.289	636.828
402.336	26.761	805.162	636.882
403.350	27.052	805.209	637.887
404.365	27.633	804.973	639.682
405.380	28.031	804.737	640.835
406.394	28.225	804.636	641.374
407.409	28.199	804.358	641.007
408.423	28.205	803.603	640.367
409.438	28.062	803.435	639.679
410.453	28.065	802.838	639.158
411.467	28.088	802.693	639.064
412.482	28.203	801.641	638.573
413.496	27.983	801.041	637.271
414.511	28.261	800.771	637.968
415.526	28.073	800.637	637.151
416.540	28.242	800.002	637.176
417.555	28.253	799.082	636.424
418.569	27.778	798.721	634.431
419.584	27.808	798.349	634.182
420.599	27.993	797.659	634.220
421.613	110.460	1284.084	1454.857
422.628	95.208	1354.955	1454.967
