DTS Sentinel unit serial number:	SN413079Multiplexer serial number:	ORYXHardware model number:	OX4-SRSoftware version number:	ORYX F/W v4.00 Oryx Data Collector v3.7.2.0data status	okinstallation	princeton_trtdifferential loss correction	single-endedforward channel	channel 3reverse channel	N/Adate	2019/09/10time	19:46:10forward acquisition time	60.00reverse acquisition time	0.00gamma	496.2192k internal	0.2321k external	0.2321temperature offset calibration	0.9919default loss term (dB/km)	0.3790temperature slope calibration	1.0000multiplexer offset coefficient	1.0000multiplexer slope coefficient	1.0000fibre end	0.00T internal ref (°C)	33.02T ext. ref 1 (°C)	-0.32T ext. ref 2 (°C)	25.75length (m)	temperature (°C)	Stokes	anti-Stokes-747.200	-119.504	0.420	-0.074
-746.185	800.000	-0.049	0.143
-745.171	-200.000	-0.001	0.183
-744.156	-103.744	0.171	-0.040
-743.142	-41.004	-0.070	-0.036
-742.127	800.000	-0.050	0.139
-741.112	-38.343	0.189	-0.101
-740.098	-200.000	-0.066	0.367
-739.083	-114.610	0.342	-0.066
-738.069	23.244	0.125	0.104
-737.054	-16.518	-0.181	-0.116
-736.039	-1.476	-0.159	0.113
-735.025	-61.003	0.468	-0.200
-734.010	-81.922	-0.021	0.007
-732.996	382.594	-0.085	0.176
-731.981	65.676	0.180	0.184
-730.966	-200.000	-0.010	-0.154
-729.952	110.926	-0.054	-0.066
-728.937	-2.031	-0.244	-0.173
-727.923	1.901	-0.074	-0.054
-726.908	-151.619	-0.187	0.014
-725.894	190.942	-0.224	0.340
-724.879	243.192	0.213	-0.360
-723.864	728.528	-0.149	-0.402
-722.850	-101.502	-0.106	-0.026
-721.835	119.440	-0.136	0.170
-720.821	438.445	0.031	-0.068
-719.806	-200.000	-0.013	-0.206
-718.791	-119.475	-0.161	-0.028
-717.777	-161.478	0.156	0.008
-716.762	800.000	0.058	0.183
-715.748	-98.890	-0.077	0.020
-714.733	-200.000	0.030	-0.198
-713.718	146.093	-0.210	-0.284
-712.704	126.773	0.144	-0.184
-711.689	800.000	0.040	-0.172
-710.675	-123.722	-0.124	-0.020
-709.660	-54.272	0.115	0.053
-708.645	800.000	0.050	0.180
-707.631	800.000	0.086	-0.298
-706.616	-142.898	-0.454	-0.044
-705.602	9.707	0.112	0.085
-704.587	-200.000	-0.037	-0.238
-703.572	-200.000	0.036	-0.349
-702.558	-195.115	0.307	-0.002
-701.543	418.980	-0.107	0.230
-700.529	-24.923	0.124	0.074
-699.514	-74.180	-0.224	0.082
-698.499	78.566	-0.264	-0.284
-697.485	401.671	-0.021	0.045
-696.470	-57.962	0.190	-0.084
-695.456	36.897	-0.172	-0.153
-694.441	145.352	0.220	0.297
-693.426	-200.000	-0.032	0.279
-692.412	-200.000	-0.016	0.079
-691.397	128.241	0.256	0.329
-690.383	-83.406	-0.040	0.013
-689.368	252.387	0.114	-0.196
-688.354	-140.367	-0.096	0.010
-687.339	-19.753	-0.279	-0.174
-686.324	-39.990	-0.220	-0.116
-685.310	-10.525	0.345	-0.230
-684.295	181.243	0.039	-0.057
-683.281	590.038	-0.019	-0.047
-682.266	-112.343	-0.378	-0.076
-681.251	800.000	-0.073	-0.225
-680.237	-18.305	0.235	0.148
-679.222	72.721	-0.069	0.073
-678.208	-105.503	0.086	-0.020
-677.193	800.000	-0.015	0.054
-676.178	96.788	0.159	-0.183
-675.164	-118.657	-0.102	-0.018
-674.149	800.000	-0.038	0.116
-673.135	407.831	-0.097	-0.206
-672.120	800.000	-0.050	0.201
-671.105	28.623	0.264	0.225
-670.091	268.266	0.147	-0.260
-669.076	31.377	0.288	-0.249
-668.062	-171.070	0.187	0.006
-667.047	-126.433	-0.358	-0.054
-666.032	-76.769	-0.111	0.039
-665.018	-95.827	0.093	-0.025
-664.003	416.007	0.104	0.224
-662.989	-76.918	-0.197	0.070
-661.974	79.755	-0.226	0.244
-660.959	232.901	-0.106	0.175
-659.945	-0.611	-0.131	0.094
-658.930	59.091	-0.128	0.127
-657.916	-77.339	0.319	-0.112
-656.901	-200.000	-0.015	0.321
-655.886	-127.360	-0.219	-0.032
-654.872	-161.476	-0.290	-0.015
-653.857	78.278	0.191	0.206
-652.843	800.000	0.080	0.261
-651.828	61.023	-0.223	-0.223
-650.814	165.011	-0.113	-0.161
-649.799	17.736	0.190	0.152
-648.784	604.132	0.098	0.244
-647.770	-38.032	0.228	-0.122
-646.755	800.000	-0.068	0.209
-645.741	148.893	-0.177	0.241
-644.726	186.439	0.187	-0.280
-643.711	80.919	0.137	-0.149
-642.697	-147.795	0.244	0.021
-641.682	50.757	0.377	0.359
-640.668	80.221	0.039	-0.042
-639.653	112.093	0.083	-0.101
-638.638	46.387	0.178	-0.166
-637.624	76.865	-0.122	-0.130
-636.609	-133.635	0.197	-0.025
-635.595	-3.576	-0.338	0.237
-634.580	43.966	-0.175	-0.162
-633.565	-200.000	0.003	-0.196
-632.551	199.500	0.032	0.050
-631.536	206.577	-0.239	-0.374
-630.522	123.980	0.221	-0.279
-629.507	-200.000	-0.071	0.370
-628.492	159.945	0.165	-0.231
-627.478	-200.000	-0.011	-0.053
-626.463	-79.410	0.243	-0.083
-625.449	120.194	0.090	-0.112
-624.434	466.510	-0.047	0.107
-623.419	-110.805	0.095	0.020
-622.405	148.777	0.103	-0.140
-621.390	-68.176	0.142	0.056
-620.376	-200.000	0.026	-0.207
-619.361	-200.000	-0.042	-0.238
-618.346	-126.811	0.177	-0.026
-617.332	66.315	0.082	0.084
-616.317	174.777	-0.221	0.322
-615.303	-200.000	-0.023	-0.105
-614.288	-61.441	0.188	-0.080
-613.273	800.000	-0.040	0.173
-612.259	-85.938	0.055	-0.017
-611.244	800.000	-0.072	0.288
-610.230	-47.596	-0.148	-0.072
-609.215	-12.044	-0.133	-0.087
-608.201	45.763	0.198	-0.184
-607.186	50.229	-0.243	-0.231
-606.171	-26.264	-0.102	-0.060
-605.157	-35.489	0.148	-0.081
-604.142	-93.386	0.275	-0.077
-603.128	779.123	-0.044	-0.122
-602.113	-200.000	0.070	-0.516
-601.098	-200.000	0.005	-0.141
-600.084	-95.073	0.127	-0.035
-599.069	5.826	0.071	-0.053
-598.055	118.036	-0.073	-0.090
-597.040	56.654	0.090	-0.088
-596.025	-120.562	-0.055	-0.009
-595.011	-120.860	-0.287	-0.049
-593.996	-200.000	0.020	0.111
-592.982	-31.990	0.036	-0.020
-591.967	-3.194	0.108	-0.076
-590.952	-113.864	-0.062	0.012
-589.938	359.724	-0.054	-0.109
-588.923	84.831	0.202	-0.222
-587.909	800.000	0.082	0.250
-586.894	99.644	-0.228	-0.265
-585.879	-200.000	0.032	-0.458
-584.865	-200.000	0.052	-0.359
-583.850	727.114	0.056	0.151
-582.836	232.657	0.052	0.086
-581.821	-25.629	-0.111	0.066
-580.806	-165.157	-0.361	0.016
-579.792	474.163	-0.250	0.567
-578.777	47.627	-0.166	-0.155
-577.763	-200.000	-0.019	-0.210
-576.748	2.644	-0.043	-0.031
-575.733	-199.800	0.242	-0.001
-574.719	-80.361	-0.413	0.139
-573.704	-29.014	0.166	-0.096
-572.690	-72.250	0.159	-0.059
-571.675	297.235	0.064	-0.118
-570.661	-92.011	-0.312	0.089
-569.646	35.321	-0.237	-0.208
-568.631	-22.188	0.118	-0.072
-567.617	209.743	-0.098	0.154
-566.602	-154.605	0.283	-0.019
-565.588	81.694	-0.219	-0.237
-564.573	-26.432	-0.228	0.134
-563.558	40.023	-0.128	0.115
-562.544	275.465	-0.174	0.310
-561.529	-135.596	0.292	0.035
-560.515	-200.000	-0.039	-0.312
-559.500	24.422	0.074	-0.062
-558.485	-120.373	0.143	0.024
-557.471	-200.000	-0.027	-0.182
-556.456	54.184	-0.156	0.151
-555.442	-100.271	-0.193	0.048
-554.427	-129.501	-0.261	0.036
-553.412	221.610	0.186	-0.299
-552.398	-27.635	-0.110	0.064
-551.383	441.639	-0.071	0.155
-550.369	-200.000	0.018	0.095
-549.354	16.364	0.117	-0.093
-548.339	-200.000	-0.019	-0.237
-547.325	50.983	-0.184	-0.174
-546.310	-200.000	0.049	0.234
-545.296	-14.568	0.065	0.042
-544.281	-200.000	-0.028	0.206
-543.266	185.356	-0.115	-0.171
-542.252	-47.207	0.175	0.086
-541.237	-158.194	0.141	0.008
-540.223	-1.419	-0.177	-0.125
-539.208	-25.554	0.186	0.110
-538.193	-200.000	0.019	-0.110
-537.179	800.000	0.012	-0.050
-536.164	-124.114	-0.136	0.021
-535.150	130.372	-0.267	0.343
-534.135	202.329	0.122	-0.189
-533.121	-6.668	0.091	-0.062
-532.106	-200.000	0.033	-0.219
-531.091	122.496	0.209	0.262
-530.077	271.636	0.164	0.289
-529.062	-200.000	-0.032	-0.165
-528.048	477.544	0.098	0.222
-527.033	-83.923	-0.153	-0.049
-526.018	-200.000	-0.009	-0.105
-525.004	89.035	-0.219	-0.245
-523.989	-200.000	0.010	-0.055
-522.975	-200.000	0.031	-0.279
-521.960	800.000	-0.028	-0.109
-520.945	671.993	-0.084	0.218
-519.931	329.712	0.050	0.096
-518.916	-44.092	0.099	-0.050
-517.902	131.513	-0.064	0.083
-516.887	-38.825	-0.103	0.055
-515.872	58.115	-0.189	-0.185
-514.858	-103.331	-0.055	0.013
-513.843	114.290	-0.088	-0.107
-512.829	113.826	-0.169	0.205
-511.814	16.677	-0.044	0.035
-510.799	-152.796	-0.093	0.007
-509.785	-17.579	0.153	-0.096
-508.770	52.222	-0.181	-0.172
-507.756	4.820	-0.317	0.233
-506.741	32.715	0.147	0.127
-505.726	42.578	0.092	0.084
-504.712	-182.775	-0.387	-0.007
-503.697	800.000	0.076	0.261
-502.683	-8.412	0.123	0.083
-501.668	-21.657	0.106	0.065
-500.653	800.000	-0.131	0.381
-499.639	-200.000	-0.007	0.295
-498.624	-200.000	-0.058	0.393
-497.610	-200.000	0.003	0.197
-496.595	-200.000	0.009	-0.095
-495.581	-200.000	0.003	0.071
-494.566	-120.073	-0.378	-0.065
-493.551	-200.000	0.024	0.235
-492.537	612.053	-0.180	-0.450
-491.522	78.918	0.156	-0.167
-490.508	114.469	-0.134	-0.163
-489.493	-107.014	-0.031	-0.007
-488.478	-200.000	0.024	-0.265
-487.464	194.650	-0.065	-0.099
-486.449	-99.536	-0.037	0.009
-485.435	89.326	0.100	0.112
-484.420	-69.275	0.110	-0.042
-483.405	-97.855	-0.108	-0.028
-482.391	134.021	-0.065	0.084
-481.376	67.044	-0.063	-0.064
-480.362	-82.116	-0.124	-0.040
-479.347	-90.241	0.383	0.111
-478.332	-200.000	0.006	0.195
-477.318	800.000	-0.032	0.130
-476.303	198.607	0.135	0.207
-475.289	493.698	-0.079	0.180
-474.274	97.381	0.129	0.148
-473.259	647.766	0.151	-0.385
-472.245	-200.000	-0.001	-0.169
-471.230	781.668	0.112	0.307
-470.216	56.028	0.114	0.110
-469.201	-8.785	0.182	-0.122
-468.186	18.899	0.196	0.157
-467.172	-99.053	-0.477	-0.121
-466.157	-98.773	0.170	-0.043
-465.143	0.538	-0.053	0.038
-464.128	800.000	0.030	-0.089
-463.113	290.761	-0.122	0.222
-462.099	-88.894	-0.271	-0.080
-461.084	108.691	-0.139	-0.166
-460.070	285.511	0.022	-0.040
-459.055	227.952	-0.049	-0.080
-458.040	-67.897	0.262	-0.102
-457.026	-65.941	-0.147	0.059
-456.011	-154.254	0.298	-0.020
-454.997	-11.221	0.169	0.111
-453.982	-46.664	-0.225	-0.110
-452.968	-20.324	-0.318	-0.196
-451.953	252.096	0.094	0.160
-450.938	20.164	-0.350	-0.282
-449.924	-112.655	-0.244	0.049
-448.909	-200.000	-0.001	0.281
-447.895	-117.263	0.147	0.027
-446.880	-164.595	0.127	-0.006
-445.865	132.515	0.122	0.157
-444.851	-200.000	0.009	-0.313
-443.836	-200.000	0.039	-0.207
-442.822	-200.000	-0.022	0.221
-441.807	-82.594	0.230	-0.074
-440.792	-143.018	-0.100	0.010
-439.778	-30.164	-0.067	-0.038
-438.763	456.642	0.023	-0.050
-437.749	787.242	-0.051	0.140
-436.734	-145.345	-0.146	-0.013
-435.719	39.685	-0.176	-0.158
-434.705	800.000	0.063	-0.217
-433.690	-11.924	-0.150	0.098
-432.676	52.975	-0.072	-0.069
-431.661	-13.835	-0.043	0.028
-430.646	800.000	0.075	-0.279
-429.632	94.272	0.120	0.136
-428.617	800.000	-0.034	-0.114
-427.603	75.662	0.212	-0.223
-426.588	800.000	0.056	0.227
-425.573	237.215	-0.169	-0.279
-424.559	-122.129	-0.263	0.043
-423.544	260.111	0.042	0.073
-422.530	-200.000	-0.002	-0.177
-421.515	-33.877	-0.135	-0.074
-420.500	-200.000	-0.022	-0.121
-419.486	640.373	0.057	0.145
-418.471	-200.000	0.010	-0.207
-417.457	199.009	0.047	-0.071
-416.442	83.139	-0.145	-0.158
-415.428	800.000	0.027	-0.076
-414.413	-174.474	0.041	-0.001
-413.398	-200.000	-0.018	-0.218
-412.384	-97.708	-0.247	-0.064
-411.369	238.332	-0.163	-0.270
-410.355	-40.003	0.370	0.193
-409.340	-176.401	-0.191	-0.005
-408.325	58.506	0.165	-0.161
-407.311	-183.734	-0.090	-0.002
-406.296	211.187	-0.045	-0.070
-405.282	-200.000	-0.006	-0.028
-404.267	800.000	0.052	-0.151
-403.252	-200.000	0.021	-0.163
-402.238	-140.184	-0.061	0.006
-401.223	20.719	-0.174	0.141
-400.209	260.151	0.079	-0.136
-399.194	800.000	0.068	0.245
-398.179	-200.000	0.050	0.309
-397.165	-200.000	0.052	0.247
-396.150	-101.021	0.310	-0.076
-395.136	293.647	-0.113	0.205
-394.121	800.000	0.023	0.078
-393.106	167.656	-0.104	-0.148
-392.092	-200.000	0.017	0.257
-391.077	-104.873	-0.201	0.046
-390.063	-200.000	-0.033	0.149
-389.048	-200.000	0.033	-0.164
-388.033	-58.531	0.144	-0.062
-387.019	352.283	0.050	0.099
-386.004	-67.937	-0.330	-0.128
-384.990	-81.599	0.172	-0.056
-383.975	-73.514	0.255	0.093
-382.960	217.855	-0.119	0.189
-381.946	59.282	-0.281	0.276
-380.931	497.079	-0.037	-0.085
-379.917	-200.000	0.021	-0.115
-378.902	-42.718	0.076	0.038
-377.888	555.361	-0.055	0.133
-376.873	-35.675	-0.268	0.145
-375.858	-135.504	-0.263	-0.031
-374.844	800.000	0.063	-0.175
-373.829	800.000	0.059	-0.191
-372.815	62.347	0.219	-0.218
-371.800	73.978	0.296	-0.309
-370.785	-200.000	0.064	-0.380
-369.771	-68.756	0.280	0.108
-368.756	800.000	0.039	-0.121
-367.742	-57.855	0.267	0.116
-366.727	115.598	-0.133	0.162
-365.712	19.480	0.196	-0.157
-364.698	249.709	0.047	0.080
-363.683	-58.335	-0.328	0.142
-362.669	-163.609	0.250	-0.012
-361.654	-102.355	0.227	-0.054
-360.639	-1.418	-0.175	-0.123
-359.625	-39.917	-0.162	-0.084
-358.610	103.103	-0.040	-0.047
-357.596	131.417	0.047	0.060
-356.581	-14.789	-0.309	-0.197
-355.566	76.911	-0.215	-0.227
-354.552	322.095	0.146	-0.277
-353.537	-200.000	0.041	0.466
-352.523	30.514	0.235	0.200
-351.508	3.697	-0.198	-0.144
-350.493	100.170	-0.229	0.265
-349.479	-77.192	-0.273	-0.094
-348.464	-98.187	0.359	0.092
-347.450	-110.291	0.107	0.022
-346.435	86.680	0.179	0.197
-345.420	800.000	0.031	-0.105
-344.406	254.695	-0.084	0.143
-343.391	69.378	0.215	-0.220
-342.377	74.778	0.172	-0.180
-341.362	-3.466	0.160	-0.111
-340.348	42.889	0.166	-0.150
-339.333	76.253	0.103	0.108
-338.318	800.000	-0.062	0.256
-337.304	196.657	0.126	0.191
-336.289	-0.601	0.154	0.108
-335.275	-200.000	-0.045	-0.209
-334.260	-95.606	-0.287	0.076
-333.245	-31.264	-0.328	-0.184
-332.231	-200.000	0.030	-0.211
-331.216	137.707	-0.205	0.267
-330.202	-91.235	0.235	-0.067
-329.187	-82.463	-0.293	0.095
-328.172	177.771	-0.135	0.195
-327.158	-19.040	-0.198	0.123
-326.143	228.014	0.103	-0.166
-325.129	46.863	0.104	-0.096
-324.114	52.323	0.037	0.035
-323.099	-98.635	0.271	0.069
-322.085	-200.000	-0.003	0.203
-321.070	-89.937	0.305	-0.089
-320.056	0.831	0.070	0.050
-319.041	-142.026	-0.150	-0.015
-318.026	-45.216	0.309	0.153
-317.012	-200.000	0.047	0.244
-315.997	-12.297	-0.239	0.155
-314.983	-24.930	-0.055	-0.033
-313.968	-45.425	0.284	0.140
-312.953	233.852	-0.036	-0.058
-311.939	184.225	-0.017	-0.025
-310.924	-143.402	0.326	-0.031
-309.910	800.000	-0.066	-0.230
-308.895	233.352	-0.115	-0.187
-307.880	-102.004	-0.217	0.052
-306.866	-200.000	-0.034	0.179
-305.851	101.817	-0.149	-0.173
-304.837	255.381	-0.110	0.187
-303.822	-200.000	-0.005	0.073
-302.807	-200.000	0.043	0.323
-301.793	-94.094	0.240	-0.065
-300.778	800.000	0.033	-0.119
-299.764	-59.636	-0.464	0.198
-298.749	-126.049	0.126	-0.019
-297.735	-87.122	0.180	0.054
-296.720	287.150	0.060	0.107
-295.705	133.923	-0.035	-0.045
-294.691	-124.410	0.219	0.034
-293.676	-141.824	-0.388	-0.039
-292.662	-52.604	-0.345	-0.158
-291.647	535.410	-0.126	-0.296
-290.632	800.000	-0.052	0.145
-289.618	-75.083	0.074	0.026
-288.603	-68.977	0.132	0.051
-287.589	-200.000	-0.024	0.196
-286.574	-200.000	-0.008	0.088
-285.559	32.177	-0.079	0.068
-284.545	3.464	-0.117	0.085
-283.530	571.265	0.111	-0.269
-282.516	34.528	0.028	-0.025
-281.501	547.624	0.121	-0.288
-280.486	-100.687	-0.350	-0.086
-279.472	-48.430	0.077	0.037
-278.457	170.836	-0.061	0.086
-277.443	484.496	-0.044	0.100
-276.428	-111.099	0.161	0.033
-275.413	-99.962	-0.181	-0.045
-274.399	79.902	0.270	-0.288
-273.384	101.523	0.190	0.220
-272.370	-200.000	0.054	0.311
-271.355	-18.732	-0.188	0.116
-270.340	800.000	0.046	-0.164
-269.326	148.676	-0.247	0.331
-268.311	-200.000	0.017	0.077
-267.297	276.117	-0.109	-0.192
-266.282	-102.553	0.103	-0.024
-265.267	-9.965	-0.094	0.062
-264.253	-200.000	-0.078	0.368
-263.238	-200.000	-0.019	0.203
-262.224	-200.000	-0.024	0.175
-261.209	-125.840	0.170	0.025
-260.195	29.818	-0.202	-0.171
-259.180	-80.460	-0.128	-0.042
-258.165	-82.896	0.360	-0.115
-257.151	-200.000	-0.023	0.154
-256.136	-60.131	0.148	0.063
-255.122	160.807	0.084	-0.116
-254.107	68.668	-0.182	-0.185
-253.092	-46.292	-0.141	-0.069
-252.078	51.865	0.088	-0.083
-251.063	249.982	0.025	-0.042
-250.049	-73.245	0.236	-0.086
-249.034	91.691	-0.154	0.172
-248.019	98.104	0.099	-0.113
-247.005	103.211	0.079	-0.092
-245.990	28.993	0.202	0.170
-244.976	-48.702	0.105	0.050
-243.961	-200.000	0.046	-0.259
-242.946	-200.000	-0.008	0.176
-241.932	78.272	-0.060	0.064
-240.917	158.514	-0.034	-0.047
-239.903	-200.000	0.025	0.363
-238.888	-186.816	-0.158	0.002
-237.873	449.037	0.128	0.280
-236.859	102.282	0.084	0.097
-235.844	-200.000	-0.036	-0.320
-234.830	-15.125	-0.188	0.119
-233.815	-79.801	0.258	0.086
-232.800	-200.000	0.024	-0.174
-231.786	78.727	-0.258	0.274
-230.771	174.808	-0.095	0.136
-229.757	-200.000	-0.025	-0.226
-228.742	-200.000	-0.003	0.150
-227.727	-77.271	0.239	0.082
-226.713	-172.692	0.080	0.002
-225.698	773.245	0.037	-0.099
-224.684	-111.992	0.307	-0.061
-223.669	-62.182	-0.222	-0.092
-222.655	-30.452	-0.059	0.033
-221.640	-92.611	-0.193	-0.054
-220.625	-53.098	0.199	0.091
-219.611	-4.759	-0.119	-0.081
-218.596	-112.121	-0.127	-0.025
-217.582	-68.797	0.346	-0.132
-216.567	277.807	0.066	-0.116
-215.552	448.767	0.139	-0.304
-214.538	36.840	-0.103	0.090
-213.523	-200.000	-0.005	0.055
-212.509	-42.423	0.275	0.139
-211.494	-17.510	-0.037	-0.023
-210.479	-200.000	0.011	0.202
-209.465	-200.000	0.139	0.000
-208.450	-108.800	0.151	-0.032
-207.436	-200.000	0.059	-0.262
-206.421	186.578	-0.038	0.056
-205.406	-122.858	-0.417	0.067
-204.392	57.463	0.130	-0.125
-203.377	434.324	0.243	0.523
-202.363	197.755	0.096	0.146
-201.348	773.198	-0.033	-0.089
-200.333	-133.969	-0.192	0.024
-199.319	-128.718	0.406	-0.057
-198.304	420.115	-0.127	0.270
-197.290	800.000	0.046	-0.148
-196.275	-35.118	-0.088	0.047
-195.260	339.610	0.063	0.121
-194.246	800.000	0.015	0.059
-193.231	-131.632	0.189	-0.025
-192.217	800.000	0.094	0.328
-191.202	-9.262	0.138	0.091
-190.187	-200.000	-0.034	0.430
-189.173	223.315	-0.213	0.340
-188.158	-48.318	0.217	0.103
-187.144	-95.753	-0.044	0.012
-186.129	-80.402	-0.126	0.042
-185.114	-200.000	0.015	0.123
-184.100	-80.842	0.185	0.061
-183.085	-185.928	0.221	-0.003
-182.071	23.375	0.151	-0.122
-181.056	41.536	-0.184	0.165
-180.042	-50.095	0.126	-0.059
-179.027	589.576	-0.100	0.243
-178.012	33.765	-0.044	0.038
-176.998	72.562	-0.164	-0.169
-175.983	506.525	-0.037	-0.084
-174.969	-17.835	-0.041	-0.026
-173.954	149.556	0.136	0.182
-172.939	70.944	0.091	-0.093
-171.925	-200.000	0.032	-0.240
-170.910	-126.818	0.129	0.019
-169.896	137.458	-0.082	-0.106
-168.881	-200.000	0.000	0.071
-167.866	56.803	0.121	0.117
-166.852	800.000	-0.122	-0.382
-165.837	-71.179	-0.340	0.126
-164.823	-7.451	-0.143	-0.096
-163.808	-31.267	0.068	-0.038
-162.793	-139.685	0.158	0.017
-161.779	-65.110	-0.319	0.127
-160.764	442.001	-0.072	-0.155
-159.750	207.570	-0.095	0.146
-158.735	232.236	0.109	-0.176
-157.720	37.197	0.068	0.060
-156.706	-200.000	0.039	0.284
-155.691	-16.377	-0.187	-0.117
-154.677	-30.234	0.221	0.124
-153.662	31.711	-0.196	-0.166
-152.647	417.213	0.065	0.137
-151.633	-200.000	0.002	-0.042
-150.618	800.000	0.038	0.111
-149.604	-30.732	-0.034	-0.019
-148.589	-200.000	-0.030	0.310
-147.574	-17.082	0.330	0.206
-146.560	68.054	0.310	-0.313
-145.545	-82.133	-0.037	-0.012
-144.531	-131.953	-0.158	-0.020
-143.516	-114.298	0.381	-0.073
-142.502	800.000	0.113	0.346
-141.487	-148.038	0.162	-0.013
-140.472	-200.000	-0.013	0.533
-139.458	-24.280	0.099	-0.058
-138.443	284.816	-0.196	-0.348
-137.429	-200.000	-0.016	0.174
-136.414	-150.461	-0.397	-0.030
-135.399	348.625	-0.057	-0.111
-134.385	-10.196	-0.213	-0.139
-133.370	-18.294	0.236	0.146
-132.356	-141.971	0.152	0.015
-131.341	-200.000	-0.049	0.419
-130.326	-200.000	-0.008	0.144
-129.312	-104.737	-0.095	0.021
-128.297	-28.719	-0.084	-0.048
-127.283	33.789	-0.147	0.126
-126.268	128.594	-0.267	0.336
-125.253	-200.000	0.008	-0.043
-124.239	-200.000	0.046	-0.359
-123.224	-27.462	0.102	0.058
-122.210	-200.000	-0.050	0.394
-121.195	-7.164	0.345	0.231
-120.180	-128.535	-0.380	0.053
-119.166	69.020	0.163	-0.165
-118.151	546.073	-0.155	0.365
-117.137	-99.848	0.029	0.007
-116.122	-200.000	0.002	-0.016
-115.107	-200.000	-0.025	-0.130
-114.093	15.496	0.030	0.023
-113.078	-134.959	0.251	-0.030
-112.064	199.162	0.185	-0.280
-111.049	-116.011	0.182	-0.033
-110.034	-15.681	-0.218	-0.137
-109.020	-20.960	0.264	-0.160
-108.005	645.101	0.043	-0.107
-106.991	-39.009	0.526	-0.273
-105.976	800.000	0.132	-0.387
-104.962	402.406	0.130	-0.270
-103.947	362.931	-0.102	0.202
-102.932	87.844	0.458	-0.500
-101.918	89.052	0.086	-0.095
-100.903	16.958	-0.220	0.172
-99.889	-162.881	0.411	-0.020
-98.874	235.534	0.085	-0.139
-97.859	39.900	0.214	-0.189
-96.845	-81.150	0.080	0.026
-95.830	800.000	0.020	0.062
-94.816	229.856	0.193	-0.310
-93.801	-200.000	-0.028	0.000
-92.786	-200.000	-0.027	0.320
-91.772	800.000	-0.015	0.057
-90.757	77.818	-0.180	0.189
-89.743	800.000	-0.052	0.176
-88.728	-200.000	-0.019	-0.420
-87.713	325.236	0.086	0.161
-86.699	-200.000	-0.020	-0.233
-85.684	-151.062	0.389	0.029
-84.670	-75.719	-0.289	-0.101
-83.655	104.073	-0.189	0.219
-82.640	-54.954	0.303	-0.134
-81.626	-3.210	-0.233	0.160
-80.611	136.797	0.145	0.187
-79.597	263.241	-0.049	-0.085
-78.582	35.312	0.166	0.143
-77.567	-200.000	-0.041	0.207
-76.553	-133.277	0.250	0.031
-75.538	-146.909	-0.069	0.006
-74.524	54.058	0.325	0.308
-73.509	-170.459	0.116	-0.004
-72.494	-120.886	0.167	0.028
-71.480	800.000	0.056	0.205
-70.465	-15.103	0.118	-0.074
-69.451	-200.000	0.046	0.218
-68.436	-200.000	0.015	-0.101
-67.422	192.838	-0.049	0.073
-66.407	-200.000	0.069	-0.302
-65.392	12.401	-0.164	0.124
-64.378	-200.000	-0.001	-0.082
-63.363	53.425	0.265	0.250
-62.349	800.000	0.075	-0.242
-61.334	37.695	-0.992	-0.867
-60.319	48.688	0.639	0.589
-59.305	715.188	-0.289	-0.753
-58.290	163.929	0.741	1.026
-57.276	498.231	0.706	1.599
-56.261	-200.000	101.049	616.292
-55.246	595.775	1431.273	3485.003
-54.232	184.992	2631.495	3839.631
-53.217	115.404	2188.074	2629.586
-52.203	43.142	1723.086	1546.683
-51.188	36.104	1536.809	1331.036
-50.173	33.774	1510.002	1291.936
-49.159	52.899	1561.944	1469.256
-48.144	54.418	1579.461	1496.195
-47.130	36.421	1535.852	1332.185
-46.115	33.319	1520.456	1297.553
-45.100	33.113	1517.315	1293.413
-44.086	33.124	1515.692	1292.056
-43.071	33.023	1514.251	1290.085
-42.057	32.936	1513.011	1288.380
-41.042	33.095	1511.029	1287.723
-40.027	33.114	1509.880	1286.827
-39.013	32.961	1508.574	1284.622
-37.998	33.043	1507.480	1284.198
-36.984	33.048	1505.931	1282.856
-35.969	32.965	1505.264	1281.676
-34.954	32.982	1503.746	1280.450
-33.940	33.054	1501.692	1279.132
-32.925	33.123	1500.217	1278.294
-31.911	33.046	1499.717	1277.296
-30.896	33.094	1497.781	1275.925
-29.881	33.166	1496.059	1274.893
-28.867	33.032	1495.124	1273.141
-27.852	33.041	1493.761	1271.992
-26.838	33.088	1491.820	1270.601
-25.823	32.941	1491.189	1269.029
-24.809	33.120	1489.058	1268.362
-23.794	33.065	1487.734	1266.815
-22.779	33.041	1486.289	1265.375
-21.765	33.065	1485.375	1264.709
-20.750	32.922	1484.592	1263.034
-19.736	33.004	1483.495	1262.598
-18.721	33.074	1482.170	1261.889
-17.706	33.088	1480.924	1260.868
-16.692	33.032	1480.111	1259.758
-15.677	33.007	1479.155	1258.724
-14.663	33.050	1478.462	1258.369
-13.648	32.887	1477.749	1256.631
-12.633	32.957	1476.420	1255.915
-11.619	32.941	1475.850	1255.273
-10.604	32.990	1474.652	1254.533
-9.590	32.956	1473.797	1253.531
-8.575	33.015	1472.867	1253.079
-7.560	33.072	1471.786	1252.491
-6.546	32.950	1471.492	1251.379
-5.531	32.950	1470.812	1250.748
-4.517	32.917	1469.591	1249.445
-3.502	32.889	1468.168	1248.002
-2.487	32.925	1467.516	1247.636
-1.473	33.013	1466.146	1246.998
-0.458	32.976	1464.857	1245.610
0.556	30.477	1455.056	1232.722
1.571	27.265	1428.702	1189.319
2.586	23.534	1366.554	1114.100
3.600	21.641	1284.333	1035.796
4.615	20.498	1239.068	992.676
5.629	17.649	1183.562	932.553
6.644	8.574	1097.384	818.336
7.659	1.027	1055.588	749.847
8.673	-0.243	1050.350	739.804
9.688	-0.273	1047.073	737.280
10.702	-0.419	1045.120	735.124
11.717	-0.335	1042.945	733.943
12.731	2.966	1046.938	752.878
13.746	12.136	1059.834	807.405
14.761	18.211	1067.297	843.049
15.775	18.523	1067.363	844.562
16.790	18.373	1066.311	842.917
17.804	18.197	1065.049	840.977
18.819	17.986	1064.194	839.190
19.834	18.079	1063.859	839.310
20.848	18.029	1063.684	838.850
21.863	17.990	1062.951	838.011
22.877	17.850	1062.659	837.016
23.892	18.030	1061.616	837.002
24.907	17.914	1060.853	835.761
25.921	17.901	1060.396	835.262
26.936	17.906	1059.896	834.821
27.950	17.993	1058.201	833.837
28.965	17.931	1056.870	832.414
29.980	17.808	1055.596	830.735
30.994	17.946	1053.475	829.665
32.009	18.035	1052.774	829.470
33.023	18.065	1052.131	829.033
34.038	17.758	1051.224	826.759
35.053	17.687	1050.620	825.865
36.067	17.979	1049.548	826.364
37.082	18.121	1048.309	826.000
38.096	18.002	1047.758	824.920
39.111	18.161	1047.529	825.436
40.126	18.290	1045.904	824.701
41.140	18.305	1044.567	823.645
42.155	18.096	1043.422	821.667
43.169	17.763	1042.403	819.191
44.184	17.782	1041.173	818.245
45.199	17.753	1040.353	817.388
46.213	17.770	1038.945	816.294
47.228	17.646	1037.979	814.869
48.242	17.789	1037.253	814.910
49.257	17.702	1036.466	813.802
50.271	17.876	1035.269	813.619
51.286	17.958	1034.567	813.386
52.301	18.005	1033.440	812.653
53.315	17.931	1032.603	811.573
54.330	18.018	1031.379	810.953
55.344	17.877	1030.911	809.840
56.359	18.008	1030.141	809.787
57.374	18.113	1028.713	809.091
58.388	17.966	1027.840	807.635
59.403	17.848	1027.439	806.694
60.417	17.905	1026.794	806.384
61.432	17.717	1025.450	804.368
62.447	17.730	1024.823	803.868
63.461	17.862	1024.277	803.988
64.476	17.952	1023.243	803.529
65.490	17.927	1022.024	802.385
66.505	17.814	1021.123	801.076
67.520	17.825	1020.487	800.558
68.534	17.916	1019.493	800.133
69.549	17.849	1018.502	798.972
70.563	17.624	1017.421	797.001
71.578	17.535	1016.693	795.943
72.593	17.548	1016.120	795.483
73.607	17.533	1014.431	794.025
74.622	17.443	1013.994	793.192
75.636	17.731	1012.993	793.681
76.651	17.860	1012.059	793.477
77.666	17.778	1011.008	792.201
78.680	17.705	1010.488	791.384
79.695	17.683	1009.918	790.767
80.709	17.726	1009.171	790.313
81.724	17.876	1008.004	790.020
82.739	17.770	1007.452	789.031
83.753	17.712	1006.646	788.059
84.768	18.021	1005.727	788.696
85.782	18.200	1005.136	788.991
86.797	18.244	1004.191	788.379
87.812	18.034	1003.686	786.949
88.826	18.017	1002.383	785.777
89.841	18.054	1001.495	785.181
90.855	18.063	1001.010	784.775
91.870	18.040	1000.578	784.262
92.884	18.233	999.211	784.006
93.899	18.183	998.091	782.827
94.914	18.039	997.583	781.702
95.928	18.135	996.596	781.297
96.943	18.245	995.785	781.094
97.957	18.018	994.568	779.037
98.972	17.746	993.620	776.983
99.987	17.521	992.615	775.107
101.001	17.675	991.848	775.140
102.016	17.889	991.321	775.630
103.030	17.975	990.619	775.403
104.045	17.782	989.475	773.566
105.060	17.711	988.289	772.249
106.074	17.621	986.792	770.602
107.089	17.542	986.415	769.884
108.103	17.993	986.299	771.764
109.118	18.131	985.174	771.438
110.133	17.926	983.854	769.410
111.147	17.983	983.299	769.167
112.162	17.973	981.714	767.813
113.176	17.702	980.577	765.638
114.191	17.724	980.230	765.399
115.206	17.958	978.551	765.068
116.220	17.508	977.966	762.528
117.235	17.496	976.528	761.285
118.249	17.630	976.040	761.437
119.264	17.741	975.150	761.172
120.279	17.624	973.934	759.633
121.293	17.551	973.579	758.963
122.308	17.806	972.242	758.987
123.322	17.745	972.012	758.470
124.337	17.715	970.633	757.192
125.352	17.687	969.103	755.809
126.366	17.247	967.227	752.333
127.381	17.004	965.914	750.168
128.395	17.593	965.129	752.096
129.410	17.945	965.104	753.562
130.424	18.227	963.851	753.758
131.439	18.244	962.366	752.606
132.454	18.047	961.713	751.163
133.468	18.045	960.696	750.294
134.483	18.001	960.159	749.613
135.497	18.006	959.676	749.194
136.512	18.238	958.849	749.500
137.527	18.210	958.457	749.004
138.541	18.099	957.218	747.483
139.556	18.206	956.321	747.185
140.570	18.302	955.404	746.818
141.585	18.243	954.599	745.866
142.600	18.169	954.222	745.185
143.614	18.175	952.844	744.068
144.629	18.231	952.054	743.628
145.643	18.505	951.404	744.245
146.658	18.380	950.320	742.790
147.673	18.388	949.262	741.931
148.687	18.092	948.270	739.810
149.702	18.145	947.385	739.283
150.716	18.092	946.285	738.132
151.731	18.089	945.451	737.404
152.746	18.124	944.485	736.736
153.760	18.218	943.883	736.605
154.775	18.382	943.224	736.731
155.789	18.380	942.674	736.228
156.804	18.286	941.967	735.205
157.819	18.288	940.275	733.828
158.833	18.265	939.910	733.381
159.848	18.505	938.845	733.511
160.862	18.388	938.211	732.449
161.877	18.259	937.224	731.064
162.892	18.262	936.668	730.579
163.906	18.657	935.435	731.234
164.921	18.427	934.894	729.768
165.935	18.349	933.536	728.314
166.950	18.487	932.714	728.192
167.964	18.424	931.606	726.997
168.979	18.398	930.517	725.973
169.994	18.202	929.741	724.471
171.008	18.253	928.351	723.543
172.023	18.369	927.805	723.542
173.037	18.352	926.892	722.696
174.052	18.210	925.447	720.906
175.067	17.998	924.894	719.519
176.081	18.113	924.047	719.281
177.096	18.320	923.345	719.537
178.110	18.411	922.248	719.003
179.125	18.174	921.313	717.215
180.140	17.935	919.921	715.067
181.154	18.076	919.079	714.940
182.169	17.901	918.856	713.971
183.183	18.091	918.589	714.494
184.198	18.464	918.039	715.563
185.213	18.277	917.511	714.308
186.227	18.370	916.530	713.868
187.242	18.301	916.331	713.362
188.256	18.332	915.483	712.767
189.271	18.392	914.281	712.019
190.286	18.476	913.276	711.521
191.300	18.380	912.835	710.717
192.315	18.007	911.602	708.149
193.329	17.490	909.839	704.576
194.344	16.985	909.149	701.892
195.359	17.468	909.464	704.070
196.373	18.246	909.336	707.124
197.388	18.389	909.257	707.594
198.402	18.270	908.029	706.082
199.417	18.176	907.172	704.968
200.432	18.205	906.906	704.817
201.446	18.094	906.093	703.666
202.461	17.810	905.211	701.750
203.475	17.746	904.478	700.857
204.490	17.450	902.948	698.394
205.504	16.374	901.443	692.758
206.519	16.940	901.380	694.971
207.534	17.762	901.392	698.284
208.548	17.916	900.864	698.445
209.563	18.108	900.860	699.165
210.577	18.272	899.939	699.055
211.592	17.946	898.919	696.874
212.607	18.238	898.795	697.907
213.621	18.417	897.986	697.946
214.636	18.373	897.009	696.947
215.650	18.341	896.937	696.696
216.665	18.349	896.148	696.056
217.680	18.483	895.485	696.023
218.694	18.565	894.528	695.552
219.709	18.203	893.976	693.591
220.723	17.801	893.223	691.318
221.738	18.102	892.306	691.765
222.753	18.408	891.877	692.607
223.767	18.212	891.409	691.391
224.782	18.366	890.307	691.097
225.796	18.554	889.433	691.117
226.811	18.518	889.012	690.581
227.826	18.188	887.830	688.274
228.840	17.524	886.506	684.521
229.855	17.602	885.805	684.231
230.869	17.817	885.069	684.464
231.884	17.622	884.276	683.008
232.899	17.645	883.408	682.371
233.913	18.453	883.247	685.417
234.928	18.398	883.242	685.136
235.942	18.401	882.603	684.590
236.957	18.453	881.793	684.108
237.972	18.169	880.687	682.058
238.986	18.022	880.146	680.994
240.001	18.258	879.512	681.381
241.015	18.220	878.610	680.472
242.030	18.261	878.273	680.315
243.045	18.426	877.605	680.393
244.059	18.360	876.986	679.589
245.074	18.491	876.665	679.801
246.088	18.480	875.954	679.145
247.103	18.015	874.881	676.413
248.117	18.171	873.818	676.149
249.132	18.638	873.651	677.805
250.147	18.814	873.155	678.054
251.161	18.777	872.424	677.280
252.176	18.935	871.749	677.320
253.190	18.964	871.429	677.123
254.205	18.982	870.972	676.780
255.220	19.234	870.080	677.018
256.234	19.356	869.392	676.900
257.249	19.095	869.213	675.676
258.263	18.945	868.491	674.467
259.278	18.949	867.921	673.981
260.293	19.087	867.478	674.117
261.307	19.382	866.338	674.326
262.322	19.131	865.586	672.702
263.336	18.999	864.828	671.537
264.351	18.463	863.766	668.564
265.366	17.454	861.828	663.074
266.380	16.935	860.696	660.124
267.395	17.802	861.292	663.898
268.409	18.497	861.600	666.781
269.424	18.730	860.485	666.763
270.439	18.854	860.143	666.921
271.453	18.936	859.446	666.639
272.468	18.969	858.871	666.263
273.482	19.197	858.105	666.493
274.497	19.177	857.964	666.247
275.512	19.041	856.928	664.857
276.526	18.562	855.272	661.667
277.541	18.735	854.750	661.870
278.555	18.955	854.872	662.755
279.570	18.868	853.556	661.342
280.585	18.587	852.697	659.536
281.599	18.632	852.438	659.453
282.614	18.784	852.172	659.770
283.628	18.620	850.743	657.980
284.643	18.255	850.260	656.145
285.657	18.654	849.819	657.279
286.672	18.514	848.952	656.014
287.687	18.015	848.197	653.463
288.701	18.426	848.010	654.833
289.716	18.640	847.711	655.360
290.730	18.383	846.739	653.570
291.745	18.140	846.168	652.147
292.760	18.042	844.831	650.687
293.774	18.017	844.406	650.204
294.789	18.840	844.775	653.562
295.803	19.258	845.207	655.431
296.818	19.447	844.360	655.435
297.833	19.623	843.973	655.743
298.847	19.411	842.653	653.856
299.862	18.971	841.628	651.335
300.876	19.236	841.154	651.915
301.891	19.455	840.928	652.509
302.906	19.437	840.166	651.791
303.920	19.044	838.832	649.219
304.935	18.961	837.996	648.201
305.949	19.329	837.535	649.174
306.964	19.434	837.124	649.193
307.979	19.251	836.645	648.077
308.993	19.325	836.260	647.999
310.008	19.429	836.261	648.333
311.022	19.666	835.560	648.622
312.037	19.508	834.895	647.456
313.052	19.319	834.238	646.181
314.066	19.346	833.450	645.614
315.081	18.713	832.365	642.346
316.095	18.047	831.266	638.953
317.110	18.623	831.350	641.114
318.125	19.288	831.515	643.671
319.139	18.964	830.241	641.416
320.154	18.096	828.536	636.811
321.168	17.717	827.702	634.703
322.183	18.259	828.285	637.112
323.197	19.037	828.313	639.974
324.212	19.157	827.944	640.080
325.227	19.279	827.729	640.308
326.241	19.522	827.074	640.646
327.256	19.494	826.530	640.065
328.270	19.303	826.029	638.914
329.285	19.202	825.461	638.043
330.300	19.225	824.424	637.271
331.314	18.912	823.930	635.675
332.329	18.984	823.209	635.326
333.343	19.455	822.465	636.435
334.358	19.598	822.045	636.582
335.373	19.675	821.321	636.247
336.387	19.661	820.749	635.697
337.402	19.804	820.532	636.000
338.416	19.835	820.032	635.667
339.431	19.924	819.111	635.226
340.446	19.609	819.046	633.962
341.460	19.908	818.307	634.430
342.475	19.872	817.639	633.722
343.489	19.655	816.951	632.341
344.504	19.598	816.683	631.867
345.519	19.843	816.649	632.684
346.533	19.850	815.979	632.133
347.548	20.009	815.627	632.384
348.562	20.065	815.326	632.299
349.577	20.068	814.627	631.712
350.592	20.005	814.324	631.192
351.606	20.045	813.541	630.675
352.621	20.176	812.809	630.527
353.635	20.256	812.574	630.582
354.650	19.919	811.940	628.808
355.665	19.734	810.524	626.988
356.679	18.932	809.313	623.087
357.694	18.738	808.668	621.835
358.708	19.321	808.804	623.994
359.723	19.189	808.611	623.312
360.738	19.561	807.689	623.891
361.752	19.907	807.865	625.222
362.767	19.892	807.649	624.945
363.781	20.140	807.390	625.585
364.796	20.287	807.063	625.806
365.810	20.366	806.681	625.741
366.825	20.491	805.988	625.596
367.840	20.554	805.607	625.473
368.854	20.284	804.844	623.855
369.869	20.034	804.078	622.307
370.883	19.974	803.459	621.556
371.898	20.041	802.789	621.226
372.913	19.820	801.995	619.765
373.927	19.664	801.899	619.074
374.942	19.863	801.157	619.159
375.956	20.135	800.579	619.633
376.971	20.142	800.271	619.364
377.986	20.253	799.729	619.286
379.000	20.430	799.113	619.385
380.015	20.382	798.778	618.899
381.029	20.189	798.154	617.675
382.044	20.217	797.538	617.243
383.059	20.386	797.032	617.396
384.073	20.330	796.175	616.477
385.088	20.412	796.242	616.767
386.102	20.538	795.634	616.689
387.117	20.383	795.279	615.808
388.132	20.457	794.651	615.531
389.146	20.245	793.664	613.961
390.161	19.708	793.107	611.578
391.175	19.677	792.634	611.047
392.190	20.042	792.840	612.442
393.205	20.054	792.101	611.861
394.219	19.313	790.563	608.007
395.234	18.029	788.603	601.926
396.248	17.497	787.734	599.336
397.263	18.424	788.364	603.026
398.278	19.869	789.515	608.941
399.292	20.402	789.537	610.781
400.307	20.062	788.825	608.982
401.321	20.140	788.195	608.714
402.336	20.029	788.028	608.143
403.350	20.338	787.686	608.910
404.365	20.669	787.446	609.830
405.380	20.688	787.449	609.846
406.394	20.993	786.973	610.489
407.409	21.006	786.660	610.241
408.423	20.900	786.379	609.598
409.438	20.876	785.146	608.502
410.453	20.889	784.845	608.261
411.467	20.954	784.766	608.373
412.482	21.007	784.293	608.137
413.496	21.109	783.024	607.456
414.511	21.167	782.985	607.573
415.526	21.036	782.862	606.969
416.540	21.107	782.412	606.813
417.555	20.916	781.948	605.735
418.569	20.689	781.105	604.238
419.584	20.775	780.197	603.782
420.599	20.732	780.227	603.601
421.613	156.383	1359.954	1793.088
422.628	135.138	1444.430	1793.197
