DTS Sentinel unit serial number:	SN413079Multiplexer serial number:	ORYXHardware model number:	OX4-SRSoftware version number:	ORYX F/W v4.00 Oryx Data Collector v3.7.2.0data status	okinstallation	princeton_trtdifferential loss correction	single-endedforward channel	channel 3reverse channel	N/Adate	2019/09/10time	20:26:10forward acquisition time	60.00reverse acquisition time	0.00gamma	496.2192k internal	0.2326k external	0.2326temperature offset calibration	0.9917default loss term (dB/km)	0.3790temperature slope calibration	1.0000multiplexer offset coefficient	1.0000multiplexer slope coefficient	1.0000fibre end	0.00T internal ref (°C)	32.08T ext. ref 1 (°C)	-0.31T ext. ref 2 (°C)	25.25length (m)	temperature (°C)	Stokes	anti-Stokes-747.200	3.165	-0.170	-0.125
-746.185	-121.329	-0.077	-0.013
-745.171	800.000	-0.067	-0.199
-744.156	100.635	-0.266	0.312
-743.142	800.000	-0.142	0.513
-742.127	682.818	-0.104	0.273
-741.112	580.518	-0.167	-0.413
-740.098	188.025	-0.257	0.387
-739.083	-122.658	0.191	0.031
-738.069	800.000	0.052	0.151
-737.054	245.245	0.097	0.164
-736.039	-14.532	-0.126	-0.082
-735.025	-6.327	0.203	-0.140
-734.010	-200.000	-0.055	-0.244
-732.996	203.642	-0.050	-0.078
-731.981	24.463	0.045	0.038
-730.966	201.971	0.154	-0.240
-729.952	30.229	-0.115	-0.099
-728.937	44.300	-0.266	0.246
-727.923	-200.000	-0.012	0.281
-726.908	-48.142	-0.241	-0.117
-725.894	13.500	-0.324	-0.253
-724.879	-181.164	-0.230	-0.005
-723.864	-200.000	-0.033	0.383
-722.850	3.538	-0.205	0.151
-721.835	-55.088	0.175	0.079
-720.821	66.149	0.053	-0.054
-719.806	800.000	-0.012	-0.041
-718.791	59.824	-0.061	0.060
-717.777	-200.000	-0.064	-0.300
-716.762	-167.294	0.339	-0.014
-715.748	-131.122	-0.159	-0.021
-714.733	800.000	-0.004	-0.012
-713.718	38.652	-0.117	-0.105
-712.704	-138.160	0.110	-0.012
-711.689	-200.000	-0.021	0.305
-710.675	89.876	0.110	0.124
-709.660	-200.000	-0.002	0.165
-708.645	-100.526	0.275	-0.069
-707.631	96.567	-0.135	-0.156
-706.616	-140.098	-0.323	-0.034
-705.602	-146.836	0.159	0.014
-704.587	-200.000	0.017	0.369
-703.572	101.957	-0.221	-0.260
-702.558	-35.093	0.154	-0.084
-701.543	-102.113	0.278	0.068
-700.529	800.000	0.059	0.166
-699.514	-139.055	-0.192	0.021
-698.499	800.000	-0.068	0.296
-697.485	631.601	0.051	0.129
-696.470	800.000	-0.062	-0.254
-695.456	27.547	-0.239	0.203
-694.441	-90.243	0.183	0.054
-693.426	551.508	0.093	-0.225
-692.412	-52.462	0.226	0.105
-691.397	-200.000	0.006	0.248
-690.383	-127.604	0.168	-0.024
-689.368	-85.771	-0.024	0.007
-688.354	-200.000	-0.008	-0.126
-687.339	-2.639	0.077	-0.054
-686.324	-46.726	0.256	0.126
-685.310	131.644	0.267	-0.345
-684.295	92.074	0.120	-0.136
-683.281	-105.175	-0.162	0.037
-682.266	34.878	0.095	-0.084
-681.251	-114.569	-0.237	-0.046
-680.237	62.674	-0.124	-0.125
-679.222	-200.000	0.037	-0.204
-678.208	101.882	-0.042	0.049
-677.193	-74.126	-0.183	0.067
-676.178	-54.458	-0.202	0.092
-675.164	-107.796	-0.207	0.045
-674.149	-146.814	-0.149	0.013
-673.135	-200.000	-0.014	-0.121
-672.120	99.066	0.126	-0.146
-671.105	-71.451	-0.297	-0.112
-670.091	800.000	0.016	-0.051
-669.076	113.170	-0.203	-0.248
-668.062	800.000	-0.072	0.203
-667.047	-200.000	-0.001	0.353
-666.032	-200.000	-0.054	-0.330
-665.018	-200.000	-0.033	-0.237
-664.003	-21.461	0.158	-0.097
-662.989	-90.720	0.135	0.039
-661.974	69.419	-0.115	-0.119
-660.959	33.196	-0.224	-0.195
-659.945	-73.588	-0.280	0.103
-658.930	-169.013	-0.113	-0.004
-657.916	-71.025	-0.171	0.065
-656.901	110.232	0.130	-0.157
-655.886	-10.742	-0.100	-0.066
-654.872	268.052	0.193	-0.339
-653.857	-108.824	0.192	0.041
-652.843	131.375	-0.048	-0.062
-651.828	-86.647	-0.461	-0.142
-650.814	37.096	-0.119	-0.106
-649.799	442.600	-0.110	0.243
-648.784	-200.000	-0.002	-0.191
-647.770	-94.341	0.144	0.039
-646.755	-22.323	-0.036	-0.022
-645.741	-118.131	-0.136	-0.024
-644.726	190.000	-0.110	-0.166
-643.711	-86.902	-0.133	-0.041
-642.697	800.000	-0.065	-0.286
-641.682	51.563	-0.125	-0.119
-640.668	-72.868	-0.209	-0.077
-639.653	-70.181	0.288	-0.110
-638.638	-103.095	0.014	0.003
-637.624	28.398	-0.046	0.039
-636.609	186.455	0.166	-0.248
-635.595	-173.991	0.130	0.004
-634.580	-66.653	-0.205	0.082
-633.565	20.086	-0.313	0.254
-632.551	149.870	-0.119	0.163
-631.536	-99.193	-0.256	0.065
-630.522	-74.371	0.173	-0.063
-629.507	20.038	0.177	-0.143
-628.492	-200.000	-0.002	-0.051
-627.478	-90.090	-0.350	0.102
-626.463	227.599	0.082	-0.135
-625.449	364.621	0.001	-0.003
-624.434	5.252	0.140	-0.104
-623.419	-65.592	-0.184	-0.074
-622.405	-90.213	-0.168	-0.049
-621.390	-13.034	-0.197	0.129
-620.376	-82.342	0.250	-0.082
-619.361	-52.024	-0.440	-0.205
-618.346	-200.000	0.045	-0.359
-617.332	89.792	0.084	-0.094
-616.317	-200.000	0.011	0.205
-615.303	-200.000	-0.001	-0.294
-614.288	-200.000	0.051	-0.276
-613.273	800.000	0.039	-0.132
-612.259	-35.846	0.172	-0.094
-611.244	-11.149	-0.139	0.092
-610.230	-110.465	0.286	0.060
-609.215	-200.000	0.040	0.228
-608.201	-53.901	-0.133	-0.061
-607.186	114.878	-0.099	0.122
-606.171	-51.217	0.134	-0.063
-605.157	-82.500	0.209	-0.068
-604.142	-20.433	0.047	-0.029
-603.128	800.000	-0.030	-0.116
-602.113	-198.467	0.225	-0.001
-601.098	800.000	-0.052	-0.220
-600.084	-47.381	-0.190	-0.093
-599.069	800.000	-0.070	0.236
-598.055	30.413	0.143	-0.123
-597.040	-40.330	-0.021	-0.011
-596.025	168.800	0.072	-0.103
-595.011	-200.000	0.007	-0.209
-593.996	-200.000	0.000	-0.013
-592.982	260.393	0.059	0.103
-591.967	7.351	-0.301	-0.226
-590.952	-200.000	-0.001	0.095
-589.938	79.199	0.185	0.198
-588.923	-200.000	0.034	-0.449
-587.909	28.763	0.099	-0.084
-586.894	-200.000	0.002	-0.105
-585.879	113.743	-0.037	0.045
-584.865	-145.587	0.418	0.038
-583.850	192.441	0.086	-0.131
-582.836	199.417	-0.068	0.104
-581.821	329.013	0.125	0.242
-580.806	-111.707	0.137	-0.028
-579.792	-23.252	-0.144	-0.087
-578.777	-78.149	-0.423	-0.146
-577.763	462.705	0.109	0.244
-576.748	-73.816	-0.179	-0.065
-575.733	-200.000	0.005	0.137
-574.719	105.445	-0.031	0.036
-573.704	-200.000	0.022	-0.204
-572.690	-66.204	0.155	-0.062
-571.675	-82.369	0.149	0.048
-570.661	116.274	0.156	0.192
-569.646	-72.199	-0.299	0.111
-568.631	-147.058	-0.135	-0.012
-567.617	-38.033	0.195	-0.103
-566.602	-200.000	-0.036	-0.277
-565.588	-0.119	0.235	-0.167
-564.573	179.780	0.099	-0.145
-563.558	133.719	-0.150	0.194
-562.544	-200.000	-0.013	0.075
-561.529	-155.177	0.382	0.025
-560.515	30.614	-0.353	-0.302
-559.500	44.975	0.048	-0.044
-558.485	800.000	0.066	-0.205
-557.471	-122.897	-0.179	-0.029
-556.456	146.417	0.149	-0.200
-555.442	-156.667	0.200	-0.012
-554.427	-92.690	-0.084	0.023
-553.412	135.043	-0.028	-0.037
-552.398	800.000	0.144	0.420
-551.383	-152.343	-0.316	-0.023
-550.369	-170.010	0.091	0.003
-549.354	-154.769	0.088	0.006
-548.339	-200.000	-0.016	0.221
-547.325	648.804	-0.069	-0.178
-546.310	-200.000	-0.037	0.197
-545.296	-131.867	0.142	-0.019
-544.281	-120.071	0.200	0.034
-543.266	-58.360	-0.214	-0.093
-542.252	307.643	0.119	-0.222
-541.237	800.000	-0.053	-0.186
-540.223	800.000	0.029	0.128
-539.208	800.000	0.099	0.376
-538.193	-200.000	-0.077	0.480
-537.179	277.974	0.021	0.037
-536.164	800.000	-0.145	-0.401
-535.150	45.624	-0.186	0.172
-534.135	-84.965	-0.165	0.052
-533.121	328.509	0.093	0.179
-532.106	800.000	0.067	0.264
-531.091	172.793	-0.150	-0.216
-530.077	-137.547	-0.298	0.034
-529.062	-200.000	0.036	-0.371
-528.048	-61.972	0.335	-0.140
-527.033	429.879	0.090	0.194
-526.018	9.227	0.103	-0.078
-525.004	30.079	-0.082	0.070
-523.989	-91.375	0.113	-0.032
-522.975	-72.423	-0.104	-0.039
-521.960	-29.606	0.024	-0.014
-520.945	35.600	0.069	0.060
-519.931	204.542	0.030	-0.046
-518.916	-28.296	0.191	0.110
-517.902	-200.000	-0.068	-0.362
-516.887	232.604	-0.073	0.119
-515.872	53.363	-0.181	-0.174
-514.858	-135.721	0.240	0.028
-513.843	-104.624	0.152	0.035
-512.829	-1.325	0.245	0.173
-511.814	2.578	0.034	0.025
-510.799	-67.401	-0.213	-0.084
-509.785	83.991	0.097	0.106
-508.770	294.632	0.120	0.219
-507.756	800.000	-0.058	0.175
-506.741	0.573	-0.101	0.072
-505.726	-200.000	0.020	0.245
-504.712	162.377	0.073	0.103
-503.697	196.137	0.083	-0.127
-502.683	757.339	0.055	-0.149
-501.668	-30.257	-0.228	0.129
-500.653	-145.881	0.320	0.028
-499.639	-200.000	0.037	0.166
-498.624	-152.400	-0.158	-0.011
-497.610	-19.496	0.142	0.088
-496.595	0.381	-0.222	0.158
-495.581	56.915	-0.411	0.400
-494.566	-57.554	0.101	-0.044
-493.551	125.597	0.146	-0.184
-492.537	789.155	0.094	0.258
-491.522	632.181	-0.057	0.143
-490.508	-200.000	-0.002	-0.328
-489.493	-200.000	-0.005	-0.146
-488.478	-200.000	-0.044	-0.375
-487.464	-126.102	-0.249	0.037
-486.449	-156.146	-0.194	0.012
-485.435	-0.466	0.282	0.200
-484.420	-132.717	-0.372	0.048
-483.405	90.681	-0.197	-0.220
-482.391	-200.000	0.034	-0.310
-481.376	-83.649	-0.151	-0.048
-480.362	-28.175	0.044	-0.025
-479.347	800.000	0.024	0.092
-478.332	-37.287	-0.103	0.055
-477.318	-69.788	0.174	0.066
-476.303	559.625	-0.076	-0.184
-475.289	117.493	0.439	-0.539
-474.274	744.993	0.032	-0.086
-473.259	800.000	-0.089	-0.279
-472.245	800.000	0.080	0.240
-471.230	-1.911	0.148	-0.104
-470.216	41.593	-0.041	-0.037
-469.201	-200.000	-0.014	0.146
-468.186	-200.000	0.031	0.334
-467.172	64.432	0.368	-0.370
-466.157	-68.966	0.074	0.029
-465.143	-200.000	0.006	-0.150
-464.128	-134.628	-0.194	-0.024
-463.113	-89.211	0.043	0.013
-462.099	-28.453	-0.369	-0.212
-461.084	800.000	-0.052	-0.219
-460.070	554.077	0.124	0.298
-459.055	-47.408	0.414	-0.201
-458.040	-66.130	0.115	0.046
-457.026	138.449	-0.250	0.327
-456.011	-200.000	-0.100	0.473
-454.997	-200.000	-0.016	-0.138
-453.982	23.009	0.181	0.148
-452.968	-92.856	-0.240	0.067
-451.953	-200.000	-0.091	-0.669
-450.938	23.769	0.021	-0.018
-449.924	10.632	-0.176	0.134
-448.909	800.000	-0.100	-0.295
-447.895	159.338	0.141	-0.196
-446.880	322.195	-0.082	-0.155
-445.865	76.045	-0.157	0.166
-444.851	-147.084	0.149	0.013
-443.836	406.096	0.086	-0.181
-442.822	-200.000	0.037	-0.182
-441.807	-156.213	-0.304	-0.019
-440.792	42.196	0.133	-0.120
-439.778	46.851	0.153	-0.142
-438.763	-147.972	0.130	0.011
-437.749	-200.000	0.006	0.291
-436.734	-65.439	0.108	0.043
-435.719	208.879	-0.225	0.350
-434.705	-39.271	-0.271	0.142
-433.690	-121.240	0.445	-0.074
-432.676	422.581	-0.223	0.477
-431.661	-97.058	0.281	0.073
-430.646	8.783	0.144	0.108
-429.632	178.829	-0.044	-0.065
-428.617	-45.953	-0.253	0.124
-427.603	25.174	-0.125	0.104
-426.588	-77.433	0.118	0.041
-425.573	-133.159	-0.288	-0.036
-424.559	78.862	-0.211	-0.225
-423.544	800.000	0.084	0.268
-422.530	-91.979	-0.180	-0.051
-421.515	-200.000	-0.016	0.123
-420.500	15.571	0.239	-0.187
-419.486	-73.925	-0.245	0.089
-418.471	-11.688	0.059	0.038
-417.457	-200.000	0.040	-0.247
-416.442	-45.582	0.137	0.068
-415.428	-151.070	-0.159	0.012
-414.413	211.720	0.152	0.238
-413.398	-200.000	-0.011	-0.280
-412.384	-19.610	-0.146	-0.090
-411.369	15.141	-0.189	0.147
-410.355	-109.006	-0.178	-0.038
-409.340	-193.852	0.094	0.001
-408.325	-200.000	-0.008	0.180
-407.311	-200.000	0.019	0.156
-406.296	-199.637	-0.434	0.002
-405.282	800.000	-0.043	-0.135
-404.267	101.411	0.177	0.205
-403.252	-16.008	-0.163	0.103
-402.238	-161.610	0.428	-0.022
-401.223	-115.226	0.128	-0.024
-400.209	69.198	-0.234	-0.240
-399.194	251.269	-0.023	-0.039
-398.179	126.633	0.180	-0.227
-397.165	162.704	0.095	-0.132
-396.150	-32.704	-0.116	0.064
-395.136	82.074	-0.073	-0.079
-394.121	429.510	0.059	0.127
-393.106	-134.418	0.092	0.011
-392.092	-200.000	0.041	0.192
-391.077	-130.296	0.140	-0.019
-390.063	-59.050	0.052	0.023
-389.048	-200.000	0.028	0.205
-388.033	307.887	0.051	0.095
-387.019	-100.436	-0.182	0.045
-386.004	39.810	-0.095	-0.085
-384.990	-1.448	0.068	0.048
-383.975	612.123	0.137	-0.341
-382.960	130.527	-0.226	0.288
-381.946	87.590	0.169	0.186
-380.931	-200.000	0.023	0.131
-379.917	339.001	0.077	-0.150
-378.902	53.534	-0.130	-0.124
-377.888	800.000	-0.071	0.241
-376.873	367.463	0.096	-0.193
-375.858	-49.171	-0.061	0.029
-374.844	-52.191	0.174	-0.080
-373.829	-21.809	0.192	-0.116
-372.815	-200.000	-0.015	0.165
-371.800	28.062	-0.051	-0.042
-370.785	258.713	-0.165	-0.283
-369.771	-28.389	0.068	-0.039
-368.756	49.730	-0.272	-0.255
-367.742	-147.986	0.113	-0.009
-366.727	800.000	0.034	-0.120
-365.712	-200.000	-0.029	-0.210
-364.698	153.310	0.204	-0.278
-363.683	800.000	0.015	-0.046
-362.669	-13.656	0.274	-0.176
-361.654	-158.191	0.107	0.006
-360.639	-200.000	0.001	0.074
-359.625	800.000	-0.024	0.095
-358.610	-200.000	0.019	-0.147
-357.596	157.921	-0.016	-0.022
-356.581	235.460	0.048	-0.079
-355.566	725.964	-0.107	-0.284
-354.552	-21.601	-0.137	-0.083
-353.537	284.470	-0.101	-0.181
-352.523	-200.000	-0.010	0.228
-351.508	31.809	0.294	0.251
-350.493	-200.000	0.004	0.382
-349.479	81.663	0.008	0.009
-348.464	-18.142	-0.108	0.067
-347.450	-76.900	-0.301	-0.104
-346.435	130.901	0.250	-0.319
-345.420	486.835	0.011	0.026
-344.406	-123.791	0.142	0.022
-343.391	-67.887	-0.035	0.014
-342.377	-4.970	0.165	0.113
-341.362	277.269	0.066	-0.117
-340.348	-200.000	0.072	0.412
-339.333	-193.731	-0.477	-0.004
-338.318	800.000	-0.032	-0.105
-337.304	244.499	-0.151	0.251
-336.289	-23.136	0.152	0.091
-335.275	-154.904	-0.242	0.016
-334.260	800.000	0.104	-0.318
-333.245	87.381	-0.121	0.133
-332.231	-200.000	-0.002	0.012
-331.216	-142.470	-0.179	0.017
-330.202	56.657	-0.178	0.171
-329.187	-16.792	-0.337	0.211
-328.172	-14.242	0.171	0.110
-327.158	800.000	-0.121	0.394
-326.143	288.814	0.084	0.151
-325.129	-82.407	-0.358	-0.115
-324.114	-129.364	-0.214	-0.029
-323.099	800.000	-0.093	-0.282
-322.085	40.814	-0.173	-0.155
-321.070	76.030	0.075	-0.079
-320.056	-200.000	0.008	-0.101
-319.041	-200.000	0.016	0.082
-318.026	800.000	0.056	-0.210
-317.012	216.425	0.033	-0.052
-315.997	18.069	-0.120	0.095
-314.983	444.285	0.073	-0.160
-313.968	308.107	0.069	0.127
-312.953	-12.887	0.285	0.184
-311.939	-154.711	0.400	-0.026
-310.924	800.000	0.062	0.224
-309.910	800.000	-0.095	0.286
-308.895	-200.000	0.048	0.248
-307.880	-64.989	0.102	0.041
-306.866	-152.943	0.229	0.016
-305.851	89.932	0.201	-0.223
-304.837	-41.461	-0.115	0.059
-303.822	-200.000	-0.010	0.201
-302.807	302.444	-0.151	0.276
-301.793	-76.031	0.180	-0.063
-300.778	800.000	0.074	0.260
-299.764	91.803	0.013	-0.014
-298.749	-12.133	-0.140	0.091
-297.735	75.783	-0.175	0.183
-296.720	328.361	0.159	0.303
-295.705	-111.743	0.197	0.039
-294.691	-12.487	0.179	0.116
-293.676	800.000	-0.096	-0.275
-292.662	-109.165	0.396	0.083
-291.647	223.349	-0.082	0.132
-290.632	-8.130	-0.216	-0.144
-289.618	-200.000	-0.032	-0.142
-288.603	-200.000	-0.061	-0.475
-287.589	800.000	-0.154	-0.422
-286.574	-67.374	0.477	-0.186
-285.559	778.058	-0.061	0.165
-284.545	294.133	-0.125	0.226
-283.530	8.693	0.193	0.144
-282.516	-200.000	0.086	-0.386
-281.501	800.000	0.067	0.239
-280.486	-163.959	-0.122	-0.006
-279.472	-0.896	0.106	0.074
-278.457	-99.121	0.264	0.066
-277.443	138.075	-0.172	0.223
-276.428	-89.153	0.152	0.044
-275.413	24.463	-0.238	-0.195
-274.399	-8.721	0.251	-0.167
-273.384	-129.108	-0.307	0.042
-272.370	-130.251	-0.216	0.029
-271.355	-77.872	-0.216	-0.074
-270.340	565.357	0.090	0.216
-269.326	-46.738	-0.319	-0.155
-268.311	66.178	-0.233	-0.235
-267.297	161.941	-0.122	-0.169
-266.282	-64.394	-0.057	-0.023
-265.267	-54.581	0.280	-0.125
-264.253	-56.980	-0.077	-0.034
-263.238	146.386	0.038	0.050
-262.224	-127.771	-0.314	0.045
-261.209	800.000	-0.024	0.070
-260.195	490.576	0.147	0.333
-259.180	194.806	-0.127	0.190
-258.165	800.000	0.101	0.284
-257.151	-102.274	0.194	0.046
-256.136	800.000	0.019	0.053
-255.122	34.458	0.062	-0.054
-254.107	-125.374	0.254	0.038
-253.092	387.150	-0.047	-0.097
-252.078	800.000	0.031	-0.096
-251.063	-133.193	0.379	0.047
-250.049	759.657	0.073	0.197
-249.034	217.735	-0.096	0.151
-248.019	800.000	0.044	0.136
-247.005	-11.702	-0.117	0.076
-245.990	-200.000	0.033	0.160
-244.976	800.000	0.129	0.363
-243.961	31.361	0.025	-0.022
-242.946	800.000	0.019	-0.064
-241.932	800.000	0.125	-0.355
-240.917	-131.598	-0.312	-0.041
-239.903	384.116	-0.076	-0.156
-238.888	386.262	-0.096	0.196
-237.873	800.000	0.082	-0.252
-236.859	-130.779	0.360	0.048
-235.844	-200.000	0.001	-0.043
-234.830	-200.000	0.018	-0.079
-233.815	-86.214	0.305	-0.093
-232.800	3.117	-0.228	-0.164
-231.786	-60.932	-0.139	0.058
-230.771	-95.790	0.282	0.074
-229.757	360.491	-0.160	0.316
-228.742	9.597	-0.181	0.136
-227.727	-58.447	-0.190	0.082
-226.713	-200.000	0.006	0.235
-225.698	-7.822	0.171	-0.114
-224.684	-65.965	0.206	0.081
-223.669	20.327	0.155	-0.124
-222.655	-190.969	0.254	-0.003
-221.640	107.069	-0.174	0.204
-220.625	4.509	-0.194	-0.141
-219.611	161.488	0.099	0.137
-218.596	800.000	-0.098	0.297
-217.582	-200.000	-0.005	-0.089
-216.567	235.356	0.070	-0.115
-215.552	-117.252	0.350	-0.063
-214.538	189.794	-0.153	0.226
-213.523	-65.039	0.147	-0.058
-212.509	352.943	-0.070	0.137
-211.494	85.262	0.113	0.122
-210.479	-24.976	-0.211	0.123
-209.465	441.353	0.054	0.118
-208.450	107.979	0.084	-0.098
-207.436	127.685	0.186	-0.233
-206.421	-109.713	-0.157	0.033
-205.406	254.626	-0.096	0.163
-204.392	-200.000	-0.005	-0.044
-203.377	-153.826	0.250	0.017
-202.363	-200.000	0.002	-0.130
-201.348	-85.402	-0.112	-0.035
-200.333	73.843	0.086	0.089
-199.319	-115.122	0.235	0.044
-198.304	-142.083	0.167	-0.016
-197.290	800.000	-0.066	-0.241
-196.275	-200.000	0.013	0.194
-195.260	-200.000	0.001	-0.061
-194.246	317.030	0.048	0.089
-193.231	416.693	-0.162	0.342
-192.217	585.346	-0.119	0.289
-191.202	-43.644	-0.136	0.067
-190.187	-200.000	0.067	0.492
-189.173	-130.370	0.037	-0.005
-188.158	149.013	0.121	-0.162
-187.144	561.176	0.063	0.150
-186.129	137.323	0.132	0.170
-185.114	18.633	-0.105	0.083
-184.100	654.970	0.077	-0.195
-183.085	449.078	-0.058	-0.125
-182.071	-175.054	-0.272	0.007
-181.056	-200.000	0.044	-0.234
-180.042	111.077	0.119	0.142
-179.027	-200.000	-0.027	0.116
-178.012	800.000	0.067	-0.214
-176.998	-115.770	0.267	0.049
-175.983	13.464	-0.095	-0.073
-174.969	-94.716	-0.060	-0.016
-173.954	-41.008	-0.359	-0.183
-172.939	-47.860	-0.255	-0.122
-171.925	433.507	-0.182	-0.389
-170.910	-178.496	-0.169	-0.004
-169.896	179.654	0.162	0.235
-168.881	668.466	0.066	-0.168
-167.866	-121.525	-0.552	0.090
-166.852	332.700	0.012	-0.023
-165.837	568.097	0.027	0.064
-164.823	-181.381	-0.131	-0.003
-163.808	60.446	-0.142	0.139
-162.793	-126.292	0.245	0.036
-161.779	-200.000	-0.013	-0.128
-160.764	800.000	0.051	-0.152
-159.750	-146.230	0.220	0.019
-158.735	-200.000	0.018	0.098
-157.720	-200.000	-0.058	-0.325
-156.706	555.341	-0.094	0.223
-155.691	-67.752	0.046	0.018
-154.677	222.326	-0.141	0.224
-153.662	51.713	0.119	-0.111
-152.647	243.237	-0.071	-0.118
-151.633	800.000	0.090	-0.249
-150.618	800.000	-0.046	0.139
-149.604	59.241	-0.068	-0.066
-148.589	-136.459	-0.130	-0.015
-147.574	-163.941	-0.114	0.005
-146.560	-76.593	-0.126	0.044
-145.545	256.985	0.129	0.218
-144.531	-48.756	-0.244	0.116
-143.516	-19.615	0.192	0.117
-142.502	-200.000	-0.006	0.381
-141.487	-40.752	-0.167	-0.085
-140.472	35.540	-0.236	-0.204
-139.458	10.145	-0.122	-0.091
-138.443	800.000	0.048	0.201
-137.429	-138.022	0.477	-0.052
-136.414	-200.000	-0.004	0.019
-135.399	219.786	-0.154	-0.243
-134.385	-149.862	-0.481	0.037
-133.370	116.512	-0.250	-0.301
-132.356	-46.566	-0.204	-0.098
-131.341	197.685	0.115	0.172
-130.326	-34.786	0.208	0.112
-129.312	625.870	0.064	0.158
-128.297	442.888	-0.055	-0.120
-127.283	94.953	-0.190	0.212
-126.268	-36.594	0.199	0.105
-125.253	290.549	0.157	0.282
-124.239	-75.370	0.068	-0.024
-123.224	-200.000	0.007	0.065
-122.210	800.000	-0.102	-0.357
-121.195	60.363	0.364	0.355
-120.180	292.815	-0.078	0.140
-119.166	-129.923	0.227	-0.031
-118.151	668.331	0.120	0.306
-117.137	-102.626	-0.218	-0.051
-116.122	-200.000	-0.021	-0.161
-115.107	-200.000	-0.016	0.086
-114.093	800.000	-0.101	-0.293
-113.078	-200.000	-0.017	-0.108
-112.064	126.951	0.083	0.103
-111.049	249.205	0.186	0.310
-110.034	-87.915	0.157	0.047
-109.020	-200.000	-0.039	-0.272
-108.005	13.887	-0.236	0.180
-106.991	-7.620	-0.077	-0.051
-105.976	139.643	0.233	0.302
-104.962	-156.579	0.406	0.025
-103.947	499.608	-0.126	-0.285
-102.932	166.245	-0.139	0.193
-101.918	-74.616	0.460	0.163
-100.903	800.000	-0.020	0.068
-99.889	713.831	0.057	0.149
-98.874	-76.564	-0.251	0.087
-97.859	87.441	-0.198	0.215
-96.845	713.721	0.192	-0.501
-95.830	-6.983	0.205	0.137
-94.816	1.710	0.064	0.046
-93.801	-44.027	-0.310	-0.153
-92.786	-200.000	0.028	0.236
-91.772	78.999	0.222	0.234
-90.757	275.239	-0.051	-0.088
-89.743	-127.522	0.077	-0.011
-88.728	-61.615	-0.206	-0.085
-87.713	-85.337	-0.095	0.029
-86.699	235.669	-0.205	-0.333
-85.684	495.752	-0.060	-0.136
-84.670	132.520	0.125	-0.158
-83.655	-200.000	0.015	-0.084
-82.640	-200.000	-0.049	-0.314
-81.626	-85.996	0.390	0.119
-80.611	-74.633	-0.133	0.047
-79.597	-200.000	-0.024	-0.190
-78.582	-96.520	-0.168	-0.044
-77.567	-19.489	0.231	-0.141
-76.553	36.899	-0.090	0.078
-75.538	-50.751	-0.347	0.161
-74.524	25.849	-0.142	0.117
-73.509	49.343	-0.147	0.136
-72.494	800.000	0.159	0.440
-71.480	-75.814	-0.103	-0.036
-70.465	-131.449	0.229	-0.030
-69.451	-157.934	0.189	0.011
-68.436	-154.435	-0.315	-0.021
-67.422	-200.000	0.004	0.087
-66.407	-200.000	-0.009	0.267
-65.392	29.786	0.229	0.192
-64.378	8.500	-0.179	-0.132
-63.363	-123.259	0.166	-0.026
-62.349	124.006	-0.191	0.236
-61.334	91.052	-0.842	-0.927
-60.319	-9.979	0.532	0.347
-59.305	800.000	-0.313	-1.187
-58.290	137.721	0.880	1.132
-57.276	399.022	0.780	1.603
-56.261	-200.000	98.320	603.734
-55.246	615.469	1405.214	3458.525
-54.232	191.733	2596.658	3841.438
-53.217	117.090	2169.311	2616.470
-52.203	42.794	1708.403	1527.937
-51.188	35.370	1522.350	1310.985
-50.173	32.879	1495.686	1271.218
-49.159	51.760	1547.502	1445.164
-48.144	53.696	1563.514	1473.328
-47.130	35.419	1522.367	1311.128
-46.115	32.321	1507.720	1277.454
-45.100	32.052	1504.848	1273.149
-44.086	32.095	1502.565	1271.454
-43.071	32.130	1500.570	1269.957
-42.057	32.088	1498.926	1268.226
-41.042	32.062	1497.409	1266.723
-40.027	32.180	1495.913	1266.197
-39.013	32.065	1494.584	1264.249
-37.998	32.048	1493.351	1263.044
-36.984	31.999	1492.778	1262.179
-35.969	32.093	1490.770	1261.062
-34.954	32.108	1489.548	1260.081
-33.940	32.106	1487.958	1258.667
-32.925	32.106	1486.798	1257.636
-31.911	32.081	1485.633	1256.438
-30.896	32.057	1484.223	1255.036
-29.881	32.078	1482.818	1253.939
-28.867	32.059	1481.439	1252.597
-27.852	32.187	1479.575	1251.821
-26.838	32.141	1478.381	1250.453
-25.823	32.162	1476.678	1249.102
-24.809	32.115	1475.226	1247.511
-23.794	32.148	1473.624	1246.328
-22.779	32.094	1472.739	1245.176
-21.765	32.113	1471.944	1244.578
-20.750	32.115	1470.556	1243.370
-19.736	32.174	1469.602	1242.899
-18.721	32.128	1468.435	1241.558
-17.706	32.135	1466.706	1240.096
-16.692	32.159	1465.713	1239.369
-15.677	32.127	1464.695	1238.244
-14.663	32.028	1464.100	1237.043
-13.648	32.112	1462.925	1236.551
-12.633	32.052	1462.565	1235.800
-11.619	32.082	1461.122	1234.734
-10.604	31.993	1460.626	1233.679
-9.590	32.008	1460.149	1233.323
-8.575	32.009	1459.146	1232.436
-7.560	31.967	1458.351	1231.443
-6.546	32.091	1457.334	1231.348
-5.531	31.948	1456.512	1229.664
-4.517	31.914	1455.233	1228.314
-3.502	32.000	1453.815	1227.632
-2.487	31.891	1453.334	1226.464
-1.473	32.011	1451.987	1226.063
-0.458	32.059	1450.535	1225.100
0.556	29.656	1441.018	1213.364
1.571	26.588	1414.413	1171.052
2.586	22.948	1352.955	1097.499
3.600	21.218	1271.129	1020.926
4.615	20.022	1226.313	978.095
5.629	17.319	1171.011	919.313
6.644	8.302	1086.334	807.341
7.659	0.947	1045.098	740.741
8.673	-0.034	1039.012	731.590
9.688	-0.272	1036.201	728.392
10.702	-0.500	1034.354	725.925
11.717	-0.444	1032.079	724.534
12.731	2.524	1035.826	741.486
13.746	11.618	1048.171	794.643
14.761	18.004	1056.423	832.032
15.775	18.653	1056.748	835.375
16.790	18.693	1055.461	834.476
17.804	18.471	1054.935	832.908
18.819	18.158	1054.193	830.730
19.834	18.236	1053.672	830.621
20.848	18.344	1053.105	830.627
21.863	18.271	1052.742	829.911
22.877	18.444	1051.953	830.057
23.892	18.285	1051.278	828.680
24.907	18.270	1050.502	827.921
25.921	18.328	1049.972	827.713
26.936	18.316	1049.231	826.995
27.950	18.324	1047.977	825.975
28.965	18.338	1046.703	824.965
29.980	18.235	1045.079	823.116
30.994	18.088	1044.082	821.548
32.009	18.392	1042.415	821.623
33.023	18.477	1041.877	821.537
34.038	18.261	1040.763	819.549
35.053	18.176	1039.740	818.264
36.067	18.346	1039.418	818.751
37.082	18.395	1038.032	817.823
38.096	18.451	1037.356	817.482
39.111	18.463	1036.888	817.099
40.126	18.627	1035.692	816.869
41.140	18.654	1033.854	815.473
42.155	18.399	1032.651	813.242
43.169	18.207	1031.680	811.494
44.184	18.170	1030.320	810.180
45.199	18.259	1029.530	809.907
46.213	18.230	1028.048	808.534
47.228	18.097	1027.241	807.198
48.242	18.298	1026.048	807.136
49.257	18.367	1025.016	806.576
50.271	18.188	1025.135	805.759
51.286	18.291	1023.901	805.203
52.301	18.351	1023.346	804.975
53.315	18.477	1021.848	804.316
54.330	18.542	1021.234	804.066
55.344	18.346	1020.225	802.285
56.359	18.322	1019.608	801.615
57.374	18.381	1018.541	800.979
58.388	18.142	1017.843	799.244
59.403	18.159	1016.652	798.315
60.417	18.388	1015.966	798.777
61.432	18.141	1015.066	796.845
62.447	18.135	1014.513	796.314
63.461	18.372	1013.332	796.421
64.476	18.354	1012.662	795.739
65.490	18.278	1011.850	794.678
66.505	18.313	1010.780	793.929
67.520	18.249	1009.975	792.932
68.534	18.346	1009.060	792.589
69.549	18.158	1008.263	791.023
70.563	17.894	1007.353	789.022
71.578	17.894	1006.367	788.179
72.593	18.017	1005.016	787.617
73.607	17.739	1004.504	785.865
74.622	17.887	1003.529	785.716
75.636	18.051	1002.799	785.830
76.651	18.239	1001.868	785.891
77.666	18.092	1001.215	784.639
78.680	17.960	999.980	782.996
79.695	18.064	999.531	783.051
80.709	18.101	999.020	782.748
81.724	18.171	997.681	781.953
82.739	18.108	996.781	780.887
83.753	18.153	996.240	780.603
84.768	18.481	995.473	781.428
85.782	18.510	994.927	781.064
86.797	18.488	994.531	780.582
87.812	18.564	993.089	779.725
88.826	18.323	992.266	777.914
89.841	18.476	991.350	777.824
90.855	18.571	990.692	777.669
91.870	18.610	989.732	777.025
92.884	18.589	988.661	776.020
93.899	18.534	987.906	775.108
94.914	18.452	987.019	773.974
95.928	18.403	986.884	773.578
96.943	18.545	985.688	773.214
97.957	18.362	984.181	771.138
98.972	18.149	983.070	769.239
99.987	17.904	982.397	767.544
101.001	18.087	981.211	767.373
102.016	18.210	980.698	767.457
103.030	18.473	979.675	767.767
104.045	18.270	978.793	766.099
105.060	18.144	977.446	764.410
106.074	17.944	976.076	762.382
107.089	17.967	975.878	762.262
108.103	18.367	975.313	763.537
109.118	18.493	974.368	763.291
110.133	18.308	973.147	761.442
111.147	18.321	972.084	760.600
112.162	18.155	970.923	758.889
113.176	18.120	969.574	757.611
114.191	18.263	968.688	757.488
115.206	18.167	967.735	756.252
116.220	17.984	966.580	754.472
117.235	17.789	965.814	752.946
118.249	18.097	964.433	753.160
119.264	18.061	964.022	752.612
120.279	17.992	962.985	751.433
121.293	17.963	962.152	750.593
122.308	18.072	961.635	750.598
123.322	18.042	960.993	749.902
124.337	18.155	959.312	749.018
125.352	17.989	958.026	747.221
126.366	17.636	955.832	743.901
127.381	17.349	954.931	741.883
128.395	17.738	954.377	743.086
129.410	18.304	954.252	745.388
130.424	18.445	953.019	744.969
131.439	18.402	952.056	743.965
132.454	18.389	950.687	742.773
133.468	18.345	950.051	742.018
134.483	18.393	949.242	741.531
135.497	18.470	948.440	741.170
136.512	18.471	948.169	740.897
137.527	18.610	946.930	740.463
138.541	18.621	946.146	739.833
139.556	18.575	945.364	738.959
140.570	18.557	944.164	737.878
141.585	18.541	943.625	737.323
142.600	18.621	942.356	736.609
143.614	18.564	941.516	735.640
144.629	18.551	941.257	735.317
145.643	18.869	940.804	736.262
146.658	18.622	939.524	734.140
147.673	18.559	938.585	733.070
148.687	18.413	937.205	731.306
149.702	18.557	936.012	730.922
150.716	18.465	935.081	729.738
151.731	18.409	934.345	728.860
152.746	18.526	933.271	728.457
153.760	18.667	933.063	728.829
154.775	18.786	932.046	728.474
155.789	18.771	931.693	728.072
156.804	18.694	930.011	726.368
157.819	18.744	929.037	725.755
158.833	18.668	928.463	724.920
159.848	18.865	927.509	724.940
160.862	18.844	927.209	724.556
161.877	18.797	925.473	722.935
162.892	18.599	925.343	721.937
163.906	18.848	924.987	722.643
164.921	18.767	923.941	721.423
165.935	18.757	922.524	720.208
166.950	18.791	921.753	719.687
167.964	18.815	920.677	718.882
168.979	18.835	919.472	717.962
169.994	18.727	918.546	716.725
171.008	18.569	917.217	714.967
172.023	18.739	916.688	715.197
173.037	18.784	916.207	714.946
174.052	18.579	915.074	713.147
175.067	18.277	913.995	710.991
176.081	18.575	913.083	711.454
177.096	18.697	912.447	711.402
178.110	18.701	911.413	710.549
179.125	18.528	910.315	708.913
180.140	18.362	909.158	707.266
181.154	18.377	908.970	707.118
182.169	18.284	908.651	706.423
183.183	18.475	907.707	706.416
184.198	18.788	907.128	707.189
185.213	18.595	906.465	705.818
186.227	18.669	905.994	705.692
187.242	18.723	905.354	705.352
188.256	18.839	904.430	705.046
189.271	18.648	904.040	703.898
190.286	18.771	903.357	703.806
191.300	18.645	902.484	702.550
192.315	18.320	900.822	699.863
193.329	17.663	899.497	696.090
194.344	17.407	898.507	694.219
195.359	17.825	899.002	696.245
196.373	18.577	898.730	699.040
197.388	18.819	898.419	699.723
198.402	18.597	897.763	698.243
199.417	18.512	896.796	697.083
200.432	18.582	896.473	697.056
201.446	18.440	895.720	695.834
202.461	17.991	894.838	693.263
203.475	18.107	894.243	693.214
204.490	17.604	892.978	690.135
205.504	16.719	891.364	685.246
206.519	17.267	891.290	687.345
207.534	18.155	891.093	690.718
208.548	18.293	890.366	690.651
209.563	18.656	890.306	692.006
210.577	18.542	889.534	690.887
211.592	18.284	888.828	689.238
212.607	18.666	888.585	690.528
213.621	18.724	887.931	690.192
214.636	18.706	887.135	689.441
215.650	18.796	886.146	688.973
216.665	18.778	885.686	688.478
217.680	18.799	885.077	688.030
218.694	18.869	884.618	687.891
219.709	18.467	883.479	685.340
220.723	18.304	882.409	683.796
221.738	18.505	882.040	684.254
222.753	18.533	882.111	684.360
223.767	18.644	880.477	683.472
224.782	18.588	880.142	682.931
225.796	18.866	879.371	683.377
226.811	18.852	879.205	683.131
227.826	18.471	877.650	680.351
228.840	17.870	876.501	677.016
229.855	17.916	875.548	676.403
230.869	18.191	874.914	676.942
231.884	17.843	874.319	675.044
232.899	17.815	873.919	674.567
233.913	18.613	873.825	677.585
234.928	18.703	873.664	677.757
235.942	18.648	872.817	676.825
236.957	18.655	872.162	676.284
237.972	18.517	870.764	674.596
238.986	18.341	870.327	673.506
240.001	18.609	869.249	673.666
241.015	18.454	868.823	672.668
242.030	18.548	868.176	672.476
243.045	18.843	867.445	673.007
244.059	18.727	867.132	672.246
245.074	18.832	866.879	672.403
246.088	18.725	866.248	671.438
247.103	18.509	864.512	669.188
248.117	18.531	864.240	669.005
249.132	18.947	863.993	670.374
250.147	19.039	863.610	670.376
251.161	19.275	862.449	670.336
252.176	19.263	862.296	670.110
253.190	19.334	861.344	669.588
254.205	19.372	860.937	669.359
255.220	19.602	860.524	669.872
256.234	19.604	859.883	669.322
257.249	19.441	859.063	667.991
258.263	19.320	858.493	667.022
259.278	19.259	857.822	666.207
260.293	19.487	857.241	666.577
261.307	19.536	856.925	666.459
262.322	19.529	855.665	665.394
263.336	19.233	855.050	663.717
264.351	18.677	853.904	660.629
265.366	17.843	851.790	655.734
266.380	17.249	851.159	652.908
267.395	18.163	851.606	656.705
268.409	19.053	851.357	659.869
269.424	19.012	850.649	659.104
270.439	19.228	850.104	659.450
271.453	19.390	849.548	659.580
272.468	19.279	849.263	658.877
273.482	19.441	848.772	659.056
274.497	19.579	848.331	659.181
275.512	19.381	847.191	657.482
276.526	18.797	845.652	654.009
277.541	19.140	845.067	654.804
278.555	19.420	845.006	655.762
279.570	19.216	844.139	654.257
280.585	18.935	843.317	652.494
281.599	19.168	842.536	652.714
282.614	19.158	842.015	652.217
283.628	18.958	840.895	650.536
284.643	18.428	840.537	648.195
285.657	18.983	840.304	650.059
286.672	18.974	839.137	649.063
287.687	18.271	838.368	645.758
288.701	18.504	838.807	646.918
289.716	18.990	838.160	648.195
290.730	18.695	837.082	646.195
291.745	18.633	836.175	645.202
292.760	18.503	835.119	643.844
293.774	18.303	834.954	642.908
294.789	19.090	835.374	646.130
295.803	19.726	835.364	648.450
296.818	19.804	834.717	648.185
297.833	19.837	833.946	647.652
298.847	19.655	833.086	646.245
299.862	19.280	832.004	643.949
300.876	19.599	831.490	644.684
301.891	19.763	831.127	644.957
302.906	19.654	830.285	643.840
303.920	19.405	828.798	641.707
304.935	19.338	828.422	641.107
305.949	19.616	827.968	641.734
306.964	19.738	827.755	641.963
307.979	19.483	826.811	640.228
308.993	19.602	826.769	640.582
310.008	19.848	826.655	641.348
311.022	19.916	825.980	641.020
312.037	19.947	824.719	640.100
313.052	19.933	824.312	639.676
314.066	19.549	823.717	637.740
315.081	19.002	822.417	634.657
316.095	18.425	821.410	631.699
317.110	18.858	821.361	633.201
318.125	19.561	822.040	636.259
319.139	19.182	820.590	633.688
320.154	18.263	818.827	628.893
321.168	17.985	817.859	627.074
322.183	18.467	818.450	629.240
323.197	19.192	818.569	631.939
324.212	19.597	818.262	633.129
325.227	19.497	818.405	632.818
326.241	19.841	817.586	633.390
327.256	19.770	816.518	632.246
328.270	19.645	815.988	631.322
329.285	19.696	815.488	631.066
330.300	19.435	815.101	629.761
331.314	19.294	813.997	628.336
332.329	19.224	813.575	627.701
333.343	19.583	813.265	628.712
334.358	19.733	812.996	628.995
335.373	19.711	812.108	628.172
336.387	19.922	811.152	628.143
337.402	19.960	811.314	628.350
338.416	20.312	810.698	629.094
339.431	20.055	809.781	627.395
340.446	20.050	809.776	627.319
341.460	20.345	809.052	627.769
342.475	20.356	807.841	626.813
343.489	20.080	806.905	625.035
344.504	19.974	807.007	624.677
345.519	20.116	806.928	625.074
346.533	20.312	806.725	625.567
347.548	20.484	806.043	625.601
348.562	20.467	805.291	624.902
349.577	20.413	805.181	624.566
350.592	20.434	804.570	624.114
351.606	20.408	804.290	623.746
352.621	20.526	803.537	623.531
353.635	20.429	802.832	622.582
354.650	20.315	802.419	621.797
355.665	20.054	801.585	620.163
356.679	18.985	800.102	615.141
357.694	18.942	799.651	614.585
358.708	19.516	799.349	616.348
359.723	19.579	798.726	616.038
360.738	19.635	798.867	616.292
361.752	20.128	798.397	617.632
362.767	20.281	798.081	617.879
363.781	20.503	797.976	618.533
364.796	20.730	797.403	618.840
365.810	20.802	796.931	618.676
366.825	20.816	796.401	618.258
367.840	20.659	796.489	617.714
368.854	20.534	795.604	616.529
369.869	20.316	794.804	615.084
370.883	20.169	794.304	614.122
371.898	20.314	793.612	614.045
372.913	20.160	792.939	612.926
373.927	20.029	792.292	611.910
374.942	20.197	791.789	612.059
375.956	20.368	791.426	612.329
376.971	20.459	790.865	612.162
377.986	20.602	790.042	611.972
379.000	20.807	789.926	612.548
380.015	20.584	789.749	611.573
381.029	20.520	788.903	610.640
382.044	20.463	788.490	610.064
383.059	20.703	787.514	610.097
384.073	20.688	786.976	609.576
385.088	20.864	786.632	609.872
386.102	20.948	786.735	610.191
387.117	20.866	785.727	609.068
388.132	20.645	785.405	607.993
389.146	20.520	784.640	606.911
390.161	20.090	783.909	604.792
391.175	20.031	783.390	604.131
392.190	20.436	783.086	605.256
393.205	20.626	782.609	605.495
394.219	19.610	781.356	600.937
395.234	18.085	779.478	594.144
396.248	17.673	778.413	591.848
397.263	18.722	778.967	595.860
398.278	20.116	780.450	601.786
399.292	20.629	780.399	603.472
400.307	20.530	779.067	602.046
401.321	20.303	779.025	601.176
402.336	20.393	778.642	601.139
403.350	20.770	778.350	602.162
404.365	21.021	778.595	603.167
405.380	21.175	777.968	603.161
406.394	21.451	777.266	603.516
407.409	21.460	777.295	603.514
408.423	21.347	776.794	602.685
409.438	21.228	775.844	601.483
410.453	21.379	775.493	601.677
411.467	21.455	774.999	601.503
412.482	21.444	774.874	601.314
413.496	21.440	774.199	600.725
414.511	21.503	773.709	600.507
415.526	21.495	773.619	600.358
416.540	21.488	773.098	599.874
417.555	21.228	772.913	598.786
418.569	21.240	771.691	597.830
419.584	20.996	771.596	596.867
420.599	21.214	770.575	596.768
421.613	157.354	1359.865	1794.589
422.628	135.685	1445.721	1794.668
