DTS Sentinel unit serial number:	SN413079Multiplexer serial number:	ORYXHardware model number:	OX4-SRSoftware version number:	ORYX F/W v4.00 Oryx Data Collector v3.7.2.0data status	okinstallation	princeton_trtdifferential loss correction	single-endedforward channel	channel 3reverse channel	N/Adate	2019/09/12time	06:34:11forward acquisition time	60.00reverse acquisition time	0.00gamma	496.2192k internal	0.2320k external	0.2320temperature offset calibration	1.0032default loss term (dB/km)	0.3790temperature slope calibration	1.0000multiplexer offset coefficient	1.0000multiplexer slope coefficient	1.0000fibre end	0.00T internal ref (°C)	32.19T ext. ref 1 (°C)	1.58T ext. ref 2 (°C)	27.27length (m)	temperature (°C)	Stokes	anti-Stokes-747.200	-200.000	-0.055	0.428
-746.185	-112.414	-0.137	0.028
-745.171	-200.000	0.068	0.324
-744.156	38.734	-0.123	0.111
-743.142	-56.118	-0.468	0.211
-742.127	67.822	-0.326	0.337
-741.112	-28.738	0.257	0.150
-740.098	-57.064	-0.296	-0.132
-739.083	-200.000	-0.016	-0.524
-738.069	19.258	0.035	0.028
-737.054	-109.882	0.225	0.048
-736.039	-64.206	-0.299	-0.123
-735.025	-94.993	0.358	-0.098
-734.010	93.605	0.215	0.246
-732.996	800.000	-0.033	0.122
-731.981	55.289	-0.249	0.243
-730.966	342.010	-0.076	0.150
-729.952	22.868	0.115	-0.096
-728.937	11.865	0.043	-0.034
-727.923	-93.871	-0.074	-0.021
-726.908	-123.858	-0.131	0.021
-725.894	437.221	0.164	0.361
-724.879	34.919	0.098	0.087
-723.864	-141.216	-0.222	-0.023
-722.850	800.000	0.090	-0.283
-721.835	-200.000	0.014	0.333
-720.821	-200.000	0.019	-0.201
-719.806	40.940	0.164	-0.150
-718.791	242.309	0.096	0.162
-717.777	-106.054	-0.073	-0.017
-716.762	56.518	-0.148	-0.145
-715.748	-146.922	0.192	0.017
-714.733	-84.734	-0.272	0.087
-713.718	-159.540	-0.321	-0.018
-712.704	112.733	-0.208	0.255
-711.689	5.509	0.213	0.159
-710.675	-130.589	0.192	-0.026
-709.660	202.595	-0.312	-0.486
-708.645	-159.279	0.379	-0.021
-707.631	-177.776	0.051	-0.001
-706.616	30.911	-0.193	0.167
-705.602	-144.489	0.054	-0.005
-704.587	124.056	0.053	0.068
-703.572	-67.749	-0.018	0.007
-702.558	-55.034	0.055	-0.025
-701.543	186.275	-0.295	-0.443
-700.529	14.758	0.106	-0.084
-699.514	-87.306	0.385	0.118
-698.499	-200.000	0.035	-0.272
-697.485	-55.055	-0.142	0.064
-696.470	-200.000	0.000	-0.111
-695.456	261.089	-0.075	-0.130
-694.441	311.262	-0.053	-0.100
-693.426	135.160	-0.103	0.136
-692.412	-113.365	-0.244	0.048
-691.397	44.906	-0.148	-0.138
-690.383	-33.434	-0.163	-0.091
-689.368	800.000	0.052	-0.215
-688.354	149.416	0.231	-0.315
-687.339	182.381	0.057	-0.084
-686.324	800.000	0.045	0.133
-685.310	6.878	-0.194	0.146
-684.295	213.228	0.133	0.212
-683.281	-102.623	-0.357	-0.086
-682.266	367.154	-0.104	-0.211
-681.251	-68.656	-0.122	0.048
-680.237	-76.930	-0.100	0.035
-679.222	800.000	0.042	-0.173
-678.208	-155.064	0.419	-0.028
-677.193	55.359	0.144	-0.140
-676.178	-200.000	-0.001	0.160
-675.164	80.653	-0.119	-0.130
-674.149	-13.436	0.143	-0.094
-673.135	9.230	-0.040	-0.030
-672.120	-12.955	0.321	-0.211
-671.105	-2.099	0.129	-0.091
-670.091	-81.139	0.281	-0.094
-669.076	-26.248	-0.197	-0.117
-668.062	-65.758	0.202	-0.082
-667.047	-164.414	-0.069	-0.003
-666.032	-200.000	-0.028	-0.180
-665.018	36.150	0.134	-0.119
-664.003	362.980	-0.043	0.087
-662.989	-13.553	0.388	0.253
-661.974	-200.000	-0.021	-0.163
-660.959	-119.912	0.222	0.039
-659.945	-200.000	0.005	-0.065
-658.930	-20.686	-0.117	0.072
-657.916	-106.125	0.145	-0.033
-656.901	-95.194	-0.034	-0.009
-655.886	-200.000	0.001	0.058
-654.872	34.941	0.126	-0.111
-653.857	-200.000	-0.026	-0.173
-652.843	87.290	0.192	0.214
-651.828	104.058	0.234	-0.277
-650.814	-200.000	0.040	-0.235
-649.799	543.822	-0.062	0.150
-648.784	154.892	0.139	-0.192
-647.770	257.398	0.038	-0.066
-646.755	36.144	-0.250	0.222
-645.741	73.673	-0.127	-0.134
-644.726	-15.951	-0.230	-0.147
-643.711	-110.535	0.219	-0.046
-642.697	703.347	0.076	0.201
-641.682	669.374	0.036	0.094
-640.668	48.835	-0.101	0.096
-639.653	-200.000	0.004	0.203
-638.638	-150.383	-0.057	0.004
-637.624	373.608	-0.079	0.163
-636.609	-103.461	-0.197	-0.047
-635.595	-200.000	0.006	-0.122
-634.580	800.000	-0.097	-0.270
-633.565	-63.600	0.145	0.060
-632.551	800.000	0.092	0.396
-631.536	-151.500	-0.313	-0.023
-630.522	-200.000	-0.007	-0.138
-629.507	49.262	0.087	-0.082
-628.492	35.475	-0.091	-0.080
-627.478	-200.000	-0.010	0.065
-626.463	-130.706	-0.449	-0.061
-625.449	-52.773	0.309	-0.143
-624.434	-21.441	0.174	-0.107
-623.419	-88.378	-0.288	-0.087
-622.405	-73.199	-0.328	-0.121
-621.390	356.490	0.023	-0.047
-620.376	800.000	-0.026	-0.086
-619.361	97.081	-0.201	0.232
-618.346	95.924	-0.034	0.039
-617.332	-24.200	0.144	0.087
-616.317	25.776	0.147	0.123
-615.303	-200.000	0.007	-0.441
-614.288	542.417	-0.081	0.194
-613.273	16.626	0.118	0.094
-612.259	-200.000	0.072	0.387
-611.244	117.389	-0.108	0.133
-610.230	10.510	-0.126	-0.097
-609.215	81.441	-0.148	-0.161
-608.201	-123.649	-0.067	-0.011
-607.186	-131.053	0.042	-0.006
-606.171	50.081	-0.150	-0.142
-605.157	11.872	-0.100	-0.077
-604.142	-142.005	-0.119	-0.012
-603.128	-200.000	-0.019	-0.327
-602.113	800.000	-0.017	-0.056
-601.098	-200.000	-0.035	0.295
-600.084	673.564	-0.029	0.076
-599.069	-200.000	-0.019	0.135
-598.055	-56.310	-0.461	0.206
-597.040	-120.897	0.237	0.040
-596.025	-200.000	-0.000	-0.448
-595.011	273.453	0.109	0.193
-593.996	24.922	-0.439	-0.366
-592.982	800.000	-0.130	-0.376
-591.967	-85.242	0.068	0.021
-590.952	-88.981	0.154	-0.046
-589.938	-125.080	-0.177	0.027
-588.923	204.274	-0.044	0.069
-587.909	-40.307	0.048	0.025
-586.894	-34.757	0.262	-0.144
-585.879	-87.674	-0.258	-0.078
-584.865	121.815	0.087	0.109
-583.850	800.000	0.122	0.350
-582.836	71.023	-0.108	0.113
-581.821	-54.116	0.160	-0.073
-580.806	-88.253	-0.078	0.023
-579.792	-24.620	-0.355	-0.212
-578.777	800.000	0.027	-0.094
-577.763	-107.825	0.303	-0.066
-576.748	103.186	-0.175	0.207
-575.733	-67.206	-0.128	-0.051
-574.719	-87.003	0.182	0.056
-573.704	-90.402	-0.273	0.080
-572.690	2.905	-0.340	0.248
-571.675	79.083	0.232	-0.249
-570.661	64.849	-0.334	0.339
-569.646	-66.524	0.415	-0.165
-568.631	-163.437	-0.237	0.011
-567.617	-92.556	-0.281	0.079
-566.602	-154.759	-0.258	-0.017
-565.588	-75.455	0.129	-0.046
-564.573	189.121	0.069	0.104
-563.558	637.169	-0.064	0.163
-562.544	-133.377	0.185	0.023
-561.529	-162.818	-0.322	-0.016
-560.515	-95.482	-0.101	-0.027
-559.500	-200.000	-0.016	0.234
-558.485	-109.814	-0.089	0.019
-557.471	-133.693	-0.193	0.024
-556.456	-200.000	0.034	-0.154
-555.442	194.503	0.061	-0.094
-554.427	-144.577	0.161	-0.015
-553.412	50.006	-0.309	-0.292
-552.398	2.215	0.161	-0.117
-551.383	87.476	0.177	0.196
-550.369	168.600	0.065	0.093
-549.354	71.776	0.219	0.228
-548.339	14.679	-0.215	-0.168
-547.325	800.000	-0.043	-0.160
-546.310	22.780	-0.137	-0.113
-545.296	-147.921	-0.144	-0.012
-544.281	-95.429	0.362	0.098
-543.266	-15.471	0.507	0.325
-542.252	800.000	-0.082	-0.289
-541.237	480.816	-0.038	0.087
-540.223	-66.212	0.194	-0.078
-539.208	118.020	-0.167	0.206
-538.193	-61.952	-0.183	0.077
-537.179	80.769	0.086	-0.093
-536.164	-200.000	0.063	0.360
-535.150	-139.720	0.166	0.018
-534.135	-200.000	-0.023	-0.159
-533.121	168.888	-0.050	0.072
-532.106	373.519	-0.119	0.242
-531.091	800.000	0.021	-0.081
-530.077	-122.569	-0.182	0.030
-529.062	685.668	-0.047	0.122
-528.048	-105.273	-0.161	0.037
-527.033	444.668	-0.099	-0.219
-526.018	-46.317	0.368	0.182
-525.004	31.118	-0.111	-0.096
-523.989	-88.107	0.089	0.027
-522.975	-173.670	0.301	0.009
-521.960	62.571	0.136	-0.137
-520.945	800.000	-0.054	0.223
-519.931	800.000	-0.083	-0.346
-518.916	222.297	-0.158	-0.255
-517.902	231.674	0.153	-0.252
-516.887	-116.955	-0.152	-0.028
-515.872	800.000	0.086	0.263
-514.858	-64.379	-0.456	-0.186
-513.843	-200.000	-0.012	-0.309
-512.829	286.571	0.137	-0.248
-511.814	-188.781	0.105	-0.001
-510.799	297.616	-0.206	-0.379
-509.785	-53.715	-0.130	0.060
-508.770	17.818	0.177	-0.141
-507.756	-200.000	0.000	-0.280
-506.741	-200.000	-0.003	0.342
-505.726	-146.709	-0.339	0.029
-504.712	-49.250	0.281	0.135
-503.697	800.000	0.025	-0.070
-502.683	-115.062	0.103	0.020
-501.668	-167.823	-0.309	0.012
-500.653	-200.000	0.021	0.456
-499.639	-130.762	0.089	0.012
-498.624	800.000	0.034	0.122
-497.610	36.395	0.213	0.188
-496.595	-200.000	0.012	-0.081
-495.581	116.490	0.024	0.030
-494.566	157.971	0.113	-0.157
-493.551	-132.803	-0.113	0.014
-492.537	-130.378	0.086	0.012
-491.522	-200.000	-0.001	-0.117
-490.508	-118.725	-0.178	-0.031
-489.493	800.000	-0.018	0.061
-488.478	4.031	0.231	0.169
-487.464	800.000	-0.065	-0.249
-486.449	-200.000	0.030	-0.136
-485.435	133.627	-0.111	0.143
-484.420	-84.335	0.534	-0.169
-483.405	259.047	-0.129	-0.222
-482.391	-84.507	-0.147	-0.046
-481.376	-60.035	0.375	0.160
-480.362	-200.000	0.022	-0.326
-479.347	-31.399	0.178	-0.100
-478.332	-52.373	-0.105	0.049
-477.318	800.000	0.065	0.248
-476.303	-200.000	0.003	0.267
-475.289	-130.828	0.142	-0.019
-474.274	189.792	0.031	-0.046
-473.259	-18.721	0.266	-0.166
-472.245	398.743	-0.024	0.049
-471.230	127.804	0.091	0.116
-470.216	215.107	-0.062	-0.099
-469.201	37.528	0.081	0.072
-468.186	800.000	-0.058	0.218
-467.172	-200.000	0.021	-0.420
-466.157	-174.936	0.097	-0.003
-465.143	-121.154	0.182	0.030
-464.128	-102.036	-0.295	-0.071
-463.113	-94.883	-0.036	0.010
-462.099	-200.000	-0.012	0.056
-461.084	-200.000	0.031	0.310
-460.070	92.653	-0.177	0.200
-459.055	800.000	-0.030	0.095
-458.040	772.711	-0.037	0.101
-457.026	-200.000	0.009	-0.088
-456.011	222.616	-0.092	0.148
-454.997	77.719	0.046	0.049
-453.982	618.783	-0.069	0.173
-452.968	-28.835	-0.164	0.094
-451.953	-19.337	0.232	0.144
-450.938	800.000	0.051	0.223
-449.924	800.000	0.036	-0.134
-448.909	44.110	0.128	0.117
-447.895	359.995	0.113	0.227
-446.880	-164.245	0.167	-0.008
-445.865	-109.742	-0.256	-0.054
-444.851	-182.841	0.088	-0.002
-443.836	-200.000	0.007	-0.054
-442.822	-31.545	-0.274	0.154
-441.807	122.092	0.111	0.139
-440.792	295.202	0.056	-0.103
-439.778	266.334	-0.074	0.129
-438.763	136.622	0.167	-0.218
-437.749	-200.000	0.005	-0.193
-436.734	274.559	0.031	-0.055
-435.719	-200.000	0.021	0.324
-434.705	800.000	0.048	-0.142
-433.690	-200.000	-0.009	-0.305
-432.676	-44.634	0.264	0.132
-431.661	-81.417	0.124	-0.041
-430.646	153.829	-0.158	-0.216
-429.632	-200.000	0.029	-0.204
-428.617	503.125	0.024	0.056
-427.603	227.099	-0.162	-0.263
-426.588	446.915	0.149	-0.327
-425.573	-56.441	0.520	-0.231
-424.559	800.000	0.019	0.062
-423.544	-21.770	0.247	-0.150
-422.530	86.460	-0.107	-0.117
-421.515	-43.936	0.332	0.167
-420.500	488.246	0.065	0.148
-419.486	-162.620	0.283	0.014
-418.471	-28.574	-0.231	-0.133
-417.457	-87.808	-0.098	-0.029
-416.442	-123.367	0.311	-0.049
-415.428	-158.580	-0.287	-0.017
-414.413	-178.314	-0.144	-0.003
-413.398	104.242	0.108	0.127
-412.384	-134.984	-0.073	0.009
-411.369	26.148	0.247	-0.206
-410.355	800.000	-0.045	0.154
-409.340	-71.583	0.059	0.022
-408.325	210.100	0.125	-0.196
-407.311	157.357	0.281	0.388
-406.296	-60.176	-0.175	-0.074
-405.282	800.000	-0.087	-0.255
-404.267	-191.471	-0.034	0.000
-403.252	-50.571	-0.268	0.126
-402.238	-79.292	0.197	0.067
-401.223	800.000	0.016	-0.044
-400.209	-200.000	-0.015	-0.096
-399.194	8.003	0.117	-0.088
-398.179	800.000	-0.034	-0.124
-397.165	-114.578	0.129	0.025
-396.150	-58.646	0.093	-0.040
-395.136	-200.000	0.024	0.398
-394.121	-38.075	0.074	-0.039
-393.106	-200.000	-0.023	0.304
-392.092	-200.000	-0.002	-0.275
-391.077	-71.785	0.282	-0.105
-390.063	284.916	0.114	0.205
-389.048	277.253	0.082	0.145
-388.033	800.000	0.118	-0.458
-387.019	-40.794	0.234	0.121
-386.004	3.279	-0.345	0.250
-384.990	-64.388	-0.258	0.105
-383.975	132.994	-0.102	-0.131
-382.960	15.563	0.191	0.150
-381.946	-156.141	0.168	0.011
-380.931	19.945	0.159	-0.128
-379.917	40.360	0.177	0.159
-378.902	-200.000	-0.046	0.336
-377.888	-4.353	0.240	0.166
-376.873	-200.000	0.039	0.217
-375.858	68.315	-0.192	-0.197
-374.844	-18.157	-0.319	-0.199
-373.829	192.609	0.083	-0.125
-372.815	350.193	0.098	0.192
-371.800	65.677	-0.327	0.330
-370.785	-200.000	0.022	-0.110
-369.771	399.229	0.045	0.093
-368.756	-32.127	0.068	0.038
-367.742	-76.995	-0.088	-0.031
-366.727	-17.869	0.261	-0.163
-365.712	287.218	0.061	-0.110
-364.698	-20.306	-0.307	0.188
-363.683	-200.000	0.013	0.318
-362.669	-106.860	-0.349	0.077
-361.654	800.000	-0.073	0.289
-360.639	285.502	-0.134	0.240
-359.625	208.233	0.154	-0.240
-358.610	-35.334	0.083	-0.045
-357.596	800.000	0.046	0.190
-356.581	-122.804	-0.174	-0.028
-355.566	800.000	-0.094	-0.272
-354.552	-51.771	-0.279	-0.129
-353.537	-146.078	-0.324	0.029
-352.523	34.843	0.108	-0.094
-351.508	700.293	0.037	-0.098
-350.493	-17.938	0.219	0.137
-349.479	-3.269	0.169	-0.117
-348.464	356.785	0.146	-0.290
-347.450	34.102	0.191	0.166
-346.435	191.987	-0.102	-0.153
-345.420	-102.114	-0.120	-0.029
-344.406	800.000	-0.070	-0.259
-343.391	-200.000	0.011	0.235
-342.377	-75.796	-0.158	0.056
-341.362	-91.218	-0.217	-0.062
-340.348	800.000	0.031	-0.125
-339.333	259.639	0.068	-0.117
-338.318	-96.793	-0.101	0.026
-337.304	296.625	-0.260	-0.475
-336.289	18.979	0.179	-0.142
-335.275	-95.540	0.105	-0.028
-334.260	-200.000	-0.019	0.168
-333.245	-200.000	0.001	0.442
-332.231	-103.591	0.062	-0.015
-331.216	57.492	0.086	-0.084
-330.202	-200.000	-0.006	0.106
-329.187	165.710	-0.044	0.063
-328.172	-200.000	0.048	-0.334
-327.158	-83.365	-0.070	0.022
-326.143	-200.000	-0.002	-0.291
-325.129	101.579	0.187	-0.216
-324.114	121.252	0.209	0.259
-323.099	61.545	-0.192	-0.190
-322.085	-190.294	0.159	0.002
-321.070	-63.158	-0.139	-0.057
-320.056	-30.823	0.177	0.099
-319.041	-20.089	-0.221	0.135
-318.026	-139.157	-0.194	0.021
-317.012	-102.007	0.368	-0.088
-315.997	-200.000	-0.034	0.298
-314.983	173.311	0.183	-0.263
-313.968	164.950	0.083	0.117
-312.953	669.043	-0.171	0.439
-311.939	112.236	0.204	-0.245
-310.924	-52.162	0.302	-0.139
-309.910	-34.311	-0.270	0.148
-308.895	82.899	-0.132	0.143
-307.880	234.023	0.178	-0.291
-306.866	800.000	0.002	-0.007
-305.851	-20.606	0.206	-0.126
-304.837	63.844	-0.057	-0.056
-303.822	284.609	0.104	0.186
-302.807	-141.466	-0.330	-0.033
-301.793	-19.599	0.127	0.078
-300.778	-163.702	0.261	0.012
-299.764	-103.147	-0.175	-0.041
-298.749	456.019	0.169	0.372
-297.735	-200.000	0.008	-0.056
-296.720	-200.000	0.027	0.391
-295.705	-55.722	-0.349	-0.155
-294.691	160.124	0.154	-0.213
-293.676	-200.000	-0.013	0.135
-292.662	676.407	0.030	0.077
-291.647	-127.909	0.102	0.015
-290.632	201.702	0.166	-0.255
-289.618	149.047	0.123	0.166
-288.603	257.782	0.037	-0.064
-287.589	800.000	0.085	0.278
-286.574	130.930	-0.130	0.166
-285.559	21.963	0.088	0.071
-284.545	-64.388	0.129	-0.052
-283.530	-200.000	0.034	-0.186
-282.516	26.038	-0.288	0.239
-281.501	-67.197	0.110	-0.043
-280.486	-200.000	-0.006	-0.100
-279.472	494.383	-0.047	-0.107
-278.457	800.000	0.023	-0.079
-277.443	6.081	0.157	-0.116
-276.428	372.851	-0.086	-0.173
-275.413	471.531	-0.052	0.116
-274.399	-200.000	0.002	0.176
-273.384	800.000	-0.128	-0.424
-272.370	-200.000	0.042	-0.185
-271.355	37.254	0.143	-0.126
-270.340	-133.039	-0.101	-0.013
-269.326	188.391	-0.228	-0.339
-268.311	-200.000	0.015	0.239
-267.297	104.830	-0.172	-0.201
-266.282	-200.000	-0.009	-0.265
-265.267	70.621	-0.088	-0.091
-264.253	800.000	-0.098	-0.289
-263.238	353.838	0.097	-0.191
-262.224	360.589	0.155	-0.307
-261.209	-151.367	0.189	-0.014
-260.195	800.000	-0.113	0.369
-259.180	-157.381	0.383	-0.023
-258.165	-200.000	-0.063	0.275
-257.151	649.569	0.146	0.370
-256.136	15.263	0.131	0.102
-255.122	-163.957	0.163	0.008
-254.107	-112.744	0.271	-0.053
-253.092	176.811	-0.314	0.452
-252.078	-53.247	0.217	0.099
-251.063	-99.529	0.241	0.060
-250.049	-51.966	-0.144	-0.067
-249.034	134.570	-0.078	-0.100
-248.019	-65.435	0.356	0.142
-247.005	-168.838	-0.307	-0.011
-245.990	127.095	-0.049	-0.062
-244.976	-117.350	0.216	-0.039
-243.961	-200.000	-0.063	-0.412
-242.946	-29.320	0.109	0.062
-241.932	-133.540	-0.293	-0.036
-240.917	-200.000	0.044	-0.229
-239.903	376.268	-0.121	0.245
-238.888	238.897	0.118	-0.195
-237.873	126.300	-0.196	0.246
-236.859	187.414	0.027	0.040
-235.844	-200.000	-0.005	-0.025
-234.830	-200.000	-0.005	-0.249
-233.815	238.951	0.114	-0.188
-232.800	64.730	0.017	0.017
-231.786	-128.825	-0.477	-0.067
-230.771	-78.631	-0.187	-0.063
-229.757	800.000	-0.066	0.241
-228.742	800.000	-0.058	0.160
-227.727	28.762	0.068	-0.057
-226.713	40.271	0.123	0.110
-225.698	-117.151	-0.369	-0.067
-224.684	-20.851	0.045	0.028
-223.669	153.693	-0.202	0.275
-222.655	-111.267	0.116	-0.023
-221.640	46.766	0.093	0.085
-220.625	-200.000	-0.003	-0.019
-219.611	31.322	-0.191	-0.163
-218.596	93.009	-0.062	-0.069
-217.582	20.427	0.066	-0.053
-216.567	-53.289	-0.225	0.102
-215.552	497.613	0.034	-0.077
-214.538	-200.000	-0.057	0.317
-213.523	-87.311	0.146	-0.044
-212.509	104.201	0.134	-0.156
-211.494	70.476	-0.168	0.172
-210.479	731.456	-0.039	-0.102
-209.465	-50.736	0.058	-0.027
-208.450	129.449	-0.160	0.203
-207.436	16.552	0.116	-0.091
-206.421	405.282	-0.040	-0.083
-205.406	26.136	0.043	0.036
-204.392	-200.000	0.050	0.366
-203.377	-200.000	0.011	0.409
-202.363	-109.418	-0.189	0.040
-201.348	-200.000	-0.016	-0.103
-200.333	-126.897	-0.113	-0.017
-199.319	-141.507	-0.234	-0.023
-198.304	-121.423	0.359	0.059
-197.290	-200.000	0.003	0.030
-196.275	-87.756	-0.128	0.038
-195.260	490.774	0.063	0.144
-194.246	-110.205	0.177	0.036
-193.231	-20.109	0.109	0.067
-192.217	209.862	-0.219	-0.341
-191.202	685.205	0.081	0.210
-190.187	-116.004	-0.127	0.023
-189.173	259.556	-0.016	0.028
-188.158	-200.000	0.013	-0.072
-187.144	409.861	-0.042	0.087
-186.129	40.275	-0.079	0.070
-185.114	64.803	-0.074	0.074
-184.100	-27.050	-0.172	-0.099
-183.085	263.845	-0.136	0.235
-182.071	437.481	-0.013	0.029
-181.056	-2.998	0.151	-0.104
-180.042	-136.704	-0.049	0.006
-179.027	456.339	0.074	0.162
-178.012	433.273	0.232	-0.498
-176.998	-19.188	0.120	-0.074
-175.983	98.615	-0.173	-0.197
-174.969	-200.000	0.024	-0.163
-173.954	162.688	0.180	0.250
-172.939	-65.289	0.198	-0.079
-171.925	-2.959	-0.226	-0.156
-170.910	34.845	-0.116	0.101
-169.896	-200.000	-0.017	-0.188
-168.881	63.217	-0.154	-0.153
-167.866	113.976	0.165	0.198
-166.852	3.394	-0.057	0.041
-165.837	-200.000	0.055	0.382
-164.823	655.194	-0.012	0.031
-163.808	-185.510	0.234	0.004
-162.793	12.205	0.130	-0.099
-161.779	-200.000	-0.012	0.094
-160.764	800.000	-0.019	-0.072
-159.750	-2.043	0.175	0.122
-158.735	-78.815	-0.119	0.040
-157.720	39.946	-0.158	-0.141
-156.706	-119.895	-0.180	-0.031
-155.691	462.147	-0.059	0.131
-154.677	-41.614	0.120	0.061
-153.662	22.076	0.111	-0.089
-152.647	-200.000	-0.054	-0.328
-151.633	-108.344	0.121	0.026
-150.618	-200.000	-0.016	-0.327
-149.604	-172.550	-0.469	0.015
-148.589	-107.069	0.182	-0.040
-147.574	616.230	0.174	-0.431
-146.560	-77.741	0.460	0.157
-145.545	-100.693	-0.212	0.052
-144.531	203.521	0.096	-0.146
-143.516	-30.492	0.161	0.090
-142.502	-200.000	-0.000	-0.021
-141.487	118.807	0.088	0.108
-140.472	-170.366	0.361	0.013
-139.458	312.213	-0.136	-0.253
-138.443	531.233	0.066	0.154
-137.429	-200.000	0.024	0.170
-136.414	-134.352	0.354	-0.043
-135.399	356.720	-0.046	0.090
-134.385	-200.000	-0.054	0.476
-133.370	184.959	0.091	-0.134
-132.356	-90.160	-0.103	0.030
-131.341	258.659	-0.177	0.302
-130.326	-200.000	0.011	0.276
-129.312	-132.260	0.118	-0.015
-128.297	800.000	0.046	-0.191
-127.283	324.492	-0.107	-0.201
-126.268	214.544	0.186	-0.291
-125.253	-75.161	0.079	-0.028
-124.239	-122.463	0.291	0.047
-123.224	466.322	0.074	-0.163
-122.210	-200.000	0.010	0.106
-121.195	800.000	0.049	-0.197
-120.180	52.994	0.028	0.027
-119.166	-41.021	0.081	-0.041
-118.151	-102.207	0.451	-0.107
-117.137	-200.000	0.063	-0.277
-116.122	-200.000	0.072	0.347
-115.107	-38.141	0.294	-0.154
-114.093	-85.915	-0.188	0.057
-113.078	1.946	0.102	0.073
-112.064	-21.313	0.154	-0.093
-111.049	-103.712	0.113	-0.026
-110.034	653.395	-0.174	-0.441
-109.020	-84.039	0.136	0.043
-108.005	-28.017	0.272	0.155
-106.991	225.665	0.036	0.058
-105.976	-200.000	-0.054	-0.273
-104.962	-106.721	0.130	0.028
-103.947	0.354	-0.023	0.017
-102.932	40.177	0.126	-0.112
-101.918	-120.866	-0.367	-0.061
-100.903	151.310	-0.142	0.190
-99.889	-200.000	0.050	0.376
-98.874	-200.000	0.043	0.205
-97.859	-29.249	-0.207	0.117
-96.845	376.692	0.115	0.232
-95.830	-200.000	0.040	0.276
-94.816	161.309	0.044	-0.060
-93.801	52.143	0.278	-0.262
-92.786	-46.224	0.125	-0.060
-91.772	11.152	-0.178	-0.134
-90.757	-17.856	-0.183	-0.113
-89.743	-200.000	-0.047	0.261
-88.728	-75.390	-0.167	-0.059
-87.713	16.955	0.114	-0.089
-86.699	28.284	-0.167	0.139
-85.684	109.200	0.149	0.176
-84.670	-123.519	0.371	0.058
-83.655	-147.877	0.275	-0.023
-82.640	360.602	-0.083	0.164
-81.626	-200.000	0.027	-0.244
-80.611	75.551	-0.048	-0.050
-79.597	-200.000	-0.064	-0.301
-78.582	-66.527	0.235	-0.092
-77.567	-57.759	0.409	0.176
-76.553	-200.000	0.036	0.292
-75.538	13.879	0.246	0.188
-74.524	322.411	0.106	0.199
-73.509	311.641	-0.144	-0.267
-72.494	-46.079	-0.165	-0.080
-71.480	-148.425	-0.293	-0.024
-70.465	-120.080	0.180	-0.030
-69.451	610.058	-0.134	-0.329
-68.436	-91.329	0.344	-0.097
-67.422	11.106	0.082	-0.062
-66.407	-64.447	0.189	-0.076
-65.392	800.000	0.022	-0.069
-64.378	48.683	0.369	0.341
-63.363	53.190	-0.126	-0.119
-62.349	-13.380	-0.164	-0.105
-61.334	6.679	-0.902	-0.660
-60.319	-47.616	0.542	0.259
-59.305	-200.000	0.203	-0.910
-58.290	263.177	0.615	1.052
-57.276	800.000	0.587	1.714
-56.261	-200.000	95.666	595.522
-55.246	567.217	1371.956	3278.774
-54.232	160.993	2550.133	3507.245
-53.217	112.171	2163.439	2574.165
-52.203	42.814	1708.185	1531.934
-51.188	35.312	1521.849	1313.624
-50.173	32.978	1494.982	1274.653
-49.159	52.118	1543.896	1448.042
-48.144	53.922	1561.526	1476.891
-47.130	35.612	1520.997	1314.733
-46.115	32.393	1506.334	1280.149
-45.100	32.307	1502.986	1276.667
-44.086	32.241	1501.168	1274.623
-43.071	32.181	1499.505	1272.755
-42.057	32.133	1497.940	1271.051
-41.042	32.238	1496.435	1270.438
-40.027	32.195	1495.117	1268.979
-39.013	32.218	1493.502	1267.712
-37.998	32.156	1492.095	1266.045
-36.984	32.188	1491.442	1265.657
-35.969	32.201	1489.936	1264.418
-34.954	32.192	1488.358	1262.971
-33.940	32.215	1486.998	1261.920
-32.925	32.189	1485.647	1260.549
-31.911	32.120	1484.400	1258.978
-30.896	32.228	1482.470	1258.016
-29.881	32.293	1481.234	1257.348
-28.867	32.244	1480.286	1256.169
-27.852	32.276	1478.590	1254.892
-26.838	32.235	1477.144	1253.339
-25.823	32.266	1475.648	1252.230
-24.809	32.116	1474.421	1250.142
-23.794	32.197	1472.757	1249.217
-22.779	32.212	1471.504	1248.203
-21.765	32.215	1470.359	1247.204
-20.750	32.203	1469.058	1245.971
-19.736	32.150	1468.320	1244.941
-18.721	32.129	1467.321	1243.907
-17.706	32.176	1465.652	1242.753
-16.692	32.180	1464.990	1242.172
-15.677	32.236	1463.710	1241.405
-14.663	32.193	1462.759	1240.267
-13.648	32.209	1461.801	1239.512
-12.633	32.112	1460.900	1238.061
-11.619	32.221	1459.764	1237.766
-10.604	32.165	1459.081	1236.767
-9.590	32.035	1458.341	1235.233
-8.575	32.245	1457.085	1235.504
-7.560	32.236	1456.259	1234.695
-6.546	32.139	1455.713	1233.546
-5.531	32.212	1454.694	1233.115
-4.517	32.108	1453.982	1231.779
-3.502	32.191	1452.337	1230.882
-2.487	32.204	1451.088	1229.860
-1.473	32.174	1450.541	1229.145
-0.458	32.183	1448.832	1227.708
0.556	32.022	1439.576	1216.741
1.571	29.136	1414.461	1176.993
2.586	25.842	1358.461	1110.041
3.600	24.252	1279.060	1035.835
4.615	23.055	1231.959	990.898
5.629	19.320	1173.935	924.160
6.644	9.757	1087.230	808.127
7.659	2.691	1046.717	743.762
8.673	1.710	1041.624	735.340
9.688	1.605	1037.926	732.163
10.702	1.502	1036.540	730.623
11.717	1.494	1034.449	729.045
12.731	4.327	1037.473	744.725
13.746	13.916	1051.649	801.300
14.761	22.332	1062.074	850.006
15.775	24.700	1064.685	863.474
16.790	24.950	1064.657	864.583
17.804	24.822	1063.581	863.013
18.819	24.748	1062.327	861.562
19.834	24.771	1062.100	861.416
20.848	25.053	1061.286	862.033
21.863	25.130	1061.330	862.364
22.877	25.102	1060.850	861.764
23.892	24.901	1060.535	860.467
24.907	24.945	1059.173	859.497
25.921	24.857	1058.913	858.787
26.936	24.923	1058.010	858.292
27.950	24.948	1056.723	857.294
28.965	24.893	1055.764	856.177
29.980	24.796	1054.294	854.443
30.994	24.683	1053.459	853.152
32.009	25.011	1052.293	853.699
33.023	24.982	1051.764	853.054
34.038	24.776	1050.692	851.129
35.053	24.744	1049.969	850.317
36.067	24.983	1049.174	850.732
37.082	24.980	1048.362	849.986
38.096	24.951	1047.811	849.323
39.111	25.048	1047.230	849.241
40.126	25.280	1045.904	849.184
41.140	25.155	1044.922	847.723
42.155	24.849	1043.653	845.173
43.169	24.623	1042.088	842.767
44.184	24.557	1041.561	841.952
45.199	24.529	1040.384	840.795
46.213	24.636	1038.918	840.040
47.228	24.516	1038.646	839.182
48.242	24.771	1037.735	839.566
49.257	24.868	1037.106	839.442
50.271	24.842	1036.527	838.778
51.286	25.041	1035.869	839.102
52.301	25.063	1035.331	838.694
53.315	25.067	1034.579	838.030
54.330	24.933	1033.995	836.853
55.344	24.913	1032.834	835.751
56.359	24.934	1032.026	835.121
57.374	24.911	1031.236	834.297
58.388	24.692	1030.514	832.620
59.403	24.718	1029.722	832.027
60.417	24.758	1028.923	831.495
61.432	24.640	1027.938	830.076
62.447	24.516	1027.581	829.138
63.461	24.676	1026.894	829.256
64.476	24.655	1026.229	828.545
65.490	24.682	1025.287	827.839
66.505	24.527	1024.612	826.502
67.520	24.634	1023.754	826.232
68.534	24.645	1022.866	825.494
69.549	24.611	1021.864	824.454
70.563	24.307	1020.527	821.902
71.578	24.094	1020.181	820.568
72.593	24.355	1019.041	820.783
73.607	24.086	1018.241	818.827
74.622	24.125	1016.884	817.842
75.636	24.362	1016.348	818.428
76.651	24.471	1016.008	818.582
77.666	24.354	1014.940	817.112
78.680	24.404	1013.880	816.414
79.695	24.382	1013.733	816.125
80.709	24.462	1013.033	815.852
81.724	24.541	1012.375	815.611
82.739	24.627	1011.044	814.860
83.753	24.585	1010.351	814.035
84.768	24.803	1010.089	814.746
85.782	25.077	1009.788	815.679
86.797	25.444	1008.615	816.327
87.812	25.192	1007.965	814.583
88.826	25.045	1006.736	812.851
89.841	25.035	1006.286	812.370
90.855	25.157	1004.982	811.800
91.870	25.230	1004.287	811.495
92.884	25.271	1003.774	811.197
93.899	25.055	1002.613	809.210
94.914	25.005	1001.624	808.114
95.928	25.156	1000.902	808.144
96.943	25.112	1000.315	807.397
97.957	24.837	999.141	805.144
98.972	24.731	997.715	803.443
99.987	24.423	996.948	801.375
101.001	24.446	996.452	801.009
102.016	24.842	995.522	801.965
103.030	24.919	994.523	801.432
104.045	24.908	993.609	800.577
105.060	24.828	992.340	799.128
106.074	24.615	991.708	797.594
107.089	24.586	990.749	796.623
108.103	24.901	990.576	797.820
109.118	24.950	989.791	797.334
110.133	24.554	988.756	794.669
111.147	24.672	987.558	794.160
112.162	24.640	986.153	792.818
113.176	24.325	985.577	790.887
114.191	24.321	985.217	790.509
115.206	24.559	983.795	790.353
116.220	24.207	982.721	787.865
117.235	24.205	981.683	786.954
118.249	24.351	981.374	787.282
119.264	24.475	980.392	786.970
120.279	24.190	979.604	785.011
121.293	24.307	978.718	784.747
122.308	24.477	977.838	784.720
123.322	24.303	977.391	783.528
124.337	24.337	976.235	782.680
125.352	24.108	975.069	780.673
126.366	23.791	973.208	777.726
127.381	23.415	971.960	775.016
128.395	23.907	972.342	777.404
129.410	24.663	971.601	780.045
130.424	24.812	971.321	780.399
131.439	24.716	970.401	779.172
132.454	24.741	969.389	778.400
133.468	24.685	968.534	777.401
134.483	24.709	967.783	776.834
135.497	24.811	966.742	776.373
136.512	25.089	966.374	777.216
137.527	24.977	965.947	776.318
138.541	25.053	964.678	775.558
139.556	25.228	964.038	775.730
140.570	25.082	963.340	774.470
141.585	25.018	962.852	773.733
142.600	25.102	962.002	773.342
143.614	25.143	960.661	772.374
144.629	25.221	960.003	772.112
145.643	25.397	959.764	772.608
146.658	25.356	958.589	771.420
147.673	25.158	957.082	769.287
148.687	25.095	955.942	768.035
149.702	24.878	955.321	766.540
150.716	24.690	954.546	765.043
151.731	24.717	953.715	764.425
152.746	24.880	952.361	763.968
153.760	24.983	952.288	764.283
154.775	25.168	951.320	764.223
155.789	25.245	950.528	763.850
156.804	25.374	949.254	763.307
157.819	25.170	948.637	761.876
158.833	25.199	947.467	760.991
159.848	25.265	947.070	760.887
160.862	25.453	946.086	760.826
161.877	25.155	945.515	759.035
162.892	25.130	944.459	758.018
163.906	25.258	943.241	757.510
164.921	25.211	942.701	756.813
165.935	25.233	941.825	756.136
166.950	25.281	940.636	755.317
167.964	25.276	939.955	754.680
168.979	25.135	939.160	753.383
169.994	25.111	938.218	752.461
171.008	24.867	936.996	750.392
172.023	25.077	936.204	750.572
173.037	25.354	935.735	751.287
174.052	25.141	934.710	749.505
175.067	25.044	933.424	748.004
176.081	24.936	932.827	747.008
177.096	25.038	931.926	746.647
178.110	25.116	931.003	746.166
179.125	24.817	930.157	744.179
180.140	24.568	928.905	742.079
181.154	24.747	928.135	742.137
182.169	24.798	927.876	742.077
183.183	24.941	927.423	742.241
184.198	25.254	927.297	743.373
185.213	25.196	926.466	742.400
186.227	24.941	926.032	740.934
187.242	25.229	925.574	741.693
188.256	25.194	924.751	740.821
189.271	25.155	924.253	740.196
190.286	25.336	923.332	740.141
191.300	25.175	922.808	738.990
192.315	24.563	921.697	735.515
193.329	23.874	919.455	730.832
194.344	23.455	918.423	728.227
195.359	24.112	919.022	731.336
196.373	24.811	919.428	734.463
197.388	25.104	919.203	735.420
198.402	25.182	918.411	735.041
199.417	25.236	917.259	734.277
200.432	25.295	917.323	734.503
201.446	25.165	916.300	733.090
202.461	24.648	915.873	730.571
203.475	24.866	915.294	730.931
204.490	24.417	913.939	727.955
205.504	23.225	911.820	721.351
206.519	23.557	911.898	722.700
207.534	24.570	911.941	726.793
208.548	24.741	911.555	727.118
209.563	24.918	911.440	727.682
210.577	25.009	910.790	727.466
211.592	24.772	909.881	725.712
212.607	25.258	909.723	727.494
213.621	25.260	909.521	727.276
214.636	25.356	908.379	726.687
215.650	25.266	908.259	726.163
216.665	25.185	906.944	724.722
217.680	25.186	906.760	724.514
218.694	25.408	906.106	724.821
219.709	24.904	905.357	722.126
220.723	24.775	903.952	720.425
221.738	24.911	904.043	720.978
222.753	25.116	903.365	721.199
223.767	25.032	902.459	720.078
224.782	25.164	901.961	720.146
225.796	25.263	901.845	720.386
226.811	25.357	901.042	720.057
227.826	25.055	899.631	717.656
228.840	24.184	898.302	713.048
229.855	24.242	897.470	712.559
230.869	24.555	896.997	713.369
231.884	24.164	896.200	711.111
232.899	24.079	895.928	710.493
233.913	24.925	895.948	713.822
234.928	24.951	895.713	713.674
235.942	24.871	895.248	712.922
236.957	24.960	894.405	712.540
237.972	24.740	893.250	710.685
238.986	24.639	892.521	709.640
240.001	24.710	892.104	709.530
241.015	24.761	891.432	709.131
242.030	24.751	891.004	708.689
243.045	24.943	890.809	709.234
244.059	25.094	890.026	709.145
245.074	25.245	889.530	709.282
246.088	25.302	888.559	708.669
247.103	24.824	887.789	706.110
248.117	24.797	887.430	705.652
249.132	25.330	887.259	707.558
250.147	25.707	887.324	709.033
251.161	25.761	886.922	708.859
252.176	26.014	886.520	709.472
253.190	25.989	885.690	708.646
254.205	25.993	885.187	708.198
255.220	26.111	885.006	708.451
256.234	26.224	884.300	708.266
257.249	26.051	883.371	706.785
258.263	25.967	882.711	705.866
259.278	25.866	882.541	705.271
260.293	25.994	881.649	704.993
261.307	26.014	881.473	704.869
262.322	26.048	880.300	704.004
263.336	25.982	879.527	703.064
264.351	25.492	878.464	700.244
265.366	24.375	876.493	694.268
266.380	23.811	875.677	691.367
267.395	24.779	875.742	695.121
268.409	25.609	876.072	698.544
269.424	25.445	875.565	697.442
270.439	25.687	875.235	698.054
271.453	25.759	874.789	697.917
272.468	25.748	874.070	697.240
273.482	25.891	873.582	697.342
274.497	26.211	873.049	698.092
275.512	25.740	872.162	695.502
276.526	25.168	870.677	692.049
277.541	25.469	870.493	693.004
278.555	25.917	870.096	694.351
279.570	25.681	869.356	692.793
280.585	25.527	868.792	691.688
281.599	25.553	868.637	691.606
282.614	25.686	867.826	691.407
283.628	25.294	867.041	689.217
284.643	24.879	866.152	686.856
285.657	25.292	866.012	688.268
286.672	25.259	865.045	687.313
287.687	24.696	864.201	684.430
288.701	25.010	864.169	685.543
289.716	25.559	863.738	687.241
290.730	25.106	863.077	684.921
291.745	24.976	862.495	683.903
292.760	24.795	861.411	682.295
293.774	24.791	860.701	681.655
294.789	25.798	861.240	685.858
295.803	26.338	861.388	687.973
296.818	26.169	861.023	686.979
297.833	26.470	860.362	687.535
298.847	26.044	859.344	685.042
299.862	25.657	858.527	682.862
300.876	25.938	858.016	683.460
301.891	26.148	857.816	684.036
302.906	26.417	856.994	684.338
303.920	25.993	855.984	681.869
304.935	25.888	855.371	680.922
305.949	26.251	855.247	682.133
306.964	26.394	854.594	682.092
307.979	25.985	854.305	680.261
308.993	26.091	853.577	680.017
310.008	26.449	853.103	680.929
311.022	26.418	853.265	680.881
312.037	26.297	852.224	679.536
313.052	26.149	851.368	678.237
314.066	25.859	850.996	676.793
315.081	25.179	849.750	673.188
316.095	24.630	847.956	669.650
317.110	25.241	847.988	671.905
318.125	26.005	848.415	675.047
319.139	25.546	847.501	672.544
320.154	24.346	845.543	666.450
321.168	23.925	844.749	664.191
322.183	24.543	845.431	666.979
323.197	25.592	845.463	670.859
324.212	25.829	845.172	671.453
325.227	25.926	845.024	671.638
326.241	26.132	844.323	671.786
327.256	25.982	843.735	670.701
328.270	25.875	843.123	669.758
329.285	25.907	842.385	669.231
330.300	25.788	841.567	668.080
331.314	25.457	841.024	666.365
332.329	25.541	840.249	666.001
333.343	25.842	840.075	666.919
334.358	26.093	840.088	667.800
335.373	26.189	839.287	667.461
336.387	26.104	839.013	666.869
337.402	26.390	838.746	667.653
338.416	26.751	837.951	668.293
339.431	26.685	837.312	667.482
340.446	26.651	836.889	666.961
341.460	26.647	837.019	666.989
342.475	26.837	835.585	666.487
343.489	26.586	835.010	665.047
344.504	26.616	834.482	664.678
345.519	26.682	834.582	664.940
346.533	26.985	834.270	665.743
347.548	26.994	833.937	665.453
348.562	27.035	833.213	664.965
349.577	26.954	832.445	663.998
350.592	26.855	832.072	663.281
351.606	26.780	832.071	662.945
352.621	26.797	831.482	662.478
353.635	26.909	830.129	661.753
354.650	26.853	829.983	661.374
355.665	26.392	828.970	658.828
356.679	25.387	827.389	653.858
357.694	25.199	827.066	652.860
358.708	25.989	826.879	655.528
359.723	25.933	826.267	654.779
360.738	26.086	826.185	655.211
361.752	26.517	825.850	656.453
362.767	26.675	825.560	656.738
363.781	26.819	825.632	657.258
364.796	27.304	825.249	658.653
365.810	27.301	824.910	658.314
366.825	27.608	824.207	658.803
367.840	27.296	824.418	657.785
368.854	27.146	823.414	656.383
369.869	26.857	822.562	654.603
370.883	26.590	822.127	653.236
371.898	26.757	821.460	653.252
372.913	26.709	820.644	652.372
373.927	26.613	820.051	651.497
374.942	26.766	819.537	651.582
375.956	26.923	819.089	651.731
376.971	26.987	818.656	651.559
377.986	27.208	818.072	651.830
379.000	27.434	817.270	651.941
380.015	27.334	817.305	651.554
381.029	27.206	816.661	650.526
382.044	27.124	815.781	649.472
383.059	27.381	815.295	649.945
384.073	27.166	815.296	649.121
385.088	27.404	814.346	649.158
386.102	27.343	813.874	648.505
387.117	27.199	813.180	647.383
388.132	26.893	812.698	645.853
389.146	26.872	811.908	645.093
390.161	26.338	810.760	642.226
391.175	26.299	810.793	642.059
392.190	26.914	810.630	644.057
393.205	26.932	810.200	643.718
394.219	26.068	808.385	639.160
395.234	24.306	805.709	630.762
396.248	23.465	805.017	627.193
397.263	24.780	805.724	632.341
398.278	26.480	807.242	639.488
399.292	26.900	807.258	640.928
400.307	26.567	806.388	639.007
401.321	26.321	806.145	637.890
402.336	26.631	805.927	638.754
403.350	26.918	805.903	639.690
404.365	27.333	805.578	640.837
405.380	27.494	805.516	641.299
406.394	27.825	805.494	642.388
407.409	28.125	804.964	642.963
408.423	28.078	803.995	641.966
409.438	28.051	803.730	641.606
410.453	27.962	803.532	641.077
411.467	28.028	803.045	640.866
412.482	28.063	802.320	640.351
413.496	27.883	802.066	639.462
414.511	28.053	801.617	639.640
415.526	28.152	800.871	639.337
416.540	28.021	800.871	638.823
417.555	27.928	800.381	638.050
418.569	27.882	799.051	636.774
419.584	27.630	799.079	635.861
420.599	27.610	798.968	635.645
421.613	110.075	1286.181	1459.279
422.628	94.859	1357.135	1459.385
