DTS Sentinel unit serial number:	SN413079Multiplexer serial number:	ORYXHardware model number:	OX4-SRSoftware version number:	ORYX F/W v4.00 Oryx Data Collector v3.7.2.0data status	okinstallation	princeton_trtdifferential loss correction	single-endedforward channel	channel 3reverse channel	N/Adate	2019/09/10time	20:14:11forward acquisition time	60.00reverse acquisition time	0.00gamma	496.2192k internal	0.2326k external	0.2326temperature offset calibration	0.9919default loss term (dB/km)	0.3790temperature slope calibration	1.0000multiplexer offset coefficient	1.0000multiplexer slope coefficient	1.0000fibre end	0.00T internal ref (°C)	32.34T ext. ref 1 (°C)	-0.31T ext. ref 2 (°C)	25.33length (m)	temperature (°C)	Stokes	anti-Stokes-747.200	130.392	-0.107	0.138
-746.185	-200.000	-0.012	0.209
-745.171	-200.000	-0.042	0.243
-744.156	800.000	0.122	-0.392
-743.142	800.000	-0.114	-0.371
-742.127	-120.254	-0.203	0.035
-741.112	-200.000	-0.014	0.173
-740.098	800.000	0.063	-0.223
-739.083	800.000	0.104	0.325
-738.069	62.260	0.099	0.100
-737.054	67.466	0.248	-0.255
-736.039	-34.504	-0.295	0.163
-735.025	-200.000	-0.008	0.094
-734.010	-200.000	-0.061	-0.374
-732.996	-92.131	0.066	-0.019
-731.981	-27.070	-0.206	-0.121
-730.966	43.835	0.160	-0.148
-729.952	-70.870	-0.217	-0.082
-728.937	-160.343	0.062	0.003
-727.923	-61.532	-0.359	-0.152
-726.908	292.037	-0.211	-0.387
-725.894	-77.919	-0.134	0.047
-724.879	-59.991	-0.362	0.156
-723.864	150.555	0.197	0.269
-722.850	213.984	0.165	0.264
-721.835	19.424	-0.021	-0.017
-720.821	-135.899	-0.390	0.046
-719.806	-173.661	-0.171	0.005
-718.791	465.111	-0.030	-0.068
-717.777	-103.463	0.242	0.057
-716.762	-99.405	0.079	0.020
-715.748	-18.650	0.232	-0.146
-714.733	27.914	-0.224	-0.190
-713.718	-3.300	-0.205	0.144
-712.704	-34.420	-0.188	-0.104
-711.689	-22.359	0.141	0.086
-710.675	-200.000	-0.053	0.330
-709.660	94.138	-0.379	-0.434
-708.645	-112.785	-0.200	0.040
-707.631	-200.000	0.021	-0.156
-706.616	-11.429	-0.033	-0.022
-705.602	-200.000	-0.004	-0.217
-704.587	-19.344	-0.199	0.124
-703.572	603.805	0.100	-0.251
-702.558	-36.463	0.189	-0.102
-701.543	-84.287	-0.065	0.021
-700.529	-200.000	0.011	-0.060
-699.514	-128.804	-0.064	-0.009
-698.499	800.000	0.080	0.227
-697.485	-200.000	-0.057	0.273
-696.470	134.918	0.186	0.244
-695.456	-149.559	0.025	0.002
-694.441	-19.014	0.369	0.231
-693.426	-200.000	-0.016	-0.144
-692.412	-76.817	0.260	-0.092
-691.397	198.347	0.014	0.021
-690.383	-17.649	0.237	0.150
-689.368	-40.164	0.208	0.109
-688.354	-152.587	0.293	0.021
-687.339	800.000	-0.049	-0.177
-686.324	-70.706	0.079	-0.030
-685.310	-200.000	-0.026	0.293
-684.295	-11.918	-0.115	0.076
-683.281	-175.428	-0.155	0.004
-682.266	-200.000	0.068	0.511
-681.251	800.000	-0.054	0.222
-680.237	800.000	0.022	-0.097
-679.222	132.011	-0.145	-0.188
-678.208	-62.592	0.147	-0.061
-677.193	188.923	0.052	0.078
-676.178	800.000	-0.070	0.262
-675.164	-200.000	0.036	0.277
-674.149	-200.000	0.024	0.547
-673.135	-200.000	-0.043	-0.405
-672.120	-46.107	0.087	0.043
-671.105	-0.451	0.203	0.145
-670.091	-15.652	-0.320	0.205
-669.076	-200.000	0.036	-0.166
-668.062	800.000	0.047	-0.205
-667.047	-145.231	0.211	0.019
-666.032	-63.263	0.079	0.033
-665.018	-69.810	-0.178	0.068
-664.003	-164.869	-0.169	-0.008
-662.989	-72.430	0.327	-0.122
-661.974	66.067	0.247	0.252
-660.959	398.326	0.091	-0.191
-659.945	58.189	0.068	-0.067
-658.930	-31.181	0.300	-0.170
-657.916	800.000	0.055	-0.155
-656.901	-97.353	-0.387	-0.101
-655.886	-128.934	0.154	-0.022
-654.872	-10.910	0.173	-0.115
-653.857	-124.143	-0.252	-0.040
-652.843	83.274	0.123	-0.134
-651.828	46.498	0.165	-0.153
-650.814	-2.273	0.143	-0.101
-649.799	78.896	-0.131	0.141
-648.784	-107.425	-0.627	0.138
-647.770	106.181	-0.054	0.065
-646.755	36.600	-0.265	0.235
-645.741	-129.442	-0.211	-0.029
-644.726	-3.738	0.285	0.199
-643.711	-71.534	-0.160	0.060
-642.697	-145.521	-0.488	-0.044
-641.682	99.604	0.070	0.081
-640.668	-43.047	-0.110	-0.056
-639.653	85.988	0.082	-0.091
-638.638	221.614	0.184	0.297
-637.624	-126.147	0.170	-0.026
-636.609	-25.468	0.164	-0.097
-635.595	-25.531	0.248	-0.147
-634.580	43.648	0.124	0.114
-633.565	-200.000	0.008	-0.118
-632.551	800.000	-0.073	-0.239
-631.536	407.946	-0.163	-0.346
-630.522	46.446	-0.310	0.289
-629.507	-140.217	0.214	0.023
-628.492	-42.642	-0.203	0.104
-627.478	100.705	-0.179	-0.209
-626.463	-84.887	0.094	-0.030
-625.449	-73.953	-0.230	-0.084
-624.434	28.310	-0.138	-0.117
-623.419	-69.629	0.123	-0.047
-622.405	800.000	0.006	-0.028
-621.390	-200.000	0.071	-0.453
-620.376	-200.000	0.047	-0.294
-619.361	162.459	0.010	-0.014
-618.346	-30.423	0.061	0.035
-617.332	-181.014	0.669	0.013
-616.317	-10.909	0.317	0.210
-615.303	-70.261	-0.134	-0.051
-614.288	1.998	-0.090	-0.065
-613.273	235.414	0.137	0.226
-612.259	-16.915	-0.150	-0.095
-611.244	48.116	0.116	0.109
-610.230	-13.734	-0.158	-0.102
-609.215	-200.000	0.007	0.111
-608.201	-44.172	-0.492	-0.248
-607.186	16.359	-0.232	0.184
-606.171	77.413	0.098	0.104
-605.157	800.000	0.080	-0.294
-604.142	-77.246	0.255	0.089
-603.128	800.000	0.007	0.025
-602.113	366.753	-0.001	0.002
-601.098	-156.046	-0.128	0.008
-600.084	265.811	0.130	-0.227
-599.069	-200.000	-0.142	0.000
-598.055	-6.322	0.138	-0.095
-597.040	142.433	-0.082	-0.109
-596.025	114.271	0.127	0.155
-595.011	-200.000	-0.009	-0.088
-593.996	-22.426	0.260	0.158
-592.982	-99.460	-0.011	-0.003
-591.967	15.757	0.275	-0.217
-590.952	113.265	-0.223	-0.271
-589.938	446.352	0.038	-0.085
-588.923	-128.549	0.226	-0.032
-587.909	364.794	-0.164	0.331
-586.894	800.000	-0.052	-0.164
-585.879	800.000	0.101	-0.288
-584.865	-42.234	-0.232	-0.119
-583.850	376.484	-0.089	-0.183
-582.836	-12.670	0.180	-0.118
-581.821	117.227	0.033	0.040
-580.806	800.000	0.035	-0.107
-579.792	-200.000	-0.025	0.171
-578.777	726.515	-0.049	0.131
-577.763	-94.886	0.201	0.055
-576.748	730.777	0.086	0.231
-575.733	139.406	-0.264	0.349
-574.719	-145.133	-0.202	0.018
-573.704	-95.958	0.154	0.041
-572.690	594.146	0.047	-0.117
-571.675	128.328	-0.133	-0.169
-570.661	800.000	0.061	0.181
-569.646	95.395	0.056	0.064
-568.631	-200.000	0.014	0.148
-567.617	210.491	0.099	-0.156
-566.602	129.285	-0.079	-0.101
-565.588	55.733	0.127	-0.123
-564.573	-118.144	-0.142	-0.025
-563.558	3.841	0.078	-0.057
-562.544	322.991	0.169	0.322
-561.529	265.671	0.218	0.381
-560.515	800.000	0.062	-0.209
-559.500	-200.000	0.037	-0.244
-558.485	-83.918	0.167	-0.053
-557.471	186.797	-0.209	0.312
-556.456	140.272	-0.122	-0.161
-555.442	-49.835	0.401	0.191
-554.427	565.759	-0.066	-0.159
-553.412	-1.282	-0.418	-0.295
-552.398	-66.263	0.186	-0.074
-551.383	-95.426	-0.096	0.026
-550.369	250.628	0.039	0.066
-549.354	39.545	-0.190	0.170
-548.339	170.763	-0.068	-0.097
-547.325	-75.812	-0.206	-0.073
-546.310	117.732	0.120	-0.147
-545.296	-94.055	-0.161	0.044
-544.281	-200.000	-0.003	-0.553
-543.266	-109.708	-0.350	-0.074
-542.252	-44.522	0.102	0.051
-541.237	79.894	0.066	0.071
-540.223	-200.000	-0.026	-0.382
-539.208	-91.153	-0.302	0.087
-538.193	-200.000	0.023	0.285
-537.179	128.708	-0.064	0.082
-536.164	-21.796	0.135	-0.082
-535.150	800.000	0.057	-0.189
-534.135	-14.250	0.289	-0.187
-533.121	-105.272	-0.099	0.023
-532.106	127.896	0.126	0.160
-531.091	16.284	0.105	0.083
-530.077	662.053	-0.112	-0.290
-529.062	-95.354	0.118	-0.032
-528.048	680.329	0.167	-0.434
-527.033	208.244	0.278	-0.435
-526.018	-200.000	0.038	0.543
-525.004	-120.086	-0.162	-0.028
-523.989	-200.000	0.021	0.121
-522.975	44.462	0.107	0.098
-521.960	635.421	0.073	0.184
-520.945	-200.000	0.004	0.452
-519.931	-200.000	0.008	-0.041
-518.916	-200.000	0.021	-0.103
-517.902	-74.332	0.261	-0.094
-516.887	-200.000	0.012	-0.294
-515.872	-33.460	-0.139	0.077
-514.858	-4.252	-0.068	-0.047
-513.843	615.385	-0.048	-0.120
-512.829	-148.911	0.154	0.012
-511.814	25.968	0.202	0.168
-510.799	-177.802	-0.533	-0.013
-509.785	-87.384	0.147	0.045
-508.770	312.131	0.086	-0.162
-507.756	125.741	-0.164	-0.207
-506.741	-200.000	0.001	0.017
-505.726	800.000	-0.030	0.111
-504.712	349.784	0.140	-0.277
-503.697	-74.049	0.080	-0.029
-502.683	120.098	0.151	0.188
-501.668	-55.062	0.176	0.079
-500.653	-200.000	0.021	-0.164
-499.639	-10.162	-0.135	-0.089
-498.624	-200.000	-0.020	0.231
-497.610	372.862	0.140	0.284
-496.595	-58.606	0.130	-0.056
-495.581	45.511	-0.158	0.145
-494.566	73.659	0.070	-0.074
-493.551	800.000	0.046	0.173
-492.537	360.504	0.063	0.125
-491.522	-56.092	-0.092	0.041
-490.508	-67.339	0.212	0.083
-489.493	800.000	0.077	0.334
-488.478	545.271	-0.130	0.310
-487.464	29.873	-0.239	0.204
-486.449	-200.000	0.185	0.000
-485.435	420.313	0.068	-0.145
-484.420	173.983	0.064	-0.093
-483.405	-84.819	0.156	-0.049
-482.391	800.000	-0.054	-0.220
-481.376	193.001	0.165	0.249
-480.362	-200.000	-0.001	0.177
-479.347	1.431	-0.086	-0.062
-478.332	86.391	-0.095	0.104
-477.318	-122.169	-0.104	0.017
-476.303	-73.735	-0.103	0.037
-475.289	191.015	-0.090	-0.136
-474.274	-66.524	0.182	0.072
-473.259	-117.226	0.425	0.077
-472.245	-126.370	-0.160	-0.024
-471.230	-26.682	-0.337	0.197
-470.216	-105.274	-0.181	0.041
-469.201	-109.795	0.080	-0.017
-468.186	-38.376	0.233	-0.123
-467.172	46.708	-0.108	0.100
-466.157	-69.982	0.079	-0.030
-465.143	-200.000	-0.046	-0.219
-464.128	507.386	-0.052	-0.120
-463.113	123.528	0.071	0.089
-462.099	96.355	0.082	0.094
-461.084	-191.886	-0.180	0.002
-460.070	-200.000	0.007	-0.140
-459.055	-130.664	-0.340	-0.046
-458.040	253.757	0.127	-0.216
-457.026	-86.362	-0.087	0.027
-456.011	800.000	0.031	-0.117
-454.997	156.802	0.026	0.036
-453.982	-104.547	0.116	0.027
-452.968	800.000	0.082	-0.261
-451.953	381.792	-0.114	0.233
-450.938	72.231	-0.091	0.094
-449.924	399.223	-0.018	-0.038
-448.909	-200.000	0.002	-0.162
-447.895	42.015	-0.183	-0.166
-446.880	-82.563	0.285	0.092
-445.865	-116.194	-0.516	0.096
-444.851	53.929	0.081	-0.077
-443.836	-55.229	-0.293	0.131
-442.822	-146.915	-0.168	0.014
-441.807	380.308	-0.108	0.221
-440.792	-61.126	-0.425	0.179
-439.778	-200.000	0.044	-0.204
-438.763	11.208	0.167	0.128
-437.749	-200.000	0.041	0.199
-436.734	330.151	0.192	0.368
-435.719	610.562	0.058	0.143
-434.705	-36.511	0.205	0.110
-433.690	-46.942	0.117	-0.057
-432.676	-147.674	0.200	0.017
-431.661	-172.065	-0.214	-0.007
-430.646	-47.632	-0.297	0.144
-429.632	107.406	-0.227	-0.269
-428.617	-141.323	0.170	0.017
-427.603	-116.777	-0.289	0.053
-426.588	-20.981	0.203	-0.124
-425.573	159.579	-0.178	0.246
-424.559	98.695	0.115	-0.132
-423.544	40.614	-0.359	0.322
-422.530	-80.432	0.255	0.085
-421.515	205.980	-0.215	0.333
-420.500	-76.450	-0.245	-0.086
-419.486	134.963	-0.230	-0.298
-418.471	-200.000	0.006	-0.072
-417.457	-85.597	-0.037	0.012
-416.442	269.272	-0.089	0.156
-415.428	-23.633	0.301	0.180
-414.413	-88.297	0.207	-0.062
-413.398	179.936	0.084	-0.123
-412.384	-19.363	-0.213	-0.132
-411.369	-99.829	-0.137	-0.034
-410.355	-200.000	-0.001	-0.134
-409.340	-183.698	-0.302	0.005
-408.325	-80.228	-0.225	0.075
-407.311	-200.000	-0.015	-0.472
-406.296	-200.000	-0.065	0.342
-405.282	191.409	0.153	-0.229
-404.267	91.297	0.035	0.039
-403.252	-142.874	0.211	0.020
-402.238	-67.041	-0.082	0.032
-401.223	53.772	0.255	0.244
-400.209	-168.791	-0.114	0.004
-399.194	-144.787	-0.529	-0.048
-398.179	-200.000	-0.066	-0.421
-397.165	-74.385	0.025	-0.009
-396.150	-93.050	0.188	-0.052
-395.136	135.303	0.176	0.228
-394.121	-20.638	-0.218	-0.133
-393.106	243.383	-0.132	0.221
-392.092	307.777	0.115	0.214
-391.077	-200.000	0.072	0.321
-390.063	-36.949	-0.195	0.104
-389.048	80.297	0.250	-0.268
-388.033	701.819	0.106	0.277
-387.019	-124.894	0.315	-0.048
-386.004	113.681	-0.109	0.132
-384.990	114.872	0.080	0.097
-383.975	800.000	0.162	0.483
-382.960	77.801	0.196	-0.208
-381.946	-0.918	-0.080	-0.056
-380.931	1.325	0.114	-0.081
-379.917	-107.679	0.069	-0.015
-378.902	-200.000	-0.001	-0.246
-377.888	-122.171	0.148	-0.024
-376.873	-46.515	0.071	-0.035
-375.858	-23.502	0.183	-0.109
-374.844	-200.000	0.014	-0.428
-373.829	-17.720	0.241	-0.151
-372.815	-50.108	-0.209	-0.099
-371.800	369.584	-0.115	-0.232
-370.785	64.611	-0.116	0.116
-369.771	-36.669	0.131	-0.070
-368.756	67.437	0.153	-0.155
-367.742	285.586	0.172	0.308
-366.727	-63.623	0.150	0.061
-365.712	-200.000	-0.026	0.183
-364.698	141.322	0.220	-0.290
-363.683	84.537	-0.087	-0.094
-362.669	-58.976	0.259	-0.111
-361.654	-109.513	-0.141	-0.030
-360.639	208.525	-0.069	0.107
-359.625	800.000	-0.081	0.293
-358.610	-184.301	0.078	0.001
-357.596	-43.903	0.129	0.065
-356.581	159.618	-0.255	-0.353
-355.566	87.675	0.123	-0.135
-354.552	506.905	-0.036	0.083
-353.537	237.567	0.106	-0.175
-352.523	-133.348	-0.232	0.029
-351.508	-175.541	-0.186	0.005
-350.493	-200.000	0.091	-0.469
-349.479	-31.846	0.282	-0.157
-348.464	-106.220	-0.029	-0.006
-347.450	-40.645	-0.274	0.141
-346.435	800.000	0.020	0.056
-345.420	-61.140	0.011	0.005
-344.406	-200.000	0.017	-0.271
-343.391	14.868	0.112	-0.087
-342.377	-23.360	-0.151	0.090
-341.362	-46.661	0.151	-0.074
-340.348	-23.818	0.138	-0.082
-339.333	274.042	0.119	0.209
-338.318	-3.039	-0.170	0.118
-337.304	800.000	0.058	0.219
-336.289	-200.000	0.008	0.152
-335.275	516.378	0.094	-0.218
-334.260	-147.418	0.230	-0.019
-333.245	-25.998	0.157	-0.092
-332.231	99.169	-0.009	-0.010
-331.216	-149.645	-0.243	0.019
-330.202	4.426	-0.224	-0.163
-329.187	75.847	-0.042	-0.045
-328.172	800.000	-0.047	-0.146
-327.158	34.321	0.213	-0.185
-326.143	-18.284	0.202	-0.126
-325.129	174.665	-0.040	0.058
-324.114	13.513	0.175	-0.135
-323.099	762.706	-0.061	0.165
-322.085	412.427	-0.170	0.359
-321.070	-96.281	0.086	-0.023
-320.056	37.617	-0.142	-0.125
-319.041	-21.405	-0.185	0.112
-318.026	366.069	0.073	0.147
-317.012	13.535	0.413	-0.318
-315.997	4.251	0.185	-0.134
-314.983	222.626	-0.034	0.055
-313.968	665.930	0.133	0.341
-312.953	288.236	0.084	-0.151
-311.939	160.201	0.124	-0.171
-310.924	800.000	-0.033	-0.116
-309.910	56.646	-0.222	0.215
-308.895	330.198	0.065	0.125
-307.880	36.583	0.118	0.103
-306.866	-50.194	-0.141	0.066
-305.851	-200.000	0.011	0.266
-304.837	-200.000	-0.004	0.121
-303.822	-102.180	0.106	0.025
-302.807	189.769	-0.157	0.233
-301.793	800.000	-0.053	-0.221
-300.778	-41.408	-0.110	0.056
-299.764	-156.920	0.087	0.005
-298.749	-97.358	-0.320	-0.083
-297.735	64.353	0.184	-0.184
-296.720	608.584	-0.003	-0.008
-295.705	-59.147	-0.207	0.088
-294.691	9.623	0.274	-0.206
-293.676	-89.430	0.148	0.043
-292.662	800.000	-0.096	-0.320
-291.647	-177.600	-0.076	-0.002
-290.632	791.032	-0.033	-0.091
-289.618	-39.069	0.228	-0.119
-288.603	375.722	-0.117	0.237
-287.589	800.000	-0.120	0.369
-286.574	-20.524	0.305	0.186
-285.559	55.463	0.024	0.023
-284.545	-85.078	-0.199	-0.062
-283.530	-85.835	0.143	0.044
-282.516	800.000	-0.129	-0.414
-281.501	-200.000	0.034	-0.355
-280.486	-115.482	-0.595	0.111
-279.472	243.647	-0.075	-0.124
-278.457	594.370	-0.127	-0.311
-277.443	-20.362	0.380	-0.232
-276.428	-25.009	-0.274	-0.161
-275.413	800.000	0.074	-0.247
-274.399	800.000	0.046	0.168
-273.384	-100.770	-0.344	0.084
-272.370	104.587	-0.232	0.271
-271.355	-14.700	0.277	0.176
-270.340	-85.711	-0.211	0.065
-269.326	-103.995	-0.235	0.054
-268.311	289.417	-0.304	-0.546
-267.297	-75.170	-0.196	0.069
-266.282	-28.589	-0.210	0.120
-265.267	-39.336	0.137	0.071
-264.253	-153.539	-0.163	-0.011
-263.238	-200.000	0.013	-0.127
-262.224	-28.085	0.141	0.081
-261.209	92.720	0.133	0.149
-260.195	212.018	-0.162	-0.252
-259.180	338.004	0.050	0.096
-258.165	-151.188	-0.131	-0.010
-257.151	800.000	0.066	0.239
-256.136	109.856	-0.137	0.163
-255.122	-62.441	0.225	-0.093
-254.107	800.000	-0.056	0.198
-253.092	-200.000	0.045	0.205
-252.078	-44.130	-0.151	-0.075
-251.063	484.244	0.104	0.234
-250.049	-19.211	-0.240	-0.147
-249.034	326.532	0.077	-0.146
-248.019	-65.759	0.146	0.058
-247.005	-200.000	0.009	0.116
-245.990	-133.140	0.414	0.052
-244.976	60.775	0.201	-0.197
-243.961	800.000	0.043	-0.131
-242.946	-136.634	0.334	-0.038
-241.932	-145.967	0.159	0.014
-240.917	688.582	-0.047	0.121
-239.903	17.888	0.274	0.216
-238.888	-200.000	-0.053	0.523
-237.873	-200.000	-0.078	-0.373
-236.859	-200.000	0.043	0.279
-235.844	-200.000	-0.029	-0.188
-234.830	800.000	-0.092	-0.254
-233.815	46.993	-0.238	-0.219
-232.800	52.460	-0.136	-0.128
-231.786	-200.000	-0.013	-0.216
-230.771	45.905	0.334	0.305
-229.757	677.646	-0.060	0.154
-228.742	-200.000	0.034	0.158
-227.727	78.303	0.316	-0.334
-226.713	-147.890	-0.268	0.022
-225.698	-134.550	0.227	-0.027
-224.684	-200.000	-0.012	0.250
-223.669	26.855	0.204	-0.169
-222.655	4.445	-0.245	-0.177
-221.640	30.776	-0.068	-0.058
-220.625	-200.000	-0.021	0.109
-219.611	-200.000	0.128	0.557
-218.596	275.817	0.097	0.170
-217.582	-97.326	-0.272	0.070
-216.567	-200.000	-0.004	0.115
-215.552	-153.900	-0.094	0.006
-214.538	-38.005	0.241	-0.127
-213.523	100.749	0.060	0.069
-212.509	730.107	-0.089	0.235
-211.494	-98.002	0.095	-0.024
-210.479	-200.000	0.011	0.227
-209.465	800.000	-0.064	-0.211
-208.450	447.658	0.144	-0.312
-207.436	-200.000	-0.026	0.181
-206.421	783.441	0.139	-0.377
-205.406	31.133	0.268	0.227
-204.392	-2.895	0.041	0.028
-203.377	-61.950	0.063	0.026
-202.363	-50.397	0.136	-0.063
-201.348	62.107	-0.190	0.188
-200.333	-43.522	0.386	-0.193
-199.319	-6.458	-0.078	0.052
-198.304	-1.761	-0.159	0.110
-197.290	800.000	-0.027	-0.108
-196.275	-103.495	-0.044	-0.010
-195.260	13.412	-0.358	0.274
-194.246	-100.678	0.287	-0.070
-193.231	-200.000	0.060	0.307
-192.217	148.157	0.091	0.122
-191.202	800.000	0.090	-0.327
-190.187	800.000	-0.130	-0.473
-189.173	151.732	-0.067	0.090
-188.158	-200.000	-0.013	-0.164
-187.144	121.783	-0.154	0.190
-186.129	233.192	-0.024	-0.040
-185.114	-114.676	0.332	-0.063
-184.100	8.128	-0.178	-0.132
-183.085	-65.138	-0.404	0.161
-182.071	644.908	-0.115	0.289
-181.056	183.855	0.115	0.168
-180.042	-152.879	0.367	0.026
-179.027	-200.000	-0.038	0.271
-178.012	308.310	-0.035	0.065
-176.998	233.823	0.128	0.208
-175.983	30.416	0.083	-0.070
-174.969	315.384	-0.160	0.298
-173.954	-157.898	-0.080	-0.005
-172.939	171.129	0.189	0.267
-171.925	-125.705	-0.498	0.074
-170.910	203.207	0.067	-0.102
-169.896	-93.910	-0.038	0.010
-168.881	-38.924	0.155	0.080
-167.866	211.374	0.261	0.405
-166.852	126.574	-0.116	-0.145
-165.837	162.555	0.091	-0.125
-164.823	-120.877	0.047	0.008
-163.808	149.692	-0.036	-0.048
-162.793	-5.385	0.219	-0.149
-161.779	321.992	-0.235	-0.442
-160.764	-200.000	0.006	0.127
-159.750	-24.578	0.083	0.049
-158.735	-102.640	-0.263	-0.062
-157.720	-199.038	-0.288	-0.002
-156.706	-114.666	-0.068	0.013
-155.691	-23.941	-0.134	0.079
-154.677	800.000	-0.064	-0.243
-153.662	-126.754	-0.044	-0.006
-152.647	18.741	0.091	0.072
-151.633	621.119	0.017	-0.042
-150.618	20.148	-0.184	0.146
-149.604	-200.000	-0.046	-0.238
-148.589	212.470	-0.090	-0.140
-147.574	261.829	-0.081	-0.138
-146.560	-41.219	0.031	-0.016
-145.545	144.927	0.105	0.138
-144.531	-95.902	0.150	0.039
-143.516	524.231	0.080	0.186
-142.502	-84.598	-0.139	0.043
-141.487	-200.000	0.033	0.268
-140.472	800.000	0.059	-0.254
-139.458	200.768	-0.158	0.239
-138.443	-63.313	0.101	-0.041
-137.429	-158.027	0.209	0.012
-136.414	438.027	-0.083	0.178
-135.399	242.193	-0.065	-0.106
-134.385	-148.072	0.436	0.036
-133.370	16.360	-0.402	0.312
-132.356	-21.350	-0.346	0.208
-131.341	-200.000	0.012	-0.190
-130.326	729.117	0.140	0.368
-129.312	193.472	-0.099	-0.147
-128.297	-20.109	0.179	-0.109
-127.283	62.944	-0.129	-0.127
-126.268	-27.207	-0.065	-0.037
-125.253	-7.197	0.108	0.072
-124.239	-19.807	0.102	-0.062
-123.224	241.296	0.178	0.293
-122.210	-200.000	-0.010	-0.307
-121.195	49.504	0.107	0.099
-120.180	738.377	0.075	0.199
-119.166	1.791	0.134	-0.095
-118.151	-59.796	-0.281	0.118
-117.137	55.944	-0.100	-0.095
-116.122	350.192	-0.110	0.214
-115.107	121.657	-0.173	0.212
-114.093	648.024	-0.046	0.115
-113.078	134.086	-0.092	0.117
-112.064	-37.852	0.151	0.079
-111.049	-62.736	-0.181	0.074
-110.034	206.046	0.129	-0.198
-109.020	-45.686	-0.125	0.061
-108.005	16.126	0.185	0.143
-106.991	719.550	-0.077	0.201
-105.976	-200.000	0.020	-0.167
-104.962	-110.728	0.180	0.036
-103.947	677.377	-0.031	0.079
-102.932	320.328	0.050	-0.093
-101.918	27.426	-0.235	-0.195
-100.903	-73.799	0.136	-0.049
-99.889	-61.891	0.106	-0.044
-98.874	-200.000	-0.023	0.129
-97.859	137.837	0.228	0.294
-96.845	-121.598	-0.069	0.011
-95.830	-25.152	0.269	0.157
-94.816	263.160	-0.244	-0.417
-93.801	-200.000	-0.037	-0.374
-92.786	-173.077	-0.183	-0.006
-91.772	-200.000	0.016	-0.272
-90.757	231.047	0.240	-0.387
-89.743	800.000	0.068	0.246
-88.728	751.228	-0.062	-0.165
-87.713	-153.714	-0.084	-0.006
-86.699	-79.540	0.205	0.068
-85.684	288.609	-0.105	0.188
-84.670	-200.000	0.014	0.209
-83.655	-193.897	-0.213	0.002
-82.640	800.000	0.025	-0.105
-81.626	-152.500	0.078	-0.006
-80.611	800.000	0.083	-0.289
-79.597	-200.000	-0.063	0.275
-78.582	-200.000	0.037	0.274
-77.567	-88.295	0.189	-0.056
-76.553	522.351	-0.137	-0.317
-75.538	-125.878	-0.281	0.042
-74.524	123.787	-0.007	0.009
-73.509	-200.000	-0.045	0.267
-72.494	-155.262	0.142	-0.009
-71.480	336.003	0.089	0.170
-70.465	800.000	-0.086	0.271
-69.451	-173.340	-0.133	0.004
-68.436	-89.764	0.223	-0.064
-67.422	-108.951	0.348	0.073
-66.407	-33.815	-0.087	0.047
-65.392	-200.000	0.060	0.261
-64.378	-164.866	-0.339	-0.015
-63.363	-158.692	0.360	0.020
-62.349	125.758	-0.099	0.122
-61.334	69.076	-0.998	-1.007
-60.319	239.993	0.261	0.427
-59.305	-200.000	0.105	-0.759
-58.290	-200.000	0.306	1.371
-57.276	362.416	0.800	1.577
-56.261	-200.000	98.055	595.655
-55.246	600.764	1410.600	3439.879
-54.232	190.619	2602.723	3841.185
-53.217	116.360	2173.989	2616.294
-52.203	42.894	1711.918	1532.087
-51.188	35.576	1525.527	1315.348
-50.173	33.201	1499.352	1276.722
-49.159	51.863	1550.694	1449.085
-48.144	53.614	1567.226	1476.501
-47.130	35.747	1525.800	1316.546
-46.115	32.627	1511.104	1282.616
-45.100	32.538	1507.260	1278.699
-44.086	32.494	1505.839	1277.142
-43.071	32.327	1503.959	1274.369
-42.057	32.497	1501.927	1273.743
-41.042	32.419	1500.621	1272.063
-40.027	32.329	1499.422	1270.383
-39.013	32.365	1497.408	1268.871
-37.998	32.305	1496.663	1267.785
-36.984	32.292	1496.084	1267.156
-35.969	32.401	1494.575	1266.566
-34.954	32.321	1493.101	1264.725
-33.940	32.354	1491.340	1263.406
-32.925	32.390	1489.944	1262.417
-31.911	32.457	1488.578	1261.653
-30.896	32.344	1487.377	1259.833
-29.881	32.417	1485.859	1258.983
-28.867	32.367	1485.011	1257.877
-27.852	32.362	1483.331	1256.376
-26.838	32.520	1481.259	1255.623
-25.823	32.390	1480.169	1253.783
-24.809	32.381	1478.283	1252.076
-23.794	32.352	1477.170	1250.893
-22.779	32.421	1475.544	1249.924
-21.765	32.267	1475.305	1248.647
-20.750	32.370	1474.227	1248.371
-19.736	32.317	1473.029	1246.956
-18.721	32.300	1471.841	1245.788
-17.706	32.318	1470.229	1244.490
-16.692	32.448	1469.058	1244.311
-15.677	32.348	1468.372	1243.019
-14.663	32.428	1467.259	1242.558
-13.648	32.332	1466.799	1241.484
-12.633	32.322	1465.364	1240.153
-11.619	32.254	1464.719	1239.110
-10.604	32.297	1463.804	1238.568
-9.590	32.313	1463.084	1238.018
-8.575	32.290	1462.053	1236.945
-7.560	32.377	1460.908	1236.500
-6.546	32.304	1460.594	1235.706
-5.531	32.195	1459.721	1234.202
-4.517	32.217	1458.740	1233.466
-3.502	32.253	1457.800	1232.861
-2.487	32.218	1456.320	1231.326
-1.473	32.233	1455.446	1230.640
-0.458	32.381	1453.517	1229.926
0.556	29.888	1444.649	1217.911
1.571	26.648	1417.226	1173.732
2.586	22.788	1354.912	1098.060
3.600	21.107	1272.521	1021.369
4.615	19.945	1227.239	978.375
5.629	17.166	1172.030	919.259
6.644	8.321	1087.229	808.080
7.659	0.983	1045.274	741.019
8.673	-0.211	1040.003	731.402
9.688	-0.325	1036.871	728.583
10.702	-0.332	1035.207	727.315
11.717	-0.392	1033.281	725.610
12.731	2.646	1036.437	742.489
13.746	11.702	1049.299	795.884
14.761	18.171	1057.412	833.597
15.775	18.763	1057.180	836.225
16.790	18.593	1056.439	834.739
17.804	18.315	1055.807	832.811
18.819	18.207	1054.427	831.124
19.834	18.186	1053.833	830.482
20.848	18.373	1053.584	831.119
21.863	18.256	1053.023	830.035
22.877	18.189	1052.770	829.441
23.892	18.206	1051.890	828.755
24.907	18.192	1051.010	827.919
25.921	18.336	1050.315	827.998
26.936	18.290	1049.797	827.292
27.950	18.332	1048.126	826.105
28.965	18.310	1047.177	825.180
29.980	18.298	1045.198	823.486
30.994	18.073	1044.055	821.432
32.009	18.296	1042.960	821.568
33.023	18.361	1042.521	821.462
34.038	18.200	1041.333	819.684
35.053	18.209	1040.435	818.945
36.067	18.358	1039.617	818.944
37.082	18.397	1039.073	818.630
38.096	18.401	1038.386	818.032
39.111	18.623	1037.191	818.079
40.126	18.630	1035.999	817.098
41.140	18.566	1034.937	815.885
42.155	18.411	1033.464	813.913
43.169	17.981	1032.502	811.045
44.184	18.001	1031.397	810.201
45.199	18.116	1029.851	809.457
46.213	18.008	1029.641	808.708
47.228	17.944	1028.459	807.409
48.242	18.072	1027.165	806.922
49.257	18.115	1026.197	806.297
50.271	18.142	1025.459	805.773
51.286	18.276	1024.748	805.770
52.301	18.184	1024.339	804.948
53.315	18.377	1022.498	804.335
54.330	18.313	1022.188	803.718
55.344	18.330	1020.950	802.756
56.359	18.409	1020.097	802.382
57.374	18.310	1019.659	801.504
58.388	18.183	1018.524	799.945
59.403	18.095	1017.473	798.638
60.417	18.207	1016.725	798.502
61.432	18.091	1016.123	797.419
62.447	18.067	1015.513	796.759
63.461	18.211	1014.715	796.732
64.476	18.272	1013.609	796.077
65.490	18.317	1012.454	795.310
66.505	18.242	1011.538	794.173
67.520	18.174	1011.093	793.438
68.534	18.211	1010.128	792.779
69.549	18.296	1009.031	792.241
70.563	17.798	1008.187	789.209
71.578	17.746	1007.269	788.178
72.593	18.157	1005.799	788.854
73.607	17.780	1005.478	786.792
74.622	17.801	1004.273	785.877
75.636	17.962	1003.536	785.971
76.651	18.123	1002.933	786.170
77.666	18.035	1001.950	784.928
78.680	17.996	1000.707	783.703
79.695	18.005	1000.085	783.189
80.709	18.022	999.909	783.059
81.724	18.069	999.209	782.657
82.739	18.163	997.604	781.763
83.753	18.073	997.363	781.092
84.768	18.313	996.596	781.519
85.782	18.460	995.869	781.552
86.797	18.459	995.049	780.833
87.812	18.509	993.716	779.944
88.826	18.429	992.881	778.856
89.841	18.495	992.181	778.539
90.855	18.595	991.352	778.271
91.870	18.506	990.717	777.304
92.884	18.416	990.053	776.306
93.899	18.417	988.827	775.277
94.914	18.436	988.173	774.786
95.928	18.426	987.678	774.283
96.943	18.576	986.598	774.044
97.957	18.166	985.485	771.252
98.972	18.102	984.205	769.894
99.987	17.861	983.255	767.998
101.001	18.128	982.165	768.280
102.016	18.242	982.256	768.795
103.030	18.352	981.141	768.349
104.045	18.259	979.889	766.883
105.060	17.999	978.555	764.609
106.074	17.915	977.093	763.025
107.089	17.965	976.565	762.765
108.103	18.338	976.465	764.287
109.118	18.582	975.047	764.198
110.133	18.278	973.976	761.937
111.147	18.299	973.330	761.456
112.162	18.287	971.555	759.947
113.176	17.938	970.890	757.812
114.191	18.021	970.405	757.732
115.206	18.189	969.009	757.320
116.220	17.886	967.768	754.942
117.235	17.746	967.081	753.720
118.249	17.973	966.165	753.943
119.264	17.943	965.129	752.937
120.279	17.936	964.342	752.223
121.293	17.949	963.411	751.490
122.308	18.005	962.926	751.290
123.322	18.020	962.312	750.809
124.337	18.093	960.682	749.793
125.352	17.907	959.532	748.013
126.366	17.571	957.665	745.023
127.381	17.352	956.125	742.803
128.395	17.676	956.307	744.294
129.410	18.262	955.467	746.130
130.424	18.334	954.823	745.876
131.439	18.491	953.226	745.243
132.454	18.280	952.358	743.581
133.468	18.315	951.230	742.787
134.483	18.257	950.572	741.956
135.497	18.226	950.349	741.583
136.512	18.435	949.637	741.865
137.527	18.424	948.735	741.048
138.541	18.625	947.486	740.874
139.556	18.561	946.794	739.995
140.570	18.627	946.092	739.664
141.585	18.714	944.767	738.935
142.600	18.654	944.230	738.192
143.614	18.480	943.282	736.640
144.629	18.600	942.429	736.424
145.643	18.797	942.303	737.107
146.658	18.649	940.858	735.277
147.673	18.600	939.843	734.209
148.687	18.440	939.238	732.984
149.702	18.440	938.077	732.016
150.716	18.364	936.897	730.705
151.731	18.383	935.585	729.696
152.746	18.416	935.344	729.585
153.760	18.595	934.785	729.846
154.775	18.796	933.571	729.689
155.789	18.877	933.082	729.585
156.804	18.805	931.826	728.232
157.819	18.655	931.461	727.250
158.833	18.555	930.728	726.188
159.848	18.739	929.761	726.146
160.862	18.892	928.651	725.864
161.877	18.547	927.330	723.310
162.892	18.714	926.597	723.380
163.906	18.836	925.779	723.189
164.921	18.822	924.996	722.455
165.935	18.877	924.083	721.910
166.950	18.761	923.164	720.640
167.964	18.762	921.899	719.593
168.979	18.771	921.104	718.947
169.994	18.691	919.757	717.496
171.008	18.533	918.899	716.107
172.023	18.787	918.233	716.581
173.037	18.761	917.566	715.892
174.052	18.528	916.699	714.179
175.067	18.358	915.592	712.548
176.081	18.552	914.894	712.747
177.096	18.717	914.081	712.737
178.110	18.727	912.597	711.558
179.125	18.463	911.884	709.845
180.140	18.210	910.751	707.855
181.154	18.429	909.847	707.993
182.169	18.374	909.696	707.588
183.183	18.443	909.289	707.491
184.198	18.730	908.997	708.386
185.213	18.696	908.088	707.475
186.227	18.706	907.430	706.942
187.242	18.759	907.023	706.779
188.256	18.773	906.357	706.257
189.271	18.723	905.396	705.240
190.286	18.777	904.895	705.009
191.300	18.655	903.783	703.580
192.315	18.247	902.448	700.807
193.329	17.584	901.184	697.052
194.344	17.236	900.663	695.163
195.359	17.900	900.209	697.467
196.373	18.553	900.005	699.911
197.388	18.750	900.028	700.671
198.402	18.492	899.583	699.210
199.417	18.397	898.544	697.953
200.432	18.415	898.288	697.768
201.446	18.399	897.465	697.001
202.461	17.972	896.396	694.375
203.475	18.037	895.768	694.089
204.490	17.757	894.350	691.795
205.504	16.859	892.268	686.487
206.519	17.389	892.254	688.560
207.534	18.080	892.852	691.760
208.548	18.368	892.194	692.352
209.563	18.521	891.874	692.661
210.577	18.661	891.095	692.562
211.592	18.412	889.901	690.569
212.607	18.577	890.401	691.560
213.621	18.666	889.707	691.318
214.636	18.747	888.344	690.525
215.650	18.670	888.231	690.063
216.665	18.838	887.296	689.951
217.680	18.785	886.731	689.240
218.694	18.762	886.207	688.680
219.709	18.476	884.857	686.422
220.723	18.156	884.137	684.522
221.738	18.335	883.635	684.789
222.753	18.680	882.974	685.597
223.767	18.669	882.090	684.806
224.782	18.717	881.475	684.460
225.796	18.838	881.093	684.582
226.811	18.893	880.674	684.417
227.826	18.479	879.459	681.765
228.840	17.842	877.987	678.035
229.855	17.780	877.258	677.164
230.869	18.008	876.914	677.743
231.884	17.745	875.836	675.809
232.899	17.906	875.269	675.947
233.913	18.463	875.920	678.599
234.928	18.623	875.277	678.671
235.942	18.686	874.374	678.159
236.957	18.809	873.640	678.017
237.972	18.541	872.221	675.801
238.986	18.351	871.707	674.593
240.001	18.600	871.369	675.251
241.015	18.497	870.871	674.400
242.030	18.557	869.726	673.689
243.045	18.755	869.436	674.182
244.059	18.807	868.895	673.908
245.074	18.851	868.712	673.881
246.088	18.811	867.440	672.676
247.103	18.336	866.697	670.181
248.117	18.364	866.144	669.804
249.132	18.791	866.278	671.519
250.147	19.030	865.998	672.175
251.161	19.040	865.059	671.428
252.176	19.171	864.313	671.301
253.190	19.318	863.408	671.110
254.205	19.268	863.031	670.564
255.220	19.507	862.354	670.907
256.234	19.574	861.749	670.637
257.249	19.320	861.640	669.508
258.263	19.316	860.427	668.489
259.278	19.394	859.935	668.352
260.293	19.335	859.658	667.846
261.307	19.462	859.042	667.799
262.322	19.354	858.080	666.577
263.336	19.213	857.330	665.390
264.351	18.769	855.963	662.558
265.366	17.752	853.986	657.053
266.380	17.359	852.841	654.602
267.395	18.191	853.242	658.052
268.409	18.897	853.182	660.663
269.424	18.899	853.048	660.507
270.439	19.122	851.836	660.368
271.453	19.359	851.558	661.001
272.468	19.202	851.302	660.142
273.482	19.453	850.743	660.613
274.497	19.561	850.066	660.440
275.512	19.403	848.833	658.821
276.526	18.876	847.217	655.499
277.541	19.060	847.093	656.048
278.555	19.394	846.691	656.951
279.570	19.004	846.118	654.962
280.585	18.841	845.320	653.666
281.599	18.978	844.762	653.698
282.614	19.183	844.333	654.086
283.628	18.823	843.075	651.690
284.643	18.549	842.518	650.163
285.657	18.858	842.506	651.269
286.672	18.694	841.538	649.839
287.687	18.404	840.287	647.720
288.701	18.671	840.340	648.714
289.716	19.061	839.881	649.776
290.730	18.611	839.421	647.665
291.745	18.632	837.945	646.545
292.760	18.429	837.404	645.306
293.774	18.321	836.887	644.445
294.789	19.177	837.047	647.732
295.803	19.659	837.335	649.710
296.818	19.866	836.838	650.045
297.833	19.897	836.332	649.710
298.847	19.678	835.178	647.937
299.862	19.420	834.330	646.253
300.876	19.641	833.510	646.390
301.891	19.785	833.228	646.654
302.906	19.911	832.419	646.436
303.920	19.425	831.171	643.600
304.935	19.242	830.529	642.360
305.949	19.593	830.331	643.461
306.964	19.783	829.907	643.783
307.979	19.689	829.219	642.840
308.993	19.530	828.629	641.736
310.008	19.915	828.447	642.968
311.022	19.975	827.938	642.742
312.037	19.800	827.542	641.727
313.052	19.625	826.783	640.431
314.066	19.389	826.513	639.292
315.081	19.027	824.764	636.542
316.095	18.344	823.763	633.191
317.110	18.762	823.845	634.744
318.125	19.595	823.882	637.792
319.139	19.326	822.794	635.899
320.154	18.047	821.707	630.292
321.168	17.889	820.726	628.899
322.183	18.579	820.596	631.284
323.197	19.139	820.946	633.558
324.212	19.528	820.673	634.722
325.227	19.718	819.781	634.675
326.241	19.776	819.470	634.592
327.256	19.684	819.009	633.841
328.270	19.596	818.522	633.087
329.285	19.348	818.356	631.991
330.300	19.441	816.751	631.038
331.314	19.172	816.420	629.743
332.329	19.200	815.891	629.379
333.343	19.605	815.080	630.177
334.358	19.802	814.765	630.596
335.373	19.787	813.955	629.857
336.387	20.010	813.360	630.155
337.402	19.931	813.617	630.010
338.416	20.116	812.813	630.005
339.431	20.010	812.367	629.217
340.446	20.129	811.335	628.793
341.460	20.198	811.244	628.918
342.475	20.216	810.469	628.326
343.489	20.040	809.488	626.873
344.504	19.984	808.976	626.219
345.519	20.226	808.972	627.037
346.533	20.372	808.478	627.123
347.548	20.487	808.174	627.250
348.562	20.537	807.539	626.882
349.577	20.304	807.343	625.833
350.592	20.351	806.512	625.302
351.606	20.340	806.258	625.010
352.621	20.369	805.940	624.814
353.635	20.211	805.330	623.717
354.650	20.414	804.638	623.854
355.665	20.144	803.295	621.791
356.679	19.124	802.131	617.178
357.694	18.974	801.441	616.056
358.708	19.463	801.347	617.682
359.723	19.553	800.813	617.535
360.738	19.706	800.751	617.981
361.752	20.338	800.382	619.900
362.767	20.291	800.151	619.499
363.781	20.501	799.717	619.855
364.796	20.691	799.296	620.153
365.810	20.676	798.881	619.723
366.825	20.730	798.632	619.667
367.840	20.744	798.485	619.548
368.854	20.644	797.677	618.511
369.869	20.242	796.771	616.326
370.883	20.245	796.063	615.733
371.898	20.176	795.856	615.275
372.913	20.204	794.914	614.590
373.927	20.201	794.090	613.888
374.942	20.194	793.790	613.576
375.956	20.439	793.396	614.086
376.971	20.459	792.659	613.532
377.986	20.520	792.394	613.486
379.000	20.620	791.954	613.445
380.015	20.724	791.419	613.341
381.029	20.487	790.850	612.011
382.044	20.490	790.140	611.420
383.059	20.570	790.040	611.569
384.073	20.730	789.054	611.315
385.088	20.726	788.549	610.853
386.102	20.800	788.359	610.914
387.117	20.723	787.503	609.927
388.132	20.681	787.171	609.469
389.146	20.523	786.724	608.515
390.161	20.077	785.446	605.912
391.175	19.935	785.510	605.412
392.190	20.411	785.076	606.688
393.205	20.474	784.721	606.578
394.219	19.647	783.224	602.484
395.234	18.336	780.654	595.897
396.248	17.727	780.389	593.522
397.263	18.644	781.162	597.249
398.278	20.128	782.501	603.392
399.292	20.647	781.779	604.585
400.307	20.320	781.513	603.189
401.321	20.409	781.061	603.098
402.336	20.349	780.895	602.709
403.350	20.691	780.673	603.668
404.365	20.871	780.382	604.014
405.380	20.993	780.290	604.312
406.394	21.273	780.092	605.078
407.409	21.417	779.435	605.011
408.423	21.365	778.813	604.296
409.438	21.212	777.934	603.031
410.453	21.194	777.725	602.753
411.467	21.418	777.332	603.168
412.482	21.298	776.854	602.330
413.496	21.316	776.341	601.941
414.511	21.315	775.927	601.565
415.526	21.299	775.733	601.307
416.540	21.527	775.018	601.481
417.555	21.342	774.551	600.431
418.569	21.041	774.136	599.022
419.584	20.936	773.416	598.052
420.599	21.034	773.103	598.093
421.613	157.377	1359.738	1794.481
422.628	135.790	1445.215	1794.543
