DTS Sentinel unit serial number:	SN413079Multiplexer serial number:	ORYXHardware model number:	OX4-SRSoftware version number:	ORYX F/W v4.00 Oryx Data Collector v3.7.2.0data status	okinstallation	princeton_trtdifferential loss correction	single-endedforward channel	channel 3reverse channel	N/Adate	2019/09/11time	22:54:10forward acquisition time	60.00reverse acquisition time	0.00gamma	496.2192k internal	0.2316k external	0.2316temperature offset calibration	1.0046default loss term (dB/km)	0.3790temperature slope calibration	1.0000multiplexer offset coefficient	1.0000multiplexer slope coefficient	1.0000fibre end	0.00T internal ref (°C)	34.69T ext. ref 1 (°C)	1.84T ext. ref 2 (°C)	29.42length (m)	temperature (°C)	Stokes	anti-Stokes-747.200	71.799	0.092	-0.097
-746.185	-45.821	0.169	0.085
-745.171	-192.205	-0.329	-0.003
-744.156	-200.000	0.046	0.373
-743.142	-1.681	0.244	0.174
-742.127	-106.733	-0.409	0.092
-741.112	800.000	-0.037	0.122
-740.098	-200.000	-0.002	0.214
-739.083	-44.203	0.236	0.120
-738.069	-200.000	-0.074	0.392
-737.054	-136.335	-0.349	-0.041
-736.039	18.437	0.310	0.251
-735.025	109.053	0.338	0.410
-734.010	-26.133	-0.359	-0.214
-732.996	-167.431	-0.378	0.015
-731.981	-125.554	0.087	0.013
-730.966	41.015	-0.139	0.127
-729.952	-162.908	-0.152	0.007
-728.937	-200.000	-0.022	-0.110
-727.923	800.000	-0.106	-0.355
-726.908	-200.000	-0.063	-0.447
-725.894	-49.680	0.020	0.010
-724.879	-200.000	0.040	0.258
-723.864	-120.672	-0.234	-0.040
-722.850	-135.053	0.284	-0.035
-721.835	53.036	-0.065	0.063
-720.821	34.817	-0.238	-0.211
-719.806	-141.617	-0.316	0.032
-718.791	-87.134	0.027	0.008
-717.777	-10.886	-0.246	-0.165
-716.762	800.000	-0.055	0.162
-715.748	18.158	0.083	-0.067
-714.733	261.094	0.071	-0.125
-713.718	-176.853	-0.362	-0.009
-712.704	-61.754	-0.081	-0.034
-711.689	-76.974	0.290	0.102
-710.675	-135.237	0.174	0.021
-709.660	431.374	-0.112	0.246
-708.645	56.886	0.288	0.284
-707.631	200.430	0.056	0.087
-706.616	686.214	0.147	0.389
-705.602	-166.810	-0.180	-0.008
-704.587	-116.378	-0.455	-0.085
-703.572	10.800	0.233	-0.180
-702.558	-24.734	0.140	-0.084
-701.543	91.716	-0.075	-0.085
-700.529	-200.000	0.021	-0.239
-699.514	-61.204	0.243	0.103
-698.499	800.000	0.007	0.019
-697.485	437.943	-0.070	-0.155
-696.470	620.994	0.068	0.173
-695.456	-200.000	0.021	0.228
-694.441	-178.043	-0.189	0.005
-693.426	69.901	0.175	-0.183
-692.412	54.720	0.222	-0.216
-691.397	-200.000	-0.008	0.136
-690.383	643.888	-0.101	0.261
-689.368	144.242	-0.133	0.180
-688.354	-22.922	0.261	0.159
-687.339	389.563	-0.011	0.023
-686.324	-156.160	-0.197	-0.013
-685.310	162.447	0.146	-0.207
-684.295	-54.346	-0.184	-0.084
-683.281	216.794	0.193	-0.311
-682.266	-0.904	-0.232	-0.166
-681.251	-164.609	-0.183	0.008
-680.237	-148.299	0.268	0.022
-679.222	-104.722	-0.354	-0.082
-678.208	-31.307	0.124	-0.071
-677.193	-115.198	0.201	0.038
-676.178	146.159	0.057	0.077
-675.164	-83.972	-0.094	0.030
-674.149	713.331	0.062	-0.167
-673.135	-200.000	0.006	-0.270
-672.120	-194.711	0.364	-0.003
-671.105	-115.715	0.194	0.037
-670.091	-200.000	0.058	-0.297
-669.076	77.580	-0.125	-0.134
-668.062	-200.000	-0.009	-0.134
-667.047	372.236	0.086	0.175
-666.032	-71.444	0.322	0.122
-665.018	-96.703	-0.050	0.013
-664.003	-65.247	0.375	0.153
-662.989	-95.745	-0.150	0.041
-661.974	-200.000	-0.004	-0.243
-660.959	-16.901	-0.106	0.067
-659.945	116.043	-0.081	0.100
-658.930	-65.058	-0.120	-0.049
-657.916	-105.564	-0.708	0.162
-656.901	3.532	-0.062	-0.045
-655.886	-6.718	0.288	-0.198
-654.872	-57.476	0.015	-0.007
-653.857	-200.000	0.055	0.258
-652.843	142.376	-0.104	-0.140
-651.828	-200.000	0.103	-0.606
-650.814	197.082	0.218	-0.336
-649.799	591.944	0.078	-0.193
-648.784	-97.498	-0.142	-0.037
-647.770	-14.327	0.121	-0.079
-646.755	98.454	0.198	-0.230
-645.741	-162.627	0.133	0.007
-644.726	7.063	-0.222	0.167
-643.711	104.670	-0.170	0.202
-642.697	89.901	-0.046	-0.052
-641.682	-132.933	-0.275	0.035
-640.668	-155.122	-0.174	-0.012
-639.653	6.477	-0.372	-0.279
-638.638	-200.000	-0.030	-0.148
-637.624	-23.848	-0.221	0.133
-636.609	55.644	0.185	-0.181
-635.595	66.737	-0.089	0.091
-634.580	69.415	-0.214	0.222
-633.565	-200.000	-0.002	0.114
-632.551	17.224	0.162	-0.130
-631.536	334.066	0.196	0.382
-630.522	800.000	0.059	0.175
-629.507	-92.133	0.251	-0.071
-628.492	-200.000	-0.036	0.163
-627.478	-5.986	-0.209	0.144
-626.463	267.294	0.159	0.280
-625.449	-21.005	-0.312	-0.193
-624.434	12.128	-0.125	-0.097
-623.419	-24.445	-0.056	-0.034
-622.405	800.000	-0.040	-0.152
-621.390	148.160	-0.077	0.105
-620.376	19.186	0.216	-0.175
-619.361	-97.469	-0.237	0.062
-618.346	-200.000	0.017	-0.156
-617.332	175.350	-0.205	-0.299
-616.317	-25.708	-0.204	0.121
-615.303	-67.721	-0.213	0.084
-614.288	39.733	-0.057	-0.051
-613.273	79.276	-0.144	-0.155
-612.259	800.000	0.086	0.242
-611.244	137.080	-0.145	0.191
-610.230	306.326	0.155	0.291
-609.215	800.000	0.085	0.297
-608.201	29.869	-0.220	-0.189
-607.186	800.000	-0.141	-0.403
-606.171	-165.483	0.295	-0.013
-605.157	560.811	0.058	-0.142
-604.142	-98.970	-0.263	-0.067
-603.128	-200.000	0.004	0.052
-602.113	-148.786	-0.186	-0.015
-601.098	-23.247	0.098	-0.060
-600.084	-200.000	-0.007	-0.138
-599.069	-182.881	-0.069	-0.001
-598.055	687.505	0.160	-0.421
-597.040	13.604	0.129	0.101
-596.025	192.193	-0.129	-0.196
-595.011	-34.687	0.179	-0.098
-593.996	142.450	-0.078	-0.104
-592.982	-72.072	-0.635	-0.238
-591.967	-110.744	-0.165	-0.034
-590.952	75.333	-0.114	0.121
-589.938	-5.070	-0.076	-0.052
-588.923	800.000	-0.048	0.146
-587.909	330.088	-0.096	0.185
-586.894	800.000	0.012	-0.052
-585.879	-28.773	0.085	-0.049
-584.865	68.933	-0.160	-0.165
-583.850	-95.332	0.293	-0.079
-582.836	-121.002	0.110	0.019
-581.821	-46.386	-0.113	0.056
-580.806	-31.086	-0.229	0.130
-579.792	-112.006	0.284	0.058
-578.777	192.498	-0.134	-0.204
-577.763	-134.811	-0.412	0.050
-576.748	-200.000	0.044	-0.201
-575.733	90.013	0.058	-0.065
-574.719	-101.381	-0.187	0.046
-573.704	-124.213	-0.105	0.017
-572.690	-137.363	-0.172	0.020
-571.675	101.991	0.225	-0.264
-570.661	-200.000	-0.040	-0.182
-569.646	800.000	0.054	0.206
-568.631	182.281	-0.120	0.178
-567.617	-88.886	0.049	0.015
-566.602	-98.258	0.504	-0.130
-565.588	408.811	-0.148	-0.316
-564.573	-54.338	0.375	-0.171
-563.558	3.876	-0.082	-0.060
-562.544	-41.258	0.264	-0.137
-561.529	-126.136	0.242	-0.036
-560.515	-200.000	0.009	0.336
-559.500	164.582	-0.189	0.268
-558.485	127.242	-0.144	-0.184
-557.471	-140.369	0.242	0.025
-556.456	100.227	-0.209	-0.244
-555.442	-112.187	0.186	0.038
-554.427	215.588	0.033	-0.052
-553.412	-67.589	-0.057	0.022
-552.398	-78.599	-0.118	0.041
-551.383	211.204	-0.020	-0.031
-550.369	800.000	0.046	0.191
-549.354	-141.280	0.443	-0.045
-548.339	-31.120	-0.131	0.074
-547.325	41.374	0.148	-0.134
-546.310	-82.409	0.238	-0.078
-545.296	84.540	0.071	-0.078
-544.281	-200.000	-0.014	-0.182
-543.266	-72.328	0.356	-0.133
-542.252	800.000	-0.011	-0.042
-541.237	-193.189	-0.291	0.003
-540.223	332.859	-0.137	0.266
-539.208	-56.260	0.208	-0.093
-538.193	-71.146	-0.077	0.029
-537.179	-200.000	-0.042	0.237
-536.164	-200.000	0.032	-0.303
-535.150	753.997	0.081	0.219
-534.135	-84.824	0.172	-0.054
-533.121	-146.940	-0.374	-0.032
-532.106	606.411	-0.142	0.355
-531.091	-174.788	0.071	-0.002
-530.077	-173.932	-0.058	0.002
-529.062	-86.689	-0.283	0.087
-528.048	-24.678	-0.238	-0.142
-527.033	-152.231	-0.136	-0.010
-526.018	119.806	0.229	0.286
-525.004	-170.378	-0.407	-0.014
-523.989	-200.000	-0.002	-0.111
-522.975	-86.570	0.129	-0.040
-521.960	9.396	0.271	0.206
-520.945	-200.000	-0.051	0.230
-519.931	69.556	0.190	-0.197
-518.916	153.329	0.153	-0.210
-517.902	285.278	0.028	0.051
-516.887	-200.000	0.022	0.180
-515.872	211.676	0.199	-0.315
-514.858	1.191	-0.267	0.193
-513.843	256.967	0.142	0.245
-512.829	-200.000	-0.002	0.352
-511.814	-126.372	-0.480	0.072
-510.799	800.000	0.164	-0.520
-509.785	-200.000	-0.005	0.120
-508.770	-96.411	0.081	0.022
-507.756	200.110	-0.040	-0.061
-506.741	116.544	-0.116	-0.143
-505.726	-26.651	-0.318	-0.187
-504.712	-101.923	0.138	0.034
-503.697	-15.665	-0.234	-0.150
-502.683	153.208	0.094	0.129
-501.668	-97.721	0.191	0.050
-500.653	266.840	0.158	0.276
-499.639	180.702	-0.158	-0.233
-498.624	-200.000	-0.006	-0.105
-497.610	374.214	0.061	0.126
-496.595	-158.360	0.164	0.010
-495.581	170.653	0.113	0.163
-494.566	-41.561	-0.328	-0.169
-493.551	-156.756	0.145	0.009
-492.537	800.000	0.075	-0.329
-491.522	800.000	0.043	-0.164
-490.508	-200.000	0.018	-0.457
-489.493	719.214	-0.065	-0.174
-488.478	-65.963	0.095	-0.038
-487.464	-185.187	-0.233	0.004
-486.449	32.814	0.125	0.109
-485.435	800.000	0.066	0.197
-484.420	800.000	-0.069	-0.257
-483.405	-200.000	-0.011	0.125
-482.391	55.914	-0.101	0.099
-481.376	-177.173	0.371	0.009
-480.362	-102.369	-0.156	0.038
-479.347	-200.000	0.005	0.223
-478.332	16.623	-0.128	-0.101
-477.318	800.000	-0.081	-0.278
-476.303	-119.123	-0.255	0.045
-475.289	31.348	-0.231	-0.198
-474.274	-136.232	0.277	-0.032
-473.259	111.372	0.149	-0.181
-472.245	624.595	-0.096	0.243
-471.230	458.256	0.096	-0.215
-470.216	-88.853	0.257	0.076
-469.201	-200.000	0.026	0.294
-468.186	69.344	-0.154	-0.158
-467.172	-53.377	0.130	0.060
-466.157	199.367	0.150	-0.231
-465.143	-90.031	-0.145	0.042
-464.128	800.000	0.188	-0.619
-463.113	800.000	-0.075	0.291
-462.099	-144.231	0.117	-0.011
-461.084	158.277	-0.099	-0.137
-460.070	-200.000	-0.035	0.205
-459.055	-111.561	-0.091	0.019
-458.040	93.618	-0.150	0.170
-457.026	800.000	-0.049	-0.155
-456.011	-200.000	0.011	0.264
-454.997	15.282	-0.145	-0.114
-453.982	-200.000	0.011	-0.411
-452.968	800.000	-0.030	0.089
-451.953	-200.000	-0.052	0.310
-450.938	-94.592	0.278	0.076
-449.924	185.542	-0.200	0.298
-448.909	74.204	0.078	0.082
-447.895	115.369	0.114	0.139
-446.880	-163.390	0.120	0.006
-445.865	-10.600	-0.137	-0.091
-444.851	-143.547	-0.119	0.011
-443.836	13.820	-0.241	0.188
-442.822	-200.000	-0.002	-0.262
-441.807	-51.088	-0.163	-0.077
-440.792	363.871	0.134	0.269
-439.778	-103.712	0.334	0.078
-438.763	51.453	0.154	0.147
-437.749	-140.807	0.120	-0.012
-436.734	52.056	0.115	0.110
-435.719	-200.000	0.030	-0.152
-434.705	12.335	0.202	-0.156
-433.690	800.000	0.056	0.211
-432.676	274.000	-0.123	-0.218
-431.661	9.393	-0.112	-0.084
-430.646	-61.747	0.192	0.080
-429.632	144.937	-0.079	0.106
-428.617	-153.100	-0.221	0.016
-427.603	-107.226	-0.159	-0.035
-426.588	209.935	-0.074	-0.116
-425.573	-94.076	0.142	0.039
-424.559	-53.692	0.228	0.104
-423.544	-118.470	-0.194	0.034
-422.530	-200.000	-0.041	-0.254
-421.515	73.674	0.101	-0.106
-420.500	800.000	-0.068	0.240
-419.486	137.535	-0.144	-0.188
-418.471	354.110	-0.133	0.264
-417.457	164.163	0.048	-0.068
-416.442	136.413	-0.110	0.144
-415.428	269.562	-0.112	-0.196
-414.413	800.000	0.053	-0.205
-413.398	-130.161	0.178	0.024
-412.384	-6.882	-0.251	-0.171
-411.369	81.003	-0.036	-0.039
-410.355	34.494	0.127	-0.111
-409.340	-123.161	-0.210	0.034
-408.325	742.627	0.103	0.276
-407.311	-38.366	0.038	0.020
-406.296	-141.742	0.372	-0.037
-405.282	52.078	-0.202	-0.192
-404.267	-99.661	0.250	-0.063
-403.252	-125.413	-0.096	-0.015
-402.238	-20.812	0.101	0.062
-401.223	-172.901	-0.246	0.008
-400.209	-101.450	0.108	0.026
-399.194	87.280	-0.154	-0.170
-398.179	-101.305	-0.391	0.095
-397.165	-200.000	0.000	0.107
-396.150	-200.000	-0.003	-0.067
-395.136	800.000	-0.041	0.132
-394.121	-200.000	-0.016	0.072
-393.106	800.000	0.033	-0.119
-392.092	-108.923	-0.305	0.065
-391.077	-24.760	-0.109	-0.065
-390.063	200.784	0.125	0.192
-389.048	-77.039	0.198	0.069
-388.033	166.736	0.080	0.114
-387.019	-124.095	0.121	0.019
-386.004	335.536	-0.091	0.177
-384.990	48.370	0.195	-0.183
-383.975	-124.396	0.288	0.045
-382.960	-151.857	0.062	-0.005
-381.946	-200.000	-0.005	0.073
-380.931	22.657	-0.132	0.108
-379.917	82.501	0.125	-0.135
-378.902	-37.471	-0.128	0.068
-377.888	-116.163	0.155	0.029
-376.873	56.804	0.121	0.118
-375.858	230.950	-0.275	-0.449
-374.844	124.358	0.192	0.241
-373.829	83.692	-0.053	-0.058
-372.815	-101.144	0.149	-0.036
-371.800	-109.945	0.278	-0.058
-370.785	-17.933	-0.126	0.079
-369.771	70.195	0.177	0.183
-368.756	-16.541	0.253	0.160
-367.742	-104.702	0.279	0.064
-366.727	573.504	0.086	-0.209
-365.712	108.041	-0.230	-0.274
-364.698	-51.204	0.291	0.136
-363.683	173.746	-0.238	-0.343
-362.669	-139.658	0.171	0.018
-361.654	-44.218	-0.179	-0.090
-360.639	322.718	0.277	-0.528
-359.625	800.000	0.045	0.174
-358.610	-46.132	0.208	0.102
-357.596	355.798	-0.095	0.188
-356.581	800.000	-0.069	0.198
-355.566	-109.254	0.315	-0.067
-354.552	-193.900	-0.487	0.004
-353.537	-200.000	0.038	-0.172
-352.523	800.000	0.120	-0.450
-351.508	54.922	-0.045	0.043
-350.493	-200.000	-0.034	0.249
-349.479	800.000	0.031	0.117
-348.464	-83.216	-0.157	-0.050
-347.450	800.000	0.067	-0.202
-346.435	-51.007	-0.171	0.080
-345.420	73.218	0.062	-0.065
-344.406	13.765	-0.417	0.323
-343.391	-90.620	-0.277	0.080
-342.377	32.641	-0.145	-0.125
-341.362	-22.242	0.264	-0.160
-340.348	-200.000	-0.001	0.015
-339.333	179.828	0.185	0.270
-338.318	241.630	0.157	0.261
-337.304	-87.402	-0.277	0.084
-336.289	-153.568	0.066	-0.005
-335.275	-165.607	0.385	-0.017
-334.260	196.068	0.123	-0.187
-333.245	-121.458	0.136	-0.023
-332.231	-43.104	-0.278	0.140
-331.216	526.300	-0.045	0.106
-330.202	9.035	0.287	0.216
-329.187	715.673	-0.073	-0.194
-328.172	-78.608	-0.326	0.111
-327.158	-75.668	0.221	0.078
-326.143	-200.000	-0.018	-0.253
-325.129	800.000	0.016	0.055
-324.114	-111.765	0.357	-0.072
-323.099	-52.044	0.233	-0.108
-322.085	-28.720	-0.434	-0.249
-321.070	-52.127	0.291	-0.135
-320.056	-133.395	0.156	-0.020
-319.041	-32.508	-0.250	-0.139
-318.026	-154.662	0.247	-0.016
-317.012	-75.785	0.119	0.042
-315.997	96.019	0.022	-0.025
-314.983	24.661	-0.066	0.055
-313.968	-98.210	-0.141	0.036
-312.953	800.000	0.010	-0.029
-311.939	-99.977	0.323	0.080
-310.924	800.000	0.049	0.138
-309.910	107.229	-0.126	0.149
-308.895	-171.079	-0.288	0.010
-307.880	120.866	0.021	0.027
-306.866	800.000	-0.063	-0.179
-305.851	46.032	0.130	-0.119
-304.837	-172.007	-0.154	0.005
-303.822	60.596	0.080	-0.079
-302.807	-200.000	0.015	0.252
-301.793	-147.607	0.086	0.007
-300.778	-65.846	0.287	-0.114
-299.764	362.772	0.055	0.109
-298.749	-74.702	0.143	-0.051
-297.735	93.289	0.142	-0.160
-296.720	90.859	0.122	-0.136
-295.705	-42.493	0.050	0.025
-294.691	800.000	-0.066	0.248
-293.676	-200.000	0.005	0.135
-292.662	99.488	0.072	-0.083
-291.647	-82.905	0.266	-0.086
-290.632	-60.148	0.170	-0.072
-289.618	800.000	0.030	0.104
-288.603	-73.648	0.227	0.082
-287.589	-87.508	0.196	-0.059
-286.574	64.259	-0.069	-0.069
-285.559	6.302	-0.430	0.318
-284.545	570.815	0.028	-0.067
-283.530	200.586	0.119	0.181
-282.516	800.000	-0.036	0.106
-281.501	327.618	-0.105	-0.200
-280.486	87.447	0.120	-0.133
-279.472	-64.958	0.075	-0.030
-278.457	-60.211	0.260	0.110
-277.443	-117.691	-0.158	0.028
-276.428	-200.000	-0.002	-0.162
-275.413	800.000	-0.103	0.346
-274.399	24.124	0.212	-0.174
-273.384	-200.000	0.006	0.040
-272.370	-59.574	0.272	0.116
-271.355	-31.228	-0.041	0.023
-270.340	66.374	-0.184	0.186
-269.326	189.225	0.203	0.302
-268.311	-200.000	0.007	-0.045
-267.297	285.081	-0.136	0.243
-266.282	-21.953	0.337	-0.204
-265.267	-109.091	-0.400	-0.085
-264.253	-200.000	0.054	-0.366
-263.238	396.470	0.217	0.451
-262.224	-96.678	-0.358	0.094
-261.209	-121.717	-0.250	-0.041
-260.195	56.553	0.098	0.095
-259.180	283.100	0.088	-0.158
-258.165	-135.829	0.059	0.007
-257.151	800.000	0.098	0.300
-256.136	5.244	-0.093	0.068
-255.122	-147.413	0.078	0.007
-254.107	216.665	-0.198	-0.313
-253.092	263.433	0.084	-0.145
-252.078	-2.800	-0.013	0.009
-251.063	-27.598	0.132	0.076
-250.049	-116.130	0.038	0.007
-249.034	339.559	0.069	0.134
-248.019	-102.242	0.179	0.043
-247.005	-200.000	0.040	0.211
-245.990	4.555	0.251	-0.183
-244.976	249.001	-0.109	-0.183
-243.961	278.713	-0.146	0.259
-242.946	-168.464	-0.201	-0.008
-241.932	-78.642	0.267	0.091
-240.917	-17.886	0.430	0.268
-239.903	-107.816	-0.069	0.015
-238.888	442.173	-0.041	0.089
-237.873	576.582	-0.155	0.377
-236.859	-62.605	0.378	0.156
-235.844	800.000	0.119	0.364
-234.830	-134.303	0.399	0.049
-233.815	-95.070	-0.273	-0.073
-232.800	-13.729	0.058	0.037
-231.786	-157.599	-0.121	0.007
-230.771	409.204	-0.115	-0.241
-229.757	-9.964	0.297	-0.196
-228.742	-107.643	-0.115	0.025
-227.727	-128.384	-0.417	-0.059
-226.713	800.000	0.061	-0.179
-225.698	-150.479	-0.246	0.019
-224.684	229.022	-0.054	0.087
-223.669	86.923	-0.186	-0.204
-222.655	616.519	0.083	-0.206
-221.640	800.000	-0.056	-0.159
-220.625	122.126	0.139	-0.173
-219.611	121.627	0.146	0.181
-218.596	-52.250	0.140	-0.065
-217.582	800.000	-0.090	-0.384
-216.567	-35.859	0.058	-0.031
-215.552	-200.000	-0.022	0.139
-214.538	450.158	0.084	-0.183
-213.523	63.006	-0.093	0.092
-212.509	800.000	-0.013	-0.036
-211.494	246.252	-0.032	0.053
-210.479	-128.368	-0.053	0.007
-209.465	319.347	0.067	0.125
-208.450	-149.770	-0.191	0.015
-207.436	-200.000	0.008	-0.057
-206.421	42.562	0.057	0.052
-205.406	-66.778	0.342	0.134
-204.392	-102.168	0.210	-0.050
-203.377	490.894	0.022	-0.051
-202.363	-43.505	0.122	-0.061
-201.348	-200.000	-0.051	0.281
-200.333	-200.000	0.025	-0.112
-199.319	-27.110	-0.126	-0.073
-198.304	-55.612	-0.135	0.060
-197.290	528.610	-0.143	-0.335
-196.275	-200.000	-0.012	-0.166
-195.260	464.207	0.079	0.174
-194.246	123.542	0.132	0.164
-193.231	800.000	-0.040	0.151
-192.217	-200.000	0.031	-0.147
-191.202	471.985	0.029	-0.064
-190.187	26.874	-0.129	-0.107
-189.173	-51.469	0.138	-0.064
-188.158	82.559	0.135	-0.146
-187.144	389.477	0.142	0.292
-186.129	145.428	-0.101	0.134
-185.114	800.000	-0.046	0.173
-184.100	129.062	0.142	-0.179
-183.085	387.949	0.212	0.435
-182.071	151.233	0.124	0.168
-181.056	62.353	0.210	-0.208
-180.042	-82.901	-0.067	-0.022
-179.027	-145.788	-0.159	-0.014
-178.012	109.819	-0.084	0.099
-176.998	15.928	0.268	-0.209
-175.983	101.481	-0.178	0.205
-174.969	-200.000	-0.024	-0.150
-173.954	208.443	0.088	-0.137
-172.939	17.917	-0.179	-0.141
-171.925	612.710	0.154	0.383
-170.910	-100.788	-0.283	0.069
-169.896	-154.577	-0.400	0.026
-168.881	-200.000	-0.023	0.391
-167.866	-114.843	0.387	-0.073
-166.852	-200.000	-0.010	0.076
-165.837	-74.333	-0.375	0.134
-164.823	414.672	-0.045	-0.095
-163.808	-200.000	0.036	0.164
-162.793	206.870	0.149	0.229
-161.779	-68.852	-0.345	0.132
-160.764	-200.000	0.021	-0.102
-159.750	-120.669	-0.245	0.041
-158.735	321.189	-0.058	0.108
-157.720	-111.883	-0.555	-0.111
-156.706	-200.000	0.010	0.081
-155.691	-193.179	-0.315	-0.003
-154.677	-4.080	-0.215	0.148
-153.662	99.220	-0.226	-0.258
-152.647	-151.662	-0.255	0.019
-151.633	-75.127	0.309	-0.109
-150.618	518.838	0.036	0.084
-149.604	-200.000	0.011	-0.122
-148.589	-112.264	0.118	-0.023
-147.574	-200.000	-0.058	-0.255
-146.560	-48.952	-0.219	0.104
-145.545	-10.181	0.126	0.083
-144.531	800.000	-0.012	0.036
-143.516	325.514	0.130	0.247
-142.502	800.000	0.071	-0.304
-141.487	-200.000	-0.061	0.383
-140.472	-195.997	0.286	-0.002
-139.458	242.191	-0.094	-0.156
-138.443	-200.000	-0.042	-0.248
-137.429	-143.866	0.536	0.050
-136.414	281.823	0.111	0.197
-135.399	-147.180	0.157	0.013
-134.385	-149.186	-0.145	0.011
-133.370	-31.710	-0.293	0.163
-132.356	21.092	0.138	0.111
-131.341	740.620	-0.126	0.334
-130.326	-200.000	0.051	-0.236
-129.312	-93.208	-0.159	-0.044
-128.297	36.865	-0.079	0.069
-127.283	-83.337	0.415	0.132
-126.268	197.314	-0.115	-0.174
-125.253	17.652	-0.175	0.138
-124.239	-14.287	0.086	-0.055
-123.224	29.195	-0.378	-0.317
-122.210	-111.019	0.200	0.041
-121.195	-12.468	-0.141	0.091
-120.180	760.117	0.034	-0.090
-119.166	-106.711	-0.135	0.030
-118.151	572.280	0.095	-0.229
-117.137	-162.783	0.075	-0.004
-116.122	800.000	0.046	0.162
-115.107	458.106	0.095	-0.209
-114.093	-200.000	0.030	-0.152
-113.078	-100.319	0.255	-0.063
-112.064	25.975	-0.065	0.054
-111.049	-200.000	-0.007	0.338
-110.034	653.999	0.115	0.290
-109.020	132.781	-0.066	0.084
-108.005	328.891	-0.146	0.278
-106.991	-114.377	-0.299	0.057
-105.976	-67.472	0.472	0.183
-104.962	-23.423	0.068	-0.040
-103.947	800.000	-0.172	0.599
-102.932	67.890	-0.149	-0.150
-101.918	-22.775	-0.190	0.113
-100.903	-200.000	-0.014	-0.119
-99.889	-56.367	0.180	0.079
-98.874	-25.347	0.172	-0.100
-97.859	184.217	-0.031	0.045
-96.845	-126.386	0.059	0.009
-95.830	-143.317	0.154	0.015
-94.816	-94.479	0.434	0.117
-93.801	-200.000	-0.024	0.457
-92.786	-200.000	-0.048	0.234
-91.772	89.079	-0.190	0.209
-90.757	800.000	-0.080	-0.336
-89.743	-172.352	0.063	-0.002
-88.728	-200.000	0.007	-0.484
-87.713	191.418	0.063	0.093
-86.699	161.750	0.136	-0.188
-85.684	-19.443	0.096	0.059
-84.670	-51.537	-0.218	-0.101
-83.655	800.000	-0.091	0.337
-82.640	79.525	0.119	0.126
-81.626	-49.061	0.065	0.031
-80.611	-140.168	0.356	-0.037
-79.597	-142.516	0.305	-0.030
-78.582	-59.771	-0.081	-0.034
-77.567	-25.385	0.419	0.244
-76.553	218.585	0.095	-0.149
-75.538	-145.825	0.351	0.031
-74.524	-200.000	0.062	0.473
-73.509	-200.000	0.034	0.177
-72.494	286.107	-0.096	-0.172
-71.480	307.659	-0.193	-0.356
-70.465	-33.797	0.183	-0.100
-69.451	463.652	-0.094	-0.208
-68.436	518.211	-0.055	0.127
-67.422	252.894	0.104	0.174
-66.407	134.624	0.030	0.038
-65.392	800.000	-0.093	-0.386
-64.378	-140.027	-0.292	0.030
-63.363	-200.000	0.040	-0.182
-62.349	-50.510	0.230	-0.107
-61.334	37.448	-0.614	-0.537
-60.319	56.792	0.220	0.211
-59.305	483.306	-0.363	-0.813
-58.290	301.983	0.504	0.919
-57.276	800.000	0.306	1.186
-56.261	-200.000	98.021	591.981
-55.246	564.829	1384.420	3308.906
-54.232	153.777	2585.720	3494.384
-53.217	115.918	2178.138	2628.684
-52.203	45.359	1715.341	1560.562
-51.188	37.913	1527.566	1338.806
-50.173	35.484	1499.951	1298.148
-49.159	55.592	1551.665	1481.628
-48.144	59.039	1571.528	1524.223
-47.130	38.225	1525.425	1338.854
-46.115	34.865	1510.201	1302.601
-45.100	34.708	1507.175	1298.871
-44.086	34.665	1505.070	1296.711
-43.071	34.663	1502.564	1294.488
-42.057	34.642	1501.753	1293.592
-41.042	34.686	1499.928	1292.266
-40.027	34.617	1498.864	1290.834
-39.013	34.699	1497.333	1290.016
-37.998	34.693	1495.801	1288.606
-36.984	34.619	1495.220	1287.554
-35.969	34.667	1493.469	1286.320
-34.954	34.734	1492.172	1285.607
-33.940	34.644	1491.156	1284.070
-32.925	34.791	1488.987	1283.142
-31.911	34.730	1487.986	1281.819
-30.896	34.693	1487.063	1280.726
-29.881	34.848	1485.458	1280.326
-28.867	34.742	1484.092	1278.393
-27.852	34.704	1483.096	1277.230
-26.838	34.651	1481.487	1275.435
-25.823	34.752	1479.663	1274.492
-24.809	34.721	1478.053	1272.848
-23.794	34.718	1476.924	1271.808
-22.779	34.650	1476.211	1270.685
-21.765	34.683	1474.752	1269.601
-20.750	34.724	1473.312	1268.581
-19.736	34.758	1472.465	1268.026
-18.721	34.723	1471.334	1266.775
-17.706	34.667	1470.461	1265.597
-16.692	34.732	1469.210	1264.906
-15.677	34.718	1467.940	1263.665
-14.663	34.693	1467.735	1263.277
-13.648	34.606	1466.726	1261.784
-12.633	34.645	1465.584	1261.007
-11.619	34.683	1464.464	1260.243
-10.604	34.672	1463.688	1259.452
-9.590	34.695	1462.688	1258.691
-8.575	34.660	1461.958	1257.787
-7.560	34.649	1461.383	1257.171
-6.546	34.630	1460.550	1256.277
-5.531	34.612	1459.541	1255.237
-4.517	34.645	1458.362	1254.395
-3.502	34.587	1457.309	1253.059
-2.487	34.677	1456.266	1252.698
-1.473	34.643	1455.459	1251.733
-0.458	34.711	1453.810	1250.710
0.556	34.827	1444.379	1239.543
1.571	31.913	1418.786	1198.879
2.586	28.542	1358.246	1126.951
3.600	26.711	1277.802	1049.519
4.615	25.423	1230.519	1003.404
5.629	21.444	1173.611	935.676
6.644	11.110	1086.247	814.512
7.659	3.119	1043.021	743.520
8.673	2.155	1037.065	734.575
9.688	1.772	1033.866	730.408
10.702	1.652	1032.489	728.796
11.717	1.773	1030.657	728.015
12.731	5.336	1035.541	748.492
13.746	15.414	1049.459	807.184
14.761	23.012	1059.333	851.451
15.775	24.705	1060.086	860.133
16.790	24.990	1059.636	861.062
17.804	24.758	1058.796	859.192
18.819	24.563	1058.043	857.565
19.834	24.615	1057.542	857.332
20.848	24.701	1057.405	857.561
21.863	24.616	1057.734	857.343
22.877	24.812	1056.442	857.160
23.892	24.808	1055.925	856.643
24.907	24.658	1055.295	855.339
25.921	24.680	1054.512	854.735
26.936	24.799	1053.569	854.463
27.950	24.792	1052.257	853.289
28.965	24.632	1051.536	851.867
29.980	24.500	1050.251	850.124
30.994	24.457	1049.034	848.859
32.009	24.806	1047.918	849.535
33.023	24.954	1047.195	849.577
34.038	24.596	1046.363	847.131
35.053	24.721	1044.946	846.500
36.067	24.671	1045.027	846.251
37.082	24.764	1044.353	846.073
38.096	24.793	1043.237	845.229
39.111	24.891	1042.704	845.185
40.126	24.998	1042.429	845.395
41.140	24.953	1040.766	843.761
42.155	24.691	1039.403	841.345
43.169	24.544	1037.462	839.009
44.184	24.437	1036.820	837.913
45.199	24.450	1035.998	837.238
46.213	24.377	1034.668	835.747
47.228	24.424	1033.872	835.248
48.242	24.503	1033.529	835.269
49.257	24.665	1032.487	835.108
50.271	24.634	1032.039	834.527
51.286	24.827	1031.374	834.815
52.301	24.813	1030.352	833.852
53.315	24.863	1029.990	833.716
54.330	24.871	1028.932	832.824
55.344	24.856	1027.954	831.887
56.359	24.692	1027.408	830.612
57.374	24.779	1026.478	830.190
58.388	24.489	1025.805	828.225
59.403	24.356	1025.364	827.181
60.417	24.406	1024.396	826.557
61.432	24.311	1023.696	825.481
62.447	24.338	1023.027	824.995
63.461	24.497	1022.072	824.883
64.476	24.541	1021.344	824.429
65.490	24.592	1020.928	824.256
66.505	24.394	1019.836	822.388
67.520	24.565	1018.428	821.968
68.534	24.496	1018.486	821.623
69.549	24.429	1017.537	820.475
70.563	24.049	1016.040	817.453
71.578	24.000	1015.126	816.418
72.593	24.098	1014.111	815.978
73.607	23.897	1013.183	814.243
74.622	23.905	1012.367	813.547
75.636	24.288	1011.683	814.677
76.651	24.395	1010.772	814.363
77.666	24.198	1010.522	813.189
78.680	24.200	1009.042	811.937
79.695	24.066	1008.994	811.212
80.709	24.206	1008.553	811.425
81.724	24.482	1007.322	811.620
82.739	24.463	1006.139	810.508
83.753	24.419	1005.942	810.078
84.768	24.652	1004.894	810.219
85.782	24.885	1004.839	811.157
86.797	25.162	1003.640	811.373
87.812	25.040	1002.909	810.155
88.826	24.954	1002.112	809.053
89.841	24.805	1001.450	807.774
90.855	25.037	1000.906	808.312
91.870	25.046	999.827	807.407
92.884	24.911	999.260	806.271
93.899	24.991	997.905	805.466
94.914	24.843	997.038	804.029
95.928	24.829	996.607	803.548
96.943	25.045	995.712	803.723
97.957	24.667	994.600	801.064
98.972	24.467	993.626	799.310
99.987	24.318	992.079	797.328
101.001	24.341	991.847	797.175
102.016	24.611	991.486	798.023
103.030	24.758	990.489	797.805
104.045	24.652	989.500	796.466
105.060	24.543	988.100	794.782
106.074	24.470	986.644	793.215
107.089	24.280	986.591	792.259
108.103	24.702	986.242	793.781
109.118	24.797	985.513	793.547
110.133	24.420	984.621	791.088
111.147	24.625	982.667	790.352
112.162	24.454	981.869	788.886
113.176	23.986	981.109	786.138
114.191	24.157	980.518	786.351
115.206	24.306	979.354	786.004
116.220	24.162	978.005	784.220
117.235	23.965	977.157	782.604
118.249	24.045	977.084	782.828
119.264	24.206	976.275	782.819
120.279	24.043	975.278	781.232
121.293	24.158	974.135	780.751
122.308	24.227	973.975	780.857
123.322	24.315	972.868	780.286
124.337	24.253	971.699	779.011
125.352	24.162	970.206	777.347
126.366	23.731	968.653	774.155
127.381	23.351	967.487	771.499
128.395	23.868	967.242	773.484
129.410	24.543	967.120	776.254
130.424	24.659	966.512	776.203
131.439	24.713	965.436	775.503
132.454	24.564	964.784	774.268
133.468	24.643	963.798	773.747
134.483	24.702	962.988	773.283
135.497	24.576	962.368	772.174
136.512	24.899	961.855	773.090
137.527	24.854	961.000	772.141
138.541	24.850	960.235	771.437
139.556	24.780	959.800	770.720
140.570	24.881	958.923	770.384
141.585	24.969	957.723	769.729
142.600	24.895	957.112	768.851
143.614	24.922	956.239	768.197
144.629	24.926	955.446	767.511
145.643	25.240	954.822	768.283
146.658	25.074	953.970	766.820
147.673	24.846	952.472	764.574
148.687	24.798	951.479	763.504
149.702	24.708	950.325	762.128
150.716	24.516	949.471	760.558
151.731	24.636	948.489	760.215
152.746	24.755	947.793	760.095
153.760	24.845	947.024	759.796
154.775	25.122	946.293	760.317
155.789	25.205	945.500	759.964
156.804	25.055	944.637	758.567
157.819	25.025	943.825	757.719
158.833	24.912	943.007	756.520
159.848	25.197	942.055	756.893
160.862	25.191	941.693	756.510
161.877	25.104	940.521	755.132
162.892	24.987	939.855	754.041
163.906	25.041	939.035	753.542
164.921	25.017	938.387	752.857
165.935	24.909	937.224	751.403
166.950	25.070	935.857	750.913
167.964	25.092	934.753	750.053
168.979	25.031	934.103	749.212
169.994	24.887	933.051	747.699
171.008	24.799	932.141	746.539
172.023	24.950	931.397	746.504
173.037	25.137	930.484	746.485
174.052	25.096	929.082	745.126
175.067	24.817	928.325	743.292
176.081	24.669	927.894	742.266
177.096	24.847	927.059	742.272
178.110	24.790	926.075	741.183
179.125	24.575	925.191	739.521
180.140	24.379	924.265	737.902
181.154	24.397	923.479	737.284
182.169	24.526	922.947	737.327
183.183	24.635	922.935	737.702
184.198	25.032	922.537	738.958
185.213	24.960	921.541	737.798
186.227	24.952	920.909	737.193
187.242	25.035	920.712	737.312
188.256	25.077	919.727	736.631
189.271	24.999	919.210	735.830
190.286	25.059	918.492	735.435
191.300	25.006	917.553	734.403
192.315	24.481	915.892	730.859
193.329	23.811	914.415	726.877
194.344	23.183	913.780	723.741
195.359	23.851	913.825	726.444
196.373	24.775	913.934	730.239
197.388	25.026	913.895	731.169
198.402	25.023	913.026	730.393
199.417	24.899	912.556	729.449
200.432	24.899	912.510	729.348
201.446	24.808	911.650	728.226
202.461	24.514	910.398	725.969
203.475	24.579	910.200	726.008
204.490	24.178	908.876	723.260
205.504	23.004	906.528	716.570
206.519	23.415	906.639	718.263
207.534	24.435	906.829	722.481
208.548	24.437	906.523	722.179
209.563	24.917	906.063	723.690
210.577	24.830	905.496	722.821
211.592	24.616	904.495	721.097
212.607	24.994	904.720	722.738
213.621	25.049	904.019	722.333
214.636	25.077	903.343	721.843
215.650	25.097	902.778	721.409
216.665	25.022	902.002	720.424
217.680	25.146	901.555	720.499
218.694	25.049	901.171	719.741
219.709	24.872	900.353	718.312
220.723	24.530	898.890	715.712
221.738	24.761	898.278	716.088
222.753	25.064	897.931	716.958
223.767	24.765	897.474	715.334
224.782	24.914	897.147	715.608
225.796	25.129	896.364	715.778
226.811	25.271	895.392	715.504
227.826	24.885	894.364	713.080
228.840	24.002	893.235	708.605
229.855	24.029	892.586	708.135
230.869	24.291	892.042	708.680
231.884	24.035	890.931	706.720
232.899	24.024	890.593	706.346
233.913	24.602	891.138	709.009
234.928	24.895	890.060	709.252
235.942	24.844	889.165	708.273
236.957	24.757	888.801	707.577
237.972	24.515	888.054	705.962
238.986	24.438	887.093	704.833
240.001	24.518	886.657	704.738
241.015	24.574	885.955	704.336
242.030	24.633	885.626	704.248
243.045	24.898	885.054	704.773
244.059	24.953	884.204	704.250
245.074	25.139	884.016	704.770
246.088	25.090	883.083	703.771
247.103	24.574	882.286	701.048
248.117	24.688	881.981	701.190
249.132	25.100	882.096	702.837
250.147	25.450	881.730	703.855
251.161	25.520	881.403	703.806
252.176	25.748	880.734	704.100
253.190	25.755	880.019	703.495
254.205	25.849	879.390	703.295
255.220	26.142	878.928	704.007
256.234	26.081	878.505	703.367
257.249	25.917	877.657	701.990
258.263	25.683	877.290	700.722
259.278	25.829	876.580	700.662
260.293	25.760	876.014	699.878
261.307	25.859	875.651	699.910
262.322	25.737	874.757	698.662
263.336	25.467	874.544	697.382
264.351	25.113	872.581	694.382
265.366	24.076	871.056	689.099
266.380	23.668	869.851	686.507
267.395	24.472	870.426	690.008
268.409	25.479	870.309	693.744
269.424	25.338	869.973	692.870
270.439	25.505	869.450	693.037
271.453	25.671	868.850	693.135
272.468	25.616	867.955	692.149
273.482	25.851	867.506	692.631
274.497	25.886	867.187	692.453
275.512	25.700	866.050	690.767
276.526	25.193	864.861	687.815
277.541	25.381	864.693	688.341
278.555	25.646	864.502	689.143
279.570	25.555	863.780	688.161
280.585	25.224	863.318	686.463
281.599	25.225	862.981	686.140
282.614	25.493	862.382	686.628
283.628	25.006	861.110	683.696
284.643	24.605	860.114	681.316
285.657	25.159	860.153	683.396
286.672	25.050	859.281	682.230
287.687	24.439	858.569	679.279
288.701	24.955	858.189	680.880
289.716	25.151	858.465	681.783
290.730	24.969	857.332	680.132
291.745	24.685	856.690	678.486
292.760	24.689	855.380	677.404
293.774	24.596	854.880	676.596
294.789	25.371	855.871	680.255
295.803	26.060	856.085	682.975
296.818	26.139	855.152	682.470
297.833	26.190	854.637	682.192
298.847	25.985	853.138	680.163
299.862	25.674	851.971	678.000
300.876	25.809	852.072	678.529
301.891	26.190	851.667	679.578
302.906	26.061	851.377	678.801
303.920	25.825	850.044	676.792
304.935	25.623	849.586	675.610
305.949	26.027	849.354	676.881
306.964	26.145	848.820	676.837
307.979	25.849	848.155	675.139
308.993	25.670	847.880	674.191
310.008	26.066	847.590	675.384
311.022	26.289	847.002	675.690
312.037	26.134	846.309	674.498
313.052	25.751	846.213	672.930
314.066	25.863	844.773	672.145
315.081	25.106	843.429	668.195
316.095	24.249	842.668	664.337
317.110	24.859	842.694	666.574
318.125	25.753	842.928	670.027
319.139	25.384	841.501	667.464
320.154	24.196	839.861	661.693
321.168	23.855	838.787	659.524
322.183	24.405	839.487	662.059
323.197	25.284	840.009	665.673
324.212	25.563	839.673	666.381
325.227	25.764	839.274	666.750
326.241	25.950	838.489	666.756
327.256	25.808	838.083	665.850
328.270	25.829	837.282	665.230
329.285	25.726	836.701	664.331
330.300	25.517	835.928	662.890
331.314	25.226	835.066	661.073
332.329	25.325	834.635	661.039
333.343	25.761	834.338	662.350
334.358	25.940	834.216	662.852
335.373	25.818	833.738	661.966
336.387	26.033	832.990	662.102
337.402	26.131	832.918	662.346
338.416	26.307	832.317	662.455
339.431	26.383	831.587	662.091
340.446	26.389	831.217	661.764
341.460	26.667	831.037	662.577
342.475	26.638	830.374	661.883
343.489	26.317	829.557	660.003
344.504	26.412	828.687	659.597
345.519	26.444	828.504	659.510
346.533	26.726	828.088	660.150
347.548	26.838	827.939	660.381
348.562	26.800	827.300	659.672
349.577	26.776	826.699	659.046
350.592	26.768	825.774	658.224
351.606	26.731	825.444	657.768
352.621	26.835	824.693	657.488
353.635	26.717	824.492	656.842
354.650	26.472	824.091	655.579
355.665	26.165	823.343	653.811
356.679	25.230	821.688	649.060
357.694	24.879	821.292	647.419
358.708	25.697	821.026	650.111
359.723	25.694	820.442	649.578
360.738	25.946	819.921	650.019
361.752	26.517	819.981	652.065
362.767	26.535	819.558	651.737
363.781	26.701	819.647	652.347
364.796	27.050	819.419	653.364
365.810	27.019	819.318	653.115
366.825	27.225	818.327	653.006
367.840	27.154	818.377	652.733
368.854	26.956	817.431	651.211
369.869	26.546	816.688	649.089
370.883	26.318	816.136	647.779
371.898	26.497	815.661	647.984
372.913	26.499	814.789	647.241
373.927	26.480	814.330	646.752
374.942	26.668	813.833	646.973
375.956	26.637	813.683	646.684
376.971	26.772	812.965	646.539
377.986	27.010	812.170	646.696
379.000	27.057	812.035	646.698
380.015	27.162	811.322	646.447
381.029	27.041	810.358	645.192
382.044	27.043	809.946	644.815
383.059	27.151	809.705	644.947
384.073	27.045	809.103	644.037
385.088	27.147	808.756	644.063
386.102	27.042	808.250	643.231
387.117	27.052	807.105	642.298
388.132	26.841	806.803	641.257
389.146	26.668	806.095	640.026
390.161	26.254	805.075	637.699
391.175	26.136	805.298	637.401
392.190	26.673	805.258	639.209
393.205	26.821	804.450	639.033
394.219	25.954	802.423	634.317
395.234	24.126	800.475	626.297
396.248	23.382	799.407	622.796
397.263	24.411	800.560	627.258
398.278	26.192	801.849	634.477
399.292	26.644	801.643	635.844
400.307	26.380	800.481	633.939
401.321	26.252	800.411	633.380
402.336	26.463	800.000	633.738
403.350	26.699	799.733	634.295
404.365	27.115	799.833	635.777
405.380	27.494	799.719	636.952
406.394	27.729	799.452	637.505
407.409	27.936	798.963	637.784
408.423	27.930	798.661	637.465
409.438	27.817	797.803	636.328
410.453	27.740	797.668	635.897
411.467	27.837	797.268	635.858
412.482	27.794	796.636	635.149
413.496	27.665	796.378	634.439
414.511	27.816	796.085	634.676
415.526	27.938	795.452	634.539
416.540	27.865	795.168	634.000
417.555	27.776	794.683	633.251
418.569	27.398	793.611	631.028
419.584	27.361	793.125	630.460
420.599	27.379	792.791	630.199
421.613	108.548	1280.834	1446.317
422.628	93.365	1351.927	1446.432
