DTS Sentinel unit serial number:	SN413079Multiplexer serial number:	ORYXHardware model number:	OX4-SRSoftware version number:	ORYX F/W v4.00 Oryx Data Collector v3.7.2.0data status	okinstallation	princeton_trtdifferential loss correction	single-endedforward channel	channel 3reverse channel	N/Adate	2019/09/12time	06:10:11forward acquisition time	60.00reverse acquisition time	0.00gamma	496.2192k internal	0.2320k external	0.2320temperature offset calibration	1.0031default loss term (dB/km)	0.3790temperature slope calibration	1.0000multiplexer offset coefficient	1.0000multiplexer slope coefficient	1.0000fibre end	0.00T internal ref (°C)	32.12T ext. ref 1 (°C)	1.54T ext. ref 2 (°C)	27.36length (m)	temperature (°C)	Stokes	anti-Stokes-747.200	38.210	0.211	0.190
-746.185	198.380	-0.160	0.248
-745.171	-50.997	-0.110	0.052
-744.156	110.657	-0.188	0.228
-743.142	42.332	-0.088	0.081
-742.127	200.891	0.201	0.312
-741.112	-200.000	-0.001	0.130
-740.098	-146.613	-0.414	0.036
-739.083	54.499	-0.200	0.195
-738.069	-200.000	-0.097	0.442
-737.054	-200.000	0.019	0.153
-736.039	-69.793	-0.335	0.129
-735.025	75.224	-0.169	0.180
-734.010	-53.415	-0.071	-0.033
-732.996	-67.229	0.159	-0.063
-731.981	800.000	-0.028	0.119
-730.966	104.571	0.139	-0.166
-729.952	0.448	0.118	-0.085
-728.937	800.000	0.038	-0.129
-727.923	250.784	0.139	-0.238
-726.908	-8.359	-0.155	-0.105
-725.894	78.340	0.097	-0.105
-724.879	-200.000	0.011	0.156
-723.864	66.516	0.091	-0.094
-722.850	2.474	0.358	0.262
-721.835	475.747	-0.067	0.153
-720.821	-57.273	-0.100	-0.045
-719.806	-80.382	-0.208	-0.070
-718.791	129.676	0.215	-0.278
-717.777	110.011	0.023	0.028
-716.762	-123.419	-0.509	-0.082
-715.748	775.346	0.084	-0.231
-714.733	-5.903	-0.058	-0.040
-713.718	-80.896	-0.365	-0.122
-712.704	35.091	-0.211	0.186
-711.689	231.842	0.270	-0.447
-710.675	0.216	-0.042	0.030
-709.660	5.001	-0.028	0.020
-708.645	-200.000	-0.011	-0.163
-707.631	-25.062	0.129	0.077
-706.616	-55.468	-0.199	0.090
-705.602	800.000	-0.009	0.032
-704.587	-200.000	-0.001	0.065
-703.572	-29.051	-0.116	-0.067
-702.558	-140.153	-0.154	0.016
-701.543	-38.660	0.255	0.136
-700.529	-73.332	0.126	-0.047
-699.514	-102.837	0.093	0.022
-698.499	-23.952	-0.366	-0.221
-697.485	-92.731	0.231	-0.065
-696.470	22.972	-0.359	0.297
-695.456	-176.196	0.162	0.004
-694.441	796.220	-0.019	0.052
-693.426	62.823	0.224	0.226
-692.412	-23.345	-0.255	-0.155
-691.397	-200.000	-0.018	0.431
-690.383	46.994	-0.154	0.144
-689.368	-153.412	-0.347	-0.024
-688.354	213.490	-0.130	-0.207
-687.339	-47.099	0.059	-0.029
-686.324	73.874	-0.110	-0.116
-685.310	-200.000	-0.008	-0.093
-684.295	76.196	0.116	-0.123
-683.281	-64.728	-0.326	-0.133
-682.266	100.893	-0.133	-0.156
-681.251	-200.000	-0.009	0.103
-680.237	-200.000	0.140	-0.000
-679.222	47.579	-0.039	0.037
-678.208	-44.881	-0.493	0.248
-677.193	-1.398	0.164	-0.117
-676.178	-25.263	-0.094	-0.056
-675.164	283.328	-0.252	-0.457
-674.149	-114.103	-0.195	0.038
-673.135	108.407	-0.178	-0.215
-672.120	800.000	-0.013	0.036
-671.105	-44.865	-0.299	0.150
-670.091	-129.040	0.075	0.011
-669.076	-35.222	-0.286	0.157
-668.062	-200.000	-0.018	-0.196
-667.047	248.406	0.267	0.456
-666.032	29.397	0.280	0.240
-665.018	-95.322	-0.265	0.072
-664.003	-200.000	-0.053	-0.435
-662.989	800.000	0.044	-0.175
-661.974	-200.000	-0.035	-0.184
-660.959	768.063	0.170	-0.467
-659.945	63.399	-0.070	0.071
-658.930	365.946	-0.165	0.335
-657.916	-200.000	0.001	-0.095
-656.901	-16.986	-0.060	-0.038
-655.886	-200.000	0.008	0.131
-654.872	-37.597	0.256	-0.137
-653.857	170.515	-0.141	-0.204
-652.843	-200.000	0.002	0.067
-651.828	-200.000	0.036	0.163
-650.814	9.653	-0.228	-0.174
-649.799	16.789	0.142	-0.113
-648.784	-86.432	-0.097	0.030
-647.770	-35.735	-0.008	-0.004
-646.755	-65.116	0.083	-0.034
-645.741	-136.962	0.097	0.011
-644.726	314.072	0.125	0.237
-643.711	7.099	-0.206	0.155
-642.697	393.106	-0.078	-0.163
-641.682	-10.102	-0.287	-0.192
-640.668	603.123	-0.115	0.289
-639.653	-200.000	-0.001	0.024
-638.638	620.776	0.073	-0.184
-637.624	-194.215	0.147	0.001
-636.609	-43.340	-0.403	-0.205
-635.595	77.841	0.086	0.092
-634.580	-51.309	-0.043	0.020
-633.565	-200.000	0.025	-0.337
-632.551	612.002	-0.138	-0.348
-631.536	102.101	-0.106	0.124
-630.522	-15.840	-0.236	-0.151
-629.507	484.290	-0.127	0.291
-628.492	141.818	0.061	0.082
-627.478	63.746	0.106	-0.107
-626.463	-200.000	-0.020	-0.138
-625.449	-60.385	-0.478	0.205
-624.434	110.240	-0.222	-0.269
-623.419	-200.000	0.023	-0.189
-622.405	311.763	-0.179	-0.339
-621.390	41.960	-0.223	0.203
-620.376	-81.957	-0.158	0.052
-619.361	3.512	0.124	-0.091
-618.346	43.096	-0.193	0.177
-617.332	761.233	0.124	0.339
-616.317	133.079	-0.116	-0.151
-615.303	-76.122	0.259	-0.092
-614.288	-3.509	0.166	-0.116
-613.273	-200.000	-0.004	0.205
-612.259	800.000	0.016	0.064
-611.244	30.986	0.060	0.052
-610.230	-77.541	-0.434	-0.151
-609.215	-53.492	0.226	-0.104
-608.201	800.000	-0.033	-0.097
-607.186	-200.000	0.035	-0.250
-606.171	27.050	0.210	-0.177
-605.157	-200.000	-0.046	-0.275
-604.142	305.480	-0.095	0.178
-603.128	50.888	-0.092	-0.087
-602.113	-139.650	0.075	-0.008
-601.098	-103.848	0.135	0.032
-600.084	-32.443	0.139	-0.078
-599.069	-146.035	-0.108	-0.010
-598.055	117.962	-0.062	0.077
-597.040	-82.793	0.121	0.039
-596.025	-50.787	-0.128	0.060
-595.011	-130.527	0.249	-0.034
-593.996	-200.000	-0.027	0.419
-592.982	-17.158	-0.244	-0.154
-591.967	-200.000	0.058	0.437
-590.952	142.361	-0.093	0.124
-589.938	-90.495	0.298	-0.087
-588.923	800.000	-0.065	0.193
-587.909	-100.979	0.143	-0.035
-586.894	108.629	-0.127	-0.153
-585.879	291.108	-0.192	-0.351
-584.865	-200.000	-0.019	-0.137
-583.850	-193.661	0.314	-0.003
-582.836	-25.708	-0.281	0.167
-581.821	-13.414	-0.126	0.082
-580.806	-137.807	0.088	-0.010
-579.792	142.899	0.102	-0.136
-578.777	-79.919	-0.556	0.188
-577.763	52.330	0.382	0.366
-576.748	-200.000	0.005	-0.101
-575.733	504.440	-0.130	0.303
-574.719	-154.651	0.333	0.022
-573.704	-63.668	-0.114	-0.047
-572.690	-1.990	0.187	-0.132
-571.675	-44.123	0.185	0.093
-570.661	12.978	0.156	0.121
-569.646	-125.330	0.218	-0.033
-568.631	-116.749	-0.175	-0.032
-567.617	18.786	0.281	0.226
-566.602	12.732	-0.209	0.162
-565.588	800.000	-0.128	0.368
-564.573	800.000	0.059	0.193
-563.558	290.730	0.074	0.134
-562.544	-200.000	-0.094	-0.458
-561.529	51.660	-0.197	-0.189
-560.515	-200.000	0.012	-0.192
-559.500	-24.873	-0.137	0.082
-558.485	558.074	0.106	0.256
-557.471	800.000	0.051	-0.159
-556.456	530.546	-0.034	-0.080
-555.442	665.052	0.040	0.104
-554.427	329.297	-0.040	-0.078
-553.412	-15.095	0.162	0.104
-552.398	-200.000	-0.062	0.294
-551.383	-130.979	-0.175	0.023
-550.369	800.000	0.043	0.186
-549.354	69.772	0.150	-0.155
-548.339	93.610	-0.170	-0.193
-547.325	135.775	0.170	-0.222
-546.310	223.167	-0.093	-0.151
-545.296	-99.474	0.437	-0.110
-544.281	53.222	-0.125	0.120
-543.266	-142.281	0.362	0.036
-542.252	-9.822	0.214	-0.143
-541.237	151.142	0.136	-0.186
-540.223	217.023	-0.188	-0.300
-539.208	9.229	-0.245	-0.186
-538.193	205.176	-0.333	0.518
-537.179	-20.875	-0.230	0.141
-536.164	-53.776	-0.168	0.077
-535.150	-159.622	-0.107	-0.006
-534.135	0.189	0.253	-0.181
-533.121	137.940	0.122	-0.160
-532.106	129.090	-0.121	0.155
-531.091	122.402	-0.250	0.314
-530.077	101.016	0.200	-0.234
-529.062	-112.299	-0.333	-0.067
-528.048	-11.024	-0.210	-0.139
-527.033	-160.292	-0.356	0.019
-526.018	215.664	0.067	0.107
-525.004	63.917	-0.165	-0.166
-523.989	-141.418	0.100	0.010
-522.975	800.000	0.072	-0.214
-521.960	-128.643	0.054	-0.008
-520.945	311.616	-0.047	0.089
-519.931	800.000	-0.019	-0.082
-518.916	-200.000	0.006	-0.250
-517.902	800.000	-0.041	-0.168
-516.887	-200.000	-0.004	-0.039
-515.872	245.725	-0.082	-0.139
-514.858	-200.000	0.010	0.224
-513.843	-200.000	-0.018	-0.239
-512.829	-117.107	0.403	-0.074
-511.814	-33.896	0.201	0.111
-510.799	-106.799	0.391	-0.087
-509.785	457.531	0.094	0.209
-508.770	12.582	-0.090	0.070
-507.756	88.624	-0.182	0.202
-506.741	-40.725	-0.209	-0.109
-505.726	-26.922	-0.262	-0.153
-504.712	119.435	0.107	-0.132
-503.697	103.101	-0.083	0.097
-502.683	240.358	0.081	-0.136
-501.668	-87.003	-0.018	-0.006
-500.653	-115.085	-0.302	0.057
-499.639	22.415	-0.209	0.171
-498.624	326.304	-0.171	0.328
-497.610	147.392	-0.295	-0.398
-496.595	275.897	-0.086	0.153
-495.581	-150.657	0.163	0.012
-494.566	114.348	0.170	0.207
-493.551	-164.661	0.272	0.012
-492.537	-115.371	0.180	0.034
-491.522	251.803	0.121	-0.206
-490.508	-72.439	-0.213	0.079
-489.493	-27.859	0.195	-0.113
-488.478	210.556	-0.118	-0.185
-487.464	800.000	-0.038	0.152
-486.449	800.000	0.039	-0.162
-485.435	-200.000	-0.031	-0.398
-484.420	-99.903	0.444	0.111
-483.405	28.846	-0.135	0.114
-482.391	1.097	-0.259	-0.186
-481.376	798.532	0.037	-0.102
-480.362	616.687	0.088	0.220
-479.347	-29.934	-0.221	-0.126
-478.332	-30.277	-0.327	0.186
-477.318	800.000	-0.052	-0.163
-476.303	-200.000	0.014	0.071
-475.289	448.798	0.095	0.210
-474.274	184.481	-0.060	-0.089
-473.259	-177.126	-0.191	0.005
-472.245	-112.518	-0.091	0.018
-471.230	-200.000	-0.002	-0.172
-470.216	73.840	0.165	0.173
-469.201	-200.000	0.013	-0.649
-468.186	-200.000	0.041	-0.249
-467.172	382.239	0.067	0.139
-466.157	800.000	0.028	-0.120
-465.143	-143.763	0.284	0.027
-464.128	-48.066	0.194	0.094
-463.113	-67.751	0.231	0.090
-462.099	-46.100	0.037	0.018
-461.084	-133.618	-0.043	0.005
-460.070	-191.192	0.243	0.003
-459.055	-200.000	-0.043	-0.268
-458.040	-120.706	-0.331	-0.056
-457.026	-200.000	-0.047	-0.311
-456.011	635.275	0.070	-0.178
-454.997	89.067	0.021	0.024
-453.982	9.847	-0.186	-0.141
-452.968	-64.639	-0.127	-0.051
-451.953	-15.144	-0.229	0.146
-450.938	564.325	0.136	-0.330
-449.924	-189.599	0.127	0.001
-448.909	-32.032	-0.147	0.082
-447.895	-11.767	-0.081	0.053
-446.880	-89.711	0.305	-0.089
-445.865	-200.000	0.022	-0.325
-444.851	26.294	0.050	-0.042
-443.836	-112.174	0.132	-0.027
-442.822	-81.423	-0.007	0.002
-441.807	158.521	0.113	0.157
-440.792	32.828	0.223	0.193
-439.778	241.946	0.026	-0.043
-438.763	176.587	0.041	0.060
-437.749	-72.104	-0.335	-0.124
-436.734	220.587	-0.087	0.140
-435.719	-200.000	-0.031	-0.161
-434.705	-200.000	0.023	0.207
-433.690	800.000	0.023	0.079
-432.676	236.917	0.246	-0.407
-431.661	488.848	0.075	0.170
-430.646	-93.219	0.213	0.059
-429.632	749.619	0.096	0.259
-428.617	-74.763	-0.232	0.083
-427.603	464.204	0.111	-0.248
-426.588	-97.903	-0.202	0.052
-425.573	17.507	0.264	0.210
-424.559	-82.143	-0.190	0.062
-423.544	800.000	-0.076	-0.246
-422.530	15.980	-0.135	0.106
-421.515	142.406	0.134	-0.177
-420.500	-103.364	-0.173	-0.041
-419.486	-200.000	0.009	0.386
-418.471	-80.653	-0.153	0.051
-417.457	-18.942	-0.237	-0.147
-416.442	800.000	0.094	0.371
-415.428	213.283	-0.066	-0.104
-414.413	10.625	0.339	0.258
-413.398	-200.000	0.010	0.202
-412.384	304.927	0.096	0.178
-411.369	-142.505	-0.088	0.009
-410.355	-55.042	0.242	0.109
-409.340	-200.000	-0.028	0.242
-408.325	8.560	-0.043	-0.032
-407.311	398.143	-0.058	-0.120
-406.296	50.631	0.139	-0.131
-405.282	800.000	0.091	0.263
-404.267	-57.489	0.091	-0.040
-403.252	77.040	-0.242	-0.256
-402.238	-21.484	0.358	-0.218
-401.223	153.791	0.138	-0.189
-400.209	67.402	0.221	-0.225
-399.194	-105.071	-0.085	-0.019
-398.179	46.184	0.027	0.025
-397.165	-123.447	0.214	-0.034
-396.150	-200.000	-0.074	0.000
-395.136	-200.000	-0.032	-0.304
-394.121	19.894	0.214	-0.172
-393.106	-106.541	0.153	0.034
-392.092	22.688	0.141	0.115
-391.077	800.000	-0.120	0.341
-390.063	532.796	-0.162	-0.383
-389.048	-15.388	-0.085	-0.054
-388.033	645.899	0.067	0.170
-387.019	800.000	-0.038	-0.113
-386.004	-68.876	0.476	0.183
-384.990	-200.000	0.017	-0.143
-383.975	-200.000	-0.024	0.112
-382.960	-155.322	0.236	0.015
-381.946	340.922	-0.156	0.303
-380.931	159.502	0.180	-0.250
-379.917	48.772	-0.135	-0.126
-378.902	800.000	0.066	-0.256
-377.888	513.652	0.040	-0.092
-376.873	-13.650	0.102	0.066
-375.858	-142.313	-0.192	0.019
-374.844	-22.841	0.253	-0.152
-373.829	-200.000	-0.028	-0.281
-372.815	-41.616	0.177	-0.090
-371.800	-19.991	0.047	0.029
-370.785	-57.026	-0.086	-0.038
-369.771	-200.000	-0.034	0.161
-368.756	116.739	-0.075	0.091
-367.742	-159.796	-0.358	0.020
-366.727	800.000	-0.055	-0.205
-365.712	-84.812	0.185	-0.058
-364.698	17.352	-0.052	0.041
-363.683	-200.000	-0.008	-0.109
-362.669	-200.000	-0.001	0.071
-361.654	526.990	0.119	-0.278
-360.639	-65.344	0.191	-0.076
-359.625	0.314	-0.083	-0.059
-358.610	-200.000	0.057	0.594
-357.596	570.738	-0.063	0.153
-356.581	197.183	0.088	-0.133
-355.566	800.000	-0.033	0.099
-354.552	-104.891	0.192	0.044
-353.537	-97.782	0.160	0.041
-352.523	800.000	0.080	0.231
-351.508	-93.937	-0.174	-0.048
-350.493	370.220	-0.086	-0.174
-349.479	-15.407	0.114	-0.073
-348.464	-200.000	-0.039	0.295
-347.450	800.000	0.051	0.168
-346.435	-200.000	-0.025	0.128
-345.420	102.560	-0.096	0.112
-344.406	-139.824	0.215	-0.023
-343.391	-119.264	0.244	-0.042
-342.377	-16.149	-0.172	-0.109
-341.362	-121.545	0.311	0.051
-340.348	144.899	-0.141	-0.188
-339.333	-168.399	0.490	0.019
-338.318	-82.900	-0.119	-0.038
-337.304	635.393	0.036	0.092
-336.289	651.586	0.049	0.124
-335.275	-110.789	-0.227	0.047
-334.260	478.577	-0.177	0.400
-333.245	62.844	0.070	-0.070
-332.231	-200.000	0.005	-0.028
-331.216	84.854	-0.150	0.164
-330.202	480.948	0.072	-0.162
-329.187	-139.528	-0.255	-0.027
-328.172	429.075	-0.161	0.346
-327.158	800.000	0.081	0.228
-326.143	-200.000	-0.045	0.234
-325.129	-33.318	0.101	-0.056
-324.114	135.668	0.095	0.123
-323.099	800.000	0.058	0.162
-322.085	-92.740	-0.189	0.053
-321.070	299.830	0.122	-0.225
-320.056	32.923	-0.154	-0.133
-319.041	4.814	0.357	0.261
-318.026	-78.513	-0.427	-0.145
-317.012	12.119	-0.047	-0.036
-315.997	-63.033	-0.104	0.043
-314.983	-97.011	-0.198	-0.051
-313.968	-33.314	0.126	0.069
-312.953	136.793	-0.053	-0.069
-311.939	44.803	0.043	0.039
-310.924	-113.002	0.138	0.027
-309.910	-17.868	0.143	-0.089
-308.895	-40.300	0.080	0.041
-307.880	800.000	0.053	-0.179
-306.866	603.603	0.062	0.152
-305.851	226.102	0.077	-0.125
-304.837	-200.000	0.020	0.146
-303.822	-200.000	0.064	0.394
-302.807	-141.394	-0.088	-0.009
-301.793	-174.999	-0.176	0.005
-300.778	-54.393	-0.077	-0.035
-299.764	-137.143	-0.331	-0.038
-298.749	141.472	0.145	0.191
-297.735	65.978	0.332	0.334
-296.720	-40.560	0.299	-0.154
-295.705	800.000	-0.022	-0.082
-294.691	800.000	0.062	0.240
-293.676	490.581	-0.071	-0.161
-292.662	9.173	-0.080	-0.060
-291.647	-31.955	0.238	0.132
-290.632	-118.058	0.039	-0.007
-289.618	63.707	0.159	0.158
-288.603	-200.000	0.005	0.214
-287.589	162.563	-0.073	0.102
-286.574	231.692	0.246	0.401
-285.559	-67.103	-0.212	0.083
-284.545	800.000	0.034	0.095
-283.530	-200.000	0.024	-0.131
-282.516	-107.751	0.106	-0.023
-281.501	-200.000	0.027	0.314
-280.486	136.874	0.060	-0.078
-279.472	-24.960	0.175	0.103
-278.457	-23.663	0.167	-0.099
-277.443	115.044	0.135	0.163
-276.428	-54.906	-0.086	0.039
-275.413	-200.000	-0.000	0.296
-274.399	180.648	-0.222	0.323
-273.384	800.000	0.021	-0.080
-272.370	-99.364	0.231	-0.058
-271.355	800.000	0.083	-0.248
-270.340	-200.000	-0.007	0.221
-269.326	-149.360	0.090	-0.007
-268.311	331.562	-0.095	0.181
-267.297	40.337	0.081	-0.072
-266.282	137.767	-0.151	-0.196
-265.267	800.000	0.078	-0.233
-264.253	-30.092	-0.067	0.038
-263.238	154.872	0.098	-0.134
-262.224	800.000	-0.108	0.339
-261.209	-62.712	-0.195	0.080
-260.195	262.121	-0.113	0.194
-259.180	-108.857	0.201	0.043
-258.165	-200.000	0.065	-0.311
-257.151	-19.823	-0.189	0.116
-256.136	-86.489	-0.087	0.026
-255.122	312.931	0.126	-0.235
-254.107	-52.678	0.357	-0.163
-253.092	-200.000	-0.055	0.380
-252.078	102.528	-0.114	0.132
-251.063	48.072	-0.199	0.184
-250.049	573.553	-0.124	0.300
-249.034	-200.000	0.025	-0.448
-248.019	-200.000	0.005	-0.129
-247.005	402.954	0.031	0.065
-245.990	585.941	-0.016	-0.039
-244.976	192.110	-0.149	-0.223
-243.961	141.358	0.172	-0.226
-242.946	800.000	0.084	0.333
-241.932	9.700	-0.148	-0.111
-240.917	-39.307	-0.172	0.090
-239.903	-89.216	0.102	-0.030
-238.888	197.889	-0.193	0.292
-237.873	289.739	0.034	-0.061
-236.859	205.153	0.218	-0.336
-235.844	800.000	0.060	-0.202
-234.830	-200.000	0.065	0.571
-233.815	-50.691	0.087	-0.041
-232.800	-66.076	0.162	-0.064
-231.786	-48.410	0.171	-0.082
-230.771	-102.550	0.242	-0.057
-229.757	15.124	-0.283	0.219
-228.742	-200.000	-0.004	-0.030
-227.727	370.992	-0.138	-0.277
-226.713	-58.341	-0.302	-0.130
-225.698	10.823	-0.167	0.126
-224.684	-200.000	-0.382	-0.002
-223.669	-143.105	-0.200	0.019
-222.655	-172.550	-0.298	0.009
-221.640	107.733	0.098	0.115
-220.625	800.000	0.105	-0.300
-219.611	153.732	-0.180	-0.245
-218.596	-89.746	-0.215	-0.062
-217.582	253.187	0.146	0.247
-216.567	-44.019	-0.277	0.138
-215.552	800.000	-0.025	0.068
-214.538	197.800	0.096	-0.146
-213.523	354.503	-0.186	0.365
-212.509	-195.114	0.378	-0.003
-211.494	-200.000	-0.017	-0.189
-210.479	-168.204	-0.216	0.008
-209.465	-137.214	-0.208	0.023
-208.450	-121.727	-0.398	0.065
-207.436	-18.397	0.200	0.124
-206.421	97.534	0.217	-0.246
-205.406	-156.709	-0.162	-0.010
-204.392	161.649	0.016	-0.022
-203.377	-24.544	-0.204	0.120
-202.363	656.625	0.128	0.327
-201.348	-93.712	-0.117	0.032
-200.333	-18.193	-0.087	0.054
-199.319	-127.869	0.114	0.016
-198.304	-0.846	0.406	-0.285
-197.290	143.720	-0.097	0.128
-196.275	-200.000	-0.014	-0.234
-195.260	800.000	-0.007	-0.029
-194.246	-112.746	-0.115	0.023
-193.231	-109.401	0.084	0.018
-192.217	-200.000	0.064	-0.385
-191.202	141.412	0.265	-0.347
-190.187	-62.560	-0.070	-0.029
-189.173	594.221	-0.042	-0.103
-188.158	-200.000	0.004	0.147
-187.144	-39.715	0.224	0.116
-186.129	-46.822	-0.165	0.080
-185.114	-200.000	0.005	-0.122
-184.100	16.931	0.213	-0.167
-183.085	9.994	-0.439	0.330
-182.071	-84.680	0.238	-0.074
-181.056	671.003	0.028	-0.073
-180.042	31.215	0.154	0.130
-179.027	-200.000	0.011	-0.085
-178.012	-54.159	0.125	-0.056
-176.998	50.268	0.311	0.290
-175.983	-200.000	-0.061	0.303
-174.969	208.642	-0.115	-0.178
-173.954	411.379	-0.043	0.091
-172.939	-101.513	-0.120	-0.029
-171.925	-200.000	-0.026	0.430
-170.910	-200.000	0.022	-0.130
-169.896	800.000	0.063	-0.174
-168.881	194.821	0.186	0.279
-167.866	-200.000	-0.030	-0.463
-166.852	229.076	0.145	-0.235
-165.837	351.842	-0.035	-0.068
-164.823	-200.000	-0.044	0.202
-163.808	-83.149	0.273	-0.087
-162.793	81.415	-0.149	-0.159
-161.779	-34.058	-0.100	-0.054
-160.764	-200.000	0.003	-0.048
-159.750	-200.000	-0.004	0.145
-158.735	-124.735	-0.780	0.119
-157.720	-106.924	0.106	0.023
-156.706	2.230	-0.270	-0.193
-155.691	-54.513	-0.379	-0.169
-154.677	228.304	-0.099	-0.159
-153.662	650.335	-0.018	0.045
-152.647	45.101	0.230	-0.210
-151.633	-182.467	0.358	0.007
-150.618	118.743	-0.143	-0.174
-149.604	79.386	0.061	0.065
-148.589	368.280	0.128	0.255
-147.574	619.309	0.058	-0.144
-146.560	-34.112	0.080	0.043
-145.545	-200.000	0.005	-0.204
-144.531	-102.363	-0.314	-0.074
-143.516	-95.021	0.160	0.043
-142.502	41.744	0.199	-0.178
-141.487	-200.000	0.017	0.138
-140.472	800.000	-0.074	0.228
-139.458	-30.953	-0.207	0.116
-138.443	205.237	-0.055	-0.084
-137.429	2.629	-0.150	-0.107
-136.414	11.844	0.073	-0.055
-135.399	-129.262	0.192	0.026
-134.385	118.776	-0.071	-0.087
-133.370	-117.801	0.158	-0.028
-132.356	-37.071	0.072	-0.038
-131.341	83.092	-0.229	-0.246
-130.326	-76.830	-0.174	0.060
-129.312	669.651	-0.100	0.255
-128.297	800.000	-0.062	-0.261
-127.283	15.910	-0.111	-0.086
-126.268	-200.000	-0.007	0.040
-125.253	800.000	0.074	0.243
-124.239	-166.042	-0.039	0.002
-123.224	-86.370	-0.219	-0.066
-122.210	2.421	-0.041	-0.029
-121.195	-44.486	0.287	0.142
-120.180	390.550	-0.057	0.117
-119.166	22.993	-0.103	0.083
-118.151	-159.371	-0.094	0.005
-117.137	800.000	0.079	-0.247
-116.122	-94.289	-0.278	0.075
-115.107	6.107	0.203	-0.148
-114.093	340.506	0.109	0.210
-113.078	130.677	0.190	-0.241
-112.064	84.300	0.225	0.243
-111.049	57.625	-0.184	-0.177
-110.034	-200.000	0.051	-0.390
-109.020	-97.883	-0.370	0.094
-108.005	800.000	-0.073	0.257
-106.991	-113.311	-0.115	0.022
-105.976	-102.032	-0.163	-0.039
-104.962	-147.084	-0.255	-0.022
-103.947	-35.783	0.075	-0.040
-102.932	59.548	0.190	0.185
-101.918	-81.693	-0.113	-0.037
-100.903	-7.221	0.227	-0.152
-99.889	-104.696	0.120	0.027
-98.874	437.712	-0.014	0.029
-97.859	-34.396	0.168	-0.091
-96.845	-99.225	0.079	-0.020
-95.830	-200.000	-0.073	0.387
-94.816	800.000	-0.054	-0.171
-93.801	16.639	-0.109	0.085
-92.786	621.144	-0.059	-0.147
-91.772	385.515	-0.077	0.156
-90.757	289.704	0.115	-0.206
-89.743	-84.480	-0.187	0.058
-88.728	-102.691	0.165	0.039
-87.713	39.328	-0.297	-0.262
-86.699	-126.898	-0.041	-0.006
-85.684	271.414	0.089	0.155
-84.670	4.492	-0.228	0.165
-83.655	-28.191	0.030	0.017
-82.640	16.232	-0.346	-0.269
-81.626	149.677	0.108	-0.145
-80.611	800.000	-0.025	0.083
-79.597	-101.877	0.023	0.006
-78.582	-11.880	-0.183	0.118
-77.567	-11.082	-0.177	-0.115
-76.553	-200.000	0.011	-0.113
-75.538	18.636	-0.147	-0.116
-74.524	800.000	0.082	-0.226
-73.509	-168.418	0.294	-0.011
-72.494	15.081	-0.188	0.145
-71.480	588.834	-0.046	-0.111
-70.465	-200.000	-0.016	-0.290
-69.451	39.432	0.142	0.125
-68.436	592.030	0.031	0.075
-67.422	-40.581	-0.248	0.127
-66.407	87.312	-0.330	0.360
-65.392	-200.000	0.013	-0.111
-64.378	-99.400	-0.210	-0.052
-63.363	-133.138	-0.044	0.006
-62.349	-200.000	-0.006	0.260
-61.334	66.242	-1.291	-1.290
-60.319	800.000	0.123	0.486
-59.305	608.656	-0.276	-0.678
-58.290	280.810	0.592	1.042
-57.276	518.613	0.714	1.645
-56.261	-200.000	96.424	595.973
-55.246	563.904	1374.095	3275.464
-54.232	161.000	2550.879	3507.531
-53.217	112.096	2162.204	2571.454
-52.203	42.811	1707.894	1531.298
-51.188	35.420	1521.640	1313.882
-50.173	32.912	1495.413	1274.280
-49.159	51.911	1544.318	1446.698
-48.144	53.810	1561.209	1475.487
-47.130	35.588	1521.084	1314.338
-46.115	32.385	1506.866	1280.251
-45.100	32.222	1503.466	1276.202
-44.086	32.184	1501.726	1274.418
-43.071	32.141	1499.931	1272.553
-42.057	32.138	1497.782	1270.661
-41.042	32.118	1496.406	1269.307
-40.027	32.202	1495.036	1268.663
-39.013	32.124	1493.726	1266.976
-37.998	32.121	1492.400	1265.780
-36.984	32.167	1491.162	1264.987
-35.969	32.126	1489.962	1263.644
-34.954	32.162	1488.162	1262.305
-33.940	32.237	1486.666	1261.495
-32.925	32.164	1485.745	1260.174
-31.911	32.054	1484.302	1258.160
-30.896	32.224	1482.606	1257.812
-29.881	32.279	1481.488	1257.181
-28.867	32.224	1480.424	1255.860
-27.852	32.247	1478.777	1254.569
-26.838	32.158	1477.751	1253.051
-25.823	32.259	1475.285	1251.582
-24.809	32.179	1474.479	1250.320
-23.794	32.134	1472.691	1248.451
-22.779	32.227	1471.370	1247.902
-21.765	32.232	1470.158	1246.857
-20.750	32.207	1469.310	1245.921
-19.736	32.100	1468.404	1244.395
-18.721	32.063	1467.623	1243.439
-17.706	32.015	1466.746	1242.327
-16.692	32.147	1464.601	1241.338
-15.677	32.068	1463.780	1240.072
-14.663	32.180	1462.900	1240.015
-13.648	32.062	1461.774	1238.230
-12.633	32.085	1460.519	1237.271
-11.619	32.038	1459.972	1236.449
-10.604	32.109	1459.120	1236.146
-9.590	32.003	1458.588	1234.949
-8.575	31.998	1457.953	1234.327
-7.560	32.058	1456.809	1233.707
-6.546	32.044	1455.774	1232.688
-5.531	31.993	1454.941	1231.600
-4.517	32.070	1453.705	1231.008
-3.502	32.094	1452.540	1230.129
-2.487	32.151	1451.567	1229.634
-1.473	32.097	1450.314	1228.166
-0.458	32.059	1449.067	1226.815
0.556	31.937	1439.431	1215.916
1.571	29.115	1414.716	1176.931
2.586	25.842	1358.667	1110.072
3.600	24.383	1279.407	1036.749
4.615	23.118	1232.274	991.380
5.629	19.288	1174.328	924.183
6.644	9.791	1087.074	808.081
7.659	2.736	1046.253	743.561
8.673	1.759	1040.863	734.950
9.688	1.561	1037.505	731.562
10.702	1.435	1036.401	730.112
11.717	1.426	1034.156	728.424
12.731	4.287	1037.533	744.484
13.746	14.053	1051.058	801.412
14.761	22.366	1061.701	849.767
15.775	24.535	1064.206	862.180
16.790	24.998	1063.919	864.106
17.804	24.887	1063.371	863.050
18.819	24.679	1062.608	861.350
19.834	24.865	1061.676	861.417
20.848	24.904	1062.013	861.801
21.863	25.046	1061.513	862.001
22.877	24.947	1060.742	860.826
23.892	25.067	1060.141	860.835
24.907	24.923	1059.246	859.340
25.921	24.832	1058.682	858.371
26.936	24.899	1058.048	858.101
27.950	24.884	1056.729	856.886
28.965	24.886	1055.414	855.752
29.980	24.747	1054.324	854.131
30.994	24.704	1052.794	852.608
32.009	24.928	1052.076	853.020
33.023	25.033	1051.576	853.041
34.038	24.848	1050.350	851.090
35.053	24.755	1049.862	850.176
36.067	24.769	1049.373	849.775
37.082	25.013	1048.079	849.805
38.096	24.902	1047.546	848.774
39.111	25.071	1046.579	848.713
40.126	25.130	1046.169	848.587
41.140	25.004	1045.058	847.013
42.155	24.822	1043.297	844.651
43.169	24.632	1042.203	842.795
44.184	24.529	1040.966	841.237
45.199	24.537	1040.359	840.708
46.213	24.337	1039.660	839.131
47.228	24.500	1038.574	838.944
48.242	24.651	1037.935	839.063
49.257	24.673	1037.558	838.788
50.271	24.736	1036.714	838.327
51.286	24.922	1036.004	838.549
52.301	24.927	1035.020	837.701
53.315	25.015	1034.006	837.218
54.330	25.042	1033.530	836.885
55.344	24.881	1032.866	835.519
56.359	24.991	1031.512	834.864
57.374	24.823	1031.229	833.778
58.388	24.718	1030.170	832.362
59.403	24.617	1029.615	831.371
60.417	24.629	1028.867	830.749
61.432	24.546	1027.947	829.546
62.447	24.500	1027.532	828.924
63.461	24.636	1026.725	828.832
64.476	24.756	1025.786	828.556
65.490	24.761	1024.832	827.734
66.505	24.556	1023.915	825.972
67.520	24.511	1023.670	825.494
68.534	24.657	1022.619	825.247
69.549	24.553	1021.636	823.902
70.563	24.145	1020.744	821.229
71.578	24.043	1019.823	819.943
72.593	24.246	1018.641	819.853
73.607	24.023	1017.517	817.852
74.622	23.947	1017.110	817.103
75.636	24.331	1016.146	818.019
76.651	24.499	1015.549	818.235
77.666	24.324	1014.876	816.822
78.680	24.227	1013.905	815.522
79.695	24.246	1013.650	815.332
80.709	24.456	1012.220	815.071
81.724	24.414	1012.353	814.913
82.739	24.448	1011.080	813.971
83.753	24.571	1010.067	813.645
84.768	24.805	1009.349	814.057
85.782	25.042	1009.401	815.105
86.797	25.326	1008.473	815.573
87.812	25.273	1007.509	814.482
88.826	24.944	1006.874	812.405
89.841	25.108	1005.993	812.367
90.855	25.120	1004.936	811.494
91.870	25.176	1004.194	811.075
92.884	25.166	1003.276	810.219
93.899	25.022	1002.910	809.203
94.914	24.996	1001.085	807.541
95.928	25.097	1000.830	807.716
96.943	25.093	999.652	806.679
97.957	24.737	999.131	804.586
98.972	24.599	997.926	802.923
99.987	24.354	996.937	800.956
101.001	24.492	996.191	800.905
102.016	24.880	995.367	801.909
103.030	24.754	994.832	800.844
104.045	24.855	993.403	800.074
105.060	24.541	992.439	797.824
106.074	24.545	990.982	796.599
107.089	24.377	990.885	795.703
108.103	24.694	990.607	796.823
109.118	24.938	989.352	796.827
110.133	24.652	988.131	794.504
111.147	24.660	987.041	793.594
112.162	24.537	985.865	792.032
113.176	24.218	985.312	790.103
114.191	24.453	984.307	790.266
115.206	24.583	983.522	790.143
116.220	24.164	982.374	787.299
117.235	24.125	981.376	786.259
118.249	24.328	980.824	786.642
119.264	24.290	979.965	785.716
120.279	24.183	978.928	784.342
121.293	24.262	978.090	783.948
122.308	24.303	977.895	783.906
123.322	24.319	977.144	783.302
124.337	24.272	975.762	781.921
125.352	24.080	975.089	780.469
126.366	23.779	973.169	777.548
127.381	23.547	971.538	775.160
128.395	23.985	971.648	777.095
129.410	24.517	971.948	779.588
130.424	24.854	970.487	779.814
131.439	24.811	969.852	779.048
132.454	24.777	968.421	777.685
133.468	24.753	967.962	777.141
134.483	24.746	967.395	776.587
135.497	24.677	966.893	775.817
136.512	24.874	966.313	776.135
137.527	25.030	965.195	775.846
138.541	24.913	964.636	774.820
139.556	25.071	963.693	774.677
140.570	25.040	963.117	774.012
141.585	25.038	962.140	773.152
142.600	24.990	961.722	772.538
143.614	25.018	960.543	771.645
144.629	25.111	959.764	771.351
145.643	25.297	959.178	771.611
146.658	25.190	958.162	770.266
147.673	25.092	956.676	768.581
148.687	24.920	955.694	766.988
149.702	24.836	954.926	765.947
150.716	24.774	954.146	764.987
151.731	24.722	952.878	763.679
152.746	24.823	952.216	763.512
153.760	25.076	951.563	763.999
154.775	25.032	950.886	763.203
155.789	25.258	950.034	763.412
156.804	25.299	948.925	762.628
157.819	25.131	947.904	761.028
158.833	25.183	946.999	760.454
159.848	25.111	946.585	759.749
160.862	25.329	945.641	759.848
161.877	25.164	944.647	758.282
162.892	25.041	944.026	757.197
163.906	25.149	943.268	756.979
164.921	25.185	942.377	756.348
165.935	25.150	940.799	754.869
166.950	25.202	940.456	754.746
167.964	25.125	939.235	753.377
168.979	25.268	938.098	752.996
169.994	25.104	937.150	751.481
171.008	24.952	936.328	750.118
172.023	25.132	935.785	750.369
173.037	25.294	935.085	750.422
174.052	25.073	934.118	748.655
175.067	24.886	933.092	746.986
176.081	24.916	931.686	745.919
177.096	25.011	931.070	745.757
178.110	25.049	930.428	745.333
179.125	24.536	929.541	742.427
180.140	24.540	928.223	741.324
181.154	24.525	927.761	740.826
182.169	24.607	927.649	741.013
183.183	24.874	927.029	741.558
184.198	25.181	926.734	742.529
185.213	25.193	925.761	741.733
186.227	25.170	925.321	741.217
187.242	25.064	925.013	740.467
188.256	25.154	924.117	740.058
189.271	25.192	923.217	739.429
190.286	25.181	922.882	739.047
191.300	25.208	921.798	738.224
192.315	24.572	920.339	734.377
193.329	23.774	918.831	729.832
194.344	23.395	917.608	727.242
195.359	24.002	918.359	730.265
196.373	24.872	918.491	733.873
197.388	25.114	918.183	734.554
198.402	24.992	917.835	733.712
199.417	24.989	917.173	733.105
200.432	24.976	917.007	732.856
201.446	24.905	916.120	731.791
202.461	24.744	914.984	730.162
203.475	24.729	914.598	729.725
204.490	24.280	912.908	726.484
205.504	23.142	911.123	720.371
206.519	23.557	910.726	721.682
207.534	24.419	911.601	725.817
208.548	24.690	910.418	725.913
209.563	25.080	910.336	727.365
210.577	25.144	909.419	726.830
211.592	24.733	909.112	724.854
212.607	25.251	908.592	726.471
213.621	25.396	908.448	726.880
214.636	25.265	907.798	725.766
215.650	25.301	906.940	725.159
216.665	25.233	906.217	724.244
217.680	25.145	906.161	723.778
218.694	25.320	905.369	723.789
219.709	24.940	904.680	721.644
220.723	24.428	903.979	718.956
221.738	24.734	903.241	719.540
222.753	25.127	902.297	720.302
223.767	24.855	901.881	718.816
224.782	25.047	900.856	718.704
225.796	25.172	900.728	719.041
226.811	25.380	899.948	719.185
227.826	25.046	898.573	716.687
228.840	24.090	897.627	712.049
229.855	23.936	897.106	710.956
230.869	24.326	896.601	712.052
231.884	24.103	895.434	710.174
232.899	24.039	895.010	709.518
233.913	24.833	895.413	712.938
234.928	24.992	894.903	713.103
235.942	24.905	894.099	712.053
236.957	25.054	893.474	712.084
237.972	24.571	892.848	709.607
238.986	24.518	892.042	708.690
240.001	24.692	891.713	709.056
241.015	24.638	890.762	708.023
242.030	24.788	889.994	707.946
243.045	24.972	889.588	708.286
244.059	25.008	889.269	708.113
245.074	25.095	888.982	708.165
246.088	24.952	888.427	707.096
247.103	24.787	887.171	705.385
248.117	24.733	886.872	704.869
249.132	25.286	886.818	706.943
250.147	25.680	886.618	708.273
251.161	25.814	886.108	708.329
252.176	25.962	885.493	708.356
253.190	25.853	885.045	707.509
254.205	25.900	884.542	707.227
255.220	26.189	884.040	707.896
256.234	26.133	883.003	706.784
257.249	26.085	882.738	706.323
258.263	25.860	882.184	704.935
259.278	25.994	881.261	704.660
260.293	25.931	881.003	704.143
261.307	26.183	880.265	704.476
262.322	26.070	879.320	703.218
263.336	25.716	879.171	701.655
264.351	25.377	877.589	699.014
265.366	24.229	875.645	692.941
266.380	23.925	874.727	690.975
267.395	24.645	875.531	694.346
268.409	25.469	875.403	697.381
269.424	25.526	874.793	697.056
270.439	25.462	874.495	696.507
271.453	25.752	873.348	696.656
272.468	25.836	872.888	696.552
273.482	25.765	872.863	696.193
274.497	26.031	872.687	697.023
275.512	25.872	871.281	695.221
276.526	25.273	869.846	691.708
277.541	25.514	869.605	692.382
278.555	25.869	869.367	693.501
279.570	25.675	868.648	692.118
280.585	25.408	868.118	690.608
281.599	25.631	867.407	690.840
282.614	25.618	866.960	690.371
283.628	25.301	865.608	688.020
284.643	24.938	865.319	686.336
285.657	25.306	864.771	687.250
286.672	25.267	864.480	686.811
287.687	24.772	863.167	683.816
288.701	25.013	863.290	684.774
289.716	25.411	862.814	685.853
290.730	25.115	862.127	684.118
291.745	24.998	861.360	683.001
292.760	24.883	860.119	681.523
293.774	24.879	859.450	680.917
294.789	25.617	860.987	684.884
295.803	26.273	860.624	687.028
296.818	26.342	859.947	686.690
297.833	26.466	859.253	686.548
298.847	26.115	858.457	684.518
299.862	25.727	857.557	682.270
300.876	25.938	857.287	682.793
301.891	26.374	856.649	683.877
302.906	26.296	856.251	683.202
303.920	25.954	855.060	680.900
304.935	25.849	854.724	680.174
305.949	26.011	854.481	680.532
306.964	26.306	853.728	680.986
307.979	26.010	853.095	679.306
308.993	25.973	852.777	678.853
310.008	26.274	852.794	679.941
311.022	26.484	852.071	680.090
312.037	26.252	851.393	678.619
313.052	26.070	850.838	677.432
314.066	25.971	849.939	676.287
315.081	25.101	848.531	671.849
316.095	24.513	847.168	668.510
317.110	25.096	847.405	670.819
318.125	25.682	848.212	673.591
319.139	25.435	846.978	671.628
320.154	24.254	845.176	665.732
321.168	23.959	844.244	663.839
322.183	24.449	844.360	665.700
323.197	25.504	844.685	669.832
324.212	25.783	844.326	670.527
325.227	25.890	844.128	670.708
326.241	26.118	843.592	671.071
327.256	25.804	843.252	669.574
328.270	25.918	842.287	669.171
329.285	25.912	841.424	668.405
330.300	25.725	840.478	666.899
331.314	25.422	839.988	665.329
332.329	25.602	839.481	665.537
333.343	25.844	839.447	666.345
334.358	26.143	839.070	667.093
335.373	26.213	838.500	666.837
336.387	26.169	837.818	666.077
337.402	26.433	837.289	666.571
338.416	26.637	836.963	667.002
339.431	26.703	836.889	667.128
340.446	26.521	836.350	665.969
341.460	26.706	835.823	666.171
342.475	26.760	834.839	665.524
343.489	26.463	834.445	664.060
344.504	26.583	833.834	663.959
345.519	26.711	833.632	664.207
346.533	27.071	833.102	665.043
347.548	26.954	833.062	664.525
348.562	27.042	832.336	664.209
349.577	26.977	831.879	663.548
350.592	27.048	830.987	663.038
351.606	26.865	830.426	661.863
352.621	26.787	830.068	661.234
353.635	26.809	829.614	660.897
354.650	26.729	829.230	660.238
355.665	26.412	828.372	658.343
356.679	25.326	826.487	652.840
357.694	25.110	826.366	651.902
358.708	25.944	826.027	654.607
359.723	25.801	825.341	653.485
360.738	26.126	825.066	654.388
361.752	26.492	825.186	655.751
362.767	26.562	825.197	655.957
363.781	26.837	824.919	656.676
364.796	27.033	824.853	657.273
365.810	27.300	824.421	657.835
366.825	27.387	823.557	657.401
367.840	27.436	823.551	657.516
368.854	27.211	822.689	655.959
369.869	26.762	821.762	653.543
370.883	26.637	821.076	652.490
371.898	26.577	821.072	652.211
372.913	26.662	819.625	651.313
373.927	26.754	818.800	650.927
374.942	26.736	818.737	650.755
375.956	26.870	818.172	650.728
376.971	26.873	817.637	650.257
377.986	27.098	817.250	650.697
379.000	27.196	816.985	650.782
380.015	27.449	816.244	651.039
381.029	27.114	815.572	649.246
382.044	26.900	815.048	648.009
383.059	27.212	814.680	648.772
384.073	27.304	814.004	648.503
385.088	27.336	813.743	648.352
386.102	27.334	812.724	647.476
387.117	27.125	811.999	646.097
388.132	27.111	811.565	645.645
389.146	26.805	810.854	643.938
390.161	26.303	810.135	641.526
391.175	26.341	810.200	641.659
392.190	26.931	810.059	643.582
393.205	26.943	809.465	643.096
394.219	25.949	807.699	638.119
395.234	24.218	805.654	630.330
396.248	23.546	804.121	626.701
397.263	24.664	805.332	631.542
398.278	26.354	806.681	638.521
399.292	26.867	806.288	639.962
400.307	26.569	805.619	638.326
401.321	26.459	805.242	637.583
402.336	26.686	804.853	638.016
403.350	26.700	805.092	638.201
404.365	27.244	804.716	639.758
405.380	27.644	804.551	640.978
406.394	27.922	804.482	641.844
407.409	27.996	803.821	641.520
408.423	27.999	803.364	641.107
409.438	27.887	802.888	640.280
410.453	27.794	802.730	639.769
411.467	27.818	802.205	639.378
412.482	27.924	801.420	639.069
413.496	27.921	801.166	638.797
414.511	27.914	800.927	638.526
415.526	27.834	800.797	638.085
416.540	27.964	800.382	638.154
417.555	27.822	799.372	636.796
418.569	27.587	798.894	635.540
419.584	27.725	797.564	634.906
420.599	27.579	797.992	634.682
421.613	110.338	1285.431	1459.544
422.628	95.083	1356.439	1459.650
