DTS Sentinel unit serial number:	SN413079Multiplexer serial number:	ORYXHardware model number:	OX4-SRSoftware version number:	ORYX F/W v4.00 Oryx Data Collector v3.7.2.0data status	okinstallation	princeton_trtdifferential loss correction	single-endedforward channel	channel 3reverse channel	N/Adate	2019/09/11time	16:30:11forward acquisition time	60.00reverse acquisition time	0.00gamma	496.2192k internal	0.2286k external	0.2286temperature offset calibration	0.9989default loss term (dB/km)	0.3790temperature slope calibration	1.0000multiplexer offset coefficient	1.0000multiplexer slope coefficient	1.0000fibre end	0.00T internal ref (°C)	43.64T ext. ref 1 (°C)	1.08T ext. ref 2 (°C)	39.57length (m)	temperature (°C)	Stokes	anti-Stokes-747.200	-200.000	-0.047	0.275
-746.185	800.000	0.050	0.189
-745.171	98.898	0.122	0.145
-744.156	-200.000	0.064	0.414
-743.142	-200.000	-0.024	0.142
-742.127	136.383	0.116	-0.155
-741.112	-200.000	-0.004	-0.111
-740.098	-200.000	-0.051	0.450
-739.083	-200.000	-0.036	0.190
-738.069	-56.181	-0.183	-0.084
-737.054	-200.000	0.047	-0.332
-736.039	-146.643	0.211	-0.019
-735.025	-150.218	0.182	0.014
-734.010	-86.343	-0.356	-0.112
-732.996	-200.000	0.032	-0.165
-731.981	-39.717	-0.130	-0.070
-730.966	-135.287	-0.220	-0.027
-729.952	275.789	0.117	0.213
-728.937	-137.212	-0.570	-0.067
-727.923	-200.000	0.127	-0.000
-726.908	-68.168	0.539	-0.215
-725.894	-57.618	-0.263	-0.118
-724.879	-116.658	0.255	0.048
-723.864	-200.000	0.013	-0.087
-722.850	-200.000	-0.011	-0.127
-721.835	50.637	-0.107	0.104
-720.821	65.279	0.226	-0.234
-719.806	-39.879	-0.148	-0.079
-718.791	800.000	0.146	-0.457
-717.777	344.004	0.064	-0.128
-716.762	-38.530	-0.403	-0.218
-715.748	-200.000	-0.041	-0.245
-714.733	-80.163	-0.040	0.014
-713.718	-94.462	0.153	0.043
-712.704	-200.000	0.001	0.005
-711.689	-200.000	0.039	0.193
-710.675	65.420	0.265	-0.274
-709.660	-36.376	-0.252	0.139
-708.645	86.941	0.059	-0.066
-707.631	-24.256	0.281	-0.172
-706.616	-48.209	-0.186	-0.092
-705.602	-68.483	0.431	-0.171
-704.587	-154.171	0.174	-0.012
-703.572	800.000	0.021	-0.060
-702.558	-74.633	-0.147	-0.054
-701.543	-35.331	-0.155	0.086
-700.529	613.321	0.054	0.139
-699.514	9.587	-0.069	-0.053
-698.499	275.501	-0.078	-0.141
-697.485	174.232	-0.082	0.121
-696.470	-30.227	0.055	0.032
-695.456	18.961	-0.036	0.029
-694.441	1.658	-0.204	-0.150
-693.426	-129.853	-0.188	-0.026
-692.412	800.000	0.051	0.152
-691.397	106.107	0.170	-0.207
-690.383	-200.000	-0.020	-0.175
-689.368	-59.239	-0.102	-0.045
-688.354	-103.458	-0.328	-0.079
-687.339	-90.115	-0.167	0.050
-686.324	88.224	-0.088	-0.100
-685.310	-116.509	-0.245	-0.046
-684.295	676.925	0.171	-0.454
-683.281	-39.040	0.149	-0.080
-682.266	22.939	0.246	0.206
-681.251	-157.722	0.101	0.006
-680.237	-163.605	-0.354	-0.017
-679.222	37.582	-0.244	-0.221
-678.208	800.000	0.043	0.158
-677.193	23.184	0.161	0.135
-676.178	30.707	-0.206	0.180
-675.164	112.702	0.359	-0.445
-674.149	-200.000	-0.012	0.255
-673.135	714.586	0.038	0.104
-672.120	-200.000	-0.035	-0.368
-671.105	293.361	-0.161	0.301
-670.091	11.294	0.094	-0.073
-669.076	-200.000	-0.054	-0.447
-668.062	-137.755	0.116	0.013
-667.047	651.812	0.115	-0.302
-666.032	-121.782	0.323	-0.055
-665.018	25.478	0.016	-0.013
-664.003	-69.685	-0.111	0.044
-662.989	-200.000	-0.014	0.407
-661.974	96.851	-0.103	0.121
-660.959	800.000	-0.092	-0.316
-659.945	82.144	0.150	-0.166
-658.930	-149.660	0.293	-0.024
-657.916	-200.000	-0.015	-0.165
-656.901	-200.000	0.022	0.511
-655.886	300.444	-0.074	0.140
-654.872	342.275	0.079	-0.159
-653.857	391.702	0.130	-0.276
-652.843	-50.602	-0.461	-0.222
-651.828	-200.000	0.049	0.298
-650.814	-41.029	-0.122	0.064
-649.799	162.600	0.100	0.143
-648.784	-81.540	-0.070	0.024
-647.770	-118.449	-0.418	0.076
-646.755	357.772	0.138	-0.282
-645.741	155.239	0.078	0.109
-644.726	-185.644	0.314	0.005
-643.711	-67.194	0.189	0.076
-642.697	-81.196	0.103	-0.035
-641.682	331.881	0.118	0.234
-640.668	-200.000	0.069	0.429
-639.653	-200.000	-0.013	0.161
-638.638	696.069	-0.186	-0.499
-637.624	195.231	0.143	-0.222
-636.609	1.847	-0.135	-0.099
-635.595	-74.674	-0.149	-0.055
-634.580	97.297	0.116	0.136
-633.565	-200.000	0.007	0.057
-632.551	-51.747	-0.154	0.073
-631.536	361.388	-0.020	0.041
-630.522	-200.000	-0.007	-0.305
-629.507	-67.864	0.313	0.125
-628.492	97.848	-0.235	0.277
-627.478	8.138	-0.022	-0.017
-626.463	-200.000	-0.040	-0.227
-625.449	-33.218	-0.234	0.132
-624.434	-200.000	0.040	-0.364
-623.419	800.000	0.090	-0.282
-622.405	-200.000	-0.035	-0.177
-621.390	-65.219	0.158	0.065
-620.376	-200.000	-0.009	-0.260
-619.361	-19.254	-0.141	0.089
-618.346	-200.000	0.034	-0.220
-617.332	-123.299	0.020	-0.003
-616.317	-129.201	-0.115	0.016
-615.303	-140.546	-0.278	0.029
-614.288	204.560	0.163	0.259
-613.273	-110.507	0.141	0.030
-612.259	800.000	-0.082	0.263
-611.244	247.468	-0.253	0.436
-610.230	-200.000	0.015	-0.330
-609.215	51.693	-0.163	0.158
-608.201	-139.320	0.578	0.063
-607.186	-116.187	-0.115	0.022
-606.171	-135.269	-0.128	-0.016
-605.157	84.024	-0.213	-0.238
-604.142	-70.429	-0.258	-0.100
-603.128	-200.000	0.016	0.159
-602.113	135.924	-0.112	0.149
-601.098	800.000	0.055	0.187
-600.084	114.281	0.204	0.254
-599.069	-73.953	0.231	-0.086
-598.055	114.487	0.017	0.021
-597.040	-200.000	0.004	0.112
-596.025	-41.658	-0.393	-0.206
-595.011	76.686	0.226	0.244
-593.996	329.708	0.053	0.104
-592.982	-38.592	-0.357	-0.192
-591.967	131.805	-0.274	-0.359
-590.952	160.060	0.059	-0.084
-589.938	94.705	-0.109	0.127
-588.923	-150.438	-0.071	-0.006
-587.909	-8.650	-0.388	-0.266
-586.894	-1.594	0.108	-0.077
-585.879	410.269	0.098	-0.213
-584.865	-101.347	0.272	0.068
-583.850	680.988	0.066	0.176
-582.836	377.164	-0.079	-0.164
-581.821	-153.993	-0.204	0.014
-580.806	-200.000	-0.019	-0.228
-579.792	-112.614	0.238	-0.048
-578.777	357.543	0.085	-0.174
-577.763	-119.940	0.215	-0.038
-576.748	173.637	0.218	-0.320
-575.733	-200.000	-0.027	0.190
-574.719	11.342	0.016	-0.013
-573.704	800.000	0.124	0.418
-572.690	-103.040	0.305	0.074
-571.675	150.543	-0.126	-0.174
-570.661	800.000	-0.039	-0.130
-569.646	-71.407	-0.148	0.057
-568.631	-139.967	0.048	0.005
-567.617	-51.511	-0.383	-0.182
-566.602	-200.000	0.032	0.267
-565.588	185.727	0.163	0.248
-564.573	-88.807	0.111	-0.034
-563.558	-130.480	0.442	0.061
-562.544	-45.218	-0.135	-0.068
-561.529	-88.080	0.107	-0.033
-560.515	-200.000	0.044	0.363
-559.500	-200.000	0.017	-0.141
-558.485	-200.000	-0.043	-0.349
-557.471	50.740	-0.144	0.139
-556.456	-31.231	0.029	0.017
-555.442	317.429	0.075	0.145
-554.427	-200.000	-0.020	0.106
-553.412	-200.000	0.053	-0.266
-552.398	-6.018	-0.076	0.053
-551.383	800.000	0.027	-0.120
-550.369	-57.811	0.214	-0.095
-549.354	-99.629	0.174	-0.044
-548.339	385.491	0.128	0.269
-547.325	-167.003	-0.355	0.015
-546.310	-200.000	0.001	-0.152
-545.296	-102.080	0.251	-0.062
-544.281	102.491	-0.166	-0.197
-543.266	44.201	-0.227	-0.212
-542.252	19.139	-0.037	-0.030
-541.237	-200.000	0.022	-0.218
-540.223	800.000	-0.070	-0.204
-539.208	-200.000	-0.009	-0.076
-538.193	-110.109	-0.182	-0.039
-537.179	-131.101	-0.377	0.051
-536.164	53.482	0.036	0.036
-535.150	-200.000	-0.022	0.105
-534.135	-86.803	-0.174	-0.054
-533.121	23.442	-0.186	-0.156
-532.106	-200.000	-0.078	-0.349
-531.091	-200.000	0.028	-0.184
-530.077	800.000	0.073	-0.214
-529.062	-113.643	0.081	0.016
-528.048	-86.619	-0.173	-0.054
-527.033	-132.664	-0.251	-0.033
-526.018	-200.000	-0.024	-0.240
-525.004	177.292	-0.130	-0.193
-523.989	-56.697	-0.205	0.092
-522.975	85.905	-0.057	0.064
-521.960	129.998	-0.122	-0.159
-520.945	131.553	-0.084	0.109
-519.931	63.492	0.094	0.096
-518.916	65.031	-0.214	0.220
-517.902	100.182	-0.135	0.160
-516.887	265.532	0.284	-0.504
-515.872	79.399	0.108	0.118
-514.858	33.689	0.138	0.122
-513.843	-73.908	-0.214	-0.079
-512.829	-73.303	0.158	-0.059
-511.814	224.289	-0.085	0.139
-510.799	-200.000	0.004	0.207
-509.785	51.667	0.072	-0.069
-508.770	447.741	0.113	-0.253
-507.756	800.000	-0.130	-0.373
-506.741	-79.060	0.113	-0.039
-505.726	30.586	-0.098	-0.085
-504.712	-103.713	-0.167	0.040
-503.697	-118.189	0.256	0.046
-502.683	-103.133	-0.147	0.035
-501.668	-17.537	-0.229	-0.146
-500.653	800.000	-0.055	-0.195
-499.639	375.306	0.102	-0.212
-498.624	82.249	-0.149	0.164
-497.610	373.578	0.085	-0.175
-496.595	144.561	-0.151	0.205
-495.581	-200.000	-0.091	-0.428
-494.566	474.148	0.062	0.143
-493.551	-117.115	-0.404	0.075
-492.537	-200.000	0.019	0.138
-491.522	211.408	0.116	-0.185
-490.508	-78.149	0.420	-0.147
-489.493	-200.000	0.004	-0.274
-488.478	204.665	-0.137	-0.215
-487.464	60.194	-0.155	-0.155
-486.449	-137.650	0.466	0.053
-485.435	-98.599	0.230	0.060
-484.420	741.292	-0.076	-0.207
-483.405	-200.000	0.041	0.302
-482.391	108.505	0.149	-0.180
-481.376	523.829	0.070	-0.168
-480.362	800.000	-0.037	-0.126
-479.347	100.361	0.252	-0.298
-478.332	-200.000	0.048	-0.277
-477.318	-200.000	-0.019	0.153
-476.303	-177.885	-0.333	0.008
-475.289	198.069	-0.047	-0.073
-474.274	-79.076	-0.165	-0.057
-473.259	-86.687	0.123	-0.038
-472.245	-147.437	0.106	-0.009
-471.230	-200.000	-0.011	0.418
-470.216	93.682	0.140	0.161
-469.201	35.117	0.200	-0.178
-468.186	800.000	-0.047	0.185
-467.172	81.645	-0.048	-0.053
-466.157	-61.007	-0.052	0.022
-465.143	13.358	0.143	0.112
-464.128	-2.790	-0.078	0.056
-463.113	91.743	-0.171	0.195
-462.099	382.579	0.056	0.117
-461.084	800.000	0.072	-0.207
-460.070	-200.000	0.004	0.257
-459.055	-200.000	0.019	0.200
-458.040	-200.000	-0.035	-0.225
-457.026	10.020	-0.303	-0.234
-456.011	-199.734	-0.019	0.000
-454.997	-74.198	0.352	0.129
-453.982	800.000	-0.057	0.177
-452.968	-200.000	-0.002	0.083
-451.953	800.000	-0.050	0.139
-450.938	-200.000	0.053	-0.507
-449.924	47.352	0.122	0.116
-448.909	-200.000	-0.025	0.169
-447.895	-57.917	0.489	0.217
-446.880	800.000	0.023	0.073
-445.865	421.930	0.112	0.243
-444.851	-200.000	-0.002	0.110
-443.836	800.000	0.020	-0.059
-442.822	122.391	-0.085	-0.107
-441.807	116.323	-0.014	-0.018
-440.792	-200.000	-0.030	-0.137
-439.778	800.000	0.080	-0.300
-438.763	-200.000	0.070	-0.319
-437.749	800.000	0.016	0.061
-436.734	-200.000	0.027	0.265
-435.719	-23.632	0.263	0.160
-434.705	26.601	-0.126	0.107
-433.690	526.043	0.105	0.251
-432.676	4.549	0.207	0.154
-431.661	800.000	-0.093	0.271
-430.646	19.281	-0.136	-0.110
-429.632	-74.810	-0.327	0.119
-428.617	-200.000	0.018	-0.157
-427.603	-31.209	-0.105	0.060
-426.588	800.000	-0.005	-0.015
-425.573	-42.080	-0.289	0.150
-424.559	-119.095	-0.278	-0.049
-423.544	378.873	-0.049	0.102
-422.530	800.000	0.029	-0.108
-421.515	-3.100	0.116	0.082
-420.500	-200.000	-0.029	-0.452
-419.486	-81.149	0.282	0.095
-418.471	-58.722	0.206	-0.090
-417.457	-70.935	-0.221	-0.084
-416.442	30.677	0.047	0.040
-415.428	49.804	-0.243	-0.232
-414.413	-200.000	0.006	-0.077
-413.398	152.153	-0.097	0.135
-412.384	-165.588	0.322	-0.014
-411.369	472.200	-0.007	0.015
-410.355	-200.000	-0.002	0.149
-409.340	-82.928	-0.166	-0.054
-408.325	614.462	0.021	-0.054
-407.311	108.276	-0.070	0.084
-406.296	-106.831	-0.185	-0.042
-405.282	-64.806	-0.201	0.082
-404.267	405.882	-0.118	-0.251
-403.252	535.408	0.204	0.489
-402.238	40.285	-0.142	0.129
-401.223	800.000	-0.028	0.090
-400.209	-86.489	0.248	-0.077
-399.194	543.930	0.088	-0.212
-398.179	-151.969	-0.242	-0.018
-397.165	19.178	0.260	0.211
-396.150	-42.235	0.045	-0.023
-395.136	-9.439	-0.104	-0.070
-394.121	-200.000	-0.026	0.354
-393.106	-200.000	-0.005	0.034
-392.092	-89.159	0.063	0.019
-391.077	73.003	-0.282	-0.298
-390.063	22.387	-0.275	-0.227
-389.048	-200.000	-0.009	-0.210
-388.033	232.054	0.067	0.111
-387.019	-200.000	0.026	-0.168
-386.004	-200.000	-0.020	0.146
-384.990	145.716	-0.131	0.177
-383.975	-200.000	0.006	0.062
-382.960	-92.614	-0.220	-0.062
-381.946	-200.000	0.020	-0.162
-380.931	-109.361	0.147	-0.032
-379.917	286.237	0.168	-0.307
-378.902	-200.000	0.010	0.083
-377.888	800.000	0.012	0.049
-376.873	250.313	0.145	0.248
-375.858	-92.131	-0.181	0.052
-374.844	620.375	-0.115	0.293
-373.829	136.008	0.067	0.088
-372.815	-111.734	0.252	0.052
-371.800	482.323	-0.083	-0.190
-370.785	800.000	-0.141	-0.422
-369.771	-200.000	-0.053	0.249
-368.756	100.312	0.402	0.472
-367.742	-59.851	-0.178	-0.077
-366.727	275.429	0.135	-0.241
-365.712	259.971	0.094	0.165
-364.698	-34.850	-0.336	0.186
-363.683	800.000	-0.009	-0.039
-362.669	207.943	0.139	0.220
-361.654	90.476	-0.188	0.213
-360.639	800.000	-0.066	0.289
-359.625	-200.000	-0.042	-0.353
-358.610	11.953	-0.109	0.085
-357.596	408.368	0.142	0.304
-356.581	-200.000	-0.041	-0.204
-355.566	-200.000	0.016	0.083
-354.552	142.701	-0.135	0.182
-353.537	800.000	0.093	0.292
-352.523	-89.371	-0.376	-0.112
-351.508	579.503	-0.046	-0.115
-350.493	-162.922	-0.401	0.020
-349.479	61.292	-0.144	0.144
-348.464	-137.101	0.274	-0.032
-347.450	-154.863	-0.221	0.015
-346.435	81.735	0.165	-0.181
-345.420	800.000	-0.079	-0.265
-344.406	-132.805	0.300	0.039
-343.391	-131.582	0.379	-0.050
-342.377	-200.000	0.077	-0.456
-341.362	-136.523	0.132	-0.015
-340.348	7.785	0.058	-0.044
-339.333	-200.000	0.013	0.218
-338.318	557.389	-0.091	0.221
-337.304	-71.219	0.015	0.006
-336.289	-11.794	0.114	-0.076
-335.275	-200.000	-0.038	0.390
-334.260	-200.000	-0.004	0.116
-333.245	94.925	0.247	-0.283
-332.231	37.333	-0.077	0.069
-331.216	-200.000	0.034	0.348
-330.202	800.000	-0.096	0.326
-329.187	-103.822	0.358	0.084
-328.172	-78.427	0.156	0.054
-327.158	-200.000	0.025	0.199
-326.143	-117.588	0.271	-0.049
-325.129	800.000	0.050	0.161
-324.114	-200.000	-0.013	-0.102
-323.099	-200.000	0.003	0.297
-322.085	593.010	0.077	-0.191
-321.070	-146.042	0.340	-0.030
-320.056	89.661	-0.034	-0.039
-319.041	154.976	-0.053	0.074
-318.026	-160.681	0.134	-0.007
-317.012	7.884	0.104	0.079
-315.997	216.333	0.030	0.048
-314.983	-200.000	-0.083	-0.556
-313.968	-155.788	0.193	0.012
-312.953	93.175	0.123	-0.141
-311.939	151.909	0.049	-0.068
-310.924	143.574	-0.112	-0.151
-309.910	-34.175	0.187	-0.104
-308.895	-30.808	0.187	-0.107
-307.880	597.099	-0.043	-0.109
-306.866	-74.454	-0.215	-0.078
-305.851	800.000	-0.017	0.067
-304.837	-79.823	-0.333	-0.113
-303.822	800.000	0.085	0.243
-302.807	-29.483	-0.160	0.092
-301.793	362.925	-0.222	-0.450
-300.778	481.550	0.065	-0.150
-299.764	-171.258	-0.174	0.006
-298.749	106.627	-0.150	0.179
-297.735	-135.308	-0.050	-0.006
-296.720	-200.000	-0.019	0.245
-295.705	-138.416	0.247	-0.027
-294.691	1.342	-0.262	0.190
-293.676	1.537	-0.128	-0.093
-292.662	74.786	-0.019	0.021
-291.647	409.699	-0.056	0.120
-290.632	-182.375	-0.235	0.004
-289.618	343.990	0.036	-0.071
-288.603	-159.455	0.118	0.007
-287.589	-99.798	0.316	0.080
-286.574	-13.642	0.257	0.168
-285.559	-200.000	-0.019	0.359
-284.545	250.251	-0.118	0.203
-283.530	800.000	0.064	0.280
-282.516	68.881	-0.122	-0.126
-281.501	-32.045	0.111	-0.063
-280.486	800.000	-0.030	-0.097
-279.472	431.201	-0.104	-0.227
-278.457	576.687	0.040	-0.098
-277.443	178.874	0.195	-0.288
-276.428	41.555	0.292	0.267
-275.413	-34.855	0.398	-0.219
-274.399	167.368	-0.093	-0.132
-273.384	800.000	-0.139	-0.540
-272.370	-165.611	-0.192	0.008
-271.355	-177.349	0.225	0.006
-270.340	159.459	0.176	-0.247
-269.326	40.480	0.166	-0.150
-268.311	-200.000	-0.003	0.091
-267.297	-58.324	-0.180	-0.079
-266.282	19.826	0.069	0.056
-265.267	17.745	0.189	0.152
-264.253	220.841	0.013	-0.020
-263.238	800.000	0.155	0.517
-262.224	187.519	0.081	0.122
-261.209	-150.389	-0.232	-0.018
-260.195	-39.125	-0.173	0.092
-259.180	-200.000	-0.037	-0.274
-258.165	65.456	0.166	0.169
-257.151	-160.989	0.386	0.020
-256.136	-49.164	0.124	0.060
-255.122	-200.000	-0.034	-0.188
-254.107	-200.000	-0.006	0.273
-253.092	108.199	0.212	0.255
-252.078	-200.000	0.067	-0.341
-251.063	170.740	0.117	0.169
-250.049	100.497	0.322	0.376
-249.034	800.000	-0.086	-0.268
-248.019	82.592	0.054	-0.059
-247.005	47.627	0.210	-0.197
-245.990	800.000	0.162	-0.459
-244.976	-200.000	-0.009	0.287
-243.961	-200.000	0.019	-0.185
-242.946	-70.967	0.187	-0.071
-241.932	-45.540	-0.255	-0.127
-240.917	85.200	-0.282	-0.311
-239.903	294.847	0.053	0.098
-238.888	384.407	0.082	-0.171
-237.873	90.869	0.098	0.110
-236.859	-85.225	0.214	0.067
-235.844	-37.228	0.199	0.107
-234.830	-148.888	0.125	0.010
-233.815	43.093	0.083	0.076
-232.800	785.363	-0.057	-0.157
-231.786	141.085	0.100	-0.133
-230.771	172.378	-0.107	-0.154
-229.757	682.722	0.056	-0.146
-228.742	800.000	0.090	-0.275
-227.727	-112.882	0.344	0.069
-226.713	498.332	0.134	-0.309
-225.698	215.137	0.081	-0.129
-224.684	-200.000	-0.040	0.307
-223.669	149.913	-0.083	0.113
-222.655	-6.007	-0.249	-0.171
-221.640	-200.000	0.046	0.229
-220.625	13.063	0.237	-0.184
-219.611	-30.874	-0.336	0.191
-218.596	167.628	0.050	0.071
-217.582	341.364	0.151	0.296
-216.567	-200.000	-0.030	-0.194
-215.552	55.600	0.033	0.032
-214.538	-11.763	-0.144	0.095
-213.523	-173.588	-0.219	0.007
-212.509	-44.771	-0.174	0.087
-211.494	-50.522	0.052	0.025
-210.479	102.975	0.175	0.206
-209.465	285.889	-0.094	0.170
-208.450	141.137	-0.226	0.300
-207.436	-21.399	-0.301	-0.184
-206.421	-102.372	-0.217	0.052
-205.406	-36.516	-0.092	0.050
-204.392	-133.918	0.272	-0.034
-203.377	800.000	0.065	0.258
-202.363	-140.150	0.180	0.019
-201.348	800.000	-0.013	-0.037
-200.333	-200.000	-0.001	-0.017
-199.319	51.688	0.232	0.222
-198.304	-95.383	0.099	-0.027
-197.290	-200.000	0.042	-0.268
-196.275	145.605	0.125	-0.168
-195.260	-34.008	-0.218	0.121
-194.246	321.449	0.177	0.339
-193.231	-165.134	0.019	0.001
-192.217	251.691	0.040	0.069
-191.202	639.810	-0.090	0.231
-190.187	-40.771	-0.324	-0.168
-189.173	-94.213	0.041	-0.011
-188.158	-45.501	-0.302	-0.150
-187.144	-200.000	0.001	-0.094
-186.129	330.748	0.159	0.307
-185.114	-72.087	-0.044	0.016
-184.100	-10.802	0.112	0.074
-183.085	-123.751	0.327	0.052
-182.071	-130.578	-0.398	0.054
-181.056	58.120	0.267	0.263
-180.042	-101.292	0.153	0.037
-179.027	-200.000	0.000	0.055
-178.012	80.149	-0.160	0.172
-176.998	-85.740	0.070	-0.022
-175.983	-36.419	-0.146	-0.079
-174.969	-99.111	-0.531	-0.135
-173.954	-92.069	-0.241	0.068
-172.939	340.496	-0.143	-0.280
-171.925	-200.000	-0.005	-0.084
-170.910	800.000	0.096	-0.268
-169.896	602.635	-0.082	0.204
-168.881	-88.724	-0.089	-0.027
-167.866	-81.322	-0.180	-0.060
-166.852	17.839	-0.337	-0.269
-165.837	179.397	-0.192	0.281
-164.823	-200.000	-0.003	0.256
-163.808	-200.000	-0.006	0.241
-162.793	800.000	0.107	0.465
-161.779	-4.470	0.134	0.093
-160.764	800.000	0.042	0.131
-159.750	-8.999	0.071	0.048
-158.735	-108.583	-0.082	-0.018
-157.720	-71.353	-0.397	0.149
-156.706	235.528	-0.119	0.197
-155.691	467.312	-0.029	0.065
-154.677	-200.000	0.012	0.147
-153.662	-58.559	0.125	-0.054
-152.647	-200.000	-0.084	-0.436
-151.633	20.254	-0.219	0.178
-150.618	186.635	-0.091	0.137
-149.604	-121.423	0.227	-0.038
-148.589	800.000	0.135	-0.381
-147.574	-200.000	-0.004	-0.394
-146.560	461.248	-0.056	0.126
-145.545	-74.018	-0.200	-0.073
-144.531	-82.660	0.208	0.067
-143.516	-10.893	0.292	-0.194
-142.502	-80.668	-0.070	0.023
-141.487	-31.868	0.098	0.055
-140.472	-14.064	0.156	-0.101
-139.458	204.002	0.130	-0.202
-138.443	113.144	-0.183	-0.223
-137.429	-200.000	-0.011	-0.100
-136.414	-71.482	-0.283	-0.106
-135.399	488.634	0.067	0.152
-134.385	447.654	0.099	-0.217
-133.370	132.458	0.150	-0.193
-132.356	-50.908	-0.128	0.060
-131.341	-110.362	-0.358	-0.075
-130.326	-47.514	-0.055	-0.027
-129.312	21.020	-0.065	-0.053
-128.297	-166.189	-0.093	0.004
-127.283	105.344	0.107	-0.127
-126.268	-14.183	0.060	0.039
-125.253	51.792	0.062	-0.059
-124.239	-200.000	0.023	0.141
-123.224	135.230	0.079	-0.103
-122.210	-76.421	0.121	0.043
-121.195	800.000	-0.035	-0.114
-120.180	139.982	0.275	-0.363
-119.166	-122.418	0.258	0.042
-118.151	-200.000	0.048	-0.264
-117.137	177.168	0.020	0.030
-116.122	259.229	0.052	0.090
-115.107	-45.194	0.010	-0.005
-114.093	-123.098	0.384	-0.062
-113.078	-200.000	-0.014	-0.094
-112.064	-63.354	-0.215	-0.088
-111.049	75.555	-0.081	-0.086
-110.034	21.363	0.340	-0.276
-109.020	597.899	-0.120	-0.298
-108.005	365.465	-0.139	0.280
-106.991	-171.014	-0.182	0.006
-105.976	-70.273	-0.312	0.118
-104.962	-10.426	0.103	-0.069
-103.947	-6.129	-0.260	-0.178
-102.932	-135.371	-0.267	-0.032
-101.918	-160.828	-0.232	0.012
-100.903	564.550	0.075	-0.182
-99.889	-130.402	-0.182	0.025
-98.874	333.809	-0.123	0.238
-97.859	407.019	0.214	0.452
-96.845	13.309	0.170	-0.131
-95.830	710.032	0.151	-0.401
-94.816	800.000	-0.019	0.067
-93.801	-200.000	-0.007	-0.336
-92.786	-21.118	0.175	-0.107
-91.772	-73.279	0.261	-0.096
-90.757	-192.752	0.043	0.000
-89.743	-200.000	-0.062	0.362
-88.728	-28.639	-0.077	-0.044
-87.713	-200.000	-0.022	-0.245
-86.699	-200.000	0.009	0.052
-85.684	39.946	0.300	-0.270
-84.670	800.000	-0.075	-0.220
-83.655	-200.000	-0.015	-0.338
-82.640	-200.000	-0.009	0.051
-81.626	800.000	-0.111	-0.409
-80.611	784.875	-0.045	-0.122
-79.597	-23.307	0.267	0.161
-78.582	-2.697	0.346	0.242
-77.567	-200.000	0.033	0.172
-76.553	111.054	0.177	0.213
-75.538	264.505	-0.029	-0.051
-74.524	-30.872	-0.171	0.096
-73.509	779.465	0.105	0.286
-72.494	-63.739	0.230	0.094
-71.480	-10.968	-0.127	0.084
-70.465	98.568	0.212	0.244
-69.451	800.000	-0.048	-0.137
-68.436	-3.205	0.059	0.041
-67.422	495.681	-0.045	0.103
-66.407	80.580	0.271	-0.292
-65.392	-12.092	0.165	0.108
-64.378	-200.000	0.001	-0.314
-63.363	-18.578	-0.064	-0.040
-62.349	-6.058	0.155	0.106
-61.334	72.065	-0.717	-0.745
-60.319	120.854	0.124	0.154
-59.305	-200.000	-0.016	-1.066
-58.290	-200.000	0.049	0.474
-57.276	800.000	0.554	1.733
-56.261	-200.000	71.313	527.447
-55.246	601.865	1275.460	3166.179
-54.232	147.703	2492.139	3354.622
-53.217	122.574	2239.928	2797.504
-52.203	55.311	1763.544	1703.668
-51.188	47.449	1556.972	1449.346
-50.173	44.446	1526.446	1400.232
-49.159	59.785	1560.233	1537.989
-48.144	67.105	1580.377	1608.542
-47.130	47.649	1544.872	1439.240
-46.115	43.985	1530.204	1400.275
-45.100	43.660	1526.871	1394.923
-44.086	43.769	1525.049	1393.957
-43.071	43.665	1522.873	1391.194
-42.057	43.554	1521.671	1389.284
-41.042	43.552	1519.689	1387.399
-40.027	43.590	1518.474	1386.500
-39.013	43.631	1516.813	1385.207
-37.998	43.602	1515.666	1383.908
-36.984	43.642	1514.326	1382.899
-35.969	43.658	1513.619	1382.310
-34.954	43.718	1511.599	1380.823
-33.940	43.660	1510.500	1379.369
-32.925	43.651	1508.887	1377.779
-31.911	43.644	1507.295	1376.221
-30.896	43.719	1505.756	1375.270
-29.881	43.720	1504.431	1374.015
-28.867	43.677	1503.242	1372.581
-27.852	43.767	1501.677	1371.710
-26.838	43.762	1500.171	1370.247
-25.823	43.623	1499.115	1368.282
-24.809	43.690	1496.399	1366.203
-23.794	43.686	1495.339	1365.153
-22.779	43.731	1494.262	1364.421
-21.765	43.652	1493.367	1363.015
-20.750	43.579	1492.615	1361.782
-19.736	43.646	1491.143	1360.840
-18.721	43.645	1489.810	1359.560
-17.706	43.549	1488.579	1357.739
-16.692	43.693	1486.818	1357.048
-15.677	43.550	1486.237	1355.502
-14.663	43.600	1485.388	1355.008
-13.648	43.628	1484.154	1354.017
-12.633	43.592	1483.165	1352.819
-11.619	43.684	1482.660	1352.919
-10.604	43.624	1481.659	1351.552
-9.590	43.586	1480.604	1350.285
-8.575	43.612	1479.896	1349.755
-7.560	43.614	1479.203	1349.086
-6.546	43.687	1477.301	1347.782
-5.531	43.519	1477.025	1346.357
-4.517	43.631	1476.022	1346.140
-3.502	43.476	1474.946	1344.069
-2.487	43.630	1473.753	1343.956
-1.473	43.582	1472.656	1342.578
-0.458	43.666	1471.437	1341.973
0.556	42.945	1463.071	1333.065
1.571	40.480	1435.153	1291.477
2.586	36.703	1372.629	1211.508
3.600	34.527	1288.849	1124.650
4.615	32.460	1239.922	1070.123
5.629	26.925	1180.938	989.059
6.644	13.565	1086.585	842.473
7.659	2.882	1037.601	752.306
8.673	1.289	1031.100	739.768
9.688	1.150	1027.564	736.488
10.702	0.912	1026.273	734.345
11.717	0.949	1024.811	733.413
12.731	4.908	1029.928	756.250
13.746	16.205	1046.051	823.443
14.761	23.388	1054.389	865.137
15.775	23.742	1053.963	866.436
16.790	23.645	1053.723	865.688
17.804	23.462	1052.660	863.845
18.819	23.205	1051.719	861.748
19.834	23.303	1051.331	861.831
20.848	23.294	1050.902	861.357
21.863	23.478	1050.093	861.515
22.877	23.497	1050.204	861.619
23.892	23.533	1049.230	860.918
24.907	23.359	1048.717	859.580
25.921	23.361	1048.012	858.936
26.936	23.435	1047.060	858.435
27.950	23.351	1045.580	856.742
28.965	23.326	1044.567	855.713
29.980	23.254	1043.236	854.203
30.994	23.202	1041.515	852.467
32.009	23.376	1040.906	852.728
33.023	23.410	1040.821	852.749
34.038	23.243	1039.413	850.718
35.053	23.124	1039.139	849.846
36.067	23.402	1038.046	850.211
37.082	23.343	1037.333	849.268
38.096	23.368	1036.480	848.613
39.111	23.680	1035.887	849.544
40.126	23.812	1034.728	849.154
41.140	23.765	1033.268	847.652
42.155	23.339	1032.590	844.990
43.169	22.998	1031.619	842.497
44.184	23.067	1030.069	841.487
45.199	23.128	1029.330	841.095
46.213	23.039	1028.515	839.936
47.228	22.910	1027.587	838.488
48.242	23.119	1027.227	839.110
49.257	23.339	1026.164	839.214
50.271	23.289	1025.470	838.335
51.286	23.450	1024.675	838.373
52.301	23.491	1023.806	837.779
53.315	23.529	1023.112	837.318
54.330	23.462	1022.685	836.577
55.344	23.337	1021.909	835.280
56.359	23.466	1020.968	835.046
57.374	23.382	1020.024	833.803
58.388	23.245	1019.200	832.411
59.403	23.191	1018.326	831.372
60.417	23.086	1017.726	830.316
61.432	23.050	1017.096	829.557
62.447	22.900	1016.331	828.156
63.461	23.166	1015.884	828.965
64.476	23.177	1014.966	828.195
65.490	23.164	1013.886	827.178
66.505	23.106	1012.657	825.834
67.520	23.195	1012.010	825.647
68.534	23.274	1011.281	825.346
69.549	23.092	1010.333	823.654
70.563	22.837	1009.331	821.578
71.578	22.615	1008.840	820.072
72.593	22.767	1008.086	820.094
73.607	22.643	1006.469	818.132
74.622	22.601	1005.692	817.231
75.636	22.832	1005.157	817.792
76.651	22.980	1004.312	817.721
77.666	22.878	1003.904	816.842
78.680	22.850	1002.720	815.678
79.695	22.842	1002.116	815.080
80.709	22.909	1001.212	814.580
81.724	23.025	1000.902	814.791
82.739	23.081	999.732	814.024
83.753	23.118	998.900	813.444
84.768	23.234	998.353	813.460
85.782	23.419	998.194	814.110
86.797	23.686	997.608	814.784
87.812	23.761	996.761	814.363
88.826	23.560	995.500	812.343
89.841	23.529	994.670	811.452
90.855	23.699	993.857	811.490
91.870	23.671	993.213	810.767
92.884	23.578	992.395	809.604
93.899	23.590	991.435	808.803
94.914	23.337	990.695	806.975
95.928	23.575	989.658	807.143
96.943	23.668	988.419	806.484
97.957	23.355	987.396	804.155
98.972	23.177	986.316	802.396
99.987	22.941	985.105	800.272
101.001	22.935	984.681	799.831
102.016	23.383	983.884	801.137
103.030	23.305	983.087	800.067
104.045	23.256	982.126	798.993
105.060	23.109	981.043	797.379
106.074	23.098	979.630	796.111
107.089	23.144	978.638	795.440
108.103	23.304	978.761	796.191
109.118	23.421	977.804	795.866
110.133	23.173	976.660	793.750
111.147	23.086	975.661	792.479
112.162	23.025	974.494	791.187
113.176	22.792	973.514	789.282
114.191	23.040	972.446	789.452
115.206	23.004	971.707	788.623
116.220	22.866	970.336	786.825
117.235	22.625	969.214	784.772
118.249	22.754	968.906	785.027
119.264	22.828	968.011	784.562
120.279	22.649	967.118	782.973
121.293	22.780	966.436	782.934
122.308	22.820	966.115	782.782
123.322	22.808	965.087	781.825
124.337	22.718	963.909	780.406
125.352	22.713	962.460	779.141
126.366	22.330	961.067	776.255
127.381	22.048	959.920	774.017
128.395	22.532	959.514	775.752
129.410	23.135	959.390	778.239
130.424	23.227	958.590	777.925
131.439	23.345	957.554	777.532
132.454	23.180	956.814	776.141
133.468	23.262	955.968	775.743
134.483	23.364	954.843	775.208
135.497	23.294	954.187	774.300
136.512	23.434	954.243	774.889
137.527	23.555	953.510	774.753
138.541	23.557	952.454	773.835
139.556	23.573	951.640	773.177
140.570	23.433	950.959	771.945
141.585	23.735	949.987	772.401
142.600	23.661	949.178	771.354
143.614	23.641	948.209	770.411
144.629	23.671	947.258	769.700
145.643	23.903	947.255	770.637
146.658	23.741	945.894	768.760
147.673	23.566	944.616	766.898
148.687	23.505	943.625	765.762
149.702	23.451	942.502	764.547
150.716	23.333	941.726	763.343
151.731	23.325	940.966	762.627
152.746	23.262	940.130	761.609
153.760	23.578	939.227	762.169
154.775	23.634	938.545	761.789
155.789	23.788	937.669	761.668
156.804	23.727	936.827	760.658
157.819	23.655	935.485	759.190
158.833	23.643	934.870	758.576
159.848	23.666	934.621	758.405
160.862	23.685	934.113	758.002
161.877	23.711	932.601	756.824
162.892	23.585	931.695	755.483
163.906	23.701	931.051	755.388
164.921	23.686	929.925	754.344
165.935	23.610	928.969	753.178
166.950	23.719	927.951	752.749
167.964	23.741	927.320	752.263
168.979	23.732	926.191	751.245
169.994	23.534	925.308	749.625
171.008	23.443	924.172	748.252
172.023	23.496	923.613	747.956
173.037	23.757	922.960	748.463
174.052	23.561	921.974	746.770
175.067	23.516	920.075	744.980
176.081	23.386	919.749	744.103
177.096	23.382	919.453	743.781
178.110	23.480	918.171	743.087
179.125	23.378	917.162	741.778
180.140	23.117	916.015	739.697
181.154	23.003	915.439	738.687
182.169	23.131	915.371	739.104
183.183	23.278	914.989	739.342
184.198	23.566	914.327	739.942
185.213	23.644	913.752	739.737
186.227	23.416	913.255	738.322
187.242	23.631	912.777	738.763
188.256	23.700	911.679	738.096
189.271	23.622	911.137	737.267
190.286	23.810	910.390	737.380
191.300	23.684	909.477	736.052
192.315	23.037	908.599	732.597
193.329	22.586	906.459	728.941
194.344	21.924	905.551	725.409
195.359	22.498	905.678	727.819
196.373	23.478	905.792	731.894
197.388	23.724	905.744	732.808
198.402	23.580	905.029	731.567
199.417	23.437	904.729	730.674
200.432	23.521	904.190	730.516
201.446	23.341	903.818	729.412
202.461	22.987	902.861	727.120
203.475	23.182	902.177	727.305
204.490	22.766	901.126	724.686
205.504	21.807	898.237	718.371
206.519	21.902	898.547	718.944
207.534	22.883	899.121	723.363
208.548	23.048	898.302	723.315
209.563	23.445	898.699	725.191
210.577	23.539	897.244	724.340
211.592	23.218	896.173	722.099
212.607	23.500	896.845	723.731
213.621	23.725	896.317	724.156
214.636	23.669	895.303	723.044
215.650	23.644	894.790	722.467
216.665	23.664	894.025	721.866
217.680	23.652	893.378	721.230
218.694	23.818	892.914	721.463
219.709	23.426	891.928	719.015
220.723	23.070	891.011	716.768
221.738	23.201	890.781	717.052
222.753	23.623	890.151	718.188
223.767	23.541	888.820	716.721
224.782	23.534	888.422	716.309
225.796	23.771	888.093	716.936
226.811	23.775	887.671	716.547
227.826	23.536	886.320	714.432
228.840	22.663	885.136	709.902
229.855	22.490	884.495	708.627
230.869	22.825	884.061	709.566
231.884	22.511	882.941	707.343
232.899	22.515	882.456	706.909
233.913	23.287	882.750	710.179
234.928	23.393	882.509	710.346
235.942	23.530	881.486	710.007
236.957	23.358	881.395	709.185
237.972	23.129	880.378	707.385
238.986	23.040	879.534	706.289
240.001	23.177	878.530	705.969
241.015	23.321	877.844	705.929
242.030	23.233	877.310	705.087
243.045	23.386	877.147	705.503
244.059	23.457	876.869	705.499
245.074	23.710	876.051	705.783
246.088	23.662	875.515	705.099
247.103	23.251	874.699	702.747
248.117	23.154	874.062	701.789
249.132	23.633	874.220	703.753
250.147	24.159	873.538	705.225
251.161	24.197	873.347	705.160
252.176	24.502	872.878	705.924
253.190	24.279	872.352	704.554
254.205	24.351	871.815	704.344
255.220	24.650	871.318	705.061
256.234	24.672	870.455	704.385
257.249	24.321	870.222	702.750
258.263	24.358	869.161	701.978
259.278	24.314	868.878	701.513
260.293	24.512	868.510	701.933
261.307	24.429	868.057	701.180
262.322	24.420	867.408	700.557
263.336	24.230	866.584	699.085
264.351	23.750	865.377	696.170
265.366	22.651	863.319	690.154
266.380	22.210	862.414	687.642
267.395	22.958	863.092	691.049
268.409	23.914	863.067	694.708
269.424	23.806	862.554	693.808
270.439	24.132	861.720	694.347
271.453	24.080	861.198	693.665
272.468	24.295	860.461	693.847
273.482	24.391	860.089	693.856
274.497	24.604	859.558	694.197
275.512	24.323	859.180	692.738
276.526	23.750	857.579	689.163
277.541	23.987	856.681	689.299
278.555	24.261	857.083	690.623
279.570	24.164	855.978	689.295
280.585	23.939	855.034	687.605
281.599	23.904	854.832	687.247
282.614	24.088	854.683	687.776
283.628	23.738	853.744	685.609
284.643	23.367	852.336	682.990
285.657	23.757	852.536	684.593
286.672	23.567	851.654	683.090
287.687	23.160	850.356	680.423
288.701	23.417	850.852	681.751
289.716	23.927	850.655	683.495
290.730	23.489	849.843	681.098
291.745	23.322	849.119	679.818
292.760	23.265	848.070	678.698
293.774	23.178	847.222	677.626
294.789	24.018	847.902	681.327
295.803	24.729	848.074	684.128
296.818	24.918	847.260	684.130
297.833	24.810	847.234	683.636
298.847	24.585	846.225	681.904
299.862	24.153	844.770	679.027
300.876	24.292	844.597	679.357
301.891	24.715	844.011	680.433
302.906	24.842	843.812	680.698
303.920	24.422	842.423	677.919
304.935	24.326	841.834	677.023
305.949	24.582	841.767	677.880
306.964	24.654	841.241	677.670
307.979	24.579	840.571	676.787
308.993	24.416	840.052	675.691
310.008	24.749	839.699	676.609
311.022	24.856	839.637	676.900
312.037	24.653	838.940	675.512
313.052	24.666	837.836	674.615
314.066	24.419	837.388	673.262
315.081	23.779	835.822	669.532
316.095	23.014	834.474	665.514
317.110	23.496	834.562	667.340
318.125	24.268	835.279	670.761
319.139	23.995	833.972	668.626
320.154	22.992	832.067	663.278
321.168	22.455	831.204	660.517
322.183	22.948	831.516	662.554
323.197	23.923	832.007	666.543
324.212	24.322	831.607	667.660
325.227	24.456	831.481	667.998
326.241	24.672	830.791	668.193
327.256	24.534	830.315	667.235
328.270	24.343	829.865	666.101
329.285	24.282	829.307	665.366
330.300	24.190	828.362	664.208
331.314	23.939	827.508	662.529
332.329	24.003	827.013	662.312
333.343	24.438	826.474	663.441
334.358	24.646	826.524	664.196
335.373	24.673	825.728	663.595
336.387	24.591	825.532	663.076
337.402	24.872	825.043	663.667
338.416	25.006	824.668	663.802
339.431	25.004	824.414	663.533
340.446	25.018	823.479	662.774
341.460	25.318	823.144	663.551
342.475	25.378	822.454	663.161
343.489	25.095	821.682	661.435
344.504	24.941	821.245	660.458
345.519	25.210	820.978	661.177
346.533	25.435	820.494	661.557
347.548	25.536	820.274	661.693
348.562	25.540	819.726	661.205
349.577	25.460	819.155	660.393
350.592	25.400	818.453	659.546
351.606	25.336	818.105	658.974
352.621	25.311	817.867	658.631
353.635	25.255	817.108	657.757
354.650	25.140	816.775	657.008
355.665	24.893	815.800	655.262
356.679	23.970	814.077	650.448
357.694	23.577	813.527	648.516
358.708	24.301	813.538	651.113
359.723	24.423	813.027	651.092
360.738	24.588	812.317	651.066
361.752	24.996	812.130	652.343
362.767	25.027	812.331	652.562
363.781	25.314	812.036	653.311
364.796	25.625	811.856	654.239
365.810	25.796	811.403	654.436
366.825	25.882	811.024	654.386
367.840	25.818	811.052	654.118
368.854	25.703	809.819	652.650
369.869	25.270	809.012	650.374
370.883	25.015	808.436	648.930
371.898	25.108	808.013	648.869
372.913	25.134	807.069	648.147
373.927	25.016	806.984	647.595
374.942	25.183	806.120	647.447
375.956	25.398	805.617	647.762
376.971	25.564	805.016	647.820
377.986	25.523	804.540	647.229
379.000	25.751	804.246	647.756
380.015	25.722	803.861	647.285
381.029	25.577	803.082	646.082
382.044	25.518	802.462	645.313
383.059	25.606	802.405	645.527
384.073	25.748	801.727	645.433
385.088	25.689	801.419	644.917
386.102	25.625	800.933	644.238
387.117	25.554	799.908	643.104
388.132	25.448	799.197	642.097
389.146	25.405	798.501	641.325
390.161	24.740	798.000	638.494
391.175	24.774	797.466	638.130
392.190	25.369	797.548	640.262
393.205	25.408	797.274	640.123
394.219	24.402	795.402	634.986
395.234	22.930	793.192	627.938
396.248	22.055	791.944	623.788
397.263	22.854	793.091	627.477
398.278	24.886	793.873	635.261
399.292	25.444	793.828	637.148
400.307	25.090	793.328	635.434
401.321	25.130	792.743	635.051
402.336	25.083	792.681	634.778
403.350	25.355	792.485	635.527
404.365	25.813	792.404	637.027
405.380	26.073	792.395	637.882
406.394	26.308	792.284	638.567
407.409	26.535	791.854	638.965
408.423	26.479	791.041	638.055
409.438	26.335	790.317	636.909
410.453	26.418	789.985	636.876
411.467	26.409	789.820	636.656
412.482	26.361	789.003	635.771
413.496	26.334	788.854	635.501
414.511	26.493	788.523	635.735
415.526	26.468	788.118	635.266
416.540	26.350	787.816	634.551
417.555	26.316	787.210	633.888
418.569	26.247	786.050	632.656
419.584	26.019	785.595	631.435
420.599	26.237	785.153	631.787
421.613	84.435	1239.895	1306.521
422.628	71.545	1306.194	1306.667
