DTS Sentinel unit serial number:	SN413079Multiplexer serial number:	ORYXHardware model number:	OX4-SRSoftware version number:	ORYX F/W v4.00 Oryx Data Collector v3.7.2.0data status	okinstallation	princeton_trtdifferential loss correction	single-endedforward channel	channel 3reverse channel	N/Adate	2019/09/11time	15:10:10forward acquisition time	60.00reverse acquisition time	0.00gamma	496.2192k internal	0.2289k external	0.2289temperature offset calibration	0.9974default loss term (dB/km)	0.3790temperature slope calibration	1.0000multiplexer offset coefficient	1.0000multiplexer slope coefficient	1.0000fibre end	0.00T internal ref (°C)	42.97T ext. ref 1 (°C)	0.96T ext. ref 2 (°C)	37.16length (m)	temperature (°C)	Stokes	anti-Stokes-747.200	74.093	-0.169	-0.182
-746.185	-200.000	-0.030	0.249
-745.171	476.615	0.008	-0.018
-744.156	-121.169	0.316	0.054
-743.142	177.986	0.201	-0.301
-742.127	-200.000	0.091	0.436
-741.112	53.251	-0.124	-0.122
-740.098	-200.000	-0.012	-0.054
-739.083	-129.721	0.135	-0.019
-738.069	-200.000	-0.062	0.400
-737.054	-200.000	0.009	0.355
-736.039	34.995	0.047	-0.042
-735.025	-62.234	0.545	0.233
-734.010	666.918	0.132	-0.348
-732.996	179.220	-0.294	-0.440
-731.981	-31.887	0.196	-0.112
-730.966	397.524	-0.146	-0.313
-729.952	-74.267	0.061	0.023
-728.937	16.085	-0.395	0.319
-727.923	800.000	-0.064	0.191
-726.908	-105.560	-0.203	-0.047
-725.894	464.009	-0.149	-0.341
-724.879	-50.975	0.066	-0.032
-723.864	800.000	-0.037	0.149
-722.850	-33.219	0.256	0.145
-721.835	383.374	0.055	0.117
-720.821	-192.686	0.165	-0.002
-719.806	80.576	0.140	0.154
-718.791	-171.661	-0.318	0.011
-717.777	211.810	-0.180	-0.289
-716.762	-199.973	-0.074	0.000
-715.748	172.619	0.123	0.181
-714.733	168.524	0.113	-0.164
-713.718	-20.815	-0.244	-0.153
-712.704	-102.566	0.370	-0.090
-711.689	800.000	-0.067	-0.286
-710.675	-183.494	0.163	-0.003
-709.660	800.000	0.098	0.314
-708.645	-65.494	-0.113	0.046
-707.631	169.386	0.161	-0.235
-706.616	217.388	-0.180	-0.293
-705.602	-6.788	-0.254	-0.177
-704.587	68.893	0.135	0.142
-703.572	-114.984	0.373	0.073
-702.558	11.103	-0.104	0.081
-701.543	-200.000	0.049	-0.438
-700.529	-43.553	-0.392	0.202
-699.514	31.451	-0.247	0.217
-698.499	-200.000	0.000	-0.217
-697.485	7.889	-0.271	-0.208
-696.470	16.438	-0.099	-0.080
-695.456	37.271	-0.267	0.242
-694.441	-88.703	0.361	-0.110
-693.426	800.000	-0.048	-0.146
-692.412	20.775	-0.206	0.170
-691.397	800.000	-0.062	-0.273
-690.383	-200.000	-0.016	-0.341
-689.368	800.000	0.041	-0.158
-688.354	-38.529	-0.315	-0.170
-687.339	387.738	0.027	0.057
-686.324	263.522	0.175	-0.310
-685.310	232.956	0.223	-0.376
-684.295	-200.000	0.007	0.213
-683.281	-200.000	0.004	0.279
-682.266	-186.893	-0.391	0.006
-681.251	311.906	-0.085	0.163
-680.237	-65.195	-0.139	0.057
-679.222	185.405	-0.138	-0.210
-678.208	-38.674	-0.197	0.106
-677.193	-41.584	-0.157	0.083
-676.178	-108.022	0.437	0.097
-675.164	121.060	0.232	0.295
-674.149	462.556	-0.049	-0.111
-673.135	218.564	0.138	0.225
-672.120	-45.631	-0.161	0.081
-671.105	-105.654	-0.361	0.084
-670.091	139.535	-0.211	-0.284
-669.076	58.351	-0.209	-0.209
-668.062	-135.859	-0.173	-0.021
-667.047	800.000	-0.060	0.208
-666.032	-2.800	-0.191	-0.136
-665.018	-10.569	0.176	0.119
-664.003	-200.000	-0.180	0.001
-662.989	641.486	-0.068	0.178
-661.974	383.020	0.141	-0.296
-660.959	800.000	0.028	0.112
-659.945	128.612	-0.085	-0.111
-658.930	-119.285	0.202	0.036
-657.916	-64.211	0.188	-0.078
-656.901	-200.000	-0.026	-0.250
-655.886	198.457	-0.151	-0.236
-654.872	-200.000	-0.010	-0.183
-653.857	692.784	0.017	0.046
-652.843	-133.267	-0.375	0.048
-651.828	800.000	0.043	-0.126
-650.814	-200.000	-0.471	0.001
-649.799	489.720	-0.065	-0.153
-648.784	223.254	0.054	0.088
-647.770	-74.443	-0.084	-0.031
-646.755	800.000	-0.027	-0.109
-645.741	485.845	0.099	0.231
-644.726	-177.817	0.167	-0.004
-643.711	-136.537	-0.265	0.031
-642.697	-53.532	-0.308	-0.144
-641.682	416.089	-0.090	-0.196
-640.668	-108.704	0.166	-0.036
-639.653	44.520	-0.213	0.199
-638.638	-57.808	-0.163	0.073
-637.624	33.923	0.273	-0.243
-636.609	-7.515	0.146	0.101
-635.595	-55.017	0.350	-0.161
-634.580	800.000	-0.062	-0.238
-633.565	-200.000	-0.004	0.092
-632.551	364.189	0.083	-0.170
-631.536	111.939	0.021	-0.025
-630.522	86.769	0.185	0.208
-629.507	-22.240	-0.106	-0.066
-628.492	-114.016	0.084	0.017
-627.478	-146.690	-0.214	-0.019
-626.463	800.000	-0.052	-0.197
-625.449	20.676	-0.116	0.096
-624.434	47.336	-0.081	-0.077
-623.419	4.512	-0.310	0.232
-622.405	333.279	-0.109	-0.215
-621.390	-200.000	-0.053	0.251
-620.376	613.196	-0.185	0.473
-619.361	-53.708	0.155	0.072
-618.346	-179.813	0.225	0.005
-617.332	553.413	0.171	0.419
-616.317	-149.631	-0.093	-0.008
-615.303	139.312	0.145	-0.194
-614.288	800.000	0.051	0.182
-613.273	25.431	0.175	-0.148
-612.259	131.498	0.203	-0.267
-611.244	800.000	-0.063	0.257
-610.230	800.000	0.103	0.411
-609.215	-200.000	-0.013	0.192
-608.201	208.367	-0.267	0.425
-607.186	609.900	-0.094	-0.240
-606.171	6.567	0.318	0.241
-605.157	-16.827	0.155	-0.100
-604.142	-200.000	-0.033	0.312
-603.128	-200.000	-0.003	0.018
-602.113	-71.935	-0.172	0.065
-601.098	-104.625	-0.236	0.055
-600.084	159.144	0.096	-0.137
-599.069	-192.164	0.189	-0.002
-598.055	-200.000	0.016	-0.094
-597.040	444.229	-0.042	0.094
-596.025	14.939	0.243	0.194
-595.011	118.640	-0.041	0.052
-593.996	-200.000	0.016	0.203
-592.982	102.075	-0.084	-0.100
-591.967	-65.057	0.349	-0.143
-590.952	26.072	0.172	0.147
-589.938	-64.927	0.192	0.079
-588.923	486.744	0.158	-0.367
-587.909	-200.000	-0.024	0.215
-586.894	499.645	0.029	0.068
-585.879	12.038	0.193	-0.151
-584.865	-122.306	-0.278	-0.046
-583.850	-82.788	0.326	-0.107
-582.836	-51.191	-0.229	-0.109
-581.821	-106.467	-0.291	0.066
-580.806	443.053	-0.017	0.038
-579.792	-99.745	-0.151	0.038
-578.777	-95.198	0.116	-0.032
-577.763	347.366	-0.121	-0.243
-576.748	-56.909	0.252	-0.113
-575.733	-100.221	0.087	0.022
-574.719	-39.897	0.075	-0.040
-573.704	-87.705	-0.237	-0.073
-572.690	-63.617	-0.259	-0.108
-571.675	-75.231	0.390	-0.142
-570.661	-33.479	0.242	0.136
-569.646	800.000	0.052	0.217
-568.631	-54.884	0.414	-0.190
-567.617	441.848	0.119	0.265
-566.602	59.295	-0.173	0.173
-565.588	48.314	-0.328	0.313
-564.573	138.075	0.141	-0.188
-563.558	101.998	-0.241	-0.286
-562.544	-200.000	0.006	-0.149
-561.529	800.000	-0.099	-0.318
-560.515	53.764	0.159	-0.156
-559.500	800.000	0.037	-0.152
-558.485	98.637	-0.037	0.044
-557.471	35.551	-0.313	0.280
-556.456	-78.570	-0.178	0.062
-555.442	-200.000	0.020	0.143
-554.427	357.313	0.069	0.139
-553.412	380.013	-0.056	-0.117
-552.398	-99.865	0.310	0.079
-551.383	424.472	-0.045	-0.098
-550.369	314.729	-0.143	-0.274
-549.354	32.284	0.151	-0.133
-548.339	-155.972	0.144	0.009
-547.325	-166.356	-0.061	-0.003
-546.310	-200.000	-0.008	0.084
-545.296	-12.664	-0.034	0.022
-544.281	65.944	0.249	-0.257
-543.266	-73.483	-0.117	0.043
-542.252	-72.911	0.115	-0.043
-541.237	800.000	0.108	-0.386
-540.223	309.121	-0.040	-0.077
-539.208	-104.555	-0.105	-0.025
-538.193	800.000	0.045	0.129
-537.179	170.412	0.207	-0.301
-536.164	-57.595	-0.190	0.085
-535.150	112.629	-0.154	-0.190
-534.135	-133.225	-0.130	-0.017
-533.121	-132.409	-0.196	0.026
-532.106	579.667	0.050	-0.125
-531.091	11.879	0.149	0.116
-530.077	-145.491	0.030	-0.003
-529.062	7.644	-0.177	-0.135
-528.048	144.237	0.046	0.062
-527.033	32.518	-0.141	0.124
-526.018	51.393	-0.290	-0.279
-525.004	-177.496	-0.242	-0.006
-523.989	800.000	0.100	-0.362
-522.975	421.587	0.035	-0.076
-521.960	800.000	-0.080	0.342
-520.945	-200.000	-0.018	0.102
-519.931	87.169	-0.081	-0.091
-518.916	-200.000	0.020	0.316
-517.902	14.158	-0.084	0.066
-516.887	-185.961	0.164	-0.002
-515.872	204.770	0.168	0.265
-514.858	-41.953	0.435	-0.226
-513.843	-200.000	-0.015	-0.170
-512.829	441.444	-0.024	-0.054
-511.814	800.000	-0.107	-0.309
-510.799	143.878	-0.109	0.148
-509.785	-6.003	0.127	0.088
-508.770	-60.578	0.341	-0.147
-507.756	329.597	0.129	-0.251
-506.741	309.691	0.205	0.389
-505.726	-200.000	-0.013	-0.188
-504.712	-157.429	0.474	0.029
-503.697	520.550	-0.061	0.146
-502.683	413.846	-0.204	0.440
-501.668	-200.000	-0.047	0.263
-500.653	-23.459	-0.315	-0.192
-499.639	-200.000	-0.030	0.185
-498.624	-150.442	0.267	-0.021
-497.610	159.371	0.111	0.157
-496.595	-69.311	-0.253	-0.099
-495.581	116.009	-0.071	-0.088
-494.566	283.853	-0.100	0.182
-493.551	121.268	-0.117	0.148
-492.537	653.168	0.091	0.237
-491.522	-200.000	0.023	0.278
-490.508	2.504	0.198	0.145
-489.493	236.069	0.125	0.210
-488.478	333.043	0.011	-0.021
-487.464	-200.000	-0.029	-0.205
-486.449	800.000	0.060	-0.241
-485.435	-137.216	-0.479	0.055
-484.420	-106.537	0.296	0.067
-483.405	28.877	-0.204	0.175
-482.391	141.050	0.180	-0.242
-481.376	-150.222	-0.229	-0.018
-480.362	62.290	0.113	-0.114
-479.347	31.978	-0.185	0.162
-478.332	-136.560	-0.191	-0.022
-477.318	-200.000	0.008	0.084
-476.303	800.000	0.047	0.208
-475.289	-33.953	0.226	0.126
-474.274	-200.000	-0.021	-0.159
-473.259	24.587	-0.180	-0.151
-472.245	-172.278	0.195	-0.006
-471.230	84.732	-0.136	-0.152
-470.216	800.000	0.050	0.164
-469.201	-75.521	0.107	0.039
-468.186	-107.976	-0.265	0.058
-467.172	800.000	0.037	0.151
-466.157	-133.112	0.498	-0.064
-465.143	-5.032	-0.037	-0.026
-464.128	-89.966	-0.163	-0.048
-463.113	800.000	0.032	-0.118
-462.099	-6.526	0.179	-0.124
-461.084	42.003	-0.263	-0.242
-460.070	-44.922	-0.221	-0.112
-459.055	-174.009	-0.107	-0.003
-458.040	628.681	-0.136	0.348
-457.026	8.449	-0.211	0.161
-456.011	-132.388	0.164	0.021
-454.997	110.817	-0.117	-0.143
-453.982	-125.546	-0.319	0.049
-452.968	-19.848	-0.087	-0.054
-451.953	800.000	-0.014	-0.058
-450.938	-200.000	-0.067	0.356
-449.924	-200.000	0.020	0.226
-448.909	402.709	0.101	0.214
-447.895	-166.039	-0.375	0.016
-446.880	253.295	0.115	0.199
-445.865	-84.376	-0.052	0.017
-444.851	7.300	0.103	0.078
-443.836	800.000	-0.066	-0.268
-442.822	-200.000	-0.033	0.189
-441.807	-52.239	-0.307	-0.144
-440.792	-200.000	0.003	-0.020
-439.778	-164.112	-0.049	0.002
-438.763	2.655	0.198	-0.145
-437.749	12.557	0.304	-0.237
-436.734	51.843	-0.148	-0.143
-435.719	485.586	-0.036	-0.083
-434.705	-200.000	0.015	-0.260
-433.690	384.743	-0.041	0.085
-432.676	325.460	0.185	-0.359
-431.661	44.912	-0.016	0.015
-430.646	-173.166	-0.222	0.007
-429.632	170.003	-0.149	0.215
-428.617	14.466	-0.100	0.079
-427.603	800.000	-0.065	-0.274
-426.588	-200.000	-0.003	-0.419
-425.573	-25.802	-0.238	0.142
-424.559	65.033	0.056	0.057
-423.544	-114.976	0.275	-0.053
-422.530	427.831	0.079	-0.172
-421.515	-200.000	-0.030	-0.396
-420.500	-123.191	-0.199	-0.032
-419.486	-139.818	0.109	-0.012
-418.471	-39.222	-0.127	-0.068
-417.457	-112.789	-0.410	-0.082
-416.442	232.339	0.138	0.230
-415.428	800.000	0.051	-0.186
-414.413	287.430	-0.110	0.202
-413.398	-115.383	0.207	-0.040
-412.384	-131.845	-0.212	0.028
-411.369	-55.069	0.106	-0.048
-410.355	508.119	-0.074	-0.174
-409.340	669.249	0.082	0.215
-408.325	527.860	0.141	0.336
-407.311	-112.464	0.133	-0.027
-406.296	-102.708	-0.036	0.009
-405.282	-200.000	0.067	-0.353
-404.267	36.255	0.115	-0.103
-403.252	-137.664	-0.448	-0.051
-402.238	291.994	-0.055	0.102
-401.223	-200.000	0.013	-0.065
-400.209	398.480	-0.048	-0.102
-399.194	-59.762	-0.328	-0.142
-398.179	-200.000	-0.009	0.182
-397.165	-200.000	-0.017	-0.130
-396.150	-13.773	0.273	-0.179
-395.136	-200.000	-0.031	0.308
-394.121	-98.678	0.330	-0.085
-393.106	-140.898	-0.093	0.010
-392.092	-37.346	0.053	-0.029
-391.077	55.744	-0.119	0.116
-390.063	-59.015	-0.208	-0.091
-389.048	-142.679	-0.285	-0.028
-388.033	-1.431	0.210	0.150
-387.019	66.586	0.029	-0.030
-386.004	33.598	0.294	-0.258
-384.990	-18.520	-0.119	-0.075
-383.975	113.508	0.202	0.248
-382.960	-3.201	0.074	0.052
-381.946	-136.582	0.182	0.021
-380.931	800.000	0.021	-0.085
-379.917	800.000	-0.043	-0.134
-378.902	61.286	0.209	-0.209
-377.888	142.848	-0.242	-0.324
-376.873	-32.416	0.291	-0.164
-375.858	-12.954	-0.060	-0.039
-374.844	-200.000	-0.024	-0.204
-373.829	111.062	0.293	-0.356
-372.815	297.775	-0.180	0.333
-371.800	-10.655	0.222	-0.148
-370.785	-200.000	-0.037	0.261
-369.771	800.000	0.067	0.220
-368.756	-32.482	0.073	-0.041
-367.742	800.000	0.070	-0.294
-366.727	-95.249	-0.194	0.053
-365.712	800.000	0.042	0.181
-364.698	-200.000	-0.012	0.312
-363.683	-41.153	0.066	-0.034
-362.669	-200.000	-0.011	-0.182
-361.654	-78.764	-0.189	-0.065
-360.639	-128.509	-0.269	-0.038
-359.625	-115.839	0.164	0.031
-358.610	-137.349	0.115	-0.013
-357.596	-24.083	0.200	0.120
-356.581	-13.313	0.381	0.249
-355.566	-9.207	-0.247	-0.167
-354.552	442.818	-0.116	-0.256
-353.537	-74.877	-0.332	0.120
-352.523	28.221	-0.077	0.065
-351.508	-68.229	-0.130	-0.051
-350.493	106.725	-0.114	0.136
-349.479	-129.960	-0.126	-0.017
-348.464	410.603	-0.119	-0.255
-347.450	71.708	0.099	0.104
-346.435	-101.458	0.220	0.054
-345.420	91.371	-0.168	0.190
-344.406	-80.843	0.089	-0.030
-343.391	61.098	-0.239	-0.240
-342.377	65.825	-0.313	0.320
-341.362	800.000	0.066	0.225
-340.348	-200.000	0.013	0.121
-339.333	182.073	-0.076	0.113
-338.318	-200.000	-0.019	-0.305
-337.304	171.864	-0.068	-0.098
-336.289	401.839	0.111	0.235
-335.275	317.730	0.100	-0.190
-334.260	-99.330	0.264	0.067
-333.245	33.977	0.316	0.277
-332.231	-89.273	-0.199	0.059
-331.216	194.870	0.175	0.268
-330.202	352.839	-0.069	0.137
-329.187	0.914	-0.148	-0.107
-328.172	-128.797	-0.129	-0.018
-327.158	269.258	0.229	-0.406
-326.143	200.657	-0.055	-0.085
-325.129	-200.000	-0.067	-0.316
-324.114	-200.000	0.016	0.227
-323.099	161.291	-0.158	-0.222
-322.085	-57.989	0.033	0.014
-321.070	92.746	-0.174	0.198
-320.056	800.000	0.062	-0.257
-319.041	22.101	-0.186	-0.153
-318.026	-13.379	-0.128	-0.084
-317.012	-61.491	0.243	0.103
-315.997	203.432	0.144	-0.225
-314.983	-200.000	0.023	0.264
-313.968	-94.646	0.415	-0.114
-312.953	-176.618	0.330	0.009
-311.939	800.000	-0.060	0.259
-310.924	156.071	-0.151	0.210
-309.910	-125.447	0.259	-0.040
-308.895	-3.181	-0.052	-0.037
-307.880	91.873	-0.261	0.296
-306.866	-67.050	-0.061	-0.024
-305.851	-101.807	-0.127	-0.031
-304.837	241.246	-0.056	0.093
-303.822	157.508	-0.256	-0.357
-302.807	800.000	-0.084	-0.280
-301.793	-78.796	0.233	0.080
-300.778	-200.000	-0.081	-0.452
-299.764	83.887	0.209	0.230
-298.749	-200.000	-0.018	0.115
-297.735	91.068	0.168	-0.190
-296.720	-200.000	-0.047	-0.247
-295.705	-200.000	0.009	-0.080
-294.691	64.681	-0.283	0.287
-293.676	-51.775	0.248	-0.116
-292.662	-129.040	0.511	0.072
-291.647	-34.142	-0.381	-0.211
-290.632	6.889	0.182	-0.136
-289.618	800.000	-0.116	0.375
-288.603	-48.307	-0.187	-0.091
-287.589	144.342	0.086	-0.115
-286.574	-32.774	0.161	-0.090
-285.559	-92.452	-0.244	-0.069
-284.545	-138.971	-0.173	-0.019
-283.530	-175.289	-0.318	0.009
-282.516	-22.166	-0.095	0.058
-281.501	800.000	0.044	0.185
-280.486	-173.872	0.142	-0.004
-279.472	-49.372	0.264	-0.127
-278.457	-128.322	0.362	-0.052
-277.443	-90.494	-0.242	-0.071
-276.428	-200.000	0.010	0.181
-275.413	-7.811	-0.146	-0.099
-274.399	-23.115	-0.097	0.059
-273.384	-50.584	-0.468	0.222
-272.370	-103.276	0.071	0.017
-271.355	-200.000	0.032	-0.212
-270.340	800.000	-0.123	0.389
-269.326	-107.908	0.166	-0.036
-268.311	75.757	0.147	-0.156
-267.297	-200.000	-0.021	-0.199
-266.282	-200.000	-0.007	-0.286
-265.267	-56.459	0.153	-0.068
-264.253	-103.131	-0.200	0.047
-263.238	-168.952	0.206	0.008
-262.224	-145.285	-0.179	0.016
-261.209	-26.303	-0.138	0.081
-260.195	-24.059	0.116	-0.070
-259.180	-31.125	0.036	0.020
-258.165	286.031	0.033	0.060
-257.151	0.807	-0.176	0.127
-256.136	39.182	0.126	0.113
-255.122	13.821	0.235	0.184
-254.107	27.672	-0.304	0.257
-253.092	98.629	-0.104	-0.121
-252.078	-41.369	0.145	-0.075
-251.063	777.782	-0.078	0.214
-250.049	33.125	-0.255	-0.222
-249.034	800.000	-0.051	-0.142
-248.019	-200.000	0.006	-0.085
-247.005	-122.649	0.197	0.032
-245.990	-200.000	-0.032	0.341
-244.976	-88.849	-0.201	-0.060
-243.961	176.449	0.224	0.327
-242.946	307.793	-0.106	0.199
-241.932	-26.428	-0.219	0.129
-240.917	26.010	-0.041	-0.035
-239.903	0.270	-0.149	-0.107
-238.888	71.808	-0.093	-0.097
-237.873	-200.000	-0.010	0.045
-236.859	800.000	-0.067	0.209
-235.844	279.938	0.121	-0.217
-234.830	-169.745	0.112	0.004
-233.815	101.576	-0.103	0.121
-232.800	-29.179	-0.125	-0.072
-231.786	800.000	-0.071	-0.309
-230.771	-200.000	-0.069	0.320
-229.757	115.295	0.072	0.089
-228.742	-182.757	0.193	-0.004
-227.727	-137.057	-0.175	-0.020
-226.713	418.673	0.079	-0.171
-225.698	-200.000	0.069	-0.330
-224.684	-89.054	-0.084	-0.025
-223.669	146.124	0.240	0.323
-222.655	-31.441	-0.202	-0.114
-221.640	26.864	0.244	0.205
-220.625	441.070	-0.081	-0.178
-219.611	465.288	0.109	-0.245
-218.596	588.568	0.084	0.207
-217.582	-31.196	0.133	0.075
-216.567	446.039	0.058	0.128
-215.552	138.621	-0.070	0.093
-214.538	521.810	0.114	-0.269
-213.523	-200.000	0.027	0.285
-212.509	-4.369	0.154	0.107
-211.494	-3.184	0.078	-0.054
-210.479	-53.188	-0.199	-0.092
-209.465	-200.000	0.014	-0.105
-208.450	550.207	-0.090	-0.217
-207.436	22.025	-0.197	0.161
-206.421	-72.863	-0.052	0.019
-205.406	-152.718	-0.157	-0.011
-204.392	-190.562	-0.211	0.002
-203.377	504.019	-0.111	-0.259
-202.363	-100.905	-0.270	-0.066
-201.348	-27.676	0.189	-0.110
-200.333	-0.728	0.098	0.070
-199.319	-200.000	-0.002	-0.308
-198.304	219.759	-0.179	0.288
-197.290	28.474	0.270	-0.229
-196.275	-176.500	0.210	-0.005
-195.260	499.912	0.064	0.147
-194.246	-173.228	0.524	0.016
-193.231	-26.316	0.072	0.042
-192.217	-200.000	-0.018	-0.126
-191.202	-200.000	-0.106	0.512
-190.187	751.466	0.095	0.258
-189.173	-200.000	-0.253	-0.000
-188.158	-200.000	0.021	0.197
-187.144	-114.812	-0.043	-0.008
-186.129	173.514	0.097	-0.141
-185.114	407.169	-0.064	-0.135
-184.100	289.075	-0.080	0.146
-183.085	-114.201	0.470	0.091
-182.071	567.251	0.150	-0.364
-181.056	235.926	-0.119	-0.197
-180.042	-52.469	0.246	-0.114
-179.027	-124.038	0.089	0.014
-178.012	75.639	-0.097	0.103
-176.998	182.597	-0.023	-0.034
-175.983	800.000	-0.036	-0.157
-174.969	416.156	-0.152	0.324
-173.954	76.295	-0.026	0.027
-172.939	-200.000	0.005	0.379
-171.925	-13.919	0.232	0.150
-170.910	-81.369	0.139	-0.046
-169.896	161.223	-0.075	-0.106
-168.881	73.428	-0.142	-0.149
-167.866	26.398	0.069	0.058
-166.852	-68.804	-0.282	-0.109
-165.837	295.976	-0.062	-0.114
-164.823	-28.791	0.074	0.043
-163.808	108.640	0.174	-0.208
-162.793	-200.000	0.007	0.152
-161.779	167.077	0.068	0.097
-160.764	128.454	0.232	0.296
-159.750	193.861	-0.132	0.199
-158.735	-128.590	0.172	-0.024
-157.720	-63.268	0.286	0.118
-156.706	-67.106	-0.230	-0.091
-155.691	126.643	0.025	-0.032
-154.677	-200.000	-0.058	0.456
-153.662	-200.000	0.023	0.245
-152.647	4.069	0.190	-0.139
-151.633	-200.000	0.010	-0.360
-150.618	-40.598	0.214	0.111
-149.604	-79.739	0.263	-0.089
-148.589	-108.363	0.063	-0.014
-147.574	-200.000	0.020	-0.229
-146.560	-117.997	-0.088	0.016
-145.545	703.390	0.113	-0.299
-144.531	82.341	0.104	0.113
-143.516	468.353	0.192	-0.430
-142.502	-92.883	0.126	0.035
-141.487	-99.428	-0.120	0.030
-140.472	-120.045	0.250	-0.043
-139.458	59.526	-0.105	0.103
-138.443	657.319	-0.127	0.325
-137.429	5.933	-0.235	-0.174
-136.414	-4.778	0.141	-0.098
-135.399	224.352	-0.044	-0.071
-134.385	424.835	0.084	-0.181
-133.370	-70.525	0.187	-0.071
-132.356	75.658	-0.109	0.115
-131.341	-200.000	-0.036	0.186
-130.326	550.100	-0.069	-0.166
-129.312	121.676	0.164	0.204
-128.297	-200.000	0.010	-0.246
-127.283	165.267	-0.229	0.324
-126.268	-114.503	-0.351	-0.067
-125.253	-36.630	-0.237	0.128
-124.239	207.223	0.111	-0.173
-123.224	-60.230	0.264	-0.112
-122.210	59.704	-0.116	0.114
-121.195	-24.872	-0.324	0.193
-120.180	621.219	0.066	-0.167
-119.166	-108.451	-0.353	0.076
-118.151	-200.000	0.057	0.287
-117.137	0.835	0.135	0.097
-116.122	354.666	0.044	0.088
-115.107	-156.030	0.492	0.031
-114.093	-33.924	-0.287	-0.158
-113.078	800.000	-0.006	-0.026
-112.064	-150.772	0.132	-0.010
-111.049	-200.000	-0.074	0.328
-110.034	-36.109	-0.132	-0.071
-109.020	35.361	0.245	-0.215
-108.005	-12.959	-0.104	0.067
-106.991	387.106	0.251	0.518
-105.976	-138.382	0.057	-0.006
-104.962	-200.000	-0.038	0.285
-103.947	-168.109	0.105	-0.004
-102.932	-179.682	0.189	-0.004
-101.918	73.544	0.361	0.378
-100.903	-200.000	-0.012	-0.301
-99.889	-77.410	0.168	0.058
-98.874	152.855	-0.023	-0.031
-97.859	-111.865	0.223	-0.045
-96.845	-25.786	-0.084	0.050
-95.830	-74.132	0.380	0.137
-94.816	-21.801	0.212	-0.129
-93.801	-7.142	-0.217	-0.147
-92.786	79.547	-0.164	0.176
-91.772	296.961	0.198	-0.362
-90.757	39.087	-0.018	-0.016
-89.743	-63.514	-0.202	-0.083
-88.728	598.083	0.107	0.264
-87.713	743.536	0.112	-0.302
-86.699	757.750	0.113	-0.306
-85.684	72.957	0.169	-0.176
-84.670	-105.057	0.119	0.027
-83.655	157.431	0.257	0.355
-82.640	-37.210	0.160	0.085
-81.626	-39.351	0.095	-0.050
-80.611	78.032	-0.163	0.174
-79.597	-53.043	-0.124	0.057
-78.582	-200.000	0.043	0.425
-77.567	714.050	-0.018	0.047
-76.553	306.587	-0.084	0.156
-75.538	800.000	0.024	-0.089
-74.524	800.000	-0.051	0.218
-73.509	-200.000	0.016	0.084
-72.494	83.546	-0.216	0.235
-71.480	800.000	-0.081	-0.345
-70.465	-19.161	0.176	0.109
-69.451	-200.000	0.014	0.127
-68.436	40.706	0.043	0.038
-67.422	-200.000	-0.067	0.384
-66.407	-17.653	-0.115	-0.072
-65.392	800.000	-0.077	-0.264
-64.378	564.536	0.037	-0.089
-63.363	-200.000	0.008	0.073
-62.349	236.082	-0.114	0.189
-61.334	46.909	-0.628	-0.583
-60.319	129.023	0.072	-0.092
-59.305	-200.000	-0.089	-0.800
-58.290	124.137	0.477	0.598
-57.276	800.000	0.483	1.543
-56.261	-200.000	73.940	536.169
-55.246	581.722	1296.868	3172.126
-54.232	146.386	2521.006	3376.191
-53.217	121.678	2244.338	2791.121
-52.203	54.518	1763.188	1694.717
-51.188	46.833	1556.743	1442.793
-50.173	43.808	1526.541	1393.958
-49.159	59.612	1562.103	1536.476
-48.144	66.589	1581.470	1603.832
-47.130	47.134	1544.845	1433.626
-46.115	43.305	1530.589	1393.961
-45.100	43.034	1527.785	1389.482
-44.086	42.997	1525.734	1387.305
-43.071	42.997	1523.114	1384.869
-42.057	42.868	1522.018	1382.932
-41.042	42.939	1520.206	1381.717
-40.027	42.977	1518.165	1380.069
-39.013	42.979	1516.946	1378.921
-37.998	42.880	1516.418	1377.711
-36.984	42.950	1514.922	1376.773
-35.969	42.934	1513.683	1375.485
-34.954	43.048	1511.986	1374.661
-33.940	43.064	1510.353	1373.230
-32.925	43.011	1508.880	1371.481
-31.911	43.008	1507.970	1370.580
-30.896	43.038	1506.560	1369.443
-29.881	43.049	1505.411	1368.419
-28.867	43.083	1503.690	1367.032
-27.852	43.027	1502.535	1365.551
-26.838	42.997	1501.180	1364.060
-25.823	42.990	1499.438	1362.375
-24.809	43.047	1497.053	1360.540
-23.794	42.968	1496.227	1359.202
-22.779	43.056	1494.581	1358.245
-21.765	43.004	1493.835	1357.161
-20.750	43.055	1492.663	1356.387
-19.736	43.032	1491.401	1355.036
-18.721	42.913	1490.184	1353.073
-17.706	42.937	1488.691	1351.828
-16.692	43.007	1487.536	1351.192
-15.677	42.856	1486.940	1349.586
-14.663	42.943	1485.903	1349.171
-13.648	42.886	1484.527	1347.489
-12.633	42.945	1483.713	1347.092
-11.619	42.856	1483.371	1346.131
-10.604	42.997	1481.893	1345.677
-9.590	42.938	1481.059	1344.473
-8.575	42.927	1480.495	1343.835
-7.560	42.917	1479.541	1342.852
-6.546	42.954	1479.161	1342.699
-5.531	42.892	1477.566	1340.786
-4.517	42.923	1476.587	1340.046
-3.502	42.855	1475.960	1338.978
-2.487	42.846	1474.832	1337.837
-1.473	42.894	1473.827	1337.194
-0.458	43.025	1471.803	1336.169
0.556	41.987	1462.749	1326.593
1.571	39.417	1436.401	1285.829
2.586	35.906	1374.027	1207.898
3.600	33.940	1292.369	1124.398
4.615	32.276	1243.965	1072.703
5.629	26.867	1184.963	992.239
6.644	13.323	1090.565	844.432
7.659	2.746	1041.020	754.213
8.673	1.285	1034.546	742.316
9.688	0.956	1031.850	738.709
10.702	0.812	1030.109	736.697
11.717	0.778	1028.721	735.471
12.731	5.043	1034.785	760.574
13.746	16.820	1051.316	830.708
14.761	23.947	1059.543	872.219
15.775	23.510	1058.812	869.398
16.790	23.257	1057.283	866.824
17.804	23.030	1056.943	865.358
18.819	22.877	1055.799	863.596
19.834	22.976	1055.278	863.580
20.848	23.178	1054.522	863.872
21.863	23.133	1054.319	863.409
22.877	23.046	1054.174	862.789
23.892	23.105	1053.368	862.340
24.907	22.976	1052.253	860.724
25.921	22.903	1052.110	860.172
26.936	23.102	1050.764	859.963
27.950	23.025	1049.615	858.574
28.965	23.019	1048.603	857.643
29.980	22.836	1047.258	855.578
30.994	22.901	1045.853	854.668
32.009	23.051	1045.024	854.644
33.023	23.186	1044.470	854.763
34.038	22.908	1043.267	852.364
35.053	22.842	1042.723	851.524
36.067	22.942	1042.457	851.714
37.082	22.993	1041.276	850.921
38.096	22.991	1040.915	850.543
39.111	23.192	1039.913	850.613
40.126	23.232	1039.192	850.139
41.140	23.292	1037.795	849.211
42.155	23.030	1036.495	846.817
43.169	22.582	1035.518	843.801
44.184	22.561	1034.517	842.808
45.199	22.714	1033.065	842.283
46.213	22.644	1031.995	841.000
47.228	22.630	1031.420	840.390
48.242	22.809	1030.820	840.682
49.257	22.829	1030.083	840.100
50.271	22.964	1029.128	839.888
51.286	23.150	1028.280	840.006
52.301	23.148	1027.768	839.502
53.315	23.083	1026.877	838.393
54.330	23.079	1026.384	837.897
55.344	23.052	1025.268	836.782
56.359	23.149	1024.378	836.440
57.374	23.084	1023.997	835.748
58.388	22.817	1022.767	833.410
59.403	22.770	1021.853	832.371
60.417	22.725	1021.830	832.069
61.432	22.665	1020.648	830.746
62.447	22.689	1020.174	830.403
63.461	22.635	1019.650	829.650
64.476	22.679	1019.125	829.355
65.490	22.855	1017.769	829.001
66.505	22.693	1016.786	827.370
67.520	22.720	1016.177	826.929
68.534	22.897	1015.156	826.853
69.549	22.694	1014.302	825.135
70.563	22.534	1012.927	823.193
71.578	22.374	1012.547	822.064
72.593	22.437	1011.582	821.504
73.607	22.175	1010.566	819.384
74.622	22.141	1009.427	818.232
75.636	22.550	1008.779	819.535
76.651	22.681	1007.994	819.436
77.666	22.699	1007.132	818.744
78.680	22.463	1006.410	816.992
79.695	22.491	1005.419	816.242
80.709	22.610	1005.271	816.600
81.724	22.751	1004.380	816.459
82.739	22.727	1003.491	815.550
83.753	22.716	1002.267	814.436
84.768	22.946	1002.495	815.609
85.782	23.158	1001.510	815.714
86.797	23.372	1001.429	816.562
87.812	23.372	1000.275	815.547
88.826	23.222	999.386	814.063
89.841	23.164	998.433	812.947
90.855	23.401	997.925	813.552
91.870	23.240	997.135	812.098
92.884	23.201	996.761	811.542
93.899	23.283	995.262	810.626
94.914	23.068	994.207	808.709
95.928	23.195	993.541	808.674
96.943	23.242	992.962	808.350
97.957	22.942	991.744	805.918
98.972	22.778	990.425	804.028
99.987	22.631	989.381	802.441
101.001	22.724	989.131	802.589
102.016	22.989	988.695	803.369
103.030	23.144	987.409	802.954
104.045	22.963	986.657	801.452
105.060	22.789	985.590	799.726
106.074	22.659	984.143	797.892
107.089	22.599	983.179	796.772
108.103	22.939	983.065	798.145
109.118	23.073	982.298	798.053
110.133	22.828	980.934	795.771
111.147	22.817	979.711	794.658
112.162	22.662	978.581	792.977
113.176	22.436	977.447	790.974
114.191	22.654	976.919	791.453
115.206	22.705	976.022	790.888
116.220	22.429	974.520	788.362
117.235	22.179	974.216	786.927
118.249	22.439	973.150	787.162
119.264	22.502	972.340	786.716
120.279	22.457	971.507	785.771
121.293	22.330	970.595	784.400
122.308	22.516	970.377	784.980
123.322	22.657	968.885	784.334
124.337	22.452	968.110	782.723
125.352	22.293	967.029	781.075
126.366	21.903	965.416	777.974
127.381	21.656	964.121	775.768
128.395	22.192	963.519	777.587
129.410	22.788	963.504	780.140
130.424	22.987	962.606	780.225
131.439	23.046	961.751	779.722
132.454	22.874	960.850	778.163
133.468	23.048	959.734	777.957
134.483	22.977	958.956	776.949
135.497	22.912	958.394	776.139
136.512	23.207	958.009	777.053
137.527	23.040	957.485	775.824
138.541	23.239	956.212	775.597
139.556	23.291	955.543	775.214
140.570	23.266	954.680	774.337
141.585	23.300	953.831	773.728
142.600	23.334	953.210	773.304
143.614	23.262	952.139	772.049
144.629	23.409	951.370	771.999
145.643	23.469	951.082	771.958
146.658	23.421	950.164	770.937
147.673	23.262	948.965	769.205
148.687	23.194	947.897	767.977
149.702	23.159	946.362	766.513
150.716	23.009	945.383	765.005
151.731	22.980	944.701	764.259
152.746	22.981	943.646	763.343
153.760	23.151	943.362	763.779
154.775	23.449	942.662	764.431
155.789	23.285	941.914	763.047
156.804	23.365	940.538	762.209
157.819	23.302	939.685	761.179
158.833	23.337	938.861	760.598
159.848	23.391	938.128	760.166
160.862	23.447	937.420	759.766
161.877	23.376	936.682	758.796
162.892	23.321	935.155	757.257
163.906	23.209	935.193	756.744
164.921	23.366	933.655	756.100
165.935	23.269	932.873	754.987
166.950	23.395	931.580	754.410
167.964	23.210	931.323	753.349
168.979	23.363	930.044	752.900
169.994	23.272	928.930	751.543
171.008	22.989	928.105	749.608
172.023	23.199	927.211	749.708
173.037	23.320	927.239	750.180
174.052	23.166	925.671	748.191
175.067	22.936	924.598	746.288
176.081	23.062	923.895	746.187
177.096	23.073	922.953	745.405
178.110	23.154	922.298	745.150
179.125	22.957	920.894	743.124
180.140	22.708	920.161	741.419
181.154	22.726	919.692	741.052
182.169	22.755	919.404	740.877
183.183	22.903	918.846	740.981
184.198	23.273	918.241	741.979
185.213	23.245	917.507	741.201
186.227	23.156	917.186	740.508
187.242	23.344	916.399	740.589
188.256	23.249	915.587	739.471
189.271	23.278	914.687	738.802
190.286	23.496	914.151	739.210
191.300	23.283	913.320	737.585
192.315	22.679	912.046	733.979
193.329	22.017	910.424	729.859
194.344	21.553	909.544	727.163
195.359	22.197	909.232	729.522
196.373	22.884	910.150	733.045
197.388	23.228	909.735	734.076
198.402	23.109	909.125	733.024
199.417	23.162	908.524	732.695
200.432	23.114	908.091	732.082
201.446	23.066	907.108	731.024
202.461	22.807	906.257	729.207
203.475	22.762	905.944	728.701
204.490	22.446	904.619	726.269
205.504	21.371	902.089	719.750
206.519	21.573	902.127	720.549
207.534	22.567	902.714	725.046
208.548	22.860	902.110	725.699
209.563	23.217	901.843	726.888
210.577	23.182	901.039	726.032
211.592	22.988	900.035	724.363
212.607	23.275	900.027	725.470
213.621	23.407	899.600	725.599
214.636	23.361	899.180	725.011
215.650	23.274	898.892	724.358
216.665	23.388	897.678	723.782
217.680	23.511	897.346	723.950
218.694	23.431	897.211	723.450
219.709	23.017	896.213	720.894
220.723	22.579	895.269	718.288
221.738	22.892	894.493	718.874
222.753	23.021	894.338	719.212
223.767	23.081	893.541	718.750
224.782	23.290	892.358	718.584
225.796	23.243	892.407	718.367
226.811	23.425	891.688	718.466
227.826	23.139	890.097	715.963
228.840	22.298	888.627	711.317
229.855	22.213	888.201	710.570
230.869	22.420	887.993	711.175
231.884	22.033	887.099	708.834
232.899	22.193	886.479	708.923
233.913	23.003	886.497	712.140
234.928	23.117	886.134	712.243
235.942	23.024	885.593	711.372
236.957	23.066	884.921	710.939
237.972	22.860	883.820	709.166
238.986	22.723	883.189	708.044
240.001	22.829	882.814	708.105
241.015	22.764	882.163	707.263
242.030	22.893	881.469	707.159
243.045	23.118	880.732	707.404
244.059	23.087	880.516	707.047
245.074	23.275	879.938	707.270
246.088	23.300	879.286	706.781
247.103	22.902	878.673	704.640
248.117	22.865	878.087	703.960
249.132	23.352	877.813	705.618
250.147	23.774	877.756	707.191
251.161	23.983	876.983	707.335
252.176	23.954	876.735	706.959
253.190	24.138	875.986	707.021
254.205	24.066	875.514	706.294
255.220	24.211	875.040	706.422
256.234	24.202	874.559	705.936
257.249	24.045	873.859	704.685
258.263	23.935	873.234	703.687
259.278	23.962	872.727	703.322
260.293	24.149	871.999	703.410
261.307	23.998	871.828	702.615
262.322	24.139	870.622	702.135
263.336	23.917	870.290	700.930
264.351	23.423	869.080	697.951
265.366	22.471	866.868	692.370
266.380	21.941	865.881	689.441
267.395	22.781	866.356	693.057
268.409	23.527	866.174	695.776
269.424	23.439	866.015	695.242
270.439	23.715	865.215	695.622
271.453	23.939	864.634	695.969
272.468	23.918	864.070	695.374
273.482	24.031	863.754	695.497
274.497	24.183	863.009	695.429
275.512	24.063	862.175	694.227
276.526	23.414	860.840	690.563
277.541	23.501	860.511	690.577
278.555	24.041	859.945	692.161
279.570	23.757	859.439	690.589
280.585	23.569	858.869	689.339
281.599	23.520	858.639	688.905
282.614	23.674	858.124	689.027
283.628	23.430	856.608	686.804
284.643	22.778	856.374	684.031
285.657	23.448	855.973	686.244
286.672	23.232	855.448	684.925
287.687	22.917	854.086	682.559
288.701	23.030	854.120	682.962
289.716	23.538	853.993	684.760
290.730	23.175	853.317	682.760
291.745	23.141	851.958	681.482
292.760	22.975	851.095	680.091
293.774	22.887	850.365	679.110
294.789	23.742	851.051	682.886
295.803	24.471	851.011	685.594
296.818	24.508	850.589	685.333
297.833	24.534	850.110	684.987
298.847	24.313	848.940	683.140
299.862	23.999	848.133	681.228
300.876	23.965	848.003	680.932
301.891	24.414	847.314	682.033
302.906	24.416	847.148	681.848
303.920	24.094	845.977	679.617
304.935	23.876	845.420	678.278
305.949	24.172	845.080	679.073
306.964	24.293	844.813	679.261
307.979	24.239	843.815	678.192
308.993	24.104	843.111	677.052
310.008	24.407	842.773	677.871
311.022	24.640	842.414	678.408
312.037	24.298	842.150	676.836
313.052	24.173	841.343	675.656
314.066	24.108	840.797	674.909
315.081	23.319	839.374	670.721
316.095	22.665	838.257	667.296
317.110	23.192	837.716	668.801
318.125	24.110	838.362	672.725
319.139	23.680	837.275	670.171
320.154	22.598	835.809	664.859
321.168	22.030	834.881	661.921
322.183	22.624	835.203	664.359
323.197	23.481	835.652	667.884
324.212	23.871	834.740	668.565
325.227	23.972	834.895	669.010
326.241	24.111	834.443	669.111
327.256	24.262	833.671	668.998
328.270	23.965	832.906	667.214
329.285	23.957	832.639	666.911
330.300	23.826	831.602	665.529
331.314	23.551	830.835	663.828
332.329	23.592	830.141	663.368
333.343	24.107	829.831	664.984
334.358	24.227	829.553	665.150
335.373	24.258	828.865	664.656
336.387	24.339	828.755	664.811
337.402	24.580	828.151	665.165
338.416	24.645	827.671	664.961
339.431	24.696	826.993	664.548
340.446	24.524	826.735	663.644
341.460	24.845	826.474	664.569
342.475	24.685	825.974	663.512
343.489	24.563	825.019	662.234
344.504	24.625	824.157	661.715
345.519	24.978	823.734	662.622
346.533	24.946	823.571	662.313
347.548	25.136	823.415	662.831
348.562	25.186	823.004	662.626
349.577	25.138	822.266	661.797
350.592	25.011	821.906	660.981
351.606	25.059	821.155	660.494
352.621	25.116	820.587	660.188
353.635	24.994	820.078	659.273
354.650	24.947	819.519	658.593
355.665	24.497	818.709	656.231
356.679	23.579	817.071	651.490
357.694	23.385	816.599	650.345
358.708	23.994	816.490	652.432
359.723	23.928	815.940	651.693
360.738	24.174	815.663	652.315
361.752	24.723	815.454	654.099
362.767	24.669	815.559	653.928
363.781	25.019	815.308	654.951
364.796	25.372	815.019	655.948
365.810	25.355	814.522	655.428
366.825	25.508	814.317	655.763
367.840	25.451	814.082	655.310
368.854	24.953	813.681	653.113
369.869	24.718	812.647	651.370
370.883	24.699	811.506	650.326
371.898	24.850	811.145	650.529
372.913	24.716	810.561	649.515
373.927	24.794	809.796	649.131
374.942	24.844	809.287	648.845
375.956	25.087	808.649	649.157
376.971	25.116	807.860	648.571
377.986	25.220	807.649	648.719
379.000	25.185	807.273	648.235
380.015	25.359	807.071	648.642
381.029	25.149	806.271	647.185
382.044	25.208	805.462	646.691
383.059	25.318	804.997	646.655
384.073	25.363	804.722	646.542
385.088	25.257	804.314	645.774
386.102	25.378	803.649	645.617
387.117	25.284	802.754	644.505
388.132	25.069	802.480	643.456
389.146	24.948	802.018	642.593
390.161	24.479	800.479	639.625
391.175	24.366	800.613	639.270
392.190	24.988	800.718	641.524
393.205	24.868	800.046	640.499
394.219	24.226	798.171	636.649
395.234	22.600	796.109	629.151
396.248	21.552	795.314	624.727
397.263	22.651	795.891	629.050
398.278	24.464	797.379	636.643
399.292	25.143	796.844	638.577
400.307	24.652	796.593	636.570
401.321	24.799	795.904	636.486
402.336	24.833	795.677	636.372
403.350	24.955	795.673	636.745
404.365	25.456	795.953	638.694
405.380	25.707	795.458	639.132
406.394	25.894	795.215	639.543
407.409	26.189	794.540	639.989
408.423	26.012	794.537	639.305
409.438	25.886	793.751	638.170
410.453	25.946	793.242	637.915
411.467	26.096	792.971	638.171
412.482	26.060	792.340	637.478
413.496	25.944	791.635	636.446
414.511	25.921	791.552	636.241
415.526	26.092	790.998	636.345
416.540	26.162	790.775	636.354
417.555	26.011	790.209	635.313
418.569	25.778	789.212	633.633
419.584	25.702	789.011	633.149
420.599	25.755	788.441	632.821
421.613	87.424	1245.776	1328.079
422.628	74.315	1312.429	1328.226
