DTS Sentinel unit serial number:	SN413079Multiplexer serial number:	ORYXHardware model number:	OX4-SRSoftware version number:	ORYX F/W v4.00 Oryx Data Collector v3.7.2.0data status	okinstallation	princeton_trtdifferential loss correction	single-endedforward channel	channel 3reverse channel	N/Adate	2019/09/11time	03:34:10forward acquisition time	60.00reverse acquisition time	0.00gamma	496.2192k internal	0.2331k external	0.2331temperature offset calibration	0.9908default loss term (dB/km)	0.3790temperature slope calibration	1.0000multiplexer offset coefficient	1.0000multiplexer slope coefficient	1.0000fibre end	0.00T internal ref (°C)	29.48T ext. ref 1 (°C)	-0.28T ext. ref 2 (°C)	23.98length (m)	temperature (°C)	Stokes	anti-Stokes-747.200	207.572	0.040	0.062
-746.185	-168.018	-0.214	0.008
-745.171	-95.078	0.134	-0.037
-744.156	-200.000	-0.057	0.254
-743.142	158.050	-0.211	0.295
-742.127	66.478	0.086	0.088
-741.112	250.188	0.095	-0.163
-740.098	800.000	-0.071	0.218
-739.083	-191.870	0.127	-0.001
-738.069	-191.226	-0.392	-0.004
-737.054	266.642	0.172	-0.303
-736.039	11.200	-0.266	0.205
-735.025	494.727	0.080	0.185
-734.010	-92.716	-0.139	-0.039
-732.996	4.514	-0.382	-0.282
-731.981	-127.442	-0.400	-0.058
-730.966	-1.237	0.007	-0.005
-729.952	687.048	0.120	0.314
-728.937	-102.163	-0.317	-0.077
-727.923	42.588	-0.210	-0.192
-726.908	384.253	-0.171	-0.354
-725.894	350.651	0.114	-0.226
-724.879	-129.031	0.221	-0.031
-723.864	279.213	0.058	0.105
-722.850	-93.765	-0.132	0.037
-721.835	800.000	-0.036	-0.130
-720.821	800.000	-0.057	-0.181
-719.806	-121.258	-0.297	-0.050
-718.791	-27.515	0.182	0.106
-717.777	618.970	0.105	0.266
-716.762	-7.231	-0.113	0.077
-715.748	-200.000	-0.010	0.049
-714.733	520.645	-0.019	0.045
-713.718	-68.411	0.238	0.093
-712.704	-11.348	-0.151	0.100
-711.689	-7.507	0.140	0.095
-710.675	349.276	-0.152	0.302
-709.660	4.855	-0.191	0.141
-708.645	800.000	0.033	-0.131
-707.631	800.000	-0.030	-0.126
-706.616	-80.342	0.301	0.101
-705.602	-122.458	0.196	-0.032
-704.587	117.556	-0.133	0.164
-703.572	157.907	0.139	-0.194
-702.558	56.283	0.082	-0.080
-701.543	189.741	-0.120	0.181
-700.529	642.014	-0.040	-0.103
-699.514	800.000	-0.024	0.093
-698.499	-129.832	0.076	0.010
-697.485	-200.000	-0.019	-0.117
-696.470	-196.706	-0.298	-0.002
-695.456	-124.115	-0.121	-0.019
-694.441	140.053	0.079	0.105
-693.426	34.190	-0.095	-0.083
-692.412	-42.531	-0.060	0.031
-691.397	226.597	-0.054	-0.088
-690.383	590.310	0.093	-0.231
-689.368	-52.882	-0.171	-0.079
-688.354	-143.378	0.090	-0.009
-687.339	111.705	-0.123	-0.149
-686.324	-144.569	0.295	0.027
-685.310	87.272	-0.136	-0.151
-684.295	172.506	0.159	-0.230
-683.281	-130.290	-0.241	-0.033
-682.266	-44.515	0.194	0.097
-681.251	-14.278	0.198	0.128
-680.237	-140.052	-0.228	0.024
-679.222	-114.593	-0.236	-0.045
-678.208	800.000	-0.003	0.012
-677.193	-80.438	-0.297	0.100
-676.178	-124.840	-0.320	-0.050
-675.164	-89.439	-0.226	0.067
-674.149	800.000	0.009	0.034
-673.135	159.420	-0.075	-0.104
-672.120	-200.000	0.050	-0.275
-671.105	-200.000	-0.041	-0.250
-670.091	8.306	0.241	-0.182
-669.076	36.153	-0.179	0.158
-668.062	-200.000	-0.009	0.045
-667.047	84.623	-0.185	0.203
-666.032	711.510	0.054	-0.143
-665.018	-70.170	0.261	0.099
-664.003	-27.326	0.112	-0.066
-662.989	221.526	0.148	0.238
-661.974	-84.427	-0.461	-0.146
-660.959	142.205	-0.222	-0.295
-659.945	516.941	-0.084	0.197
-658.930	-98.886	0.178	0.045
-657.916	-200.000	0.003	-0.164
-656.901	-78.386	-0.168	0.058
-655.886	61.176	-0.164	0.163
-654.872	-20.547	-0.063	0.039
-653.857	800.000	0.051	0.181
-652.843	-95.922	-0.225	0.060
-651.828	-94.728	-0.154	-0.042
-650.814	-69.169	-0.074	0.028
-649.799	83.513	0.148	0.162
-648.784	-123.447	-0.244	0.039
-647.770	-119.446	-0.219	0.038
-646.755	40.971	0.221	-0.200
-645.741	-161.822	-0.153	-0.008
-644.726	187.131	0.102	-0.153
-643.711	-13.985	0.061	-0.040
-642.697	-117.261	-0.161	-0.029
-641.682	161.568	-0.199	-0.279
-640.668	800.000	0.108	0.316
-639.653	-100.567	-0.053	0.013
-638.638	-121.681	-0.054	0.009
-637.624	191.334	0.158	-0.239
-636.609	21.320	0.156	-0.127
-635.595	-31.015	0.133	0.075
-634.580	-165.078	-0.371	-0.017
-633.565	524.142	-0.070	0.166
-632.551	119.558	0.185	-0.230
-631.536	149.666	0.034	0.047
-630.522	800.000	-0.058	-0.222
-629.507	324.361	-0.148	-0.283
-628.492	48.750	0.128	-0.120
-627.478	456.703	0.045	-0.101
-626.463	-200.000	-0.030	-0.261
-625.449	669.993	-0.066	-0.171
-624.434	800.000	0.049	-0.138
-623.419	-64.477	-0.211	-0.086
-622.405	135.369	0.216	0.281
-621.390	644.249	-0.122	-0.312
-620.376	246.507	0.114	0.192
-619.361	-65.347	-0.302	-0.122
-618.346	800.000	0.040	-0.114
-617.332	-196.875	0.443	0.003
-616.317	-116.946	0.108	0.020
-615.303	-200.000	0.015	-0.218
-614.288	70.329	-0.114	0.118
-613.273	77.437	0.142	-0.152
-612.259	-120.041	0.266	0.046
-611.244	-8.210	0.249	-0.168
-610.230	458.477	-0.155	-0.346
-609.215	-22.139	-0.244	-0.148
-608.201	5.999	-0.371	0.275
-607.186	-86.632	0.178	0.055
-606.171	-200.000	-0.007	-0.074
-605.157	-200.000	-0.015	0.080
-604.142	27.851	0.098	-0.082
-603.128	-42.749	0.126	-0.064
-602.113	-200.000	0.000	0.048
-601.098	323.053	-0.111	-0.212
-600.084	64.195	0.188	0.190
-599.069	-52.565	0.317	-0.147
-598.055	83.015	-0.101	-0.110
-597.040	413.942	-0.185	0.395
-596.025	-200.000	0.012	0.233
-595.011	800.000	0.038	-0.135
-593.996	-53.176	0.202	-0.093
-592.982	-44.102	0.177	0.089
-591.967	-115.480	0.194	-0.037
-590.952	-99.135	-0.173	-0.044
-589.938	-97.890	0.109	0.028
-588.923	72.440	-0.138	0.144
-587.909	800.000	-0.095	0.398
-586.894	669.363	0.151	0.391
-585.879	-113.592	-0.313	0.061
-584.865	-84.252	-0.177	0.056
-583.850	89.731	0.207	-0.232
-582.836	-10.115	-0.391	0.260
-581.821	-200.000	-0.034	0.249
-580.806	-50.970	0.182	-0.086
-579.792	-200.000	0.025	0.172
-578.777	-63.870	-0.292	0.119
-577.763	-200.000	-0.006	0.241
-576.748	-200.000	0.002	0.054
-575.733	32.844	0.103	0.089
-574.719	120.719	0.071	-0.089
-573.704	14.373	-0.103	-0.081
-572.690	472.915	0.087	0.195
-571.675	-200.000	0.014	-0.089
-570.661	-130.068	0.153	0.021
-569.646	-173.777	-0.106	-0.003
-568.631	103.006	-0.264	-0.309
-567.617	800.000	0.049	0.146
-566.602	-42.108	0.107	-0.055
-565.588	93.083	-0.186	0.210
-564.573	-24.733	-0.318	0.189
-563.558	-200.000	-0.072	0.386
-562.544	347.608	-0.041	0.081
-561.529	-141.825	0.280	-0.028
-560.515	178.982	-0.144	-0.210
-559.500	-51.179	0.173	0.081
-558.485	-162.209	-0.290	0.014
-557.471	11.271	-0.210	-0.161
-556.456	105.956	-0.131	-0.155
-555.442	-188.353	0.098	-0.001
-554.427	800.000	0.046	-0.149
-553.412	86.412	0.154	0.170
-552.398	-63.375	0.137	0.056
-551.383	-98.179	0.087	-0.022
-550.369	-153.464	-0.311	-0.022
-549.354	-135.814	0.057	0.007
-548.339	-200.000	0.000	0.082
-547.325	-18.095	0.279	0.175
-546.310	-11.860	0.262	-0.171
-545.296	41.830	-0.247	0.224
-544.281	45.144	0.185	-0.170
-543.266	800.000	0.048	0.145
-542.252	375.374	0.110	-0.223
-541.237	267.845	0.061	-0.107
-540.223	-200.000	0.043	-0.218
-539.208	800.000	-0.110	0.308
-538.193	-23.690	0.194	-0.116
-537.179	-135.664	-0.363	0.043
-536.164	188.131	-0.174	0.260
-535.150	-83.705	0.027	0.009
-534.135	575.621	-0.049	0.119
-533.121	640.584	0.091	-0.230
-532.106	-47.555	0.300	0.146
-531.091	140.547	-0.056	0.074
-530.077	5.013	-0.227	0.167
-529.062	-11.399	-0.055	-0.036
-528.048	800.000	-0.056	-0.245
-527.033	276.557	-0.064	-0.114
-526.018	-126.732	0.241	-0.036
-525.004	226.750	-0.262	-0.425
-523.989	59.646	-0.115	0.113
-522.975	-36.388	-0.113	0.061
-521.960	158.147	0.238	-0.329
-520.945	-10.738	-0.144	-0.095
-519.931	-128.123	0.245	-0.035
-518.916	451.813	0.049	-0.108
-517.902	-150.144	-0.128	0.010
-516.887	-72.117	-0.196	0.073
-515.872	262.655	0.149	0.258
-514.858	-200.000	0.039	-0.216
-513.843	-68.794	-0.174	0.067
-512.829	800.000	-0.045	-0.163
-511.814	-200.000	-0.010	0.255
-510.799	-58.530	-0.372	-0.161
-509.785	-86.629	-0.077	-0.024
-508.770	-200.000	0.011	0.311
-507.756	53.628	0.266	0.255
-506.741	533.569	0.059	-0.139
-505.726	-200.000	0.026	-0.252
-504.712	-120.122	0.078	-0.013
-503.697	217.893	-0.085	0.135
-502.683	-200.000	0.011	-0.057
-501.668	-200.000	0.005	-0.322
-500.653	48.244	-0.093	0.087
-499.639	800.000	0.057	0.189
-498.624	379.519	-0.070	0.143
-497.610	-200.000	-0.011	-0.127
-496.595	-200.000	0.010	-0.214
-495.581	308.422	-0.080	0.148
-494.566	357.660	0.063	0.126
-493.551	800.000	0.034	0.095
-492.537	88.941	-0.111	0.123
-491.522	-200.000	0.000	0.025
-490.508	-37.507	-0.194	-0.103
-489.493	281.654	-0.070	-0.126
-488.478	436.485	-0.130	-0.281
-487.464	53.596	-0.309	0.296
-486.449	-21.127	-0.251	0.153
-485.435	-200.000	-0.045	-0.273
-484.420	-52.944	0.148	0.068
-483.405	-31.969	0.273	-0.153
-482.391	-200.000	-0.019	0.217
-481.376	-126.423	-0.395	0.059
-480.362	157.759	-0.126	0.173
-479.347	-84.304	-0.063	0.020
-478.332	-10.054	-0.134	0.089
-477.318	-131.668	0.103	0.013
-476.303	-127.195	-0.157	0.023
-475.289	-101.479	-0.266	0.064
-474.274	20.217	-0.245	0.197
-473.259	360.634	0.174	0.347
-472.245	-95.813	0.264	-0.070
-471.230	251.308	-0.047	-0.080
-470.216	-200.000	0.010	0.053
-469.201	-84.158	0.151	-0.048
-468.186	116.427	0.137	0.168
-467.172	26.064	-0.172	-0.143
-466.157	110.751	-0.207	0.249
-465.143	-17.677	0.271	-0.169
-464.128	-16.040	-0.203	0.129
-463.113	-138.394	-0.237	0.026
-462.099	107.675	-0.215	-0.255
-461.084	23.424	-0.006	0.005
-460.070	800.000	0.019	-0.083
-459.055	-125.393	0.222	-0.034
-458.040	-32.912	0.184	-0.102
-457.026	-6.440	0.316	-0.215
-456.011	21.396	-0.234	0.189
-454.997	431.024	0.100	-0.215
-453.982	800.000	-0.025	-0.099
-452.968	-105.884	0.167	-0.037
-451.953	-149.613	0.056	0.004
-450.938	-50.120	-0.203	-0.096
-449.924	-107.052	-0.221	0.049
-448.909	612.821	-0.098	0.245
-447.895	-200.000	0.023	0.239
-446.880	800.000	0.114	-0.328
-445.865	-101.642	-0.331	0.080
-444.851	127.025	0.262	0.330
-443.836	-34.261	-0.375	0.205
-442.822	154.205	-0.136	-0.185
-441.807	74.971	0.075	-0.078
-440.792	-109.795	0.335	0.070
-439.778	-200.000	-0.074	-0.369
-438.763	-200.000	0.022	0.127
-437.749	264.443	0.063	0.110
-436.734	219.621	0.146	-0.233
-435.719	-200.000	0.037	0.327
-434.705	-200.000	0.027	0.166
-433.690	712.723	0.048	0.126
-432.676	800.000	0.023	-0.088
-431.661	30.912	0.022	0.018
-430.646	-77.112	-0.184	-0.064
-429.632	-158.116	0.055	0.003
-428.617	252.174	-0.217	-0.368
-427.603	249.485	-0.184	0.310
-426.588	-200.000	-0.021	0.226
-425.573	31.797	0.167	-0.143
-424.559	81.647	0.104	-0.112
-423.544	400.483	0.096	0.201
-422.530	113.608	0.071	0.086
-421.515	-120.862	0.280	0.047
-420.500	-86.985	-0.260	-0.079
-419.486	800.000	-0.060	0.188
-418.471	70.376	0.208	0.214
-417.457	800.000	-0.040	0.151
-416.442	-200.000	-0.007	0.150
-415.428	77.350	-0.186	-0.197
-414.413	-200.000	0.000	-0.011
-413.398	326.445	-0.106	0.201
-412.384	-58.506	-0.248	-0.107
-411.369	24.858	0.050	0.041
-410.355	800.000	0.021	0.084
-409.340	-7.323	0.361	-0.243
-408.325	-12.153	-0.131	0.085
-407.311	-126.518	0.098	-0.014
-406.296	-112.038	-0.186	-0.037
-405.282	319.461	-0.135	-0.254
-404.267	-161.567	-0.261	0.013
-403.252	102.456	0.182	0.212
-402.238	-117.884	0.319	-0.057
-401.223	-200.000	-0.015	-0.117
-400.209	300.827	-0.055	-0.101
-399.194	-139.016	-0.107	0.012
-398.179	-200.000	0.053	-0.375
-397.165	800.000	-0.046	0.148
-396.150	800.000	-0.037	0.104
-395.136	346.138	0.075	-0.147
-394.121	392.576	-0.159	-0.328
-393.106	364.692	0.063	0.125
-392.092	16.990	0.177	-0.139
-391.077	67.019	-0.109	-0.110
-390.063	237.680	-0.089	-0.146
-389.048	-109.073	0.332	-0.070
-388.033	-118.589	-0.048	0.008
-387.019	334.459	-0.116	0.223
-386.004	388.717	-0.235	0.484
-384.990	-61.827	-0.183	-0.076
-383.975	-200.000	-0.024	0.121
-382.960	-200.000	-0.042	0.226
-381.946	470.524	0.050	-0.111
-380.931	800.000	-0.018	-0.059
-379.917	140.953	0.179	-0.235
-378.902	38.498	-0.209	-0.185
-377.888	179.671	0.008	0.012
-376.873	632.107	-0.070	0.175
-375.858	242.557	-0.095	-0.158
-374.844	800.000	0.046	-0.144
-373.829	800.000	0.066	0.220
-372.815	-200.000	0.047	-0.359
-371.800	50.821	0.175	-0.164
-370.785	627.222	-0.063	0.159
-369.771	204.691	-0.171	0.263
-368.756	119.242	0.094	-0.115
-367.742	64.109	-0.015	-0.015
-366.727	210.413	-0.209	-0.325
-365.712	-85.780	0.292	-0.090
-364.698	346.471	-0.059	-0.114
-363.683	-200.000	-0.036	-0.208
-362.669	-15.120	-0.265	0.169
-361.654	-122.137	0.228	-0.037
-360.639	-51.661	-0.163	0.075
-359.625	-163.143	-0.542	0.026
-358.610	248.164	-0.066	0.111
-357.596	10.303	0.168	-0.127
-356.581	698.112	-0.073	0.191
-355.566	364.178	-0.144	0.287
-354.552	-200.000	-0.020	0.204
-353.537	273.816	0.020	-0.035
-352.523	-200.000	-0.006	-0.171
-351.508	-80.818	-0.181	-0.060
-350.493	-127.574	0.097	-0.014
-349.479	-175.826	-0.187	-0.005
-348.464	-88.655	0.066	-0.019
-347.450	-1.158	0.344	0.241
-346.435	-58.789	-0.188	0.081
-345.420	-113.579	0.333	-0.065
-344.406	399.949	0.090	0.188
-343.391	-8.292	-0.235	-0.157
-342.377	59.489	-0.131	-0.128
-341.362	-141.148	-0.156	-0.016
-340.348	-134.221	0.041	0.005
-339.333	800.000	-0.058	0.177
-338.318	-200.000	-0.046	-0.248
-337.304	-200.000	0.010	0.109
-336.289	-200.000	-0.031	-0.286
-335.275	-31.311	0.174	0.097
-334.260	-100.868	0.417	-0.101
-333.245	-19.546	0.245	-0.150
-332.231	328.697	-0.111	-0.210
-331.216	345.179	0.099	-0.192
-330.202	-121.158	0.041	-0.007
-329.187	-34.125	-0.240	0.131
-328.172	-200.000	-0.039	0.330
-327.158	-129.403	-0.214	0.029
-326.143	188.249	-0.240	-0.355
-325.129	291.029	-0.078	0.140
-324.114	5.822	-0.035	-0.025
-323.099	-133.399	0.409	-0.051
-322.085	44.938	0.284	-0.259
-321.070	106.591	-0.161	0.189
-320.056	800.000	0.072	0.221
-319.041	-97.246	-0.351	0.091
-318.026	405.973	-0.072	0.150
-317.012	117.370	0.034	0.041
-315.997	359.411	0.167	-0.330
-314.983	-120.080	-0.503	0.085
-313.968	-56.780	0.163	0.071
-312.953	-200.000	-0.002	0.116
-311.939	40.740	0.104	0.093
-310.924	-200.000	0.002	0.271
-309.910	-45.032	0.206	0.102
-308.895	-58.793	0.115	-0.049
-307.880	-86.958	-0.214	-0.065
-306.866	54.258	0.081	-0.077
-305.851	-100.986	-0.153	-0.037
-304.837	253.761	0.130	0.219
-303.822	-200.000	-0.018	0.097
-302.807	-200.000	0.084	0.419
-301.793	-71.199	0.109	0.040
-300.778	-58.676	0.145	0.062
-299.764	273.795	-0.090	0.157
-298.749	291.024	0.290	0.522
-297.735	156.413	0.156	0.214
-296.720	0.105	-0.095	-0.067
-295.705	800.000	-0.021	0.083
-294.691	-60.759	0.128	0.054
-293.676	-41.043	-0.161	-0.082
-292.662	77.336	0.129	-0.135
-291.647	-200.000	0.039	-0.241
-290.632	481.787	-0.069	0.155
-289.618	-44.630	-0.214	-0.105
-288.603	-200.000	-0.209	-0.000
-287.589	-124.338	0.117	-0.018
-286.574	80.466	0.080	-0.085
-285.559	57.540	0.061	-0.059
-284.545	800.000	0.043	0.174
-283.530	49.146	0.283	0.263
-282.516	-70.718	0.044	-0.017
-281.501	-29.991	0.182	0.102
-280.486	-173.753	-0.400	-0.012
-279.472	341.355	-0.018	-0.035
-278.457	-200.000	-0.003	-0.100
-277.443	-200.000	-0.014	-0.159
-276.428	-154.202	0.114	-0.008
-275.413	800.000	-0.043	-0.157
-274.399	-56.280	-0.184	-0.081
-273.384	-37.280	-0.125	0.066
-272.370	-27.667	-0.120	-0.069
-271.355	-68.532	-0.400	-0.153
-270.340	0.697	0.079	0.056
-269.326	-145.791	0.124	-0.011
-268.311	106.746	-0.204	-0.240
-267.297	-200.000	-0.028	-0.187
-266.282	-32.752	-0.232	0.127
-265.267	-24.455	-0.156	0.092
-264.253	-200.000	-0.001	0.114
-263.238	-86.767	0.493	0.149
-262.224	-66.052	-0.201	-0.079
-261.209	659.453	0.071	0.180
-260.195	102.769	-0.152	0.176
-259.180	-27.895	-0.257	-0.147
-258.165	58.938	0.169	0.164
-257.151	13.167	0.041	0.031
-256.136	-52.204	0.119	-0.055
-255.122	136.002	-0.196	0.253
-254.107	2.034	-0.139	0.099
-253.092	200.157	0.251	-0.381
-252.078	-95.213	0.095	0.025
-251.063	-80.629	0.247	-0.081
-250.049	800.000	0.096	0.264
-249.034	-75.841	0.164	-0.057
-248.019	-154.223	-0.259	-0.017
-247.005	-200.000	0.058	0.282
-245.990	553.680	0.183	0.434
-244.976	-64.227	0.223	0.090
-243.961	800.000	0.034	0.136
-242.946	2.131	0.159	0.114
-241.932	-55.028	0.103	-0.046
-240.917	-200.000	0.048	-0.509
-239.903	79.505	0.016	0.017
-238.888	-200.000	-0.019	-0.300
-237.873	655.615	-0.155	-0.392
-236.859	-40.164	-0.195	-0.100
-235.844	263.580	0.067	0.115
-234.830	-28.049	-0.290	0.166
-233.815	-200.000	-0.033	0.148
-232.800	296.107	0.133	0.240
-231.786	-25.577	-0.175	0.102
-230.771	617.707	0.081	-0.200
-229.757	-200.000	0.018	-0.171
-228.742	-200.000	0.100	-0.556
-227.727	154.502	0.121	0.164
-226.713	-67.647	-0.360	-0.139
-225.698	98.014	-0.280	0.317
-224.684	-148.965	0.080	0.006
-223.669	-16.228	0.114	0.072
-222.655	-200.000	-0.005	-0.216
-221.640	184.596	-0.036	0.053
-220.625	116.173	-0.098	0.119
-219.611	62.009	0.202	-0.199
-218.596	132.639	-0.074	0.094
-217.582	-25.485	0.195	0.114
-216.567	90.883	-0.086	-0.096
-215.552	-40.847	0.147	-0.075
-214.538	129.327	-0.186	0.234
-213.523	-77.105	0.083	0.028
-212.509	46.698	-0.062	-0.057
-211.494	800.000	-0.066	-0.248
-210.479	23.676	-0.185	0.150
-209.465	-200.000	0.033	0.184
-208.450	51.321	-0.134	0.126
-207.436	277.607	-0.192	-0.338
-206.421	59.017	0.234	-0.226
-205.406	-61.923	0.351	0.145
-204.392	146.326	0.211	0.279
-203.377	-21.650	-0.085	-0.051
-202.363	-200.000	-0.049	0.309
-201.348	-40.964	0.128	-0.065
-200.333	390.422	0.198	-0.405
-199.319	800.000	-0.075	-0.322
-198.304	-39.984	0.208	-0.107
-197.290	800.000	0.041	-0.177
-196.275	53.301	0.319	-0.301
-195.260	572.543	0.117	-0.280
-194.246	-99.901	0.341	-0.084
-193.231	-20.398	-0.192	-0.116
-192.217	-93.740	0.203	0.055
-191.202	800.000	-0.020	0.080
-190.187	-40.033	0.224	0.115
-189.173	72.436	0.366	0.376
-188.158	319.811	-0.068	-0.128
-187.144	257.039	-0.082	-0.139
-186.129	191.994	0.113	-0.169
-185.114	-80.299	0.116	0.038
-184.100	219.038	-0.336	0.530
-183.085	711.181	0.073	0.191
-182.071	-200.000	-0.021	0.124
-181.056	-134.304	0.151	0.018
-180.042	-46.544	0.265	0.128
-179.027	46.547	-0.141	0.129
-178.012	-24.572	0.272	0.160
-176.998	800.000	-0.053	0.153
-175.983	171.802	-0.104	-0.147
-174.969	64.640	0.185	-0.184
-173.954	-65.122	-0.072	0.029
-172.939	-111.477	0.523	-0.105
-171.925	-91.760	0.266	-0.074
-170.910	-38.635	0.239	0.124
-169.896	-80.554	0.251	-0.082
-168.881	-63.591	0.091	-0.037
-167.866	11.434	0.300	-0.226
-166.852	-40.286	0.110	0.056
-165.837	139.219	-0.186	0.240
-164.823	-29.231	-0.188	0.106
-163.808	22.601	0.209	-0.169
-162.793	800.000	-0.043	-0.159
-161.779	111.902	-0.103	-0.122
-160.764	27.515	-0.306	-0.254
-159.750	-200.000	-0.028	0.124
-158.735	20.241	-0.050	0.040
-157.720	-200.000	-0.080	-0.384
-156.706	-61.679	0.183	-0.075
-155.691	-18.414	0.137	-0.084
-154.677	-56.272	0.070	0.031
-153.662	-200.000	0.042	-0.198
-152.647	175.138	-0.076	0.109
-151.633	191.834	0.169	-0.250
-150.618	170.743	0.020	0.029
-149.604	145.475	0.298	-0.392
-148.589	169.765	-0.150	0.210
-147.574	123.695	0.257	-0.318
-146.560	800.000	0.037	0.130
-145.545	170.726	-0.094	0.133
-144.531	800.000	0.052	0.168
-143.516	43.690	0.180	0.162
-142.502	-62.916	0.130	0.053
-141.487	0.887	0.417	0.294
-140.472	58.593	0.187	0.180
-139.458	-119.895	-0.463	-0.078
-138.443	-50.625	-0.180	0.083
-137.429	-0.756	-0.170	-0.118
-136.414	800.000	0.151	0.514
-135.399	532.210	-0.032	-0.074
-134.385	218.585	-0.087	-0.136
-133.370	70.076	-0.111	0.113
-132.356	244.797	0.105	-0.173
-131.341	-198.809	0.265	0.001
-130.326	-50.060	-0.122	0.057
-129.312	-200.000	-0.014	0.146
-128.297	-200.000	0.010	0.073
-127.283	-137.244	0.336	-0.038
-126.268	124.576	0.187	-0.231
-125.253	203.683	0.329	0.500
-124.239	698.751	0.097	0.250
-123.224	29.407	-0.219	-0.183
-122.210	76.983	0.267	-0.278
-121.195	-0.165	0.397	0.277
-120.180	-106.996	0.251	-0.054
-119.166	-84.615	0.267	0.083
-118.151	-200.000	0.091	0.508
-117.137	-11.304	0.329	-0.213
-116.122	33.926	0.140	0.120
-115.107	101.280	-0.274	0.313
-114.093	-22.521	-0.163	0.097
-113.078	-8.807	-0.246	-0.162
-112.064	-82.952	0.132	-0.042
-111.049	127.037	-0.103	0.128
-110.034	800.000	-0.080	0.267
-109.020	13.158	0.284	0.216
-108.005	120.159	0.127	-0.155
-106.991	-200.000	-0.011	-0.087
-105.976	-200.000	-0.007	-0.109
-104.962	-39.368	-0.073	-0.038
-103.947	-102.624	0.133	0.031
-102.932	314.589	0.109	0.201
-101.918	360.456	0.040	0.078
-100.903	125.569	-0.041	0.051
-99.889	39.394	0.320	0.281
-98.874	64.457	0.142	0.140
-97.859	653.208	0.125	-0.315
-96.845	-200.000	0.016	-0.355
-95.830	-200.000	0.072	0.434
-94.816	-200.000	0.012	0.159
-93.801	-190.289	0.146	0.002
-92.786	-43.765	-0.235	-0.116
-91.772	257.263	-0.079	0.134
-90.757	206.382	0.061	0.094
-89.743	80.017	0.119	-0.126
-88.728	-200.000	0.035	0.366
-87.713	-200.000	0.001	0.233
-86.699	800.000	-0.046	-0.176
-85.684	-64.923	0.261	0.104
-84.670	-182.179	0.183	0.003
-83.655	785.061	0.018	-0.047
-82.640	800.000	-0.023	0.083
-81.626	-200.000	0.023	0.175
-80.611	-146.932	0.246	0.021
-79.597	102.658	-0.033	0.038
-78.582	-126.587	-0.260	-0.038
-77.567	-80.799	0.250	0.081
-76.553	121.102	0.102	-0.124
-75.538	56.640	-0.188	0.180
-74.524	438.118	-0.027	0.057
-73.509	299.892	0.103	0.185
-72.494	50.985	-0.120	0.112
-71.480	212.500	-0.257	-0.397
-70.465	-133.672	0.181	-0.022
-69.451	800.000	-0.038	-0.142
-68.436	164.252	-0.162	-0.224
-67.422	707.578	0.059	0.152
-66.407	1.649	0.114	-0.080
-65.392	337.210	0.149	-0.284
-64.378	22.474	-0.204	0.164
-63.363	312.137	-0.108	-0.199
-62.349	22.014	-0.099	0.079
-61.334	254.859	-0.745	-1.250
-60.319	518.735	0.299	0.687
-59.305	-200.000	-0.128	-0.930
-58.290	91.665	1.056	1.164
-57.276	293.877	0.759	1.358
-56.261	-200.000	106.141	610.678
-55.246	501.829	1508.461	3413.995
-54.232	176.313	2701.163	3844.750
-53.217	110.569	2185.492	2574.541
-52.203	40.217	1703.989	1501.463
-51.188	32.594	1513.573	1281.995
-50.173	30.282	1486.650	1243.669
-49.159	51.282	1542.477	1434.396
-48.144	51.545	1559.436	1451.908
-47.130	32.907	1514.885	1285.032
-46.115	29.772	1500.365	1251.493
-45.100	29.533	1496.916	1246.954
-44.086	29.505	1494.160	1244.416
-43.071	29.537	1492.243	1242.986
-42.057	29.389	1490.957	1240.872
-41.042	29.468	1489.560	1240.192
-40.027	29.504	1488.083	1239.150
-39.013	29.474	1486.135	1237.279
-37.998	29.366	1485.268	1235.783
-36.984	29.471	1484.121	1235.487
-35.969	29.457	1482.798	1234.239
-34.954	29.438	1481.356	1232.863
-33.940	29.466	1479.674	1231.603
-32.925	29.391	1478.754	1230.288
-31.911	29.477	1477.319	1229.615
-30.896	29.543	1475.794	1228.739
-29.881	29.537	1474.792	1227.819
-28.867	29.632	1473.142	1227.022
-27.852	29.591	1472.170	1225.895
-26.838	29.518	1470.412	1223.896
-25.823	29.534	1468.935	1222.727
-24.809	29.511	1467.215	1221.096
-23.794	29.528	1465.644	1219.848
-22.779	29.494	1464.787	1218.866
-21.765	29.595	1463.935	1218.771
-20.750	29.570	1462.995	1217.777
-19.736	29.506	1461.688	1216.219
-18.721	29.606	1459.894	1215.337
-17.706	29.503	1459.405	1214.205
-16.692	29.561	1458.091	1213.444
-15.677	29.552	1457.245	1212.628
-14.663	29.454	1456.167	1211.041
-13.648	29.462	1455.493	1210.487
-12.633	29.501	1454.446	1209.825
-11.619	29.429	1453.809	1208.777
-10.604	29.383	1453.344	1208.036
-9.590	29.407	1452.095	1207.113
-8.575	29.449	1451.138	1206.544
-7.560	29.458	1450.262	1205.820
-6.546	29.401	1449.799	1205.015
-5.531	29.442	1448.751	1204.370
-4.517	29.411	1447.629	1203.185
-3.502	29.408	1446.651	1202.307
-2.487	29.465	1445.523	1201.693
-1.473	29.363	1444.429	1200.067
-0.458	29.496	1443.096	1199.777
0.556	27.096	1433.719	1189.228
1.571	24.302	1409.144	1150.740
2.586	21.161	1350.538	1083.321
3.600	19.789	1269.648	1010.333
4.615	18.631	1225.264	968.400
5.629	16.331	1170.769	912.829
6.644	8.196	1086.755	806.279
7.659	1.077	1046.558	741.640
8.673	0.005	1040.327	731.940
9.688	-0.314	1037.740	728.508
10.702	-0.434	1036.200	726.780
11.717	-0.375	1034.045	725.488
12.731	3.007	1037.372	744.158
13.746	11.683	1050.080	795.580
14.761	18.548	1058.920	835.781
15.775	20.296	1060.392	845.393
16.790	20.629	1060.019	846.643
17.804	20.244	1059.673	844.416
18.819	20.238	1058.531	843.401
19.834	20.308	1057.791	843.080
20.848	20.502	1057.546	843.751
21.863	20.472	1057.405	843.417
22.877	20.473	1056.795	842.861
23.892	20.494	1056.216	842.426
24.907	20.347	1055.339	840.939
25.921	20.325	1054.849	840.370
26.936	20.361	1053.787	839.620
27.950	20.415	1052.191	838.539
28.965	20.423	1051.308	837.797
29.980	20.316	1049.411	835.697
30.994	20.254	1048.116	834.292
32.009	20.339	1047.581	834.202
33.023	20.556	1046.362	834.201
34.038	20.415	1045.123	832.461
35.053	20.289	1044.607	831.372
36.067	20.445	1043.937	831.513
37.082	20.621	1043.044	831.572
38.096	20.549	1042.253	830.521
39.111	20.659	1041.643	830.485
40.126	20.915	1040.245	830.521
41.140	20.720	1039.520	828.940
42.155	20.449	1037.853	826.249
43.169	20.164	1036.522	823.762
44.184	20.037	1035.750	822.471
45.199	20.169	1034.774	822.251
46.213	20.012	1033.759	820.629
47.228	20.024	1032.801	819.852
48.242	20.160	1032.168	819.919
49.257	20.261	1031.377	819.695
50.271	20.302	1030.274	818.941
51.286	20.472	1029.994	819.446
52.301	20.486	1028.723	818.430
53.315	20.477	1027.686	817.490
54.330	20.488	1027.007	816.926
55.344	20.445	1025.934	815.801
56.359	20.441	1025.521	815.381
57.374	20.370	1024.762	814.371
58.388	20.247	1023.684	812.868
59.403	20.237	1023.072	812.262
60.417	20.364	1021.883	811.842
61.432	20.011	1021.690	809.964
62.447	20.157	1020.174	809.373
63.461	20.272	1019.834	809.569
64.476	20.464	1018.989	809.719
65.490	20.250	1018.682	808.409
66.505	20.358	1017.487	807.890
67.520	20.250	1016.536	806.561
68.534	20.323	1015.752	806.206
69.549	20.207	1014.500	804.603
70.563	19.829	1013.521	802.006
71.578	19.749	1012.500	800.757
72.593	19.969	1011.676	801.052
73.607	19.707	1010.437	798.788
74.622	19.752	1009.534	798.214
75.636	20.026	1009.287	799.210
76.651	20.205	1007.965	798.918
77.666	19.933	1007.730	797.409
78.680	19.931	1006.489	796.347
79.695	19.826	1006.241	795.595
80.709	19.950	1005.418	795.444
81.724	20.103	1004.860	795.635
82.739	20.150	1003.739	794.892
83.753	20.175	1002.811	794.204
84.768	20.319	1001.967	794.125
85.782	20.592	1001.150	794.654
86.797	20.749	1000.864	795.074
87.812	20.784	999.654	794.202
88.826	20.455	999.217	792.284
89.841	20.553	998.222	791.869
90.855	20.539	997.698	791.322
91.870	20.737	996.006	790.807
92.884	20.738	995.423	790.282
93.899	20.600	994.415	788.785
94.914	20.502	993.166	787.278
95.928	20.501	992.799	786.916
96.943	20.610	992.023	786.722
97.957	20.304	990.772	784.279
98.972	20.135	989.663	782.567
99.987	19.966	988.368	780.712
101.001	20.043	987.570	780.362
102.016	20.361	987.437	781.617
103.030	20.362	986.332	780.677
104.045	20.370	985.089	779.663
105.060	20.295	983.773	778.218
106.074	19.985	982.892	776.063
107.089	19.974	982.049	775.276
108.103	20.426	981.633	776.901
109.118	20.494	980.928	776.582
110.133	20.104	980.118	774.126
111.147	20.214	978.433	773.219
112.162	20.095	977.563	771.933
113.176	19.866	975.598	769.294
114.191	19.990	975.033	769.333
115.206	20.169	974.478	769.620
116.220	19.830	973.023	766.902
117.235	19.769	972.199	765.915
118.249	19.898	971.647	765.982
119.264	19.876	970.608	764.999
120.279	19.725	969.539	763.420
121.293	19.752	968.933	762.996
122.308	20.088	967.974	763.652
123.322	19.964	967.195	762.428
124.337	19.859	966.157	761.080
125.352	19.774	964.655	759.456
126.366	19.444	962.885	756.546
127.381	19.080	962.023	754.208
128.395	19.651	961.624	756.329
129.410	20.239	961.203	758.505
130.424	20.442	960.202	758.532
131.439	20.445	958.918	757.463
132.454	20.443	957.641	756.378
133.468	20.329	957.059	755.359
134.483	20.357	956.261	754.783
135.497	20.376	955.547	754.232
136.512	20.645	955.074	754.960
137.527	20.558	954.600	754.144
138.541	20.687	953.093	753.444
139.556	20.732	952.440	753.057
140.570	20.651	951.852	752.175
141.585	20.692	951.130	751.715
142.600	20.625	950.436	750.812
143.614	20.601	949.262	749.712
144.629	20.490	948.946	748.917
145.643	20.955	948.131	750.210
146.658	20.775	947.051	748.517
147.673	20.785	945.402	747.189
148.687	20.487	944.304	744.977
149.702	20.449	943.431	744.061
150.716	20.350	942.618	742.930
151.731	20.459	941.511	742.459
152.746	20.590	940.686	742.302
153.760	20.639	940.284	742.125
154.775	20.869	939.295	742.262
155.789	20.837	938.358	741.319
156.804	20.749	937.494	740.196
157.819	20.784	936.314	739.347
158.833	20.904	934.889	738.665
159.848	20.855	934.936	738.429
160.862	20.797	934.104	737.461
161.877	20.677	933.269	736.231
162.892	20.726	932.339	735.640
163.906	20.837	931.355	735.267
164.921	20.809	930.731	734.589
165.935	20.737	929.495	733.246
166.950	20.736	928.530	732.417
167.964	20.813	927.510	731.868
168.979	20.716	926.901	730.915
169.994	20.760	925.221	729.713
171.008	20.439	924.658	727.859
172.023	20.831	923.578	728.586
173.037	20.949	922.974	728.537
174.052	20.659	921.760	726.303
175.067	20.363	920.691	724.160
176.081	20.608	919.752	724.381
177.096	20.576	919.288	723.816
178.110	20.584	918.606	723.251
179.125	20.393	917.204	721.288
180.140	20.179	916.210	719.555
181.154	20.277	915.446	719.297
182.169	20.174	914.942	718.410
183.183	20.567	914.611	719.717
184.198	20.706	914.296	719.979
185.213	20.744	913.666	719.574
186.227	20.715	912.832	718.738
187.242	20.733	912.570	718.539
188.256	20.779	911.598	717.902
189.271	20.858	910.873	717.590
190.286	20.925	910.319	717.367
191.300	20.512	909.321	714.821
192.315	20.175	908.014	712.344
193.329	19.573	906.102	708.314
194.344	19.189	905.030	705.838
195.359	19.811	905.099	708.378
196.373	20.611	905.552	711.947
197.388	20.747	905.460	712.368
198.402	20.601	904.696	711.106
199.417	20.536	904.219	710.403
200.432	20.542	903.603	709.883
201.446	20.500	902.663	708.910
202.461	20.176	901.920	706.943
203.475	20.347	901.280	707.075
204.490	19.855	899.870	703.904
205.504	18.784	897.929	697.972
206.519	19.208	898.208	699.850
207.534	20.107	898.508	703.675
208.548	20.266	897.604	703.551
209.563	20.602	897.575	704.828
210.577	20.545	896.639	703.800
211.592	20.451	895.390	702.378
212.607	20.646	895.975	703.560
213.621	20.911	895.074	703.863
214.636	20.811	894.381	702.851
215.650	20.798	894.216	702.607
216.665	20.812	893.186	701.791
217.680	20.618	893.225	700.979
218.694	20.772	892.691	701.119
219.709	20.542	890.906	698.729
220.723	20.236	890.107	696.811
221.738	20.382	889.666	696.991
222.753	20.590	889.424	697.573
223.767	20.576	888.366	696.628
224.782	20.759	887.780	696.839
225.796	20.817	887.615	696.880
226.811	20.961	886.833	696.781
227.826	20.601	885.418	694.170
228.840	19.729	884.190	689.667
229.855	19.750	883.555	689.194
230.869	19.972	883.226	689.761
231.884	19.736	882.019	687.819
232.899	19.773	881.326	687.366
233.913	20.525	882.055	690.865
234.928	20.671	881.322	690.808
235.942	20.527	880.693	689.684
236.957	20.692	879.810	689.584
237.972	20.304	878.997	687.349
238.986	20.255	878.297	686.546
240.001	20.282	878.038	686.390
241.015	20.365	876.941	685.801
242.030	20.426	876.376	685.540
243.045	20.605	875.941	685.844
244.059	20.569	875.372	685.198
245.074	20.747	874.949	685.507
246.088	20.909	873.678	685.086
247.103	20.360	873.232	682.519
248.117	20.372	872.927	682.267
249.132	20.956	872.357	684.054
250.147	21.308	872.184	685.238
251.161	21.373	871.628	684.993
252.176	21.457	871.145	684.883
253.190	21.344	870.260	683.684
254.205	21.540	869.806	684.035
255.220	21.502	870.033	684.001
256.234	21.607	868.952	683.502
257.249	21.645	867.897	682.760
258.263	21.532	867.761	682.151
259.278	21.458	866.819	681.063
260.293	21.506	866.524	680.960
261.307	21.588	865.742	680.604
262.322	21.645	864.875	680.082
263.336	21.421	864.566	678.909
264.351	20.719	862.975	674.880
265.366	19.711	861.100	669.449
266.380	19.392	860.257	667.502
267.395	20.285	860.652	671.207
268.409	21.175	860.665	674.598
269.424	20.949	860.237	673.328
270.439	21.309	859.418	674.017
271.453	21.424	858.931	674.017
272.468	21.367	858.239	673.198
273.482	21.579	857.596	673.448
274.497	21.573	857.256	673.098
275.512	21.286	856.527	671.364
276.526	20.772	855.019	668.150
277.541	21.140	854.651	669.216
278.555	21.481	854.499	670.344
279.570	21.187	853.636	668.483
280.585	21.014	852.579	666.932
281.599	21.222	852.145	667.330
282.614	21.194	851.497	666.658
283.628	20.803	850.531	664.351
284.643	20.532	849.341	662.330
285.657	20.825	849.616	663.603
286.672	20.606	849.372	662.518
287.687	20.245	848.036	660.042
288.701	20.621	848.036	661.417
289.716	20.957	848.001	662.608
290.730	20.571	846.717	660.081
291.745	20.563	845.904	659.357
292.760	20.442	844.849	658.019
293.774	20.328	844.536	657.284
294.789	21.294	845.007	661.253
295.803	21.892	844.860	663.340
296.818	21.879	844.533	662.975
297.833	22.012	844.029	663.024
298.847	21.721	842.833	660.927
299.862	21.436	841.661	658.877
300.876	21.545	841.503	659.104
301.891	21.785	841.234	659.739
302.906	21.911	840.546	659.616
303.920	21.570	838.979	657.047
304.935	21.302	838.783	655.829
305.949	21.620	838.462	656.711
306.964	21.718	837.930	656.607
307.979	21.571	837.079	655.332
308.993	21.719	836.568	655.427
310.008	21.835	836.685	655.895
311.022	21.937	835.911	655.611
312.037	21.912	835.208	654.906
313.052	21.485	835.045	653.128
314.066	21.535	834.283	652.660
315.081	20.998	832.450	649.171
316.095	20.276	831.138	645.404
317.110	20.719	831.892	647.581
318.125	21.486	831.986	650.452
319.139	21.227	830.702	648.427
320.154	19.996	829.404	642.792
321.168	19.837	828.373	641.347
322.183	20.249	828.657	643.035
323.197	21.119	829.209	646.635
324.212	21.221	829.039	646.823
325.227	21.469	828.313	647.114
326.241	21.636	827.936	647.381
327.256	21.555	827.190	646.440
328.270	21.474	826.433	645.495
329.285	21.387	825.883	644.687
330.300	21.427	824.714	643.864
331.314	21.065	824.383	642.215
332.329	21.173	823.772	642.080
333.343	21.628	822.874	642.993
334.358	21.670	823.041	643.221
335.373	21.657	822.537	642.724
336.387	21.898	821.774	642.954
337.402	22.013	821.592	643.175
338.416	22.219	821.015	643.423
339.431	22.034	820.700	642.439
340.446	22.002	820.497	642.110
341.460	22.250	819.515	642.190
342.475	22.158	818.852	641.275
343.489	22.129	817.840	640.320
344.504	21.941	817.495	639.309
345.519	22.216	817.315	640.113
346.533	22.377	817.095	640.470
347.548	22.626	816.551	640.894
348.562	22.636	816.234	640.623
349.577	22.581	815.739	639.980
350.592	22.408	814.800	638.558
351.606	22.337	814.871	638.299
352.621	22.394	814.172	637.904
353.635	22.419	813.155	637.141
354.650	22.239	812.977	636.291
355.665	21.926	811.966	634.313
356.679	20.979	810.417	629.629
357.694	20.817	809.974	628.644
358.708	21.502	809.738	630.876
359.723	21.399	809.380	630.172
360.738	21.561	809.052	630.442
361.752	22.182	808.970	632.558
362.767	22.189	808.688	632.308
363.781	22.543	808.582	633.440
364.796	22.797	808.315	634.089
365.810	22.865	807.918	633.965
366.825	22.923	807.691	633.941
367.840	22.799	807.398	633.209
368.854	22.582	806.806	631.912
369.869	22.247	805.155	629.364
370.883	22.196	804.711	628.778
371.898	22.218	803.862	628.139
372.913	22.270	803.223	627.770
373.927	22.008	803.115	626.692
374.942	22.189	802.939	627.145
375.956	22.354	802.207	627.106
376.971	22.596	801.390	627.274
377.986	22.585	801.274	627.091
379.000	22.672	800.811	626.981
380.015	22.769	800.196	626.787
381.029	22.611	799.517	625.638
382.044	22.543	798.980	624.924
383.059	22.789	798.266	625.181
384.073	22.830	797.920	624.998
385.088	22.795	797.743	624.681
386.102	22.787	796.886	623.925
387.117	22.666	796.014	622.762
388.132	22.548	795.389	621.800
389.146	22.215	795.288	620.493
390.161	21.736	794.293	617.972
391.175	21.920	794.161	618.465
392.190	22.246	794.103	619.513
393.205	22.311	793.412	619.146
394.219	21.512	791.260	614.609
395.234	20.019	789.468	607.925
396.248	19.390	788.461	604.891
397.263	20.408	789.496	609.206
398.278	22.058	790.722	615.887
399.292	22.523	790.615	617.381
400.307	22.273	789.754	615.778
401.321	22.030	789.708	614.836
402.336	22.247	789.158	615.112
403.350	22.507	788.712	615.619
404.365	22.840	788.901	616.878
405.380	23.094	788.469	617.373
406.394	23.386	788.406	618.284
407.409	23.434	788.116	618.171
408.423	23.281	787.650	617.219
409.438	23.262	786.887	616.500
410.453	23.275	786.716	616.356
411.467	23.551	785.845	616.577
412.482	23.537	785.286	616.038
413.496	23.360	785.079	615.206
414.511	23.477	784.937	615.445
415.526	23.421	784.468	614.830
416.540	23.406	783.999	614.354
417.555	23.323	783.500	613.621
418.569	23.151	782.573	612.246
419.584	22.961	782.226	611.265
420.599	23.117	781.917	611.506
421.613	157.519	1363.663	1798.522
422.628	136.151	1448.418	1798.623
