DTS Sentinel unit serial number:	SN413079Multiplexer serial number:	ORYXHardware model number:	OX4-SRSoftware version number:	ORYX F/W v4.00 Oryx Data Collector v3.7.2.0data status	okinstallation	princeton_trtdifferential loss correction	single-endedforward channel	channel 3reverse channel	N/Adate	2019/09/11time	01:38:11forward acquisition time	60.00reverse acquisition time	0.00gamma	496.2192k internal	0.2331k external	0.2331temperature offset calibration	0.9917default loss term (dB/km)	0.3790temperature slope calibration	1.0000multiplexer offset coefficient	1.0000multiplexer slope coefficient	1.0000fibre end	0.00T internal ref (°C)	29.12T ext. ref 1 (°C)	-0.28T ext. ref 2 (°C)	23.52length (m)	temperature (°C)	Stokes	anti-Stokes-747.200	800.000	0.054	0.159
-746.185	-54.401	-0.325	0.148
-745.171	-2.883	-0.164	-0.115
-744.156	-87.607	0.119	-0.036
-743.142	-144.622	0.342	0.032
-742.127	-200.000	0.002	0.218
-741.112	111.293	0.145	0.176
-740.098	127.765	-0.121	-0.155
-739.083	303.517	0.068	-0.127
-738.069	-84.019	-0.361	-0.115
-737.054	-45.207	-0.014	-0.007
-736.039	-108.042	-0.265	-0.058
-735.025	-119.249	0.249	-0.044
-734.010	10.201	-0.212	0.162
-732.996	-156.918	-0.577	-0.036
-731.981	-133.133	-0.395	0.050
-730.966	-156.423	-0.210	0.013
-729.952	182.924	0.099	-0.146
-728.937	-116.702	-0.136	-0.025
-727.923	-58.943	-0.363	-0.158
-726.908	69.897	-0.266	-0.275
-725.894	2.056	-0.298	0.216
-724.879	-181.035	0.187	-0.004
-723.864	-200.000	-0.016	0.098
-722.850	100.509	-0.212	-0.248
-721.835	-76.937	-0.248	-0.087
-720.821	-85.826	-0.273	0.085
-719.806	152.332	0.029	0.039
-718.791	372.156	-0.109	-0.223
-717.777	-98.277	-0.366	-0.094
-716.762	800.000	0.067	0.231
-715.748	-146.192	-0.308	-0.027
-714.733	-200.000	0.005	-0.056
-713.718	800.000	-0.018	-0.067
-712.704	107.580	-0.205	-0.245
-711.689	-123.926	0.186	0.029
-710.675	800.000	0.047	-0.158
-709.660	-84.100	-0.322	-0.103
-708.645	-200.000	0.019	0.165
-707.631	-34.806	0.131	0.072
-706.616	93.464	0.125	0.142
-705.602	800.000	-0.030	0.127
-704.587	73.945	0.204	-0.215
-703.572	-56.165	-0.503	-0.225
-702.558	116.891	0.210	-0.259
-701.543	-199.148	-0.123	-0.001
-700.529	19.795	0.096	0.078
-699.514	-200.000	0.017	0.192
-698.499	-116.493	0.274	0.051
-697.485	-2.897	0.113	-0.079
-696.470	800.000	0.077	0.220
-695.456	156.621	-0.077	-0.107
-694.441	274.707	-0.070	-0.125
-693.426	564.496	0.136	-0.332
-692.412	273.328	-0.098	-0.175
-691.397	-200.000	0.019	-0.171
-690.383	-85.232	-0.265	-0.083
-689.368	128.890	0.167	0.213
-688.354	526.146	0.091	-0.216
-687.339	217.162	0.170	-0.271
-686.324	-43.246	-0.320	0.163
-685.310	-200.000	-0.020	0.156
-684.295	800.000	0.053	0.154
-683.281	58.956	-0.113	0.111
-682.266	-200.000	-0.012	0.102
-681.251	-114.701	-0.379	0.073
-680.237	-1.327	-0.261	-0.185
-679.222	60.325	0.201	0.200
-678.208	55.833	0.148	-0.144
-677.193	285.138	-0.118	-0.213
-676.178	47.286	0.170	-0.159
-675.164	-37.636	0.073	-0.039
-674.149	-141.608	0.419	-0.042
-673.135	-200.000	0.037	0.225
-672.120	-171.882	0.112	0.004
-671.105	-200.000	0.006	0.346
-670.091	145.989	0.186	-0.250
-669.076	-89.787	0.317	0.093
-668.062	-60.227	-0.210	0.090
-667.047	-200.000	0.023	0.353
-666.032	-113.550	0.324	0.064
-665.018	800.000	-0.111	-0.317
-664.003	-200.000	-0.076	-0.605
-662.989	-200.000	0.007	-0.166
-661.974	521.368	-0.225	-0.530
-660.959	393.725	-0.054	0.113
-659.945	-64.485	-0.250	0.102
-658.930	-35.384	0.194	-0.106
-657.916	203.061	0.181	-0.281
-656.901	739.810	0.264	0.711
-655.886	800.000	-0.138	0.393
-654.872	-200.000	-0.038	0.200
-653.857	119.936	-0.061	0.076
-652.843	800.000	0.093	0.327
-651.828	74.676	0.157	-0.166
-650.814	17.110	-0.239	-0.190
-649.799	62.512	-0.238	0.239
-648.784	270.237	0.175	-0.308
-647.770	800.000	0.070	0.249
-646.755	246.095	0.093	-0.158
-645.741	326.771	0.151	0.291
-644.726	-0.161	0.142	-0.101
-643.711	-109.413	-0.273	-0.058
-642.697	109.685	-0.260	0.313
-641.682	46.893	0.086	0.080
-640.668	237.432	-0.166	-0.276
-639.653	-58.134	-0.091	-0.040
-638.638	-200.000	-0.058	0.300
-637.624	800.000	-0.051	-0.164
-636.609	-22.539	-0.191	0.116
-635.595	12.931	0.237	0.184
-634.580	-132.513	-0.122	-0.016
-633.565	27.620	-0.197	-0.166
-632.551	-200.000	-0.080	-0.430
-631.536	-13.182	-0.180	-0.117
-630.522	80.332	0.142	0.153
-629.507	78.585	-0.121	0.130
-628.492	-173.199	0.080	-0.002
-627.478	800.000	0.046	-0.189
-626.463	-200.000	0.018	0.287
-625.449	800.000	0.034	-0.101
-624.434	-13.899	0.209	0.135
-623.419	120.979	-0.159	0.198
-622.405	800.000	-0.077	-0.231
-621.390	-27.718	0.098	0.057
-620.376	-200.000	-0.001	0.167
-619.361	87.967	0.052	0.057
-618.346	-200.000	-0.017	-0.212
-617.332	-91.231	-0.279	0.080
-616.317	-141.915	-0.223	-0.022
-615.303	-88.367	0.206	-0.062
-614.288	800.000	0.039	-0.140
-613.273	-58.808	0.197	-0.085
-612.259	470.183	-0.033	0.074
-611.244	380.008	0.107	0.219
-610.230	602.334	0.071	-0.177
-609.215	-42.295	0.084	-0.043
-608.201	800.000	0.067	0.278
-607.186	209.775	-0.124	-0.195
-606.171	800.000	-0.043	-0.134
-605.157	-155.614	0.163	0.010
-604.142	-200.000	0.021	-0.201
-603.128	-69.555	0.121	-0.046
-602.113	-44.043	-0.154	-0.078
-601.098	-88.666	-0.172	-0.051
-600.084	-92.125	-0.301	0.085
-599.069	-131.881	-0.316	0.041
-598.055	800.000	0.068	-0.221
-597.040	-74.483	0.083	0.030
-596.025	0.630	-0.184	-0.132
-595.011	364.455	-0.054	-0.108
-593.996	98.172	0.283	-0.326
-592.982	261.387	0.062	-0.108
-591.967	311.681	-0.175	-0.329
-590.952	143.342	-0.140	-0.186
-589.938	503.883	-0.141	-0.326
-588.923	-60.364	0.230	-0.098
-587.909	-143.567	0.190	0.018
-586.894	312.790	0.089	-0.168
-585.879	-123.326	0.213	-0.034
-584.865	388.859	-0.064	-0.133
-583.850	-166.504	0.172	-0.007
-582.836	197.311	0.088	0.134
-581.821	37.146	0.047	-0.042
-580.806	427.750	-0.109	-0.236
-579.792	-200.000	0.000	0.015
-578.777	31.171	0.235	-0.201
-577.763	40.976	-0.309	-0.279
-576.748	-104.005	0.438	0.102
-575.733	800.000	0.074	0.295
-574.719	50.950	-0.326	0.309
-573.704	228.619	-0.046	0.074
-572.690	168.791	-0.154	-0.220
-571.675	-194.105	0.080	-0.001
-570.661	-83.857	-0.235	0.075
-569.646	-107.769	-0.125	0.027
-568.631	176.426	0.118	-0.171
-567.617	-200.000	0.007	-0.175
-566.602	-179.003	-0.445	-0.010
-565.588	-166.853	-0.428	-0.018
-564.573	-200.000	0.043	0.223
-563.558	-52.094	-0.128	-0.059
-562.544	66.233	-0.016	-0.016
-561.529	318.061	-0.056	-0.106
-560.515	800.000	0.039	0.131
-559.500	337.353	0.023	-0.045
-558.485	-145.346	-0.421	-0.038
-557.471	60.568	-0.095	0.094
-556.456	-125.576	-0.167	0.025
-555.442	-99.663	0.215	0.054
-554.427	-200.000	0.031	0.230
-553.412	-122.231	-0.170	-0.028
-552.398	-90.524	0.136	0.039
-551.383	-55.486	0.236	-0.106
-550.369	800.000	-0.062	-0.256
-549.354	3.194	-0.047	0.034
-548.339	-50.656	-0.165	0.077
-547.325	166.432	-0.158	0.223
-546.310	25.076	-0.334	0.277
-545.296	-77.368	-0.106	-0.037
-544.281	-75.288	-0.250	0.089
-543.266	-69.243	-0.150	0.057
-542.252	519.292	-0.053	0.124
-541.237	146.570	0.166	-0.223
-540.223	-198.648	0.175	0.001
-539.208	471.469	0.144	-0.324
-538.193	-200.000	-0.036	-0.386
-537.179	-147.520	-0.421	0.035
-536.164	10.577	-0.232	0.177
-535.150	133.710	-0.165	-0.213
-534.135	-200.000	0.023	-0.277
-533.121	-89.522	0.238	0.070
-532.106	800.000	0.079	0.251
-531.091	65.747	-0.109	-0.110
-530.077	-200.000	0.014	-0.078
-529.062	-74.076	0.319	0.115
-528.048	0.984	-0.085	-0.061
-527.033	136.467	0.193	0.251
-526.018	-37.129	-0.113	-0.061
-525.004	-57.028	-0.406	-0.178
-523.989	-90.737	0.230	-0.066
-522.975	349.514	0.115	-0.227
-521.960	-153.748	-0.077	-0.005
-520.945	-7.614	-0.071	0.048
-519.931	158.569	0.031	-0.043
-518.916	24.755	0.228	0.188
-517.902	-200.000	0.062	-0.420
-516.887	119.310	0.130	-0.160
-515.872	-79.804	0.270	0.091
-514.858	-77.011	0.065	-0.023
-513.843	184.010	0.035	0.051
-512.829	-152.299	0.374	-0.027
-511.814	308.401	-0.156	-0.290
-510.799	-200.000	-0.032	-0.307
-509.785	138.125	-0.169	0.221
-508.770	275.311	-0.143	0.252
-507.756	-59.145	-0.021	-0.009
-506.741	11.848	-0.286	0.219
-505.726	113.578	0.050	0.060
-504.712	287.422	-0.201	0.362
-503.697	800.000	0.032	-0.091
-502.683	678.453	0.063	-0.164
-501.668	-17.471	-0.146	-0.092
-500.653	326.648	0.156	0.298
-499.639	-71.298	-0.056	0.021
-498.624	-31.316	-0.268	0.151
-497.610	-61.464	0.367	-0.154
-496.595	-200.000	-0.029	-0.131
-495.581	526.539	0.062	-0.145
-494.566	-120.244	-0.152	0.026
-493.551	-72.111	0.264	0.098
-492.537	184.139	-0.097	0.144
-491.522	89.382	-0.207	-0.230
-490.508	-84.016	0.155	0.049
-489.493	800.000	-0.104	0.321
-488.478	170.086	-0.176	0.251
-487.464	338.538	-0.069	0.134
-486.449	52.845	0.108	-0.103
-485.435	-200.000	-0.042	0.210
-484.420	-200.000	-0.019	-0.172
-483.405	357.963	0.189	-0.375
-482.391	800.000	0.049	-0.210
-481.376	-41.339	-0.147	-0.075
-480.362	-133.295	0.368	-0.046
-479.347	-200.000	-0.007	-0.157
-478.332	346.166	0.128	0.251
-477.318	582.373	0.034	-0.083
-476.303	-130.334	0.098	-0.013
-475.289	-200.000	-0.064	-0.281
-474.274	33.475	-0.046	-0.040
-473.259	-100.174	-0.490	0.121
-472.245	228.226	-0.159	0.257
-471.230	-86.516	-0.079	-0.024
-470.216	190.448	0.078	-0.116
-469.201	-25.474	-0.070	-0.041
-468.186	38.654	0.107	0.095
-467.172	-199.843	0.107	0.001
-466.157	-116.755	0.196	0.036
-465.143	155.273	0.115	0.157
-464.128	-40.898	-0.218	-0.112
-463.113	-152.257	-0.051	0.004
-462.099	800.000	0.081	0.338
-461.084	697.448	-0.019	0.050
-460.070	-200.000	-0.029	0.233
-459.055	-138.999	-0.471	-0.051
-458.040	-200.000	0.045	-0.355
-457.026	-129.779	-0.224	-0.031
-456.011	-138.687	-0.190	0.021
-454.997	-82.590	-0.165	0.053
-453.982	-200.000	-0.052	-0.237
-452.968	293.287	0.148	0.268
-451.953	48.867	0.083	0.078
-450.938	-146.558	0.195	0.017
-449.924	14.660	0.304	0.237
-448.909	4.551	0.273	0.199
-447.895	53.115	-0.021	0.020
-446.880	-109.458	0.315	-0.066
-445.865	182.141	0.108	-0.159
-444.851	-182.487	-0.377	-0.007
-443.836	-71.555	-0.168	0.062
-442.822	-200.000	-0.056	0.252
-441.807	-21.991	-0.109	-0.066
-440.792	65.826	0.119	0.120
-439.778	56.852	-0.113	-0.109
-438.763	-200.000	0.006	-0.047
-437.749	215.475	-0.100	0.158
-436.734	469.684	0.028	0.061
-435.719	435.089	-0.104	0.224
-434.705	-10.761	0.277	-0.182
-433.690	8.389	0.154	0.115
-432.676	-200.000	-0.046	-0.214
-431.661	455.132	0.038	-0.083
-430.646	-51.559	0.193	-0.089
-429.632	96.882	0.066	-0.075
-428.617	656.800	0.052	-0.133
-427.603	-37.378	-0.238	-0.126
-426.588	-200.000	0.004	-0.058
-425.573	-200.000	0.032	-0.305
-424.559	4.030	-0.106	0.077
-423.544	-200.000	-0.014	0.189
-422.530	53.511	0.097	0.092
-421.515	-83.950	0.113	-0.036
-420.500	-105.033	-0.134	-0.031
-419.486	347.024	0.159	0.310
-418.471	800.000	-0.023	0.089
-417.457	-117.236	-0.156	-0.028
-416.442	91.802	0.215	-0.240
-415.428	-29.822	0.266	-0.151
-414.413	800.000	0.059	0.177
-413.398	-50.743	0.180	-0.084
-412.384	47.070	-0.075	-0.070
-411.369	-69.594	-0.249	0.095
-410.355	-109.502	0.412	-0.086
-409.340	-200.000	0.016	-0.166
-408.325	54.590	0.041	-0.039
-407.311	-200.000	-0.008	-0.177
-406.296	62.366	-0.198	0.197
-405.282	800.000	-0.079	-0.282
-404.267	-63.190	-0.199	-0.082
-403.252	-103.348	0.159	-0.037
-402.238	-200.000	0.019	-0.221
-401.223	717.701	0.078	0.207
-400.209	-27.910	-0.174	-0.100
-399.194	-200.000	-0.031	0.276
-398.179	166.298	0.214	0.301
-397.165	800.000	-0.071	-0.259
-396.150	79.165	-0.237	-0.252
-395.136	-200.000	-0.024	0.112
-394.121	-51.822	-0.147	-0.068
-393.106	604.585	-0.073	-0.179
-392.092	219.148	0.131	0.208
-391.077	209.211	-0.150	-0.233
-390.063	105.693	0.102	0.120
-389.048	83.235	0.206	0.223
-388.033	-151.925	0.249	0.018
-387.019	72.212	-0.254	-0.262
-386.004	-41.716	0.196	0.100
-384.990	-200.000	0.009	-0.060
-383.975	800.000	-0.067	0.208
-382.960	-102.967	0.079	-0.019
-381.946	-50.269	0.123	0.058
-380.931	800.000	0.063	-0.242
-379.917	-155.181	0.189	0.012
-378.902	-144.580	-0.108	-0.010
-377.888	-53.979	-0.147	0.066
-376.873	0.651	-0.234	-0.166
-375.858	24.012	0.140	-0.115
-374.844	-144.263	-0.179	0.017
-373.829	800.000	-0.044	-0.187
-372.815	83.079	0.005	-0.005
-371.800	800.000	-0.047	-0.189
-370.785	-181.418	-0.217	-0.004
-369.771	-99.542	-0.217	-0.054
-368.756	-48.155	0.228	-0.109
-367.742	-90.331	-0.133	0.038
-366.727	25.203	0.161	-0.133
-365.712	35.170	0.184	0.160
-364.698	-40.383	-0.299	-0.154
-363.683	-200.000	-0.035	0.283
-362.669	365.668	-0.060	0.119
-361.654	-200.000	0.002	0.159
-360.639	800.000	-0.008	0.024
-359.625	43.129	-0.078	0.071
-358.610	-89.041	0.265	-0.078
-357.596	800.000	0.020	-0.074
-356.581	-106.563	-0.250	0.055
-355.566	800.000	-0.056	0.227
-354.552	-28.783	-0.232	-0.132
-353.537	-42.347	-0.182	0.092
-352.523	-7.811	0.161	0.108
-351.508	-17.282	-0.180	-0.112
-350.493	-54.387	-0.202	0.091
-349.479	-35.416	-0.195	-0.105
-348.464	522.967	0.160	0.373
-347.450	800.000	-0.124	-0.439
-346.435	-94.852	-0.181	0.049
-345.420	584.932	0.042	-0.102
-344.406	-200.000	-0.003	0.057
-343.391	-160.381	-0.375	-0.020
-342.377	-112.084	0.132	0.026
-341.362	-156.045	-0.125	0.008
-340.348	-200.000	0.003	-0.076
-339.333	33.229	0.279	0.240
-338.318	800.000	0.019	0.055
-337.304	44.927	0.208	0.190
-336.289	35.689	0.306	0.266
-335.275	21.583	-0.080	-0.064
-334.260	34.009	-0.112	-0.097
-333.245	-97.647	0.174	-0.045
-332.231	-22.616	-0.537	0.322
-331.216	162.063	0.183	0.255
-330.202	-10.023	-0.127	0.083
-329.187	-200.000	-0.030	-0.204
-328.172	73.440	0.105	-0.109
-327.158	144.592	0.194	-0.257
-326.143	36.483	-0.139	0.122
-325.129	-115.902	0.059	-0.011
-324.114	445.173	0.185	-0.403
-323.099	-126.168	0.321	-0.048
-322.085	40.538	-0.239	0.214
-321.070	-200.000	0.016	0.169
-320.056	-16.264	0.220	0.138
-319.041	-200.000	-0.009	-0.178
-318.026	-91.021	-0.166	0.047
-317.012	785.856	-0.085	0.230
-315.997	483.662	0.099	0.224
-314.983	86.360	-0.023	0.025
-313.968	-134.465	0.235	0.028
-312.953	-200.000	-0.026	0.312
-311.939	-190.263	-0.280	0.003
-310.924	-200.000	-0.000	0.007
-309.910	-94.959	-0.172	0.046
-308.895	263.544	0.171	-0.293
-307.880	325.017	0.055	-0.103
-306.866	263.945	0.253	0.435
-305.851	310.177	-0.037	0.068
-304.837	434.742	0.019	-0.041
-303.822	27.872	0.197	0.164
-302.807	-24.338	0.393	0.232
-301.793	-132.809	-0.211	-0.027
-300.778	-200.000	-0.005	0.140
-299.764	6.624	0.361	-0.265
-298.749	-200.000	-0.042	-0.319
-297.735	-69.929	0.179	-0.067
-296.720	800.000	-0.098	0.289
-295.705	51.333	-0.186	0.175
-294.691	181.544	-0.374	-0.543
-293.676	-200.000	-0.045	-0.337
-292.662	210.775	-0.038	-0.059
-291.647	171.013	0.157	-0.222
-290.632	54.333	-0.038	0.036
-289.618	161.834	-0.138	-0.192
-288.603	347.510	-0.080	-0.155
-287.589	95.257	0.194	0.218
-286.574	-2.698	-0.268	0.185
-285.559	800.000	0.071	0.206
-284.545	-34.048	0.124	0.068
-283.530	-119.306	0.153	0.026
-282.516	143.175	0.163	0.215
-281.501	-58.672	0.393	0.168
-280.486	227.088	0.163	0.261
-279.472	-9.028	0.243	-0.161
-278.457	320.345	-0.112	0.210
-277.443	-190.837	0.364	0.004
-276.428	71.389	-0.056	-0.057
-275.413	-188.251	-0.172	0.002
-274.399	-89.750	0.349	0.101
-273.384	-55.522	-0.181	-0.080
-272.370	582.415	0.146	-0.354
-271.355	68.732	-0.175	0.177
-270.340	-161.554	0.069	0.004
-269.326	-93.697	-0.116	-0.032
-268.311	28.006	-0.291	-0.243
-267.297	791.519	0.105	0.285
-266.282	-19.049	-0.218	0.134
-265.267	800.000	-0.086	0.258
-264.253	280.269	-0.057	0.101
-263.238	-29.933	-0.303	0.170
-262.224	118.090	0.086	0.105
-261.209	-39.702	0.127	-0.066
-260.195	170.221	-0.079	-0.112
-259.180	129.324	-0.021	0.026
-258.165	285.580	0.082	0.146
-257.151	-105.037	0.313	-0.071
-256.136	-163.035	-0.144	-0.007
-255.122	-200.000	0.019	0.129
-254.107	-115.462	0.269	-0.050
-253.092	-51.497	-0.248	0.114
-252.078	-159.103	-0.265	0.015
-251.063	-200.000	-0.050	0.272
-250.049	-143.054	0.258	-0.025
-249.034	-42.042	0.105	0.053
-248.019	34.832	-0.199	-0.172
-247.005	-9.889	-0.236	0.155
-245.990	185.580	0.215	-0.316
-244.976	57.393	0.169	-0.163
-243.961	-155.488	0.321	0.020
-242.946	14.225	0.173	-0.133
-241.932	800.000	-0.093	-0.262
-240.917	-12.095	0.231	0.149
-239.903	-200.000	-0.031	-0.160
-238.888	-200.000	0.020	0.092
-237.873	-137.290	0.195	-0.022
-236.859	-5.773	0.339	-0.229
-235.844	102.751	0.225	-0.260
-234.830	301.291	-0.134	-0.243
-233.815	117.112	-0.270	-0.327
-232.800	-200.000	-0.010	-0.333
-231.786	-77.744	0.322	-0.110
-230.771	520.611	-0.060	0.140
-229.757	138.010	0.173	0.223
-228.742	-101.252	0.306	0.074
-227.727	-99.999	0.185	0.046
-226.713	297.022	0.166	-0.300
-225.698	-87.552	0.172	0.051
-224.684	-81.087	-0.136	0.044
-223.669	593.032	-0.197	0.480
-222.655	-26.521	0.139	-0.080
-221.640	800.000	-0.056	0.216
-220.625	43.438	-0.280	0.253
-219.611	-200.000	0.014	0.102
-218.596	-200.000	-0.020	0.311
-217.582	-109.898	-0.023	0.005
-216.567	-93.374	0.270	0.074
-215.552	-58.077	-0.089	0.038
-214.538	108.733	-0.103	-0.121
-213.523	168.649	0.006	0.008
-212.509	-37.070	0.206	-0.109
-211.494	-200.000	0.029	0.277
-210.479	37.488	-0.285	-0.249
-209.465	291.416	0.149	-0.267
-208.450	-200.000	0.020	-0.111
-207.436	-162.291	-0.229	0.011
-206.421	-200.000	0.007	0.111
-205.406	-28.896	-0.173	0.098
-204.392	-168.199	-0.239	0.009
-203.377	800.000	-0.081	0.260
-202.363	192.923	0.119	0.177
-201.348	800.000	0.089	-0.285
-200.333	8.459	-0.085	0.063
-199.319	800.000	0.118	-0.425
-198.304	-200.000	-0.032	-0.259
-197.290	-200.000	0.060	0.268
-196.275	-139.615	0.337	-0.035
-195.260	-150.198	0.145	0.011
-194.246	-113.247	0.158	0.031
-193.231	744.606	-0.076	-0.203
-192.217	515.784	-0.189	-0.435
-191.202	-200.000	-0.021	0.131
-190.187	709.966	-0.091	-0.236
-189.173	270.188	-0.087	0.151
-188.158	-34.993	-0.524	0.282
-187.144	30.425	0.268	0.226
-186.129	19.006	0.157	0.124
-185.114	267.634	-0.060	-0.104
-184.100	60.977	-0.186	-0.181
-183.085	-125.044	-0.235	0.036
-182.071	-200.000	0.016	0.365
-181.056	538.049	-0.050	-0.116
-180.042	-123.919	-0.280	-0.043
-179.027	632.525	-0.139	0.347
-178.012	-68.979	0.251	0.095
-176.998	-63.657	0.191	-0.077
-175.983	225.384	0.142	0.226
-174.969	-103.352	0.172	-0.040
-173.954	-108.010	-0.149	0.032
-172.939	-141.942	0.377	0.037
-171.925	800.000	-0.109	0.303
-170.910	-200.000	-0.030	-0.166
-169.896	-96.131	0.229	-0.060
-168.881	-85.000	-0.397	-0.123
-167.866	-44.181	0.252	0.124
-166.852	-200.000	0.020	-0.409
-165.837	657.691	-0.088	0.223
-164.823	30.384	0.182	0.153
-163.808	126.400	0.114	0.143
-162.793	-55.936	0.089	-0.039
-161.779	-80.201	0.189	-0.062
-160.764	-28.268	-0.205	0.117
-159.750	-61.818	0.432	-0.178
-158.735	-200.000	-0.052	0.244
-157.720	203.950	-0.143	0.218
-156.706	-130.276	0.229	-0.031
-155.691	358.042	0.101	0.198
-154.677	60.640	0.079	0.077
-153.662	-144.542	0.315	0.029
-152.647	-89.705	0.052	0.015
-151.633	108.538	-0.190	0.223
-150.618	-90.919	-0.394	0.111
-149.604	-81.907	-0.190	-0.061
-148.589	507.458	0.094	-0.215
-147.574	800.000	0.017	0.069
-146.560	-137.948	-0.404	-0.044
-145.545	800.000	-0.062	0.193
-144.531	-200.000	0.042	0.547
-143.516	13.039	-0.120	-0.091
-142.502	800.000	-0.036	-0.102
-141.487	800.000	0.049	0.159
-140.472	-200.000	-0.053	0.334
-139.458	-200.000	-0.017	-0.240
-138.443	-2.664	-0.171	-0.118
-137.429	-46.578	0.285	0.137
-136.414	222.079	0.236	0.373
-135.399	16.343	0.158	0.123
-134.385	109.799	-0.314	0.370
-133.370	37.642	0.123	0.108
-132.356	-53.013	-0.105	-0.047
-131.341	-57.960	-0.008	0.004
-130.326	46.032	0.288	0.262
-129.312	-90.727	0.023	-0.007
-128.297	-200.000	-0.001	-0.033
-127.283	400.351	-0.067	-0.137
-126.268	-200.000	0.011	-0.152
-125.253	61.317	-0.116	0.114
-124.239	9.275	0.026	0.019
-123.224	30.002	-0.307	-0.257
-122.210	228.151	0.206	0.329
-121.195	800.000	-0.048	0.144
-120.180	337.693	0.026	-0.050
-119.166	242.370	0.212	0.349
-118.151	-200.000	0.003	0.168
-117.137	59.660	0.020	0.019
-116.122	49.386	0.174	0.161
-115.107	800.000	-0.037	0.145
-114.093	-113.593	-0.011	0.002
-113.078	761.023	-0.097	-0.259
-112.064	-200.000	0.032	0.255
-111.049	-134.305	-0.178	0.021
-110.034	121.392	-0.009	-0.011
-109.020	800.000	0.031	0.095
-108.005	-95.571	-0.370	-0.097
-106.991	-200.000	0.072	0.332
-105.976	-200.000	0.024	0.242
-104.962	98.602	-0.170	0.193
-103.947	181.012	-0.071	-0.103
-102.932	-87.117	0.217	0.065
-101.918	-18.808	-0.065	0.040
-100.903	123.147	-0.158	-0.194
-99.889	73.789	-0.082	0.084
-98.874	133.280	0.085	0.107
-97.859	-47.112	0.017	0.008
-96.845	358.839	-0.007	0.014
-95.830	-46.630	-0.058	-0.028
-94.816	-83.216	-0.512	0.161
-93.801	26.440	0.189	-0.155
-92.786	-200.000	-0.001	-0.089
-91.772	-20.676	0.185	0.112
-90.757	800.000	0.095	0.320
-89.743	348.618	-0.197	-0.381
-88.728	-200.000	-0.031	0.417
-87.713	-171.838	0.498	0.016
-86.699	800.000	-0.075	-0.255
-85.684	-88.284	-0.206	0.060
-84.670	-68.414	-0.349	0.133
-83.655	8.481	0.186	0.137
-82.640	158.192	0.210	0.285
-81.626	355.997	0.022	-0.042
-80.611	21.426	0.117	0.093
-79.597	-200.000	-0.003	-0.209
-78.582	32.080	0.265	0.224
-77.567	32.481	0.226	-0.192
-76.553	673.876	0.082	0.208
-75.538	800.000	0.049	0.175
-74.524	554.405	-0.171	0.404
-73.509	-176.873	0.297	0.007
-72.494	-200.000	-0.026	0.557
-71.480	-126.721	0.169	-0.025
-70.465	190.649	-0.138	0.203
-69.451	1.931	0.115	-0.081
-68.436	-51.964	0.055	0.025
-67.422	-200.000	0.062	-0.332
-66.407	-115.594	0.369	-0.068
-65.392	-200.000	-0.025	-0.132
-64.378	423.574	-0.130	-0.274
-63.363	146.772	0.288	0.380
-62.349	800.000	0.052	0.185
-61.334	-47.608	-1.149	-0.546
-60.319	185.701	0.442	0.643
-59.305	524.259	-0.446	-1.029
-58.290	280.282	0.548	0.960
-57.276	338.957	0.791	1.509
-56.261	-200.000	107.063	626.521
-55.246	523.172	1513.215	3482.902
-54.232	176.170	2703.792	3845.893
-53.217	110.921	2183.152	2573.999
-52.203	39.845	1705.921	1499.852
-51.188	32.315	1518.722	1284.038
-50.173	29.853	1491.941	1244.801
-49.159	50.909	1548.418	1436.918
-48.144	51.005	1564.707	1452.637
-47.130	32.413	1520.556	1286.054
-46.115	29.455	1505.538	1253.247
-45.100	29.235	1502.239	1248.956
-44.086	29.274	1499.753	1247.108
-43.071	29.150	1497.775	1244.573
-42.057	29.129	1495.891	1242.817
-41.042	29.027	1495.260	1241.558
-40.027	29.078	1493.480	1240.372
-39.013	29.104	1491.694	1239.015
-37.998	28.973	1490.738	1237.292
-36.984	29.024	1489.456	1236.519
-35.969	29.091	1487.925	1235.652
-34.954	29.017	1486.601	1234.008
-33.940	29.108	1484.738	1233.020
-32.925	29.142	1483.720	1232.348
-31.911	29.164	1482.376	1231.334
-30.896	29.168	1481.359	1230.470
-29.881	29.116	1480.227	1229.130
-28.867	29.188	1478.569	1228.184
-27.852	29.176	1477.625	1227.272
-26.838	29.140	1475.947	1225.589
-25.823	29.249	1474.601	1225.147
-24.809	29.212	1472.994	1223.518
-23.794	29.206	1471.894	1222.516
-22.779	29.133	1470.474	1220.804
-21.765	29.193	1469.370	1220.238
-20.750	29.197	1468.721	1219.676
-19.736	29.219	1467.000	1218.342
-18.721	29.210	1466.037	1217.437
-17.706	29.068	1465.041	1215.627
-16.692	29.160	1463.801	1215.152
-15.677	29.137	1462.933	1214.233
-14.663	29.122	1461.739	1213.095
-13.648	29.261	1460.359	1212.816
-12.633	29.137	1459.702	1211.410
-11.619	29.072	1459.298	1210.599
-10.604	29.010	1458.386	1209.382
-9.590	29.128	1457.333	1209.240
-8.575	29.177	1456.175	1208.549
-7.560	29.068	1455.492	1207.219
-6.546	29.109	1454.826	1206.891
-5.531	29.016	1454.281	1205.780
-4.517	29.034	1453.300	1205.037
-3.502	29.108	1452.276	1204.622
-2.487	29.110	1450.924	1203.466
-1.473	29.083	1450.217	1202.655
-0.458	29.098	1449.036	1201.726
0.556	26.775	1439.486	1190.379
1.571	24.018	1414.396	1151.713
2.586	20.830	1355.044	1083.487
3.600	19.410	1274.020	1010.297
4.615	18.307	1229.071	968.333
5.629	15.721	1173.667	910.613
6.644	7.607	1089.989	804.660
7.659	0.871	1049.875	742.031
8.673	-0.135	1044.101	732.975
9.688	-0.291	1041.178	730.099
10.702	-0.325	1039.478	728.681
11.717	-0.389	1037.488	726.910
12.731	2.692	1040.530	743.939
13.746	11.420	1052.818	795.354
14.761	18.332	1062.060	836.135
15.775	20.220	1063.155	846.142
16.790	20.303	1062.968	846.322
17.804	20.300	1062.007	845.470
18.819	20.139	1061.341	844.077
19.834	20.160	1060.815	843.687
20.848	20.149	1060.810	843.556
21.863	20.152	1060.508	843.254
22.877	20.247	1059.830	843.102
23.892	20.197	1059.287	842.354
24.907	20.076	1058.736	841.255
25.921	20.236	1057.301	840.814
26.936	20.248	1056.692	840.314
27.950	20.196	1055.575	839.102
28.965	20.227	1054.268	838.138
29.980	19.947	1052.909	835.631
30.994	20.008	1051.267	834.547
32.009	20.250	1050.431	834.973
33.023	20.313	1049.803	834.704
34.038	20.091	1048.582	832.595
35.053	20.038	1047.804	831.647
36.067	20.089	1047.578	831.640
37.082	20.323	1046.378	831.734
38.096	20.362	1045.352	831.030
39.111	20.472	1044.988	831.196
40.126	20.561	1044.252	830.962
41.140	20.479	1042.629	829.205
42.155	20.226	1041.186	826.780
43.169	19.863	1040.041	824.066
44.184	19.938	1038.833	823.397
45.199	19.870	1038.037	822.368
46.213	19.927	1036.822	821.604
47.228	19.861	1035.969	820.542
48.242	20.110	1034.652	820.605
49.257	20.018	1034.195	819.735
50.271	20.150	1033.088	819.408
51.286	20.254	1032.766	819.572
52.301	20.205	1032.145	818.778
53.315	20.331	1030.890	818.302
54.330	20.240	1030.053	817.135
55.344	20.102	1029.182	815.723
56.359	20.223	1028.244	815.476
57.374	20.268	1027.323	814.887
58.388	20.125	1025.956	813.060
59.403	19.970	1025.952	812.255
60.417	20.067	1024.995	811.881
61.432	19.821	1024.102	809.951
62.447	19.710	1023.709	809.048
63.461	20.079	1022.814	809.993
64.476	20.176	1021.677	809.477
65.490	20.069	1021.179	808.509
66.505	20.002	1020.139	807.303
67.520	20.009	1019.233	806.546
68.534	19.975	1018.540	805.771
69.549	20.077	1017.325	805.213
70.563	19.635	1016.332	802.301
71.578	19.603	1015.016	801.041
72.593	19.722	1014.314	800.968
73.607	19.717	1012.743	799.635
74.622	19.612	1012.288	798.718
75.636	19.754	1012.272	799.291
76.651	19.903	1011.611	799.388
77.666	19.945	1010.095	798.313
78.680	19.785	1008.789	796.473
79.695	19.832	1008.818	796.643
80.709	19.955	1008.196	796.648
81.724	19.937	1007.473	795.923
82.739	19.851	1006.606	794.772
83.753	19.918	1005.538	794.167
84.768	20.234	1004.719	794.899
85.782	20.384	1004.348	795.222
86.797	20.501	1003.628	795.114
87.812	20.498	1002.336	794.009
88.826	20.396	1001.144	792.526
89.841	20.394	1000.880	792.239
90.855	20.502	999.774	791.785
91.870	20.513	998.935	791.100
92.884	20.496	998.154	790.338
93.899	20.444	997.140	789.228
94.914	20.368	995.913	787.842
95.928	20.483	995.744	788.161
96.943	20.333	995.187	786.969
97.957	20.218	993.780	785.266
98.972	19.981	992.510	783.122
99.987	19.741	991.352	781.055
101.001	19.813	990.725	780.814
102.016	20.109	990.864	782.193
103.030	20.189	989.544	781.440
104.045	20.049	988.302	779.763
105.060	19.962	986.983	778.260
106.074	19.830	985.729	776.611
107.089	19.895	984.760	776.071
108.103	20.240	984.831	777.603
109.118	20.325	983.957	777.226
110.133	19.999	982.625	774.645
111.147	20.047	981.504	773.908
112.162	19.885	980.194	772.084
113.176	19.665	979.402	770.413
114.191	19.835	978.283	770.223
115.206	20.021	977.157	770.093
116.220	19.644	976.011	767.449
117.235	19.530	975.123	766.176
118.249	19.909	974.219	767.076
119.264	19.787	973.191	765.660
120.279	19.722	972.316	764.618
121.293	19.651	971.669	763.727
122.308	19.703	971.154	763.484
123.322	19.800	970.141	763.049
124.337	19.729	969.185	761.914
125.352	19.722	967.578	760.554
126.366	19.258	966.183	757.350
127.381	19.120	963.956	754.932
128.395	19.515	964.333	756.895
129.410	20.152	963.614	759.053
130.424	20.351	962.925	759.315
131.439	20.241	961.651	757.763
132.454	20.122	960.824	756.525
133.468	20.185	959.847	755.961
134.483	20.015	959.171	754.622
135.497	20.146	958.687	754.744
136.512	20.239	958.282	754.766
137.527	20.444	957.250	754.773
138.541	20.307	956.126	753.226
139.556	20.469	955.191	753.126
140.570	20.471	954.476	752.506
141.585	20.370	953.637	751.339
142.600	20.473	953.150	751.337
143.614	20.319	952.053	749.738
144.629	20.546	950.906	749.748
145.643	20.577	950.970	749.866
146.658	20.574	949.640	748.738
147.673	20.424	948.296	746.966
148.687	20.253	947.504	745.541
149.702	20.269	946.545	744.791
150.716	20.283	945.463	743.934
151.731	20.222	944.486	742.839
152.746	20.240	944.214	742.634
153.760	20.554	942.943	742.913
154.775	20.610	942.313	742.588
155.789	20.715	941.303	742.176
156.804	20.581	940.544	740.941
157.819	20.531	938.996	739.444
158.833	20.640	938.399	739.368
159.848	20.553	937.907	738.549
160.862	20.771	936.645	738.413
161.877	20.504	935.712	736.479
162.892	20.454	935.202	735.802
163.906	20.567	934.712	735.832
164.921	20.490	933.661	734.613
165.935	20.649	932.148	734.028
166.950	20.596	931.743	733.422
167.964	20.703	930.712	732.997
168.979	20.524	929.739	731.411
169.994	20.513	928.542	730.359
171.008	20.515	927.419	729.417
172.023	20.509	926.536	728.635
173.037	20.630	925.834	728.526
174.052	20.475	924.546	726.797
175.067	20.262	923.816	725.269
176.081	20.244	922.923	724.428
177.096	20.336	921.967	723.997
178.110	20.415	921.434	723.844
179.125	20.242	920.377	722.230
180.140	20.007	919.067	720.163
181.154	19.860	918.595	719.119
182.169	20.065	917.855	719.326
183.183	20.281	917.327	719.746
184.198	20.623	917.036	720.869
185.213	20.624	916.205	720.157
186.227	20.568	915.144	719.028
187.242	20.396	915.177	718.278
188.256	20.571	914.230	718.193
189.271	20.547	913.490	717.450
190.286	20.725	912.970	717.713
191.300	20.557	911.762	716.010
192.315	20.116	910.492	713.132
193.329	19.400	909.023	708.978
194.344	19.104	907.750	706.707
195.359	19.477	908.600	708.840
196.373	20.356	908.722	712.481
197.388	20.633	908.220	713.160
198.402	20.479	907.614	711.991
199.417	20.279	906.811	710.479
200.432	20.474	906.381	710.874
201.446	20.285	905.384	709.258
202.461	19.974	905.167	707.753
203.475	20.054	904.408	707.427
204.490	19.587	903.235	704.542
205.504	18.382	900.940	697.784
206.519	18.909	900.730	699.704
207.534	19.992	900.808	704.106
208.548	20.139	900.355	704.289
209.563	20.399	900.462	705.366
210.577	20.475	899.575	704.916
211.592	20.128	898.713	702.774
212.607	20.539	898.820	704.460
213.621	20.616	898.032	704.094
214.636	20.449	897.460	702.906
215.650	20.547	896.968	702.853
216.665	20.479	896.305	701.997
217.680	20.498	895.357	701.271
218.694	20.720	894.901	701.746
219.709	20.327	893.700	699.159
220.723	19.929	893.031	696.971
221.738	20.242	892.536	697.783
222.753	20.445	891.999	698.119
223.767	20.189	891.280	696.467
224.782	20.404	890.411	696.588
225.796	20.633	890.117	697.215
226.811	20.820	889.298	697.259
227.826	20.263	888.491	694.339
228.840	19.630	886.706	690.354
229.855	19.567	886.049	689.528
230.869	19.764	885.649	689.939
231.884	19.457	884.855	688.035
232.899	19.457	883.976	687.292
233.913	20.337	884.092	690.826
234.928	20.586	883.713	691.461
235.942	20.320	883.305	690.021
236.957	20.483	882.346	689.859
237.972	20.104	881.714	687.801
238.986	20.023	881.132	686.965
240.001	20.067	880.480	686.567
241.015	19.971	880.095	685.827
242.030	20.267	878.939	686.039
243.045	20.252	878.556	685.620
244.059	20.366	878.054	685.614
245.074	20.723	877.604	686.613
246.088	20.592	876.738	685.359
247.103	20.172	875.869	682.964
248.117	20.108	875.475	682.346
249.132	20.703	875.598	684.721
250.147	20.942	874.880	685.038
251.161	21.054	874.308	684.969
252.176	21.129	873.605	684.653
253.190	21.151	873.106	684.286
254.205	21.362	872.232	684.369
255.220	21.323	872.288	684.201
256.234	21.282	871.361	683.253
257.249	21.304	870.597	682.679
258.263	21.152	870.023	681.572
259.278	21.212	869.250	681.142
260.293	21.358	868.852	681.339
261.307	21.209	868.549	680.460
262.322	21.237	867.358	679.575
263.336	21.115	866.794	678.599
264.351	20.674	865.403	675.739
265.366	19.491	863.312	669.461
266.380	19.089	862.720	667.381
267.395	19.882	863.056	670.660
268.409	20.924	863.044	674.627
269.424	20.747	862.674	673.592
270.439	20.852	862.198	673.568
271.453	21.080	861.208	673.614
272.468	21.151	860.535	673.301
273.482	21.258	860.058	673.283
274.497	21.374	859.918	673.560
275.512	21.293	858.611	672.164
276.526	20.624	857.379	668.570
277.541	20.708	857.213	668.704
278.555	21.245	856.739	670.338
279.570	20.933	856.032	668.527
280.585	20.891	854.848	667.381
281.599	20.875	854.856	667.269
282.614	21.196	854.057	667.815
283.628	20.485	853.229	664.390
284.643	20.198	852.563	662.716
285.657	20.644	852.387	664.224
286.672	20.630	851.079	663.095
287.687	19.958	850.567	660.073
288.701	20.411	850.660	661.813
289.716	20.875	850.097	663.085
290.730	20.415	849.133	660.525
291.745	20.383	848.239	659.649
292.760	20.174	847.510	658.232
293.774	20.229	846.562	657.643
294.789	21.091	847.256	661.395
295.803	21.581	847.337	663.257
296.818	21.591	846.834	662.841
297.833	21.698	846.218	662.704
298.847	21.438	844.709	660.483
299.862	21.109	843.693	658.390
300.876	21.191	843.925	658.823
301.891	21.590	843.555	659.978
302.906	21.677	842.495	659.418
303.920	21.243	841.496	656.946
304.935	21.267	840.491	656.195
305.949	21.398	840.588	656.702
306.964	21.482	839.610	656.196
307.979	21.370	839.287	655.466
308.993	21.273	838.931	654.766
310.008	21.620	838.772	655.883
311.022	21.620	837.953	655.186
312.037	21.537	837.167	654.204
313.052	21.308	836.952	653.122
314.066	21.353	836.126	652.586
315.081	20.658	834.823	648.920
316.095	19.948	833.430	645.134
317.110	20.408	833.800	647.079
318.125	21.250	834.062	650.364
319.139	20.949	832.861	648.249
320.154	19.993	830.992	643.188
321.168	19.537	830.204	640.830
322.183	20.281	830.076	643.432
323.197	20.913	830.606	646.132
324.212	21.171	830.114	646.646
325.227	21.331	830.113	647.180
326.241	21.486	829.602	647.301
327.256	21.382	828.937	646.339
328.270	21.322	828.066	645.381
329.285	21.227	827.554	644.575
330.300	21.215	826.549	643.690
331.314	20.982	826.184	642.492
332.329	20.872	825.470	641.474
333.343	21.430	824.962	643.075
334.358	21.546	824.744	643.274
335.373	21.444	824.307	642.503
336.387	21.397	823.680	641.784
337.402	21.778	823.636	643.092
338.416	22.057	822.974	643.540
339.431	21.876	822.388	642.363
340.446	21.770	821.844	641.493
341.460	22.112	821.193	642.177
342.475	21.890	820.724	640.942
343.489	21.786	819.857	639.831
344.504	21.797	819.441	639.487
345.519	21.959	818.914	639.610
346.533	22.186	818.874	640.350
347.548	22.294	818.099	640.082
348.562	22.306	817.973	639.968
349.577	22.246	817.614	639.414
350.592	22.220	816.843	638.658
351.606	22.158	816.144	637.831
352.621	22.118	816.195	637.668
353.635	22.016	815.522	636.717
354.650	22.038	814.711	636.108
355.665	21.816	813.480	634.286
356.679	20.700	812.040	629.076
357.694	20.511	811.620	628.011
358.708	21.335	811.304	630.687
359.723	21.252	811.046	630.131
360.738	21.403	810.554	630.236
361.752	21.872	810.625	631.928
362.767	22.081	809.865	632.032
363.781	22.205	810.196	632.679
364.796	22.390	809.985	633.126
365.810	22.623	809.193	633.287
366.825	22.559	809.030	632.872
367.840	22.574	808.663	632.581
368.854	22.387	808.142	631.448
369.869	22.119	807.019	629.558
370.883	21.740	806.625	627.833
371.898	22.036	805.746	628.153
372.913	22.012	804.872	627.333
373.927	21.865	804.675	626.598
374.942	22.052	804.089	626.754
375.956	21.978	803.633	626.080
376.971	22.264	802.799	626.394
377.986	22.339	802.609	626.456
379.000	22.530	802.018	626.618
380.015	22.438	801.859	626.110
381.029	22.275	801.177	624.945
382.044	22.345	800.615	624.699
383.059	22.585	799.738	624.810
384.073	22.465	799.468	624.118
385.088	22.747	798.853	624.580
386.102	22.529	798.299	623.322
387.117	22.422	797.702	622.424
388.132	22.274	797.448	621.646
389.146	22.102	796.689	620.392
390.161	21.692	795.572	618.022
391.175	21.647	795.288	617.589
392.190	22.134	795.179	619.166
393.205	22.105	794.878	618.774
394.219	21.228	793.217	614.341
395.234	19.853	790.840	607.622
396.248	19.134	789.906	604.327
397.263	20.150	791.083	608.744
398.278	21.935	792.165	615.791
399.292	22.212	792.258	616.782
400.307	21.944	791.308	615.048
401.321	21.981	790.674	614.631
402.336	22.041	790.540	614.681
403.350	22.309	790.372	615.435
404.365	22.666	790.282	616.559
405.380	22.894	790.184	617.223
406.394	23.170	789.859	617.880
407.409	23.364	789.518	618.235
408.423	23.209	788.735	617.028
409.438	23.246	787.772	616.349
410.453	23.169	787.912	616.135
411.467	23.156	787.707	615.877
412.482	23.306	786.837	615.664
413.496	23.081	786.708	614.725
414.511	23.152	786.595	614.830
415.526	23.176	785.697	614.156
416.540	23.223	785.332	613.979
417.555	23.163	784.572	613.122
418.569	22.925	783.958	611.763
419.584	22.779	783.828	611.102
420.599	22.903	783.192	610.984
421.613	158.326	1363.168	1799.444
422.628	136.935	1447.659	1799.550
