DTS Sentinel unit serial number:	SN413079Multiplexer serial number:	ORYXHardware model number:	OX4-SRSoftware version number:	ORYX F/W v4.00 Oryx Data Collector v3.7.2.0data status	okinstallation	princeton_trtdifferential loss correction	single-endedforward channel	channel 3reverse channel	N/Adate	2019/09/11time	06:10:11forward acquisition time	60.00reverse acquisition time	0.00gamma	496.2192k internal	0.2330k external	0.2330temperature offset calibration	0.9905default loss term (dB/km)	0.3790temperature slope calibration	1.0000multiplexer offset coefficient	1.0000multiplexer slope coefficient	1.0000fibre end	0.00T internal ref (°C)	29.50T ext. ref 1 (°C)	-0.20T ext. ref 2 (°C)	23.83length (m)	temperature (°C)	Stokes	anti-Stokes-747.200	119.200	0.141	0.176
-746.185	61.969	-0.100	0.100
-745.171	-70.720	-0.174	-0.066
-744.156	-122.357	0.089	0.015
-743.142	-200.000	0.022	0.291
-742.127	-91.095	-0.328	0.095
-741.112	57.948	-0.211	0.208
-740.098	-200.000	0.047	0.291
-739.083	-145.545	0.538	-0.049
-738.069	-200.000	0.007	0.058
-737.054	-78.446	-0.270	0.093
-736.039	93.351	-0.075	-0.085
-735.025	-200.000	0.088	0.463
-734.010	41.711	-0.297	-0.271
-732.996	735.200	-0.065	-0.175
-731.981	800.000	0.030	0.119
-730.966	149.646	0.113	0.154
-729.952	-83.010	-0.312	-0.101
-728.937	-200.000	-0.010	0.147
-727.923	-200.000	-0.060	-0.301
-726.908	-6.425	-0.319	0.219
-725.894	127.651	-0.245	-0.314
-724.879	-29.003	0.142	0.082
-723.864	-116.531	-0.096	0.018
-722.850	157.595	0.110	0.153
-721.835	-23.404	0.071	-0.043
-720.821	-148.850	-0.403	0.033
-719.806	800.000	0.052	0.169
-718.791	-200.000	-0.029	0.169
-717.777	-124.301	-0.216	-0.034
-716.762	-200.000	-0.044	-0.258
-715.748	100.683	0.192	0.224
-714.733	57.589	-0.182	-0.179
-713.718	32.257	0.045	-0.039
-712.704	769.216	-0.177	-0.483
-711.689	-200.000	0.002	0.055
-710.675	298.034	0.115	0.212
-709.660	-61.701	-0.325	0.137
-708.645	-116.074	-0.363	0.068
-707.631	-16.271	0.195	0.124
-706.616	-200.000	0.007	0.132
-705.602	-26.356	0.284	0.168
-704.587	-116.479	-0.123	0.023
-703.572	800.000	-0.031	0.093
-702.558	-200.000	0.025	-0.299
-701.543	20.007	-0.314	-0.255
-700.529	165.228	-0.117	-0.166
-699.514	-200.000	0.004	0.037
-698.499	131.945	0.191	0.247
-697.485	-126.642	-0.249	0.037
-696.470	-164.056	-0.100	-0.005
-695.456	36.904	-0.146	-0.129
-694.441	775.525	0.113	0.309
-693.426	-200.000	-0.006	-0.084
-692.412	102.941	0.128	-0.151
-691.397	209.478	0.076	-0.120
-690.383	-94.917	0.308	0.084
-689.368	-88.080	0.310	-0.094
-688.354	-96.757	0.147	0.039
-687.339	-200.000	0.014	-0.100
-686.324	-140.897	0.305	-0.032
-685.310	177.060	-0.114	-0.167
-684.295	-167.903	-0.123	0.005
-683.281	289.986	-0.110	-0.201
-682.266	-8.641	-0.153	0.103
-681.251	137.733	0.103	-0.136
-680.237	-200.000	0.010	0.184
-679.222	-188.541	-0.290	0.004
-678.208	17.833	-0.174	-0.139
-677.193	-200.000	-0.003	-0.061
-676.178	-50.774	0.111	0.052
-675.164	225.169	0.016	0.027
-674.149	-200.000	0.042	0.410
-673.135	-200.000	-0.035	0.164
-672.120	800.000	-0.106	-0.299
-671.105	800.000	0.079	-0.242
-670.091	-200.000	0.020	0.163
-669.076	-200.000	-0.097	-0.579
-668.062	-200.000	0.022	-0.146
-667.047	417.902	-0.090	-0.193
-666.032	-200.000	0.009	0.086
-665.018	-200.000	-0.022	0.235
-664.003	-77.589	0.208	0.072
-662.989	-200.000	-0.023	0.171
-661.974	-20.991	-0.038	-0.023
-660.959	232.698	-0.213	0.352
-659.945	-164.913	-0.184	0.008
-658.930	398.016	0.030	-0.062
-657.916	415.276	-0.121	-0.259
-656.901	-34.147	-0.372	-0.205
-655.886	-160.123	0.323	0.018
-654.872	-43.078	-0.271	-0.138
-653.857	-200.000	-0.021	-0.290
-652.843	281.055	0.139	0.250
-651.828	-157.265	0.077	0.005
-650.814	-37.287	-0.288	-0.155
-649.799	-200.000	-0.007	-0.119
-648.784	173.779	-0.187	0.271
-647.770	-200.000	-0.032	0.390
-646.755	-39.881	-0.034	0.018
-645.741	-31.522	0.053	0.030
-644.726	82.799	-0.106	0.116
-643.711	-162.365	-0.187	0.009
-642.697	-200.000	-0.005	0.305
-641.682	-43.761	0.158	0.080
-640.668	-200.000	0.005	0.077
-639.653	166.475	-0.070	0.100
-638.638	263.230	-0.106	0.185
-637.624	82.925	0.143	-0.156
-636.609	76.143	0.060	-0.064
-635.595	477.507	-0.137	0.312
-634.580	98.284	0.116	0.133
-633.565	181.875	-0.200	0.295
-632.551	-101.817	-0.238	0.058
-631.536	-112.697	-0.075	-0.015
-630.522	3.705	-0.332	0.243
-629.507	122.787	0.035	0.043
-628.492	755.002	-0.094	-0.256
-627.478	-20.304	0.059	0.036
-626.463	32.466	-0.129	0.112
-625.449	-79.890	0.359	-0.121
-624.434	-110.519	0.136	-0.028
-623.419	521.416	0.067	0.157
-622.405	-80.587	0.157	0.052
-621.390	419.436	0.021	-0.044
-620.376	-11.489	-0.179	0.118
-619.361	81.990	0.090	-0.098
-618.346	252.365	0.166	0.283
-617.332	194.290	-0.071	-0.107
-616.317	51.275	0.182	-0.173
-615.303	113.019	0.089	0.109
-614.288	280.183	-0.203	-0.364
-613.273	-159.706	-0.264	-0.015
-612.259	498.404	0.200	0.462
-611.244	121.474	0.129	0.161
-610.230	15.404	0.273	-0.215
-609.215	61.486	-0.151	-0.150
-608.201	-74.561	-0.161	-0.058
-607.186	88.917	-0.231	-0.258
-606.171	-2.456	0.204	0.143
-605.157	-67.996	-0.238	0.093
-604.142	-30.516	0.257	-0.146
-603.128	-200.000	0.088	-0.407
-602.113	-200.000	-0.031	0.246
-601.098	23.586	0.060	-0.049
-600.084	-79.376	0.009	-0.003
-599.069	63.026	-0.245	-0.246
-598.055	526.337	-0.101	-0.237
-597.040	-154.417	0.111	-0.007
-596.025	-131.473	-0.173	-0.023
-595.011	-101.583	0.279	-0.068
-593.996	-183.675	-0.315	0.005
-592.982	800.000	-0.071	-0.212
-591.967	53.190	-0.081	0.078
-590.952	-200.000	-0.004	0.019
-589.938	-180.473	0.260	0.005
-588.923	8.276	0.170	-0.127
-587.909	259.905	-0.090	0.156
-586.894	13.108	0.305	-0.236
-585.879	-87.308	-0.427	-0.130
-584.865	128.638	-0.056	-0.071
-583.850	-200.000	-0.006	-0.475
-582.836	-98.395	0.138	0.035
-581.821	-177.318	0.140	0.003
-580.806	110.512	-0.096	0.116
-579.792	-200.000	-0.000	-0.067
-578.777	-172.078	0.159	0.005
-577.763	-184.258	-0.354	0.006
-576.748	218.674	-0.107	0.171
-575.733	-200.000	-0.006	0.276
-574.719	-98.017	-0.324	0.083
-573.704	-200.000	-0.014	-0.215
-572.690	-155.157	0.267	-0.017
-571.675	800.000	0.121	-0.347
-570.661	-200.000	-0.000	0.122
-569.646	-106.508	-0.209	0.047
-568.631	-200.000	0.014	-0.379
-567.617	800.000	-0.049	-0.206
-566.602	464.284	0.030	-0.067
-565.588	488.365	-0.166	-0.378
-564.573	-28.591	-0.150	0.086
-563.558	-29.645	0.304	-0.173
-562.544	-124.003	0.201	0.032
-561.529	-200.000	-0.013	0.161
-560.515	-79.904	-0.279	0.094
-559.500	147.517	-0.095	-0.129
-558.485	800.000	0.068	-0.263
-557.471	-200.000	-0.012	-0.194
-556.456	736.518	0.059	0.159
-555.442	777.156	-0.092	0.252
-554.427	-129.612	-0.227	0.031
-553.412	3.361	0.321	-0.234
-552.398	236.967	-0.137	-0.227
-551.383	-157.056	0.291	-0.018
-550.369	24.238	0.325	0.268
-549.354	-25.376	-0.106	-0.063
-548.339	-62.695	-0.106	0.044
-547.325	800.000	0.041	-0.116
-546.310	-200.000	-0.057	0.283
-545.296	800.000	-0.075	0.229
-544.281	122.733	0.062	-0.078
-543.266	606.302	-0.142	0.354
-542.252	800.000	-0.029	-0.081
-541.237	-29.105	0.158	-0.091
-540.223	-200.000	0.023	0.285
-539.208	800.000	0.017	0.066
-538.193	-136.034	-0.188	-0.022
-537.179	-65.674	-0.503	-0.201
-536.164	-12.368	-0.199	0.130
-535.150	-200.000	0.008	0.186
-534.135	-111.343	0.354	0.072
-533.121	170.334	-0.069	-0.098
-532.106	-148.207	-0.089	-0.007
-531.091	260.679	0.015	0.026
-530.077	800.000	0.088	0.244
-529.062	32.217	0.136	0.117
-528.048	94.403	-0.142	0.161
-527.033	-200.000	-0.048	0.250
-526.018	-200.000	-0.022	0.186
-525.004	-65.426	-0.117	0.047
-523.989	192.218	-0.252	0.380
-522.975	159.270	-0.102	-0.142
-521.960	7.306	-0.262	-0.196
-520.945	25.115	-0.106	-0.088
-519.931	84.255	0.329	0.359
-518.916	800.000	0.066	0.190
-517.902	-172.529	-0.190	-0.006
-516.887	-1.161	0.292	-0.206
-515.872	-97.424	-0.020	0.005
-514.858	-22.816	-0.266	-0.160
-513.843	-160.754	0.245	-0.013
-512.829	523.733	-0.054	0.126
-511.814	800.000	-0.081	0.285
-510.799	-200.000	-0.011	0.216
-509.785	800.000	-0.066	-0.281
-508.770	-55.677	-0.269	-0.120
-507.756	800.000	-0.033	0.112
-506.741	482.280	0.083	0.189
-505.726	-3.360	-0.240	0.167
-504.712	-200.000	0.049	0.262
-503.697	53.428	0.288	0.276
-502.683	-89.477	-0.234	-0.069
-501.668	-184.023	0.273	0.005
-500.653	129.219	0.133	0.170
-499.639	-200.000	0.046	0.283
-498.624	12.896	0.081	-0.063
-497.610	8.807	-0.275	0.207
-496.595	-81.300	-0.223	-0.073
-495.581	800.000	0.088	-0.257
-494.566	-61.512	-0.208	0.087
-493.551	-145.674	-0.286	0.025
-492.537	119.346	0.144	-0.178
-491.522	-68.727	-0.085	0.033
-490.508	68.968	-0.152	-0.156
-489.493	-200.000	0.019	0.094
-488.478	-200.000	-0.005	0.378
-487.464	167.598	-0.179	0.253
-486.449	-14.531	-0.278	0.178
-485.435	-200.000	-0.003	-0.160
-484.420	148.000	0.125	-0.167
-483.405	-38.178	0.118	-0.062
-482.391	129.075	0.084	0.107
-481.376	306.061	-0.158	0.294
-480.362	33.388	0.074	0.064
-479.347	-18.505	0.234	0.145
-478.332	89.998	-0.225	0.250
-477.318	709.308	-0.046	-0.122
-476.303	-66.717	-0.109	0.043
-475.289	-39.239	-0.087	-0.046
-474.274	44.182	-0.354	-0.323
-473.259	-163.888	-0.047	0.002
-472.245	-140.061	-0.178	-0.019
-471.230	-128.806	0.219	0.031
-470.216	-200.000	0.000	-0.271
-469.201	12.988	-0.065	0.050
-468.186	221.722	-0.145	0.232
-467.172	-61.664	-0.235	0.098
-466.157	-147.680	-0.375	0.031
-465.143	-140.355	-0.290	-0.030
-464.128	-200.000	0.041	-0.263
-463.113	800.000	-0.073	-0.238
-462.099	-150.872	-0.110	-0.008
-461.084	-200.000	-0.004	-0.452
-460.070	631.397	-0.008	-0.020
-459.055	217.167	-0.018	-0.028
-458.040	-113.905	-0.407	-0.079
-457.026	-60.337	-0.237	-0.100
-456.011	-113.543	0.004	-0.001
-454.997	463.188	-0.014	-0.032
-453.982	-124.222	0.098	0.015
-452.968	137.981	0.079	-0.104
-451.953	-134.467	0.387	-0.047
-450.938	-105.663	0.241	-0.054
-449.924	-200.000	0.002	0.303
-448.909	-2.962	0.126	0.088
-447.895	-67.226	0.092	-0.036
-446.880	-13.930	-0.466	-0.299
-445.865	661.379	-0.063	-0.162
-444.851	-151.097	-0.102	-0.008
-443.836	-200.000	-0.017	0.185
-442.822	190.214	-0.130	-0.194
-441.807	182.512	0.123	-0.181
-440.792	16.515	0.203	0.160
-439.778	-118.083	0.058	-0.010
-438.763	-55.434	-0.070	0.031
-437.749	195.637	0.099	-0.150
-436.734	-200.000	0.019	-0.297
-435.719	-200.000	0.507	0.001
-434.705	-166.483	-0.402	0.017
-433.690	800.000	-0.106	0.326
-432.676	-163.397	0.109	0.005
-431.661	-4.385	0.073	-0.050
-430.646	-50.856	0.059	-0.028
-429.632	-41.371	0.136	-0.070
-428.617	89.824	-0.198	-0.220
-427.603	800.000	-0.084	0.312
-426.588	17.763	0.170	-0.135
-425.573	-118.055	0.117	0.021
-424.559	-113.392	-0.103	0.020
-423.544	157.426	-0.094	0.130
-422.530	-61.238	0.138	0.058
-421.515	277.265	0.085	0.150
-420.500	800.000	-0.040	-0.114
-419.486	-113.042	0.124	0.024
-418.471	-200.000	0.017	-0.079
-417.457	706.753	0.065	-0.170
-416.442	-50.679	-0.181	-0.085
-415.428	-200.000	-0.014	0.243
-414.413	149.106	0.096	-0.129
-413.398	52.407	0.150	-0.143
-412.384	-200.000	0.013	0.057
-411.369	16.409	0.221	-0.173
-410.355	-100.264	-0.334	0.082
-409.340	-85.218	-0.202	0.063
-408.325	-26.152	0.196	0.115
-407.311	-118.452	-0.512	0.090
-406.296	-15.784	0.379	-0.240
-405.282	-4.469	0.276	0.190
-404.267	-200.000	-0.009	0.394
-403.252	435.616	0.157	-0.340
-402.238	-133.648	-0.232	-0.029
-401.223	-2.943	0.240	0.167
-400.209	148.145	-0.140	-0.187
-399.194	457.161	-0.108	0.238
-398.179	800.000	-0.056	0.201
-397.165	-12.290	0.068	0.044
-396.150	510.864	0.112	0.259
-395.136	-193.250	-0.125	0.001
-394.121	75.777	0.126	0.133
-393.106	14.834	0.093	-0.072
-392.092	459.074	-0.158	-0.349
-391.077	-200.000	-0.010	0.071
-390.063	-5.657	0.131	0.089
-389.048	190.596	0.081	-0.121
-388.033	18.024	0.198	-0.157
-387.019	-96.807	0.200	0.052
-386.004	-62.539	0.366	-0.151
-384.990	53.627	0.183	-0.174
-383.975	219.751	0.079	0.125
-382.960	800.000	-0.029	0.091
-381.946	800.000	-0.040	0.174
-380.931	-200.000	-0.009	-0.091
-379.917	-151.243	0.529	0.039
-378.902	-84.328	-0.187	0.059
-377.888	-99.815	0.229	-0.057
-376.873	-126.175	-0.124	-0.018
-375.858	800.000	0.062	0.244
-374.844	-200.000	-0.029	-0.314
-373.829	-200.000	-0.011	-0.104
-372.815	-103.431	0.230	0.054
-371.800	62.705	-0.208	-0.206
-370.785	174.744	0.110	-0.158
-369.771	285.050	-0.114	0.204
-368.756	33.352	-0.190	0.164
-367.742	-112.703	0.325	0.064
-366.727	-44.582	-0.153	-0.076
-365.712	-41.665	0.204	-0.104
-364.698	72.285	-0.079	-0.081
-363.683	-162.019	0.115	0.006
-362.669	-87.391	0.418	0.126
-361.654	239.816	-0.013	-0.022
-360.639	179.458	0.142	0.206
-359.625	-148.842	-0.149	0.012
-358.610	-44.346	0.265	-0.132
-357.596	-96.659	0.132	-0.035
-356.581	-62.355	-0.246	-0.102
-355.566	-127.635	-0.059	-0.009
-354.552	-23.605	-0.047	0.028
-353.537	-176.093	-0.212	-0.006
-352.523	-200.000	-0.025	0.309
-351.508	-29.503	-0.284	0.161
-350.493	-39.001	-0.248	0.129
-349.479	-136.358	-0.355	-0.041
-348.464	556.043	-0.058	0.138
-347.450	-70.887	0.217	-0.081
-346.435	-20.505	-0.034	0.021
-345.420	-157.666	-0.189	-0.011
-344.406	121.881	-0.192	-0.237
-343.391	-45.701	0.114	0.056
-342.377	-200.000	0.007	0.093
-341.362	800.000	0.071	-0.260
-340.348	-121.211	-0.099	0.016
-339.333	-200.000	-0.034	0.424
-338.318	83.124	-0.088	-0.095
-337.304	41.476	-0.203	-0.182
-336.289	-12.117	0.371	0.241
-335.275	-23.206	0.203	-0.121
-334.260	115.037	-0.105	0.127
-333.245	123.365	0.187	0.233
-332.231	185.910	0.289	-0.426
-331.216	-167.325	-0.277	-0.011
-330.202	800.000	-0.074	0.266
-329.187	31.955	0.075	-0.064
-328.172	-78.024	-0.119	-0.040
-327.158	333.448	0.129	0.246
-326.143	2.584	-0.048	-0.034
-325.129	-200.000	0.033	0.182
-324.114	58.034	-0.051	-0.050
-323.099	89.017	0.134	-0.148
-322.085	-158.768	0.154	-0.009
-321.070	66.050	0.087	-0.088
-320.056	-78.918	-0.207	-0.070
-319.041	19.672	-0.226	0.180
-318.026	-200.000	-0.283	0.001
-317.012	-143.785	-0.223	0.021
-315.997	-200.000	0.003	-0.168
-314.983	-199.290	-0.179	-0.001
-313.968	-200.000	0.044	-0.445
-312.953	-102.250	0.193	-0.046
-311.939	-20.062	0.279	0.171
-310.924	285.115	0.137	-0.245
-309.910	19.190	0.150	-0.119
-308.895	125.464	0.041	0.051
-307.880	611.906	-0.147	-0.364
-306.866	800.000	-0.073	-0.231
-305.851	800.000	0.050	0.197
-304.837	696.257	0.032	0.083
-303.822	-95.994	0.046	-0.012
-302.807	-109.539	0.151	-0.032
-301.793	-200.000	0.045	-0.219
-300.778	55.936	-0.122	-0.117
-299.764	339.775	0.026	-0.050
-298.749	-32.199	0.174	0.096
-297.735	-50.914	-0.214	0.099
-296.720	-200.000	-0.058	-0.270
-295.705	-115.870	0.168	-0.031
-294.691	147.898	0.320	0.426
-293.676	352.053	0.175	0.344
-292.662	-81.533	0.365	-0.119
-291.647	217.827	0.226	-0.356
-290.632	24.791	-0.125	0.102
-289.618	-200.000	0.010	0.062
-288.603	-58.880	0.293	-0.125
-287.589	480.815	-0.174	0.390
-286.574	328.039	0.119	-0.226
-285.559	-107.266	0.544	-0.118
-284.545	-133.694	-0.330	0.041
-283.530	-22.550	0.079	0.047
-282.516	800.000	-0.111	0.385
-281.501	354.344	0.139	-0.273
-280.486	5.658	-0.157	-0.115
-279.472	-52.825	-0.218	-0.099
-278.457	-22.505	0.392	-0.234
-277.443	66.835	-0.078	0.079
-276.428	84.907	-0.145	0.157
-275.413	-50.165	-0.167	0.078
-274.399	-200.000	0.016	0.143
-273.384	226.177	-0.165	-0.265
-272.370	17.699	0.208	0.163
-271.355	3.286	0.171	0.123
-270.340	-169.385	-0.154	0.006
-269.326	-200.000	0.072	-0.360
-268.311	267.607	-0.023	-0.039
-267.297	89.387	0.190	-0.209
-266.282	96.321	0.115	0.130
-265.267	-200.000	0.019	0.110
-264.253	-115.202	0.284	-0.053
-263.238	-200.000	-0.029	-0.164
-262.224	800.000	0.073	-0.219
-261.209	23.528	0.217	0.176
-260.195	-46.890	-0.065	0.032
-259.180	-100.508	0.207	0.051
-258.165	119.983	-0.143	-0.175
-257.151	-44.930	0.133	0.065
-256.136	-103.714	0.293	0.068
-255.122	800.000	-0.075	-0.321
-254.107	20.250	-0.097	0.077
-253.092	800.000	-0.019	-0.063
-252.078	-200.000	0.020	-0.166
-251.063	-12.774	0.136	-0.088
-250.049	-123.064	-0.283	-0.045
-249.034	168.355	0.097	0.137
-248.019	-200.000	0.014	0.269
-247.005	178.129	0.172	-0.248
-245.990	-161.677	0.083	-0.004
-244.976	-33.589	0.144	-0.078
-243.961	9.230	-0.294	-0.219
-242.946	-200.000	-0.036	-0.430
-241.932	-9.071	-0.113	0.074
-240.917	394.419	0.091	-0.187
-239.903	272.970	-0.144	0.251
-238.888	-61.207	0.335	0.139
-237.873	-67.947	-0.250	0.096
-236.859	-102.258	-0.025	0.006
-235.844	60.817	-0.195	-0.191
-234.830	57.668	0.188	0.182
-233.815	141.566	-0.210	-0.275
-232.800	102.034	0.113	-0.130
-231.786	132.688	0.073	-0.093
-230.771	37.581	-0.103	-0.090
-229.757	800.000	-0.123	-0.486
-228.742	-55.756	0.175	-0.077
-227.727	-200.000	-0.012	0.147
-226.713	448.262	0.038	0.083
-225.698	705.480	-0.085	-0.220
-224.684	800.000	-0.083	-0.330
-223.669	-200.000	0.152	-0.000
-222.655	-200.000	-0.007	0.158
-221.640	100.430	-0.084	0.096
-220.625	-53.042	0.176	0.080
-219.611	-85.051	-0.184	-0.057
-218.596	-141.930	-0.229	-0.023
-217.582	-200.000	-0.011	0.064
-216.567	-108.541	0.384	-0.081
-215.552	46.837	0.242	-0.222
-214.538	425.903	-0.097	0.206
-213.523	-49.726	-0.225	-0.106
-212.509	143.092	0.020	-0.027
-211.494	-40.304	-0.216	-0.111
-210.479	-18.524	-0.131	0.081
-209.465	800.000	0.092	0.258
-208.450	253.813	-0.169	0.284
-207.436	-89.810	0.274	0.079
-206.421	291.767	-0.055	0.099
-205.406	39.820	0.050	0.044
-204.392	201.053	-0.078	0.119
-203.377	-34.015	0.037	-0.020
-202.363	17.608	-0.117	0.092
-201.348	136.176	-0.100	-0.128
-200.333	435.236	0.043	-0.093
-199.319	-57.996	0.205	-0.088
-198.304	-98.472	-0.168	0.042
-197.290	-85.776	0.087	-0.026
-196.275	-51.600	-0.251	0.116
-195.260	-200.000	-0.014	-0.112
-194.246	-200.000	-0.016	0.073
-193.231	435.239	0.069	-0.148
-192.217	-176.928	0.458	-0.011
-191.202	-103.729	-0.264	0.061
-190.187	-37.152	0.109	0.057
-189.173	-200.000	-0.033	-0.341
-188.158	-120.504	-0.126	-0.021
-187.144	-83.830	0.271	-0.085
-186.129	-200.000	0.085	0.465
-185.114	-174.761	0.146	-0.004
-184.100	-13.180	0.087	-0.055
-183.085	800.000	0.016	-0.063
-182.071	104.326	-0.145	0.168
-181.056	386.270	0.158	-0.321
-180.042	286.974	0.178	0.317
-179.027	-83.207	-0.148	0.047
-178.012	245.716	-0.081	-0.134
-176.998	56.714	-0.140	-0.134
-175.983	-116.097	-0.282	0.052
-174.969	-137.716	0.261	0.029
-173.954	63.048	0.067	-0.066
-172.939	443.478	0.126	0.272
-171.925	-157.269	0.163	0.010
-170.910	676.229	0.048	0.124
-169.896	234.821	-0.096	-0.156
-168.881	6.229	0.269	0.196
-167.866	375.410	0.105	-0.211
-166.852	-66.090	0.287	-0.113
-165.837	-10.205	-0.100	0.065
-164.823	11.777	-0.046	-0.035
-163.808	-99.366	-0.167	0.041
-162.793	165.555	-0.067	0.093
-161.779	197.249	0.143	0.214
-160.764	800.000	-0.035	0.109
-159.750	43.638	-0.103	-0.093
-158.735	800.000	0.110	-0.327
-157.720	323.412	0.177	-0.332
-156.706	230.863	0.061	0.098
-155.691	800.000	0.015	0.065
-154.677	264.204	-0.285	0.487
-153.662	49.304	0.078	-0.072
-152.647	-104.530	0.079	-0.018
-151.633	-129.685	-0.245	-0.033
-150.618	19.414	0.288	0.227
-149.604	56.623	-0.068	0.065
-148.589	344.431	-0.095	0.184
-147.574	-95.136	-0.466	0.124
-146.560	503.654	-0.071	-0.162
-145.545	-69.153	0.198	-0.075
-144.531	323.578	-0.052	-0.098
-143.516	118.322	0.106	0.128
-142.502	-179.298	-0.132	-0.003
-141.487	435.269	-0.061	0.131
-140.472	-53.422	0.253	0.114
-139.458	-55.377	-0.161	-0.071
-138.443	-15.483	-0.163	0.102
-137.429	-200.000	-0.035	-0.246
-136.414	147.092	0.171	0.226
-135.399	-117.097	0.248	-0.044
-134.385	-181.254	-0.120	0.002
-133.370	-68.537	0.378	-0.144
-132.356	-62.355	0.194	0.079
-131.341	-200.000	-0.061	0.320
-130.326	201.993	-0.063	0.095
-129.312	97.644	-0.151	0.170
-128.297	34.318	0.105	0.090
-127.283	-200.000	-0.013	0.103
-126.268	330.471	-0.093	-0.176
-125.253	249.657	-0.074	-0.123
-124.239	255.038	-0.285	0.479
-123.224	800.000	-0.055	0.175
-122.210	16.636	0.184	0.143
-121.195	27.152	-0.154	-0.127
-120.180	291.438	-0.178	0.319
-119.166	150.728	0.029	-0.039
-118.151	124.205	0.127	0.156
-117.137	93.091	-0.239	0.265
-116.122	-110.722	0.399	0.081
-115.107	-11.282	-0.169	-0.109
-114.093	-175.246	0.168	0.005
-113.078	27.219	0.127	0.105
-112.064	-3.877	0.283	-0.193
-111.049	29.520	0.435	-0.363
-110.034	800.000	-0.021	-0.072
-109.020	-87.585	-0.185	0.055
-108.005	-58.584	0.343	-0.146
-106.991	800.000	0.083	0.331
-105.976	-11.655	-0.162	-0.104
-104.962	-41.359	-0.442	-0.224
-103.947	19.930	0.197	-0.156
-102.932	320.334	-0.057	0.105
-101.918	-1.397	-0.070	0.049
-100.903	800.000	0.047	-0.163
-99.889	-37.648	-0.336	0.175
-98.874	-88.075	-0.306	0.090
-97.859	41.733	-0.278	0.247
-96.845	157.616	-0.073	0.099
-95.830	-200.000	0.012	-0.093
-94.816	253.474	-0.074	0.123
-93.801	92.818	-0.240	-0.266
-92.786	105.027	-0.214	0.248
-91.772	483.786	-0.090	0.201
-90.757	-104.618	-0.092	-0.021
-89.743	114.158	0.113	-0.135
-88.728	127.010	0.204	0.254
-87.713	-171.564	0.332	0.011
-86.699	-86.496	-0.186	0.056
-85.684	-200.000	0.017	-0.113
-84.670	25.546	0.042	0.034
-83.655	-117.737	0.355	0.063
-82.640	-76.859	-0.076	-0.026
-81.626	23.500	-0.231	0.187
-80.611	286.108	0.086	0.151
-79.597	350.607	0.088	0.170
-78.582	40.575	0.263	0.232
-77.567	16.008	0.048	0.037
-76.553	-200.000	0.030	-0.377
-75.538	-23.707	0.249	-0.146
-74.524	-34.966	-0.165	0.088
-73.509	-200.000	-0.010	0.148
-72.494	25.010	0.082	-0.067
-71.480	-147.050	0.282	0.024
-70.465	60.691	-0.266	0.259
-69.451	-97.215	-0.208	0.053
-68.436	76.523	0.198	0.206
-67.422	-98.367	-0.221	0.056
-66.407	-12.718	-0.220	0.141
-65.392	102.131	0.190	0.217
-64.378	710.460	-0.074	-0.192
-63.363	800.000	-0.073	0.227
-62.349	149.265	-0.112	0.149
-61.334	95.743	-0.745	-0.834
-60.319	28.479	0.719	0.596
-59.305	471.896	-0.444	-0.979
-58.290	406.281	0.524	1.084
-57.276	800.000	0.476	1.635
-56.261	-200.000	106.035	611.480
-55.246	500.854	1510.357	3415.727
-54.232	176.104	2702.508	3844.912
-53.217	110.528	2186.377	2575.379
-52.203	40.167	1704.475	1501.599
-51.188	32.498	1514.615	1282.302
-50.173	30.321	1486.938	1244.243
-49.159	51.359	1543.548	1435.997
-48.144	51.512	1560.378	1452.642
-47.130	32.887	1515.938	1285.866
-46.115	29.775	1501.302	1252.362
-45.100	29.650	1497.295	1248.131
-44.086	29.501	1495.416	1245.505
-43.071	29.477	1492.859	1243.164
-42.057	29.511	1491.663	1242.353
-41.042	29.509	1490.138	1241.015
-40.027	29.514	1488.946	1240.008
-39.013	29.446	1487.423	1238.234
-37.998	29.427	1485.945	1236.830
-36.984	29.458	1485.185	1236.355
-35.969	29.475	1483.230	1234.791
-34.954	29.445	1481.628	1233.209
-33.940	29.418	1480.690	1232.196
-32.925	29.565	1479.193	1231.886
-31.911	29.508	1477.981	1230.444
-30.896	29.531	1476.404	1229.235
-29.881	29.534	1475.558	1228.502
-28.867	29.598	1474.450	1227.962
-27.852	29.541	1472.844	1226.193
-26.838	29.623	1471.148	1225.280
-25.823	29.576	1469.537	1223.576
-24.809	29.616	1467.755	1222.310
-23.794	29.479	1466.463	1220.275
-22.779	29.571	1465.530	1220.059
-21.765	29.550	1464.963	1219.401
-20.750	29.562	1463.767	1218.434
-19.736	29.496	1462.467	1216.873
-18.721	29.496	1461.241	1215.801
-17.706	29.514	1459.808	1214.678
-16.692	29.583	1459.067	1214.472
-15.677	29.525	1457.923	1213.090
-14.663	29.483	1457.067	1212.050
-13.648	29.519	1456.117	1211.452
-12.633	29.518	1455.087	1210.539
-11.619	29.464	1454.679	1209.796
-10.604	29.431	1454.044	1209.002
-9.590	29.406	1452.632	1207.622
-8.575	29.530	1451.265	1207.248
-7.560	29.506	1450.621	1206.502
-6.546	29.440	1450.301	1205.762
-5.531	29.409	1449.202	1204.593
-4.517	29.336	1448.365	1203.372
-3.502	29.416	1447.653	1203.258
-2.487	29.393	1446.505	1202.109
-1.473	29.330	1445.689	1200.968
-0.458	29.308	1444.549	1199.834
0.556	27.076	1434.212	1189.922
1.571	24.290	1409.311	1151.202
2.586	21.035	1352.191	1084.243
3.600	19.589	1271.454	1010.960
4.615	18.370	1227.004	968.639
5.629	16.343	1171.502	913.785
6.644	8.262	1088.386	808.107
7.659	1.155	1047.821	743.177
8.673	-0.029	1042.760	733.746
9.688	-0.257	1039.435	730.235
10.702	-0.231	1037.351	728.831
11.717	-0.303	1035.958	727.437
12.731	3.148	1039.197	746.411
13.746	11.857	1051.654	797.902
14.761	18.627	1060.519	837.722
15.775	20.620	1062.443	848.906
16.790	20.948	1062.221	850.253
17.804	20.821	1061.352	848.866
18.819	20.616	1060.474	847.087
19.834	20.822	1059.823	847.496
20.848	20.765	1060.027	847.308
21.863	20.939	1059.324	847.519
22.877	20.837	1058.891	846.600
23.892	20.861	1058.047	845.965
24.907	20.621	1057.281	844.113
25.921	20.792	1056.246	844.043
26.936	20.827	1056.066	843.992
27.950	20.734	1054.898	842.536
28.965	20.679	1053.584	841.145
29.980	20.567	1051.812	839.115
30.994	20.602	1050.020	837.781
32.009	20.827	1049.130	838.081
33.023	20.842	1048.696	837.730
34.038	20.619	1047.333	835.495
35.053	20.518	1047.018	834.684
36.067	20.691	1046.341	834.903
37.082	20.826	1045.117	834.501
38.096	20.856	1044.305	833.921
39.111	21.017	1043.743	834.169
40.126	21.265	1042.292	834.121
41.140	21.115	1041.635	832.806
42.155	20.690	1040.011	829.405
43.169	20.468	1038.809	827.316
44.184	20.526	1037.763	826.685
45.199	20.490	1037.235	826.021
46.213	20.469	1035.774	824.684
47.228	20.334	1034.896	823.272
48.242	20.564	1034.192	823.730
49.257	20.614	1033.593	823.415
50.271	20.763	1032.226	822.959
51.286	20.943	1031.634	823.263
52.301	20.840	1030.900	822.120
53.315	20.986	1029.931	821.965
54.330	20.949	1029.453	821.335
55.344	20.703	1028.696	819.499
56.359	20.848	1027.647	819.274
57.374	20.838	1027.385	818.947
58.388	20.638	1025.768	816.647
59.403	20.675	1025.071	816.192
60.417	20.765	1024.096	815.763
61.432	20.520	1023.417	814.002
62.447	20.446	1022.535	812.886
63.461	20.538	1022.235	813.003
64.476	20.595	1021.547	812.650
65.490	20.704	1020.126	811.958
66.505	20.450	1019.708	810.366
67.520	20.492	1019.026	809.952
68.534	20.559	1018.106	809.461
69.549	20.568	1016.712	808.320
70.563	20.161	1015.587	805.465
71.578	19.995	1015.457	804.520
72.593	20.096	1014.029	803.786
73.607	20.091	1012.857	802.761
74.622	20.115	1011.975	802.102
75.636	20.351	1011.513	802.756
76.651	20.526	1010.800	802.931
77.666	20.282	1009.595	800.775
78.680	20.285	1008.471	799.829
79.695	20.207	1008.298	799.262
80.709	20.501	1007.474	799.888
81.724	20.489	1007.392	799.697
82.739	20.472	1005.905	798.369
83.753	20.451	1004.684	797.231
84.768	20.582	1004.225	797.398
85.782	20.997	1004.117	799.146
86.797	21.078	1003.335	798.822
87.812	21.058	1002.492	797.990
88.826	21.088	1000.987	796.856
89.841	21.044	1000.288	796.032
90.855	21.099	999.643	795.696
91.870	21.212	998.509	795.239
92.884	21.064	997.937	794.038
93.899	21.001	997.162	793.066
94.914	20.906	996.193	791.793
95.928	20.930	995.587	791.351
96.943	20.915	994.327	790.210
97.957	20.684	993.375	788.340
98.972	20.557	992.289	786.829
99.987	20.427	991.058	785.200
101.001	20.359	990.636	784.487
102.016	20.738	990.046	785.662
103.030	20.730	989.286	784.953
104.045	20.744	987.824	783.785
105.060	20.583	986.661	782.070
106.074	20.454	984.945	780.063
107.089	20.395	985.136	779.879
108.103	20.871	984.909	781.765
109.118	20.921	983.779	781.024
110.133	20.645	982.440	778.660
111.147	20.463	981.719	777.202
112.162	20.446	980.384	776.003
113.176	20.304	979.221	774.380
114.191	20.283	979.087	774.111
115.206	20.578	977.349	773.981
116.220	20.216	976.434	771.580
117.235	20.159	975.657	770.643
118.249	20.367	974.908	770.907
119.264	20.355	973.955	770.032
120.279	20.119	973.529	768.578
121.293	20.150	972.882	768.139
122.308	20.343	971.740	768.023
123.322	20.310	971.156	767.346
124.337	20.214	970.239	766.132
125.352	20.298	968.452	765.022
126.366	19.821	966.998	761.705
127.381	19.451	965.779	759.052
128.395	19.950	965.620	761.053
129.410	20.570	965.558	763.662
130.424	20.842	964.201	763.714
131.439	20.861	962.995	762.774
132.454	20.699	962.213	761.377
133.468	20.725	961.245	760.659
134.483	20.565	960.811	759.550
135.497	20.753	959.844	759.540
136.512	21.050	958.901	760.020
137.527	21.008	958.677	759.592
138.541	20.965	957.597	758.480
139.556	20.882	957.209	757.746
140.570	20.916	956.171	757.005
141.585	20.908	955.087	756.044
142.600	20.968	954.518	755.787
143.614	20.966	953.440	754.858
144.629	21.037	952.962	754.721
145.643	21.416	951.804	755.373
146.658	21.177	950.804	753.480
147.673	20.874	949.770	751.291
148.687	20.807	948.667	750.064
149.702	20.770	947.586	748.981
150.716	20.663	946.918	747.929
151.731	20.810	945.713	747.542
152.746	20.799	944.921	746.802
153.760	20.880	944.887	747.058
154.775	21.122	943.894	747.240
155.789	21.203	942.602	746.499
156.804	21.180	941.728	745.641
157.819	21.115	940.627	744.427
158.833	21.083	940.160	743.855
159.848	21.155	939.289	743.408
160.862	21.286	938.404	743.198
161.877	21.108	937.713	741.826
162.892	21.093	936.858	741.024
163.906	21.141	936.180	740.626
164.921	21.102	935.234	739.646
165.935	21.116	933.733	738.454
166.950	21.088	932.821	737.548
167.964	21.135	932.031	737.055
168.979	21.138	930.979	736.170
169.994	20.996	930.079	734.795
171.008	20.949	929.006	733.687
172.023	21.115	928.330	733.783
173.037	21.199	927.752	733.615
174.052	20.940	926.780	731.696
175.067	20.857	925.645	730.385
176.081	20.893	924.758	729.774
177.096	20.952	924.311	729.602
178.110	21.064	923.157	729.096
179.125	20.834	922.154	727.280
180.140	20.514	921.173	725.106
181.154	20.513	920.548	724.544
182.169	20.762	919.889	725.000
183.183	20.874	919.557	725.140
184.198	21.265	918.949	726.221
185.213	21.079	918.362	724.919
186.227	21.006	917.265	723.689
187.242	21.063	917.279	723.871
188.256	21.173	916.767	723.861
189.271	21.158	915.644	722.847
190.286	21.207	915.129	722.578
191.300	21.084	914.092	721.189
192.315	20.579	912.534	717.811
193.329	19.955	911.199	714.126
194.344	19.572	909.998	711.543
195.359	20.216	910.276	714.351
196.373	20.785	910.871	717.098
197.388	20.852	911.144	717.525
198.402	21.101	909.552	717.231
199.417	20.964	908.931	716.115
200.432	21.090	908.289	716.063
201.446	20.739	908.110	714.419
202.461	20.569	906.982	712.770
203.475	20.589	906.567	712.466
204.490	20.125	905.461	709.630
205.504	19.214	902.921	703.856
206.519	19.541	903.294	705.422
207.534	20.639	903.078	709.675
208.548	20.590	902.788	709.184
209.563	20.911	902.404	710.128
210.577	20.967	901.778	709.799
211.592	20.789	900.589	708.078
212.607	21.071	900.839	709.359
213.621	21.054	900.757	709.161
214.636	21.063	899.720	708.319
215.650	21.297	898.918	708.576
216.665	21.102	898.555	707.436
217.680	21.193	897.509	706.918
218.694	21.239	897.247	706.837
219.709	20.907	896.487	704.830
220.723	20.552	894.894	702.084
221.738	20.941	894.462	703.252
222.753	21.103	894.091	703.551
223.767	21.078	893.098	702.607
224.782	21.074	892.672	702.195
225.796	21.163	892.425	702.295
226.811	21.313	891.706	702.268
227.826	20.816	890.625	699.362
228.840	20.185	889.017	695.505
229.855	20.122	888.096	694.474
230.869	20.384	887.821	695.243
231.884	20.114	886.946	693.419
232.899	20.160	886.497	693.190
233.913	20.883	886.621	696.114
234.928	21.024	886.353	696.405
235.942	20.966	885.681	695.586
236.957	20.877	884.944	694.591
237.972	20.812	883.811	693.378
238.986	20.787	882.793	692.421
240.001	20.658	882.817	691.867
241.015	20.806	881.995	691.747
242.030	20.784	881.868	691.498
243.045	20.980	880.786	691.368
244.059	21.047	880.501	691.346
245.074	21.181	879.767	691.242
246.088	21.039	879.307	690.257
247.103	20.740	878.874	688.674
248.117	20.793	877.736	687.931
249.132	21.388	877.619	690.128
250.147	21.643	877.512	690.987
251.161	21.619	876.676	690.173
252.176	21.958	876.363	691.200
253.190	21.917	875.410	690.226
254.205	21.830	875.452	689.857
255.220	21.966	874.931	689.920
256.234	22.100	874.040	689.684
257.249	21.898	873.375	688.303
258.263	21.689	872.368	686.630
259.278	21.724	872.001	686.418
260.293	21.905	871.671	686.806
261.307	21.968	871.122	686.558
262.322	21.801	870.455	685.320
263.336	21.880	869.307	684.663
264.351	21.304	868.196	681.482
265.366	20.156	866.054	675.273
266.380	19.778	865.427	673.252
267.395	20.672	865.822	676.982
268.409	21.327	866.055	679.649
269.424	21.384	865.293	679.215
270.439	21.529	865.136	679.593
271.453	21.673	864.360	679.483
272.468	21.612	863.710	678.678
273.482	21.775	863.352	678.967
274.497	21.925	862.854	679.096
275.512	21.800	861.114	677.183
276.526	21.293	860.232	674.473
277.541	21.474	859.941	674.884
278.555	21.803	859.812	675.990
279.570	21.540	858.927	674.222
280.585	21.379	858.227	672.994
281.599	21.404	857.625	672.559
282.614	21.487	857.117	672.418
283.628	21.279	855.987	670.674
284.643	20.755	855.451	668.184
285.657	21.225	855.195	669.727
286.672	21.083	854.548	668.618
287.687	20.738	853.204	666.185
288.701	20.946	853.639	667.264
289.716	21.319	853.072	668.187
290.730	21.094	852.022	666.447
291.745	20.906	851.488	665.252
292.760	20.779	850.290	663.776
293.774	20.667	849.921	663.003
294.789	21.600	850.320	666.808
295.803	22.176	850.632	669.189
296.818	22.264	850.078	669.026
297.833	22.389	849.315	668.841
298.847	22.151	848.381	667.146
299.862	21.645	847.456	664.438
300.876	21.998	846.531	664.992
301.891	22.190	846.532	665.660
302.906	22.291	845.815	665.422
303.920	21.881	844.630	662.882
304.935	21.707	844.035	661.696
305.949	21.998	844.111	662.798
306.964	22.110	843.485	662.672
307.979	21.985	842.494	661.362
308.993	21.964	842.110	660.922
310.008	22.307	841.896	661.988
311.022	22.400	841.855	662.248
312.037	22.259	840.988	660.976
313.052	21.962	840.376	659.321
314.066	21.844	839.401	658.055
315.081	21.261	837.829	654.582
316.095	20.522	836.839	650.981
317.110	21.010	837.280	653.096
318.125	21.862	837.184	656.151
319.139	21.577	836.139	654.211
320.154	20.295	835.053	648.516
321.168	19.844	833.787	645.791
322.183	20.541	833.968	648.474
323.197	21.527	833.878	652.022
324.212	21.722	834.004	652.790
325.227	21.748	833.728	652.613
326.241	21.993	833.056	652.941
327.256	21.835	832.400	651.781
328.270	21.762	831.837	651.014
329.285	21.695	831.360	650.332
330.300	21.641	830.605	649.485
331.314	21.313	830.136	647.846
332.329	21.526	829.044	647.723
333.343	21.904	828.945	648.987
334.358	22.218	828.304	649.588
335.373	22.029	827.796	648.434
336.387	22.213	826.923	648.374
337.402	22.333	827.078	648.881
338.416	22.535	826.672	649.248
339.431	22.514	826.078	648.645
340.446	22.611	825.123	648.194
341.460	22.726	824.988	648.454
342.475	22.540	824.502	647.331
343.489	22.444	823.618	646.227
344.504	22.207	823.192	644.967
345.519	22.662	822.692	646.185
346.533	22.804	822.563	646.550
347.548	22.934	822.163	646.654
348.562	22.996	821.794	646.534
349.577	22.842	821.336	645.551
350.592	22.735	820.443	644.403
351.606	22.780	819.875	644.064
352.621	22.886	819.807	644.338
353.635	22.717	818.953	642.995
354.650	22.533	818.388	641.826
355.665	22.315	817.280	640.107
356.679	21.231	815.813	634.961
357.694	21.083	815.468	634.100
358.708	21.840	815.002	636.427
359.723	21.753	814.643	635.775
360.738	22.113	814.627	637.013
361.752	22.450	814.369	637.976
362.767	22.525	814.042	637.935
363.781	22.857	813.667	638.786
364.796	23.128	813.519	639.593
365.810	23.187	813.597	639.810
366.825	23.216	812.805	639.235
367.840	23.068	812.620	638.499
368.854	22.908	812.034	637.408
369.869	22.708	810.856	635.705
370.883	22.315	810.428	633.897
371.898	22.556	810.118	634.466
372.913	22.339	808.985	632.741
373.927	22.526	808.165	632.717
374.942	22.690	807.720	632.900
375.956	22.716	807.559	632.812
376.971	22.960	806.593	632.873
377.986	22.997	806.180	632.625
379.000	23.180	805.881	632.989
380.015	23.214	805.349	632.637
381.029	22.979	804.691	631.226
382.044	22.895	804.592	630.790
383.059	23.156	803.726	630.988
384.073	23.185	803.212	630.631
385.088	23.316	802.872	630.777
386.102	23.084	802.515	629.615
387.117	22.999	801.630	628.560
388.132	22.907	801.193	627.836
389.146	22.733	800.688	626.767
390.161	22.139	799.699	623.826
391.175	22.288	799.220	623.928
392.190	22.687	799.406	625.432
393.205	22.725	798.671	624.939
394.219	21.847	796.673	620.214
395.234	20.201	794.698	612.810
396.248	19.611	793.460	609.721
397.263	20.705	794.882	614.627
398.278	22.374	796.142	621.443
399.292	22.873	795.668	622.778
400.307	22.558	795.198	621.245
401.321	22.491	794.925	620.742
402.336	22.556	794.562	620.630
403.350	22.859	794.242	621.392
404.365	23.290	794.307	622.907
405.380	23.625	793.795	623.628
406.394	23.774	793.838	624.129
407.409	23.975	793.343	624.390
408.423	23.859	792.698	623.418
409.438	23.653	792.433	622.435
410.453	23.831	791.819	622.519
411.467	23.738	791.694	622.041
412.482	23.688	790.610	620.958
413.496	23.667	790.390	620.660
414.511	23.782	790.297	620.934
415.526	23.856	789.677	620.649
416.540	23.841	789.169	620.143
417.555	23.727	788.809	619.405
418.569	23.528	787.627	617.732
419.584	23.407	787.482	617.142
420.599	23.468	786.913	616.852
421.613	157.032	1365.049	1798.638
422.628	135.850	1449.268	1798.707
