DTS Sentinel unit serial number:	SN413079Multiplexer serial number:	ORYXHardware model number:	OX4-SRSoftware version number:	ORYX F/W v4.00 Oryx Data Collector v3.7.2.0data status	okinstallation	princeton_trtdifferential loss correction	single-endedforward channel	channel 4reverse channel	N/Adate	2019/09/13time	23:41:34forward acquisition time	60.00reverse acquisition time	0.00gamma	496.2192k internal	0.2323k external	0.2323temperature offset calibration	1.0138default loss term (dB/km)	0.3790temperature slope calibration	1.0000multiplexer offset coefficient	1.0000multiplexer slope coefficient	1.0000fibre end	0.00T internal ref (°C)	26.69T ext. ref 1 (°C)	3.17T ext. ref 2 (°C)	20.99length (m)	temperature (°C)	Stokes	anti-Stokes-747.200	191.409	0.142	0.215
-746.185	134.971	0.097	-0.128
-745.171	800.000	0.058	0.243
-744.156	566.735	-0.129	0.315
-743.142	233.705	-0.079	-0.131
-742.127	-174.977	-0.665	0.019
-741.112	-77.133	0.406	-0.143
-740.098	208.538	-0.337	0.532
-739.083	-52.992	-0.088	-0.041
-738.069	35.965	-0.248	0.220
-737.054	364.927	-0.047	0.096
-736.039	-200.000	-0.019	-0.403
-735.025	-28.469	0.082	0.048
-734.010	800.000	-0.042	0.129
-732.996	-43.352	-0.228	-0.116
-731.981	-32.853	-0.057	-0.032
-730.966	-15.979	-0.197	-0.127
-729.952	-113.770	-0.147	-0.029
-728.937	-156.191	-0.073	-0.005
-727.923	-137.702	-0.182	-0.021
-726.908	-67.415	0.240	-0.095
-725.894	800.000	0.135	-0.462
-724.879	123.374	-0.058	-0.073
-723.864	-87.132	-0.160	-0.049
-722.850	451.138	-0.020	0.045
-721.835	-3.878	-0.121	-0.085
-720.821	-133.578	0.319	0.040
-719.806	-200.000	0.009	-0.052
-718.791	-30.544	-0.208	0.119
-717.777	-64.313	0.093	0.038
-716.762	-10.018	-0.289	0.194
-715.748	-116.778	-0.123	-0.023
-714.733	-200.000	-0.007	0.116
-713.718	800.000	0.055	-0.185
-712.704	-45.289	-0.417	-0.209
-711.689	111.304	-0.271	-0.329
-710.675	-29.207	0.419	-0.242
-709.660	83.215	-0.044	0.049
-708.645	800.000	-0.032	0.110
-707.631	-200.000	0.048	-0.260
-706.616	202.054	0.215	0.334
-705.602	85.099	-0.070	-0.077
-704.587	-104.658	0.203	0.047
-703.572	326.543	0.075	-0.145
-702.558	-51.189	0.145	-0.068
-701.543	-54.344	0.141	0.064
-700.529	-200.000	-0.054	-0.274
-699.514	445.449	-0.020	-0.045
-698.499	510.235	0.057	0.133
-697.485	-200.000	0.025	-0.172
-696.470	800.000	0.034	0.126
-695.456	137.182	-0.117	-0.154
-694.441	-54.243	-0.173	0.079
-693.426	800.000	0.080	0.229
-692.412	392.894	-0.178	-0.372
-691.397	274.553	-0.012	0.021
-690.383	135.815	-0.149	0.196
-689.368	-88.915	0.140	0.042
-688.354	63.043	-0.153	-0.155
-687.339	-115.330	-0.018	0.003
-686.324	800.000	0.022	0.084
-685.310	-200.000	0.065	-0.353
-684.295	-57.332	-0.152	-0.067
-683.281	270.383	-0.030	-0.052
-682.266	-46.792	-0.178	0.088
-681.251	526.807	0.151	-0.358
-680.237	540.640	0.061	0.146
-679.222	32.428	-0.149	0.130
-678.208	11.162	-0.376	-0.289
-677.193	567.824	-0.093	0.227
-676.178	372.428	0.093	-0.190
-675.164	-141.344	0.225	-0.023
-674.149	718.906	-0.058	0.155
-673.135	-118.489	-0.089	0.016
-672.120	124.411	0.171	0.217
-671.105	5.516	0.117	-0.087
-670.091	-200.000	0.099	0.000
-669.076	35.911	-0.124	0.110
-668.062	-169.806	0.321	0.012
-667.047	-200.000	-0.023	0.105
-666.032	37.157	0.088	-0.078
-665.018	527.139	-0.078	-0.184
-664.003	-149.720	0.214	0.017
-662.989	800.000	-0.074	-0.241
-661.974	222.041	-0.032	0.052
-660.959	98.960	-0.099	0.115
-659.945	-35.481	0.159	-0.087
-658.930	197.068	-0.157	-0.242
-657.916	144.784	-0.206	0.278
-656.901	267.887	0.148	0.261
-655.886	106.818	-0.201	0.240
-654.872	60.453	-0.084	-0.084
-653.857	-200.000	-0.026	-0.161
-652.843	-35.790	-0.244	-0.133
-651.828	-72.970	0.080	0.030
-650.814	29.166	0.069	0.059
-649.799	753.926	-0.056	-0.152
-648.784	800.000	0.039	-0.129
-647.770	-140.513	0.183	-0.019
-646.755	-29.827	-0.167	0.096
-645.741	800.000	-0.062	-0.189
-644.726	-3.791	-0.007	0.005
-643.711	-140.281	0.016	-0.002
-642.697	523.221	-0.097	-0.229
-641.682	800.000	-0.047	-0.202
-640.668	2.478	-0.323	-0.235
-639.653	-84.177	0.416	0.133
-638.638	-49.070	0.123	0.059
-637.624	-36.809	-0.365	-0.197
-636.609	496.781	-0.031	0.071
-635.595	800.000	0.159	-0.451
-634.580	-200.000	-0.035	-0.262
-633.565	6.562	-0.232	-0.173
-632.551	-40.984	0.211	-0.110
-631.536	800.000	-0.057	0.222
-630.522	-200.000	-0.014	0.322
-629.507	42.991	0.170	-0.156
-628.492	800.000	0.119	-0.382
-627.478	381.184	0.091	-0.187
-626.463	242.716	0.177	-0.298
-625.449	-200.000	-0.369	-0.001
-624.434	-106.247	-0.129	0.029
-623.419	26.104	0.121	0.101
-622.405	132.039	0.273	-0.353
-621.390	-200.000	0.019	0.193
-620.376	96.403	-0.164	-0.189
-619.361	-43.915	-0.121	-0.061
-618.346	319.167	0.224	0.426
-617.332	-200.000	0.007	-0.032
-616.317	-27.405	0.348	-0.203
-615.303	-20.347	0.078	0.048
-614.288	-200.000	0.006	0.308
-613.273	-29.704	0.269	0.154
-612.259	380.087	-0.054	-0.110
-611.244	225.674	-0.014	-0.023
-610.230	-200.000	-0.014	-0.108
-609.215	-78.441	-0.038	-0.013
-608.201	-95.729	0.189	0.051
-607.186	-19.320	0.162	0.101
-606.171	-73.779	-0.052	0.019
-605.157	800.000	-0.042	0.149
-604.142	-98.238	0.105	0.027
-603.128	-84.319	0.158	-0.050
-602.113	-101.441	-0.220	-0.054
-601.098	-200.000	-0.021	-0.256
-600.084	259.458	0.087	0.151
-599.069	-12.940	-0.208	0.136
-598.055	-158.228	0.132	-0.008
-597.040	-96.462	-0.262	0.070
-596.025	-200.000	-0.025	0.187
-595.011	800.000	0.036	-0.099
-593.996	-96.950	-0.328	0.086
-592.982	-200.000	-0.067	-0.340
-591.967	-188.224	-0.143	-0.002
-590.952	-200.000	-0.037	-0.266
-589.938	-21.633	0.421	-0.257
-588.923	45.292	0.170	-0.158
-587.909	-118.363	0.460	-0.082
-586.894	-200.000	-0.011	0.330
-585.879	-145.811	0.388	0.035
-584.865	-87.027	-0.152	-0.046
-583.850	-102.280	0.236	0.057
-582.836	-18.117	0.126	0.079
-581.821	227.722	-0.155	0.252
-580.806	-200.000	0.036	0.176
-579.792	83.117	0.309	-0.338
-578.777	-113.561	0.043	-0.009
-577.763	800.000	0.126	0.405
-576.748	290.189	0.180	-0.328
-575.733	-107.307	0.116	-0.026
-574.719	-5.381	-0.209	-0.144
-573.704	98.421	-0.273	-0.316
-572.690	88.383	-0.058	-0.064
-571.675	174.557	-0.171	-0.248
-570.661	234.372	0.073	-0.120
-569.646	-200.000	-0.011	-0.202
-568.631	79.167	-0.172	-0.185
-567.617	-155.812	0.337	0.022
-566.602	227.063	-0.079	0.129
-565.588	-200.000	-0.018	-0.293
-564.573	-130.972	0.092	-0.012
-563.558	-25.787	0.264	0.156
-562.544	656.125	0.061	0.158
-561.529	-55.507	0.122	0.055
-560.515	-82.436	-0.346	-0.113
-559.500	21.072	-0.110	-0.090
-558.485	-136.874	-0.190	0.022
-557.471	800.000	-0.041	0.152
-556.456	800.000	0.120	0.334
-555.442	-200.000	0.048	0.319
-554.427	358.170	0.217	-0.434
-553.412	-200.000	-0.065	-0.374
-552.398	-12.711	-0.259	-0.169
-551.383	48.371	-0.052	0.049
-550.369	-38.345	-0.123	-0.065
-549.354	-200.000	0.005	-0.194
-548.339	-139.577	-0.112	0.012
-547.325	72.549	0.114	-0.119
-546.310	681.561	0.067	0.174
-545.296	-97.548	0.184	-0.048
-544.281	131.649	0.354	0.456
-543.266	-27.765	0.096	-0.056
-542.252	-200.000	0.001	-0.005
-541.237	16.238	-0.205	0.162
-540.223	73.636	0.152	-0.159
-539.208	552.896	-0.069	0.166
-538.193	390.706	0.175	-0.364
-537.179	-126.881	-0.362	0.053
-536.164	-78.830	-0.099	-0.034
-535.150	-72.007	0.197	-0.073
-534.135	-163.285	-0.292	-0.014
-533.121	14.873	-0.285	-0.223
-532.106	62.872	-0.169	0.170
-531.091	-104.666	0.140	-0.032
-530.077	-83.330	-0.080	0.026
-529.062	-36.402	-0.064	0.034
-528.048	-103.001	-0.346	0.082
-527.033	-40.292	-0.377	0.197
-526.018	136.186	0.359	-0.468
-525.004	64.779	-0.091	0.092
-523.989	-90.350	-0.219	-0.064
-522.975	-119.135	-0.303	-0.053
-521.960	-52.069	-0.194	0.090
-520.945	-59.182	-0.215	0.093
-519.931	-14.305	-0.351	0.226
-518.916	112.204	0.024	0.029
-517.902	123.547	0.127	-0.160
-516.887	-83.618	-0.184	0.059
-515.872	-90.517	0.348	0.101
-514.858	-175.746	-0.214	0.006
-513.843	121.192	0.117	0.146
-512.829	-200.000	0.013	-0.100
-511.814	-23.851	-0.286	-0.171
-510.799	324.744	0.038	-0.074
-509.785	-200.000	0.033	-0.261
-508.770	452.364	0.107	-0.237
-507.756	19.099	0.109	0.088
-506.741	132.137	-0.228	0.293
-505.726	67.490	0.094	-0.096
-504.712	337.950	0.089	0.173
-503.697	315.772	0.019	-0.035
-502.683	114.299	-0.092	-0.112
-501.668	399.234	-0.072	0.151
-500.653	93.913	0.248	0.281
-499.639	24.457	0.206	-0.171
-498.624	-145.787	-0.119	0.011
-497.610	-32.521	-0.316	0.176
-496.595	-190.243	-0.179	-0.002
-495.581	211.245	0.177	-0.278
-494.566	-6.556	0.173	-0.118
-493.551	-24.981	0.098	-0.058
-492.537	800.000	0.112	-0.429
-491.522	-29.820	-0.382	0.218
-490.508	45.988	-0.243	0.225
-489.493	800.000	0.039	0.107
-488.478	432.582	-0.125	-0.272
-487.464	-26.024	-0.357	-0.210
-486.449	142.451	-0.266	-0.353
-485.435	-114.740	-0.042	-0.008
-484.420	760.143	-0.079	0.215
-483.405	340.488	0.137	-0.267
-482.391	-114.343	-0.398	-0.077
-481.376	129.373	-0.127	0.162
-480.362	-6.295	-0.049	0.034
-479.347	-109.552	-0.371	0.078
-478.332	205.335	0.112	0.173
-477.318	-139.051	0.613	0.066
-476.303	5.731	0.295	-0.218
-475.289	57.336	0.093	0.090
-474.274	54.918	-0.085	-0.082
-473.259	-178.125	0.348	0.008
-472.245	-67.041	0.080	-0.031
-471.230	-131.736	0.314	-0.041
-470.216	280.412	0.078	0.139
-469.201	-200.000	-0.004	-0.077
-468.186	35.559	0.206	-0.180
-467.172	-127.995	-0.485	-0.070
-466.157	800.000	0.079	0.236
-465.143	83.650	-0.012	0.013
-464.128	170.221	-0.083	0.119
-463.113	27.159	-0.402	-0.337
-462.099	-188.144	0.259	-0.003
-461.084	-130.209	-0.500	-0.068
-460.070	-200.000	0.025	-0.136
-459.055	128.183	0.109	0.138
-458.040	-200.000	0.017	0.102
-457.026	-116.448	-0.261	0.048
-456.011	92.659	-0.082	0.093
-454.997	-200.000	-0.016	0.280
-453.982	-91.049	-0.230	0.066
-452.968	-49.617	-0.126	-0.060
-451.953	210.732	0.156	-0.245
-450.938	210.713	-0.173	0.271
-449.924	195.448	0.179	-0.271
-448.909	-200.000	0.061	-0.304
-447.895	-200.000	-0.020	-0.180
-446.880	99.522	0.031	0.036
-445.865	-136.964	0.131	0.015
-444.851	-186.303	-0.087	-0.001
-443.836	-200.000	-0.015	0.176
-442.822	316.629	-0.066	-0.124
-441.807	-178.435	0.203	0.005
-440.792	-78.605	-0.121	-0.041
-439.778	-19.549	0.041	-0.025
-438.763	149.783	-0.054	-0.073
-437.749	86.985	-0.180	0.199
-436.734	-79.123	-0.131	0.044
-435.719	4.722	0.179	-0.132
-434.705	93.349	-0.041	0.046
-433.690	-200.000	0.268	-0.001
-432.676	119.233	0.213	0.262
-431.661	-200.000	0.077	-0.473
-430.646	149.580	-0.193	-0.260
-429.632	-35.956	0.405	0.219
-428.617	28.982	-0.060	-0.051
-427.603	-27.947	-0.129	0.075
-426.588	-58.165	0.124	0.054
-425.573	-5.633	-0.137	0.094
-424.559	-200.000	-0.017	-0.321
-423.544	161.536	-0.033	0.046
-422.530	763.833	0.041	0.110
-421.515	-87.927	0.229	0.069
-420.500	-33.082	0.342	-0.189
-419.486	190.550	-0.074	-0.111
-418.471	-81.576	-0.137	-0.045
-417.457	213.976	-0.150	0.236
-416.442	267.311	-0.068	-0.119
-415.428	43.428	-0.315	-0.287
-414.413	800.000	0.044	-0.132
-413.398	-77.450	-0.062	0.021
-412.384	35.642	0.303	-0.266
-411.369	-29.627	0.202	-0.115
-410.355	30.396	0.097	0.083
-409.340	-105.139	-0.177	-0.040
-408.325	-42.648	0.133	-0.068
-407.311	14.100	-0.400	0.311
-406.296	492.316	-0.048	0.109
-405.282	55.495	0.047	-0.046
-404.267	22.075	0.049	-0.040
-403.252	94.075	-0.170	-0.193
-402.238	-20.851	0.362	-0.221
-401.223	-121.211	-0.273	-0.045
-400.209	124.598	0.114	-0.143
-399.194	204.436	-0.041	-0.063
-398.179	20.052	-0.249	0.200
-397.165	-153.525	-0.151	-0.010
-396.150	-4.888	-0.236	0.162
-395.136	-107.814	0.249	-0.054
-394.121	720.402	-0.045	0.118
-393.106	-6.107	-0.106	-0.072
-392.092	-130.951	0.369	0.049
-391.077	-200.000	-0.021	0.159
-390.063	17.697	-0.134	0.106
-389.048	-73.019	0.114	0.042
-388.033	-200.000	-0.006	-0.035
-387.019	-61.553	-0.035	-0.015
-386.004	-87.178	0.083	-0.025
-384.990	800.000	0.102	0.392
-383.975	103.631	0.156	0.182
-382.960	-37.240	-0.202	0.107
-381.946	-30.545	-0.303	0.171
-380.931	208.139	0.053	0.082
-379.917	-108.712	-0.112	0.024
-378.902	-81.701	0.560	0.183
-377.888	800.000	0.053	-0.187
-376.873	-60.772	0.124	-0.052
-375.858	-200.000	-0.023	0.256
-374.844	-1.054	-0.122	-0.086
-373.829	131.039	-0.023	-0.030
-372.815	84.967	-0.019	-0.021
-371.800	89.864	-0.192	0.214
-370.785	-27.505	0.118	0.068
-369.771	800.000	0.026	-0.087
-368.756	-200.000	-0.002	0.068
-367.742	111.030	0.235	0.282
-366.727	-38.045	0.168	0.089
-365.712	-200.000	0.045	-0.240
-364.698	-12.777	0.172	-0.112
-363.683	185.931	-0.107	-0.159
-362.669	-200.000	-0.038	-0.176
-361.654	59.776	0.183	-0.180
-360.639	-200.000	0.045	-0.283
-359.625	-18.883	0.220	-0.136
-358.610	62.400	-0.113	-0.113
-357.596	505.948	-0.107	-0.248
-356.581	-34.620	-0.198	0.108
-355.566	100.912	-0.126	-0.146
-354.552	800.000	0.053	-0.199
-353.537	-200.000	0.017	0.254
-352.523	-146.343	0.319	-0.028
-351.508	-90.183	0.319	0.092
-350.493	128.718	-0.078	0.099
-349.479	-200.000	0.006	-0.261
-348.464	-29.438	-0.261	-0.149
-347.450	-131.619	-0.123	0.016
-346.435	-138.743	0.254	0.028
-345.420	800.000	0.009	-0.032
-344.406	2.263	0.373	-0.268
-343.391	98.844	0.166	0.190
-342.377	-159.428	-0.313	-0.017
-341.362	-200.000	0.087	-0.397
-340.348	800.000	0.122	-0.345
-339.333	399.215	-0.189	-0.393
-338.318	38.464	-0.115	0.102
-337.304	25.773	0.099	-0.082
-336.289	122.683	-0.087	0.108
-335.275	800.000	0.048	0.174
-334.260	546.193	0.077	0.184
-333.245	-111.690	0.091	-0.018
-332.231	60.303	-0.120	0.118
-331.216	-115.059	0.016	0.003
-330.202	800.000	-0.071	0.244
-329.187	392.374	0.138	0.285
-328.172	50.813	0.194	-0.183
-327.158	62.134	0.056	-0.055
-326.143	-141.778	-0.180	-0.018
-325.129	-200.000	0.082	0.384
-324.114	168.843	-0.123	-0.174
-323.099	13.426	0.160	-0.124
-322.085	116.221	-0.252	0.307
-321.070	223.393	0.129	0.207
-320.056	-44.686	0.324	-0.161
-319.041	-151.649	0.303	0.022
-318.026	-128.899	-0.257	0.036
-317.012	-57.316	0.117	-0.051
-315.997	146.597	0.130	0.174
-314.983	-143.215	0.232	0.022
-313.968	511.387	-0.056	0.129
-312.953	63.146	-0.214	0.213
-311.939	381.009	-0.063	0.128
-310.924	-18.172	-0.217	0.135
-309.910	-15.529	0.116	-0.074
-308.895	119.988	0.295	-0.364
-307.880	0.648	-0.313	0.222
-306.866	800.000	0.128	-0.371
-305.851	5.464	-0.270	-0.198
-304.837	-175.953	0.374	0.010
-303.822	177.175	0.120	-0.173
-302.807	800.000	-0.045	0.123
-301.793	491.695	-0.105	0.239
-300.778	332.865	0.153	-0.294
-299.764	-200.000	0.016	-0.144
-298.749	-99.226	-0.137	-0.034
-297.735	423.010	-0.085	0.182
-296.720	36.096	-0.062	-0.054
-295.705	-126.301	0.169	-0.025
-294.691	-127.431	0.426	-0.061
-293.676	-55.550	0.200	0.089
-292.662	39.177	-0.354	-0.314
-291.647	800.000	-0.020	-0.064
-290.632	316.516	0.020	-0.038
-289.618	-20.070	0.201	0.123
-288.603	159.456	-0.105	0.145
-287.589	711.833	-0.099	0.260
-286.574	296.160	0.131	0.238
-285.559	498.702	-0.119	0.272
-284.545	338.156	0.150	0.290
-283.530	-97.431	-0.067	0.017
-282.516	768.618	0.094	0.252
-281.501	-38.462	-0.058	0.030
-280.486	154.891	0.028	0.039
-279.472	1.791	0.057	0.040
-278.457	74.746	-0.141	-0.147
-277.443	16.346	0.091	0.071
-276.428	75.359	0.202	0.211
-275.413	-49.823	-0.171	0.080
-274.399	297.477	-0.148	0.269
-273.384	800.000	0.061	-0.182
-272.370	-200.000	0.074	0.509
-271.355	-75.513	-0.160	0.056
-270.340	-2.484	0.198	0.137
-269.326	80.630	-0.020	0.022
-268.311	-110.602	0.386	-0.079
-267.297	800.000	0.090	0.248
-266.282	-126.098	0.335	0.050
-265.267	-15.865	0.206	0.130
-264.253	-39.027	-0.068	-0.036
-263.238	-111.822	-0.168	0.034
-262.224	-62.510	0.360	0.148
-261.209	-200.000	0.037	-0.816
-260.195	298.454	-0.120	-0.219
-259.180	-67.041	0.191	-0.075
-258.165	-200.000	0.013	0.250
-257.151	-103.781	-0.130	0.030
-256.136	26.547	-0.252	0.209
-255.122	-200.000	-0.054	-0.236
-254.107	-103.929	-0.195	0.045
-253.092	138.298	-0.031	0.041
-252.078	-31.320	-0.420	0.234
-251.063	46.749	0.065	-0.060
-250.049	33.554	0.246	0.212
-249.034	-200.000	0.052	-0.373
-248.019	-200.000	-0.012	0.184
-247.005	800.000	0.084	-0.249
-245.990	-102.358	0.312	0.074
-244.976	-200.000	-0.002	0.049
-243.961	93.474	-0.208	-0.233
-242.946	-177.062	-0.028	0.001
-241.932	31.300	-0.143	-0.122
-240.917	-200.000	-0.014	0.178
-239.903	-200.000	0.064	0.523
-238.888	-200.000	-0.041	-0.203
-237.873	800.000	-0.044	0.126
-236.859	-200.000	-0.047	0.241
-235.844	-107.501	-0.261	0.057
-234.830	190.359	0.069	0.103
-233.815	-64.145	0.055	0.022
-232.800	126.896	-0.204	0.256
-231.786	-23.208	-0.322	-0.192
-230.771	410.808	0.071	0.149
-229.757	120.762	-0.273	-0.336
-228.742	-200.000	-0.044	-0.327
-227.727	-18.651	-0.077	-0.047
-226.713	800.000	0.031	-0.098
-225.698	118.123	-0.197	0.240
-224.684	-200.000	-0.007	0.036
-223.669	151.216	-0.016	0.021
-222.655	27.053	-0.282	0.234
-221.640	-101.951	-0.123	0.029
-220.625	-56.158	-0.344	0.152
-219.611	-112.009	-0.215	-0.043
-218.596	389.981	0.168	0.344
-217.582	-54.147	-0.128	-0.058
-216.567	-143.172	0.460	0.044
-215.552	-113.931	-0.213	0.041
-214.538	421.603	0.092	-0.194
-213.523	13.180	-0.264	0.203
-212.509	-155.132	-0.335	-0.022
-211.494	-154.699	0.299	0.020
-210.479	-200.000	0.005	-0.090
-209.465	419.187	-0.054	-0.114
-208.450	338.250	0.064	0.122
-207.436	800.000	0.110	-0.361
-206.421	-200.000	-0.006	-0.120
-205.406	229.609	0.064	-0.103
-204.392	268.859	0.063	-0.109
-203.377	-150.706	-0.194	0.015
-202.363	800.000	-0.027	0.076
-201.348	-155.582	0.155	0.010
-200.333	-77.632	0.150	-0.051
-199.319	-200.000	-0.032	0.157
-198.304	29.055	0.081	-0.068
-197.290	559.687	-0.129	0.309
-196.275	-112.114	0.147	-0.029
-195.260	-200.000	0.003	-0.131
-194.246	35.625	-0.070	0.061
-193.231	-40.367	-0.134	-0.069
-192.217	800.000	-0.062	0.230
-191.202	-113.773	0.205	0.039
-190.187	800.000	-0.059	0.179
-189.173	48.104	-0.124	-0.115
-188.158	707.663	-0.101	0.264
-187.144	-89.277	0.303	0.088
-186.129	-37.273	-0.290	0.153
-185.114	800.000	-0.037	0.112
-184.100	149.795	-0.176	0.235
-183.085	441.620	0.078	0.168
-182.071	468.722	0.047	0.104
-181.056	75.762	-0.110	0.114
-180.042	44.225	0.303	0.275
-179.027	-90.624	-0.221	0.063
-178.012	-50.085	0.148	-0.069
-176.998	-41.855	0.232	-0.118
-175.983	-83.311	0.122	0.039
-174.969	230.492	0.097	0.157
-173.954	-69.805	-0.292	-0.110
-172.939	-200.000	-0.019	0.211
-171.925	800.000	0.020	-0.064
-170.910	-106.124	0.136	0.030
-169.896	-99.361	-0.327	0.081
-168.881	155.384	0.112	0.152
-167.866	297.862	0.104	0.189
-166.852	688.934	-0.070	0.180
-165.837	253.453	0.054	-0.091
-164.823	-12.829	-0.041	-0.027
-163.808	-200.000	0.005	0.163
-162.793	286.442	0.064	0.114
-161.779	800.000	-0.033	0.097
-160.764	-22.784	0.326	0.194
-159.750	-200.000	-0.055	-0.281
-158.735	10.112	0.211	0.159
-157.720	-21.690	0.262	0.157
-156.706	-89.351	-0.249	-0.072
-155.691	-200.000	0.013	0.291
-154.677	-31.858	-0.176	-0.097
-153.662	-0.128	-0.153	0.108
-152.647	412.985	0.056	0.117
-151.633	157.636	-0.096	-0.132
-150.618	235.507	-0.139	-0.227
-149.604	-150.080	0.148	0.011
-148.589	-22.255	0.141	0.085
-147.574	39.845	0.069	-0.061
-146.560	-106.837	0.321	0.070
-145.545	87.747	0.035	0.039
-144.531	-39.153	-0.474	0.246
-143.516	12.686	-0.053	0.041
-142.502	800.000	0.047	-0.191
-141.487	71.849	-0.266	-0.273
-140.472	-92.700	0.116	-0.032
-139.458	0.482	-0.226	-0.159
-138.443	-57.069	0.059	0.026
-137.429	800.000	-0.060	-0.202
-136.414	-200.000	0.013	0.131
-135.399	-200.000	0.057	-0.297
-134.385	18.032	0.081	-0.063
-133.370	-200.000	0.023	0.205
-132.356	-200.000	-0.040	-0.177
-131.341	184.046	0.076	-0.112
-130.326	800.000	0.028	0.090
-129.312	800.000	0.036	0.143
-128.297	296.033	0.064	-0.115
-127.283	460.269	0.144	0.317
-126.268	-17.148	-0.140	0.087
-125.253	-200.000	0.004	0.159
-124.239	26.765	0.084	0.069
-123.224	-200.000	0.017	0.191
-122.210	-53.686	-0.130	-0.058
-121.195	152.329	0.115	-0.155
-120.180	-200.000	-0.209	-0.001
-119.166	-200.000	0.005	0.207
-118.151	-56.338	0.142	-0.062
-117.137	213.746	-0.101	0.157
-116.122	215.590	-0.032	-0.050
-115.107	-200.000	0.018	-0.156
-114.093	91.867	-0.136	-0.150
-113.078	-54.153	0.144	0.064
-112.064	153.431	0.058	0.078
-111.049	100.596	-0.107	0.123
-110.034	-180.481	0.091	-0.002
-109.020	-55.481	0.062	-0.027
-108.005	-2.901	0.219	0.151
-106.991	-3.244	0.247	-0.169
-105.976	-200.000	0.190	0.001
-104.962	-118.233	-0.225	0.039
-103.947	142.215	-0.053	0.070
-102.932	-33.576	-0.085	-0.046
-101.918	17.382	-0.166	-0.130
-100.903	800.000	0.052	0.214
-99.889	415.857	0.141	-0.296
-98.874	366.258	-0.026	-0.052
-97.859	800.000	0.028	-0.115
-96.845	335.378	-0.026	0.050
-95.830	-91.351	0.078	-0.022
-94.816	-197.123	0.369	0.002
-93.801	-168.330	0.229	0.009
-92.786	181.030	-0.149	-0.216
-91.772	-143.753	0.316	-0.029
-90.757	800.000	-0.026	-0.086
-89.743	-200.000	0.004	0.178
-88.728	160.518	-0.044	0.060
-87.713	105.919	0.231	0.269
-86.699	-200.000	0.002	-0.058
-85.684	32.151	0.241	-0.204
-84.670	-200.000	0.047	0.257
-83.655	160.999	-0.116	0.159
-82.640	-33.936	-0.165	0.090
-81.626	800.000	0.056	0.209
-80.611	-71.348	-0.405	0.149
-79.597	-103.230	-0.080	0.019
-78.582	-109.515	0.477	-0.099
-77.567	-89.915	-0.090	-0.026
-76.553	69.779	0.096	0.097
-75.538	769.510	0.164	0.439
-74.524	-77.281	0.143	0.049
-73.509	515.840	0.095	0.219
-72.494	-155.797	0.319	-0.020
-71.480	-35.652	0.204	-0.109
-70.465	-200.000	0.032	-0.290
-69.451	800.000	-0.051	-0.180
-68.436	-14.702	0.067	-0.042
-67.422	-200.000	0.002	0.072
-66.407	-200.000	0.001	0.009
-65.392	61.298	0.028	0.028
-64.378	800.000	-0.057	0.197
-63.363	308.666	-0.089	0.164
-62.349	-136.753	0.074	0.008
-61.334	-16.231	-1.198	-0.748
-60.319	-2.566	0.664	0.457
-59.305	436.439	-0.674	-1.443
-58.290	159.658	0.867	1.186
-57.276	-200.000	0.308	1.645
-56.261	-200.000	115.716	643.295
-55.246	500.231	1530.187	3469.322
-54.232	173.812	2707.975	3842.598
-53.217	95.853	2320.036	2603.714
-52.203	33.080	2065.489	1759.499
-51.188	28.561	1980.606	1646.665
-50.173	27.207	1963.838	1620.599
-49.159	43.976	2024.713	1823.291
-48.144	43.073	2039.041	1827.937
-47.130	28.948	1998.141	1664.479
-46.115	26.718	1987.512	1635.467
-45.100	26.654	1984.511	1632.355
-44.086	26.573	1982.692	1630.061
-43.071	26.571	1979.861	1627.656
-42.057	26.508	1977.667	1625.215
-41.042	26.630	1975.335	1624.329
-40.027	26.615	1973.961	1623.001
-39.013	26.634	1972.354	1621.787
-37.998	26.654	1970.659	1620.509
-36.984	26.577	1968.551	1618.024
-35.969	26.592	1966.646	1616.523
-34.954	26.584	1965.146	1615.154
-33.940	26.646	1963.389	1614.202
-32.925	26.662	1962.358	1613.435
-31.911	26.791	1960.210	1612.749
-30.896	26.618	1959.149	1610.279
-29.881	26.679	1957.196	1609.151
-28.867	26.744	1955.683	1608.413
-27.852	26.787	1953.480	1606.927
-26.838	26.803	1951.680	1605.523
-25.823	26.701	1950.393	1603.491
-24.809	26.784	1947.825	1602.050
-23.794	26.678	1947.167	1600.512
-22.779	26.645	1945.140	1598.491
-21.765	26.736	1943.547	1597.924
-20.750	26.740	1941.688	1596.366
-19.736	26.757	1939.971	1595.043
-18.721	26.677	1938.467	1593.035
-17.706	26.719	1936.999	1592.138
-16.692	26.674	1935.535	1590.474
-15.677	26.700	1933.461	1588.931
-14.663	26.757	1932.715	1588.760
-13.648	26.806	1930.795	1587.542
-12.633	26.686	1929.699	1585.534
-11.619	26.700	1928.158	1584.323
-10.604	26.701	1926.843	1583.187
-9.590	26.605	1925.922	1581.532
-8.575	26.677	1924.455	1580.896
-7.560	26.689	1922.840	1579.608
-6.546	26.753	1921.781	1579.232
-5.531	26.642	1920.525	1577.173
-4.517	26.712	1918.903	1576.389
-3.502	26.587	1918.099	1574.575
-2.487	26.707	1917.039	1574.683
-1.473	26.691	1916.193	1573.793
-0.458	26.743	1911.006	1569.917
0.556	27.431	1891.360	1540.766
1.571	23.144	1872.562	1489.321
2.586	19.030	1895.940	1472.640
3.600	18.106	1930.937	1491.630
4.615	17.636	1923.980	1482.041
5.629	13.407	1823.408	1369.518
6.644	6.529	1711.109	1231.481
7.659	3.422	1679.031	1184.440
8.673	3.170	1675.751	1180.091
9.688	3.143	1674.658	1179.014
10.702	3.129	1673.156	1177.743
11.717	3.237	1670.111	1176.323
12.731	3.592	1668.980	1178.132
13.746	8.381	1679.950	1222.495
14.761	16.118	1696.909	1294.325
15.775	20.053	1704.024	1329.908
16.790	20.442	1702.823	1331.838
17.804	19.530	1700.240	1322.714
18.819	18.575	1696.708	1312.543
19.834	17.903	1694.388	1305.497
20.848	17.777	1692.728	1303.134
21.863	17.506	1692.214	1300.558
22.877	17.376	1690.525	1298.149
23.892	17.197	1688.961	1295.471
24.907	17.153	1687.571	1293.957
25.921	17.055	1687.040	1292.685
26.936	17.108	1686.013	1292.191
27.950	17.153	1685.083	1291.702
28.965	17.166	1684.398	1291.165
29.980	17.271	1683.721	1291.330
30.994	17.335	1682.796	1290.991
32.009	17.392	1681.410	1290.244
33.023	17.419	1681.043	1290.055
34.038	17.501	1679.765	1289.578
35.053	17.443	1678.949	1288.402
36.067	17.303	1677.762	1286.318
37.082	17.271	1676.092	1284.683
38.096	17.279	1675.050	1283.828
39.111	17.306	1674.668	1283.622
40.126	17.356	1673.675	1283.129
41.140	17.353	1672.704	1282.247
42.155	17.240	1670.769	1279.797
43.169	16.939	1669.521	1276.466
44.184	16.878	1668.400	1275.033
45.199	16.854	1666.818	1273.535
46.213	16.892	1665.837	1272.956
47.228	16.970	1664.824	1272.658
48.242	17.086	1663.752	1272.592
49.257	17.114	1663.064	1272.168
50.271	17.311	1661.627	1272.428
51.286	17.179	1660.676	1270.599
52.301	17.142	1659.318	1269.173
53.315	17.184	1657.609	1268.068
54.330	17.240	1655.783	1266.970
55.344	17.032	1654.740	1264.517
56.359	16.960	1653.242	1262.723
57.374	16.951	1652.112	1261.678
58.388	17.041	1650.521	1261.023
59.403	16.966	1649.422	1259.517
60.417	16.909	1647.729	1257.686
61.432	16.880	1647.074	1256.863
62.447	16.852	1645.729	1255.513
63.461	16.767	1644.621	1253.932
64.476	16.728	1643.586	1252.740
65.490	16.734	1642.349	1251.734
66.505	16.779	1641.148	1251.035
67.520	16.727	1639.760	1249.487
68.534	16.747	1638.898	1248.866
69.549	16.784	1638.076	1248.398
70.563	16.816	1636.720	1247.491
71.578	16.764	1635.792	1246.290
72.593	16.663	1634.615	1244.546
73.607	16.586	1633.442	1242.974
74.622	16.539	1632.302	1241.654
75.636	16.568	1631.262	1240.965
76.651	16.614	1630.589	1240.680
77.666	16.634	1629.631	1239.990
78.680	16.686	1628.311	1239.252
79.695	16.715	1627.887	1239.033
80.709	16.693	1627.027	1238.105
81.724	16.767	1626.193	1237.904
82.739	16.963	1625.149	1238.435
83.753	17.012	1624.337	1238.064
84.768	17.070	1623.919	1238.057
85.782	17.234	1623.248	1238.632
86.797	17.216	1622.221	1237.608
87.812	17.299	1621.688	1237.695
88.826	17.331	1619.954	1236.496
89.841	17.213	1619.095	1234.870
90.855	17.250	1617.886	1234.107
91.870	17.224	1617.100	1233.209
92.884	17.373	1616.081	1233.406
93.899	17.347	1615.494	1232.661
94.914	17.409	1613.557	1231.519
95.928	17.436	1612.705	1230.958
96.943	17.548	1611.164	1230.479
97.957	17.348	1610.168	1228.168
98.972	17.377	1608.249	1226.805
99.987	17.350	1606.588	1225.232
101.001	17.352	1605.030	1223.953
102.016	17.333	1603.916	1222.859
103.030	17.247	1602.913	1221.364
104.045	17.324	1601.649	1220.848
105.060	17.379	1600.161	1220.003
106.074	17.338	1598.297	1218.178
107.089	17.114	1597.104	1215.561
108.103	16.940	1595.519	1213.001
109.118	16.839	1593.512	1210.647
110.133	16.828	1591.678	1209.066
111.147	16.829	1590.600	1208.149
112.162	16.843	1589.552	1207.341
113.176	16.905	1587.907	1206.432
114.191	16.902	1586.698	1205.381
115.206	16.918	1585.487	1204.471
116.220	16.966	1584.468	1203.931
117.235	16.940	1583.439	1202.859
118.249	16.896	1581.823	1201.212
119.264	16.941	1580.386	1200.333
120.279	16.814	1579.076	1198.336
121.293	16.788	1577.677	1196.979
122.308	16.754	1575.998	1195.362
123.322	16.729	1574.225	1193.738
124.337	16.811	1572.045	1192.554
125.352	16.651	1571.329	1190.782
126.366	16.613	1570.237	1189.578
127.381	16.623	1569.266	1188.806
128.395	16.698	1568.400	1188.574
129.410	16.603	1566.776	1186.575
130.424	16.699	1565.638	1186.276
131.439	16.677	1564.534	1185.181
132.454	16.825	1562.779	1184.782
133.468	16.846	1561.682	1183.993
134.483	16.940	1560.296	1183.492
135.497	16.916	1559.109	1182.319
136.512	16.844	1558.358	1181.144
137.527	16.951	1556.351	1180.264
138.541	16.985	1555.216	1179.537
139.556	17.027	1553.665	1178.545
140.570	17.053	1552.500	1177.737
141.585	17.078	1551.502	1177.050
142.600	17.208	1550.413	1177.023
143.614	17.237	1549.442	1176.378
144.629	17.297	1548.521	1175.990
145.643	17.408	1546.821	1175.362
146.658	17.489	1545.603	1174.891
147.673	17.407	1543.637	1172.728
148.687	17.303	1542.068	1170.718
149.702	17.243	1540.390	1168.928
150.716	17.164	1538.772	1167.051
151.731	17.132	1537.533	1165.790
152.746	17.071	1536.334	1164.363
153.760	17.041	1534.986	1163.028
154.775	17.095	1534.128	1162.647
155.789	17.155	1532.917	1162.039
156.804	17.392	1531.089	1162.171
157.819	17.305	1529.992	1160.636
158.833	17.316	1529.075	1159.918
159.848	17.394	1528.160	1159.652
160.862	17.464	1526.700	1158.915
161.877	17.543	1525.723	1158.613
162.892	17.388	1524.123	1156.243
163.906	17.072	1523.369	1153.416
164.921	17.104	1521.790	1152.336
165.935	17.077	1520.527	1151.096
166.950	17.139	1519.416	1150.576
167.964	17.240	1518.264	1150.285
168.979	17.229	1517.424	1149.472
169.994	17.157	1516.192	1147.946
171.008	17.198	1514.926	1147.163
172.023	17.080	1514.333	1145.822
173.037	17.273	1513.027	1146.034
174.052	17.345	1511.930	1145.586
175.067	17.414	1510.544	1144.897
176.081	17.370	1509.324	1143.573
177.096	17.224	1507.986	1141.478
178.110	17.166	1506.177	1139.621
179.125	17.150	1505.593	1138.967
180.140	17.165	1504.829	1138.390
181.154	17.253	1503.921	1138.191
182.169	17.180	1503.217	1137.074
183.183	17.415	1501.372	1137.143
184.198	17.471	1500.799	1136.982
185.213	17.535	1499.558	1136.371
186.227	17.475	1498.855	1135.336
187.242	17.572	1497.537	1134.888
188.256	17.540	1496.435	1133.736
189.271	17.680	1495.365	1133.760
190.286	17.706	1494.497	1133.168
191.300	17.639	1493.615	1131.960
192.315	17.358	1491.686	1128.532
193.329	17.159	1489.880	1125.744
194.344	17.091	1489.411	1124.839
195.359	17.131	1488.407	1124.246
196.373	17.263	1487.523	1124.352
197.388	17.308	1486.839	1124.033
198.402	17.473	1485.292	1123.855
199.417	17.541	1484.406	1123.532
200.432	17.696	1483.477	1123.751
201.446	17.906	1482.615	1124.384
202.461	17.811	1482.302	1123.425
203.475	17.889	1480.767	1122.674
204.490	18.011	1479.653	1122.529
205.504	17.929	1478.233	1120.817
206.519	17.783	1477.753	1119.397
207.534	17.697	1476.096	1117.477
208.548	17.694	1474.794	1116.372
209.563	17.626	1474.239	1115.408
210.577	17.643	1473.083	1114.544
211.592	17.716	1472.091	1114.176
212.607	17.760	1471.424	1113.861
213.621	17.850	1471.329	1114.273
214.636	17.972	1469.483	1113.573
215.650	17.843	1469.129	1112.369
216.665	17.793	1467.992	1111.084
217.680	17.814	1467.237	1110.545
218.694	17.947	1466.640	1110.865
219.709	18.019	1465.977	1110.733
220.723	18.109	1464.683	1110.234
221.738	18.025	1463.274	1108.525
222.753	17.950	1462.862	1107.627
223.767	17.975	1461.892	1106.958
224.782	18.049	1460.765	1106.488
225.796	18.051	1460.431	1106.152
226.811	18.188	1459.129	1105.953
227.826	18.162	1458.533	1105.230
228.840	18.144	1457.322	1104.100
229.855	18.017	1456.462	1102.532
230.869	17.946	1455.532	1101.276
231.884	18.000	1454.379	1100.652
232.899	17.994	1453.145	1099.581
233.913	17.866	1452.154	1097.911
234.928	17.908	1450.478	1096.816
235.942	17.774	1449.251	1094.932
236.957	17.806	1448.148	1094.208
237.972	17.876	1446.923	1093.632
238.986	17.780	1445.835	1092.100
240.001	17.821	1445.053	1091.672
241.015	17.970	1443.669	1091.485
242.030	17.935	1442.412	1090.212
243.045	17.927	1441.798	1089.601
244.059	18.016	1440.983	1089.460
245.074	18.090	1440.040	1089.118
246.088	18.098	1439.284	1088.500
247.103	18.186	1438.489	1088.363
248.117	18.175	1438.118	1087.915
249.132	18.275	1437.360	1087.881
250.147	18.347	1437.127	1088.069
251.161	18.485	1436.651	1088.485
252.176	18.700	1435.821	1089.131
253.190	18.654	1435.257	1088.314
254.205	18.804	1433.768	1088.036
255.220	18.904	1432.979	1087.977
256.234	18.810	1432.773	1087.128
257.249	18.819	1431.657	1086.239
258.263	18.825	1431.085	1085.746
259.278	18.847	1430.234	1085.146
260.293	18.802	1429.052	1083.872
261.307	18.904	1427.867	1083.517
262.322	18.861	1427.446	1082.830
263.336	18.923	1427.067	1082.839
264.351	18.868	1425.873	1081.491
265.366	18.980	1424.924	1081.378
266.380	18.967	1424.129	1080.600
267.395	18.954	1423.317	1079.807
268.409	18.972	1421.832	1078.694
269.424	18.967	1420.593	1077.628
270.439	18.848	1419.970	1076.313
271.453	18.772	1419.169	1075.135
272.468	18.779	1418.065	1074.252
273.482	18.802	1416.904	1073.422
274.497	18.741	1416.024	1072.274
275.512	18.755	1415.376	1071.777
276.526	18.764	1414.410	1071.009
277.541	18.891	1413.208	1070.793
278.555	18.783	1412.857	1069.760
279.570	18.789	1412.019	1069.071
280.585	18.839	1411.006	1068.516
281.599	18.935	1410.370	1068.541
282.614	18.991	1409.607	1068.213
283.628	19.016	1408.278	1067.265
284.643	18.930	1406.986	1065.661
285.657	18.880	1405.682	1064.269
286.672	18.906	1404.632	1063.543
287.687	18.894	1403.915	1062.828
288.701	18.871	1402.725	1061.690
289.716	18.893	1402.505	1061.567
290.730	18.885	1401.858	1060.937
291.745	18.975	1400.164	1060.116
292.760	18.907	1399.807	1059.334
293.774	19.052	1398.104	1058.839
294.789	18.999	1397.423	1057.906
295.803	19.114	1397.093	1058.269
296.818	19.119	1396.197	1057.525
297.833	19.102	1394.667	1056.169
298.847	18.997	1393.750	1054.739
299.862	18.961	1392.614	1053.564
300.876	19.048	1391.793	1053.384
301.891	18.992	1391.163	1052.474
302.906	19.070	1390.339	1052.233
303.920	19.231	1389.460	1052.455
304.935	19.296	1388.911	1052.345
305.949	19.403	1388.428	1052.542
306.964	19.525	1387.466	1052.457
307.979	19.565	1386.507	1051.886
308.993	19.407	1385.327	1049.937
310.008	19.326	1384.508	1048.728
311.022	19.289	1383.400	1047.571
312.037	19.371	1383.138	1047.777
313.052	19.475	1381.428	1047.021
314.066	19.410	1380.528	1045.852
315.081	19.284	1379.516	1044.228
316.095	19.198	1378.159	1042.589
317.110	19.020	1377.217	1040.708
318.125	19.073	1376.417	1040.333
319.139	19.104	1375.296	1039.579
320.154	19.112	1374.179	1038.691
321.168	19.260	1373.216	1038.765
322.183	19.191	1372.403	1037.643
323.197	19.135	1371.496	1036.524
324.212	19.166	1370.722	1036.035
325.227	19.249	1370.041	1035.931
326.241	19.242	1369.406	1035.313
327.256	19.285	1368.242	1034.601
328.270	19.234	1367.657	1033.759
329.285	19.290	1366.474	1033.110
330.300	19.225	1365.448	1031.855
331.314	19.256	1364.439	1031.187
332.329	19.291	1363.417	1030.535
333.343	19.322	1362.523	1029.948
334.358	19.302	1361.744	1029.153
335.373	19.400	1361.326	1029.330
336.387	19.468	1360.286	1028.859
337.402	19.488	1359.508	1028.299
338.416	19.586	1359.108	1028.490
339.431	19.556	1358.415	1027.690
340.446	19.702	1357.538	1027.805
341.460	19.611	1356.854	1026.654
342.475	19.771	1356.015	1026.882
343.489	19.900	1355.114	1026.874
344.504	19.919	1353.895	1025.971
345.519	19.888	1353.477	1025.382
346.533	20.006	1352.264	1025.067
347.548	20.017	1351.322	1024.329
348.562	20.046	1350.660	1023.909
349.577	20.070	1349.897	1023.379
350.592	20.018	1348.840	1022.181
351.606	19.848	1347.985	1020.442
352.621	19.770	1346.658	1018.890
353.635	19.703	1345.535	1017.551
354.650	19.626	1344.681	1016.362
355.665	19.552	1343.524	1014.963
356.679	19.603	1342.955	1014.743
357.694	19.694	1341.615	1014.177
358.708	19.747	1340.562	1013.599
359.723	19.787	1339.800	1013.170
360.738	19.898	1338.453	1012.712
361.752	19.856	1337.794	1011.879
362.767	19.865	1336.620	1010.953
363.781	19.940	1335.233	1010.254
364.796	19.944	1334.550	1009.672
365.810	19.965	1334.272	1009.489
366.825	20.008	1333.613	1009.153
367.840	20.124	1333.275	1009.483
368.854	20.217	1332.367	1009.248
369.869	20.360	1331.599	1009.408
370.883	20.377	1331.241	1009.146
371.898	20.304	1330.349	1007.959
372.913	20.242	1329.665	1006.993
373.927	20.101	1329.225	1005.748
374.942	20.249	1327.587	1005.283
375.956	20.290	1327.725	1005.535
376.971	20.332	1326.338	1004.636
377.986	20.312	1325.380	1003.705
379.000	20.348	1324.399	1003.082
380.015	20.370	1323.554	1002.481
381.029	20.391	1323.504	1002.474
382.044	20.523	1322.555	1002.428
383.059	20.551	1321.776	1001.912
384.073	20.564	1321.043	1001.342
385.088	20.564	1320.265	1000.663
386.102	20.537	1319.509	999.850
387.117	20.575	1318.914	999.525
388.132	20.483	1318.255	998.413
389.146	20.426	1317.186	997.187
390.161	20.225	1316.067	995.096
391.175	20.242	1315.454	994.640
392.190	20.195	1314.685	993.705
393.205	20.469	1313.655	994.406
394.219	20.492	1312.926	993.897
395.234	20.623	1311.730	993.650
396.248	20.469	1310.259	991.570
397.263	20.452	1309.120	990.526
398.278	20.332	1308.262	989.107
399.292	20.311	1306.854	987.836
400.307	20.223	1305.560	986.268
401.321	20.224	1304.436	985.339
402.336	20.251	1303.489	984.687
403.350	20.375	1302.475	984.538
404.365	20.286	1301.446	983.168
405.380	20.264	1300.774	982.446
406.394	20.337	1300.030	982.214
407.409	20.487	1299.068	982.247
408.423	20.577	1298.322	982.103
409.438	20.644	1297.929	982.100
410.453	20.627	1297.411	981.521
411.467	20.688	1296.855	981.360
412.482	20.809	1296.005	981.312
413.496	20.899	1295.555	981.393
414.511	20.825	1294.980	980.452
415.526	21.001	1293.921	980.552
416.540	21.008	1293.333	980.059
417.555	20.965	1292.744	979.287
418.569	21.043	1292.196	979.224
419.584	20.953	1291.636	978.204
420.599	20.880	1290.974	977.208
421.613	145.869	1435.491	1797.459
422.628	140.834	1456.501	1797.532
