DTS Sentinel unit serial number:	SN413079Multiplexer serial number:	ORYXHardware model number:	OX4-SRSoftware version number:	ORYX F/W v4.00 Oryx Data Collector v3.7.2.0data status	okinstallation	princeton_trtdifferential loss correction	single-endedforward channel	channel 4reverse channel	N/Adate	2019/09/13time	17:29:35forward acquisition time	60.00reverse acquisition time	0.00gamma	496.2192k internal	0.2293k external	0.2293temperature offset calibration	1.0183default loss term (dB/km)	0.3790temperature slope calibration	1.0000multiplexer offset coefficient	1.0000multiplexer slope coefficient	1.0000fibre end	0.00T internal ref (°C)	36.12T ext. ref 1 (°C)	5.24T ext. ref 2 (°C)	30.00length (m)	temperature (°C)	Stokes	anti-Stokes-747.200	-176.879	-0.204	-0.005
-746.185	-57.948	-0.265	0.119
-745.171	800.000	-0.031	0.092
-744.156	79.609	0.204	0.224
-743.142	216.243	-0.140	0.228
-742.127	-200.000	0.039	0.326
-741.112	-200.000	-0.039	-0.337
-740.098	800.000	-0.057	0.233
-739.083	330.038	-0.039	0.077
-738.069	174.728	0.164	-0.243
-737.054	-60.826	-0.533	-0.231
-736.039	199.789	-0.027	0.043
-735.025	-13.908	0.173	-0.115
-734.010	-124.489	0.226	0.036
-732.996	-169.227	-0.057	0.002
-731.981	-132.213	0.244	-0.032
-730.966	-70.093	-0.233	-0.090
-729.952	-32.829	-0.033	-0.018
-728.937	-200.000	0.010	0.109
-727.923	201.757	0.069	-0.109
-726.908	800.000	0.061	0.202
-725.894	-101.175	-0.452	-0.113
-724.879	-200.000	0.021	-0.103
-723.864	734.747	0.081	0.221
-722.850	800.000	-0.026	-0.082
-721.835	15.452	-0.177	0.142
-720.821	-103.802	-0.177	0.042
-719.806	800.000	0.111	0.319
-718.791	-148.129	-0.362	-0.031
-717.777	-143.305	0.243	0.024
-716.762	-85.592	-0.362	-0.115
-715.748	-200.000	0.000	0.015
-714.733	651.818	-0.019	-0.049
-713.718	-200.000	0.076	-0.567
-712.704	-11.871	-0.070	-0.047
-711.689	367.070	-0.141	-0.291
-710.675	-60.912	-0.287	-0.124
-709.660	-104.400	0.146	0.034
-708.645	460.439	0.177	-0.402
-707.631	70.255	-0.205	-0.217
-706.616	-88.717	0.113	0.034
-705.602	-44.813	0.159	0.081
-704.587	-66.866	-0.295	0.119
-703.572	-180.007	-0.065	-0.001
-702.558	800.000	0.034	0.133
-701.543	-11.321	-0.457	-0.308
-700.529	-44.792	-0.270	-0.138
-699.514	0.174	0.194	0.141
-698.499	-90.090	0.244	0.073
-697.485	-200.000	0.034	0.214
-696.470	-11.593	-0.197	0.132
-695.456	-6.097	0.214	0.149
-694.441	-75.085	-0.237	-0.086
-693.426	33.271	0.219	0.194
-692.412	-200.000	-0.015	-0.172
-691.397	-200.000	-0.019	-0.277
-690.383	29.394	-0.285	-0.247
-689.368	103.371	0.109	0.130
-688.354	67.166	0.180	0.187
-687.339	-98.375	-0.213	-0.056
-686.324	-91.502	-0.192	0.056
-685.310	-116.520	0.195	0.037
-684.295	800.000	0.138	0.395
-683.281	130.471	0.163	0.213
-682.266	-10.117	0.161	-0.109
-681.251	-27.391	-0.234	-0.139
-680.237	-159.370	-0.240	0.014
-679.222	43.795	-0.126	-0.117
-678.208	-200.000	0.014	0.128
-677.193	-50.953	-0.047	-0.022
-676.178	-74.178	-0.106	-0.039
-675.164	17.050	-0.180	-0.145
-674.149	658.824	-0.051	0.135
-673.135	135.455	-0.276	-0.367
-672.120	191.008	-0.050	-0.077
-671.105	-200.000	-0.011	-0.141
-670.091	-158.943	-0.283	-0.016
-669.076	-45.146	-0.230	-0.117
-668.062	-16.853	0.303	-0.196
-667.047	167.849	0.041	-0.060
-666.032	-130.716	-0.348	0.048
-665.018	-200.000	0.020	-0.203
-664.003	-56.866	0.074	0.033
-662.989	-126.832	0.278	-0.042
-661.974	-121.012	0.072	-0.012
-660.959	125.264	-0.091	0.117
-659.945	512.746	0.066	-0.156
-658.930	-66.224	-0.285	-0.116
-657.916	800.000	-0.011	0.043
-656.901	153.487	0.038	-0.053
-655.886	-200.000	-0.007	0.066
-654.872	259.122	0.044	0.078
-653.857	-148.992	-0.263	0.022
-652.843	26.841	-0.087	0.075
-651.828	800.000	-0.056	0.198
-650.814	296.451	0.076	-0.142
-649.799	-200.000	0.031	0.506
-648.784	262.662	0.061	0.108
-647.770	-77.725	0.304	-0.107
-646.755	-152.212	0.257	-0.019
-645.741	-200.000	-0.044	-0.261
-644.726	-200.000	-0.064	-0.539
-643.711	57.735	-0.192	0.191
-642.697	-25.955	0.287	0.172
-641.682	-125.354	0.183	-0.028
-640.668	115.713	0.099	0.123
-639.653	-200.000	0.025	-0.233
-638.638	22.385	-0.219	0.182
-637.624	69.352	0.149	-0.156
-636.609	-13.027	0.264	-0.175
-635.595	1.029	-0.122	0.089
-634.580	16.083	-0.066	-0.053
-633.565	-58.903	0.389	-0.171
-632.551	166.674	-0.091	0.132
-631.536	134.173	0.056	0.074
-630.522	-200.000	0.010	-0.078
-629.507	-18.062	0.275	0.175
-628.492	94.018	0.202	-0.233
-627.478	-35.717	-0.283	-0.156
-626.463	20.354	0.209	0.172
-625.449	-155.513	-0.462	0.030
-624.434	-113.144	-0.224	-0.045
-623.419	15.457	0.131	-0.104
-622.405	-200.000	0.043	0.250
-621.390	214.425	-0.035	0.056
-620.376	-15.425	-0.156	0.101
-619.361	-162.610	-0.102	-0.005
-618.346	108.805	0.150	0.183
-617.332	-36.125	0.089	-0.049
-616.317	-200.000	0.006	-0.096
-615.303	84.439	-0.116	0.129
-614.288	-149.083	-0.257	-0.021
-613.273	448.395	-0.048	-0.108
-612.259	-120.667	-0.249	0.043
-611.244	198.440	0.083	0.129
-610.230	-200.000	-0.024	0.127
-609.215	-29.975	0.242	-0.140
-608.201	124.737	-0.075	0.096
-607.186	4.254	0.445	0.332
-606.171	-200.000	-0.003	-0.272
-605.157	-103.861	-0.163	-0.039
-604.142	238.599	0.046	0.078
-603.128	-113.233	0.356	-0.071
-602.113	82.481	-0.127	-0.140
-601.098	-24.147	-0.083	-0.050
-600.084	420.280	-0.071	-0.156
-599.069	207.179	-0.130	-0.207
-598.055	200.914	0.108	-0.170
-597.040	-124.281	-0.210	0.033
-596.025	-152.366	0.291	-0.021
-595.011	-38.572	-0.290	0.156
-593.996	-200.000	-0.004	0.093
-592.982	340.624	0.170	0.338
-591.967	455.597	-0.127	0.287
-590.952	-145.120	-0.425	0.039
-589.938	-181.411	-0.205	-0.004
-588.923	11.436	-0.193	-0.150
-587.909	-20.165	-0.157	0.098
-586.894	-200.000	-0.089	-0.465
-585.879	-89.647	-0.128	0.038
-584.865	-52.339	0.229	-0.108
-583.850	-32.361	-0.198	-0.113
-582.836	-200.000	0.037	0.260
-581.821	-133.243	-0.202	0.026
-580.806	800.000	-0.028	-0.104
-579.792	-200.000	0.063	0.414
-578.777	5.974	0.114	0.086
-577.763	632.885	-0.173	-0.444
-576.748	-14.441	0.102	0.067
-575.733	201.958	0.313	0.490
-574.719	30.847	0.221	-0.192
-573.704	30.042	-0.092	0.080
-572.690	-18.838	0.173	0.110
-571.675	-6.939	0.261	-0.180
-570.661	35.698	0.285	-0.254
-569.646	1.883	0.184	-0.135
-568.631	40.324	-0.167	-0.152
-567.617	-200.000	-0.013	-0.194
-566.602	-165.352	0.351	0.016
-565.588	-119.310	-0.338	0.060
-564.573	-112.677	-0.347	0.070
-563.558	59.440	-0.171	0.171
-562.544	-91.895	-0.474	-0.137
-561.529	-200.000	0.012	-0.137
-560.515	800.000	-0.028	0.110
-559.500	435.988	-0.061	0.134
-558.485	96.664	-0.204	0.238
-557.471	-65.929	0.232	0.094
-556.456	21.656	0.030	0.025
-555.442	-150.026	0.027	0.002
-554.427	-78.625	0.026	0.009
-553.412	20.034	-0.162	-0.133
-552.398	-164.707	0.475	-0.022
-551.383	-200.000	0.034	0.152
-550.369	262.357	0.096	0.169
-549.354	-30.362	0.033	-0.019
-548.339	-145.216	0.009	0.001
-547.325	-200.000	0.005	0.071
-546.310	-200.000	-0.022	-0.122
-545.296	-2.026	-0.123	0.088
-544.281	18.295	0.151	0.122
-543.266	218.727	-0.129	-0.209
-542.252	12.469	-0.254	-0.199
-541.237	-62.959	0.053	-0.022
-540.223	369.476	-0.059	-0.122
-539.208	-200.000	0.021	0.179
-538.193	278.248	0.107	-0.194
-537.179	631.029	-0.027	0.070
-536.164	290.828	-0.156	-0.287
-535.150	800.000	-0.091	-0.298
-534.135	-66.450	-0.177	-0.071
-533.121	-91.430	-0.210	0.061
-532.106	800.000	-0.105	0.350
-531.091	-153.831	-0.193	0.013
-530.077	-102.434	-0.082	-0.020
-529.062	46.481	0.180	-0.169
-528.048	-200.000	0.085	-0.457
-527.033	-200.000	0.003	-0.096
-526.018	94.878	0.060	-0.069
-525.004	97.580	0.192	-0.223
-523.989	-181.647	-0.208	0.004
-522.975	506.481	0.057	-0.134
-521.960	469.896	0.083	0.189
-520.945	-139.757	-0.232	-0.025
-519.931	800.000	-0.062	0.262
-518.916	800.000	0.032	0.129
-517.902	41.244	0.210	0.192
-516.887	11.416	-0.110	0.085
-515.872	-10.588	-0.185	-0.124
-514.858	103.837	0.136	0.162
-513.843	-94.082	-0.116	-0.032
-512.829	4.362	-0.098	-0.073
-511.814	206.756	-0.057	-0.089
-510.799	43.219	0.072	-0.067
-509.785	65.635	-0.043	-0.044
-508.770	391.203	-0.067	0.141
-507.756	-115.465	0.252	-0.048
-506.741	8.629	0.136	-0.104
-505.726	-114.595	0.227	-0.044
-504.712	237.485	0.045	-0.076
-503.697	-200.000	0.037	-0.223
-502.683	-180.149	0.136	-0.003
-501.668	67.638	0.284	-0.294
-500.653	-200.000	0.049	-0.243
-499.639	-200.000	-0.010	-0.052
-498.624	800.000	-0.021	0.058
-497.610	-157.100	0.177	-0.011
-496.595	800.000	-0.110	-0.330
-495.581	58.476	0.192	-0.190
-494.566	-200.000	0.007	0.051
-493.551	220.006	0.145	0.235
-492.537	147.864	-0.073	-0.100
-491.522	124.271	0.060	0.077
-490.508	-99.927	0.240	-0.061
-489.493	265.127	-0.107	-0.189
-488.478	-200.000	0.000	-0.198
-487.464	32.595	0.177	0.155
-486.449	-200.000	-0.005	0.131
-485.435	-69.676	0.120	-0.046
-484.420	-165.738	0.277	-0.012
-483.405	-200.000	0.045	-0.232
-482.391	131.362	0.092	0.120
-481.376	-200.000	-0.011	0.356
-480.362	-75.224	-0.070	0.025
-479.347	52.667	0.126	0.122
-478.332	-102.025	-0.294	0.072
-477.318	-200.000	-0.009	-0.149
-476.303	-200.000	0.039	-0.424
-475.289	-200.000	-0.007	-0.225
-474.274	800.000	0.096	-0.309
-473.259	-3.960	-0.056	-0.039
-472.245	-102.337	-0.294	-0.071
-471.230	-120.349	-0.231	-0.040
-470.216	311.372	0.141	0.267
-469.201	800.000	-0.058	-0.180
-468.186	243.133	-0.111	0.188
-467.172	205.757	0.188	0.295
-466.157	-124.448	-0.391	0.062
-465.143	-70.941	-0.296	0.113
-464.128	8.735	0.135	0.103
-463.113	25.518	-0.165	0.139
-462.099	28.112	-0.259	-0.221
-461.084	58.540	-0.116	0.116
-460.070	73.537	-0.088	-0.094
-459.055	-200.000	0.031	-0.367
-458.040	443.539	-0.029	0.064
-457.026	-198.383	0.215	0.001
-456.011	800.000	-0.043	0.120
-454.997	-160.951	0.105	-0.006
-453.982	-21.869	0.155	0.095
-452.968	-200.000	-0.021	0.131
-451.953	237.951	-0.048	0.081
-450.938	800.000	-0.060	0.258
-449.924	-16.265	0.222	0.143
-448.909	173.807	0.227	0.331
-447.895	-35.132	-0.184	-0.101
-446.880	-24.731	-0.166	-0.100
-445.865	91.629	0.043	0.049
-444.851	-31.607	0.245	0.139
-443.836	-200.000	0.024	0.178
-442.822	12.539	-0.122	-0.095
-441.807	322.533	0.092	-0.177
-440.792	-21.144	-0.193	-0.120
-439.778	-141.918	-0.096	-0.010
-438.763	-84.091	0.218	-0.070
-437.749	-6.606	-0.167	-0.115
-436.734	29.925	0.070	0.061
-435.719	-123.884	0.366	-0.058
-434.705	-77.560	-0.207	-0.072
-433.690	167.251	-0.100	-0.144
-432.676	800.000	0.105	0.305
-431.661	93.604	-0.116	0.133
-430.646	249.292	0.214	-0.366
-429.632	-82.630	0.310	0.102
-428.617	-117.800	0.292	0.053
-427.603	-97.176	-0.209	0.055
-426.588	523.686	-0.097	-0.230
-425.573	-38.779	0.454	0.242
-424.559	-200.000	-0.024	-0.356
-423.544	-95.280	0.145	0.040
-422.530	110.590	-0.154	0.187
-421.515	325.704	0.060	-0.116
-420.500	39.137	0.158	0.143
-419.486	-103.149	0.077	0.018
-418.471	26.395	0.114	0.096
-417.457	257.261	-0.148	-0.257
-416.442	15.249	-0.242	-0.192
-415.428	-68.143	-0.107	0.042
-414.413	-200.000	-0.005	0.353
-413.398	97.597	-0.184	0.214
-412.384	-107.023	0.117	-0.026
-411.369	-173.711	0.042	-0.001
-410.355	529.362	0.087	-0.207
-409.340	211.544	-0.075	0.119
-408.325	342.439	0.164	0.324
-407.311	-200.000	0.012	0.088
-406.296	-66.470	0.145	-0.058
-405.282	-200.000	-0.019	0.267
-404.267	42.435	0.106	0.098
-403.252	313.719	0.071	0.134
-402.238	-113.773	0.199	0.039
-401.223	211.976	-0.121	-0.192
-400.209	800.000	-0.064	0.279
-399.194	-8.904	-0.222	0.150
-398.179	411.175	0.079	-0.169
-397.165	-17.603	-0.153	0.097
-396.150	-92.562	0.212	0.060
-395.136	800.000	0.049	0.214
-394.121	-6.448	-0.104	0.071
-393.106	57.102	0.095	-0.094
-392.092	-45.897	0.111	-0.055
-391.077	117.121	0.039	-0.049
-390.063	-200.000	-0.049	0.344
-389.048	50.657	0.225	0.215
-388.033	41.912	0.067	-0.062
-387.019	-188.788	-0.138	0.002
-386.004	-36.201	-0.172	0.094
-384.990	414.473	0.057	-0.123
-383.975	-200.000	-0.006	-0.059
-382.960	253.504	0.100	-0.171
-381.946	-112.751	-0.111	0.022
-380.931	63.265	-0.383	-0.387
-379.917	3.377	0.118	-0.086
-378.902	9.748	0.147	0.112
-377.888	351.441	0.029	-0.059
-376.873	-200.000	-0.006	-0.080
-375.858	-105.257	-0.133	-0.031
-374.844	-118.548	0.412	0.074
-373.829	-35.350	-0.240	0.132
-372.815	195.704	-0.079	0.122
-371.800	52.463	-0.171	0.165
-370.785	114.161	0.156	-0.192
-369.771	-149.696	0.347	0.028
-368.756	701.093	-0.048	0.126
-367.742	-12.915	-0.134	0.088
-366.727	355.874	-0.090	0.181
-365.712	37.142	0.126	0.113
-364.698	-65.710	0.059	0.024
-363.683	14.621	0.145	-0.114
-362.669	5.946	-0.387	-0.289
-361.654	190.483	0.154	0.233
-360.639	-172.117	-0.153	0.005
-359.625	-200.000	0.004	0.378
-358.610	800.000	-0.028	-0.090
-357.596	-26.806	-0.321	-0.189
-356.581	-141.982	0.119	-0.012
-355.566	18.125	0.055	0.044
-354.552	800.000	0.070	0.299
-353.537	-200.000	-0.033	-0.376
-352.523	-200.000	0.015	0.146
-351.508	800.000	-0.028	-0.093
-350.493	49.011	-0.095	-0.090
-349.479	98.467	0.159	0.184
-348.464	-79.820	0.158	-0.053
-347.450	-200.000	0.086	0.392
-346.435	-146.844	-0.165	0.014
-345.420	362.614	-0.209	-0.422
-344.406	42.080	-0.141	-0.129
-343.391	-0.145	-0.281	-0.201
-342.377	-101.019	0.157	-0.039
-341.362	800.000	0.139	-0.447
-340.348	-178.747	-0.203	-0.005
-339.333	800.000	-0.039	0.112
-338.318	-200.000	-0.021	0.285
-337.304	84.227	0.123	0.135
-336.289	106.949	0.193	-0.231
-335.275	-120.215	-0.170	-0.029
-334.260	-171.800	0.187	-0.006
-333.245	380.774	0.150	0.311
-332.231	-200.000	0.018	-0.182
-331.216	106.839	0.039	0.047
-330.202	113.106	-0.047	0.057
-329.187	800.000	-0.067	0.292
-328.172	-165.110	-0.367	-0.016
-327.158	-161.109	-0.287	-0.015
-326.143	-200.000	0.033	-0.347
-325.129	-200.000	-0.018	0.131
-324.114	-49.200	0.214	0.103
-323.099	-22.311	-0.141	0.086
-322.085	-85.711	-0.114	-0.036
-321.070	-24.514	-0.177	-0.106
-320.056	-38.985	0.281	-0.149
-319.041	-17.012	0.198	-0.125
-318.026	-126.461	-0.195	-0.029
-317.012	-200.000	0.000	-0.089
-315.997	429.301	0.192	0.417
-314.983	576.170	-0.093	-0.228
-313.968	-71.793	-0.039	-0.014
-312.953	-167.143	-0.285	-0.012
-311.939	79.639	0.038	0.041
-310.924	-70.207	-0.101	0.038
-309.910	459.041	0.150	0.335
-308.895	207.455	0.046	-0.072
-307.880	573.666	-0.084	-0.206
-306.866	-13.760	-0.176	0.114
-305.851	-50.502	-0.226	-0.107
-304.837	340.071	0.053	-0.104
-303.822	-61.111	-0.173	-0.073
-302.807	-200.000	-0.006	-0.152
-301.793	-100.386	0.127	-0.032
-300.778	-15.515	0.121	-0.078
-299.764	-200.000	0.024	0.163
-298.749	684.513	0.033	-0.086
-297.735	127.069	0.092	0.117
-296.720	-96.302	0.226	-0.060
-295.705	-115.638	-0.444	-0.084
-294.691	-155.714	-0.197	-0.013
-293.676	204.109	0.113	-0.175
-292.662	-200.000	-0.017	0.133
-291.647	-14.111	-0.337	0.218
-290.632	-140.113	0.224	-0.024
-289.618	-5.970	0.255	-0.176
-288.603	-18.762	0.224	0.140
-287.589	9.390	-0.087	0.066
-286.574	-30.099	-0.219	-0.125
-285.559	-101.502	-0.100	-0.025
-284.545	-66.918	0.234	0.093
-283.530	800.000	0.008	0.028
-282.516	-200.000	-0.015	0.136
-281.501	-108.148	0.553	0.120
-280.486	-47.604	0.121	-0.059
-279.472	-131.929	0.145	0.019
-278.457	-78.297	-0.071	0.024
-277.443	20.724	-0.126	0.103
-276.428	-42.045	0.104	0.053
-275.413	-200.000	-0.005	0.081
-274.399	-200.000	-0.012	0.250
-273.384	-200.000	-0.047	0.501
-272.370	662.591	-0.082	-0.212
-271.355	18.919	0.063	0.051
-270.340	3.422	-0.136	-0.099
-269.326	-59.688	0.317	-0.137
-268.311	-170.168	0.277	0.010
-267.297	199.237	0.150	0.230
-266.282	20.184	-0.082	0.066
-265.267	800.000	-0.089	0.359
-264.253	-0.759	0.112	0.080
-263.238	-118.453	-0.171	-0.030
-262.224	-154.899	0.097	0.006
-261.209	-27.349	0.239	0.140
-260.195	-200.000	-0.009	0.108
-259.180	800.000	-0.060	0.205
-258.165	-200.000	0.023	0.159
-257.151	-108.557	-0.153	0.033
-256.136	83.955	0.171	0.187
-255.122	95.080	-0.128	-0.147
-254.107	28.801	0.268	-0.228
-253.092	335.258	0.149	-0.290
-252.078	800.000	-0.087	-0.244
-251.063	-20.296	0.158	0.098
-250.049	130.910	-0.059	-0.076
-249.034	-101.983	-0.162	0.039
-248.019	-92.866	-0.098	0.027
-247.005	-110.397	-0.161	-0.033
-245.990	-66.060	-0.410	0.164
-244.976	39.469	-0.076	0.068
-243.961	-200.000	-0.024	0.377
-242.946	-17.627	-0.140	0.089
-241.932	800.000	-0.098	-0.311
-240.917	94.831	0.165	-0.188
-239.903	-84.270	0.176	0.056
-238.888	-151.591	0.159	-0.012
-237.873	718.274	-0.068	0.180
-236.859	-200.000	-0.018	0.130
-235.844	800.000	0.092	-0.344
-234.830	-50.438	-0.293	-0.139
-233.815	-91.620	-0.083	0.024
-232.800	19.274	0.031	-0.025
-231.786	149.109	0.100	0.135
-230.771	424.461	0.070	0.150
-229.757	-200.000	0.050	0.274
-228.742	137.513	0.128	0.168
-227.727	-200.000	0.060	-0.400
-226.713	-125.486	-0.377	-0.058
-225.698	-104.416	-0.176	0.041
-224.684	800.000	-0.054	-0.206
-223.669	-200.000	-0.031	-0.208
-222.655	-200.000	-0.042	-0.196
-221.640	241.141	0.019	0.033
-220.625	604.243	-0.024	-0.061
-219.611	-200.000	-0.014	-0.181
-218.596	800.000	0.063	-0.235
-217.582	53.654	-0.126	-0.121
-216.567	14.923	-0.190	-0.149
-215.552	173.165	0.128	-0.185
-214.538	-98.100	0.388	-0.100
-213.523	-19.122	-0.207	0.129
-212.509	-200.000	0.021	-0.286
-211.494	44.106	-0.249	-0.229
-210.479	-67.464	-0.316	-0.124
-209.465	-200.000	-0.022	0.257
-208.450	124.113	0.149	-0.187
-207.436	553.363	0.051	0.122
-206.421	38.847	-0.100	0.089
-205.406	-200.000	-0.041	-0.205
-204.392	-30.911	-0.228	-0.129
-203.377	64.684	0.121	0.122
-202.363	-5.114	0.044	-0.030
-201.348	-39.651	0.244	-0.128
-200.333	83.421	0.221	-0.241
-199.319	66.154	0.129	0.131
-198.304	-32.073	0.078	-0.044
-197.290	-200.000	-0.039	0.212
-196.275	-96.835	0.291	0.077
-195.260	-200.000	-0.005	-0.071
-194.246	528.620	0.153	0.362
-193.231	394.618	-0.173	0.360
-192.217	800.000	-0.029	0.117
-191.202	-200.000	0.002	0.020
-190.187	-200.000	-0.113	-0.519
-189.173	-90.949	0.017	0.005
-188.158	45.525	0.216	0.200
-187.144	542.378	0.017	-0.041
-186.129	-33.460	0.052	-0.029
-185.114	-37.935	-0.421	0.224
-184.100	-200.000	-0.003	0.104
-183.085	14.056	-0.215	-0.167
-182.071	42.243	0.184	-0.167
-181.056	-38.887	-0.445	-0.234
-180.042	35.824	0.185	0.162
-179.027	-12.105	0.237	0.155
-178.012	227.571	-0.077	-0.126
-176.998	800.000	-0.154	-0.441
-175.983	157.935	-0.070	-0.097
-174.969	-126.915	0.220	0.032
-173.954	331.648	0.074	0.143
-172.939	-136.149	-0.166	0.020
-171.925	539.684	-0.073	0.173
-170.910	-0.690	-0.225	0.159
-169.896	495.134	0.085	0.195
-168.881	-200.000	0.025	-0.140
-167.866	-35.513	-0.175	0.095
-166.852	-46.468	-0.349	-0.171
-165.837	-178.459	0.125	-0.003
-164.823	-32.229	-0.225	0.126
-163.808	-153.594	0.356	-0.025
-162.793	-17.209	0.119	-0.075
-161.779	-200.000	0.004	0.062
-160.764	107.214	-0.206	-0.245
-159.750	800.000	0.072	0.233
-158.735	-70.461	-0.298	0.113
-157.720	-200.000	-0.021	-0.309
-156.706	-200.000	0.009	-0.042
-155.691	-200.000	-0.048	0.240
-154.677	-200.000	0.076	0.462
-153.662	-200.000	0.050	-0.240
-152.647	30.496	0.104	0.089
-151.633	800.000	0.061	-0.250
-150.618	-178.431	0.258	0.006
-149.604	211.961	-0.093	-0.147
-148.589	-108.521	-0.240	-0.052
-147.574	-200.000	-0.053	0.321
-146.560	-46.864	-0.059	0.029
-145.545	-200.000	0.015	-0.128
-144.531	277.166	0.078	-0.139
-143.516	-72.376	0.283	0.105
-142.502	187.612	-0.149	-0.223
-141.487	11.590	0.321	0.246
-140.472	247.665	0.111	0.187
-139.458	187.813	-0.160	0.239
-138.443	711.095	0.085	0.224
-137.429	-8.204	0.148	-0.099
-136.414	89.584	0.077	-0.086
-135.399	222.298	-0.100	0.161
-134.385	-200.000	0.030	-0.260
-133.370	251.621	-0.127	0.215
-132.356	-140.996	0.093	0.010
-131.341	800.000	0.079	-0.280
-130.326	82.403	0.096	-0.104
-129.312	-200.000	-0.008	0.123
-128.297	-48.247	-0.346	0.167
-127.283	-100.762	-0.327	0.080
-126.268	35.650	0.045	-0.040
-125.253	-131.986	0.188	0.024
-124.239	-89.136	0.057	0.017
-123.224	4.897	-0.122	-0.089
-122.210	-198.985	0.234	-0.001
-121.195	800.000	0.082	0.265
-120.180	90.578	-0.124	-0.139
-119.166	-200.000	0.040	0.208
-118.151	-200.000	-0.012	-0.066
-117.137	16.012	-0.236	-0.185
-116.122	-200.000	-0.022	-0.168
-115.107	75.138	-0.044	0.046
-114.093	-109.771	0.137	0.029
-113.078	-200.000	-0.008	-0.056
-112.064	-200.000	-0.022	-0.164
-111.049	-171.366	0.167	-0.006
-110.034	245.078	-0.182	0.305
-109.020	-29.901	0.210	-0.120
-108.005	-200.000	0.034	-0.268
-106.991	-128.435	0.146	0.021
-105.976	-136.429	0.162	-0.019
-104.962	106.414	-0.314	0.371
-103.947	-69.869	-0.188	0.071
-102.932	-128.285	0.292	0.041
-101.918	-80.896	-0.546	-0.181
-100.903	800.000	-0.021	0.065
-99.889	535.655	0.090	0.213
-98.874	22.577	-0.108	-0.088
-97.859	-96.921	0.194	0.051
-96.845	-86.332	-0.315	0.097
-95.830	-151.276	0.099	-0.007
-94.816	170.602	0.041	-0.058
-93.801	800.000	-0.071	-0.195
-92.786	20.988	-0.204	0.165
-91.772	-91.812	-0.130	-0.037
-90.757	800.000	0.048	0.152
-89.743	-200.000	0.044	0.260
-88.728	-200.000	-0.094	0.440
-87.713	3.850	0.172	-0.125
-86.699	-41.812	0.176	0.090
-85.684	175.800	0.175	0.254
-84.670	-81.436	-0.297	-0.098
-83.655	800.000	-0.032	0.127
-82.640	-61.984	0.121	0.050
-81.626	40.009	-0.151	0.135
-80.611	-94.448	-0.187	-0.051
-79.597	-200.000	-0.008	-0.191
-78.582	369.767	0.136	0.274
-77.567	235.482	-0.142	-0.233
-76.553	-12.837	-0.146	0.095
-75.538	-136.585	0.441	-0.051
-74.524	-60.880	0.074	0.031
-73.509	300.140	-0.121	-0.222
-72.494	-150.144	0.291	-0.022
-71.480	-49.797	-0.267	-0.126
-70.465	-149.621	0.433	0.034
-69.451	-124.905	-0.320	-0.049
-68.436	800.000	0.041	-0.174
-67.422	-22.785	0.270	0.163
-66.407	182.284	-0.123	0.181
-65.392	-91.559	-0.234	0.066
-64.378	-177.687	0.372	0.009
-63.363	277.990	-0.080	-0.141
-62.349	800.000	-0.106	0.462
-61.334	166.526	-0.615	-0.868
-60.319	42.050	0.395	0.357
-59.305	800.000	-0.279	-0.936
-58.290	554.457	0.369	0.884
-57.276	572.554	0.746	1.809
-56.261	-200.000	91.327	540.989
-55.246	584.221	1388.484	3396.162
-54.232	183.307	2604.785	3832.060
-53.217	113.176	2354.460	2843.336
-52.203	42.890	2099.611	1905.447
-51.188	37.802	2010.937	1778.618
-50.173	36.247	1992.150	1747.854
-49.159	50.190	2041.114	1918.975
-48.144	53.170	2060.127	1964.110
-47.130	38.753	2018.660	1793.869
-46.115	36.142	2007.254	1759.867
-45.100	36.082	2003.723	1756.154
-44.086	36.081	2001.735	1754.339
-43.071	36.014	1998.796	1751.079
-42.057	36.013	1996.870	1749.317
-41.042	35.939	1995.054	1746.986
-40.027	35.978	1993.317	1745.752
-39.013	36.077	1990.409	1744.027
-37.998	36.029	1989.165	1742.431
-36.984	36.006	1987.611	1740.795
-35.969	36.073	1985.411	1739.402
-34.954	36.061	1983.394	1737.466
-33.940	36.167	1982.280	1737.369
-32.925	36.205	1980.789	1736.339
-31.911	36.145	1978.751	1733.943
-30.896	36.120	1977.533	1732.579
-29.881	36.139	1975.677	1731.061
-28.867	36.166	1973.994	1729.756
-27.852	36.189	1972.090	1728.228
-26.838	36.167	1970.036	1726.162
-25.823	36.194	1968.450	1724.948
-24.809	36.210	1966.115	1722.969
-23.794	36.151	1964.904	1721.320
-22.779	36.129	1963.067	1719.444
-21.765	36.176	1961.004	1717.982
-20.750	36.190	1959.604	1716.812
-19.736	36.142	1958.465	1715.327
-18.721	36.096	1957.178	1713.719
-17.706	36.176	1955.476	1712.869
-16.692	36.132	1953.568	1710.741
-15.677	36.150	1952.085	1709.532
-14.663	36.261	1950.051	1708.667
-13.648	36.116	1949.085	1706.474
-12.633	36.112	1947.949	1705.371
-11.619	36.066	1946.853	1703.940
-10.604	36.129	1945.176	1702.956
-9.590	36.097	1943.391	1701.051
-8.575	36.112	1942.532	1700.356
-7.560	36.128	1940.647	1698.785
-6.546	36.124	1940.001	1698.114
-5.531	36.071	1938.491	1696.260
-4.517	36.186	1936.816	1695.739
-3.502	36.157	1935.939	1694.646
-2.487	36.124	1934.680	1693.185
-1.473	36.170	1933.881	1692.829
-0.458	36.183	1929.828	1689.324
0.556	38.018	1909.364	1659.451
1.571	32.770	1886.465	1595.159
2.586	27.382	1905.222	1564.707
3.600	25.231	1939.325	1573.730
4.615	23.559	1932.711	1553.598
5.629	17.755	1830.989	1423.404
6.644	9.427	1712.660	1266.026
7.659	5.591	1675.381	1208.787
8.673	5.270	1672.172	1203.897
9.688	5.184	1670.928	1202.233
10.702	5.260	1669.497	1201.674
11.717	5.256	1666.564	1199.426
12.731	5.450	1665.456	1200.016
13.746	10.232	1676.944	1245.048
14.761	18.205	1693.872	1319.232
15.775	21.885	1699.495	1351.910
16.790	21.739	1698.095	1349.554
17.804	20.738	1695.364	1339.565
18.819	19.839	1691.706	1329.645
19.834	19.102	1689.144	1321.858
20.848	18.886	1687.633	1318.900
21.863	18.766	1686.804	1317.214
22.877	18.592	1685.589	1314.816
23.892	18.410	1684.011	1312.077
24.907	18.259	1683.084	1310.085
25.921	18.229	1681.682	1308.642
26.936	18.282	1680.541	1308.046
27.950	18.228	1680.274	1307.313
28.965	18.336	1679.085	1307.097
29.980	18.424	1678.299	1307.038
30.994	18.453	1678.121	1307.005
32.009	18.604	1676.209	1306.553
33.023	18.652	1675.672	1306.380
34.038	18.645	1675.063	1305.739
35.053	18.661	1673.757	1304.723
36.067	18.531	1672.157	1302.375
37.082	18.417	1671.169	1300.626
38.096	18.538	1669.644	1300.243
39.111	18.583	1668.986	1299.958
40.126	18.667	1668.175	1299.843
41.140	18.589	1667.358	1298.501
42.155	18.346	1666.062	1295.537
43.169	18.191	1664.315	1292.895
44.184	18.065	1662.881	1290.712
45.199	18.101	1662.322	1290.436
46.213	18.150	1660.827	1289.533
47.228	18.065	1659.677	1287.888
48.242	18.252	1658.474	1288.249
49.257	18.369	1657.790	1288.478
50.271	18.411	1656.492	1287.671
51.286	18.397	1654.993	1286.291
52.301	18.371	1653.826	1285.073
53.315	18.425	1652.293	1284.172
54.330	18.372	1650.862	1282.555
55.344	18.346	1648.852	1280.681
56.359	18.253	1647.328	1278.688
57.374	18.202	1645.957	1277.131
58.388	18.186	1645.428	1276.492
59.403	18.140	1643.843	1274.803
60.417	18.068	1642.307	1272.963
61.432	17.992	1641.633	1271.767
62.447	18.012	1640.647	1271.037
63.461	17.976	1639.035	1269.407
64.476	17.879	1637.959	1267.743
65.490	17.849	1636.704	1266.431
66.505	17.853	1635.569	1265.472
67.520	17.832	1634.672	1264.516
68.534	18.009	1633.458	1264.773
69.549	17.944	1632.615	1263.526
70.563	17.921	1631.838	1262.645
71.578	17.893	1630.354	1261.176
72.593	17.813	1629.224	1259.598
73.607	17.755	1628.173	1258.247
74.622	17.647	1627.258	1256.637
75.636	17.762	1626.196	1256.553
76.651	17.741	1625.958	1256.098
77.666	17.794	1624.822	1255.503
78.680	17.717	1624.157	1254.308
79.695	17.786	1623.339	1254.073
80.709	17.843	1622.600	1253.814
81.724	17.934	1621.505	1253.520
82.739	18.118	1620.592	1254.057
83.753	18.122	1619.848	1253.399
84.768	18.288	1619.321	1254.096
85.782	18.313	1618.479	1253.513
86.797	18.425	1618.075	1253.909
87.812	18.536	1617.315	1254.027
88.826	18.468	1615.779	1252.221
89.841	18.488	1614.349	1251.151
90.855	18.381	1613.973	1249.967
91.870	18.530	1613.048	1250.224
92.884	18.527	1612.522	1249.691
93.899	18.677	1610.895	1249.408
94.914	18.521	1609.985	1247.457
95.928	18.583	1608.702	1246.807
96.943	18.589	1607.520	1245.823
97.957	18.723	1605.493	1245.113
98.972	18.578	1604.565	1243.230
99.987	18.460	1602.743	1240.855
101.001	18.498	1601.170	1239.802
102.016	18.488	1599.582	1238.389
103.030	18.466	1598.546	1237.321
104.045	18.508	1597.377	1236.610
105.060	18.590	1595.660	1235.760
106.074	18.465	1594.504	1233.858
107.089	18.269	1592.658	1230.911
108.103	17.901	1591.378	1227.166
109.118	17.932	1589.236	1225.626
110.133	17.814	1587.811	1223.571
111.147	17.870	1586.415	1222.790
112.162	17.832	1585.352	1221.591
113.176	17.947	1583.774	1221.094
114.191	18.026	1582.478	1220.549
115.206	18.004	1581.606	1219.607
116.220	18.023	1580.624	1218.884
117.235	18.057	1578.909	1217.693
118.249	17.927	1577.993	1215.953
119.264	17.958	1576.228	1214.704
120.279	17.930	1574.929	1213.395
121.293	17.910	1573.223	1211.835
122.308	17.817	1571.756	1209.936
123.322	17.769	1570.261	1208.339
124.337	17.779	1568.922	1207.274
125.352	17.711	1567.679	1205.726
126.366	17.761	1566.509	1205.079
127.381	17.785	1565.468	1204.341
128.395	17.683	1564.443	1202.722
129.410	17.772	1562.874	1202.034
130.424	17.765	1561.759	1201.023
131.439	17.788	1560.847	1200.377
132.454	17.913	1559.249	1199.920
133.468	18.068	1558.165	1200.068
134.483	17.957	1556.650	1198.018
135.497	18.086	1555.420	1197.872
136.512	18.143	1554.278	1197.285
137.527	18.182	1552.673	1196.217
138.541	18.115	1551.623	1194.830
139.556	18.176	1549.863	1193.796
140.570	18.252	1548.757	1193.372
141.585	18.315	1547.942	1193.075
142.600	18.340	1546.753	1192.223
143.614	18.485	1545.443	1192.121
144.629	18.497	1544.493	1191.365
145.643	18.691	1542.568	1191.118
146.658	18.650	1541.631	1190.011
147.673	18.573	1540.161	1188.234
148.687	18.417	1538.453	1185.733
149.702	18.311	1536.922	1183.713
150.716	18.169	1535.221	1181.320
151.731	18.129	1533.959	1179.964
152.746	18.217	1532.342	1179.221
153.760	18.254	1530.775	1178.169
154.775	18.196	1529.984	1177.059
155.789	18.288	1529.036	1176.858
156.804	18.345	1527.504	1175.965
157.819	18.382	1526.532	1175.366
158.833	18.457	1525.134	1174.704
159.848	18.515	1524.204	1174.278
160.862	18.592	1523.149	1173.886
161.877	18.682	1522.132	1173.615
162.892	18.468	1520.651	1170.909
163.906	18.302	1519.000	1168.398
164.921	18.192	1517.323	1166.256
165.935	18.141	1516.732	1165.349
166.950	18.243	1515.754	1165.189
167.964	18.326	1514.510	1164.698
168.979	18.278	1513.599	1163.567
169.994	18.335	1512.517	1163.018
171.008	18.240	1511.817	1161.731
172.023	18.321	1510.717	1161.333
173.037	18.421	1509.801	1161.206
174.052	18.548	1508.103	1160.654
175.067	18.615	1507.514	1160.557
176.081	18.557	1505.789	1158.728
177.096	18.320	1504.775	1156.247
178.110	18.260	1503.012	1154.385
179.125	18.222	1502.025	1153.272
180.140	18.281	1501.322	1153.025
181.154	18.326	1500.351	1152.479
182.169	18.454	1498.998	1152.201
183.183	18.487	1498.335	1151.813
184.198	18.637	1497.255	1151.883
185.213	18.673	1496.159	1151.184
186.227	18.681	1494.985	1150.233
187.242	18.623	1494.394	1149.287
188.256	18.698	1493.478	1148.983
189.271	18.744	1492.558	1148.482
190.286	18.919	1491.269	1148.552
191.300	18.753	1490.333	1146.627
192.315	18.530	1488.786	1143.845
193.329	18.226	1487.024	1140.362
194.344	18.239	1485.912	1139.500
195.359	18.264	1485.142	1138.973
196.373	18.323	1484.439	1138.722
197.388	18.508	1483.186	1138.895
198.402	18.539	1482.605	1138.548
199.417	18.758	1481.471	1139.032
200.432	18.775	1480.689	1138.443
201.446	18.883	1480.235	1138.711
202.461	18.983	1479.244	1138.508
203.475	19.040	1478.233	1138.009
204.490	19.200	1477.050	1138.053
205.504	19.076	1475.886	1136.238
206.519	18.787	1474.918	1133.485
207.534	18.646	1474.062	1131.794
208.548	18.716	1472.363	1130.852
209.563	18.739	1471.344	1130.119
210.577	18.727	1470.380	1129.201
211.592	18.744	1469.242	1128.337
212.607	18.768	1468.783	1128.044
213.621	18.969	1468.064	1128.713
214.636	19.088	1467.221	1128.747
215.650	19.002	1466.076	1127.201
216.665	18.904	1465.489	1126.007
217.680	19.018	1464.287	1125.732
218.694	19.129	1464.088	1126.205
219.709	19.236	1463.196	1126.118
220.723	19.321	1462.050	1125.690
221.738	19.184	1461.116	1123.975
222.753	19.138	1459.901	1122.640
223.767	19.114	1459.297	1121.924
224.782	19.045	1458.208	1120.541
225.796	19.184	1457.592	1120.872
226.811	19.320	1456.691	1120.959
227.826	19.407	1455.496	1120.509
228.840	19.258	1454.818	1118.920
229.855	19.143	1453.731	1117.241
230.869	19.120	1452.599	1116.122
231.884	19.033	1451.991	1114.990
232.899	19.062	1450.388	1113.846
233.913	18.919	1449.507	1112.146
234.928	18.964	1447.983	1111.173
235.942	18.838	1446.970	1109.484
236.957	18.860	1445.697	1108.551
237.972	18.833	1444.443	1107.315
238.986	18.796	1443.567	1106.311
240.001	18.924	1442.365	1106.115
241.015	18.895	1441.617	1105.254
242.030	18.921	1440.184	1104.223
243.045	18.990	1439.318	1103.904
244.059	19.086	1438.402	1103.721
245.074	19.173	1437.486	1103.477
246.088	19.160	1437.125	1103.020
247.103	19.264	1436.364	1103.005
248.117	19.298	1435.653	1102.578
249.132	19.371	1434.796	1102.290
250.147	19.534	1434.217	1102.789
251.161	19.694	1433.981	1103.533
252.176	19.751	1433.924	1103.755
253.190	20.016	1432.576	1104.312
254.205	20.028	1431.632	1103.559
255.220	19.920	1431.224	1102.462
256.234	20.090	1429.900	1102.427
257.249	19.954	1429.668	1101.283
258.263	19.950	1428.674	1100.394
259.278	19.937	1427.405	1099.240
260.293	20.039	1426.488	1099.084
261.307	19.944	1426.072	1098.058
262.322	19.954	1425.702	1097.741
263.336	20.149	1424.592	1098.026
264.351	20.102	1423.287	1096.623
265.366	20.150	1422.066	1095.888
266.380	20.175	1421.790	1095.740
267.395	20.163	1420.713	1094.738
268.409	20.227	1419.886	1094.408
269.424	20.028	1418.748	1092.175
270.439	20.113	1417.324	1091.519
271.453	20.030	1416.713	1090.431
272.468	20.033	1415.564	1089.466
273.482	19.844	1414.966	1087.726
274.497	19.826	1414.002	1086.772
275.512	19.786	1413.355	1085.930
276.526	19.873	1411.886	1085.248
277.541	19.930	1411.132	1084.931
278.555	19.893	1409.951	1083.695
279.570	19.861	1409.250	1082.863
280.585	19.999	1408.634	1083.155
281.599	20.200	1407.889	1083.743
282.614	20.225	1407.592	1083.576
283.628	20.136	1406.076	1081.753
284.643	20.081	1404.747	1080.296
285.657	20.033	1403.606	1079.024
286.672	20.018	1402.924	1078.310
287.687	20.090	1401.655	1077.685
288.701	20.036	1400.531	1076.392
289.716	20.129	1400.157	1076.586
290.730	20.062	1399.367	1075.464
291.745	20.121	1398.343	1074.953
292.760	20.055	1397.563	1073.850
293.774	20.091	1396.534	1073.185
294.789	20.065	1395.660	1072.259
295.803	20.220	1395.183	1072.757
296.818	20.364	1394.288	1072.859
297.833	20.297	1392.808	1071.213
298.847	20.058	1392.086	1069.089
299.862	20.149	1390.919	1068.662
300.876	20.124	1389.610	1067.403
301.891	20.209	1388.872	1067.264
302.906	20.215	1388.447	1066.884
303.920	20.301	1387.966	1066.949
304.935	20.451	1387.302	1067.262
305.949	20.483	1386.765	1066.956
306.964	20.556	1386.218	1066.888
307.979	20.584	1384.951	1065.991
308.993	20.517	1384.012	1064.759
310.008	20.476	1382.720	1063.422
311.022	20.540	1381.557	1062.823
312.037	20.702	1380.319	1062.767
313.052	20.657	1379.813	1062.010
314.066	20.537	1378.712	1060.333
315.081	20.390	1377.943	1058.755
316.095	20.236	1376.687	1056.758
317.110	20.225	1375.470	1055.665
318.125	20.160	1374.513	1054.441
319.139	20.229	1373.450	1053.947
320.154	20.210	1372.567	1053.062
321.168	20.166	1371.751	1052.078
322.183	20.257	1370.737	1051.758
323.197	20.252	1369.594	1050.758
324.212	20.344	1368.707	1050.539
325.227	20.286	1368.336	1049.816
326.241	20.311	1367.471	1049.206
327.256	20.313	1366.598	1048.460
328.270	20.410	1365.787	1048.330
329.285	20.313	1364.921	1046.987
330.300	20.294	1363.640	1045.793
331.314	20.291	1363.058	1045.237
332.329	20.379	1362.001	1044.864
333.343	20.270	1361.036	1043.375
334.358	20.395	1360.182	1043.383
335.373	20.460	1359.430	1043.104
336.387	20.627	1358.517	1043.313
337.402	20.741	1357.549	1043.158
338.416	20.687	1356.994	1042.314
339.431	20.660	1357.226	1042.242
340.446	20.695	1355.958	1041.385
341.460	20.841	1355.227	1041.600
342.475	20.843	1354.633	1041.068
343.489	20.976	1353.929	1041.225
344.504	21.092	1352.313	1040.583
345.519	21.095	1352.097	1040.342
346.533	21.112	1350.568	1039.178
347.548	21.160	1349.860	1038.824
348.562	21.107	1349.237	1037.937
349.577	21.244	1348.303	1037.945
350.592	21.172	1347.470	1036.780
351.606	20.961	1346.543	1034.728
352.621	20.809	1345.158	1032.670
353.635	20.825	1343.654	1031.517
354.650	20.628	1343.209	1029.915
355.665	20.711	1342.109	1029.475
356.679	20.780	1341.302	1029.169
357.694	20.746	1340.197	1028.033
358.708	20.889	1338.780	1027.701
359.723	20.991	1337.879	1027.515
360.738	21.026	1337.231	1027.131
361.752	20.984	1336.441	1026.191
362.767	21.039	1334.857	1025.208
363.781	20.946	1334.292	1024.136
364.796	20.924	1333.853	1023.579
365.810	21.085	1332.760	1023.593
366.825	21.195	1332.413	1023.882
367.840	21.359	1331.435	1024.001
368.854	21.384	1330.868	1023.618
369.869	21.530	1330.625	1024.196
370.883	21.456	1330.145	1023.305
371.898	21.474	1329.528	1022.845
372.913	21.315	1328.308	1020.885
373.927	21.235	1327.359	1019.601
374.942	21.307	1326.400	1019.191
375.956	21.461	1325.795	1019.533
376.971	21.588	1324.617	1019.279
377.986	21.320	1324.310	1017.394
379.000	21.383	1323.551	1017.082
380.015	21.445	1322.856	1016.824
381.029	21.643	1322.002	1017.222
382.044	21.658	1321.398	1016.755
383.059	21.713	1320.615	1016.384
384.073	21.602	1320.237	1015.358
385.088	21.546	1319.354	1014.264
386.102	21.620	1318.642	1014.055
387.117	21.724	1318.038	1014.106
388.132	21.669	1316.885	1012.812
389.146	21.408	1315.727	1010.323
390.161	21.370	1314.919	1009.393
391.175	21.394	1314.267	1008.942
392.190	21.405	1313.114	1008.033
393.205	21.299	1312.833	1007.117
394.219	21.566	1311.702	1007.693
395.234	21.616	1310.890	1007.273
396.248	21.596	1309.393	1005.914
397.263	21.530	1308.021	1004.396
398.278	21.453	1306.807	1002.931
399.292	21.454	1305.001	1001.460
400.307	21.378	1304.139	1000.274
401.321	21.302	1303.117	998.972
402.336	21.253	1302.527	998.151
403.350	21.293	1301.291	997.341
404.365	21.359	1299.927	996.588
405.380	21.356	1299.087	995.838
406.394	21.347	1298.640	995.353
407.409	21.475	1297.928	995.450
408.423	21.609	1297.574	995.852
409.438	21.640	1296.612	995.199
410.453	21.764	1295.942	995.303
411.467	21.842	1295.367	995.216
412.482	21.897	1295.187	995.303
413.496	21.979	1294.682	995.289
414.511	22.019	1293.718	994.689
415.526	21.985	1293.435	994.190
416.540	22.158	1292.310	994.213
417.555	22.264	1291.599	994.181
418.569	22.257	1291.012	993.599
419.584	22.100	1290.470	992.207
420.599	22.104	1289.701	991.551
421.613	141.527	1430.500	1784.347
422.628	136.703	1451.022	1784.477
