DTS Sentinel unit serial number:	SN413079Multiplexer serial number:	ORYXHardware model number:	OX4-SRSoftware version number:	ORYX F/W v4.00 Oryx Data Collector v3.7.2.0data status	okinstallation	princeton_trtdifferential loss correction	single-endedforward channel	channel 4reverse channel	N/Adate	2019/09/19time	08:37:35forward acquisition time	60.00reverse acquisition time	0.00gamma	496.2192k internal	0.2340k external	0.2340temperature offset calibration	1.0018default loss term (dB/km)	0.3790temperature slope calibration	1.0000multiplexer offset coefficient	1.0000multiplexer slope coefficient	1.0000fibre end	0.00T internal ref (°C)	20.86T ext. ref 1 (°C)	0.57T ext. ref 2 (°C)	16.40length (m)	temperature (°C)	Stokes	anti-Stokes-747.200	-200.000	0.013	0.122
-746.185	29.391	-0.497	0.423
-745.171	109.913	-0.042	-0.050
-744.156	800.000	-0.178	0.580
-743.142	-110.869	-0.138	-0.028
-742.127	800.000	-0.032	0.107
-741.112	-200.000	0.031	0.430
-740.098	-92.804	0.191	0.053
-739.083	61.601	-0.236	0.235
-738.069	357.771	-0.161	0.322
-737.054	-68.914	-0.063	-0.025
-736.039	-137.340	-0.367	-0.042
-735.025	-8.075	0.163	0.110
-734.010	-200.000	0.023	-0.228
-732.996	-171.923	-0.180	-0.006
-731.981	330.873	-0.049	-0.094
-730.966	184.939	-0.190	0.283
-729.952	-200.000	0.011	-0.131
-728.937	-67.536	-0.293	0.115
-727.923	545.168	0.139	0.333
-726.908	-36.573	0.124	-0.067
-725.894	149.189	0.138	-0.187
-724.879	183.517	-0.260	-0.385
-723.864	800.000	-0.019	0.080
-722.850	266.474	-0.188	-0.329
-721.835	-64.420	0.209	0.085
-720.821	-110.967	-0.065	-0.013
-719.806	162.959	-0.073	-0.102
-718.791	800.000	-0.130	-0.462
-717.777	133.012	-0.107	-0.138
-716.762	800.000	0.046	0.188
-715.748	-34.150	-0.271	0.149
-714.733	116.466	0.124	0.153
-713.718	-200.000	0.018	-0.189
-712.704	47.862	0.038	0.035
-711.689	-85.732	0.122	-0.038
-710.675	12.366	-0.297	0.229
-709.660	-194.061	-0.096	-0.001
-708.645	-87.736	0.396	0.120
-707.631	790.860	-0.062	0.170
-706.616	-87.333	0.103	-0.031
-705.602	-76.462	-0.348	-0.122
-704.587	-72.063	0.202	-0.075
-703.572	-11.985	0.295	0.194
-702.558	-200.000	-0.019	0.248
-701.543	-200.000	-0.006	-0.182
-700.529	-60.561	0.130	0.055
-699.514	-121.429	0.281	-0.047
-698.499	800.000	0.077	-0.335
-697.485	-43.500	-0.258	-0.130
-696.470	-122.094	0.181	-0.030
-695.456	42.685	0.186	0.170
-694.441	357.507	-0.114	-0.227
-693.426	-58.814	-0.321	-0.139
-692.412	-51.167	0.136	0.064
-691.397	-200.000	0.015	0.115
-690.383	800.000	-0.073	0.230
-689.368	-113.587	-0.166	0.033
-688.354	-103.350	0.261	0.062
-687.339	41.080	-0.181	-0.164
-686.324	200.872	0.098	-0.151
-685.310	34.508	-0.256	0.224
-684.295	538.479	-0.173	-0.411
-683.281	-200.000	-0.070	-0.384
-682.266	-88.306	-0.508	0.152
-681.251	288.379	0.129	0.234
-680.237	107.145	0.100	-0.118
-679.222	166.681	0.088	0.124
-678.208	69.339	0.155	0.160
-677.193	-200.000	-0.005	0.113
-676.178	19.440	-0.159	0.128
-675.164	-78.547	-0.235	-0.081
-674.149	-36.947	-0.143	0.077
-673.135	-97.169	0.150	-0.039
-672.120	-117.301	-0.056	-0.010
-671.105	-123.244	0.170	0.027
-670.091	213.043	-0.014	0.023
-669.076	-101.694	-0.273	-0.066
-668.062	-35.044	-0.170	0.093
-667.047	-200.000	0.023	-0.330
-666.032	-49.405	-0.159	-0.076
-665.018	-54.816	-0.293	0.132
-664.003	286.522	0.040	-0.073
-662.989	93.915	-0.136	-0.154
-661.974	8.470	-0.226	0.170
-660.959	96.981	-0.187	-0.215
-659.945	-42.470	0.127	-0.065
-658.930	800.000	0.029	0.091
-657.916	-200.000	-0.015	0.296
-656.901	-26.088	-0.158	-0.093
-655.886	-153.679	0.329	-0.023
-654.872	800.000	-0.010	-0.041
-653.857	-142.907	0.091	-0.009
-652.843	800.000	-0.084	0.341
-651.828	-200.000	-0.005	0.323
-650.814	592.761	-0.125	0.308
-649.799	-133.077	0.211	0.027
-648.784	-83.626	0.200	0.064
-647.770	496.968	0.087	-0.200
-646.755	101.284	-0.187	-0.217
-645.741	-200.000	-0.031	0.180
-644.726	67.479	-0.276	0.281
-643.711	22.689	-0.128	0.105
-642.697	33.595	0.150	0.130
-641.682	74.765	0.384	0.404
-640.668	-44.094	0.520	0.261
-639.653	-63.206	-0.274	-0.113
-638.638	263.247	-0.043	-0.074
-637.624	-200.000	-0.006	0.119
-636.609	-93.838	-0.275	-0.076
-635.595	-200.000	0.027	0.145
-634.580	116.544	-0.155	-0.189
-633.565	-36.952	-0.135	-0.072
-632.551	-115.623	0.182	0.034
-631.536	33.918	-0.232	0.202
-630.522	326.198	-0.042	0.081
-629.507	50.293	-0.143	0.135
-628.492	71.363	-0.208	-0.215
-627.478	-172.409	0.199	-0.006
-626.463	-182.585	-0.531	-0.010
-625.449	-78.923	-0.205	0.070
-624.434	-130.768	0.205	-0.027
-623.419	73.840	-0.120	-0.125
-622.405	-200.000	-0.008	-0.320
-621.390	344.395	0.088	-0.173
-620.376	-200.000	-0.028	0.142
-619.361	189.588	0.055	0.082
-618.346	-158.516	-0.204	-0.012
-617.332	800.000	-0.102	-0.313
-616.317	-200.000	-0.019	-0.122
-615.303	-80.348	0.120	-0.040
-614.288	-200.000	0.009	0.225
-613.273	-117.729	0.234	0.042
-612.259	161.474	-0.152	0.213
-611.244	-76.045	0.280	-0.099
-610.230	-200.000	0.052	0.280
-609.215	31.953	0.265	0.228
-608.201	-9.641	-0.209	-0.139
-607.186	-200.000	-0.074	-0.403
-606.171	443.629	-0.027	0.058
-605.157	58.235	-0.283	0.277
-604.142	93.167	0.092	0.104
-603.128	15.360	0.096	0.075
-602.113	379.316	0.062	0.126
-601.098	35.980	0.270	-0.237
-600.084	57.816	0.204	-0.199
-599.069	-105.262	0.063	0.014
-598.055	-200.000	0.027	-0.438
-597.040	8.557	0.074	-0.055
-596.025	-10.868	-0.135	-0.089
-595.011	800.000	-0.030	-0.111
-593.996	128.156	-0.098	0.124
-592.982	103.891	-0.138	0.161
-591.967	-200.000	0.001	0.159
-590.952	-191.912	0.132	-0.001
-589.938	-104.594	-0.073	-0.017
-588.923	-200.000	-0.003	-0.085
-587.909	232.289	-0.095	0.156
-586.894	-64.591	-0.079	-0.032
-585.879	-77.653	0.255	-0.088
-584.865	-200.000	-0.012	-0.091
-583.850	-42.045	-0.256	-0.131
-582.836	-19.325	-0.225	0.139
-581.821	800.000	-0.041	-0.155
-580.806	800.000	-0.042	-0.153
-579.792	417.723	0.121	0.257
-578.777	3.553	-0.064	0.047
-577.763	-76.671	0.210	0.073
-576.748	-124.804	-0.277	0.043
-575.733	201.338	0.154	0.236
-574.719	800.000	-0.086	-0.253
-573.704	-31.304	0.243	-0.136
-572.690	16.007	-0.299	0.235
-571.675	124.423	-0.254	-0.318
-570.661	283.078	-0.021	-0.037
-569.646	-200.000	-0.023	0.343
-568.631	-18.470	0.165	-0.103
-567.617	-23.209	-0.320	-0.192
-566.602	-28.539	-0.085	-0.049
-565.588	310.176	-0.140	-0.260
-564.573	-2.161	-0.254	-0.178
-563.558	-200.000	0.064	0.300
-562.544	-200.000	-0.032	-0.164
-561.529	107.765	0.355	-0.421
-560.515	44.970	0.184	-0.169
-559.500	-61.707	0.323	-0.135
-558.485	800.000	0.035	0.114
-557.471	579.346	-0.079	-0.193
-556.456	-32.611	0.225	-0.124
-555.442	-200.000	0.024	0.286
-554.427	401.364	-0.144	-0.301
-553.412	-72.923	-0.269	0.098
-552.398	-71.526	-0.140	-0.052
-551.383	-13.375	-0.040	-0.026
-550.369	-94.220	0.275	-0.075
-549.354	800.000	-0.025	0.102
-548.339	221.732	-0.029	0.047
-547.325	181.926	0.135	-0.198
-546.310	800.000	-0.071	0.222
-545.296	190.343	-0.144	0.216
-544.281	39.689	0.046	-0.041
-543.266	-30.607	0.073	-0.041
-542.252	-200.000	0.021	0.277
-541.237	25.059	-0.259	0.214
-540.223	62.191	0.226	0.225
-539.208	-48.534	-0.160	-0.076
-538.193	-56.151	-0.422	-0.187
-537.179	44.369	-0.107	-0.098
-536.164	-102.659	-0.451	-0.107
-535.150	-121.710	-0.159	-0.026
-534.135	265.123	-0.111	0.192
-533.121	-105.112	0.330	0.075
-532.106	-104.059	0.210	0.049
-531.091	-200.000	0.007	0.036
-530.077	-18.563	-0.031	-0.020
-529.062	-146.125	0.373	-0.033
-528.048	16.459	0.170	-0.133
-527.033	-139.438	0.081	-0.009
-526.018	-200.000	-0.042	-0.222
-525.004	-114.145	0.102	0.020
-523.989	-53.923	0.174	-0.079
-522.975	18.352	-0.323	-0.256
-521.960	19.453	0.245	-0.196
-520.945	-200.000	0.030	-0.244
-519.931	549.945	-0.080	-0.190
-518.916	75.499	-0.137	-0.143
-517.902	800.000	-0.021	-0.083
-516.887	-1.270	-0.130	0.091
-515.872	55.422	0.060	0.058
-514.858	-86.356	-0.397	0.121
-513.843	-110.084	-0.178	-0.037
-512.829	123.441	0.161	0.201
-511.814	-200.000	0.006	0.028
-510.799	347.143	-0.008	0.016
-509.785	406.805	0.111	0.233
-508.770	112.759	0.051	-0.062
-507.756	-80.849	0.133	0.044
-506.741	37.165	-0.083	-0.073
-505.726	-89.361	-0.118	-0.034
-504.712	-107.036	0.099	0.022
-503.697	-15.024	0.185	0.118
-502.683	-29.070	0.106	0.061
-501.668	67.857	0.119	0.120
-500.653	-167.715	-0.103	-0.004
-499.639	-117.588	-0.368	-0.066
-498.624	-200.000	-0.004	0.104
-497.610	-12.347	0.098	-0.064
-496.595	-200.000	0.008	-0.149
-495.581	-200.000	-0.038	-0.267
-494.566	-200.000	-0.040	-0.334
-493.551	24.887	-0.188	0.155
-492.537	22.649	0.381	0.310
-491.522	194.617	-0.220	-0.331
-490.508	36.780	-0.180	-0.158
-489.493	-200.000	-0.003	0.063
-488.478	-29.803	0.228	-0.129
-487.464	-136.078	0.198	0.023
-486.449	800.000	0.113	-0.389
-485.435	-200.000	0.106	0.625
-484.420	-200.000	0.012	-0.105
-483.405	800.000	0.069	0.269
-482.391	800.000	-0.020	0.059
-481.376	85.561	-0.207	0.226
-480.362	-100.326	-0.431	-0.106
-479.347	-200.000	-0.036	0.355
-478.332	-200.000	0.056	-0.369
-477.318	-121.598	-0.303	0.050
-476.303	35.705	0.255	0.223
-475.289	371.307	0.177	0.357
-474.274	-19.196	-0.212	0.131
-473.259	-90.308	-0.161	0.046
-472.245	-200.000	-0.067	-0.386
-471.230	-113.960	-0.088	0.017
-470.216	-200.000	-0.012	-0.275
-469.201	-200.000	-0.017	0.108
-468.186	-28.482	0.145	0.083
-467.172	-106.015	-0.301	0.067
-466.157	159.986	-0.222	0.308
-465.143	-1.259	-0.042	0.029
-464.128	800.000	-0.158	-0.491
-463.113	-47.590	0.360	-0.173
-462.099	53.823	0.023	0.022
-461.084	800.000	-0.096	-0.398
-460.070	117.326	0.042	0.051
-459.055	800.000	0.049	-0.159
-458.040	-186.112	0.290	-0.004
-457.026	-39.967	0.083	-0.043
-456.011	105.834	-0.212	-0.249
-454.997	112.000	0.027	-0.032
-453.982	-200.000	-0.015	0.374
-452.968	-62.289	0.111	-0.046
-451.953	-73.826	0.122	0.044
-450.938	263.152	-0.035	-0.060
-449.924	-96.430	-0.103	-0.027
-448.909	-122.403	0.358	0.058
-447.895	81.252	-0.064	-0.068
-446.880	-200.000	0.003	-0.276
-445.865	333.598	-0.054	0.104
-444.851	-88.009	-0.199	-0.059
-443.836	-82.437	0.302	-0.097
-442.822	615.161	-0.130	-0.323
-441.807	217.248	0.094	0.148
-440.792	-191.218	0.195	0.002
-439.778	287.396	0.039	-0.070
-438.763	-146.579	-0.104	-0.009
-437.749	-136.698	0.049	0.006
-436.734	63.483	0.282	-0.280
-435.719	336.704	0.054	-0.104
-434.705	-45.472	0.267	-0.131
-433.690	16.157	-0.167	0.130
-432.676	-119.358	0.171	-0.029
-431.661	-53.350	-0.277	0.126
-430.646	-41.826	-0.199	0.101
-429.632	518.749	-0.144	0.335
-428.617	-66.743	-0.229	-0.090
-427.603	-200.000	0.045	-0.263
-426.588	-18.347	0.268	0.166
-425.573	-110.893	-0.170	-0.035
-424.559	800.000	0.151	-0.477
-423.544	-107.136	0.135	0.030
-422.530	-117.779	-0.071	-0.013
-421.515	-109.457	0.273	-0.057
-420.500	-178.830	0.134	0.003
-419.486	-45.680	-0.300	0.147
-418.471	17.121	0.135	0.106
-417.457	-200.000	0.045	0.227
-416.442	306.306	-0.281	0.518
-415.428	210.719	-0.062	0.096
-414.413	-35.918	-0.271	-0.145
-413.398	-8.998	0.151	-0.100
-412.384	-200.000	0.054	0.255
-411.369	137.171	0.180	0.233
-410.355	110.712	-0.153	-0.182
-409.340	259.298	0.111	0.189
-408.325	-200.000	0.029	0.131
-407.311	-16.708	-0.254	-0.159
-406.296	368.496	0.109	0.217
-405.282	115.482	0.187	0.227
-404.267	-200.000	-0.019	0.251
-403.252	64.424	0.208	0.208
-402.238	550.128	-0.132	0.312
-401.223	16.654	-0.162	0.127
-400.209	41.099	0.073	0.065
-399.194	-28.291	0.095	0.054
-398.179	-143.339	0.046	0.004
-397.165	-8.943	0.292	-0.193
-396.150	-43.075	0.273	-0.137
-395.136	-44.380	-0.320	-0.159
-394.121	-171.317	-0.097	-0.003
-393.106	800.000	0.027	-0.104
-392.092	-200.000	0.021	-0.191
-391.077	-36.274	0.209	0.112
-390.063	131.639	0.075	-0.096
-389.048	-200.000	0.085	0.416
-388.033	89.375	0.005	-0.006
-387.019	-72.268	0.306	-0.112
-386.004	-94.941	0.075	-0.020
-384.990	-57.063	-0.071	-0.031
-383.975	-200.000	0.001	-0.094
-382.960	280.014	0.120	0.212
-381.946	-200.000	0.050	-0.218
-380.931	5.514	0.129	0.094
-379.917	207.384	0.186	0.287
-378.902	-119.408	0.371	-0.064
-377.888	-41.343	0.111	0.057
-376.873	-20.418	0.123	0.075
-375.858	62.539	-0.105	0.104
-374.844	-154.111	-0.238	0.016
-373.829	-200.000	0.022	0.105
-372.815	455.862	0.040	-0.087
-371.800	128.546	0.208	0.261
-370.785	-63.361	-0.333	-0.135
-369.771	-103.197	-0.261	0.061
-368.756	77.718	-0.077	-0.081
-367.742	295.136	0.144	0.260
-366.727	20.941	-0.182	0.146
-365.712	102.195	0.014	-0.016
-364.698	800.000	0.013	0.038
-363.683	800.000	-0.060	0.222
-362.669	-7.111	-0.052	0.035
-361.654	426.565	-0.133	-0.283
-360.639	-200.000	-0.011	0.057
-359.625	96.953	0.287	-0.325
-358.610	353.976	0.212	-0.415
-357.596	-138.458	0.175	0.019
-356.581	-100.877	0.271	-0.066
-355.566	-200.000	0.001	0.258
-354.552	-10.430	0.220	0.144
-353.537	-80.596	-0.474	0.156
-352.523	243.020	-0.057	0.095
-351.508	-28.301	0.299	0.170
-350.493	-138.759	-0.275	0.030
-349.479	87.595	-0.091	-0.100
-348.464	115.971	0.135	0.163
-347.450	134.209	0.211	-0.270
-346.435	-200.000	-0.004	0.052
-345.420	-6.942	-0.207	0.139
-344.406	-200.000	0.027	0.215
-343.391	-200.000	-0.037	-0.232
-342.377	-63.642	0.312	-0.126
-341.362	-19.791	-0.039	0.024
-340.348	157.403	-0.174	0.238
-339.333	800.000	-0.109	0.306
-338.318	800.000	0.069	0.296
-337.304	-107.424	0.195	0.042
-336.289	-135.995	0.271	-0.031
-335.275	-200.000	-0.009	-0.193
-334.260	770.392	0.209	-0.561
-333.245	669.716	0.056	-0.143
-332.231	-75.307	0.035	-0.012
-331.216	-200.000	0.015	0.297
-330.202	-90.477	0.144	-0.041
-329.187	-96.489	-0.215	-0.056
-328.172	22.406	-0.210	0.170
-327.158	300.558	-0.063	0.114
-326.143	-79.215	-0.243	-0.081
-325.129	-78.688	-0.135	-0.045
-324.114	-200.000	0.016	-0.381
-323.099	-20.006	0.177	-0.108
-322.085	349.202	-0.097	-0.189
-321.070	-90.573	0.217	-0.062
-320.056	178.669	0.216	-0.312
-319.041	-200.000	0.028	0.132
-318.026	35.949	-0.561	0.487
-317.012	115.082	0.056	0.067
-315.997	-158.541	-0.035	-0.002
-314.983	20.744	-0.106	-0.085
-313.968	-120.657	-0.318	-0.053
-312.953	-91.164	0.190	0.054
-311.939	49.759	-0.110	-0.102
-310.924	800.000	-0.064	0.200
-309.910	-200.000	0.027	0.175
-308.895	99.623	-0.091	0.103
-307.880	440.401	0.098	0.212
-306.866	430.652	0.015	-0.033
-305.851	-122.861	-0.293	-0.047
-304.837	800.000	-0.083	0.319
-303.822	-155.924	-0.179	0.011
-302.807	55.023	-0.182	0.173
-301.793	800.000	-0.027	0.103
-300.778	487.265	0.153	0.343
-299.764	800.000	0.065	0.208
-298.749	202.216	0.028	-0.043
-297.735	690.246	-0.159	0.411
-296.720	-200.000	-0.000	0.032
-295.705	-200.000	-0.012	-0.096
-294.691	500.586	0.081	0.183
-293.676	-200.000	0.013	-0.167
-292.662	219.059	0.137	0.216
-291.647	457.237	-0.070	-0.154
-290.632	299.079	0.150	-0.273
-289.618	-44.924	-0.174	0.085
-288.603	-92.036	-0.154	0.043
-287.589	-174.518	0.224	0.006
-286.574	247.455	-0.170	-0.284
-285.559	10.328	0.313	-0.235
-284.545	112.431	-0.193	0.230
-283.530	1.576	0.205	-0.145
-282.516	19.617	0.233	0.185
-281.501	-22.299	0.247	-0.147
-280.486	263.053	0.144	-0.246
-279.472	32.408	0.169	-0.144
-278.457	629.240	0.063	-0.158
-277.443	-131.993	0.248	-0.032
-276.428	-200.000	-0.021	0.496
-275.413	-200.000	-0.036	0.165
-274.399	-200.000	0.008	-0.274
-273.384	39.154	0.122	0.108
-272.370	-200.000	0.002	0.219
-271.355	-200.000	-0.047	-0.220
-270.340	-80.111	-0.278	-0.092
-269.326	-55.078	0.084	-0.037
-268.311	-173.038	0.153	0.005
-267.297	86.899	-0.106	-0.116
-266.282	-93.705	-0.113	0.031
-265.267	-17.960	-0.169	0.104
-264.253	800.000	-0.056	0.155
-263.238	79.245	-0.047	-0.050
-262.224	74.669	-0.162	-0.167
-261.209	800.000	-0.071	-0.214
-260.195	-171.521	0.079	0.003
-259.180	207.743	-0.300	-0.461
-258.165	313.447	0.179	-0.331
-257.151	-88.455	0.221	0.065
-256.136	-89.209	-0.279	0.081
-255.122	75.516	0.218	0.226
-254.107	-92.252	0.269	0.075
-253.092	-32.729	0.253	-0.138
-252.078	-77.087	-0.198	-0.068
-251.063	-200.000	0.018	0.180
-250.049	11.493	0.254	-0.192
-249.034	-200.000	-0.027	-0.179
-248.019	-145.618	-0.299	0.026
-247.005	800.000	-0.052	0.209
-245.990	-103.786	0.179	-0.041
-244.976	691.412	-0.075	-0.193
-243.961	800.000	0.081	-0.285
-242.946	-101.819	0.438	-0.104
-241.932	11.312	0.103	-0.078
-240.917	-3.650	-0.193	-0.132
-239.903	76.535	-0.128	-0.133
-238.888	-99.895	-0.451	0.111
-237.873	-165.937	0.280	-0.012
-236.859	-18.846	-0.256	-0.157
-235.844	-200.000	0.045	-0.282
-234.830	-118.639	0.202	-0.035
-233.815	30.142	-0.125	-0.104
-232.800	36.075	-0.114	0.099
-231.786	-41.506	-0.147	-0.075
-230.771	-200.000	-0.025	0.109
-229.757	800.000	-0.054	-0.206
-228.742	19.869	-0.061	0.048
-227.727	212.335	-0.109	0.168
-226.713	-75.755	-0.194	0.068
-225.698	315.797	0.032	-0.058
-224.684	-200.000	-0.024	0.149
-223.669	-76.267	-0.348	0.120
-222.655	376.194	-0.194	-0.390
-221.640	800.000	-0.030	0.103
-220.625	113.448	0.029	-0.034
-219.611	-200.000	-0.031	0.359
-218.596	37.998	0.269	0.235
-217.582	800.000	0.059	-0.224
-216.567	-27.860	-0.245	-0.139
-215.552	-3.073	-0.144	-0.099
-214.538	86.429	0.318	0.345
-213.523	231.384	0.101	-0.163
-212.509	376.713	0.017	0.034
-211.494	378.912	-0.076	-0.153
-210.479	-52.929	-0.140	0.063
-209.465	-200.000	-0.002	-0.287
-208.450	-47.171	-0.081	-0.039
-207.436	-200.000	-0.010	-0.056
-206.421	-90.420	0.289	-0.082
-205.406	-110.068	-0.260	0.053
-204.392	135.666	0.291	0.372
-203.377	-136.724	-0.381	0.043
-202.363	-161.282	-0.182	0.009
-201.348	-200.000	-0.063	-0.275
-200.333	9.795	0.293	0.218
-199.319	-72.175	0.337	0.123
-198.304	32.990	0.027	0.023
-197.290	102.364	0.173	-0.198
-196.275	-41.504	-0.231	0.117
-195.260	-108.896	0.126	0.026
-194.246	800.000	-0.045	-0.149
-193.231	-30.926	-0.379	-0.210
-192.217	-95.454	0.219	0.058
-191.202	-121.609	-0.322	0.052
-190.187	197.416	-0.074	-0.111
-189.173	282.814	-0.072	0.127
-188.158	81.438	-0.309	0.328
-187.144	-163.246	0.427	-0.020
-186.129	800.000	-0.076	-0.304
-185.114	389.446	-0.097	-0.196
-184.100	-155.119	0.301	-0.019
-183.085	-113.623	-0.342	-0.066
-182.071	173.019	0.173	0.244
-181.056	-120.288	0.195	-0.033
-180.042	800.000	-0.037	-0.145
-179.027	-85.632	-0.085	0.026
-178.012	203.570	0.149	0.225
-176.998	61.248	-0.090	-0.088
-175.983	67.351	0.148	0.148
-174.969	758.290	-0.120	0.319
-173.954	-16.387	-0.320	-0.199
-172.939	750.062	0.023	0.060
-171.925	350.082	0.099	-0.192
-170.910	-64.884	-0.125	0.050
-169.896	-175.557	-0.148	0.004
-168.881	96.871	0.248	0.278
-167.866	673.815	0.139	0.355
-166.852	-105.569	0.084	0.019
-165.837	-152.371	-0.072	-0.005
-164.823	800.000	0.078	-0.237
-163.808	-148.563	-0.431	0.034
-162.793	312.597	0.065	0.119
-161.779	-90.686	0.312	-0.088
-160.764	-163.872	0.225	0.010
-159.750	610.460	0.040	0.099
-158.735	-200.000	-0.036	-0.218
-157.720	-200.000	-0.033	-0.237
-156.706	-61.918	0.305	-0.125
-155.691	83.470	-0.180	0.193
-154.677	65.803	0.184	0.182
-153.662	-118.095	0.177	-0.031
-152.647	-1.744	0.050	0.034
-151.633	2.087	-0.074	-0.052
-150.618	-68.808	-0.479	0.181
-149.604	-78.918	0.222	-0.074
-148.589	-11.360	0.172	0.111
-147.574	-157.185	0.303	0.018
-146.560	342.554	-0.175	-0.335
-145.545	-6.305	0.221	0.148
-144.531	29.881	0.216	0.180
-143.516	25.104	-0.185	-0.151
-142.502	-200.000	0.040	0.232
-141.487	548.772	-0.171	0.400
-140.472	-115.027	-0.126	0.023
-139.458	-44.251	-0.162	0.080
-138.443	571.703	-0.017	0.041
-137.429	-100.417	-0.068	0.016
-136.414	-200.000	-0.013	-0.083
-135.399	-7.693	-0.068	-0.045
-134.385	53.178	-0.201	-0.189
-133.370	-123.993	0.186	0.029
-132.356	-159.762	0.254	0.014
-131.341	429.731	0.074	0.157
-130.326	-61.548	-0.269	-0.111
-129.312	-200.000	0.012	-0.300
-128.297	182.315	0.149	0.215
-127.283	535.874	-0.202	0.470
-126.268	-200.000	-0.046	0.446
-125.253	634.579	0.148	0.367
-124.239	-200.000	-0.008	-0.276
-123.224	95.875	-0.148	-0.165
-122.210	-200.000	-0.023	0.191
-121.195	64.420	0.320	0.315
-120.180	-133.158	-0.208	0.026
-119.166	21.115	0.169	0.135
-118.151	266.795	-0.140	-0.239
-117.137	-200.000	-0.013	0.080
-116.122	44.393	0.066	0.060
-115.107	-116.680	0.163	0.029
-114.093	243.566	-0.047	0.077
-113.078	800.000	0.085	0.245
-112.064	-200.000	0.020	-0.352
-111.049	-124.518	-0.582	0.089
-110.034	-73.954	0.313	-0.111
-109.020	351.045	-0.217	0.419
-108.005	-105.426	0.242	0.054
-106.991	379.279	-0.165	-0.331
-105.976	-122.398	-0.290	-0.046
-104.962	-81.355	0.037	0.012
-103.947	-200.000	-0.023	-0.186
-102.932	16.821	-0.124	-0.096
-101.918	252.135	0.141	0.235
-100.903	434.932	0.137	0.292
-99.889	384.046	-0.034	0.068
-98.874	-68.824	-0.309	-0.117
-97.859	800.000	0.046	-0.127
-96.845	184.039	-0.155	0.224
-95.830	-200.000	0.027	0.170
-94.816	800.000	-0.056	0.233
-93.801	-121.869	0.171	-0.028
-92.786	-45.529	0.273	-0.132
-91.772	-108.949	-0.200	-0.042
-90.757	75.664	-0.225	-0.232
-89.743	-17.062	-0.200	0.123
-88.728	124.214	0.113	0.138
-87.713	-29.141	0.082	0.046
-86.699	-200.000	-0.004	0.183
-85.684	-200.000	0.016	0.103
-84.670	-48.631	0.170	0.080
-83.655	-180.098	-0.334	-0.007
-82.640	87.523	-0.134	0.145
-81.626	-200.000	-0.102	0.490
-80.611	800.000	0.065	0.182
-79.597	-12.823	0.234	0.149
-78.582	-32.518	-0.106	0.057
-77.567	-28.821	0.327	0.184
-76.553	54.599	0.159	-0.150
-75.538	-89.887	0.352	-0.100
-74.524	42.306	-0.096	-0.085
-73.509	211.064	-0.031	-0.047
-72.494	107.420	-0.006	0.007
-71.480	282.425	0.030	0.053
-70.465	-88.398	-0.232	-0.068
-69.451	197.396	-0.160	-0.238
-68.436	-200.000	-0.003	0.015
-67.422	459.615	0.033	-0.072
-66.407	-97.613	0.298	-0.076
-65.392	-119.759	-0.293	-0.049
-64.378	-171.758	0.151	0.005
-63.363	-200.000	0.027	-0.128
-62.349	-141.169	0.352	0.035
-61.334	76.955	-1.215	-1.260
-60.319	125.380	0.657	0.809
-59.305	484.952	-0.589	-1.310
-58.290	215.086	0.857	1.326
-57.276	665.406	0.582	1.466
-56.261	-200.000	133.743	669.100
-55.246	326.775	1681.948	3145.683
-54.232	129.801	2834.397	3537.925
-53.217	79.766	2366.496	2480.571
-52.203	27.454	2100.440	1723.746
-51.188	22.577	2015.658	1609.684
-50.173	21.448	2001.871	1588.359
-49.159	39.900	2079.636	1822.224
-48.144	37.623	2090.462	1810.487
-47.130	23.096	2040.857	1634.347
-46.115	20.906	2030.212	1605.605
-45.100	20.876	2026.905	1602.642
-44.086	20.779	2024.919	1600.119
-43.071	20.679	2022.397	1597.150
-42.057	20.724	2020.002	1595.601
-41.042	20.736	2018.299	1594.308
-40.027	20.797	2016.044	1593.016
-39.013	20.726	2014.368	1590.980
-37.998	20.761	2013.093	1590.237
-36.984	20.733	2011.047	1588.293
-35.969	20.746	2009.422	1587.069
-34.954	20.759	2007.582	1585.671
-33.940	20.843	2005.761	1584.931
-32.925	20.847	2004.286	1583.745
-31.911	20.854	2002.444	1582.292
-30.896	20.896	2000.812	1581.314
-29.881	20.842	1999.492	1579.725
-28.867	20.886	1997.478	1578.467
-27.852	20.896	1995.898	1577.248
-26.838	20.926	1994.141	1576.064
-25.823	20.922	1992.717	1574.845
-24.809	20.972	1990.749	1573.675
-23.794	20.873	1988.508	1570.949
-22.779	20.878	1987.085	1569.804
-21.765	20.876	1985.497	1568.471
-20.750	20.876	1983.946	1567.181
-19.736	20.831	1982.677	1565.717
-18.721	20.890	1980.839	1564.735
-17.706	20.981	1978.659	1563.764
-16.692	20.827	1977.509	1561.412
-15.677	20.906	1976.126	1560.965
-14.663	20.878	1974.472	1559.345
-13.648	20.874	1973.589	1558.549
-12.633	20.946	1971.549	1557.519
-11.619	20.886	1970.454	1556.059
-10.604	20.847	1969.596	1554.968
-9.590	20.905	1967.808	1554.018
-8.575	20.854	1966.423	1552.407
-7.560	20.850	1965.058	1551.231
-6.546	20.941	1963.586	1550.822
-5.531	20.922	1962.658	1549.853
-4.517	20.884	1961.591	1548.615
-3.502	20.898	1959.710	1547.188
-2.487	20.898	1958.792	1546.404
-1.473	20.909	1958.464	1546.184
-0.458	21.005	1953.012	1542.665
0.556	19.807	1932.975	1515.856
1.571	15.890	1915.108	1467.635
2.586	12.470	1939.761	1456.145
3.600	11.789	1975.206	1476.486
4.615	11.797	1968.605	1471.495
5.629	9.347	1866.807	1374.363
6.644	3.811	1753.797	1246.504
7.659	0.800	1722.655	1200.389
8.673	0.664	1719.965	1197.335
9.688	0.610	1718.908	1196.063
10.702	0.539	1717.158	1194.176
11.717	0.477	1712.856	1190.587
12.731	0.847	1711.329	1192.341
13.746	5.083	1719.745	1231.590
14.761	11.746	1733.206	1293.981
15.775	16.113	1741.525	1334.723
16.790	17.054	1742.259	1342.609
17.804	16.158	1739.423	1333.227
18.819	15.253	1735.976	1323.324
19.834	14.604	1733.734	1316.385
20.848	14.404	1732.076	1313.430
21.863	14.173	1730.512	1310.306
22.877	13.926	1728.903	1307.028
23.892	13.725	1727.278	1304.110
24.907	13.496	1726.142	1301.331
25.921	13.473	1725.429	1300.505
26.936	13.504	1724.498	1299.925
27.950	13.506	1723.581	1299.135
28.965	13.620	1722.785	1299.317
29.980	13.626	1721.753	1298.470
30.994	13.586	1720.992	1297.464
32.009	13.659	1720.120	1297.266
33.023	13.766	1719.278	1297.350
34.038	13.695	1718.627	1296.193
35.053	13.727	1717.772	1295.682
36.067	13.736	1716.081	1294.363
37.082	13.711	1715.302	1293.469
38.096	13.740	1713.597	1292.294
39.111	13.723	1713.275	1291.803
40.126	13.762	1712.361	1291.302
41.140	13.754	1711.206	1290.257
42.155	13.648	1709.933	1288.360
43.169	13.536	1708.777	1286.505
44.184	13.619	1707.498	1286.069
45.199	13.527	1706.184	1284.249
46.213	13.561	1705.132	1283.608
47.228	13.586	1703.767	1282.665
48.242	13.574	1702.564	1281.551
49.257	13.628	1700.976	1280.657
50.271	13.651	1699.888	1279.902
51.286	13.679	1698.463	1278.935
52.301	13.636	1697.184	1277.526
53.315	13.715	1695.825	1277.000
54.330	13.674	1694.359	1275.465
55.344	13.568	1692.744	1273.328
56.359	13.535	1691.648	1272.137
57.374	13.663	1689.947	1271.724
58.388	13.664	1688.870	1270.811
59.403	13.572	1687.525	1268.977
60.417	13.503	1686.078	1267.248
61.432	13.514	1684.981	1266.399
62.447	13.559	1683.777	1265.725
63.461	13.563	1682.506	1264.690
64.476	13.422	1681.962	1263.090
65.490	13.455	1680.243	1261.940
66.505	13.414	1679.089	1260.651
67.520	13.418	1678.520	1260.141
68.534	13.527	1676.863	1259.612
69.549	13.488	1675.852	1258.452
70.563	13.555	1674.295	1257.674
71.578	13.507	1672.905	1256.159
72.593	13.486	1672.160	1255.325
73.607	13.535	1670.801	1254.563
74.622	13.456	1669.871	1253.156
75.636	13.475	1669.205	1252.692
76.651	13.427	1668.226	1251.482
77.666	13.450	1666.877	1250.533
78.680	13.452	1666.213	1249.938
79.695	13.468	1665.289	1249.255
80.709	13.485	1663.723	1248.100
81.724	13.433	1663.693	1247.577
82.739	13.553	1661.873	1247.003
83.753	13.524	1661.075	1246.078
84.768	13.561	1660.397	1245.735
85.782	13.620	1659.570	1245.447
86.797	13.634	1658.212	1244.428
87.812	13.730	1657.049	1244.161
88.826	13.661	1655.979	1242.730
89.841	13.644	1654.716	1241.549
90.855	13.579	1653.716	1240.198
91.870	13.640	1652.459	1239.601
92.884	13.714	1651.565	1239.378
93.899	13.701	1650.535	1238.396
94.914	13.738	1649.349	1237.676
95.928	13.829	1647.777	1237.061
96.943	13.734	1646.557	1235.327
97.957	13.678	1645.259	1233.826
98.972	13.664	1643.957	1232.637
99.987	13.553	1643.161	1231.107
101.001	13.692	1640.857	1230.302
102.016	13.711	1639.276	1229.154
103.030	13.634	1638.434	1227.839
104.045	13.686	1637.084	1227.108
105.060	13.778	1634.924	1226.055
106.074	13.663	1634.347	1224.668
107.089	13.602	1633.060	1223.143
108.103	13.579	1630.857	1221.215
109.118	13.507	1629.737	1219.742
110.133	13.547	1628.566	1219.051
111.147	13.640	1626.401	1218.003
112.162	13.572	1625.043	1216.381
113.176	13.515	1623.724	1214.870
114.191	13.595	1622.111	1214.141
115.206	13.671	1620.842	1213.640
116.220	13.672	1619.829	1212.784
117.235	13.656	1618.332	1211.434
118.249	13.490	1617.336	1209.369
119.264	13.600	1615.721	1208.857
120.279	13.573	1614.425	1207.583
121.293	13.581	1612.640	1206.199
122.308	13.563	1611.420	1205.053
123.322	13.573	1609.570	1203.634
124.337	13.507	1608.290	1202.088
125.352	13.523	1607.077	1201.197
126.366	13.487	1606.094	1200.091
127.381	13.538	1604.708	1199.318
128.395	13.625	1603.555	1198.981
129.410	13.557	1602.133	1197.323
130.424	13.575	1600.514	1196.133
131.439	13.613	1599.219	1195.332
132.454	13.569	1597.975	1193.985
133.468	13.709	1596.002	1193.409
134.483	13.629	1594.845	1191.863
135.497	13.607	1593.293	1190.439
136.512	13.690	1591.907	1189.892
137.527	13.683	1590.438	1188.643
138.541	13.692	1588.864	1187.426
139.556	13.682	1587.868	1186.502
140.570	13.708	1586.452	1185.526
141.585	13.629	1585.421	1184.090
142.600	13.760	1583.716	1183.642
143.614	13.729	1582.753	1182.597
144.629	13.857	1580.863	1181.991
145.643	13.982	1579.227	1181.551
146.658	13.909	1578.294	1180.233
147.673	13.780	1576.578	1177.931
148.687	13.844	1575.263	1177.297
149.702	13.833	1573.671	1175.928
150.716	13.797	1572.497	1174.686
151.731	13.797	1571.185	1173.604
152.746	13.816	1569.940	1172.702
153.760	13.825	1568.208	1171.372
154.775	13.846	1567.216	1170.676
155.789	13.851	1566.154	1169.816
156.804	13.883	1564.638	1168.801
157.819	13.911	1562.986	1167.659
158.833	13.972	1561.439	1166.834
159.848	13.993	1560.314	1166.038
160.862	13.994	1559.839	1165.582
161.877	14.020	1557.866	1164.191
162.892	13.948	1556.705	1162.713
163.906	13.941	1555.339	1161.544
164.921	13.924	1554.432	1160.641
165.935	13.930	1553.246	1159.696
166.950	13.873	1552.562	1158.689
167.964	14.001	1550.447	1157.898
168.979	13.999	1549.698	1157.222
169.994	13.933	1548.908	1156.068
171.008	13.950	1547.991	1155.400
172.023	13.989	1546.111	1154.163
173.037	13.979	1545.114	1153.251
174.052	14.085	1543.866	1152.955
175.067	14.069	1542.550	1151.755
176.081	14.182	1541.253	1151.466
177.096	14.059	1540.495	1149.951
178.110	14.090	1538.602	1148.648
179.125	14.072	1537.635	1147.701
180.140	14.014	1537.267	1146.925
181.154	14.117	1535.815	1146.450
182.169	14.188	1534.425	1145.800
183.183	14.139	1533.098	1144.367
184.198	14.131	1532.311	1143.629
185.213	14.260	1531.085	1143.494
186.227	14.196	1530.159	1142.262
187.242	14.301	1528.829	1141.891
188.256	14.205	1527.765	1140.335
189.271	14.231	1527.145	1139.953
190.286	14.267	1525.797	1139.088
191.300	14.239	1524.828	1138.077
192.315	14.210	1523.184	1136.547
193.329	14.188	1522.652	1135.904
194.344	14.205	1520.727	1134.481
195.359	14.160	1519.827	1133.400
196.373	14.182	1518.852	1132.724
197.388	14.219	1518.040	1132.269
198.402	14.257	1516.667	1131.405
199.417	14.424	1514.778	1131.029
200.432	14.383	1514.163	1130.191
201.446	14.388	1513.581	1129.690
202.461	14.469	1512.135	1129.059
203.475	14.472	1510.898	1128.057
204.490	14.463	1509.810	1127.086
205.504	14.587	1508.200	1126.623
206.519	14.503	1507.083	1125.117
207.534	14.442	1506.545	1124.204
208.548	14.448	1504.988	1122.987
209.563	14.443	1504.213	1122.273
210.577	14.493	1502.955	1121.573
211.592	14.483	1502.074	1120.749
212.607	14.442	1501.547	1119.979
213.621	14.545	1500.684	1119.932
214.636	14.542	1499.755	1119.114
215.650	14.646	1498.552	1118.820
216.665	14.599	1497.624	1117.714
217.680	14.612	1497.136	1117.333
218.694	14.636	1496.502	1116.923
219.709	14.622	1495.206	1115.765
220.723	14.685	1494.145	1115.295
221.738	14.699	1493.293	1114.653
222.753	14.645	1492.160	1113.350
223.767	14.714	1491.154	1112.959
224.782	14.652	1490.144	1111.695
225.796	14.684	1489.174	1111.084
226.811	14.738	1488.572	1110.893
227.826	14.874	1487.419	1110.842
228.840	14.749	1486.365	1109.124
229.855	14.841	1485.121	1108.708
230.869	14.810	1484.581	1108.001
231.884	14.830	1483.019	1106.871
232.899	14.820	1482.242	1106.130
233.913	14.852	1480.907	1105.244
234.928	14.795	1479.982	1104.079
235.942	14.782	1478.847	1103.047
236.957	14.732	1477.901	1101.919
237.972	14.775	1476.562	1101.105
238.986	14.744	1475.612	1100.092
240.001	14.842	1474.492	1099.807
241.015	14.931	1473.246	1099.365
242.030	14.813	1472.090	1097.632
243.045	14.834	1471.069	1096.910
244.059	14.935	1469.824	1096.544
245.074	14.927	1469.422	1096.099
246.088	14.925	1468.582	1095.358
247.103	15.059	1467.407	1095.266
248.117	15.090	1466.921	1095.005
249.132	15.193	1466.044	1094.930
250.147	15.122	1465.336	1093.839
251.161	15.078	1464.875	1093.110
252.176	15.130	1463.399	1092.251
253.190	15.254	1462.757	1092.482
254.205	15.231	1461.891	1091.593
255.220	15.223	1461.417	1091.090
256.234	15.378	1460.026	1090.959
257.249	15.354	1459.268	1090.142
258.263	15.360	1458.705	1089.666
259.278	15.294	1457.824	1088.482
260.293	15.348	1456.728	1087.916
261.307	15.429	1455.911	1087.739
262.322	15.385	1455.520	1087.061
263.336	15.406	1454.284	1086.181
264.351	15.460	1453.235	1085.647
265.366	15.482	1452.206	1084.929
266.380	15.576	1450.935	1084.487
267.395	15.541	1450.400	1083.764
268.409	15.509	1449.646	1082.901
269.424	15.508	1448.234	1081.746
270.439	15.491	1447.890	1081.283
271.453	15.437	1446.627	1079.897
272.468	15.508	1445.390	1079.329
273.482	15.488	1445.114	1078.904
274.497	15.538	1443.884	1078.209
275.512	15.479	1443.385	1077.361
276.526	15.523	1442.571	1076.945
277.541	15.513	1441.251	1075.796
278.555	15.624	1440.362	1075.747
279.570	15.667	1439.193	1075.053
280.585	15.634	1438.299	1074.085
281.599	15.600	1437.958	1073.516
282.614	15.654	1437.030	1073.071
283.628	15.615	1435.452	1071.549
284.643	15.620	1434.739	1070.957
285.657	15.772	1433.091	1070.595
286.672	15.717	1432.284	1069.553
287.687	15.612	1431.357	1068.098
288.701	15.751	1430.208	1068.025
289.716	15.755	1429.745	1067.615
290.730	15.751	1428.530	1066.587
291.745	15.636	1427.519	1065.007
292.760	15.807	1426.963	1065.582
293.774	15.748	1425.979	1064.379
294.789	15.958	1424.626	1064.601
295.803	16.011	1423.473	1063.979
296.818	15.924	1423.094	1063.052
297.833	15.929	1422.102	1062.249
298.847	15.901	1421.082	1061.216
299.862	15.914	1419.444	1059.981
300.876	15.881	1418.884	1059.264
301.891	15.933	1417.840	1058.717
302.906	15.940	1417.169	1058.166
303.920	15.948	1416.760	1057.817
304.935	16.025	1415.427	1057.209
305.949	16.028	1415.206	1056.969
306.964	16.089	1413.915	1056.296
307.979	16.103	1413.093	1055.674
308.993	16.091	1412.308	1054.921
310.008	16.155	1411.733	1054.800
311.022	16.207	1409.949	1053.695
312.037	16.138	1408.993	1052.462
313.052	16.182	1408.112	1051.982
314.066	16.125	1407.280	1050.916
315.081	16.099	1406.575	1050.129
316.095	16.033	1405.131	1048.552
317.110	16.205	1404.105	1048.763
318.125	16.063	1403.255	1047.150
319.139	16.118	1402.294	1046.684
320.154	16.113	1401.064	1045.639
321.168	16.090	1400.279	1044.821
322.183	16.161	1399.024	1044.231
323.197	16.200	1398.195	1043.759
324.212	16.278	1397.243	1043.442
325.227	16.254	1396.828	1042.886
326.241	16.296	1395.320	1041.932
327.256	16.202	1394.681	1040.783
328.270	16.235	1393.871	1040.288
329.285	16.316	1393.141	1040.150
330.300	16.261	1391.896	1038.791
331.314	16.258	1391.105	1038.090
332.329	16.288	1390.326	1037.600
333.343	16.270	1389.206	1036.562
334.358	16.351	1388.200	1036.216
335.373	16.398	1387.453	1035.855
336.387	16.391	1386.661	1035.130
337.402	16.298	1386.052	1034.013
338.416	16.372	1385.524	1033.983
339.431	16.467	1384.711	1033.867
340.446	16.545	1383.892	1033.638
341.460	16.459	1382.598	1032.053
342.475	16.413	1381.822	1031.104
343.489	16.575	1380.578	1031.073
344.504	16.615	1380.131	1030.892
345.519	16.593	1379.304	1030.046
346.533	16.552	1378.727	1029.276
347.548	16.617	1377.488	1028.656
348.562	16.681	1376.599	1028.291
349.577	16.675	1375.758	1027.532
350.592	16.677	1374.957	1026.855
351.606	16.603	1374.171	1025.733
352.621	16.640	1373.032	1025.010
353.635	16.639	1371.945	1024.107
354.650	16.715	1370.967	1023.745
355.665	16.641	1370.122	1022.575
356.679	16.633	1368.841	1021.481
357.694	16.658	1368.261	1021.107
358.708	16.751	1366.421	1020.204
359.723	16.880	1365.526	1020.221
360.738	16.792	1364.553	1018.879
361.752	16.822	1363.558	1018.221
362.767	16.756	1362.447	1016.910
363.781	16.810	1361.197	1016.210
364.796	16.805	1360.820	1015.806
365.810	16.885	1359.979	1015.571
366.825	16.913	1359.553	1015.327
367.840	16.956	1358.605	1014.789
368.854	16.869	1358.252	1013.911
369.869	16.986	1357.400	1013.886
370.883	17.098	1356.166	1013.547
371.898	17.003	1355.722	1012.558
372.913	16.970	1355.175	1011.860
373.927	17.014	1354.070	1011.212
374.942	17.066	1353.037	1010.659
375.956	17.020	1352.890	1010.183
376.971	17.109	1351.889	1009.875
377.986	16.987	1351.380	1008.684
379.000	17.058	1350.187	1008.125
380.015	17.019	1349.310	1007.146
381.029	17.163	1348.299	1007.158
382.044	17.137	1347.693	1006.463
383.059	17.149	1346.719	1005.716
384.073	17.260	1345.993	1005.744
385.088	17.258	1345.868	1005.548
386.102	17.264	1344.983	1004.834
387.117	17.257	1344.460	1004.313
388.132	17.401	1343.457	1004.323
389.146	17.277	1342.315	1002.652
390.161	17.252	1341.672	1001.935
391.175	17.216	1341.035	1001.157
392.190	17.366	1340.019	1001.192
393.205	17.328	1339.425	1000.440
394.219	17.376	1338.162	999.691
395.234	17.375	1336.630	998.451
396.248	17.396	1335.592	997.710
397.263	17.427	1333.927	996.560
398.278	17.460	1332.981	995.958
399.292	17.318	1332.223	994.471
400.307	17.425	1330.765	993.919
401.321	17.348	1329.794	992.660
402.336	17.398	1328.935	992.218
403.350	17.404	1328.219	991.635
404.365	17.393	1327.180	990.705
405.380	17.405	1325.761	989.629
406.394	17.388	1325.129	988.969
407.409	17.449	1324.724	988.935
408.423	17.456	1324.324	988.588
409.438	17.572	1322.712	987.969
410.453	17.562	1322.339	987.548
411.467	17.618	1321.519	987.173
412.482	17.603	1320.858	986.504
413.496	17.677	1320.083	986.265
414.511	17.763	1319.222	986.030
415.526	17.761	1318.682	985.533
416.540	17.736	1318.065	984.839
417.555	17.761	1316.976	984.083
418.569	17.895	1316.158	984.156
419.584	17.849	1316.278	983.891
420.599	17.799	1315.391	982.858
421.613	101.381	1364.286	1491.420
422.628	99.969	1371.351	1491.512
