DTS Sentinel unit serial number:	SN413079Multiplexer serial number:	ORYXHardware model number:	OX4-SRSoftware version number:	ORYX F/W v4.00 Oryx Data Collector v3.7.2.0data status	okinstallation	princeton_trtdifferential loss correction	single-endedforward channel	channel 4reverse channel	N/Adate	2019/09/12time	19:12:19forward acquisition time	15.00reverse acquisition time	0.00gamma	496.2192k internal	0.2307k external	0.2307temperature offset calibration	1.0150default loss term (dB/km)	0.3790temperature slope calibration	1.0000multiplexer offset coefficient	1.0000multiplexer slope coefficient	1.0000fibre end	0.00T internal ref (°C)	32.56T ext. ref 1 (°C)	3.27T ext. ref 2 (°C)	27.18length (m)	temperature (°C)	Stokes	anti-Stokes-747.200	800.000	0.188	-0.656
-746.185	-135.544	0.854	0.103
-745.171	-117.451	0.170	0.031
-744.156	-85.310	-0.603	-0.191
-743.142	775.561	0.131	-0.364
-742.127	82.981	0.238	0.263
-741.112	800.000	0.211	0.682
-740.098	10.814	0.874	0.678
-739.083	-100.602	0.597	-0.150
-738.069	-84.075	-0.257	0.083
-737.054	800.000	0.054	-0.168
-736.039	-4.094	-0.347	-0.245
-735.025	800.000	-0.241	0.805
-734.010	144.736	0.639	-0.868
-732.996	-118.941	-0.675	-0.120
-731.981	-120.712	-0.704	-0.121
-730.966	-42.347	0.515	-0.267
-729.952	266.062	0.279	-0.495
-728.937	15.315	-0.857	-0.683
-727.923	800.000	0.149	-0.543
-726.908	147.688	0.487	-0.666
-725.894	-6.031	-0.256	0.178
-724.879	-145.534	-0.859	-0.078
-723.864	-137.903	-0.692	-0.079
-722.850	-200.000	0.017	0.549
-721.835	203.137	0.127	0.199
-720.821	291.973	0.248	-0.459
-719.806	-142.318	-0.571	-0.057
-718.791	-59.222	-0.389	0.170
-717.777	297.206	0.080	0.149
-716.762	177.162	-0.440	-0.651
-715.748	90.695	-0.322	-0.366
-714.733	-102.246	0.925	-0.226
-713.718	73.163	0.273	0.290
-712.704	-57.979	-0.309	-0.137
-711.689	114.922	0.079	-0.097
-710.675	-78.781	0.369	-0.128
-709.660	-90.554	0.162	-0.048
-708.645	-33.006	0.250	-0.141
-707.631	87.423	-0.250	-0.281
-706.616	46.492	-0.667	-0.628
-705.602	-132.356	-0.275	-0.036
-704.587	-200.000	-0.058	-0.280
-703.572	800.000	0.240	-0.877
-702.558	-74.732	0.991	0.361
-701.543	-126.389	0.850	-0.129
-700.529	-200.000	-0.113	-0.726
-699.514	29.050	0.515	-0.444
-698.499	38.070	0.704	-0.636
-697.485	5.004	-0.335	0.250
-696.470	-125.756	-0.735	-0.113
-695.456	73.806	0.389	0.414
-694.441	-77.063	0.768	-0.272
-693.426	-18.975	-0.028	0.018
-692.412	-6.868	0.851	0.587
-691.397	-107.042	-0.305	-0.068
-690.383	271.880	-0.288	0.515
-689.368	10.026	-0.270	0.208
-688.354	675.790	-0.323	-0.852
-687.339	800.000	-0.168	0.570
-686.324	-96.621	1.126	0.301
-685.310	240.129	0.374	-0.632
-684.295	800.000	-0.241	-0.844
-683.281	-28.353	0.757	0.443
-682.266	-52.889	0.283	0.132
-681.251	-1.317	0.162	-0.116
-680.237	360.382	0.307	-0.624
-679.222	-46.888	0.958	-0.475
-678.208	46.832	-0.642	0.605
-677.193	708.297	-0.185	-0.496
-676.178	281.549	0.211	0.383
-675.164	-74.424	0.959	0.351
-674.149	-21.541	-0.537	-0.332
-673.135	800.000	0.261	-0.792
-672.120	155.539	-0.737	-1.029
-671.105	-198.093	-0.253	-0.002
-670.091	-126.299	0.948	-0.144
-669.076	99.014	-0.213	-0.249
-668.062	703.174	0.107	-0.287
-667.047	-61.952	-0.715	-0.303
-666.032	-149.613	0.831	-0.066
-665.018	103.502	-0.561	-0.667
-664.003	-67.978	0.346	0.137
-662.989	-1.714	-0.421	0.300
-661.974	-126.965	-0.740	-0.110
-660.959	24.807	-0.235	0.198
-659.945	-1.962	-0.192	0.137
-658.930	-75.786	0.755	-0.271
-657.916	-101.329	-0.561	-0.139
-656.901	-89.583	0.486	0.145
-655.886	-200.000	0.015	0.175
-654.872	-18.333	-0.243	-0.154
-653.857	29.703	-0.647	0.558
-652.843	-136.718	0.353	-0.041
-651.828	-161.804	0.254	-0.013
-650.814	800.000	0.270	1.034
-649.799	-200.000	0.108	0.522
-648.784	300.832	-0.345	0.645
-647.770	-200.000	-0.004	-0.613
-646.755	800.000	0.107	-0.429
-645.741	-65.616	-1.009	0.410
-644.726	459.255	0.197	0.444
-643.711	-108.387	-0.885	-0.193
-642.697	-95.062	-0.212	0.058
-641.682	800.000	0.107	-0.378
-640.668	133.494	0.685	-0.897
-639.653	64.190	0.396	0.404
-638.638	800.000	-0.086	0.294
-637.624	800.000	-0.155	-0.445
-636.609	800.000	-0.303	1.035
-635.595	736.408	-0.570	-1.547
-634.580	93.968	0.516	-0.592
-633.565	-42.160	0.615	0.318
-632.551	-107.709	-0.264	0.058
-631.536	-200.000	0.181	0.858
-630.522	-200.000	-0.023	-0.116
-629.507	301.883	0.457	-0.855
-628.492	22.260	-0.164	-0.136
-627.478	340.007	-0.567	1.119
-626.463	-152.446	-0.627	-0.046
-625.449	83.309	0.499	-0.550
-624.434	257.622	-0.277	-0.482
-623.419	379.214	-0.086	-0.178
-622.405	-19.964	0.177	0.110
-621.390	-103.424	0.423	0.101
-620.376	-41.353	-0.646	0.337
-619.361	-167.900	0.116	0.005
-618.346	800.000	0.188	0.619
-617.332	-177.166	0.262	0.007
-616.317	-11.806	-0.548	-0.364
-615.303	-51.426	-0.578	0.273
-614.288	326.206	-0.153	-0.296
-613.273	-177.139	-0.161	-0.004
-612.259	-127.284	-1.474	-0.218
-611.244	293.845	0.232	0.429
-610.230	-5.616	-0.544	-0.377
-609.215	-32.575	-0.227	0.128
-608.201	260.030	0.015	-0.027
-607.186	266.520	0.189	0.334
-606.171	-200.000	0.031	1.235
-605.157	99.996	-1.073	-1.258
-604.142	-78.618	-0.316	0.109
-603.128	800.000	-0.117	0.390
-602.113	-1.647	-0.218	-0.155
-601.098	-30.726	-0.336	-0.192
-600.084	27.495	0.726	-0.618
-599.069	646.245	0.102	-0.263
-598.055	-25.462	-0.537	-0.321
-597.040	372.675	-0.204	0.420
-596.025	-200.000	-0.094	-0.918
-595.011	595.718	0.286	-0.714
-593.996	335.014	0.057	0.112
-592.982	800.000	-0.088	-0.371
-591.967	-17.768	-0.217	-0.138
-590.952	-200.000	-0.290	0.000
-589.938	-200.000	0.044	-0.253
-588.923	800.000	-0.104	-0.298
-587.909	37.329	0.169	0.151
-586.894	180.458	-0.177	0.262
-585.879	102.621	-0.354	0.419
-584.865	3.586	-0.314	-0.232
-583.850	-200.000	0.008	-0.597
-582.836	4.973	-0.624	0.464
-581.821	800.000	0.151	0.449
-580.806	-28.105	-0.958	-0.560
-579.792	219.647	-0.270	-0.436
-578.777	-44.688	1.170	-0.590
-577.763	6.426	-0.384	0.288
-576.748	-25.694	0.739	0.441
-575.733	-7.952	0.244	0.166
-574.719	17.722	-0.502	0.403
-573.704	104.660	0.221	-0.263
-572.690	-200.000	0.018	-0.174
-571.675	47.789	0.834	-0.786
-570.661	-78.515	-0.539	0.186
-569.646	-200.000	0.061	0.285
-568.631	800.000	-0.207	0.711
-567.617	-69.612	0.525	-0.203
-566.602	175.723	-0.278	0.407
-565.588	60.168	-0.835	-0.833
-564.573	-200.000	0.025	0.793
-563.558	800.000	0.049	0.197
-562.544	-64.191	0.501	-0.206
-561.529	-45.857	-0.177	-0.088
-560.515	-106.863	-0.537	0.120
-559.500	231.969	0.024	0.040
-558.485	-15.377	-0.303	-0.196
-557.471	675.413	-0.201	0.527
-556.456	71.644	-0.511	0.536
-555.442	731.563	-0.027	0.072
-554.427	278.701	0.257	0.463
-553.412	-118.225	-0.340	0.061
-552.398	2.522	-0.067	-0.049
-551.383	-12.971	-0.566	0.372
-550.369	-144.027	-0.587	-0.056
-549.354	20.872	0.042	-0.035
-548.339	-34.223	-0.596	0.330
-547.325	-141.004	0.259	-0.027
-546.310	-36.367	0.829	-0.451
-545.296	42.831	-0.924	-0.850
-544.281	-200.000	-0.095	-0.965
-543.266	307.121	-0.179	-0.336
-542.252	800.000	-0.066	0.224
-541.237	-41.467	0.312	0.162
-540.223	66.789	-0.595	0.611
-539.208	-22.955	-0.541	0.329
-538.193	-200.000	0.041	-0.226
-537.179	-29.981	0.928	0.533
-536.164	-48.985	0.404	0.195
-535.150	434.157	0.368	0.807
-534.135	-51.421	-0.802	0.378
-533.121	-142.868	1.192	0.117
-532.106	800.000	0.147	-0.606
-531.091	519.498	-0.037	0.088
-530.077	-156.773	1.138	-0.071
-529.062	-200.000	0.022	-0.203
-528.048	-94.368	-0.496	0.137
-527.033	-200.000	-0.018	0.588
-526.018	-200.000	-0.109	0.761
-525.004	-85.078	-0.278	-0.088
-523.989	800.000	-0.074	-0.299
-522.975	-65.738	-0.556	0.224
-521.960	28.340	0.216	0.184
-520.945	256.318	-0.363	-0.628
-519.931	-200.000	0.132	-0.730
-518.916	-200.000	-0.047	-0.411
-517.902	800.000	-0.057	-0.211
-516.887	-200.000	0.157	0.700
-515.872	-160.906	-0.158	-0.008
-514.858	-200.000	-0.029	-0.249
-513.843	-101.684	-0.464	-0.113
-512.829	56.040	-0.575	-0.562
-511.814	126.670	0.507	-0.647
-510.799	7.328	0.481	0.362
-509.785	-200.000	-0.019	0.292
-508.770	-66.804	-0.702	0.280
-507.756	433.135	0.167	-0.366
-506.741	-185.082	0.638	0.010
-505.726	-200.000	0.149	-0.776
-504.712	-138.507	-0.671	0.074
-503.697	15.996	-0.127	0.101
-502.683	-80.818	0.800	-0.268
-501.668	-64.536	0.244	-0.100
-500.653	82.024	0.522	0.570
-499.639	-200.000	0.129	0.574
-498.624	178.691	0.373	0.549
-497.610	-103.172	-0.490	0.117
-496.595	-156.861	-0.458	-0.028
-495.581	27.679	-0.597	-0.506
-494.566	57.318	-0.224	-0.220
-493.551	-117.424	1.031	-0.188
-492.537	-61.192	-0.187	-0.079
-491.522	1.485	-0.761	0.551
-490.508	25.599	0.376	0.315
-489.493	-200.000	-0.045	-0.721
-488.478	221.844	0.266	0.431
-487.464	-57.887	-0.253	-0.111
-486.449	14.562	0.800	-0.629
-485.435	14.607	-0.252	0.198
-484.420	18.575	0.187	-0.150
-483.405	-15.795	-0.857	-0.549
-482.391	45.344	0.822	0.763
-481.376	181.958	0.160	0.237
-480.362	-55.216	0.501	-0.227
-479.347	-200.000	-0.152	-0.696
-478.332	800.000	0.117	-0.489
-477.318	-200.000	0.020	0.425
-476.303	-6.241	0.260	0.178
-475.289	-200.000	-0.120	0.558
-474.274	259.764	-0.398	-0.691
-473.259	41.645	0.407	-0.371
-472.245	-200.000	-0.047	-0.809
-471.230	437.858	0.299	0.656
-470.216	-131.398	0.482	-0.064
-469.201	36.970	0.461	0.410
-468.186	751.288	-0.128	-0.348
-467.172	-200.000	0.004	-0.360
-466.157	44.202	0.147	0.136
-465.143	-200.000	-0.000	0.076
-464.128	-200.000	0.038	0.487
-463.113	-200.000	0.074	-0.456
-462.099	-200.000	-0.079	0.401
-461.084	317.457	-0.106	0.201
-460.070	-59.076	-0.279	-0.121
-459.055	49.401	0.290	-0.274
-458.040	-200.000	0.000	0.288
-457.026	20.394	-0.311	0.253
-456.011	-91.078	0.832	0.240
-454.997	-200.000	-0.006	-0.600
-453.982	248.036	-0.385	0.655
-452.968	800.000	0.091	0.303
-451.953	-121.973	0.702	-0.116
-450.938	346.831	0.223	-0.442
-449.924	637.608	0.541	-1.383
-448.909	800.000	-0.080	0.328
-447.895	72.459	0.577	-0.605
-446.880	38.500	0.277	-0.248
-445.865	800.000	0.106	0.447
-444.851	-200.000	0.020	-0.294
-443.836	116.595	0.239	0.294
-442.822	101.874	0.412	0.484
-441.807	-10.816	0.451	0.299
-440.792	40.743	-0.085	0.077
-439.778	99.496	-0.357	-0.415
-438.763	-97.585	0.543	-0.142
-437.749	467.449	-0.184	0.414
-436.734	340.968	0.205	-0.401
-435.719	12.520	0.480	0.372
-434.705	174.494	-0.540	0.785
-433.690	-119.773	-0.729	0.126
-432.676	361.490	-0.088	0.177
-431.661	623.786	0.173	-0.438
-430.646	800.000	0.150	-0.624
-429.632	170.459	-0.125	-0.179
-428.617	264.212	0.232	-0.406
-427.603	-66.573	-0.219	-0.087
-426.588	800.000	-0.116	-0.460
-425.573	131.111	0.145	-0.186
-424.559	-59.087	-0.167	0.072
-423.544	800.000	-0.172	-0.707
-422.530	310.025	0.278	-0.522
-421.515	-139.164	0.437	-0.047
-420.500	111.890	0.638	0.773
-419.486	800.000	0.085	0.291
-418.471	222.691	-0.373	0.603
-417.457	129.079	-0.153	-0.197
-416.442	-163.956	0.456	-0.021
-415.428	69.291	-0.438	-0.452
-414.413	-200.000	0.041	-0.448
-413.398	-200.000	0.113	-0.831
-412.384	42.040	0.468	-0.426
-411.369	-109.212	0.393	-0.084
-410.355	-130.673	0.299	0.040
-409.340	-131.301	-0.887	0.118
-408.325	700.532	0.208	-0.550
-407.311	-177.377	-0.466	0.012
-406.296	-70.660	0.351	-0.133
-405.282	43.496	-0.587	-0.539
-404.267	309.271	0.225	-0.421
-403.252	-35.651	0.739	0.402
-402.238	93.661	-0.090	0.103
-401.223	-118.759	-0.551	0.097
-400.209	-153.204	-0.807	0.057
-399.194	613.281	0.153	0.384
-398.179	-68.380	0.471	0.183
-397.165	-200.000	-0.055	-0.439
-396.150	-115.301	-0.920	0.174
-395.136	108.097	-0.354	-0.424
-394.121	-109.413	-0.462	0.098
-393.106	800.000	0.190	0.556
-392.092	800.000	-0.087	0.368
-391.077	-20.639	0.724	0.446
-390.063	-200.000	0.133	1.069
-389.048	102.340	-0.506	0.593
-388.033	800.000	-0.350	1.060
-387.019	80.260	-0.427	0.461
-386.004	48.330	0.458	-0.430
-384.990	45.086	0.328	0.303
-383.975	69.929	-0.445	0.460
-382.960	150.264	0.327	0.445
-381.946	83.435	0.516	0.564
-380.931	-21.602	0.489	-0.299
-379.917	-39.101	0.542	-0.286
-378.902	498.169	-0.110	0.253
-377.888	-200.000	0.013	0.158
-376.873	9.091	0.324	-0.245
-375.858	445.820	0.083	0.182
-374.844	-87.530	-0.437	-0.132
-373.829	-12.149	-1.053	0.691
-372.815	-36.602	-0.387	0.209
-371.800	-80.033	0.228	-0.077
-370.785	336.782	-0.425	-0.827
-369.771	207.869	-0.369	-0.577
-368.756	-200.000	0.133	-0.838
-367.742	-5.895	-0.573	-0.393
-366.727	-200.000	-0.014	0.592
-365.712	-92.565	0.323	-0.091
-364.698	305.392	-0.055	0.103
-363.683	358.825	0.084	-0.168
-362.669	-85.069	-0.140	0.044
-361.654	800.000	-0.135	-0.440
-360.639	119.493	-0.447	0.554
-359.625	-61.645	0.339	-0.142
-358.610	38.002	-0.471	-0.419
-357.596	26.941	0.473	-0.397
-356.581	-54.931	-0.102	-0.046
-355.566	-200.000	-0.059	0.517
-354.552	-34.908	0.794	0.434
-353.537	574.923	-0.101	-0.247
-352.523	-130.672	-0.524	-0.071
-351.508	-134.933	-0.432	0.052
-350.493	393.782	0.077	0.161
-349.479	-63.629	-0.516	-0.212
-348.464	-117.453	0.724	0.131
-347.450	-186.205	0.316	0.005
-346.435	52.880	0.171	0.164
-345.420	22.831	0.296	-0.243
-344.406	-0.661	0.879	0.624
-343.391	102.208	0.375	0.438
-342.377	-107.181	-0.413	-0.091
-341.362	-200.000	0.023	0.515
-340.348	-173.128	0.419	-0.013
-339.333	150.735	0.391	-0.532
-338.318	-135.466	-0.081	0.010
-337.304	-200.000	0.088	0.414
-336.289	456.632	0.222	-0.492
-335.275	456.642	0.177	-0.392
-334.260	177.241	-0.292	0.425
-333.245	-39.538	-0.470	-0.246
-332.231	24.704	0.422	-0.350
-331.216	-90.788	0.547	0.158
-330.202	238.918	0.513	0.853
-329.187	-200.000	0.028	0.131
-328.172	-200.000	0.129	0.765
-327.158	334.729	-0.182	0.353
-326.143	-86.962	-0.668	-0.204
-325.129	55.815	0.611	-0.593
-324.114	184.168	0.821	-1.215
-323.099	-34.089	0.588	0.323
-322.085	589.130	-0.121	-0.297
-321.070	-64.461	1.049	0.426
-320.056	313.800	-0.296	-0.557
-319.041	48.201	-0.249	0.233
-318.026	-200.000	-0.104	-0.614
-317.012	-33.820	-0.800	-0.441
-315.997	-32.277	0.198	0.111
-314.983	326.329	-0.346	-0.663
-313.968	800.000	0.209	-0.613
-312.953	-1.975	0.992	0.697
-311.939	209.533	-0.431	0.676
-310.924	45.982	0.298	-0.276
-309.910	-117.732	-0.410	0.074
-308.895	134.515	-0.158	-0.205
-307.880	-120.293	-0.286	0.049
-306.866	41.119	-0.396	-0.358
-305.851	-200.000	0.033	0.258
-304.837	-67.538	0.348	-0.136
-303.822	-33.651	-0.343	-0.189
-302.807	551.649	-0.360	-0.865
-301.793	-200.000	0.111	-0.823
-300.778	-80.950	-0.853	0.283
-299.764	-179.495	-1.263	0.028
-298.749	147.145	0.678	0.911
-297.735	1.343	-0.198	0.142
-296.720	-200.000	0.003	0.203
-295.705	41.536	0.589	0.533
-294.691	-4.198	0.180	0.125
-293.676	155.487	0.179	0.246
-292.662	800.000	-0.219	0.772
-291.647	490.273	-0.255	0.583
-290.632	729.058	0.158	0.422
-289.618	-200.000	0.165	0.766
-288.603	-8.918	-0.752	-0.503
-287.589	-200.000	-0.036	0.453
-286.574	143.853	0.485	0.645
-285.559	75.087	-0.071	-0.075
-284.545	32.605	0.559	0.482
-283.530	67.898	-0.484	-0.494
-282.516	-200.000	-0.085	0.622
-281.501	-171.444	0.760	0.025
-280.486	54.246	-0.446	0.429
-279.472	-9.749	0.387	-0.257
-278.457	-57.962	-0.447	0.195
-277.443	267.562	-0.313	-0.547
-276.428	126.234	0.142	0.179
-275.413	88.696	0.316	-0.351
-274.399	153.515	0.244	-0.334
-273.384	-200.000	-0.058	-0.272
-272.370	-200.000	-0.020	-0.146
-271.355	-123.124	0.706	0.113
-270.340	-114.915	0.848	-0.161
-269.326	439.935	0.109	-0.238
-268.311	-38.846	0.575	0.302
-267.297	-76.462	-0.412	0.144
-266.282	-200.000	-0.052	-0.689
-265.267	-200.000	-0.020	-0.355
-264.253	155.025	0.123	0.169
-263.238	-134.891	0.704	-0.085
-262.224	-73.797	0.461	-0.167
-261.209	800.000	0.098	0.317
-260.195	800.000	-0.235	-0.935
-259.180	-74.960	0.792	0.283
-258.165	-84.041	0.328	0.104
-257.151	225.947	0.388	0.628
-256.136	-200.000	0.096	-0.567
-255.122	800.000	0.049	-0.190
-254.107	-200.000	0.039	0.706
-253.092	408.958	-0.156	-0.330
-252.078	-200.000	-0.019	0.156
-251.063	800.000	-0.279	-0.782
-250.049	-39.241	-0.795	-0.416
-249.034	800.000	-0.033	-0.132
-248.019	800.000	0.252	1.086
-247.005	-34.153	0.707	0.388
-245.990	-200.000	0.025	-0.302
-244.976	-57.213	0.227	0.100
-243.961	772.507	0.058	-0.158
-242.946	-46.173	-0.524	-0.257
-241.932	-200.000	-0.123	-0.741
-240.917	156.282	-0.490	0.673
-239.903	706.547	-0.171	-0.449
-238.888	267.874	-0.122	0.213
-237.873	-200.000	-0.121	-0.756
-236.859	-200.000	0.016	0.603
-235.844	570.411	-0.037	0.091
-234.830	-72.144	0.860	-0.318
-233.815	800.000	-0.062	0.206
-232.800	-5.319	-0.200	-0.137
-231.786	-200.000	0.037	0.188
-230.771	800.000	-0.149	0.424
-229.757	-134.105	-0.469	0.058
-228.742	419.548	0.266	0.567
-227.727	-46.224	-0.643	0.315
-226.713	486.733	-0.481	1.092
-225.698	328.117	0.121	-0.231
-224.684	-16.596	-0.462	-0.292
-223.669	-66.361	0.389	0.154
-222.655	-80.108	0.351	0.117
-221.640	319.332	-0.224	-0.422
-220.625	800.000	-0.053	-0.177
-219.611	149.903	-0.238	0.322
-218.596	-81.117	0.085	-0.028
-217.582	-200.000	0.011	0.246
-216.567	-14.299	0.230	-0.148
-215.552	367.624	0.556	1.118
-214.538	-175.525	-0.174	0.005
-213.523	-66.575	0.581	-0.229
-212.509	243.538	0.381	-0.636
-211.494	-200.000	0.007	-0.737
-210.479	800.000	-0.191	0.672
-209.465	-19.299	0.707	-0.437
-208.450	19.250	0.541	-0.433
-207.436	-66.002	-0.504	-0.200
-206.421	21.884	-0.507	0.412
-205.406	-66.023	-0.316	-0.126
-204.392	-42.204	-0.437	-0.222
-203.377	-166.335	0.139	0.006
-202.363	800.000	0.261	-0.908
-201.348	800.000	0.157	0.435
-200.333	-45.290	0.971	-0.480
-199.319	87.296	-0.395	0.434
-198.304	-200.000	0.016	-0.256
-197.290	263.212	0.409	0.707
-196.275	432.380	0.152	0.327
-195.260	-26.556	-0.296	0.172
-194.246	800.000	-0.119	-0.444
-193.231	316.957	0.389	-0.732
-192.217	252.848	0.345	0.585
-191.202	-173.694	-0.436	0.013
-190.187	-200.000	0.035	-0.610
-189.173	800.000	-0.072	-0.221
-188.158	-117.531	-0.796	-0.143
-187.144	-102.017	1.077	-0.259
-186.129	232.739	-0.225	-0.367
-185.114	184.493	0.413	-0.609
-184.100	-200.000	-0.165	-0.748
-183.085	119.336	0.239	-0.294
-182.071	19.239	-0.911	0.728
-181.056	-70.583	-0.395	0.149
-180.042	231.303	0.239	0.389
-179.027	7.362	-0.187	-0.139
-178.012	800.000	-0.117	0.415
-176.998	60.256	0.114	0.112
-175.983	-200.000	0.005	-0.616
-174.969	-197.868	0.569	-0.003
-173.954	149.839	-0.519	0.699
-172.939	158.583	0.365	-0.504
-171.925	-80.382	0.415	0.138
-170.910	800.000	0.184	0.651
-169.896	114.483	-0.565	0.685
-168.881	331.021	0.051	-0.098
-167.866	550.963	-0.208	0.497
-166.852	605.927	-0.220	-0.546
-165.837	641.316	-0.176	-0.446
-164.823	-200.000	0.015	0.736
-163.808	-48.732	0.409	-0.195
-162.793	-106.466	-0.571	0.127
-161.779	79.235	0.351	0.374
-160.764	-92.549	-0.745	0.208
-159.750	-200.000	0.185	0.807
-158.735	285.470	0.366	0.656
-157.720	-8.996	-0.369	0.245
-156.706	-21.422	0.255	0.155
-155.691	800.000	0.264	-0.750
-154.677	-200.000	-0.019	-0.339
-153.662	-13.619	0.348	-0.224
-152.647	800.000	-0.199	0.633
-151.633	-108.440	-0.814	0.174
-150.618	412.304	0.118	0.249
-149.604	-200.000	0.178	0.919
-148.589	-140.556	0.095	0.010
-147.574	749.796	-0.537	-1.438
-146.560	149.553	-0.852	-1.147
-145.545	-64.115	0.531	0.215
-144.531	471.473	0.195	-0.435
-143.516	67.656	-0.131	0.133
-142.502	-200.000	-0.089	0.921
-141.487	-33.735	0.044	0.024
-140.472	92.138	-0.582	-0.651
-139.458	142.814	0.377	0.497
-138.443	-57.139	0.567	-0.248
-137.429	800.000	0.394	-1.317
-136.414	-200.000	0.044	0.340
-135.399	800.000	-0.124	0.372
-134.385	800.000	0.044	0.134
-133.370	-20.735	0.360	-0.219
-132.356	-29.172	0.615	0.350
-131.341	-78.890	-0.354	-0.120
-130.326	355.880	-0.173	-0.341
-129.312	-130.223	0.421	-0.057
-128.297	-9.671	-0.242	0.160
-127.283	-80.734	-0.828	0.273
-126.268	15.871	-0.593	-0.463
-125.253	-119.691	0.269	-0.046
-124.239	289.989	-0.343	0.617
-123.224	-62.783	0.194	-0.080
-122.210	25.738	-0.143	0.118
-121.195	-4.001	0.223	-0.153
-120.180	-45.967	0.243	0.119
-119.166	-110.510	0.424	-0.087
-118.151	41.979	-0.298	0.268
-117.137	-127.902	0.114	0.016
-116.122	378.073	-0.459	-0.930
-115.107	-119.333	0.556	0.096
-114.093	288.630	0.157	-0.282
-113.078	68.131	-0.333	0.338
-112.064	-19.827	-0.232	0.142
-111.049	-10.029	-0.749	-0.493
-110.034	116.430	0.543	0.660
-109.020	121.685	-0.134	-0.166
-108.005	49.934	0.626	-0.586
-106.991	206.909	-0.610	0.943
-105.976	6.243	0.384	-0.283
-104.962	800.000	-0.113	0.336
-103.947	-101.623	0.525	0.126
-102.932	-38.120	-0.386	0.203
-101.918	103.202	0.246	0.285
-100.903	-200.000	-0.012	0.232
-99.889	800.000	0.298	-0.975
-98.874	32.131	0.184	-0.157
-97.859	310.650	-0.603	1.120
-96.845	-200.000	-0.019	0.655
-95.830	4.484	0.134	0.097
-94.816	-105.044	0.479	-0.109
-93.801	729.641	0.234	-0.619
-92.786	8.110	0.305	0.227
-91.772	-32.329	-0.013	0.007
-90.757	26.098	0.648	-0.536
-89.743	-200.000	0.046	0.907
-88.728	-122.159	-0.779	-0.126
-87.713	-52.670	-0.289	-0.132
-86.699	58.675	0.156	0.151
-85.684	306.486	0.435	0.802
-84.670	-130.702	1.000	-0.133
-83.655	-200.000	0.062	-0.297
-82.640	299.811	0.255	0.465
-81.626	-178.398	-0.508	0.012
-80.611	-200.000	-0.044	-0.695
-79.597	-184.397	-0.442	0.007
-78.582	800.000	0.124	0.413
-77.567	-200.000	0.010	0.149
-76.553	-26.254	0.607	-0.353
-75.538	-145.996	0.483	0.042
-74.524	19.038	0.917	-0.729
-73.509	325.598	0.386	0.732
-72.494	-200.000	0.096	-0.540
-71.480	-87.101	0.606	-0.183
-70.465	800.000	0.233	-0.675
-69.451	-93.935	-0.802	0.218
-68.436	-22.457	-0.738	0.442
-67.422	236.170	0.437	0.716
-66.407	-26.925	-0.394	0.228
-65.392	-200.000	0.047	-0.449
-64.378	172.562	0.241	0.344
-63.363	32.431	-0.335	-0.287
-62.349	482.123	-0.402	-0.904
-61.334	-111.892	-1.262	-0.252
-60.319	-200.000	0.079	0.572
-59.305	176.092	-0.739	-1.062
-58.290	231.086	0.630	1.021
-57.276	-200.000	0.228	1.611
-56.261	-200.000	95.489	591.488
-55.246	668.057	1353.200	3463.667
-54.232	200.527	2524.408	3839.908
-53.217	109.331	2278.429	2699.618
-52.203	39.190	2045.310	1810.838
-51.188	34.376	1961.388	1693.812
-50.173	32.790	1943.987	1664.737
-49.159	48.113	1996.953	1847.562
-48.144	48.931	2012.626	1869.308
-47.130	34.914	1975.016	1710.122
-46.115	32.581	1964.380	1680.064
-45.100	32.431	1962.835	1677.340
-44.086	32.320	1960.864	1674.600
-43.071	32.313	1957.211	1671.357
-42.057	32.413	1953.928	1669.367
-41.042	32.355	1952.614	1667.672
-40.027	32.308	1950.807	1665.642
-39.013	32.536	1947.475	1664.743
-37.998	32.484	1947.240	1664.019
-36.984	32.445	1944.612	1661.361
-35.969	32.305	1944.352	1659.844
-34.954	32.438	1941.987	1658.928
-33.940	32.489	1940.512	1658.047
-32.925	32.750	1938.473	1658.540
-31.911	32.737	1935.023	1655.406
-30.896	32.660	1934.327	1654.069
-29.881	32.484	1934.166	1652.324
-28.867	32.633	1932.464	1652.110
-27.852	32.708	1930.346	1650.887
-26.838	32.414	1928.523	1646.698
-25.823	32.593	1926.589	1646.545
-24.809	32.601	1925.503	1645.620
-23.794	32.548	1922.482	1642.505
-22.779	32.676	1920.559	1641.915
-21.765	32.658	1920.233	1641.416
-20.750	32.614	1918.373	1639.379
-19.736	32.573	1917.067	1637.839
-18.721	32.456	1916.727	1636.467
-17.706	32.538	1913.803	1634.614
-16.692	32.600	1911.235	1632.897
-15.677	32.593	1909.701	1631.464
-14.663	32.699	1909.060	1631.766
-13.648	32.669	1907.939	1630.484
-12.633	32.629	1906.422	1628.771
-11.619	32.584	1905.266	1627.335
-10.604	32.409	1905.053	1625.573
-9.590	32.529	1902.228	1624.135
-8.575	32.526	1901.093	1623.079
-7.560	32.619	1899.430	1622.394
-6.546	32.481	1899.653	1621.330
-5.531	32.682	1897.391	1621.066
-4.517	32.656	1896.942	1620.394
-3.502	32.511	1895.116	1617.520
-2.487	32.477	1893.683	1615.942
-1.473	32.696	1892.349	1616.621
-0.458	32.677	1888.013	1612.687
0.556	33.759	1868.828	1584.071
1.571	29.323	1849.403	1530.733
2.586	25.265	1871.431	1514.660
3.600	24.082	1907.179	1533.278
4.615	23.509	1900.660	1522.978
5.629	18.109	1802.291	1399.939
6.644	8.570	1683.787	1234.465
7.659	3.551	1646.162	1168.827
8.673	3.243	1642.657	1163.906
9.688	3.386	1641.670	1164.186
10.702	3.241	1639.914	1161.740
11.717	3.210	1636.709	1159.140
12.731	3.621	1638.113	1163.123
13.746	10.219	1652.174	1223.006
14.761	19.865	1672.517	1311.419
15.775	24.583	1680.384	1353.304
16.790	25.136	1681.703	1358.437
17.804	25.024	1678.934	1355.238
18.819	24.740	1678.942	1352.974
19.834	24.611	1676.739	1350.109
20.848	24.632	1677.306	1350.602
21.863	24.611	1676.888	1349.984
22.877	24.932	1675.545	1351.205
23.892	25.109	1672.889	1350.281
24.907	24.821	1672.686	1347.826
25.921	25.143	1671.780	1349.400
26.936	25.049	1671.198	1348.102
27.950	25.087	1669.681	1347.050
28.965	24.862	1669.697	1345.248
29.980	24.875	1669.084	1344.736
30.994	25.013	1667.222	1344.154
32.009	25.187	1666.649	1344.877
33.023	25.029	1667.232	1344.040
34.038	25.066	1666.096	1343.287
35.053	25.211	1663.034	1341.780
36.067	25.051	1663.051	1340.480
37.082	24.927	1661.579	1338.246
38.096	24.893	1661.529	1337.836
39.111	24.910	1660.204	1336.779
40.126	24.978	1659.768	1336.812
41.140	25.058	1659.155	1336.802
42.155	24.911	1657.771	1334.471
43.169	24.713	1656.513	1331.868
44.184	24.632	1654.444	1329.484
45.199	24.714	1653.506	1329.223
46.213	24.539	1653.126	1327.492
47.228	24.869	1650.231	1327.504
48.242	24.853	1651.515	1328.295
49.257	24.923	1649.501	1327.080
50.271	25.018	1649.078	1327.326
51.286	24.906	1647.452	1325.067
52.301	25.071	1645.431	1324.549
53.315	24.955	1645.203	1323.389
54.330	24.970	1643.617	1322.107
55.344	24.995	1642.077	1320.935
56.359	24.819	1640.695	1318.411
57.374	24.874	1639.775	1317.957
58.388	24.828	1638.734	1316.670
59.403	24.859	1637.140	1315.498
60.417	24.682	1636.607	1313.655
61.432	24.475	1635.607	1311.212
62.447	24.854	1634.867	1313.287
63.461	24.803	1633.396	1311.614
64.476	24.598	1632.781	1309.502
65.490	24.562	1631.728	1308.279
66.505	24.590	1631.651	1308.306
67.520	24.612	1628.766	1306.040
68.534	24.782	1627.421	1306.087
69.549	24.839	1626.696	1305.804
70.563	24.703	1626.180	1304.284
71.578	24.763	1624.347	1303.133
72.593	24.435	1624.949	1301.112
73.607	24.368	1623.815	1299.600
74.622	24.301	1622.326	1297.806
75.636	24.370	1621.081	1297.195
76.651	24.720	1620.227	1298.940
77.666	24.404	1620.015	1296.363
78.680	24.617	1618.241	1296.368
79.695	24.457	1617.610	1294.591
80.709	24.555	1616.672	1294.434
81.724	24.790	1615.960	1295.455
82.739	24.699	1615.734	1294.500
83.753	24.876	1615.276	1295.298
84.768	25.062	1613.168	1294.836
85.782	24.904	1613.730	1294.033
86.797	25.224	1612.838	1295.514
87.812	25.306	1612.385	1295.627
88.826	24.996	1612.140	1293.074
89.841	24.992	1610.651	1291.737
90.855	24.939	1609.203	1290.082
91.870	25.061	1608.688	1290.432
92.884	25.134	1607.973	1290.270
93.899	25.327	1606.134	1290.067
94.914	25.209	1605.501	1288.598
95.928	25.247	1604.185	1287.699
96.943	25.241	1603.516	1287.009
97.957	25.271	1601.511	1285.497
98.972	25.064	1600.737	1283.278
99.987	25.378	1598.808	1283.864
101.001	25.141	1598.203	1281.575
102.016	25.099	1596.064	1279.448
103.030	25.171	1594.578	1278.654
104.045	25.141	1593.949	1277.825
105.060	25.158	1592.684	1276.821
106.074	25.026	1590.905	1274.338
107.089	24.959	1589.841	1272.897
108.103	24.883	1587.966	1270.748
109.118	24.621	1587.566	1268.452
110.133	24.415	1586.250	1265.828
111.147	24.680	1583.898	1265.714
112.162	24.629	1582.930	1264.468
113.176	24.660	1582.821	1264.489
114.191	24.455	1581.274	1261.691
115.206	25.028	1578.294	1263.247
116.220	24.832	1578.262	1261.725
117.235	24.970	1577.962	1262.344
118.249	24.875	1575.845	1259.874
119.264	24.783	1574.119	1257.735
120.279	24.373	1573.445	1254.200
121.293	24.648	1572.244	1255.067
122.308	24.562	1572.368	1254.447
123.322	24.646	1570.930	1253.779
124.337	24.274	1570.160	1250.444
125.352	24.200	1568.939	1248.846
126.366	24.254	1567.193	1247.721
127.381	24.264	1566.639	1247.238
128.395	24.561	1564.605	1247.585
129.410	24.528	1563.725	1246.542
130.424	24.247	1562.225	1243.282
131.439	24.421	1560.476	1242.986
132.454	24.456	1559.974	1242.722
133.468	24.500	1558.327	1241.605
134.483	24.544	1558.319	1241.797
135.497	24.748	1556.823	1241.911
136.512	24.873	1555.541	1241.642
137.527	24.847	1554.578	1240.585
138.541	24.655	1554.156	1238.808
139.556	24.700	1551.691	1237.044
140.570	24.687	1550.981	1236.278
141.585	24.964	1550.207	1237.468
142.600	24.800	1550.338	1236.329
143.614	25.049	1549.012	1236.880
144.629	25.118	1547.652	1236.160
145.643	25.254	1546.640	1236.183
146.658	25.081	1546.112	1234.459
147.673	25.132	1544.216	1233.185
148.687	25.100	1542.128	1231.190
149.702	24.949	1541.796	1229.783
150.716	24.924	1540.642	1228.583
151.731	24.654	1538.632	1225.016
152.746	24.514	1536.649	1222.372
153.760	24.348	1534.904	1219.739
154.775	24.624	1534.895	1221.513
155.789	25.013	1533.766	1223.163
156.804	25.014	1533.020	1222.466
157.819	25.147	1531.441	1222.007
158.833	25.090	1531.180	1221.304
159.848	24.766	1530.735	1218.632
160.862	25.091	1529.175	1219.492
161.877	25.315	1528.226	1220.148
162.892	24.800	1527.283	1215.788
163.906	24.783	1525.539	1214.179
164.921	24.516	1525.220	1212.009
165.935	24.919	1521.908	1211.994
166.950	24.729	1522.324	1210.935
167.964	24.787	1521.568	1210.620
168.979	24.544	1520.977	1208.395
169.994	25.089	1519.645	1210.915
171.008	24.911	1518.960	1209.060
172.023	24.814	1517.603	1207.214
173.037	24.709	1517.499	1206.317
174.052	24.999	1516.064	1207.025
175.067	25.040	1516.325	1207.403
176.081	25.238	1512.776	1205.804
177.096	24.801	1513.258	1203.141
178.110	24.658	1510.319	1199.735
179.125	25.039	1508.229	1200.522
180.140	24.727	1509.837	1199.603
181.154	24.732	1508.290	1198.305
182.169	24.821	1507.999	1198.565
183.183	24.957	1506.396	1198.092
184.198	24.708	1505.678	1195.753
185.213	25.020	1505.904	1197.909
186.227	25.240	1504.699	1198.317
187.242	25.219	1503.651	1197.236
188.256	25.150	1502.836	1196.018
189.271	24.922	1502.136	1193.834
190.286	25.071	1500.535	1193.448
191.300	25.393	1499.152	1194.386
192.315	24.939	1497.089	1189.624
193.329	24.752	1496.881	1188.107
194.344	24.997	1496.322	1189.184
195.359	25.011	1495.348	1188.400
196.373	24.708	1494.601	1185.692
197.388	24.753	1492.651	1184.341
198.402	24.622	1491.535	1182.485
199.417	24.419	1492.632	1181.900
200.432	25.096	1491.099	1185.059
201.446	25.247	1490.264	1185.293
202.461	25.124	1489.878	1184.067
203.475	24.987	1488.739	1182.153
204.490	25.082	1487.934	1182.037
205.504	25.101	1486.396	1180.833
206.519	24.485	1486.989	1177.137
207.534	24.535	1485.348	1176.066
208.548	24.641	1483.688	1175.346
209.563	24.633	1481.632	1173.557
210.577	24.521	1481.274	1172.435
211.592	24.476	1480.983	1171.806
212.607	24.671	1480.191	1172.355
213.621	24.877	1480.286	1173.681
214.636	25.047	1479.258	1173.870
215.650	24.980	1478.152	1172.450
216.665	24.856	1476.297	1170.069
217.680	24.984	1475.834	1170.433
218.694	25.110	1476.423	1171.621
219.709	25.125	1475.707	1171.047
220.723	25.349	1472.721	1170.033
221.738	24.797	1473.482	1166.932
222.753	24.916	1473.620	1167.717
223.767	24.952	1471.158	1165.895
224.782	24.935	1468.640	1163.688
225.796	24.977	1468.432	1163.690
226.811	25.034	1469.920	1165.141
227.826	25.065	1467.834	1163.588
228.840	25.334	1466.903	1164.488
229.855	25.099	1466.422	1162.480
230.869	24.936	1464.939	1160.148
231.884	24.843	1464.530	1159.115
232.899	24.843	1463.259	1158.007
233.913	24.848	1460.856	1156.035
234.928	24.480	1460.680	1153.415
235.942	24.430	1459.555	1152.105
236.957	24.966	1458.075	1154.292
237.972	24.608	1457.348	1151.303
238.986	24.291	1455.588	1147.773
240.001	24.565	1454.952	1148.931
241.015	24.261	1455.797	1147.538
242.030	24.355	1453.881	1146.534
243.045	24.641	1452.728	1147.362
244.059	24.602	1451.656	1146.163
245.074	24.735	1451.052	1146.437
246.088	24.893	1450.610	1146.996
247.103	25.251	1448.933	1147.859
248.117	25.037	1449.146	1146.562
249.132	25.305	1448.729	1147.843
250.147	25.243	1448.045	1146.804
251.161	25.385	1448.076	1147.630
252.176	25.669	1447.697	1149.045
253.190	25.799	1446.733	1149.004
254.205	25.399	1445.189	1145.130
255.220	25.753	1445.476	1147.509
256.234	25.794	1444.492	1146.888
257.249	25.893	1443.055	1146.277
258.263	26.129	1442.553	1147.274
259.278	25.866	1442.030	1145.087
260.293	25.739	1439.694	1142.324
261.307	25.868	1439.085	1142.562
262.322	25.838	1438.410	1141.733
263.336	25.577	1439.753	1141.043
264.351	25.875	1436.701	1140.407
265.366	25.810	1435.917	1139.273
266.380	25.699	1434.858	1137.631
267.395	25.773	1434.603	1137.798
268.409	25.926	1433.967	1138.160
269.424	25.711	1433.095	1136.010
270.439	25.630	1431.393	1134.047
271.453	25.617	1430.699	1133.315
272.468	25.680	1430.579	1133.515
273.482	25.329	1429.770	1130.566
274.497	25.454	1428.463	1130.221
275.512	25.361	1426.517	1127.994
276.526	25.325	1426.513	1127.663
277.541	25.211	1426.325	1126.701
278.555	25.265	1425.197	1126.049
279.570	25.516	1423.616	1126.271
280.585	25.251	1424.170	1124.951
281.599	25.647	1423.029	1126.430
282.614	25.552	1423.367	1126.004
283.628	25.501	1420.743	1123.506
284.643	25.360	1420.047	1121.981
285.657	25.277	1418.691	1120.290
286.672	25.608	1417.234	1121.105
287.687	25.286	1417.202	1118.972
288.701	25.354	1415.614	1118.043
289.716	25.320	1415.597	1117.716
290.730	25.633	1414.361	1118.591
291.745	25.660	1413.350	1117.860
292.760	25.656	1412.958	1117.426
293.774	25.508	1412.218	1115.825
294.789	25.410	1410.507	1113.763
295.803	25.621	1410.328	1114.835
296.818	25.956	1409.442	1116.107
297.833	25.643	1408.130	1113.031
298.847	25.529	1407.506	1111.736
299.862	25.542	1406.579	1110.984
300.876	25.559	1406.154	1110.658
301.891	25.434	1404.717	1108.654
302.906	25.679	1403.651	1109.221
303.920	25.826	1403.143	1109.629
304.935	25.820	1403.193	1109.534
305.949	26.115	1402.482	1110.688
306.964	25.801	1402.968	1109.041
307.979	26.194	1399.648	1108.732
308.993	25.994	1399.369	1107.190
310.008	25.777	1398.787	1105.295
311.022	25.963	1397.710	1105.487
312.037	25.936	1396.878	1104.568
313.052	25.846	1396.387	1103.528
314.066	25.824	1394.469	1101.784
315.081	25.917	1393.113	1101.182
316.095	25.867	1392.619	1100.391
317.110	25.479	1391.667	1097.174
318.125	25.226	1391.032	1095.032
319.139	25.359	1389.474	1094.519
320.154	25.298	1389.357	1093.955
321.168	25.482	1388.122	1094.005
322.183	25.295	1387.582	1092.344
323.197	25.184	1386.485	1090.712
324.212	25.229	1385.430	1090.055
325.227	25.494	1384.329	1090.702
326.241	25.470	1383.664	1089.939
327.256	25.695	1382.728	1090.465
328.270	25.725	1382.556	1090.419
329.285	25.277	1382.223	1087.343
330.300	25.388	1380.648	1086.679
331.314	25.413	1379.942	1086.177
332.329	25.779	1378.176	1086.903
333.343	25.680	1377.502	1085.679
334.358	25.289	1377.335	1083.094
335.373	25.504	1376.832	1083.894
336.387	25.958	1376.173	1086.016
337.402	25.674	1376.313	1084.322
338.416	25.680	1375.365	1083.516
339.431	25.949	1374.083	1084.028
340.446	26.067	1374.027	1084.593
341.460	26.034	1372.935	1083.440
342.475	26.076	1372.995	1083.644
343.489	26.276	1371.941	1083.917
344.504	26.293	1372.143	1084.080
345.519	26.174	1369.928	1081.521
346.533	26.221	1367.984	1080.170
347.548	26.242	1368.814	1080.860
348.562	26.203	1367.744	1079.685
349.577	26.530	1367.434	1081.300
350.592	26.130	1366.087	1077.751
351.606	25.756	1365.408	1074.890
352.621	25.710	1363.308	1072.862
353.635	25.663	1362.725	1072.029
354.650	25.653	1361.606	1070.999
355.665	25.583	1360.724	1069.792
356.679	25.564	1359.169	1068.364
357.694	25.548	1359.127	1068.139
358.708	25.952	1356.044	1068.015
359.723	25.676	1356.880	1066.942
360.738	25.957	1354.959	1067.001
361.752	26.145	1353.651	1066.985
362.767	25.889	1352.905	1064.792
363.781	25.832	1352.361	1063.932
364.796	25.872	1351.162	1063.131
365.810	25.774	1350.980	1062.319
366.825	26.101	1350.933	1064.113
367.840	26.267	1350.381	1064.562
368.854	26.130	1349.574	1063.028
369.869	26.549	1349.117	1065.038
370.883	26.568	1348.559	1064.618
371.898	26.468	1347.847	1063.373
372.913	26.403	1346.388	1061.744
373.927	26.379	1345.328	1060.675
374.942	26.172	1345.568	1059.552
375.956	26.148	1345.080	1058.936
376.971	26.241	1343.717	1058.314
377.986	26.362	1343.124	1058.462
379.000	26.145	1342.322	1056.464
380.015	26.305	1342.171	1057.193
381.029	26.412	1340.413	1056.335
382.044	26.537	1340.074	1056.706
383.059	26.622	1339.842	1056.924
384.073	26.677	1338.519	1056.112
385.088	26.789	1337.705	1056.027
386.102	26.386	1337.139	1053.139
387.117	26.553	1336.272	1053.333
388.132	26.513	1335.278	1052.228
389.146	26.183	1333.699	1048.972
390.161	25.856	1334.687	1047.755
391.175	26.001	1334.048	1048.001
392.190	26.093	1332.149	1046.952
393.205	26.016	1332.425	1046.630
394.219	26.389	1331.582	1048.039
395.234	26.597	1330.660	1048.423
396.248	26.503	1329.423	1046.814
397.263	26.378	1326.393	1043.612
398.278	26.208	1326.036	1042.260
399.292	26.083	1324.352	1040.120
400.307	26.298	1323.633	1040.703
401.321	26.105	1323.849	1039.668
402.336	26.313	1322.648	1039.833
403.350	25.962	1320.928	1036.372
404.365	25.801	1319.348	1034.116
405.380	25.891	1319.560	1034.708
406.394	26.136	1318.927	1035.523
407.409	26.089	1318.545	1034.865
408.423	25.936	1317.796	1033.309
409.438	26.460	1317.749	1036.178
410.453	26.815	1316.679	1037.276
411.467	26.692	1315.137	1035.269
412.482	26.918	1315.267	1036.572
413.496	26.597	1314.851	1034.320
414.511	26.675	1313.745	1033.800
415.526	26.723	1313.341	1033.664
416.540	27.090	1312.185	1034.755
417.555	26.823	1311.565	1032.655
418.569	26.858	1312.830	1033.756
419.584	27.007	1310.027	1032.307
420.599	26.897	1309.034	1030.808
421.613	142.992	1435.885	1793.420
422.628	138.609	1454.389	1793.459
