DTS Sentinel unit serial number:	SN413079Multiplexer serial number:	ORYXHardware model number:	OX4-SRSoftware version number:	ORYX F/W v4.00 Oryx Data Collector v3.7.2.0data status	okinstallation	princeton_trtdifferential loss correction	single-endedforward channel	channel 4reverse channel	N/Adate	2019/09/17time	05:25:34forward acquisition time	60.00reverse acquisition time	0.00gamma	496.2192k internal	0.2313k external	0.2313temperature offset calibration	0.9979default loss term (dB/km)	0.3790temperature slope calibration	1.0000multiplexer offset coefficient	1.0000multiplexer slope coefficient	1.0000fibre end	0.00T internal ref (°C)	29.30T ext. ref 1 (°C)	0.14T ext. ref 2 (°C)	23.42length (m)	temperature (°C)	Stokes	anti-Stokes-747.200	3.125	-0.161	-0.119
-746.185	-86.268	-0.357	-0.112
-745.171	-200.000	0.271	-0.001
-744.156	33.990	0.113	-0.099
-743.142	143.623	-0.183	0.248
-742.127	-105.559	-0.305	0.070
-741.112	800.000	-0.057	-0.192
-740.098	-30.819	-0.445	0.255
-739.083	-191.815	0.089	0.001
-738.069	800.000	0.128	0.419
-737.054	107.490	-0.028	-0.034
-736.039	800.000	-0.037	-0.131
-735.025	-200.000	0.093	0.000
-734.010	13.966	-0.256	-0.202
-732.996	800.000	0.015	0.047
-731.981	-113.007	0.476	-0.095
-730.966	1.703	-0.081	-0.059
-729.952	80.363	-0.361	-0.393
-728.937	-84.470	-0.300	0.096
-727.923	-44.926	-0.155	0.078
-726.908	-15.086	-0.243	0.158
-725.894	-200.000	0.001	0.065
-724.879	50.780	-0.398	0.382
-723.864	800.000	0.059	0.247
-722.850	-10.784	0.318	0.213
-721.835	396.484	0.111	0.235
-720.821	-200.000	-0.048	0.220
-719.806	5.534	0.344	0.257
-718.791	-153.429	0.238	0.017
-717.777	-200.000	-0.019	-0.147
-716.762	-95.976	0.065	-0.018
-715.748	-200.000	-0.006	-0.172
-714.733	-200.000	0.002	-0.274
-713.718	-1.179	0.138	0.099
-712.704	36.281	-0.303	0.270
-711.689	-200.000	0.009	0.055
-710.675	621.146	0.059	0.150
-709.660	1.179	0.170	-0.124
-708.645	-129.585	0.278	0.039
-707.631	-179.414	0.294	-0.007
-706.616	139.328	-0.240	-0.320
-705.602	-34.610	-0.177	0.098
-704.587	-77.767	-0.164	-0.057
-703.572	-196.829	0.061	0.000
-702.558	456.643	0.113	0.254
-701.543	285.816	0.058	0.106
-700.529	288.768	-0.158	0.290
-699.514	185.778	0.218	0.329
-698.499	278.913	0.066	0.119
-697.485	-132.491	-0.263	0.034
-696.470	-53.788	0.141	-0.065
-695.456	-200.000	0.014	-0.198
-694.441	-110.853	0.171	-0.036
-693.426	127.675	-0.050	0.064
-692.412	172.901	0.058	0.085
-691.397	126.415	-0.077	0.098
-690.383	146.056	-0.079	0.108
-689.368	142.115	0.228	-0.306
-688.354	186.226	0.104	0.157
-687.339	-113.229	-0.180	-0.036
-686.324	800.000	0.131	-0.375
-685.310	-34.811	-0.368	-0.203
-684.295	455.041	-0.034	0.076
-683.281	-154.480	-0.142	0.010
-682.266	299.341	-0.133	-0.247
-681.251	-159.367	0.094	0.005
-680.237	-43.970	-0.253	-0.129
-679.222	223.285	-0.122	-0.200
-678.208	36.178	-0.351	0.313
-677.193	-47.534	0.142	-0.070
-676.178	800.000	0.056	0.241
-675.164	-200.000	0.018	-0.366
-674.149	3.860	-0.117	-0.087
-673.135	-130.107	-0.341	-0.047
-672.120	11.753	-0.176	-0.137
-671.105	660.925	0.185	0.483
-670.091	-200.000	0.006	-0.049
-669.076	17.430	0.132	-0.106
-668.062	800.000	-0.069	-0.269
-667.047	-89.574	0.322	0.096
-666.032	108.099	-0.106	-0.128
-665.018	-41.901	0.173	0.090
-664.003	62.804	0.111	0.112
-662.989	693.854	0.041	-0.108
-661.974	-200.000	0.003	0.095
-660.959	79.675	-0.216	0.235
-659.945	-200.000	-0.009	-0.458
-658.930	374.528	0.053	0.109
-657.916	-103.355	-0.050	0.012
-656.901	434.546	-0.131	0.287
-655.886	-22.282	0.151	0.092
-654.872	-35.922	-0.141	0.077
-653.857	4.080	-0.082	0.060
-652.843	682.571	-0.050	-0.133
-651.828	741.160	0.041	-0.110
-650.814	-200.000	0.029	-0.134
-649.799	-137.976	0.064	0.007
-648.784	-39.558	0.217	-0.115
-647.770	-56.882	-0.092	-0.041
-646.755	154.092	-0.084	-0.116
-645.741	90.986	-0.096	0.109
-644.726	-6.037	0.267	-0.184
-643.711	150.093	-0.068	-0.093
-642.697	-165.909	0.121	-0.005
-641.682	800.000	-0.100	-0.291
-640.668	25.029	-0.164	0.138
-639.653	-124.086	0.155	0.025
-638.638	29.715	-0.179	0.154
-637.624	-200.000	-0.010	-0.170
-636.609	37.839	-0.196	-0.176
-635.595	146.243	0.185	-0.250
-634.580	-200.000	-0.060	-0.314
-633.565	569.970	0.054	0.133
-632.551	39.215	0.089	0.081
-631.536	-200.000	0.046	-0.426
-630.522	-200.000	0.028	-0.240
-629.507	-150.527	-0.155	0.012
-628.492	-200.000	0.015	-0.074
-627.478	-66.187	0.163	-0.066
-626.463	50.376	-0.040	0.038
-625.449	41.290	0.239	-0.218
-624.434	243.353	0.063	0.107
-623.419	328.659	0.173	0.335
-622.405	48.261	-0.202	0.190
-621.390	-87.475	-0.459	-0.140
-620.376	-64.784	0.112	0.046
-619.361	800.000	-0.085	0.351
-618.346	-185.141	0.238	-0.004
-617.332	21.969	-0.185	-0.152
-616.317	66.450	0.045	0.047
-615.303	-147.951	-0.178	0.015
-614.288	-53.049	-0.242	-0.112
-613.273	-200.000	0.022	0.121
-612.259	31.993	0.068	0.059
-611.244	-200.000	0.026	0.157
-610.230	-1.531	-0.140	-0.099
-609.215	-167.351	0.343	-0.014
-608.201	-136.611	0.329	0.038
-607.186	-125.250	0.252	-0.039
-606.171	-108.313	-0.289	0.063
-605.157	-32.785	-0.019	-0.011
-604.142	-119.226	-0.102	-0.018
-603.128	-67.602	0.225	-0.089
-602.113	-97.624	-0.150	-0.039
-601.098	356.558	0.037	-0.074
-600.084	226.055	-0.079	-0.130
-599.069	467.050	-0.093	-0.209
-598.055	-136.670	0.133	-0.015
-597.040	52.413	-0.070	0.067
-596.025	-200.000	0.015	-0.136
-595.011	-200.000	0.022	0.210
-593.996	71.464	0.226	-0.236
-592.982	-200.000	-0.001	0.044
-591.967	800.000	0.080	-0.317
-590.952	-121.924	0.151	-0.025
-589.938	-9.127	0.118	0.080
-588.923	-35.062	-0.329	0.181
-587.909	53.719	-0.279	0.270
-586.894	-161.829	-0.150	0.008
-585.879	-158.682	-0.101	-0.006
-584.865	463.712	0.085	-0.192
-583.850	-109.997	-0.363	-0.077
-582.836	38.191	-0.129	0.116
-581.821	-54.053	0.110	0.050
-580.806	182.546	-0.038	-0.056
-579.792	-11.923	-0.105	-0.069
-578.777	-200.000	0.030	-0.338
-577.763	307.863	0.017	0.032
-576.748	389.041	-0.025	0.052
-575.733	-16.646	0.131	0.084
-574.719	800.000	0.077	-0.287
-573.704	50.947	0.245	-0.234
-572.690	800.000	0.049	0.191
-571.675	370.592	0.106	0.215
-570.661	464.922	0.056	-0.126
-569.646	-200.000	-0.006	-0.196
-568.631	800.000	-0.021	0.059
-567.617	160.787	-0.111	0.156
-566.602	223.596	-0.182	-0.296
-565.588	118.268	-0.099	-0.122
-564.573	-31.285	-0.167	-0.095
-563.558	-114.668	0.200	0.039
-562.544	744.949	0.081	-0.219
-561.529	-75.664	0.193	-0.069
-560.515	239.501	0.092	-0.154
-559.500	800.000	0.046	-0.153
-558.485	-35.549	0.116	0.063
-557.471	800.000	-0.090	-0.256
-556.456	678.796	0.048	0.126
-555.442	800.000	0.094	0.330
-554.427	-200.000	0.045	0.284
-553.412	-8.309	0.088	-0.059
-552.398	96.152	0.064	-0.073
-551.383	-200.000	0.008	0.124
-550.369	74.949	0.031	-0.033
-549.354	218.989	-0.117	-0.188
-548.339	800.000	-0.148	0.487
-547.325	42.558	-0.202	0.185
-546.310	33.609	-0.135	-0.118
-545.296	81.315	0.123	-0.133
-544.281	-87.217	0.161	-0.049
-543.266	-26.643	0.143	0.084
-542.252	20.084	0.043	-0.035
-541.237	94.273	0.194	-0.222
-540.223	662.302	0.009	-0.024
-539.208	756.177	0.069	-0.188
-538.193	423.801	-0.030	0.064
-537.179	800.000	-0.077	0.242
-536.164	-200.000	-0.092	-0.442
-535.150	418.047	0.128	-0.275
-534.135	-130.266	-0.304	-0.042
-533.121	-65.366	-0.269	-0.109
-532.106	-107.678	-0.117	-0.026
-531.091	800.000	-0.078	0.306
-530.077	-67.597	0.259	-0.102
-529.062	-182.111	0.116	0.002
-528.048	182.161	-0.181	0.268
-527.033	122.275	0.028	0.035
-526.018	-6.803	-0.114	-0.078
-525.004	0.085	0.061	0.044
-523.989	-34.665	0.165	-0.091
-522.975	66.259	-0.291	0.297
-521.960	-200.000	-0.005	0.118
-520.945	80.422	0.248	-0.269
-519.931	-19.688	0.279	-0.173
-518.916	5.376	-0.302	-0.224
-517.902	703.634	-0.071	-0.189
-516.887	-67.145	0.179	-0.071
-515.872	352.155	0.050	0.099
-514.858	800.000	-0.032	-0.095
-513.843	-68.461	-0.107	-0.042
-512.829	-66.772	0.052	0.021
-511.814	-31.349	0.188	0.106
-510.799	-200.000	0.066	0.295
-509.785	-136.038	-0.254	0.030
-508.770	-84.190	0.110	0.035
-507.756	-129.935	-0.080	-0.011
-506.741	800.000	-0.052	-0.148
-505.726	-33.196	0.197	0.110
-504.712	-7.383	0.148	0.101
-503.697	-97.861	-0.147	0.038
-502.683	800.000	-0.061	0.246
-501.668	-82.775	-0.090	-0.029
-500.653	-160.908	-0.139	0.007
-499.639	-200.000	-0.061	-0.336
-498.624	-200.000	-0.026	-0.204
-497.610	-200.000	0.011	0.222
-496.595	55.187	0.315	-0.306
-495.581	244.926	-0.115	-0.194
-494.566	237.292	0.134	0.222
-493.551	327.047	0.104	-0.201
-492.537	800.000	0.057	-0.165
-491.522	800.000	-0.119	-0.374
-490.508	139.453	0.102	-0.135
-489.493	143.471	-0.128	0.172
-488.478	138.678	0.126	0.166
-487.464	513.125	0.084	0.197
-486.449	116.834	-0.068	-0.083
-485.435	-30.077	0.071	0.041
-484.420	-62.811	-0.305	-0.127
-483.405	-200.000	0.035	0.240
-482.391	-174.711	0.189	-0.005
-481.376	62.698	0.183	-0.184
-480.362	594.769	0.061	-0.151
-479.347	-155.307	-0.170	0.011
-478.332	-200.000	-0.022	0.419
-477.318	-74.544	-0.345	0.125
-476.303	-200.000	0.054	0.517
-475.289	340.112	0.091	0.178
-474.274	-123.170	0.098	0.016
-473.259	0.786	0.034	0.025
-472.245	-200.000	0.049	0.239
-471.230	-63.976	-0.173	-0.071
-470.216	-193.177	-0.104	-0.001
-469.201	-70.777	0.302	-0.114
-468.186	-200.000	0.055	-0.275
-467.172	-38.784	-0.484	-0.256
-466.157	-101.672	-0.192	0.047
-465.143	-200.000	-0.030	0.180
-464.128	-200.000	0.020	-0.104
-463.113	-200.000	-0.022	-0.328
-462.099	651.536	0.090	-0.232
-461.084	75.537	0.187	-0.198
-460.070	-200.000	-0.024	0.170
-459.055	-31.558	-0.167	0.094
-458.040	800.000	-0.076	0.329
-457.026	-188.067	0.137	0.002
-456.011	-200.000	0.047	0.259
-454.997	4.313	-0.328	0.241
-453.982	-128.601	0.203	-0.029
-452.968	265.448	-0.047	-0.082
-451.953	-58.966	0.298	0.129
-450.938	-154.583	-0.295	-0.020
-449.924	143.170	-0.124	0.165
-448.909	-145.268	0.057	0.005
-447.895	-93.928	0.236	0.065
-446.880	175.696	0.236	-0.343
-445.865	-200.000	0.072	0.372
-444.851	-105.792	0.108	0.024
-443.836	-182.130	-0.387	-0.007
-442.822	-64.603	-0.147	0.060
-441.807	-200.000	-0.020	-0.231
-440.792	-200.000	-0.006	-0.187
-439.778	800.000	0.124	-0.441
-438.763	425.502	0.039	-0.084
-437.749	189.482	0.030	0.045
-436.734	-6.267	-0.235	-0.161
-435.719	-80.570	-0.160	-0.053
-434.705	97.800	0.118	0.136
-433.690	-59.351	0.154	-0.066
-432.676	-80.947	0.167	-0.055
-431.661	-48.715	0.060	0.029
-430.646	800.000	0.063	-0.221
-429.632	420.399	-0.106	0.227
-428.617	-13.183	-0.304	0.198
-427.603	-47.807	0.174	-0.085
-426.588	-89.952	0.166	-0.048
-425.573	49.577	-0.040	0.038
-424.559	-200.000	0.050	0.334
-423.544	-200.000	-0.043	0.250
-422.530	-26.186	-0.165	0.097
-421.515	21.989	0.100	-0.082
-420.500	-89.000	0.235	-0.070
-419.486	-28.379	-0.179	0.104
-418.471	6.272	-0.353	0.262
-417.457	800.000	0.093	-0.326
-416.442	-3.319	-0.200	-0.139
-415.428	-76.876	-0.233	0.081
-414.413	266.029	0.146	0.255
-413.398	144.276	-0.111	0.148
-412.384	539.292	-0.279	0.665
-411.369	-200.000	0.026	0.204
-410.355	-105.901	-0.141	-0.032
-409.340	-72.128	-0.149	-0.055
-408.325	279.668	0.102	-0.182
-407.311	800.000	-0.062	0.187
-406.296	800.000	0.094	0.336
-405.282	-65.318	0.519	-0.209
-404.267	-158.952	-0.433	-0.025
-403.252	-200.000	-0.035	0.248
-402.238	343.228	-0.140	-0.274
-401.223	-38.415	-0.039	0.020
-400.209	-200.000	0.017	-0.109
-399.194	338.914	0.115	-0.224
-398.179	10.488	-0.178	-0.136
-397.165	408.306	0.055	0.116
-396.150	-132.372	0.220	0.028
-395.136	800.000	0.049	-0.137
-394.121	462.292	-0.120	-0.267
-393.106	-200.000	0.162	-0.000
-392.092	-47.503	0.113	-0.055
-391.077	29.988	0.208	0.177
-390.063	-18.796	0.134	-0.084
-389.048	-14.995	0.158	0.101
-388.033	-58.111	0.303	0.132
-387.019	194.220	-0.146	0.222
-386.004	800.000	-0.013	-0.049
-384.990	-200.000	0.004	-0.022
-383.975	-200.000	0.031	0.138
-382.960	51.841	0.213	0.202
-381.946	428.848	0.015	0.032
-380.931	-200.000	0.082	-0.439
-379.917	800.000	0.044	-0.186
-378.902	282.806	-0.088	-0.158
-377.888	168.658	0.115	-0.164
-376.873	-0.657	0.146	0.104
-375.858	-73.578	0.176	-0.064
-374.844	13.443	0.123	0.095
-373.829	-94.919	0.144	-0.039
-372.815	58.569	-0.103	-0.101
-371.800	-31.101	0.261	-0.147
-370.785	-155.694	-0.247	0.016
-369.771	184.272	-0.090	0.134
-368.756	71.379	-0.048	-0.050
-367.742	274.293	-0.073	-0.129
-366.727	-62.725	0.068	-0.028
-365.712	351.888	0.092	-0.181
-364.698	-95.797	-0.357	0.095
-363.683	-65.577	0.306	0.123
-362.669	-62.941	-0.080	0.033
-361.654	-110.148	0.210	0.044
-360.639	560.362	0.063	0.151
-359.625	792.698	-0.029	-0.081
-358.610	71.986	-0.167	0.174
-357.596	398.764	-0.116	0.242
-356.581	-70.222	0.383	-0.145
-355.566	-200.000	0.007	-0.212
-354.552	-200.000	-0.082	-0.405
-353.537	-200.000	-0.019	0.132
-352.523	165.870	-0.184	-0.260
-351.508	-19.602	-0.203	-0.126
-350.493	-56.238	-0.248	-0.110
-349.479	500.822	0.110	-0.253
-348.464	-79.425	0.176	-0.059
-347.450	-59.506	0.112	0.048
-346.435	-47.595	-0.174	0.084
-345.420	-56.541	0.425	0.188
-344.406	451.980	0.083	-0.184
-343.391	800.000	-0.034	0.099
-342.377	-88.905	0.104	0.031
-341.362	783.446	-0.046	-0.126
-340.348	-115.802	0.111	-0.021
-339.333	43.233	0.101	0.092
-338.318	55.205	0.181	-0.175
-337.304	251.262	0.125	-0.213
-336.289	-80.111	0.177	0.059
-335.275	-97.227	-0.206	-0.054
-334.260	-200.000	0.014	-0.117
-333.245	67.966	-0.150	-0.154
-332.231	34.960	-0.198	0.173
-331.216	-200.000	-0.021	0.175
-330.202	-33.617	-0.158	-0.087
-329.187	-200.000	0.029	0.216
-328.172	800.000	0.075	-0.243
-327.158	-120.536	-0.207	0.035
-326.143	589.005	0.052	-0.128
-325.129	-189.266	0.075	0.001
-324.114	-86.675	0.116	0.036
-323.099	19.191	0.020	0.016
-322.085	-200.000	0.014	-0.369
-321.070	-151.985	-0.232	0.017
-320.056	-99.587	-0.121	0.030
-319.041	-63.211	0.159	0.065
-318.026	-76.610	-0.263	-0.092
-317.012	-63.636	0.250	-0.102
-315.997	-145.833	0.056	-0.005
-314.983	721.172	-0.120	0.318
-313.968	-200.000	-0.039	0.241
-312.953	-22.452	-0.279	-0.168
-311.939	9.458	-0.276	0.208
-310.924	110.156	0.035	0.042
-309.910	-200.000	-0.030	-0.132
-308.895	104.628	-0.304	-0.357
-307.880	30.125	-0.136	-0.116
-306.866	-116.273	-0.160	-0.030
-305.851	-6.351	-0.291	-0.198
-304.837	-136.817	0.056	-0.006
-303.822	-58.766	0.120	-0.052
-302.807	120.858	-0.102	-0.127
-301.793	-85.610	-0.066	-0.020
-300.778	800.000	0.071	0.292
-299.764	638.251	0.088	-0.223
-298.749	800.000	-0.119	0.418
-297.735	-27.988	0.197	0.114
-296.720	-200.000	-0.021	0.100
-295.705	57.316	0.063	-0.062
-294.691	-92.074	-0.108	0.031
-293.676	-26.188	-0.103	-0.060
-292.662	65.971	0.065	-0.066
-291.647	522.163	-0.112	0.263
-290.632	-200.000	0.012	0.172
-289.618	-200.000	0.050	0.252
-288.603	800.000	-0.011	0.035
-287.589	137.335	-0.152	0.198
-286.574	40.553	-0.040	0.036
-285.559	-68.087	0.191	0.074
-284.545	60.498	0.125	0.123
-283.530	-9.988	-0.284	0.188
-282.516	-64.140	0.092	-0.037
-281.501	-138.875	-0.163	-0.018
-280.486	-128.838	-0.354	-0.050
-279.472	26.670	-0.160	-0.133
-278.457	800.000	-0.085	-0.240
-277.443	248.378	-0.172	0.290
-276.428	-100.134	0.143	-0.035
-275.413	-200.000	0.070	0.317
-274.399	-200.000	-0.019	0.196
-273.384	-75.731	0.533	-0.188
-272.370	-200.000	0.008	-0.382
-271.355	116.774	0.183	-0.224
-270.340	-67.672	-0.297	-0.116
-269.326	800.000	-0.104	0.389
-268.311	-185.887	0.370	0.005
-267.297	-200.000	-0.015	0.190
-266.282	32.997	0.081	-0.070
-265.267	53.713	-0.291	-0.278
-264.253	437.850	0.080	-0.174
-263.238	800.000	-0.042	0.124
-262.224	-200.000	-0.005	0.309
-261.209	-86.154	0.070	-0.021
-260.195	-42.370	0.062	0.031
-259.180	204.314	-0.052	-0.081
-258.165	73.993	-0.152	-0.159
-257.151	44.718	-0.191	0.175
-256.136	55.841	0.170	0.164
-255.122	97.147	-0.098	0.112
-254.107	-75.736	0.187	0.066
-253.092	580.411	-0.072	0.175
-252.078	-27.273	0.136	-0.079
-251.063	-200.000	-0.037	-0.176
-250.049	-200.000	0.003	-0.135
-249.034	672.996	-0.057	-0.148
-248.019	529.253	0.100	0.234
-247.005	-138.546	-0.235	-0.026
-245.990	800.000	0.084	0.257
-244.976	444.999	0.064	0.139
-243.961	108.212	-0.151	-0.180
-242.946	141.979	-0.101	-0.133
-241.932	178.482	0.067	-0.097
-240.917	14.295	-0.140	0.108
-239.903	149.697	0.169	-0.227
-238.888	-79.026	-0.228	0.077
-237.873	-22.449	0.191	0.115
-236.859	-108.339	-0.287	-0.062
-235.844	-180.580	0.109	-0.002
-234.830	800.000	-0.072	-0.275
-233.815	-58.215	0.050	-0.022
-232.800	85.143	0.087	-0.095
-231.786	116.875	0.195	0.238
-230.771	16.374	0.250	0.196
-229.757	630.682	0.046	-0.115
-228.742	-200.000	-0.025	-0.450
-227.727	737.166	0.141	-0.375
-226.713	-200.000	0.001	0.130
-225.698	162.898	-0.271	0.378
-224.684	-89.545	-0.238	-0.069
-223.669	175.878	-0.148	0.213
-222.655	-200.000	-0.011	0.145
-221.640	-200.000	0.073	-0.362
-220.625	215.699	0.147	-0.231
-219.611	535.552	0.033	-0.078
-218.596	-93.262	-0.124	0.034
-217.582	-200.000	-0.035	0.402
-216.567	-181.508	0.228	0.004
-215.552	108.450	0.134	-0.160
-214.538	-137.472	-0.118	0.013
-213.523	19.696	0.352	0.281
-212.509	800.000	-0.085	0.267
-211.494	25.083	0.015	-0.012
-210.479	522.322	-0.043	0.100
-209.465	-120.656	0.041	0.007
-208.450	36.365	0.218	-0.191
-207.436	-198.820	-0.377	0.002
-206.421	-102.964	0.137	0.032
-205.406	265.602	0.131	0.227
-204.392	800.000	-0.041	0.136
-203.377	-200.000	-0.044	0.226
-202.363	-18.179	-0.231	-0.144
-201.348	680.517	0.044	-0.113
-200.333	-1.605	0.079	0.055
-199.319	227.937	0.049	-0.080
-198.304	-55.218	0.082	0.037
-197.290	-64.189	-0.105	-0.043
-196.275	64.965	0.225	0.225
-195.260	-59.356	-0.341	-0.146
-194.246	13.723	0.129	-0.100
-193.231	800.000	-0.108	0.445
-192.217	-58.338	0.143	-0.062
-191.202	-22.619	0.115	-0.069
-190.187	556.494	0.065	-0.154
-189.173	547.343	-0.040	0.095
-188.158	-158.184	0.087	-0.005
-187.144	-65.212	-0.028	-0.011
-186.129	214.389	0.108	0.170
-185.114	85.049	-0.266	0.290
-184.100	-200.000	0.006	-0.451
-183.085	-56.135	0.228	0.101
-182.071	-200.000	-0.012	0.205
-181.056	-131.153	-0.156	0.021
-180.042	-200.000	-0.024	0.121
-179.027	37.973	0.180	-0.159
-178.012	-48.203	-0.118	0.056
-176.998	21.212	0.349	0.281
-175.983	20.075	-0.096	-0.077
-174.969	800.000	0.111	0.368
-173.954	-146.674	-0.094	0.008
-172.939	142.801	-0.214	-0.283
-171.925	800.000	-0.067	0.218
-170.910	-50.512	0.287	0.134
-169.896	67.246	0.057	-0.058
-168.881	-200.000	0.012	-0.122
-167.866	-56.200	0.124	-0.055
-166.852	25.167	-0.408	0.336
-165.837	47.517	-0.040	0.037
-164.823	-69.962	0.237	0.090
-163.808	112.971	0.173	-0.208
-162.793	106.196	0.354	-0.416
-161.779	-200.000	-0.028	0.174
-160.764	-200.000	0.045	0.197
-159.750	407.199	-0.090	0.189
-158.735	144.458	-0.175	0.231
-157.720	15.976	-0.107	0.084
-156.706	403.772	-0.116	0.241
-155.691	-200.000	0.052	0.406
-154.677	-200.000	-0.055	0.248
-153.662	-123.229	-0.143	0.023
-152.647	-174.512	0.032	-0.001
-151.633	800.000	0.043	-0.136
-150.618	-107.039	0.318	0.070
-149.604	22.926	-0.002	-0.001
-148.589	-43.856	0.179	-0.089
-147.574	800.000	-0.044	-0.122
-146.560	529.777	0.050	-0.118
-145.545	43.183	-0.260	0.235
-144.531	170.179	-0.206	0.292
-143.516	-48.906	0.193	-0.091
-142.502	-123.302	0.124	-0.020
-141.487	-2.443	-0.109	-0.075
-140.472	-200.000	-0.015	0.225
-139.458	-37.436	-0.153	0.081
-138.443	762.772	0.027	-0.071
-137.429	11.212	-0.241	0.183
-136.414	-170.114	0.185	0.007
-135.399	800.000	-0.105	0.365
-134.385	-15.574	0.175	-0.111
-133.370	27.995	0.160	-0.133
-132.356	4.394	0.209	-0.152
-131.341	44.521	0.247	0.225
-130.326	25.843	-0.223	0.184
-129.312	-200.000	-0.051	-0.363
-128.297	369.269	-0.179	-0.358
-127.283	-200.000	0.004	-0.195
-126.268	800.000	-0.056	0.175
-125.253	-68.256	-0.114	0.044
-124.239	-55.160	-0.319	-0.142
-123.224	-84.794	0.284	-0.089
-122.210	42.620	-0.089	-0.080
-121.195	87.226	-0.202	0.221
-120.180	134.760	-0.175	0.225
-119.166	406.569	0.080	-0.167
-118.151	-200.000	-0.059	0.324
-117.137	-155.917	0.112	0.007
-116.122	-76.554	0.160	-0.056
-115.107	8.116	-0.231	0.171
-114.093	455.434	-0.043	-0.095
-113.078	-69.152	0.223	-0.085
-112.064	800.000	0.025	-0.099
-111.049	44.108	-0.253	0.230
-110.034	-200.000	0.015	0.305
-109.020	270.211	-0.021	-0.037
-108.005	62.851	-0.348	-0.344
-106.991	732.240	-0.044	-0.118
-105.976	-141.846	0.448	0.044
-104.962	-166.644	0.266	0.011
-103.947	-93.517	0.207	0.057
-102.932	426.720	0.076	0.162
-101.918	734.847	0.061	0.161
-100.903	-200.000	0.040	0.195
-99.889	-35.777	-0.129	0.069
-98.874	207.978	0.104	-0.160
-97.859	27.767	-0.086	-0.071
-96.845	-118.238	0.120	0.021
-95.830	-136.254	0.192	0.022
-94.816	277.493	0.168	0.295
-93.801	-186.567	0.296	-0.004
-92.786	-6.131	-0.136	-0.092
-91.772	-99.072	-0.415	0.104
-90.757	686.386	-0.069	-0.177
-89.743	-156.768	0.138	0.008
-88.728	45.097	0.146	-0.133
-87.713	100.478	0.133	-0.153
-86.699	176.472	0.044	0.064
-85.684	-200.000	0.241	-0.001
-84.670	800.000	-0.066	-0.190
-83.655	-118.859	0.303	0.053
-82.640	-36.231	-0.072	-0.038
-81.626	82.411	-0.076	-0.082
-80.611	356.302	-0.054	0.107
-79.597	674.991	0.112	0.287
-78.582	-200.000	0.108	0.573
-77.567	316.843	0.208	0.389
-76.553	-83.947	-0.209	-0.066
-75.538	-6.867	0.271	0.182
-74.524	-79.588	-0.046	0.015
-73.509	-35.916	-0.067	-0.036
-72.494	141.835	-0.150	-0.197
-71.480	800.000	0.027	-0.114
-70.465	389.229	-0.019	-0.039
-69.451	-38.270	0.309	0.162
-68.436	79.069	0.125	0.132
-67.422	-95.510	-0.257	-0.068
-66.407	-140.385	-0.177	0.018
-65.392	-200.000	0.016	-0.187
-64.378	770.976	-0.080	-0.214
-63.363	24.266	-0.134	0.110
-62.349	-128.229	0.306	-0.043
-61.334	32.634	-1.085	-0.926
-60.319	-23.012	0.789	0.469
-59.305	246.756	-0.605	-1.008
-58.290	220.664	0.441	0.698
-57.276	800.000	0.477	1.528
-56.261	-200.000	109.681	605.796
-55.246	445.574	1497.226	3247.389
-54.232	142.216	2687.899	3520.909
-53.217	97.168	2327.960	2636.851
-52.203	35.717	2078.519	1803.285
-51.188	31.033	1994.584	1688.119
-50.173	29.622	1978.011	1661.341
-49.159	46.130	2035.953	1861.152
-48.144	46.097	2053.017	1876.377
-47.130	31.625	2010.067	1706.351
-46.115	29.377	1999.178	1676.627
-45.100	29.295	1996.564	1673.622
-44.086	29.220	1993.761	1670.528
-43.071	29.214	1991.177	1668.241
-42.057	29.244	1989.115	1666.720
-41.042	29.192	1987.583	1664.899
-40.027	29.196	1985.396	1663.039
-39.013	29.201	1983.713	1661.612
-37.998	29.240	1981.844	1660.327
-36.984	29.170	1980.024	1658.112
-35.969	29.231	1977.870	1656.784
-34.954	29.203	1976.636	1655.433
-33.940	29.288	1975.135	1654.872
-32.925	29.324	1973.184	1653.497
-31.911	29.290	1971.858	1652.018
-30.896	29.371	1969.710	1650.877
-29.881	29.361	1968.377	1649.603
-28.867	29.384	1966.715	1648.348
-27.852	29.339	1965.118	1646.549
-26.838	29.404	1962.992	1645.277
-25.823	29.421	1961.033	1643.725
-24.809	29.270	1959.823	1641.298
-23.794	29.302	1958.052	1640.033
-22.779	29.305	1956.443	1638.651
-21.765	29.332	1954.925	1637.551
-20.750	29.271	1953.259	1635.554
-19.736	29.307	1951.636	1634.450
-18.721	29.307	1949.986	1632.999
-17.706	29.310	1948.356	1631.594
-16.692	29.425	1946.066	1630.628
-15.677	29.264	1944.978	1628.230
-14.663	29.358	1943.304	1627.597
-13.648	29.293	1942.123	1625.966
-12.633	29.300	1940.930	1624.969
-11.619	29.319	1939.436	1623.822
-10.604	29.370	1937.947	1622.958
-9.590	29.295	1936.828	1621.292
-8.575	29.198	1935.435	1619.212
-7.560	29.355	1933.950	1619.287
-6.546	29.255	1933.163	1617.685
-5.531	29.264	1932.086	1616.797
-4.517	29.227	1930.615	1615.178
-3.502	29.245	1929.114	1614.019
-2.487	29.333	1927.929	1613.729
-1.473	29.369	1926.437	1612.732
-0.458	29.362	1921.557	1608.518
0.556	27.386	1901.611	1580.413
1.571	22.996	1882.075	1526.220
2.586	18.855	1904.539	1508.035
3.600	17.720	1939.894	1525.744
4.615	17.674	1934.770	1521.170
5.629	13.909	1833.528	1409.538
6.644	5.391	1715.226	1250.587
7.659	0.617	1677.390	1185.492
8.673	0.207	1674.290	1179.981
9.688	0.100	1672.897	1178.056
10.702	0.192	1671.432	1177.643
11.717	0.061	1668.092	1174.162
12.731	0.609	1667.852	1178.166
13.746	6.810	1681.017	1235.999
14.761	14.857	1697.133	1311.083
15.775	17.515	1701.139	1334.931
16.790	17.007	1697.960	1328.346
17.804	15.899	1694.650	1316.974
18.819	14.984	1691.321	1307.127
19.834	14.357	1689.480	1300.696
20.848	14.056	1687.733	1296.883
21.863	13.831	1686.264	1293.886
22.877	13.563	1684.076	1290.008
23.892	13.310	1682.932	1287.052
24.907	13.288	1681.721	1285.841
25.921	13.241	1680.917	1284.747
26.936	13.179	1679.949	1283.409
27.950	13.325	1678.260	1283.139
28.965	13.257	1678.506	1282.683
29.980	13.334	1677.850	1282.666
30.994	13.391	1677.029	1282.368
32.009	13.404	1676.091	1281.641
33.023	13.463	1674.924	1281.085
34.038	13.570	1674.135	1281.198
35.053	13.482	1673.378	1279.826
36.067	13.446	1671.663	1278.123
37.082	13.361	1671.206	1277.005
38.096	13.319	1670.073	1275.703
39.111	13.388	1669.669	1275.810
40.126	13.455	1668.261	1275.139
41.140	13.509	1667.282	1274.696
42.155	13.333	1665.862	1272.140
43.169	13.239	1664.525	1270.287
44.184	13.180	1663.425	1268.879
45.199	13.118	1662.982	1267.952
46.213	13.221	1661.434	1267.454
47.228	13.200	1659.753	1265.896
48.242	13.304	1658.579	1265.684
49.257	13.357	1657.437	1265.107
50.271	13.338	1656.091	1263.820
51.286	13.346	1654.946	1262.899
52.301	13.396	1653.967	1262.418
53.315	13.334	1652.249	1260.526
54.330	13.277	1651.045	1259.062
55.344	13.289	1649.428	1257.806
56.359	13.162	1647.813	1255.503
57.374	13.270	1646.779	1255.423
58.388	13.311	1645.371	1254.549
59.403	13.296	1643.601	1252.974
60.417	13.154	1642.756	1251.147
61.432	13.228	1641.317	1250.496
62.447	13.203	1640.556	1249.620
63.461	13.168	1639.348	1248.325
64.476	13.056	1638.377	1246.629
65.490	13.100	1637.350	1246.063
66.505	13.122	1635.731	1244.890
67.520	13.193	1634.315	1244.238
68.534	13.196	1633.737	1243.711
69.549	13.132	1632.965	1242.528
70.563	13.233	1631.389	1241.980
71.578	13.138	1630.512	1240.491
72.593	13.159	1629.156	1239.508
73.607	13.038	1628.222	1237.775
74.622	13.034	1627.017	1236.722
75.636	13.003	1626.294	1235.830
76.651	13.034	1625.802	1235.578
77.666	13.047	1624.698	1234.727
78.680	13.110	1623.470	1234.157
79.695	13.201	1622.151	1233.725
80.709	13.122	1621.814	1232.767
81.724	13.209	1620.606	1232.394
82.739	13.152	1619.825	1231.260
83.753	13.178	1618.730	1230.518
84.768	13.261	1618.014	1230.484
85.782	13.299	1617.155	1230.002
86.797	13.375	1616.020	1229.595
87.812	13.355	1614.874	1228.461
88.826	13.313	1613.851	1227.265
89.841	13.283	1612.387	1225.820
90.855	13.251	1611.839	1225.057
91.870	13.322	1611.072	1224.892
92.884	13.375	1609.937	1224.313
93.899	13.409	1608.837	1223.624
94.914	13.438	1607.278	1222.539
95.928	13.447	1606.483	1221.897
96.943	13.485	1604.806	1220.790
97.957	13.425	1603.919	1219.567
98.972	13.383	1602.177	1217.824
99.987	13.413	1600.614	1216.750
101.001	13.416	1598.934	1215.386
102.016	13.390	1597.848	1214.267
103.030	13.354	1596.134	1212.589
104.045	13.340	1595.042	1211.547
105.060	13.477	1593.126	1210.988
106.074	13.410	1591.615	1209.246
107.089	13.256	1590.841	1207.425
108.103	13.177	1589.347	1205.609
109.118	13.202	1588.078	1204.724
110.133	13.195	1586.694	1203.514
111.147	13.246	1584.887	1202.411
112.162	13.252	1583.442	1201.248
113.176	13.218	1582.984	1200.548
114.191	13.105	1582.022	1198.892
115.206	13.175	1580.390	1198.059
116.220	13.324	1579.179	1198.108
117.235	13.339	1577.307	1196.696
118.249	13.276	1576.509	1195.525
119.264	13.231	1575.552	1194.369
120.279	13.262	1573.680	1193.072
121.293	13.223	1571.942	1191.367
122.308	13.232	1571.030	1190.633
123.322	13.313	1568.799	1189.418
124.337	13.248	1567.526	1187.883
125.352	13.126	1566.504	1186.130
126.366	13.117	1565.524	1185.214
127.381	13.247	1564.125	1184.985
128.395	13.203	1562.954	1183.676
129.410	13.295	1561.202	1182.902
130.424	13.226	1560.254	1181.589
131.439	13.307	1558.969	1181.088
132.454	13.263	1557.860	1179.829
133.468	13.337	1556.458	1179.191
134.483	13.330	1554.758	1177.746
135.497	13.382	1553.296	1176.906
136.512	13.216	1552.212	1174.797
137.527	13.319	1550.791	1174.355
138.541	13.359	1549.316	1173.413
139.556	13.288	1547.947	1171.770
140.570	13.371	1546.652	1171.274
141.585	13.404	1545.171	1170.287
142.600	13.481	1543.724	1169.629
143.614	13.555	1541.926	1168.687
144.629	13.540	1541.188	1167.915
145.643	13.635	1539.471	1167.181
146.658	13.550	1538.558	1165.784
147.673	13.515	1536.913	1164.193
148.687	13.489	1535.485	1162.825
149.702	13.482	1534.143	1161.654
150.716	13.375	1532.562	1159.605
151.731	13.447	1530.902	1158.753
152.746	13.412	1530.181	1157.858
153.760	13.414	1528.951	1156.843
154.775	13.493	1527.188	1155.955
155.789	13.434	1525.993	1154.537
156.804	13.549	1524.769	1154.312
157.819	13.527	1523.585	1153.155
158.833	13.448	1522.588	1151.753
159.848	13.524	1521.622	1151.448
160.862	13.651	1519.765	1150.823
161.877	13.637	1519.010	1150.054
162.892	13.662	1517.483	1148.968
163.906	13.607	1516.030	1147.386
164.921	13.483	1515.413	1145.961
165.935	13.407	1514.419	1144.580
166.950	13.505	1513.517	1144.473
167.964	13.602	1512.144	1144.003
168.979	13.602	1511.187	1143.176
169.994	13.559	1510.364	1142.157
171.008	13.728	1508.196	1141.584
172.023	13.633	1507.991	1140.672
173.037	13.708	1506.457	1139.924
174.052	13.696	1505.086	1138.703
175.067	13.738	1503.868	1137.973
176.081	13.678	1502.920	1136.743
177.096	13.703	1501.354	1135.628
178.110	13.611	1500.230	1134.048
179.125	13.646	1499.303	1133.482
180.140	13.719	1497.944	1132.854
181.154	13.745	1496.826	1132.090
182.169	13.787	1495.929	1131.597
183.183	13.721	1494.497	1129.966
184.198	13.903	1493.521	1130.363
185.213	13.794	1492.617	1128.836
186.227	13.851	1491.225	1128.075
187.242	13.854	1490.318	1127.310
188.256	13.876	1489.319	1126.605
189.271	13.859	1488.378	1125.675
190.286	13.943	1486.928	1125.048
191.300	13.932	1485.893	1124.092
192.315	13.893	1484.867	1122.949
193.329	13.653	1483.448	1120.160
194.344	13.717	1482.093	1119.468
195.359	13.714	1481.536	1118.927
196.373	13.821	1480.366	1118.667
197.388	13.809	1479.560	1117.877
198.402	13.918	1478.035	1117.359
199.417	13.967	1476.802	1116.657
200.432	14.121	1475.600	1116.685
201.446	14.123	1474.780	1115.976
202.461	14.116	1473.593	1114.937
203.475	14.122	1472.838	1114.304
204.490	14.097	1471.968	1113.383
205.504	14.134	1470.438	1112.368
206.519	14.077	1469.362	1111.075
207.534	14.192	1467.760	1110.533
208.548	14.055	1467.030	1108.970
209.563	14.065	1465.834	1108.038
210.577	14.119	1464.823	1107.535
211.592	14.121	1463.960	1106.799
212.607	14.103	1463.324	1106.097
213.621	14.203	1462.631	1106.138
214.636	14.277	1461.803	1105.910
215.650	14.168	1461.002	1104.482
216.665	14.181	1460.023	1103.727
217.680	14.258	1459.101	1103.443
218.694	14.286	1458.191	1102.843
219.709	14.334	1457.306	1102.392
220.723	14.318	1456.246	1101.390
221.738	14.351	1455.257	1100.763
222.753	14.257	1454.604	1099.549
223.767	14.304	1453.610	1099.010
224.782	14.286	1452.769	1098.158
225.796	14.397	1451.621	1097.929
226.811	14.409	1450.787	1097.277
227.826	14.432	1450.014	1096.745
228.840	14.438	1449.302	1096.148
229.855	14.377	1448.336	1094.925
230.869	14.341	1447.310	1093.814
231.884	14.256	1446.770	1092.752
232.899	14.421	1444.940	1092.354
233.913	14.372	1443.904	1091.153
234.928	14.279	1443.287	1089.980
235.942	14.418	1441.506	1089.448
236.957	14.399	1440.162	1088.215
237.972	14.351	1439.009	1086.931
238.986	14.349	1438.184	1086.200
240.001	14.479	1437.260	1086.250
241.015	14.398	1436.083	1084.741
242.030	14.469	1435.187	1084.428
243.045	14.526	1433.947	1083.768
244.059	14.518	1433.257	1083.095
245.074	14.526	1432.726	1082.652
246.088	14.617	1431.670	1082.347
247.103	14.558	1431.145	1081.475
248.117	14.668	1429.840	1081.105
249.132	14.614	1429.485	1080.392
250.147	14.678	1429.044	1080.377
251.161	14.830	1428.173	1080.606
252.176	14.840	1427.745	1080.248
253.190	14.865	1427.158	1079.868
254.205	14.915	1425.855	1079.109
255.220	14.915	1424.938	1078.324
256.234	14.921	1424.218	1077.720
257.249	14.951	1423.196	1077.045
258.263	14.891	1422.780	1076.250
259.278	14.975	1421.463	1075.695
260.293	14.940	1420.700	1074.799
261.307	15.005	1419.825	1074.458
262.322	15.086	1419.228	1074.435
263.336	15.026	1418.651	1073.515
264.351	15.086	1417.231	1072.734
265.366	15.097	1416.658	1072.275
266.380	15.037	1415.657	1071.037
267.395	15.129	1414.491	1070.649
268.409	15.240	1413.280	1070.344
269.424	15.146	1412.493	1069.054
270.439	15.128	1411.598	1068.169
271.453	15.220	1410.493	1067.824
272.468	15.109	1409.918	1066.589
273.482	15.122	1408.961	1065.850
274.497	15.045	1408.355	1064.806
275.512	15.100	1407.129	1064.135
276.526	15.207	1406.325	1064.112
277.541	15.211	1405.365	1063.320
278.555	15.228	1404.434	1062.630
279.570	15.204	1403.384	1061.586
280.585	15.060	1402.921	1060.231
281.599	15.361	1401.689	1061.113
282.614	15.355	1400.963	1060.429
283.628	15.305	1399.819	1059.156
284.643	15.363	1398.394	1058.350
285.657	15.244	1397.326	1056.694
286.672	15.279	1396.531	1056.222
287.687	15.245	1396.034	1055.536
288.701	15.348	1394.711	1055.094
289.716	15.403	1393.735	1054.607
290.730	15.352	1393.461	1053.983
291.745	15.413	1392.131	1053.273
292.760	15.441	1391.400	1052.800
293.774	15.355	1390.697	1051.637
294.789	15.379	1389.323	1050.652
295.803	15.438	1388.879	1050.594
296.818	15.408	1388.083	1049.711
297.833	15.487	1386.867	1049.192
298.847	15.494	1385.313	1047.965
299.862	15.490	1384.631	1047.337
300.876	15.526	1383.314	1046.471
301.891	15.496	1382.541	1045.605
302.906	15.496	1382.238	1045.285
303.920	15.476	1381.812	1044.741
304.935	15.576	1380.762	1044.480
305.949	15.640	1379.925	1044.150
306.964	15.666	1379.347	1043.782
307.979	15.729	1378.119	1043.154
308.993	15.743	1376.735	1042.099
310.008	15.762	1376.045	1041.605
311.022	15.751	1375.197	1040.802
312.037	15.748	1374.508	1040.168
313.052	15.726	1373.557	1039.220
314.066	15.771	1372.249	1038.417
315.081	15.735	1371.640	1037.640
316.095	15.689	1370.213	1036.188
317.110	15.653	1369.383	1035.249
318.125	15.688	1368.240	1034.507
319.139	15.857	1367.049	1034.553
320.154	15.694	1366.683	1033.182
321.168	15.697	1365.640	1032.321
322.183	15.698	1364.665	1031.499
323.197	15.731	1363.640	1030.837
324.212	15.722	1363.287	1030.419
325.227	15.878	1361.968	1030.292
326.241	15.861	1360.868	1029.263
327.256	15.840	1360.116	1028.475
328.270	15.842	1359.339	1027.806
329.285	15.837	1358.114	1026.758
330.300	15.911	1357.453	1026.619
331.314	15.816	1356.533	1025.257
332.329	15.842	1355.512	1024.551
333.343	15.892	1354.877	1024.286
334.358	15.904	1354.119	1023.693
335.373	16.021	1352.852	1023.356
336.387	15.981	1352.375	1022.660
337.402	16.036	1351.809	1022.476
338.416	15.948	1351.248	1021.428
339.431	16.095	1350.418	1021.603
340.446	16.066	1349.567	1020.693
341.460	16.066	1348.568	1019.846
342.475	16.145	1347.677	1019.558
343.489	16.152	1346.832	1018.870
344.504	16.211	1346.027	1018.531
345.519	16.226	1345.268	1017.954
346.533	16.204	1344.394	1017.073
347.548	16.362	1343.038	1016.906
348.562	16.329	1342.270	1016.037
349.577	16.308	1341.715	1015.399
350.592	16.334	1340.868	1014.827
351.606	16.283	1340.064	1013.823
352.621	16.243	1339.188	1012.830
353.635	16.381	1337.271	1012.117
354.650	16.227	1337.190	1011.042
355.665	16.228	1336.138	1010.162
356.679	16.274	1334.772	1009.318
357.694	16.359	1333.812	1009.007
358.708	16.308	1332.835	1007.875
359.723	16.374	1331.656	1007.288
360.738	16.347	1330.378	1006.072
361.752	16.398	1329.502	1005.626
362.767	16.423	1328.697	1005.076
363.781	16.435	1327.559	1004.199
364.796	16.381	1327.407	1003.670
365.810	16.411	1326.756	1003.270
366.825	16.498	1325.638	1002.852
367.840	16.518	1324.877	1002.307
368.854	16.556	1324.318	1002.020
369.869	16.576	1323.971	1001.786
370.883	16.690	1322.858	1001.527
371.898	16.612	1322.348	1000.591
372.913	16.612	1321.650	999.979
373.927	16.551	1320.573	998.710
374.942	16.648	1319.381	998.295
375.956	16.677	1319.113	998.177
376.971	16.649	1318.182	997.219
377.986	16.645	1317.060	996.258
379.000	16.658	1316.675	995.957
380.015	16.709	1315.531	995.298
381.029	16.710	1314.745	994.625
382.044	16.720	1314.546	994.446
383.059	16.760	1313.982	994.164
384.073	16.907	1312.623	993.908
385.088	16.867	1312.372	993.397
386.102	16.866	1311.702	992.796
387.117	16.842	1311.060	992.083
388.132	16.922	1309.779	991.494
389.146	16.909	1308.223	990.151
390.161	16.919	1307.942	989.909
391.175	16.876	1307.317	989.095
392.190	16.828	1306.800	988.339
393.205	16.898	1306.003	988.055
394.219	16.927	1304.868	987.281
395.234	16.941	1303.703	986.395
396.248	16.874	1302.771	985.209
397.263	17.016	1301.245	984.796
398.278	16.958	1299.848	983.316
399.292	16.858	1298.645	981.736
400.307	16.951	1297.378	981.233
401.321	16.920	1296.661	980.424
402.336	16.911	1295.654	979.520
403.350	17.009	1294.571	979.183
404.365	16.884	1294.092	978.012
405.380	17.011	1292.738	977.633
406.394	16.894	1292.580	976.753
407.409	16.954	1291.763	976.394
408.423	17.036	1290.839	976.080
409.438	17.049	1290.401	975.740
410.453	17.077	1289.397	975.056
411.467	17.187	1288.857	975.194
412.482	17.147	1288.561	974.651
413.496	17.192	1287.708	974.177
414.511	17.295	1286.790	973.987
415.526	17.277	1285.892	973.117
416.540	17.295	1284.920	972.398
417.555	17.313	1284.562	972.146
418.569	17.269	1284.136	971.485
419.584	17.321	1283.417	971.153
420.599	17.405	1282.505	970.855
421.613	95.674	1354.381	1472.979
422.628	93.628	1364.808	1473.089
