DTS Sentinel unit serial number:	SN413079Multiplexer serial number:	ORYXHardware model number:	OX4-SRSoftware version number:	ORYX F/W v4.00 Oryx Data Collector v3.7.2.0data status	okinstallation	princeton_trtdifferential loss correction	single-endedforward channel	channel 4reverse channel	N/Adate	2019/09/13time	17:49:34forward acquisition time	60.00reverse acquisition time	0.00gamma	496.2192k internal	0.2297k external	0.2297temperature offset calibration	1.0219default loss term (dB/km)	0.3790temperature slope calibration	1.0000multiplexer offset coefficient	1.0000multiplexer slope coefficient	1.0000fibre end	0.00T internal ref (°C)	35.52T ext. ref 1 (°C)	5.08T ext. ref 2 (°C)	28.86length (m)	temperature (°C)	Stokes	anti-Stokes-747.200	236.363	-0.118	-0.200
-746.185	-200.000	0.069	0.493
-745.171	89.344	-0.102	0.116
-744.156	-114.619	-0.398	-0.078
-743.142	40.304	-0.069	-0.064
-742.127	109.369	-0.259	0.317
-741.112	-114.408	-0.244	-0.048
-740.098	800.000	-0.144	0.465
-739.083	-161.330	0.107	-0.006
-738.069	-200.000	0.003	-0.116
-737.054	51.001	-0.060	-0.058
-736.039	26.258	-0.307	-0.262
-735.025	-7.330	0.123	0.085
-734.010	795.851	0.096	-0.271
-732.996	800.000	0.048	-0.142
-731.981	16.819	-0.250	0.202
-730.966	-133.834	0.282	-0.036
-729.952	-29.471	-0.376	0.220
-728.937	-85.536	0.150	-0.048
-727.923	-20.504	-0.259	0.162
-726.908	104.131	0.181	-0.217
-725.894	-38.779	0.332	-0.179
-724.879	-36.687	-0.125	-0.068
-723.864	-139.883	-0.320	0.035
-722.850	-68.314	-0.237	0.094
-721.835	361.110	-0.082	0.168
-720.821	709.033	0.027	0.072
-719.806	-78.958	-0.315	-0.109
-718.791	75.304	-0.183	-0.197
-717.777	252.681	-0.040	0.070
-716.762	-32.435	0.253	-0.144
-715.748	-200.000	0.005	-0.160
-714.733	8.639	-0.107	0.082
-713.718	-112.774	-0.177	-0.036
-712.704	322.806	-0.150	0.291
-711.689	58.189	0.042	0.042
-710.675	-200.000	0.017	0.227
-709.660	-44.024	-0.100	0.051
-708.645	119.667	0.147	-0.185
-707.631	-200.000	0.019	-0.254
-706.616	-29.621	-0.238	-0.138
-705.602	2.046	0.276	0.203
-704.587	32.246	-0.197	-0.174
-703.572	-71.027	-0.145	0.056
-702.558	-46.273	0.099	-0.049
-701.543	153.336	0.043	-0.060
-700.529	20.358	0.033	-0.027
-699.514	800.000	0.078	0.227
-698.499	800.000	-0.011	0.042
-697.485	121.988	-0.087	0.110
-696.470	51.861	0.292	-0.283
-695.456	800.000	0.051	-0.177
-694.441	8.832	0.207	-0.159
-693.426	168.789	-0.053	0.077
-692.412	158.888	-0.124	0.176
-691.397	356.535	0.015	-0.031
-690.383	-70.346	-0.456	0.176
-689.368	90.275	0.095	0.109
-688.354	-107.018	0.274	0.062
-687.339	-39.229	0.278	-0.149
-686.324	-49.872	-0.400	-0.193
-685.310	403.069	0.242	-0.519
-684.295	-38.468	-0.209	-0.112
-683.281	-200.000	-0.066	0.318
-682.266	-14.007	-0.436	0.287
-681.251	159.483	-0.132	0.187
-680.237	258.371	0.007	-0.013
-679.222	-70.720	-0.380	0.146
-678.208	-104.292	-0.258	0.061
-677.193	800.000	0.106	-0.346
-676.178	-128.217	-0.132	-0.019
-675.164	-45.062	-0.118	0.060
-674.149	486.520	0.155	-0.360
-673.135	765.940	-0.016	-0.043
-672.120	1.217	0.146	0.107
-671.105	203.241	0.189	0.298
-670.091	-164.381	-0.252	-0.012
-669.076	32.650	0.169	0.149
-668.062	-67.827	-0.208	-0.083
-667.047	-200.000	0.022	0.107
-666.032	-26.729	0.174	0.104
-665.018	-200.000	0.096	-0.463
-664.003	-144.800	-0.145	0.014
-662.989	800.000	0.129	-0.444
-661.974	-200.000	-0.270	-0.000
-660.959	192.815	-0.203	0.312
-659.945	28.443	-0.231	-0.199
-658.930	49.358	-0.125	-0.120
-657.916	800.000	-0.073	-0.232
-656.901	-52.824	-0.096	-0.045
-655.886	-57.660	0.101	0.045
-654.872	23.162	-0.200	-0.167
-653.857	651.065	-0.078	-0.204
-652.843	-200.000	-0.031	-0.149
-651.828	-126.409	0.261	-0.040
-650.814	800.000	-0.056	-0.220
-649.799	-200.000	0.020	0.295
-648.784	-71.002	-0.172	0.066
-647.770	-150.376	0.064	0.005
-646.755	-200.000	-0.013	-0.242
-645.741	486.177	0.126	-0.293
-644.726	560.538	-0.119	-0.291
-643.711	-121.003	-0.139	0.024
-642.697	-175.827	-0.290	0.008
-641.682	104.408	0.165	-0.197
-640.668	663.833	0.088	-0.231
-639.653	54.111	0.131	0.128
-638.638	318.404	-0.061	0.117
-637.624	-154.558	0.187	0.013
-636.609	-200.000	0.044	-0.398
-635.595	-92.180	0.104	0.030
-634.580	-200.000	0.022	0.237
-633.565	800.000	-0.029	0.123
-632.551	-49.705	-0.208	-0.100
-631.536	101.798	-0.113	0.135
-630.522	-9.369	-0.245	0.166
-629.507	-123.313	-0.251	0.041
-628.492	-30.401	-0.159	-0.092
-627.478	35.206	-0.163	0.145
-626.463	20.756	-0.261	0.215
-625.449	80.727	0.276	0.303
-624.434	20.129	-0.163	0.134
-623.419	64.693	0.179	-0.183
-622.405	-128.114	0.082	0.012
-621.390	-125.552	-0.292	0.045
-620.376	123.532	-0.007	-0.009
-619.361	185.009	0.232	0.349
-618.346	-77.777	-0.121	0.043
-617.332	-63.805	0.340	0.141
-616.317	-50.261	-0.367	-0.176
-615.303	-200.000	0.036	0.343
-614.288	-9.402	0.276	-0.187
-613.273	55.693	-0.085	-0.084
-612.259	286.314	-0.106	-0.194
-611.244	-200.000	-0.009	-0.198
-610.230	800.000	0.097	-0.412
-609.215	-200.000	0.015	0.073
-608.201	105.533	-0.096	0.116
-607.186	81.517	-0.237	0.260
-606.171	-87.273	-0.273	0.084
-605.157	-200.000	0.018	-0.086
-604.142	152.660	0.183	-0.253
-603.128	-111.796	-0.170	-0.035
-602.113	206.629	-0.100	-0.158
-601.098	-147.717	0.197	-0.017
-600.084	800.000	-0.045	0.131
-599.069	-110.818	-0.220	0.046
-598.055	99.613	-0.110	-0.129
-597.040	-71.514	-0.272	-0.103
-596.025	-3.970	0.371	0.262
-595.011	-143.863	0.330	-0.032
-593.996	14.695	0.171	-0.136
-592.982	432.728	-0.116	-0.256
-591.967	-39.980	-0.137	0.073
-590.952	-171.104	-0.111	0.004
-589.938	-56.582	0.208	0.094
-588.923	633.001	-0.069	-0.178
-587.909	42.856	-0.170	-0.157
-586.894	-108.893	-0.405	0.088
-585.879	-36.382	-0.224	0.122
-584.865	-99.808	-0.140	-0.035
-583.850	-42.237	0.428	-0.222
-582.836	-107.321	0.120	0.027
-581.821	373.941	0.096	-0.197
-580.806	-200.000	0.049	-0.322
-579.792	16.622	-0.111	0.089
-578.777	9.744	-0.178	-0.137
-577.763	-200.000	-0.071	-0.391
-576.748	-141.300	-0.274	-0.028
-575.733	800.000	0.034	-0.138
-574.719	148.354	0.084	-0.115
-573.704	30.719	-0.331	-0.287
-572.690	800.000	-0.109	-0.325
-571.675	63.255	0.242	-0.246
-570.661	87.079	-0.392	-0.440
-569.646	733.486	-0.087	-0.236
-568.631	-67.695	-0.284	-0.113
-567.617	-11.980	-0.147	0.097
-566.602	-60.381	0.150	0.065
-565.588	-81.203	0.189	0.063
-564.573	800.000	0.038	0.121
-563.558	15.216	-0.184	0.146
-562.544	-30.963	-0.307	0.176
-561.529	-110.829	0.280	-0.059
-560.515	-116.140	-0.069	0.013
-559.500	44.163	-0.194	0.180
-558.485	113.067	0.139	-0.171
-557.471	800.000	-0.036	0.136
-556.456	21.564	-0.059	0.049
-555.442	221.767	-0.223	0.363
-554.427	470.626	-0.065	0.148
-553.412	18.763	0.190	0.154
-552.398	-105.381	0.094	0.022
-551.383	-44.540	-0.129	-0.065
-550.369	-66.204	-0.171	0.069
-549.354	800.000	-0.038	0.119
-548.339	800.000	0.081	0.250
-547.325	25.520	0.200	0.169
-546.310	656.998	-0.078	0.203
-545.296	-185.851	-0.218	0.003
-544.281	253.658	0.072	0.125
-543.266	-200.000	-0.006	-0.204
-542.252	-200.000	-0.005	0.183
-541.237	-200.000	0.011	0.065
-540.223	-200.000	0.028	0.132
-539.208	800.000	-0.060	0.221
-538.193	-53.185	-0.140	0.065
-537.179	-79.827	-0.395	0.135
-536.164	-64.045	-0.083	-0.034
-535.150	-200.000	-0.046	-0.312
-534.135	-200.000	0.060	-0.275
-533.121	512.793	-0.125	0.295
-532.106	23.432	-0.058	-0.048
-531.091	21.363	0.222	-0.182
-530.077	-200.000	-0.039	-0.203
-529.062	-69.259	0.246	0.096
-528.048	144.720	0.099	0.133
-527.033	-100.824	-0.164	-0.041
-526.018	27.428	-0.250	-0.213
-525.004	189.047	0.075	-0.114
-523.989	-200.000	0.037	0.306
-522.975	5.106	0.127	-0.095
-521.960	20.094	-0.147	0.120
-520.945	-200.000	-0.033	-0.259
-519.931	149.194	0.060	0.083
-518.916	226.448	0.105	-0.172
-517.902	148.820	0.146	0.200
-516.887	-41.398	-0.226	0.118
-515.872	800.000	-0.110	-0.444
-514.858	172.394	0.202	-0.294
-513.843	-33.589	0.299	0.167
-512.829	565.690	0.061	0.149
-511.814	570.372	0.083	-0.205
-510.799	-64.369	-0.196	-0.081
-509.785	-140.612	-0.378	-0.040
-508.770	82.898	0.098	-0.108
-507.756	-118.673	-0.224	-0.040
-506.741	79.563	0.183	0.199
-505.726	-29.293	-0.030	-0.018
-504.712	29.716	-0.052	-0.045
-503.697	705.465	-0.137	0.367
-502.683	259.931	0.082	0.143
-501.668	-155.443	-0.483	-0.032
-500.653	-86.586	-0.218	-0.068
-499.639	-63.896	0.175	-0.072
-498.624	800.000	-0.073	0.245
-497.610	243.292	-0.025	-0.043
-496.595	97.798	0.018	-0.021
-495.581	-1.346	0.274	-0.196
-494.566	85.221	-0.164	-0.182
-493.551	282.379	0.133	0.241
-492.537	-200.000	-0.031	0.320
-491.522	-200.000	-0.048	0.222
-490.508	-105.686	-0.256	0.059
-489.493	119.069	-0.167	0.209
-488.478	572.157	-0.032	0.079
-487.464	-160.869	-0.221	0.012
-486.449	290.776	0.016	0.029
-485.435	-129.265	0.294	-0.041
-484.420	11.349	0.114	0.089
-483.405	-23.375	-0.207	0.126
-482.391	12.554	0.212	0.165
-481.376	172.103	-0.081	-0.117
-480.362	-63.859	0.140	-0.058
-479.347	5.874	0.303	0.226
-478.332	-124.655	-0.329	-0.052
-477.318	110.006	0.214	-0.260
-476.303	800.000	-0.056	0.166
-475.289	482.546	-0.112	0.257
-474.274	-61.723	-0.045	-0.019
-473.259	-41.671	0.115	0.060
-472.245	226.404	-0.154	0.252
-471.230	-200.000	-0.028	-0.259
-470.216	-95.137	0.142	-0.039
-469.201	-122.128	0.044	0.007
-468.186	10.890	0.254	-0.196
-467.172	800.000	-0.089	-0.382
-466.157	242.772	0.031	0.053
-465.143	158.001	-0.103	-0.145
-464.128	326.874	-0.038	-0.074
-463.113	263.352	0.070	-0.124
-462.099	259.717	-0.137	-0.239
-461.084	333.672	-0.067	0.130
-460.070	-200.000	-0.016	0.137
-459.055	-200.000	-0.015	-0.274
-458.040	-168.211	-0.209	0.008
-457.026	-13.042	-0.177	-0.116
-456.011	532.713	0.027	0.065
-454.997	-89.476	-0.106	-0.031
-453.982	-200.000	-0.028	0.242
-452.968	800.000	0.052	0.188
-451.953	11.536	0.203	-0.157
-450.938	152.232	0.083	0.115
-449.924	800.000	-0.052	0.169
-448.909	-200.000	-0.040	-0.266
-447.895	109.104	-0.110	0.133
-446.880	487.709	-0.004	0.010
-445.865	-108.598	0.185	0.040
-444.851	221.444	0.195	0.316
-443.836	308.158	0.170	-0.321
-442.822	-105.457	0.130	0.030
-441.807	-80.639	0.121	0.041
-440.792	119.411	0.176	0.220
-439.778	-200.000	-0.017	0.197
-438.763	-132.840	0.345	0.044
-437.749	-103.541	-0.330	-0.078
-436.734	-163.467	0.280	0.013
-435.719	22.352	-0.144	-0.119
-434.705	78.918	-0.071	0.077
-433.690	58.111	-0.122	0.120
-432.676	-121.235	0.356	0.060
-431.661	629.787	-0.088	0.223
-430.646	800.000	0.130	-0.486
-429.632	-48.099	0.134	0.066
-428.617	-73.513	-0.263	-0.097
-427.603	800.000	0.052	0.159
-426.588	-15.543	-0.233	-0.150
-425.573	-115.331	0.120	-0.023
-424.559	-163.351	-0.078	-0.004
-423.544	29.765	0.157	0.134
-422.530	-141.685	0.259	-0.026
-421.515	-142.720	0.104	0.010
-420.500	-91.770	0.394	0.113
-419.486	-200.000	-0.032	0.289
-418.471	-14.571	0.080	-0.052
-417.457	800.000	0.047	0.203
-416.442	-18.798	-0.328	0.206
-415.428	45.051	-0.147	0.136
-414.413	-200.000	-0.005	0.043
-413.398	241.987	0.100	-0.168
-412.384	-28.181	-0.187	0.109
-411.369	-200.000	-0.002	0.311
-410.355	-141.496	-0.312	-0.032
-409.340	341.934	-0.042	0.083
-408.325	-145.836	-0.287	-0.026
-407.311	-118.843	0.080	0.014
-406.296	-66.069	0.093	0.038
-405.282	-112.558	0.148	0.030
-404.267	-200.000	-0.031	0.188
-403.252	-161.856	0.177	0.009
-402.238	-200.000	-0.002	0.282
-401.223	800.000	-0.063	-0.257
-400.209	-200.000	-0.036	0.267
-399.194	230.153	0.161	-0.265
-398.179	-200.000	0.014	-0.127
-397.165	-151.676	0.211	-0.016
-396.150	-7.285	0.087	0.059
-395.136	-146.856	-0.378	0.033
-394.121	-11.680	0.243	-0.161
-393.106	-200.000	-0.001	0.034
-392.092	-200.000	0.016	0.141
-391.077	290.623	0.167	-0.305
-390.063	161.039	0.039	0.055
-389.048	192.577	0.141	0.215
-388.033	-58.133	-0.091	-0.040
-387.019	800.000	0.033	-0.113
-386.004	-200.000	-0.014	0.157
-384.990	-81.491	0.017	0.006
-383.975	-200.000	0.036	-0.295
-382.960	-158.163	-0.113	-0.007
-381.946	122.114	0.172	0.217
-380.931	-36.501	0.021	0.012
-379.917	-73.679	0.095	0.035
-378.902	-44.275	-0.062	-0.031
-377.888	390.982	0.100	-0.210
-376.873	5.338	0.090	0.067
-375.858	-154.271	0.337	-0.023
-374.844	405.988	0.139	0.295
-373.829	39.233	0.119	-0.107
-372.815	800.000	0.062	-0.213
-371.800	88.261	0.154	0.172
-370.785	124.115	0.119	0.151
-369.771	-200.000	-0.002	-0.018
-368.756	-14.860	-0.361	0.233
-367.742	-200.000	0.026	-0.180
-366.727	-128.815	-0.380	0.054
-365.712	43.849	-0.164	0.151
-364.698	277.135	0.166	0.297
-363.683	121.078	-0.008	0.010
-362.669	800.000	0.070	-0.270
-361.654	-139.335	0.355	0.038
-360.639	-60.528	0.157	-0.067
-359.625	161.135	-0.133	0.187
-358.610	423.934	-0.151	-0.327
-357.596	-200.000	-0.002	0.156
-356.581	82.354	0.338	0.369
-355.566	-51.302	-0.456	0.215
-354.552	181.213	-0.071	-0.105
-353.537	-200.000	0.004	0.072
-352.523	193.086	-0.057	-0.086
-351.508	262.900	0.099	-0.173
-350.493	-40.648	-0.162	-0.084
-349.479	-200.000	-0.014	-0.321
-348.464	56.046	-0.095	0.093
-347.450	-19.623	0.165	0.102
-346.435	-43.009	0.273	0.139
-345.420	188.002	-0.022	0.033
-344.406	628.433	-0.037	-0.093
-343.391	265.498	-0.114	-0.199
-342.377	22.567	-0.212	-0.175
-341.362	-200.000	-0.013	0.138
-340.348	-144.768	0.146	-0.013
-339.333	150.360	0.113	0.154
-338.318	-14.287	0.170	0.110
-337.304	161.077	-0.032	-0.045
-336.289	-170.551	-0.094	0.003
-335.275	163.919	-0.179	-0.253
-334.260	-200.000	-0.015	0.115
-333.245	79.184	-0.243	-0.262
-332.231	69.006	-0.093	0.096
-331.216	-35.352	0.314	0.171
-330.202	-124.236	0.071	0.011
-329.187	-150.921	0.159	-0.012
-328.172	51.521	-0.088	-0.084
-327.158	-200.000	-0.030	-0.238
-326.143	-28.259	-0.196	-0.114
-325.129	-7.246	0.306	0.208
-324.114	510.023	-0.015	0.036
-323.099	-200.000	-0.014	-0.184
-322.085	133.028	-0.133	0.173
-321.070	800.000	-0.076	0.221
-320.056	-24.516	0.390	0.233
-319.041	-91.894	-0.415	0.118
-318.026	-82.046	-0.244	-0.080
-317.012	-153.055	-0.203	0.014
-315.997	668.737	-0.096	0.248
-314.983	59.646	0.071	-0.070
-313.968	112.860	0.080	0.097
-312.953	70.343	0.082	0.085
-311.939	458.690	0.067	-0.149
-310.924	-12.910	-0.112	-0.073
-309.910	-200.000	-0.049	-0.289
-308.895	-124.436	0.204	0.032
-307.880	310.329	-0.068	0.128
-306.866	-200.000	0.062	0.364
-305.851	366.403	0.031	-0.062
-304.837	-142.596	0.328	0.032
-303.822	-200.000	-0.012	0.343
-302.807	67.482	-0.180	-0.184
-301.793	-200.000	-0.143	-0.000
-300.778	309.711	-0.075	-0.141
-299.764	-22.019	-0.236	0.144
-298.749	64.324	0.150	0.152
-297.735	56.798	0.145	0.142
-296.720	59.166	-0.080	0.079
-295.705	-16.854	0.194	0.123
-294.691	-155.025	0.087	0.006
-293.676	-22.027	0.368	0.224
-292.662	445.071	-0.069	0.153
-291.647	800.000	0.079	0.262
-290.632	78.003	-0.009	0.010
-289.618	64.870	-0.018	0.018
-288.603	-31.609	0.065	0.037
-287.589	-200.000	-0.008	0.267
-286.574	519.088	0.108	0.253
-285.559	-96.951	-0.103	0.027
-284.545	668.725	-0.086	0.224
-283.530	-137.779	-0.356	0.040
-282.516	-200.000	-0.004	-0.267
-281.501	650.017	0.176	-0.451
-280.486	714.690	-0.086	0.229
-279.472	-127.639	0.166	-0.024
-278.457	-26.221	-0.103	-0.061
-277.443	114.593	-0.046	0.056
-276.428	125.933	-0.031	-0.039
-275.413	-200.000	-0.006	0.114
-274.399	-71.064	-0.216	-0.081
-273.384	4.177	0.232	0.171
-272.370	33.820	0.176	0.153
-271.355	267.253	-0.101	-0.177
-270.340	20.116	-0.102	-0.083
-269.326	-200.000	-0.079	-0.396
-268.311	-80.690	0.168	-0.056
-267.297	-55.268	-0.064	-0.029
-266.282	-38.656	0.380	-0.201
-265.267	-200.000	-0.012	0.222
-264.253	800.000	0.095	0.267
-263.238	350.010	0.037	-0.073
-262.224	104.845	-0.134	0.159
-261.209	75.618	0.109	0.115
-260.195	800.000	-0.048	-0.148
-259.180	800.000	0.074	0.301
-258.165	-200.000	0.013	0.092
-257.151	109.420	0.006	-0.008
-256.136	121.548	-0.122	-0.152
-255.122	800.000	-0.047	0.135
-254.107	-155.217	-0.158	0.010
-253.092	-200.000	-0.005	-0.487
-252.078	-158.479	-0.211	0.012
-251.063	800.000	-0.090	0.303
-250.049	9.066	-0.177	0.134
-249.034	-61.106	-0.267	-0.113
-248.019	-141.577	-0.063	0.006
-247.005	-32.271	-0.150	0.084
-245.990	-149.782	-0.043	0.003
-244.976	-82.863	-0.150	0.049
-243.961	26.742	0.113	-0.094
-242.946	91.919	0.222	-0.250
-241.932	-5.660	-0.141	0.097
-240.917	-200.000	-0.015	-0.128
-239.903	-200.000	0.057	-0.324
-238.888	800.000	-0.035	-0.151
-237.873	-2.192	-0.292	-0.205
-236.859	-57.538	0.272	0.119
-235.844	-83.516	0.267	-0.086
-234.830	11.980	0.047	-0.036
-233.815	82.629	-0.151	-0.164
-232.800	800.000	0.038	-0.159
-231.786	212.396	-0.065	-0.103
-230.771	318.020	-0.104	-0.196
-229.757	634.510	-0.091	-0.230
-228.742	633.923	0.082	0.208
-227.727	-89.672	0.204	0.060
-226.713	131.552	0.231	0.297
-225.698	-200.000	0.015	-0.145
-224.684	800.000	-0.037	0.136
-223.669	44.727	-0.079	0.073
-222.655	-58.671	-0.218	0.095
-221.640	-200.000	-0.019	0.229
-220.625	-55.387	0.276	-0.124
-219.611	-8.470	-0.268	-0.180
-218.596	43.566	-0.249	-0.228
-217.582	-200.000	0.044	-0.311
-216.567	13.465	0.133	0.103
-215.552	324.852	0.078	-0.148
-214.538	-165.531	-0.084	-0.004
-213.523	-200.000	-0.011	0.101
-212.509	348.511	0.125	-0.247
-211.494	-200.000	0.043	-0.241
-210.479	259.513	-0.119	-0.205
-209.465	7.856	0.421	-0.316
-208.450	-64.926	-0.182	-0.074
-207.436	-128.393	-0.160	-0.023
-206.421	137.626	-0.140	-0.184
-205.406	800.000	0.065	-0.210
-204.392	-55.850	0.169	-0.075
-203.377	-66.960	0.255	0.101
-202.363	-16.902	0.266	-0.168
-201.348	-164.049	-0.148	-0.007
-200.333	-21.908	0.264	-0.161
-199.319	130.233	0.045	-0.057
-198.304	49.738	0.117	-0.110
-197.290	-88.412	0.237	0.071
-196.275	-54.533	0.259	0.117
-195.260	254.209	0.152	0.260
-194.246	-147.693	0.293	-0.025
-193.231	-71.520	-0.244	-0.091
-192.217	-6.168	-0.015	-0.010
-191.202	602.792	0.189	0.470
-190.187	563.160	-0.044	-0.106
-189.173	-40.822	-0.070	-0.036
-188.158	-168.026	0.314	-0.012
-187.144	-200.000	0.035	-0.377
-186.129	226.238	0.057	0.093
-185.114	800.000	0.030	-0.120
-184.100	-70.086	0.377	0.143
-183.085	162.596	0.175	0.246
-182.071	82.508	0.164	-0.177
-181.056	-200.000	-0.025	0.241
-180.042	800.000	0.029	0.096
-179.027	-145.309	0.083	-0.007
-178.012	-200.000	-0.016	0.322
-176.998	-85.801	0.288	0.089
-175.983	84.439	-0.135	-0.147
-174.969	-114.439	-0.037	0.007
-173.954	-200.000	0.032	0.177
-172.939	250.916	0.143	-0.243
-171.925	-75.541	-0.119	-0.042
-170.910	172.389	-0.089	0.128
-169.896	800.000	0.043	-0.184
-168.881	-58.092	0.167	0.073
-167.866	101.674	-0.094	-0.109
-166.852	-200.000	-0.010	-0.105
-165.837	-51.802	0.143	-0.067
-164.823	7.180	0.368	-0.274
-163.808	-200.000	0.001	-0.220
-162.793	-200.000	0.002	-0.016
-161.779	249.841	0.071	0.121
-160.764	9.558	-0.191	-0.145
-159.750	800.000	0.111	-0.320
-158.735	-148.716	0.136	-0.011
-157.720	-110.699	-0.145	-0.030
-156.706	23.507	-0.125	-0.103
-155.691	-75.560	0.184	0.065
-154.677	360.133	-0.066	-0.132
-153.662	167.539	-0.087	0.123
-152.647	-23.116	0.031	0.018
-151.633	191.524	-0.038	-0.057
-150.618	-95.561	0.244	0.065
-149.604	-109.982	0.035	-0.007
-148.589	800.000	0.101	0.408
-147.574	687.894	0.058	0.151
-146.560	125.926	0.219	-0.276
-145.545	138.028	-0.131	0.172
-144.531	-107.164	0.141	0.031
-143.516	232.165	0.010	0.016
-142.502	20.493	0.059	0.048
-141.487	128.813	-0.178	-0.226
-140.472	128.932	0.138	-0.175
-139.458	-200.000	-0.033	-0.159
-138.443	-148.653	0.483	0.039
-137.429	-72.056	-0.205	0.076
-136.414	-90.258	0.189	-0.055
-135.399	-138.536	-0.080	-0.009
-134.385	49.537	0.062	-0.058
-133.370	-18.830	0.275	-0.171
-132.356	178.393	0.102	-0.148
-131.341	800.000	-0.012	0.049
-130.326	800.000	0.013	0.041
-129.312	-97.363	-0.128	-0.033
-128.297	270.209	0.057	0.101
-127.283	39.369	-0.133	0.119
-126.268	-103.283	-0.228	0.054
-125.253	164.996	0.035	-0.049
-124.239	398.440	0.057	0.119
-123.224	146.322	0.117	0.157
-122.210	-63.747	-0.202	-0.082
-121.195	-102.402	0.230	0.055
-120.180	90.410	0.166	-0.186
-119.166	392.811	0.120	-0.249
-118.151	103.293	0.132	0.154
-117.137	19.085	-0.154	0.123
-116.122	-19.157	0.167	0.104
-115.107	-12.179	-0.024	-0.016
-114.093	-51.418	-0.119	0.055
-113.078	53.642	0.036	-0.034
-112.064	155.213	0.045	0.061
-111.049	196.208	-0.224	0.340
-110.034	-27.681	0.085	-0.049
-109.020	33.487	-0.143	0.123
-108.005	-200.000	-0.012	-0.105
-106.991	-200.000	-0.001	0.013
-105.976	-102.290	0.339	-0.081
-104.962	-200.000	0.043	0.306
-103.947	405.538	0.044	0.093
-102.932	755.698	-0.071	-0.192
-101.918	-200.000	-0.234	0.001
-100.903	-200.000	-0.003	0.220
-99.889	-72.760	0.282	0.104
-98.874	-82.772	0.170	-0.055
-97.859	-43.587	-0.137	-0.069
-96.845	800.000	-0.067	0.240
-95.830	-9.810	-0.162	0.108
-94.816	-106.549	0.204	-0.045
-93.801	-144.939	-0.231	0.021
-92.786	-66.342	-0.158	-0.063
-91.772	460.525	0.125	-0.277
-90.757	-137.770	-0.162	0.018
-89.743	800.000	0.078	0.276
-88.728	559.650	-0.102	0.244
-87.713	206.657	0.102	-0.158
-86.699	-30.175	0.200	-0.113
-85.684	800.000	-0.064	-0.177
-84.670	-87.231	-0.174	0.053
-83.655	78.288	0.251	0.266
-82.640	-188.403	-0.211	-0.003
-81.626	800.000	-0.151	-0.429
-80.611	304.817	0.142	-0.262
-79.597	-128.721	-0.031	0.004
-78.582	-85.775	-0.156	0.048
-77.567	-112.730	0.255	0.050
-76.553	-57.256	-0.187	0.082
-75.538	196.879	-0.097	-0.147
-74.524	370.220	0.155	0.313
-73.509	-200.000	0.016	0.193
-72.494	41.947	0.155	0.140
-71.480	-16.661	0.270	-0.170
-70.465	228.402	-0.156	0.253
-69.451	673.160	0.122	0.315
-68.436	45.756	-0.040	0.036
-67.422	800.000	0.009	-0.038
-66.407	249.652	-0.054	-0.091
-65.392	-80.789	-0.299	-0.099
-64.378	-200.000	-0.085	0.525
-63.363	66.459	-0.239	0.242
-62.349	1.743	-0.215	-0.154
-61.334	125.535	-0.892	-1.119
-60.319	2.709	0.360	0.259
-59.305	-200.000	-0.163	-0.784
-58.290	186.265	0.672	0.994
-57.276	337.555	0.660	1.275
-56.261	-200.000	96.016	574.325
-55.246	643.328	1383.487	3506.901
-54.232	184.549	2604.492	3836.664
-53.217	114.020	2337.307	2825.903
-52.203	42.431	2085.640	1885.374
-51.188	37.145	1998.796	1759.038
-50.173	35.704	1979.258	1728.828
-49.159	50.046	2030.395	1904.482
-48.144	53.136	2050.024	1950.971
-47.130	37.945	2007.205	1773.438
-46.115	35.497	1995.510	1740.867
-45.100	35.467	1992.506	1737.904
-44.086	35.458	1989.568	1735.195
-43.071	35.336	1987.484	1732.207
-42.057	35.327	1985.042	1729.930
-41.042	35.268	1983.513	1727.996
-40.027	35.279	1981.770	1726.505
-39.013	35.359	1979.593	1725.265
-37.998	35.360	1978.383	1724.151
-36.984	35.439	1975.691	1722.439
-35.969	35.506	1973.767	1721.298
-34.954	35.439	1971.991	1719.080
-33.940	35.532	1970.795	1718.802
-32.925	35.522	1969.139	1717.198
-31.911	35.626	1966.842	1716.057
-30.896	35.594	1965.187	1714.266
-29.881	35.588	1963.958	1713.069
-28.867	35.564	1962.692	1711.682
-27.852	35.515	1961.055	1709.749
-26.838	35.524	1958.955	1707.926
-25.823	35.569	1956.882	1706.452
-24.809	35.543	1955.507	1704.961
-23.794	35.545	1953.535	1703.187
-22.779	35.493	1951.834	1701.175
-21.765	35.564	1950.009	1700.143
-20.750	35.534	1948.481	1698.483
-19.736	35.527	1947.072	1697.127
-18.721	35.494	1945.857	1695.706
-17.706	35.530	1943.848	1694.210
-16.692	35.465	1942.338	1692.249
-15.677	35.478	1940.726	1690.890
-14.663	35.581	1938.850	1690.094
-13.648	35.565	1938.072	1689.214
-12.633	35.604	1936.518	1688.129
-11.619	35.575	1934.995	1686.481
-10.604	35.493	1934.069	1684.888
-9.590	35.601	1932.213	1684.156
-8.575	35.476	1931.169	1682.078
-7.560	35.538	1929.824	1681.381
-6.546	35.520	1928.432	1679.950
-5.531	35.523	1927.455	1679.059
-4.517	35.485	1926.113	1677.493
-3.502	35.570	1924.778	1677.004
-2.487	35.503	1923.873	1675.565
-1.473	35.514	1922.653	1674.534
-0.458	35.509	1918.509	1670.807
0.556	37.784	1897.552	1638.768
1.571	32.392	1875.101	1574.269
2.586	27.060	1893.943	1544.740
3.600	25.237	1927.962	1556.543
4.615	23.696	1921.163	1537.592
5.629	17.918	1819.519	1408.584
6.644	9.418	1701.651	1251.368
7.659	5.302	1665.236	1193.106
8.673	4.998	1661.490	1188.002
9.688	5.028	1659.608	1186.779
10.702	5.116	1659.018	1186.920
11.717	5.168	1656.086	1185.116
12.731	5.491	1655.680	1187.166
13.746	10.721	1667.597	1235.486
14.761	18.813	1685.145	1310.347
15.775	22.525	1690.821	1342.999
16.790	22.342	1689.550	1340.472
17.804	21.370	1686.119	1330.244
18.819	20.341	1682.967	1319.819
19.834	19.792	1680.193	1313.358
20.848	19.423	1679.212	1309.677
21.863	19.362	1677.821	1308.008
22.877	19.164	1676.414	1305.301
23.892	18.941	1675.140	1302.498
24.907	18.906	1674.017	1301.251
25.921	18.846	1673.103	1299.971
26.936	18.808	1672.539	1299.124
27.950	18.936	1671.061	1298.832
28.965	18.971	1670.254	1298.354
29.980	18.962	1669.751	1297.777
30.994	19.102	1668.840	1298.012
32.009	19.174	1667.892	1297.707
33.023	19.268	1667.237	1297.786
34.038	19.234	1666.325	1296.704
35.053	19.174	1665.459	1295.465
36.067	19.120	1663.410	1293.348
37.082	18.989	1662.590	1291.618
38.096	19.023	1661.687	1291.058
39.111	19.047	1661.025	1290.605
40.126	19.236	1659.854	1291.000
41.140	19.246	1658.701	1290.064
42.155	19.006	1657.368	1287.120
43.169	18.824	1655.435	1284.142
44.184	18.645	1654.760	1282.165
45.199	18.696	1653.557	1281.505
46.213	18.762	1651.851	1280.558
47.228	18.762	1651.079	1279.843
48.242	18.812	1650.231	1279.450
49.257	19.013	1649.160	1280.000
50.271	19.030	1647.688	1278.871
51.286	18.978	1646.618	1277.545
52.301	18.999	1645.228	1276.506
53.315	19.032	1644.131	1275.783
54.330	19.008	1642.390	1274.142
55.344	18.837	1640.561	1271.350
56.359	18.781	1638.972	1269.587
57.374	18.784	1637.712	1268.526
58.388	18.814	1636.713	1267.862
59.403	18.770	1635.302	1266.329
60.417	18.565	1633.936	1263.650
61.432	18.651	1632.650	1263.177
62.447	18.616	1631.588	1261.983
63.461	18.429	1630.789	1259.878
64.476	18.503	1629.064	1258.984
65.490	18.564	1627.526	1258.131
66.505	18.578	1626.531	1257.354
67.520	18.426	1625.969	1255.693
68.534	18.566	1624.646	1255.581
69.549	18.528	1624.159	1254.816
70.563	18.552	1622.651	1253.719
71.578	18.541	1620.926	1252.193
72.593	18.416	1619.866	1250.352
73.607	18.267	1619.428	1248.813
74.622	18.308	1618.279	1248.119
75.636	18.354	1616.602	1247.049
76.651	18.321	1616.707	1246.776
77.666	18.372	1615.355	1245.995
78.680	18.382	1614.567	1245.349
79.695	18.373	1613.989	1244.727
80.709	18.532	1612.744	1244.811
81.724	18.552	1612.261	1244.479
82.739	18.646	1611.552	1244.503
83.753	18.670	1611.023	1244.158
84.768	18.827	1609.776	1244.218
85.782	19.017	1609.203	1245.044
86.797	19.085	1608.559	1244.925
87.812	19.130	1608.195	1244.857
88.826	19.005	1606.647	1242.648
89.841	18.929	1605.826	1241.356
90.855	19.013	1604.684	1240.967
91.870	19.036	1604.052	1240.536
92.884	19.187	1602.667	1240.438
93.899	19.196	1601.982	1239.867
94.914	19.178	1600.576	1238.537
95.928	19.199	1599.454	1237.714
96.943	19.235	1598.147	1236.848
97.957	19.155	1597.202	1235.435
98.972	19.064	1595.304	1233.206
99.987	19.146	1593.677	1232.422
101.001	19.052	1592.796	1230.960
102.016	19.086	1590.818	1229.571
103.030	19.122	1589.542	1228.730
104.045	19.147	1588.659	1228.118
105.060	19.115	1587.061	1226.549
106.074	18.988	1585.511	1224.336
107.089	18.857	1583.333	1221.615
108.103	18.703	1582.076	1219.444
109.118	18.514	1580.438	1216.731
110.133	18.451	1579.088	1215.134
111.147	18.563	1577.360	1214.494
112.162	18.475	1576.415	1213.035
113.176	18.514	1575.064	1212.161
114.191	18.603	1573.929	1211.813
115.206	18.665	1573.165	1211.555
116.220	18.627	1571.918	1210.222
117.235	18.710	1570.316	1209.462
118.249	18.620	1568.903	1207.637
119.264	18.664	1567.297	1206.603
120.279	18.499	1566.488	1204.711
121.293	18.504	1564.526	1203.129
122.308	18.461	1563.010	1201.560
123.322	18.422	1561.283	1199.853
124.337	18.337	1560.002	1198.162
125.352	18.315	1558.598	1196.825
126.366	18.210	1557.555	1195.189
127.381	18.392	1556.185	1195.299
128.395	18.320	1555.217	1193.948
129.410	18.372	1553.863	1193.168
130.424	18.335	1552.788	1191.979
131.439	18.401	1551.696	1191.492
132.454	18.536	1550.360	1191.300
133.468	18.610	1549.353	1190.930
134.483	18.718	1547.621	1190.244
135.497	18.725	1546.146	1189.052
136.512	18.694	1545.304	1188.084
137.527	18.766	1543.423	1187.030
138.541	18.723	1542.447	1185.880
139.556	18.721	1541.290	1184.871
140.570	18.874	1540.127	1184.927
141.585	18.963	1538.787	1184.402
142.600	18.961	1538.032	1183.705
143.614	19.101	1536.880	1183.675
144.629	19.217	1535.823	1183.558
145.643	19.229	1534.192	1182.275
146.658	19.278	1533.100	1181.670
147.673	19.165	1531.334	1179.428
148.687	19.011	1529.851	1177.126
149.702	18.879	1528.547	1175.114
150.716	18.861	1526.805	1173.552
151.731	18.799	1525.053	1171.679
152.746	18.775	1524.232	1170.777
153.760	18.785	1522.665	1169.537
154.775	18.895	1521.599	1169.365
155.789	18.859	1520.790	1168.395
156.804	18.953	1519.412	1167.873
157.819	19.018	1518.258	1167.322
158.833	18.982	1517.496	1166.389
159.848	19.120	1516.255	1166.268
160.862	19.232	1515.221	1166.131
161.877	19.348	1513.812	1165.724
162.892	19.114	1512.626	1163.131
163.906	18.946	1511.092	1160.713
164.921	18.789	1509.751	1158.516
165.935	18.755	1508.350	1157.112
166.950	18.863	1507.545	1157.120
167.964	18.944	1506.665	1156.885
168.979	18.989	1505.909	1156.510
169.994	18.946	1504.272	1154.857
171.008	18.880	1503.541	1153.754
172.023	18.927	1502.676	1153.302
173.037	18.975	1501.495	1152.614
174.052	19.046	1500.890	1152.526
175.067	19.232	1499.208	1152.376
176.081	19.102	1498.039	1150.507
177.096	18.862	1496.723	1147.790
178.110	18.832	1495.221	1146.333
179.125	18.815	1494.232	1145.360
180.140	18.887	1493.388	1145.091
181.154	18.942	1492.286	1144.513
182.169	19.045	1490.993	1144.105
183.183	19.205	1489.524	1143.941
184.198	19.220	1488.879	1143.446
185.213	19.319	1488.007	1143.330
186.227	19.280	1487.255	1142.394
187.242	19.233	1486.247	1141.202
188.256	19.295	1485.491	1140.934
189.271	19.426	1484.252	1140.749
190.286	19.413	1483.076	1139.657
191.300	19.343	1482.211	1138.428
192.315	19.092	1480.168	1135.106
193.329	18.792	1478.884	1132.040
194.344	18.795	1477.645	1131.015
195.359	18.797	1476.990	1130.425
196.373	18.933	1475.698	1130.233
197.388	19.088	1474.936	1130.567
198.402	19.136	1474.104	1130.146
199.417	19.314	1473.373	1130.650
200.432	19.480	1472.338	1130.842
201.446	19.569	1471.859	1130.957
202.461	19.663	1470.808	1130.666
203.475	19.727	1469.630	1130.081
204.490	19.759	1468.911	1129.634
205.504	19.696	1467.388	1127.956
206.519	19.484	1465.711	1125.183
207.534	19.434	1464.585	1123.891
208.548	19.459	1463.206	1122.895
209.563	19.363	1462.621	1121.728
210.577	19.447	1461.648	1121.428
211.592	19.415	1460.891	1120.539
212.607	19.492	1460.171	1120.386
213.621	19.487	1459.992	1120.116
214.636	19.615	1459.292	1120.311
215.650	19.651	1457.741	1119.256
216.665	19.541	1456.836	1117.748
217.680	19.669	1456.140	1117.945
218.694	19.751	1455.768	1118.090
219.709	19.807	1455.234	1117.941
220.723	19.889	1453.559	1117.088
221.738	19.731	1452.606	1115.236
222.753	19.766	1451.737	1114.698
223.767	19.662	1451.124	1113.456
224.782	19.734	1449.660	1112.700
225.796	19.767	1448.768	1112.126
226.811	19.766	1448.809	1112.051
227.826	19.874	1447.920	1111.969
228.840	19.914	1446.403	1110.962
229.855	19.748	1445.222	1108.888
230.869	19.731	1444.238	1107.928
231.884	19.709	1443.595	1107.198
232.899	19.689	1442.076	1105.807
233.913	19.554	1441.161	1104.142
234.928	19.461	1440.370	1102.841
235.942	19.445	1438.808	1101.451
236.957	19.528	1437.125	1100.591
237.972	19.460	1436.018	1099.211
238.986	19.433	1435.033	1098.190
240.001	19.430	1434.531	1097.692
241.015	19.489	1433.028	1096.815
242.030	19.623	1432.103	1096.866
243.045	19.639	1431.184	1096.161
244.059	19.676	1430.587	1095.842
245.074	19.818	1429.752	1096.011
246.088	19.738	1429.223	1094.996
247.103	19.857	1428.240	1094.902
248.117	19.804	1427.972	1094.264
249.132	20.014	1426.833	1094.622
250.147	20.177	1426.420	1095.238
251.161	20.382	1425.536	1095.756
252.176	20.511	1425.260	1096.263
253.190	20.569	1424.893	1096.248
254.205	20.598	1423.645	1095.371
255.220	20.633	1423.178	1095.133
256.234	20.654	1422.273	1094.476
257.249	20.554	1421.602	1093.231
258.263	20.472	1420.993	1092.155
259.278	20.570	1419.759	1091.722
260.293	20.542	1418.729	1090.659
261.307	20.457	1418.037	1089.496
262.322	20.676	1417.019	1089.989
263.336	20.670	1416.325	1089.325
264.351	20.710	1415.145	1088.568
265.366	20.749	1414.308	1088.073
266.380	20.749	1413.234	1087.150
267.395	20.796	1412.859	1087.061
268.409	20.713	1411.926	1085.726
269.424	20.650	1410.576	1084.200
270.439	20.657	1409.339	1083.195
271.453	20.621	1408.406	1082.162
272.468	20.643	1407.346	1081.387
273.482	20.485	1406.960	1080.013
274.497	20.423	1405.938	1078.746
275.512	20.484	1404.777	1078.137
276.526	20.468	1403.746	1077.155
277.541	20.396	1402.946	1075.997
278.555	20.428	1402.523	1075.776
279.570	20.485	1401.684	1075.388
280.585	20.641	1400.220	1075.139
281.599	20.711	1399.992	1075.299
282.614	20.880	1398.745	1075.292
283.628	20.716	1398.122	1073.707
284.643	20.672	1396.767	1072.295
285.657	20.495	1395.632	1070.244
286.672	20.509	1394.793	1069.588
287.687	20.569	1393.964	1069.227
288.701	20.616	1392.702	1068.452
289.716	20.710	1391.830	1068.269
290.730	20.649	1391.695	1067.697
291.745	20.616	1390.218	1066.268
292.760	20.690	1389.152	1065.809
293.774	20.764	1388.213	1065.442
294.789	20.616	1387.898	1064.204
295.803	20.832	1386.930	1064.687
296.818	20.964	1386.150	1064.802
297.833	20.870	1384.569	1062.916
298.847	20.807	1383.477	1061.599
299.862	20.729	1382.720	1060.453
300.876	20.763	1381.718	1059.799
301.891	20.752	1381.262	1059.286
302.906	20.841	1380.097	1058.841
303.920	20.908	1379.686	1058.840
304.935	21.046	1378.753	1058.865
305.949	21.076	1378.277	1058.592
306.964	21.118	1378.048	1058.575
307.979	21.207	1376.752	1058.026
308.993	21.232	1375.632	1057.224
310.008	21.056	1374.907	1055.507
311.022	21.001	1374.234	1054.560
312.037	21.108	1372.930	1054.114
313.052	21.200	1371.876	1053.769
314.066	21.065	1370.937	1052.138
315.081	21.001	1369.563	1050.607
316.095	20.868	1368.566	1048.945
317.110	20.818	1367.398	1047.660
318.125	20.733	1366.409	1046.298
319.139	20.751	1365.842	1045.879
320.154	20.873	1364.463	1045.462
321.168	20.808	1363.476	1044.225
322.183	20.787	1363.103	1043.721
323.197	20.821	1361.377	1042.509
324.212	20.870	1360.546	1042.072
325.227	20.985	1359.988	1042.244
326.241	21.003	1358.960	1041.467
327.256	21.004	1358.417	1040.970
328.270	21.034	1357.290	1040.193
329.285	21.026	1356.731	1039.623
330.300	20.960	1355.730	1038.370
331.314	20.995	1354.369	1037.441
332.329	20.943	1354.033	1036.785
333.343	20.985	1352.832	1036.024
334.358	20.949	1352.454	1035.428
335.373	21.071	1351.565	1035.380
336.387	21.295	1350.550	1035.842
337.402	21.207	1350.441	1035.140
338.416	21.248	1349.664	1034.697
339.431	21.257	1349.132	1034.252
340.446	21.369	1348.609	1034.420
341.460	21.407	1347.547	1033.741
342.475	21.437	1347.085	1033.473
343.489	21.621	1345.843	1033.517
344.504	21.675	1345.111	1033.182
345.519	21.696	1343.885	1032.272
346.533	21.744	1343.134	1031.884
347.548	21.697	1342.420	1030.970
348.562	21.735	1341.662	1030.517
349.577	21.889	1340.529	1030.462
350.592	21.758	1339.869	1029.094
351.606	21.485	1338.819	1026.594
352.621	21.419	1337.307	1024.955
353.635	21.338	1336.294	1023.618
354.650	21.289	1335.071	1022.301
355.665	21.345	1334.242	1021.905
356.679	21.314	1333.692	1021.209
357.694	21.475	1332.263	1020.967
358.708	21.481	1331.545	1020.364
359.723	21.465	1330.580	1019.436
360.738	21.612	1329.703	1019.531
361.752	21.623	1328.241	1018.387
362.767	21.613	1327.373	1017.572
363.781	21.528	1326.476	1016.301
364.796	21.653	1325.331	1016.057
365.810	21.629	1325.350	1015.841
366.825	21.754	1324.781	1016.041
367.840	21.875	1324.030	1016.074
368.854	22.002	1323.438	1016.267
369.869	22.101	1323.138	1016.518
370.883	22.129	1322.344	1015.983
371.898	22.039	1321.279	1014.553
372.913	22.001	1320.071	1013.316
373.927	21.832	1319.560	1011.859
374.942	21.878	1318.704	1011.382
375.956	22.110	1317.764	1011.908
376.971	22.132	1317.240	1011.540
377.986	22.109	1316.230	1010.541
379.000	22.019	1315.399	1009.297
380.015	22.156	1314.777	1009.518
381.029	22.194	1314.302	1009.285
382.044	22.241	1313.651	1008.966
383.059	22.262	1313.073	1008.549
384.073	22.282	1312.299	1007.985
385.088	22.204	1311.723	1007.005
386.102	22.267	1310.926	1006.665
387.117	22.266	1310.709	1006.403
388.132	22.170	1309.647	1004.951
389.146	22.069	1308.231	1003.196
390.161	22.006	1307.058	1001.846
391.175	21.973	1306.168	1000.889
392.190	21.915	1305.836	1000.218
393.205	21.925	1305.110	999.627
394.219	22.166	1304.085	1000.128
395.234	22.231	1302.899	999.498
396.248	22.308	1301.341	998.651
397.263	22.130	1299.943	996.479
398.278	22.020	1299.248	995.238
399.292	22.038	1297.543	993.941
400.307	21.917	1296.620	992.463
401.321	21.834	1295.740	991.233
402.336	21.930	1294.421	990.679
403.350	21.884	1293.327	989.496
404.365	21.899	1292.702	989.013
405.380	21.974	1291.371	988.332
406.394	21.979	1291.099	988.064
407.409	22.059	1290.643	988.078
408.423	22.183	1289.622	987.903
409.438	22.281	1289.343	988.153
410.453	22.328	1288.870	987.970
411.467	22.452	1288.165	988.033
412.482	22.544	1287.404	987.880
413.496	22.487	1287.264	987.368
414.511	22.652	1285.841	987.112
415.526	22.593	1285.634	986.537
416.540	22.760	1284.820	986.757
417.555	22.725	1284.071	985.900
418.569	22.723	1283.720	985.528
419.584	22.676	1282.903	984.552
420.599	22.596	1282.553	983.750
421.613	144.101	1430.941	1788.913
422.628	138.969	1452.536	1789.053
