DTS Sentinel unit serial number:	SN413079Multiplexer serial number:	ORYXHardware model number:	OX4-SRSoftware version number:	ORYX F/W v4.00 Oryx Data Collector v3.7.2.0data status	okinstallation	princeton_trtdifferential loss correction	single-endedforward channel	channel 4reverse channel	N/Adate	2019/09/15time	17:09:35forward acquisition time	60.00reverse acquisition time	0.00gamma	496.2192k internal	0.2275k external	0.2275temperature offset calibration	0.9930default loss term (dB/km)	0.3790temperature slope calibration	1.0000multiplexer offset coefficient	1.0000multiplexer slope coefficient	1.0000fibre end	0.00T internal ref (°C)	44.62T ext. ref 1 (°C)	5.96T ext. ref 2 (°C)	40.62length (m)	temperature (°C)	Stokes	anti-Stokes-747.200	-200.000	0.022	-0.111
-746.185	392.806	-0.116	0.249
-745.171	-74.156	-0.118	0.044
-744.156	-200.000	0.058	0.312
-743.142	7.261	0.299	0.230
-742.127	-79.383	0.173	0.060
-741.112	63.412	0.271	-0.280
-740.098	57.255	-0.263	0.265
-739.083	-142.219	-0.308	0.031
-738.069	-152.479	0.095	-0.007
-737.054	-194.072	0.171	-0.001
-736.039	-200.000	-0.033	0.216
-735.025	-41.197	0.398	0.212
-734.010	-200.000	-0.005	-0.194
-732.996	-200.000	-0.068	-0.587
-731.981	147.653	-0.053	-0.074
-730.966	-65.252	-0.074	0.031
-729.952	58.432	-0.133	-0.135
-728.937	-94.817	0.129	0.036
-727.923	81.173	0.078	0.087
-726.908	-200.000	0.014	-0.104
-725.894	32.768	-0.272	-0.243
-724.879	-175.959	0.264	-0.007
-723.864	-124.131	-0.248	-0.040
-722.850	-13.010	-0.226	-0.151
-721.835	800.000	-0.033	0.123
-720.821	-171.453	-0.169	0.006
-719.806	-9.388	0.178	-0.123
-718.791	-200.000	-0.007	-0.165
-717.777	85.075	-0.254	-0.286
-716.762	54.266	-0.181	-0.179
-715.748	84.060	-0.256	-0.288
-714.733	-200.000	0.019	-0.339
-713.718	25.309	-0.112	0.096
-712.704	-112.550	-0.305	0.063
-711.689	-4.065	0.191	0.136
-710.675	800.000	-0.066	0.224
-709.660	-20.625	-0.064	0.040
-708.645	-200.000	0.017	-0.118
-707.631	-109.355	-0.386	0.084
-706.616	800.000	0.098	-0.364
-705.602	727.187	-0.145	0.397
-704.587	-200.000	0.033	0.404
-703.572	-105.227	-0.321	0.075
-702.558	228.008	-0.087	-0.145
-701.543	30.986	0.017	-0.015
-700.529	774.312	0.064	-0.179
-699.514	-200.000	-0.034	0.158
-698.499	800.000	0.015	0.064
-697.485	426.871	0.074	-0.164
-696.470	-100.206	0.010	0.003
-695.456	8.807	-0.105	-0.082
-694.441	800.000	0.016	-0.054
-693.426	-51.884	0.199	-0.095
-692.412	217.158	-0.096	0.157
-691.397	-156.526	-0.221	0.014
-690.383	-109.952	-0.162	-0.035
-689.368	-200.000	0.006	0.230
-688.354	20.483	0.386	0.321
-687.339	-0.385	-0.037	-0.027
-686.324	-19.527	-0.218	-0.139
-685.310	800.000	0.048	-0.142
-684.295	800.000	0.066	-0.214
-683.281	-134.297	-0.063	0.008
-682.266	643.758	-0.072	0.189
-681.251	41.149	0.123	0.114
-680.237	-137.482	0.037	-0.004
-679.222	-200.000	-0.025	0.262
-678.208	337.739	-0.061	0.122
-677.193	800.000	0.043	0.125
-676.178	173.894	0.204	-0.304
-675.164	-200.000	-0.011	-0.167
-674.149	-200.000	0.026	-0.295
-673.135	-127.803	0.243	-0.036
-672.120	40.925	0.159	-0.148
-671.105	-43.914	-0.037	-0.019
-670.091	-200.000	-0.023	0.262
-669.076	-176.972	-0.392	0.010
-668.062	800.000	0.056	0.161
-667.047	-41.813	-0.361	0.190
-666.032	-89.934	-0.090	-0.027
-665.018	-45.169	0.231	0.118
-664.003	-181.951	0.107	0.002
-662.989	-98.179	0.305	0.081
-661.974	173.668	-0.112	0.166
-660.959	148.265	0.230	-0.319
-659.945	309.309	-0.140	-0.268
-658.930	119.329	0.229	0.292
-657.916	72.760	0.099	-0.106
-656.901	96.778	-0.302	0.356
-655.886	-87.783	-0.131	0.040
-654.872	-26.940	-0.106	-0.063
-653.857	48.961	-0.174	-0.167
-652.843	-128.979	0.051	0.007
-651.828	93.286	0.136	-0.158
-650.814	91.629	-0.118	-0.136
-649.799	-141.718	0.035	0.004
-648.784	3.832	0.252	-0.189
-647.770	-200.000	0.004	0.084
-646.755	154.913	-0.096	-0.136
-645.741	45.109	0.086	0.081
-644.726	526.656	0.019	0.046
-643.711	-25.465	0.167	-0.101
-642.697	-54.767	0.110	0.051
-641.682	-15.649	0.275	-0.180
-640.668	800.000	-0.123	0.396
-639.653	800.000	0.093	-0.267
-638.638	-182.699	-0.457	-0.009
-637.624	-88.643	0.174	0.053
-636.609	33.265	0.168	0.149
-635.595	254.603	-0.196	0.344
-634.580	75.067	-0.136	0.147
-633.565	26.882	0.166	-0.143
-632.551	-7.322	0.211	-0.146
-631.536	443.928	-0.085	0.191
-630.522	-65.108	-0.151	-0.063
-629.507	77.795	-0.122	0.133
-628.492	800.000	0.042	-0.146
-627.478	-57.755	-0.107	-0.048
-626.463	-1.917	-0.288	0.208
-625.449	-32.626	0.172	0.098
-624.434	-149.746	-0.069	0.006
-623.419	-106.430	-0.276	-0.063
-622.405	118.221	0.140	-0.177
-621.390	58.839	0.080	-0.081
-620.376	800.000	0.130	-0.522
-619.361	-200.000	-0.043	0.215
-618.346	-36.024	-0.155	0.086
-617.332	-116.830	-0.162	0.030
-616.317	168.154	-0.084	0.123
-615.303	143.344	0.123	0.168
-614.288	-140.015	-0.231	-0.025
-613.273	-82.292	-0.204	-0.068
-612.259	-106.654	-0.109	0.025
-611.244	229.359	0.107	-0.179
-610.230	-200.000	0.016	-0.138
-609.215	800.000	0.072	0.210
-608.201	-49.268	0.462	0.226
-607.186	-164.147	0.103	-0.005
-606.171	8.602	-0.073	-0.056
-605.157	-200.000	0.021	0.242
-604.142	-94.764	-0.432	-0.120
-603.128	-36.571	-0.114	0.063
-602.113	-180.595	0.488	0.010
-601.098	-151.250	0.249	-0.019
-600.084	21.361	0.086	-0.071
-599.069	-124.513	-0.123	-0.020
-598.055	554.686	0.117	-0.289
-597.040	-68.474	0.017	0.007
-596.025	347.930	0.050	0.102
-595.011	-87.000	-0.108	0.034
-593.996	192.991	-0.094	-0.146
-592.982	110.982	0.135	-0.167
-591.967	800.000	0.050	-0.216
-590.952	-200.000	0.005	-0.136
-589.938	-19.883	0.143	-0.091
-588.923	206.120	-0.086	-0.137
-587.909	-147.129	-0.395	-0.035
-586.894	-29.977	0.178	0.104
-585.879	-25.906	-0.194	-0.117
-584.865	-200.000	-0.003	0.316
-583.850	-86.452	-0.295	0.093
-582.836	665.804	0.043	0.113
-581.821	-146.271	0.253	0.023
-580.806	-53.942	-0.170	-0.080
-579.792	6.374	0.081	-0.062
-578.777	800.000	-0.021	0.071
-577.763	237.449	-0.140	0.237
-576.748	-64.375	0.123	0.051
-575.733	174.184	0.176	0.260
-574.719	181.269	-0.103	-0.155
-573.704	115.458	0.250	-0.313
-572.690	18.155	0.129	-0.105
-571.675	286.333	-0.031	0.058
-570.661	-48.311	0.299	0.148
-569.646	357.325	0.080	0.163
-568.631	-200.000	0.048	0.228
-567.617	766.443	0.053	-0.147
-566.602	-38.357	-0.422	0.229
-565.588	-34.854	-0.172	0.096
-564.573	244.092	0.145	-0.249
-563.558	800.000	-0.032	-0.131
-562.544	-93.146	-0.109	-0.031
-561.529	-12.655	-0.086	0.058
-560.515	-138.174	0.262	0.030
-559.500	55.427	0.345	0.342
-558.485	221.978	0.099	-0.163
-557.471	-46.148	-0.122	0.062
-556.456	-200.000	-0.029	0.232
-555.442	-30.562	-0.040	0.023
-554.427	13.075	0.201	-0.159
-553.412	454.122	-0.074	-0.167
-552.398	-200.000	-0.017	-0.094
-551.383	-14.465	0.247	0.163
-550.369	49.421	-0.193	-0.186
-549.354	-22.991	-0.040	0.025
-548.339	211.598	0.087	-0.140
-547.325	-200.000	0.010	-0.282
-546.310	98.876	-0.296	-0.350
-545.296	137.019	-0.209	-0.279
-544.281	24.408	-0.222	-0.187
-543.266	423.834	-0.026	-0.057
-542.252	27.342	-0.118	0.102
-541.237	28.757	0.166	0.144
-540.223	-158.366	-0.132	-0.008
-539.208	800.000	0.066	0.211
-538.193	481.059	-0.210	-0.486
-537.179	-200.000	0.027	-0.130
-536.164	-45.412	-0.089	-0.045
-535.150	-90.729	-0.187	0.055
-534.135	152.298	-0.108	0.151
-533.121	-117.905	0.138	-0.025
-532.106	-200.000	-0.015	-0.224
-531.091	81.609	0.236	-0.261
-530.077	341.972	0.068	0.136
-529.062	98.625	0.134	0.158
-528.048	-83.198	-0.209	-0.069
-527.033	-151.779	0.498	-0.037
-526.018	-200.000	-0.039	0.226
-525.004	-144.025	-0.313	0.030
-523.989	-77.114	-0.258	-0.092
-522.975	-163.550	-0.326	0.016
-521.960	800.000	-0.107	-0.436
-520.945	-78.806	-0.366	0.128
-519.931	289.077	0.058	-0.107
-518.916	-15.936	0.173	-0.113
-517.902	105.445	-0.119	0.143
-516.887	-143.653	-0.214	-0.021
-515.872	-43.626	-0.169	0.087
-514.858	42.538	-0.228	0.212
-513.843	172.731	0.190	0.280
-512.829	147.573	0.075	0.103
-511.814	800.000	-0.004	0.018
-510.799	398.976	-0.030	0.063
-509.785	24.867	0.211	0.179
-508.770	432.541	0.037	-0.082
-507.756	231.609	-0.096	0.160
-506.741	-56.828	-0.233	-0.105
-505.726	91.770	0.309	-0.356
-504.712	-83.648	0.151	0.049
-503.697	800.000	-0.062	0.223
-502.683	-177.068	-0.177	0.005
-501.668	544.549	0.129	-0.315
-500.653	-61.828	0.269	0.115
-499.639	-200.000	0.037	0.223
-498.624	118.614	0.035	0.044
-497.610	20.931	-0.074	0.061
-496.595	136.220	-0.177	-0.235
-495.581	-100.693	0.188	0.047
-494.566	-200.000	-0.028	-0.238
-493.551	-200.000	-0.038	-0.205
-492.537	66.080	0.309	-0.320
-491.522	-138.999	0.290	-0.032
-490.508	-27.963	-0.240	-0.142
-489.493	800.000	0.072	-0.274
-488.478	800.000	0.058	-0.219
-487.464	229.416	0.120	0.200
-486.449	-18.759	-0.204	-0.130
-485.435	800.000	0.049	-0.160
-484.420	16.619	0.037	0.030
-483.405	106.925	-0.171	0.207
-482.391	210.910	0.076	0.121
-481.376	56.360	-0.134	-0.133
-480.362	52.970	0.071	-0.070
-479.347	366.451	0.204	0.421
-478.332	-200.000	-0.047	0.299
-477.318	-94.479	-0.124	-0.035
-476.303	-102.598	-0.380	0.093
-475.289	-77.330	0.100	-0.036
-474.274	-99.683	-0.085	-0.022
-473.259	-122.754	0.061	0.010
-472.245	407.971	0.119	-0.257
-471.230	133.142	0.045	-0.059
-470.216	8.434	0.226	-0.174
-469.201	-70.143	-0.126	0.049
-468.186	-200.000	-0.016	-0.113
-467.172	-130.090	-0.357	-0.050
-466.157	-179.798	-0.172	-0.004
-465.143	120.319	-0.103	0.130
-464.128	393.420	0.144	-0.307
-463.113	-200.000	-0.167	0.001
-462.099	-58.875	0.191	0.084
-461.084	108.491	0.184	-0.224
-460.070	363.215	0.082	-0.167
-459.055	274.049	-0.108	-0.194
-458.040	-77.166	-0.034	0.012
-457.026	-19.759	-0.503	0.317
-456.011	486.234	0.048	0.110
-454.997	-90.380	0.151	0.045
-453.982	800.000	-0.018	-0.063
-452.968	-144.837	0.187	-0.017
-451.953	-20.588	0.163	0.102
-450.938	800.000	-0.014	0.057
-449.924	47.285	-0.032	0.030
-448.909	-101.169	0.223	0.056
-447.895	-113.897	0.082	-0.016
-446.880	-200.000	0.031	0.234
-445.865	-2.580	0.349	-0.249
-444.851	-12.809	0.179	0.119
-443.836	79.747	-0.071	-0.077
-442.822	93.769	0.225	-0.260
-441.807	-200.000	-0.022	-0.142
-440.792	-38.373	0.064	0.035
-439.778	-124.735	0.161	0.025
-438.763	-78.821	-0.289	0.100
-437.749	94.263	0.222	0.257
-436.734	-200.000	-0.003	0.100
-435.719	-63.201	0.328	0.138
-434.705	180.376	0.143	0.213
-433.690	-22.157	-0.165	0.102
-432.676	159.219	-0.050	-0.071
-431.661	-129.162	0.173	0.025
-430.646	215.736	0.169	0.274
-429.632	800.000	0.036	-0.151
-428.617	800.000	-0.149	0.502
-427.603	359.918	-0.023	0.047
-426.588	-200.000	-0.036	-0.360
-425.573	-39.494	0.135	0.072
-424.559	-200.000	0.008	0.178
-423.544	-24.315	0.092	-0.056
-422.530	-93.672	-0.170	-0.048
-421.515	143.827	0.063	0.085
-420.500	-200.000	-0.009	-0.299
-419.486	-111.942	-0.122	0.025
-418.471	173.049	0.122	0.179
-417.457	-8.623	-0.093	-0.063
-416.442	800.000	0.032	0.092
-415.428	-200.000	-0.012	-0.155
-414.413	150.417	-0.119	-0.165
-413.398	542.639	0.093	0.226
-412.384	721.495	-0.101	0.274
-411.369	-8.582	-0.252	-0.173
-410.355	96.885	0.181	-0.211
-409.340	-95.303	-0.128	-0.035
-408.325	-93.664	0.187	0.053
-407.311	800.000	0.027	0.083
-406.296	-200.000	-0.008	-0.197
-405.282	-149.138	0.322	-0.026
-404.267	47.577	-0.198	0.188
-403.252	-103.016	0.255	-0.062
-402.238	206.905	-0.207	-0.329
-401.223	445.450	-0.042	0.093
-400.209	800.000	-0.031	-0.108
-399.194	180.671	0.122	0.182
-398.179	-200.000	-0.060	0.282
-397.165	-95.102	-0.226	-0.062
-396.150	57.288	-0.081	0.080
-395.136	-35.290	-0.069	0.038
-394.121	89.120	0.009	0.010
-393.106	-94.698	-0.247	-0.068
-392.092	321.022	0.016	-0.031
-391.077	146.591	-0.128	-0.175
-390.063	581.468	0.090	-0.225
-389.048	-31.884	0.213	-0.122
-388.033	-134.937	-0.206	0.025
-387.019	475.045	0.127	-0.292
-386.004	254.484	-0.108	-0.187
-384.990	23.081	0.236	0.197
-383.975	195.318	-0.077	-0.119
-382.960	-118.391	0.539	-0.097
-381.946	211.095	0.190	-0.303
-380.931	-116.906	-0.078	-0.015
-379.917	-200.000	0.001	0.148
-378.902	-46.391	0.211	0.105
-377.888	-109.297	-0.164	-0.035
-376.873	800.000	-0.077	0.285
-375.858	800.000	0.101	-0.289
-374.844	-123.057	-0.311	-0.051
-373.829	-115.040	0.220	0.042
-372.815	800.000	-0.020	-0.066
-371.800	-47.115	-0.358	-0.177
-370.785	-88.160	-0.186	-0.057
-369.771	97.857	-0.119	-0.139
-368.756	800.000	-0.080	0.245
-367.742	73.653	-0.091	-0.097
-366.727	-13.473	-0.344	0.227
-365.712	83.184	-0.107	-0.119
-364.698	23.303	-0.226	0.189
-363.683	106.031	0.269	0.323
-362.669	-26.503	0.115	-0.069
-361.654	124.829	-0.159	0.204
-360.639	-94.907	-0.119	0.033
-359.625	800.000	0.111	0.331
-358.610	800.000	0.050	-0.145
-357.596	59.879	0.146	0.146
-356.581	-140.285	0.372	0.039
-355.566	-128.491	-0.239	0.034
-354.552	-5.089	0.169	-0.118
-353.537	36.740	0.165	-0.148
-352.523	365.796	-0.075	-0.154
-351.508	24.643	-0.166	0.139
-350.493	-158.205	0.101	-0.006
-349.479	800.000	-0.047	0.165
-348.464	-72.331	0.297	0.112
-347.450	29.542	-0.065	-0.056
-346.435	-200.000	-0.004	-0.105
-345.420	-200.000	-0.020	-0.118
-344.406	445.777	0.090	-0.202
-343.391	105.242	-0.330	-0.396
-342.377	-15.989	0.260	-0.168
-341.362	709.024	-0.039	0.105
-340.348	-12.481	-0.144	0.096
-339.333	-42.182	-0.069	-0.036
-338.318	149.108	-0.131	-0.180
-337.304	-107.535	-0.153	0.034
-336.289	-55.629	-0.158	-0.072
-335.275	-41.661	0.261	0.136
-334.260	-8.946	-0.086	-0.058
-333.245	411.053	0.174	-0.374
-332.231	-77.649	0.137	0.048
-331.216	139.749	0.074	-0.099
-330.202	800.000	-0.101	0.344
-329.187	152.960	-0.213	-0.295
-328.172	223.639	-0.159	0.260
-327.158	-200.000	0.029	-0.154
-326.143	-164.693	0.241	-0.011
-325.129	85.580	0.131	-0.147
-324.114	-58.068	0.117	-0.052
-323.099	65.031	-0.139	0.142
-322.085	-99.242	0.173	-0.044
-321.070	71.207	0.228	0.240
-320.056	-200.000	0.008	0.340
-319.041	286.589	-0.062	-0.113
-318.026	93.367	-0.142	0.163
-317.012	-97.938	0.400	-0.105
-315.997	42.483	0.125	0.115
-314.983	76.816	0.139	-0.150
-313.968	-200.000	-0.048	-0.357
-312.953	800.000	-0.113	0.364
-311.939	21.464	-0.109	-0.090
-310.924	800.000	-0.109	-0.417
-309.910	132.731	-0.165	-0.216
-308.895	196.714	-0.260	-0.402
-307.880	-138.550	0.283	-0.031
-306.866	800.000	-0.075	0.227
-305.851	-73.916	-0.199	0.073
-304.837	-81.442	0.167	-0.056
-303.822	-3.257	0.038	-0.027
-302.807	-200.000	-0.018	0.085
-301.793	-98.172	-0.245	0.064
-300.778	-200.000	-0.041	-0.327
-299.764	-200.000	-0.066	-0.366
-298.749	-110.802	0.204	0.043
-297.735	-200.000	0.006	-0.050
-296.720	294.369	0.124	0.230
-295.705	42.351	-0.220	-0.202
-294.691	80.763	0.075	-0.082
-293.676	52.793	0.086	0.084
-292.662	532.988	0.074	-0.177
-291.647	5.179	0.173	0.129
-290.632	156.451	0.075	0.105
-289.618	-27.794	-0.399	-0.234
-288.603	-200.000	0.033	-0.000
-287.589	21.954	-0.232	0.192
-286.574	-60.201	0.400	-0.173
-285.559	800.000	0.065	0.188
-284.545	-171.240	0.366	0.012
-283.530	-152.479	-0.284	-0.021
-282.516	65.017	0.155	0.158
-281.501	109.084	-0.151	-0.183
-280.486	-59.360	0.140	-0.061
-279.472	-162.281	-0.383	0.019
-278.457	77.394	-0.092	-0.099
-277.443	246.755	-0.251	0.428
-276.428	440.807	0.100	0.221
-275.413	205.495	-0.048	0.075
-274.399	66.167	0.176	0.181
-273.384	163.610	0.070	-0.099
-272.370	-200.000	0.032	0.217
-271.355	-55.999	0.248	-0.112
-270.340	-20.054	0.033	0.021
-269.326	39.111	-0.272	-0.246
-268.311	-200.000	0.001	0.146
-267.297	800.000	0.028	-0.106
-266.282	-34.083	-0.437	-0.243
-265.267	800.000	-0.134	0.504
-264.253	228.248	-0.281	0.463
-263.238	215.137	0.240	0.385
-262.224	-72.952	-0.418	0.156
-261.209	-200.000	0.062	-0.470
-260.195	-200.000	0.024	0.152
-259.180	99.120	-0.163	0.191
-258.165	-200.000	0.034	-0.248
-257.151	-200.000	-0.038	0.234
-256.136	-82.860	-0.169	0.055
-255.122	26.890	-0.112	-0.095
-254.107	154.914	0.037	0.052
-253.092	266.295	-0.209	0.368
-252.078	-38.038	0.430	0.231
-251.063	652.380	-0.078	0.203
-250.049	234.915	0.046	0.077
-249.034	-200.000	-0.064	-0.332
-248.019	-200.000	-0.041	-0.289
-247.005	-44.919	0.288	-0.145
-245.990	800.000	0.025	0.075
-244.976	-135.130	-0.370	-0.045
-243.961	800.000	-0.087	0.307
-242.946	-200.000	0.013	0.249
-241.932	-17.662	0.047	0.030
-240.917	-200.000	-0.022	0.186
-239.903	-200.000	0.044	0.275
-238.888	-43.272	-0.037	0.019
-237.873	-31.344	-0.117	0.067
-236.859	379.665	-0.101	0.210
-235.844	760.351	-0.106	-0.292
-234.830	800.000	-0.042	0.185
-233.815	354.221	-0.091	0.184
-232.800	190.423	-0.032	0.049
-231.786	34.398	0.255	-0.225
-230.771	-25.859	0.088	0.052
-229.757	176.172	0.046	0.067
-228.742	-200.000	-0.023	-0.176
-227.727	233.688	-0.055	0.092
-226.713	300.259	-0.130	-0.242
-225.698	-115.688	0.173	0.033
-224.684	-180.485	-0.216	-0.005
-223.669	631.976	-0.118	0.303
-222.655	-151.124	0.358	0.027
-221.640	59.006	-0.150	-0.149
-220.625	-121.480	-0.309	-0.052
-219.611	-200.000	-0.013	0.062
-218.596	37.951	-0.206	0.185
-217.582	-197.531	0.115	-0.001
-216.567	-14.695	0.090	-0.058
-215.552	-192.636	-0.273	0.003
-214.538	23.577	-0.181	-0.150
-213.523	-200.000	0.016	0.183
-212.509	-200.000	0.026	0.347
-211.494	-80.976	-0.359	-0.120
-210.479	38.901	-0.139	-0.126
-209.465	-129.986	-0.331	-0.046
-208.450	-200.000	-0.008	-0.111
-207.436	-68.805	0.028	0.011
-206.421	-200.000	-0.013	0.129
-205.406	-200.000	-0.022	-0.130
-204.392	607.406	0.054	0.137
-203.377	98.858	-0.112	0.131
-202.363	50.934	0.128	0.122
-201.348	-119.487	-0.277	-0.049
-200.333	-81.771	0.109	-0.036
-199.319	-132.312	0.298	-0.039
-198.304	130.881	0.075	-0.097
-197.290	-146.889	0.063	-0.005
-196.275	260.077	0.087	0.152
-195.260	205.077	-0.052	-0.081
-194.246	316.640	-0.097	0.185
-193.231	-200.000	0.014	0.213
-192.217	23.038	-0.086	0.071
-191.202	-200.000	-0.009	-0.145
-190.187	498.522	0.054	-0.126
-189.173	188.882	0.222	0.336
-188.158	-38.830	-0.127	0.068
-187.144	95.889	0.110	0.127
-186.129	-153.908	0.261	0.018
-185.114	-19.894	0.096	-0.060
-184.100	46.496	0.114	0.107
-183.085	-200.000	0.024	0.240
-182.071	249.978	-0.058	0.099
-181.056	113.065	-0.175	-0.214
-180.042	-26.862	0.221	-0.130
-179.027	-200.000	-0.058	-0.358
-178.012	-161.620	0.601	-0.031
-176.998	-33.680	0.364	-0.203
-175.983	138.304	0.104	-0.138
-174.969	-200.000	0.041	-0.182
-173.954	669.445	-0.104	0.271
-172.939	-15.344	-0.069	0.044
-171.925	104.013	0.131	0.155
-170.910	356.163	-0.180	0.361
-169.896	-121.593	-0.039	0.006
-168.881	-42.352	0.259	0.133
-167.866	105.498	0.037	0.044
-166.852	-200.000	-0.005	-0.035
-165.837	-200.000	0.033	-0.165
-164.823	800.000	0.134	-0.513
-163.808	-200.000	-0.007	-0.073
-162.793	20.245	0.150	-0.122
-161.779	19.262	-0.117	-0.095
-160.764	-200.000	0.017	-0.231
-159.750	800.000	0.026	0.077
-158.735	-67.666	0.073	-0.029
-157.720	-50.764	0.463	-0.220
-156.706	-147.721	-0.230	0.019
-155.691	800.000	-0.041	0.145
-154.677	10.400	0.210	0.161
-153.662	148.577	-0.066	0.089
-152.647	207.275	0.030	0.047
-151.633	509.157	0.130	0.305
-150.618	800.000	0.041	-0.131
-149.604	-3.014	0.064	0.045
-148.589	800.000	0.040	0.132
-147.574	3.190	-0.291	-0.213
-146.560	-148.916	0.161	0.013
-145.545	6.349	-0.193	-0.144
-144.531	186.805	0.052	-0.078
-143.516	8.392	-0.070	0.053
-142.502	-200.000	-0.024	0.272
-141.487	100.598	0.175	-0.205
-140.472	-46.924	-0.149	0.074
-139.458	-133.765	-0.441	0.055
-138.443	58.200	-0.251	0.247
-137.429	-200.000	0.017	-0.404
-136.414	-52.899	-0.152	-0.070
-135.399	408.627	-0.119	0.253
-134.385	-200.000	-0.030	0.289
-133.370	-200.000	0.025	0.273
-132.356	40.707	0.083	0.076
-131.341	134.042	-0.044	-0.057
-130.326	-37.879	-0.167	-0.089
-129.312	-200.000	-0.007	0.178
-128.297	-3.028	-0.190	-0.133
-127.283	-200.000	0.001	-0.189
-126.268	-80.093	-0.208	0.070
-125.253	57.313	0.139	-0.136
-124.239	282.405	0.115	0.208
-123.224	-200.000	0.022	-0.186
-122.210	200.816	-0.046	-0.071
-121.195	-97.517	-0.231	-0.060
-120.180	-122.772	0.447	0.073
-119.166	-98.136	-0.157	-0.041
-118.151	-33.551	-0.462	0.257
-117.137	-22.576	0.173	-0.105
-116.122	800.000	-0.006	-0.021
-115.107	22.634	0.167	0.138
-114.093	71.685	0.120	0.126
-113.078	259.516	-0.081	0.141
-112.064	512.119	-0.043	-0.100
-111.049	193.197	-0.140	-0.213
-110.034	548.737	0.025	-0.061
-109.020	-200.000	0.032	-0.174
-108.005	800.000	-0.053	0.189
-106.991	800.000	-0.047	0.186
-105.976	-200.000	0.026	0.256
-104.962	-76.081	-0.070	0.025
-103.947	-200.000	-0.023	0.374
-102.932	76.617	0.060	0.064
-101.918	-77.926	-0.038	-0.013
-100.903	230.359	0.145	-0.238
-99.889	-36.880	0.140	-0.076
-98.874	67.088	-0.227	-0.233
-97.859	605.693	0.049	-0.123
-96.845	-76.972	-0.291	-0.102
-95.830	452.132	-0.125	0.278
-94.816	194.852	-0.074	-0.114
-93.801	141.682	-0.086	0.114
-92.786	30.952	-0.458	0.395
-91.772	-160.863	-0.148	0.008
-90.757	-200.000	-0.057	0.329
-89.743	800.000	-0.030	0.118
-88.728	-57.848	0.229	-0.101
-87.713	-72.735	0.174	0.064
-86.699	-20.511	-0.280	-0.173
-85.684	-116.012	-0.305	0.057
-84.670	-131.787	0.386	-0.051
-83.655	-27.469	0.146	0.085
-82.640	27.725	0.021	-0.018
-81.626	-3.878	0.285	0.199
-80.611	143.121	0.353	0.472
-79.597	-98.656	0.173	-0.044
-78.582	-200.000	0.028	0.391
-77.567	-200.000	0.017	0.121
-76.553	-200.000	-0.012	-0.184
-75.538	-200.000	-0.026	-0.234
-74.524	-127.821	0.050	-0.007
-73.509	170.092	-0.079	0.114
-72.494	800.000	-0.009	-0.026
-71.480	800.000	0.046	0.193
-70.465	-158.084	-0.152	0.009
-69.451	-155.558	-0.158	-0.010
-68.436	-200.000	0.004	0.417
-67.422	800.000	-0.099	0.328
-66.407	-117.202	-0.262	0.048
-65.392	-170.358	0.173	0.006
-64.378	89.229	-0.181	0.202
-63.363	-115.299	-0.145	0.028
-62.349	-104.009	-0.314	0.074
-61.334	7.471	-0.835	-0.627
-60.319	-16.359	-0.107	0.068
-59.305	-200.000	0.136	-0.714
-58.290	169.256	0.416	0.597
-57.276	547.384	0.680	1.633
-56.261	-200.000	70.001	521.205
-55.246	573.997	1261.670	3089.555
-54.232	135.777	2526.697	3302.737
-53.217	109.666	2394.063	2880.666
-52.203	52.110	2134.767	2042.088
-51.188	46.745	2039.740	1901.822
-50.173	44.832	2020.300	1866.130
-49.159	56.256	2053.204	2001.914
-48.144	62.317	2074.816	2078.718
-47.130	47.649	2040.301	1910.380
-46.115	44.634	2029.740	1872.725
-45.100	44.559	2026.549	1869.018
-44.086	44.549	2024.217	1866.700
-43.071	44.536	2021.397	1863.914
-42.057	44.480	2019.557	1861.629
-41.042	44.514	2017.764	1860.209
-40.027	44.585	2015.690	1858.873
-39.013	44.620	2013.026	1856.665
-37.998	44.569	2011.437	1854.655
-36.984	44.647	2009.691	1853.688
-35.969	44.558	2008.075	1851.310
-34.954	44.637	2006.244	1850.273
-33.940	44.700	2004.552	1849.205
-32.925	44.607	2003.338	1847.165
-31.911	44.634	2001.184	1845.357
-30.896	44.643	1999.690	1843.987
-29.881	44.665	1998.235	1842.768
-28.867	44.664	1996.621	1841.199
-27.852	44.707	1994.043	1839.134
-26.838	44.683	1992.279	1837.218
-25.823	44.649	1990.501	1835.204
-24.809	44.622	1988.648	1833.176
-23.794	44.645	1986.801	1831.609
-22.779	44.673	1984.708	1829.861
-21.765	44.636	1982.891	1827.781
-20.750	44.612	1981.725	1826.420
-19.736	44.651	1980.396	1825.465
-18.721	44.601	1978.490	1823.195
-17.706	44.700	1977.142	1822.762
-16.692	44.648	1975.057	1820.304
-15.677	44.583	1973.705	1818.405
-14.663	44.634	1971.904	1817.131
-13.648	44.624	1971.252	1816.361
-12.633	44.590	1970.133	1814.963
-11.619	44.621	1968.838	1813.966
-10.604	44.615	1967.211	1812.350
-9.590	44.565	1965.987	1810.700
-8.575	44.583	1964.422	1809.350
-7.560	44.594	1963.053	1808.117
-6.546	44.620	1961.398	1806.746
-5.531	44.716	1960.037	1806.272
-4.517	44.671	1958.961	1804.808
-3.502	44.634	1958.172	1803.688
-2.487	44.615	1956.585	1801.984
-1.473	44.641	1955.292	1800.952
-0.458	44.766	1951.120	1798.139
0.556	42.271	1932.508	1774.212
1.571	37.783	1910.506	1714.483
2.586	32.225	1928.120	1680.600
3.600	29.773	1963.605	1689.017
4.615	28.258	1959.611	1671.612
5.629	22.202	1857.064	1531.424
6.644	12.236	1731.147	1346.115
7.659	6.610	1687.902	1267.278
8.673	6.086	1683.027	1259.304
9.688	6.032	1681.837	1257.868
10.702	5.953	1680.527	1256.151
11.717	5.780	1677.093	1252.087
12.731	6.387	1677.725	1257.300
13.746	12.527	1692.627	1317.677
14.761	18.930	1705.484	1379.096
15.775	18.925	1702.414	1376.453
16.790	16.963	1697.395	1356.600
17.804	15.714	1693.760	1343.602
18.819	14.733	1690.300	1332.909
19.834	14.005	1687.995	1325.173
20.848	13.685	1686.076	1321.001
21.863	13.472	1684.051	1317.598
22.877	13.159	1682.962	1314.139
23.892	12.945	1681.600	1311.262
24.907	12.822	1680.810	1309.552
25.921	12.839	1679.538	1308.581
26.936	12.898	1678.308	1307.976
27.950	12.865	1677.554	1307.005
28.965	12.959	1676.768	1307.021
29.980	13.014	1675.806	1306.590
30.994	12.971	1675.253	1305.705
32.009	13.112	1673.850	1305.611
33.023	13.227	1673.172	1305.877
34.038	13.186	1672.283	1304.745
35.053	13.076	1671.495	1303.149
36.067	13.064	1670.171	1301.907
37.082	13.062	1668.798	1300.703
38.096	13.038	1667.727	1299.560
39.111	13.076	1666.767	1299.002
40.126	13.198	1665.591	1298.924
41.140	13.101	1664.931	1297.539
42.155	13.000	1663.150	1295.238
43.169	12.885	1661.861	1293.222
44.184	12.894	1660.821	1292.366
45.199	12.827	1659.759	1290.902
46.213	12.817	1658.631	1289.828
47.228	12.915	1657.519	1289.616
48.242	12.889	1656.666	1288.640
49.257	12.967	1655.410	1288.157
50.271	13.048	1653.757	1287.391
51.286	12.930	1653.038	1285.798
52.301	12.965	1651.368	1284.657
53.315	12.989	1650.307	1283.900
54.330	13.017	1648.324	1282.459
55.344	12.925	1646.708	1280.382
56.359	12.902	1645.235	1278.938
57.374	12.923	1644.331	1278.286
58.388	12.944	1643.191	1277.449
59.403	12.904	1641.725	1275.887
60.417	12.875	1640.558	1274.647
61.432	12.820	1639.619	1273.376
62.447	12.897	1638.273	1272.810
63.461	12.775	1636.888	1270.688
64.476	12.737	1636.149	1269.702
65.490	12.755	1634.976	1268.820
66.505	12.748	1633.494	1267.505
67.520	12.724	1632.972	1266.799
68.534	12.716	1631.767	1265.698
69.549	12.805	1630.284	1265.118
70.563	12.835	1628.972	1264.213
71.578	12.804	1627.831	1262.983
72.593	12.725	1626.977	1261.599
73.607	12.717	1626.193	1260.818
74.622	12.701	1625.016	1259.674
75.636	12.696	1624.193	1258.886
76.651	12.720	1623.436	1258.371
77.666	12.707	1622.102	1257.126
78.680	12.665	1621.446	1256.188
79.695	12.672	1620.695	1255.549
80.709	12.775	1619.398	1255.214
81.724	12.787	1618.801	1254.737
82.739	12.799	1618.076	1254.149
83.753	12.832	1616.783	1253.291
84.768	13.000	1616.000	1253.846
85.782	12.993	1615.355	1253.187
86.797	12.986	1615.023	1252.764
87.812	13.093	1613.282	1252.112
88.826	13.037	1612.332	1250.838
89.841	12.990	1610.881	1249.250
90.855	12.975	1610.208	1248.504
91.870	12.985	1608.974	1247.513
92.884	13.058	1608.237	1247.379
93.899	13.037	1607.143	1246.266
94.914	13.044	1605.861	1245.212
95.928	13.190	1604.275	1244.974
96.943	13.138	1603.171	1243.615
97.957	13.208	1601.822	1242.983
98.972	13.140	1600.280	1241.166
99.987	13.066	1598.837	1239.380
101.001	13.032	1597.572	1238.038
102.016	13.051	1595.908	1236.778
103.030	12.999	1594.630	1235.290
104.045	12.957	1593.332	1233.860
105.060	13.053	1591.976	1233.423
106.074	13.083	1590.142	1232.116
107.089	12.952	1588.672	1229.887
108.103	12.814	1587.492	1227.838
109.118	12.794	1585.745	1226.229
110.133	12.831	1583.745	1224.852
111.147	12.779	1583.137	1223.886
112.162	12.815	1581.766	1222.986
113.176	12.872	1580.390	1222.230
114.191	13.015	1578.627	1221.820
115.206	12.923	1577.766	1220.364
116.220	12.894	1576.651	1219.180
117.235	12.875	1575.213	1217.822
118.249	12.896	1573.997	1216.930
119.264	12.878	1572.702	1215.685
120.279	12.789	1571.407	1213.922
121.293	12.789	1570.257	1212.924
122.308	12.807	1568.473	1211.572
123.322	12.771	1566.985	1210.050
124.337	12.705	1565.793	1208.544
125.352	12.719	1564.585	1207.607
126.366	12.748	1563.611	1206.961
127.381	12.687	1562.444	1205.505
128.395	12.761	1561.458	1205.178
129.410	12.767	1559.893	1203.909
130.424	12.835	1558.316	1203.082
131.439	12.868	1556.691	1201.959
132.454	12.914	1555.202	1201.036
133.468	12.920	1554.341	1200.308
134.483	12.952	1553.092	1199.472
135.497	12.973	1551.649	1198.402
136.512	12.938	1550.413	1197.093
137.527	12.976	1549.186	1196.313
138.541	13.022	1547.931	1195.573
139.556	13.026	1546.227	1194.176
140.570	13.092	1544.941	1193.558
141.585	13.073	1543.538	1192.229
142.600	13.158	1542.152	1191.665
143.614	13.104	1541.475	1190.647
144.629	13.236	1539.725	1190.145
145.643	13.206	1538.645	1188.984
146.658	13.236	1537.327	1188.077
147.673	13.288	1535.578	1186.994
148.687	13.129	1534.308	1184.765
149.702	13.175	1533.015	1183.995
150.716	13.114	1531.414	1182.217
151.731	12.986	1529.866	1180.000
152.746	13.024	1528.705	1179.273
153.760	13.068	1526.941	1178.121
154.775	13.025	1525.968	1176.957
155.789	13.053	1524.902	1176.235
156.804	13.092	1523.671	1175.454
157.819	13.122	1522.085	1174.340
158.833	13.258	1521.215	1174.538
159.848	13.200	1519.910	1173.012
160.862	13.294	1518.495	1172.482
161.877	13.324	1517.448	1171.784
162.892	13.309	1516.377	1170.746
163.906	13.187	1514.903	1168.642
164.921	13.084	1513.671	1166.861
165.935	13.124	1512.762	1166.339
166.950	13.268	1511.202	1166.047
167.964	13.185	1510.223	1164.602
168.979	13.270	1509.303	1164.389
169.994	13.239	1508.287	1163.287
171.008	13.167	1507.415	1162.002
172.023	13.264	1505.885	1161.404
173.037	13.195	1505.599	1160.592
174.052	13.319	1503.659	1159.866
175.067	13.287	1503.081	1159.091
176.081	13.249	1501.628	1157.603
177.096	13.298	1499.960	1156.558
178.110	13.159	1498.821	1154.606
179.125	13.182	1497.857	1153.926
180.140	13.254	1496.851	1153.548
181.154	13.316	1495.838	1153.096
182.169	13.350	1494.118	1151.903
183.183	13.318	1493.093	1150.789
184.198	13.354	1492.343	1150.362
185.213	13.465	1491.051	1150.036
186.227	13.428	1490.133	1148.967
187.242	13.524	1488.936	1148.613
188.256	13.505	1487.852	1147.538
189.271	13.574	1486.697	1147.027
190.286	13.560	1485.935	1146.242
191.300	13.542	1485.139	1145.403
192.315	13.437	1483.465	1143.282
193.329	13.231	1482.333	1140.889
194.344	13.264	1480.974	1139.964
195.359	13.259	1480.145	1139.195
196.373	13.357	1479.038	1138.914
197.388	13.476	1478.113	1138.924
198.402	13.476	1477.464	1138.319
199.417	13.518	1475.786	1137.213
200.432	13.670	1474.822	1137.418
201.446	13.741	1473.981	1137.156
202.461	13.767	1472.751	1136.279
203.475	13.754	1471.916	1135.445
204.490	13.729	1471.048	1134.509
205.504	13.792	1469.625	1133.742
206.519	13.718	1469.046	1132.685
207.534	13.687	1467.613	1131.269
208.548	13.764	1465.868	1130.348
209.563	13.640	1465.582	1129.187
210.577	13.708	1464.368	1128.612
211.592	13.749	1463.208	1127.894
212.607	13.744	1462.413	1127.153
213.621	13.805	1462.184	1127.288
214.636	13.828	1460.909	1126.365
215.650	13.842	1459.894	1125.576
216.665	13.804	1459.040	1124.562
217.680	13.911	1458.048	1124.417
218.694	13.913	1457.546	1123.949
219.709	13.984	1456.536	1123.548
220.723	14.071	1455.249	1123.042
221.738	13.925	1454.842	1121.645
222.753	13.956	1453.702	1120.878
223.767	13.986	1452.679	1120.191
224.782	13.898	1451.905	1118.902
225.796	13.966	1450.898	1118.485
226.811	14.025	1450.155	1118.208
227.826	14.053	1449.523	1117.809
228.840	14.093	1448.236	1116.988
229.855	13.982	1447.236	1115.376
230.869	13.996	1446.366	1114.700
231.884	13.965	1445.409	1113.655
232.899	14.039	1444.211	1113.127
233.913	13.972	1443.173	1111.780
234.928	13.941	1441.453	1110.153
235.942	13.918	1441.044	1109.584
236.957	13.969	1439.602	1108.712
237.972	13.904	1438.293	1107.173
238.986	13.980	1437.164	1106.715
240.001	13.978	1436.522	1106.108
241.015	13.949	1435.368	1104.930
242.030	13.914	1434.495	1103.926
243.045	13.974	1433.255	1103.277
244.059	14.095	1432.271	1103.221
245.074	14.083	1431.524	1102.472
246.088	14.154	1430.659	1102.177
247.103	14.354	1429.407	1102.440
248.117	14.119	1429.572	1100.911
249.132	14.248	1428.623	1100.937
250.147	14.230	1427.946	1100.201
251.161	14.420	1427.149	1100.742
252.176	14.375	1426.725	1100.018
253.190	14.374	1426.160	1099.483
254.205	14.489	1425.145	1099.356
255.220	14.616	1424.044	1099.249
256.234	14.587	1423.591	1098.613
257.249	14.598	1422.599	1097.820
258.263	14.584	1421.519	1096.800
259.278	14.687	1420.840	1096.854
260.293	14.661	1419.642	1095.661
261.307	14.684	1418.882	1095.127
262.322	14.686	1418.193	1094.515
263.336	14.732	1417.013	1093.810
264.351	14.779	1416.124	1093.331
265.366	14.805	1415.463	1092.894
266.380	14.743	1414.886	1091.948
267.395	14.804	1413.826	1091.430
268.409	14.863	1412.849	1090.963
269.424	14.802	1411.813	1089.673
270.439	14.739	1410.779	1088.368
271.453	14.672	1409.972	1087.213
272.468	14.789	1408.737	1086.927
273.482	14.832	1408.211	1086.702
274.497	14.726	1407.320	1085.226
275.512	14.705	1406.583	1084.426
276.526	14.825	1405.107	1083.973
277.541	14.720	1404.573	1082.786
278.555	14.796	1403.629	1082.451
279.570	14.735	1402.898	1081.401
280.585	14.788	1401.774	1080.779
281.599	14.900	1401.313	1081.051
282.614	15.007	1399.857	1080.524
283.628	14.951	1399.139	1079.515
284.643	14.916	1397.999	1078.314
285.657	14.777	1397.587	1077.006
286.672	14.802	1396.341	1076.111
287.687	14.932	1394.738	1075.615
288.701	14.821	1394.004	1074.237
289.716	14.890	1393.509	1074.208
290.730	14.907	1392.478	1073.423
291.745	14.943	1391.277	1072.639
292.760	15.045	1389.986	1072.199
293.774	15.049	1389.235	1071.549
294.789	14.964	1388.384	1070.254
295.803	15.041	1387.685	1070.114
296.818	15.096	1386.631	1069.559
297.833	15.093	1385.494	1068.564
298.847	15.074	1384.887	1067.883
299.862	15.024	1384.102	1066.867
300.876	15.080	1382.679	1066.031
301.891	14.995	1382.074	1064.927
302.906	15.085	1381.408	1064.892
303.920	15.190	1380.531	1064.789
304.935	15.178	1379.702	1063.983
305.949	15.268	1378.507	1063.539
306.964	15.255	1378.106	1063.053
307.979	15.407	1377.274	1063.280
308.993	15.236	1376.521	1061.521
310.008	15.265	1375.707	1060.978
311.022	15.329	1374.147	1060.092
312.037	15.367	1372.879	1059.256
313.052	15.353	1372.400	1058.702
314.066	15.378	1371.267	1057.893
315.081	15.251	1370.163	1056.152
316.095	15.253	1369.298	1055.399
317.110	15.178	1368.501	1054.224
318.125	15.300	1367.329	1053.991
319.139	15.249	1366.613	1053.025
320.154	15.284	1365.574	1052.356
321.168	15.218	1364.594	1051.091
322.183	15.193	1364.050	1050.422
323.197	15.234	1363.024	1049.795
324.212	15.274	1361.998	1049.166
325.227	15.369	1360.823	1048.758
326.241	15.367	1359.926	1047.961
327.256	15.427	1358.966	1047.507
328.270	15.389	1358.532	1046.839
329.285	15.485	1357.549	1046.586
330.300	15.395	1356.766	1045.332
331.314	15.324	1356.030	1044.230
332.329	15.392	1355.284	1043.984
333.343	15.420	1353.728	1042.869
334.358	15.457	1353.060	1042.493
335.373	15.494	1352.257	1042.009
336.387	15.593	1351.166	1041.690
337.402	15.455	1350.952	1040.578
338.416	15.596	1350.225	1040.799
339.431	15.625	1349.067	1039.998
340.446	15.653	1348.970	1040.004
341.460	15.654	1347.865	1039.063
342.475	15.781	1346.932	1039.040
343.489	15.755	1345.900	1037.986
344.504	15.744	1345.186	1037.280
345.519	15.844	1344.288	1037.108
346.533	15.848	1343.392	1036.355
347.548	15.916	1341.943	1035.560
348.562	15.902	1341.488	1035.030
349.577	15.960	1340.932	1034.866
350.592	15.915	1340.064	1033.833
351.606	15.903	1338.886	1032.758
352.621	15.819	1338.075	1031.523
353.635	15.730	1337.276	1030.271
354.650	15.739	1335.912	1029.184
355.665	15.774	1335.096	1028.679
356.679	15.790	1333.959	1027.811
357.694	15.795	1332.956	1026.978
358.708	15.833	1332.259	1026.583
359.723	15.900	1331.164	1026.053
360.738	15.929	1330.017	1025.257
361.752	15.894	1329.123	1024.261
362.767	15.991	1327.522	1023.531
363.781	15.947	1327.096	1022.843
364.796	15.948	1326.356	1022.189
365.810	15.952	1325.654	1021.580
366.825	16.057	1324.954	1021.589
367.840	16.121	1324.111	1021.233
368.854	16.107	1323.703	1020.744
369.869	16.189	1322.972	1020.587
370.883	16.254	1322.043	1020.174
371.898	16.196	1321.591	1019.384
372.913	16.254	1320.644	1018.913
373.927	16.197	1319.565	1017.646
374.942	16.264	1318.542	1017.169
375.956	16.230	1318.181	1016.596
376.971	16.232	1317.568	1016.044
377.986	16.244	1316.549	1015.244
379.000	16.278	1315.952	1014.896
380.015	16.408	1314.947	1014.814
381.029	16.272	1313.979	1013.162
382.044	16.351	1313.761	1013.377
383.059	16.324	1313.010	1012.547
384.073	16.383	1312.338	1012.293
385.088	16.372	1312.001	1011.875
386.102	16.480	1310.866	1011.559
387.117	16.556	1310.033	1011.277
388.132	16.421	1309.440	1009.923
389.146	16.452	1307.968	1008.889
390.161	16.360	1307.461	1007.855
391.175	16.455	1306.294	1007.433
392.190	16.395	1305.720	1006.548
393.205	16.433	1305.219	1006.299
394.219	16.529	1303.908	1005.767
395.234	16.513	1302.684	1004.642
396.248	16.503	1301.384	1003.490
397.263	16.554	1300.178	1002.772
398.278	16.506	1298.691	1001.253
399.292	16.438	1297.515	999.856
400.307	16.418	1296.762	999.067
401.321	16.396	1295.949	998.223
402.336	16.390	1294.743	997.171
403.350	16.411	1293.612	996.337
404.365	16.413	1292.602	995.481
405.380	16.460	1291.844	995.086
406.394	16.496	1291.212	994.721
407.409	16.587	1290.575	994.678
408.423	16.583	1289.908	994.051
409.438	16.658	1289.158	993.825
410.453	16.766	1288.426	993.811
411.467	16.681	1287.856	992.782
412.482	16.756	1287.187	992.620
413.496	16.853	1286.542	992.604
414.511	16.812	1285.618	991.560
415.526	16.882	1284.931	991.353
416.540	16.895	1284.286	990.846
417.555	16.966	1283.545	990.597
418.569	16.967	1283.210	990.258
419.584	16.924	1282.962	989.727
420.599	16.931	1281.978	988.923
421.613	61.764	1293.664	1254.625
422.628	61.515	1295.346	1254.764
