DTS Sentinel unit serial number:	SN413079Multiplexer serial number:	ORYXHardware model number:	OX4-SRSoftware version number:	ORYX F/W v4.00 Oryx Data Collector v3.7.2.0data status	okinstallation	princeton_trtdifferential loss correction	single-endedforward channel	channel 4reverse channel	N/Adate	2019/09/17time	12:05:35forward acquisition time	60.00reverse acquisition time	0.00gamma	496.2192k internal	0.2306k external	0.2306temperature offset calibration	0.9990default loss term (dB/km)	0.3790temperature slope calibration	1.0000multiplexer offset coefficient	1.0000multiplexer slope coefficient	1.0000fibre end	0.00T internal ref (°C)	31.20T ext. ref 1 (°C)	0.43T ext. ref 2 (°C)	27.44length (m)	temperature (°C)	Stokes	anti-Stokes-747.200	-146.285	-0.237	-0.021
-746.185	174.955	-0.027	0.039
-745.171	26.279	0.121	-0.103
-744.156	-96.819	-0.276	0.074
-743.142	149.003	-0.152	-0.210
-742.127	325.907	-0.132	0.258
-741.112	-200.000	0.018	0.215
-740.098	800.000	0.098	0.402
-739.083	120.821	0.096	-0.122
-738.069	135.818	-0.168	0.222
-737.054	376.097	-0.148	-0.306
-736.039	-43.186	0.144	-0.074
-735.025	-138.444	0.145	0.016
-734.010	67.147	-0.209	0.217
-732.996	76.499	-0.236	0.255
-731.981	-56.666	-0.174	-0.079
-730.966	-200.000	-0.040	0.394
-729.952	-200.000	-0.008	0.153
-728.937	-35.212	0.171	-0.094
-727.923	103.555	0.177	0.212
-726.908	-171.957	-0.397	0.013
-725.894	441.068	-0.053	0.119
-724.879	185.786	0.156	-0.236
-723.864	65.029	-0.186	-0.191
-722.850	-200.000	-0.037	-0.168
-721.835	-84.022	-0.145	-0.047
-720.821	800.000	-0.034	0.143
-719.806	-69.506	0.148	0.058
-718.791	0.023	-0.100	-0.072
-717.777	-154.071	-0.354	-0.024
-716.762	242.412	0.145	-0.246
-715.748	-200.000	0.029	0.311
-714.733	476.726	-0.075	-0.172
-713.718	229.292	0.083	-0.138
-712.704	349.080	-0.078	0.156
-711.689	-200.000	-0.023	-0.196
-710.675	105.855	-0.096	0.115
-709.660	782.282	0.048	0.133
-708.645	58.846	-0.295	-0.294
-707.631	-200.000	-0.049	-0.242
-706.616	-110.160	0.096	-0.020
-705.602	358.476	0.145	0.295
-704.587	-133.110	-0.360	-0.046
-703.572	-51.556	0.326	-0.155
-702.558	4.008	-0.173	-0.129
-701.543	800.000	-0.036	-0.151
-700.529	-200.000	0.016	-0.141
-699.514	134.489	0.010	0.013
-698.499	-10.119	0.181	0.122
-697.485	367.888	-0.128	-0.262
-696.470	-95.300	0.513	-0.140
-695.456	610.519	0.063	-0.161
-694.441	112.475	-0.165	-0.203
-693.426	55.880	-0.050	0.050
-692.412	7.339	-0.167	0.127
-691.397	-30.149	-0.229	0.132
-690.383	224.182	-0.180	-0.296
-689.368	-200.000	-0.011	-0.058
-688.354	-110.134	0.230	0.049
-687.339	-134.639	0.345	-0.043
-686.324	103.292	0.156	0.185
-685.310	-99.218	0.098	-0.025
-684.295	141.247	0.147	-0.198
-683.281	53.227	0.132	-0.129
-682.266	12.013	0.182	-0.142
-681.251	-124.613	-0.172	-0.027
-680.237	-52.461	0.256	0.120
-679.222	-181.971	0.077	0.001
-678.208	36.242	0.174	0.156
-677.193	144.719	0.159	0.215
-676.178	-200.000	-0.029	-0.254
-675.164	-63.605	0.095	0.039
-674.149	-200.000	-0.083	-0.393
-673.135	85.545	-0.167	-0.186
-672.120	-200.000	0.009	0.047
-671.105	-145.852	-0.130	0.012
-670.091	449.557	-0.224	-0.501
-669.076	17.963	-0.061	0.050
-668.062	550.781	-0.098	0.238
-667.047	800.000	-0.049	0.161
-666.032	50.840	0.118	0.113
-665.018	193.686	0.115	-0.177
-664.003	-200.000	-0.026	0.221
-662.989	-43.689	-0.231	0.118
-661.974	-5.754	-0.047	0.033
-660.959	273.050	-0.159	0.284
-659.945	247.561	0.128	0.220
-658.930	38.996	0.155	0.140
-657.916	-129.756	-0.044	0.006
-656.901	-9.291	-0.341	-0.231
-655.886	-59.925	-0.382	-0.166
-654.872	800.000	0.065	-0.207
-653.857	92.872	0.254	-0.291
-652.843	800.000	0.009	0.040
-651.828	71.330	-0.058	-0.061
-650.814	110.834	0.136	0.166
-649.799	-67.812	-0.398	-0.158
-648.784	-200.000	-0.017	-0.478
-647.770	171.201	-0.150	-0.219
-646.755	51.055	0.304	0.292
-645.741	114.380	-0.203	-0.251
-644.726	-29.364	-0.154	-0.089
-643.711	-148.643	0.164	0.014
-642.697	-91.332	0.219	0.063
-641.682	-175.453	-0.169	0.005
-640.668	-123.916	-0.118	0.019
-639.653	800.000	-0.161	-0.494
-638.638	-200.000	-0.028	0.128
-637.624	-111.963	0.122	0.025
-636.609	284.279	-0.134	0.244
-635.595	-83.199	0.104	-0.034
-634.580	23.570	-0.078	0.065
-633.565	226.057	-0.179	0.294
-632.551	-200.000	0.037	-0.299
-631.536	-144.579	-0.196	-0.018
-630.522	-160.729	-0.160	0.009
-629.507	-1.669	0.126	-0.090
-628.492	356.393	0.062	0.126
-627.478	800.000	0.032	-0.114
-626.463	120.820	-0.245	-0.308
-625.449	800.000	-0.069	-0.286
-624.434	250.723	-0.051	-0.088
-623.419	-69.463	0.175	-0.068
-622.405	-88.451	0.087	-0.026
-621.390	-158.736	-0.160	0.009
-620.376	11.911	0.314	-0.244
-619.361	-200.000	0.043	-0.218
-618.346	261.305	0.083	-0.146
-617.332	-200.000	-0.002	0.205
-616.317	800.000	-0.055	-0.201
-615.303	-200.000	-0.018	-0.229
-614.288	59.619	-0.112	0.112
-613.273	-59.262	-0.191	0.083
-612.259	136.751	0.225	-0.298
-611.244	-84.285	-0.184	0.059
-610.230	-121.543	0.096	-0.016
-609.215	529.136	0.063	0.149
-608.201	59.999	-0.215	0.215
-607.186	-200.000	0.013	-0.116
-606.171	-58.040	0.220	0.097
-605.157	218.826	-0.041	-0.066
-604.142	-200.000	0.000	-0.486
-603.128	450.359	-0.178	-0.398
-602.113	-103.956	-0.372	0.088
-601.098	197.966	0.040	0.062
-600.084	-25.939	0.217	0.129
-599.069	-16.965	-0.176	0.113
-598.055	76.693	0.092	-0.098
-597.040	-85.423	-0.242	-0.076
-596.025	-13.766	-0.197	0.129
-595.011	89.904	0.188	-0.213
-593.996	-155.227	-0.313	0.021
-592.982	-6.638	0.081	-0.056
-591.967	-62.895	0.130	0.054
-590.952	742.961	0.047	0.127
-589.938	378.212	-0.285	0.589
-588.923	-82.413	-0.174	0.057
-587.909	-113.150	0.344	0.068
-586.894	800.000	0.058	0.196
-585.879	800.000	0.068	0.241
-584.865	142.539	-0.060	-0.081
-583.850	-142.430	0.195	-0.019
-582.836	272.941	0.189	-0.338
-581.821	-79.315	-0.157	-0.054
-580.806	7.826	-0.100	0.076
-579.792	-71.625	-0.428	-0.162
-578.777	-200.000	-0.035	0.223
-577.763	83.796	-0.145	0.160
-576.748	577.213	-0.169	-0.417
-575.733	25.641	0.098	0.082
-574.719	289.361	0.147	-0.270
-573.704	798.333	0.076	-0.212
-572.690	-200.000	-0.001	-0.068
-571.675	800.000	0.100	0.314
-570.661	430.695	-0.146	0.320
-569.646	50.108	-0.184	0.175
-568.631	-142.573	-0.188	0.019
-567.617	125.919	-0.023	0.030
-566.602	-144.583	0.212	0.020
-565.588	-90.810	0.198	0.058
-564.573	262.146	0.144	0.253
-563.558	552.227	-0.176	0.427
-562.544	-200.000	-0.026	0.396
-561.529	-111.616	0.118	0.024
-560.515	169.962	-0.101	-0.146
-559.500	-200.000	-0.056	-0.279
-558.485	633.898	-0.117	0.298
-557.471	128.577	-0.041	0.053
-556.456	-74.515	0.168	0.061
-555.442	-200.000	-0.018	0.147
-554.427	-31.906	-0.102	0.058
-553.412	101.878	0.142	0.167
-552.398	13.514	-0.064	-0.050
-551.383	-200.000	-0.005	-0.056
-550.369	800.000	-0.079	-0.288
-549.354	800.000	-0.056	-0.171
-548.339	800.000	-0.089	0.268
-547.325	96.478	0.212	-0.245
-546.310	320.698	0.076	-0.145
-545.296	-75.551	0.193	-0.069
-544.281	166.576	-0.095	-0.136
-543.266	-73.663	-0.361	0.133
-542.252	-98.227	-0.216	-0.056
-541.237	-156.407	-0.219	-0.014
-540.223	9.552	0.171	0.131
-539.208	800.000	0.107	-0.398
-538.193	283.650	0.073	0.133
-537.179	722.972	0.031	-0.083
-536.164	-30.282	-0.079	0.045
-535.150	-47.315	0.142	-0.070
-534.135	-200.000	-0.117	0.000
-533.121	-150.986	-0.269	-0.020
-532.106	-130.891	0.164	-0.022
-531.091	-41.024	-0.260	-0.136
-530.077	-118.450	0.373	-0.067
-529.062	-200.000	0.052	0.267
-528.048	26.396	0.083	-0.070
-527.033	28.801	-0.276	0.236
-526.018	499.670	-0.061	0.143
-525.004	800.000	0.091	-0.289
-523.989	-118.272	-0.164	-0.029
-522.975	43.977	-0.202	0.187
-521.960	-171.214	-0.225	0.008
-520.945	800.000	-0.067	0.213
-519.931	800.000	-0.084	0.314
-518.916	-59.512	0.253	-0.110
-517.902	-200.000	0.019	0.145
-516.887	165.019	0.092	0.131
-515.872	376.311	0.064	0.132
-514.858	-200.000	0.032	-0.176
-513.843	344.847	0.092	-0.182
-512.829	-200.000	-0.290	-0.000
-511.814	275.332	0.022	0.039
-510.799	-200.000	-0.001	0.298
-509.785	129.473	0.067	0.086
-508.770	84.373	0.142	0.157
-507.756	-48.130	-0.148	0.072
-506.741	-200.000	-0.025	0.466
-505.726	-200.000	-0.028	-0.253
-504.712	204.903	-0.161	-0.252
-503.697	800.000	-0.075	-0.297
-502.683	-81.185	-0.154	-0.051
-501.668	800.000	-0.007	-0.029
-500.653	-93.579	-0.057	-0.016
-499.639	-200.000	-0.015	0.357
-498.624	45.488	0.202	0.188
-497.610	-44.100	-0.185	0.093
-496.595	86.982	-0.153	0.170
-495.581	373.796	0.115	0.237
-494.566	167.993	-0.159	-0.227
-493.551	7.464	0.186	0.140
-492.537	513.903	0.124	0.292
-491.522	-55.322	0.063	0.029
-490.508	-110.688	0.048	-0.010
-489.493	-200.000	-0.022	-0.174
-488.478	150.479	-0.103	0.141
-487.464	31.170	0.106	-0.092
-486.449	192.566	0.046	-0.069
-485.435	85.190	0.084	0.093
-484.420	-128.705	0.261	-0.037
-483.405	-85.318	0.190	0.060
-482.391	-144.702	-0.291	-0.027
-481.376	-80.780	-0.480	-0.160
-480.362	-200.000	-0.239	0.000
-479.347	100.131	-0.111	-0.129
-478.332	-200.000	0.035	-0.191
-477.318	326.605	0.120	0.232
-476.303	-162.888	-0.194	0.009
-475.289	240.062	0.082	0.138
-474.274	-200.000	0.027	-0.172
-473.259	-200.000	-0.021	-0.197
-472.245	42.723	0.078	-0.071
-471.230	-200.000	-0.000	0.121
-470.216	227.498	0.051	-0.084
-469.201	-8.115	0.207	-0.140
-468.186	800.000	-0.030	-0.111
-467.172	800.000	-0.102	-0.321
-466.157	-10.350	0.247	-0.165
-465.143	34.674	-0.255	-0.224
-464.128	-125.833	0.132	0.020
-463.113	-150.037	-0.264	-0.021
-462.099	20.618	0.092	-0.075
-461.084	83.685	-0.191	0.209
-460.070	-70.581	-0.171	-0.065
-459.055	399.647	-0.090	-0.190
-458.040	800.000	0.085	0.348
-457.026	49.724	0.106	-0.100
-456.011	-36.454	0.285	-0.154
-454.997	-85.168	0.238	-0.075
-453.982	-52.115	-0.128	-0.060
-452.968	460.939	-0.025	0.056
-451.953	187.491	-0.130	0.195
-450.938	-132.897	-0.135	0.017
-449.924	55.550	-0.143	-0.139
-448.909	24.264	-0.170	-0.141
-447.895	800.000	-0.084	0.354
-446.880	-181.754	-0.249	-0.005
-445.865	-200.000	0.008	-0.236
-444.851	-173.847	0.226	0.007
-443.836	800.000	-0.033	0.122
-442.822	102.758	-0.161	-0.190
-441.807	-160.525	-0.138	-0.007
-440.792	93.931	0.147	-0.168
-439.778	48.894	-0.090	0.085
-438.763	-50.111	-0.128	0.061
-437.749	-200.000	-0.029	0.257
-436.734	-69.761	0.115	0.044
-435.719	-144.899	0.368	-0.034
-434.705	76.100	-0.175	0.186
-433.690	800.000	-0.036	-0.107
-432.676	447.684	0.059	0.130
-431.661	-41.321	-0.070	0.036
-430.646	800.000	0.023	0.063
-429.632	30.434	-0.426	-0.366
-428.617	-93.142	-0.094	-0.026
-427.603	800.000	0.107	0.311
-426.588	345.583	-0.185	-0.365
-425.573	-85.367	0.282	0.088
-424.559	-13.456	0.265	-0.173
-423.544	730.657	0.044	-0.119
-422.530	800.000	0.048	0.148
-421.515	-200.000	-0.017	-0.168
-420.500	-200.000	0.027	0.209
-419.486	-200.000	0.016	0.116
-418.471	350.572	0.032	0.064
-417.457	145.385	0.090	0.120
-416.442	800.000	0.096	0.359
-415.428	-62.613	-0.433	0.181
-414.413	118.687	-0.143	-0.177
-413.398	800.000	-0.053	-0.226
-412.384	-119.024	0.352	-0.062
-411.369	-200.000	-0.015	-0.361
-410.355	-200.000	0.019	0.115
-409.340	265.556	-0.093	0.162
-408.325	-114.062	0.295	0.057
-407.311	-95.773	-0.162	0.044
-406.296	-7.008	0.360	-0.246
-405.282	-200.000	-0.014	-0.115
-404.267	-200.000	-0.004	-0.092
-403.252	-200.000	-0.044	-0.341
-402.238	-69.735	-0.056	0.022
-401.223	-7.502	0.010	-0.007
-400.209	-68.367	0.328	0.128
-399.194	-163.364	0.139	-0.007
-398.179	-200.000	-0.017	-0.265
-397.165	-55.261	0.148	0.067
-396.150	49.173	0.199	-0.188
-395.136	-200.000	-0.020	-0.199
-394.121	-75.227	0.134	-0.048
-393.106	-28.409	-0.099	0.058
-392.092	800.000	-0.027	-0.107
-391.077	41.635	0.115	-0.105
-390.063	-96.955	-0.292	0.077
-389.048	-200.000	0.004	0.087
-388.033	-200.000	-0.027	-0.217
-387.019	376.797	-0.108	-0.222
-386.004	56.632	-0.179	-0.175
-384.990	48.626	0.076	-0.072
-383.975	800.000	-0.108	0.379
-382.960	62.492	-0.057	-0.057
-381.946	800.000	0.032	0.100
-380.931	800.000	-0.116	0.491
-379.917	800.000	0.162	0.453
-378.902	78.136	0.106	0.114
-377.888	524.849	-0.059	0.140
-376.873	800.000	-0.087	0.264
-375.858	238.711	0.151	0.251
-374.844	-73.448	0.115	0.042
-373.829	-58.560	0.245	0.107
-372.815	287.671	0.146	-0.265
-371.800	55.469	-0.094	-0.092
-370.785	589.762	-0.100	0.248
-369.771	-200.000	0.184	0.001
-368.756	-131.434	-0.051	0.007
-367.742	-200.000	-0.031	0.277
-366.727	104.319	0.254	0.300
-365.712	164.981	0.178	0.253
-364.698	64.199	0.104	-0.105
-363.683	800.000	0.052	0.151
-362.669	-71.655	-0.225	0.084
-361.654	334.896	0.081	0.158
-360.639	800.000	-0.030	0.107
-359.625	234.903	-0.240	-0.396
-358.610	-95.384	-0.015	0.004
-357.596	541.892	-0.095	-0.228
-356.581	-63.276	0.212	0.088
-355.566	219.548	0.126	0.203
-354.552	-200.000	-0.029	0.143
-353.537	74.571	0.193	-0.203
-352.523	56.848	0.116	0.113
-351.508	-52.428	-0.303	-0.141
-350.493	527.668	-0.015	0.034
-349.479	-101.210	-0.382	0.094
-348.464	227.269	-0.129	0.210
-347.450	-200.000	0.005	-0.207
-346.435	-200.000	-0.010	0.063
-345.420	583.269	0.111	-0.272
-344.406	-104.289	-0.024	0.005
-343.391	528.982	0.064	0.150
-342.377	324.226	-0.050	0.095
-341.362	-200.000	0.009	0.105
-340.348	44.402	-0.048	0.044
-339.333	-94.504	0.286	-0.078
-338.318	-150.343	-0.175	0.013
-337.304	282.315	0.221	0.396
-336.289	-42.769	-0.064	-0.033
-335.275	406.085	-0.021	-0.044
-334.260	-87.947	0.132	-0.040
-333.245	-118.587	0.083	-0.015
-332.231	-117.991	0.218	-0.039
-331.216	-53.045	-0.118	0.054
-330.202	800.000	-0.085	0.278
-329.187	-100.318	-0.075	-0.019
-328.172	-131.401	0.114	-0.015
-327.158	511.830	-0.162	0.377
-326.143	-100.987	-0.197	0.048
-325.129	-36.939	-0.182	0.097
-324.114	351.052	0.080	0.158
-323.099	297.797	0.116	-0.213
-322.085	-68.704	0.142	-0.055
-321.070	800.000	0.128	-0.377
-320.056	159.725	0.092	0.128
-319.041	-60.299	0.238	0.101
-318.026	645.461	-0.065	0.167
-317.012	-105.176	0.165	0.038
-315.997	-30.695	0.127	-0.072
-314.983	79.428	-0.268	0.288
-313.968	483.229	-0.180	-0.410
-312.953	-121.459	0.241	0.040
-311.939	-102.370	0.276	-0.066
-310.924	-55.921	0.116	0.052
-309.910	30.559	0.237	-0.202
-308.895	-28.563	-0.068	-0.039
-307.880	-200.000	-0.007	0.286
-306.866	51.916	-0.263	-0.250
-305.851	270.226	0.138	0.242
-304.837	-59.672	0.067	-0.029
-303.822	-9.090	-0.213	-0.142
-302.807	-200.000	-0.022	-0.119
-301.793	43.116	0.226	0.207
-300.778	-95.797	-0.331	0.088
-299.764	58.197	-0.090	-0.088
-298.749	208.525	0.170	-0.266
-297.735	-90.446	0.445	-0.129
-296.720	40.718	-0.018	-0.016
-295.705	547.084	0.095	0.226
-294.691	800.000	0.036	-0.115
-293.676	78.383	0.053	0.057
-292.662	-3.240	-0.185	-0.129
-291.647	120.326	-0.183	0.227
-290.632	-111.164	-0.224	0.046
-289.618	-71.956	-0.420	-0.156
-288.603	800.000	0.022	0.085
-287.589	454.326	0.137	-0.303
-286.574	-158.718	0.216	-0.012
-285.559	-67.145	0.330	0.130
-284.545	170.900	-0.152	0.217
-283.530	-106.929	0.076	0.017
-282.516	-200.000	0.018	-0.176
-281.501	-75.749	-0.044	0.016
-280.486	800.000	-0.123	0.445
-279.472	-200.000	0.035	0.158
-278.457	-129.078	-0.066	-0.009
-277.443	-62.223	-0.287	-0.120
-276.428	-87.869	-0.124	-0.037
-275.413	764.800	0.130	-0.351
-274.399	157.367	0.129	0.178
-273.384	-200.000	0.002	0.158
-272.370	40.761	-0.134	0.121
-271.355	-70.050	-0.180	-0.068
-270.340	-81.667	0.082	-0.027
-269.326	-194.904	-0.270	-0.002
-268.311	-141.609	0.263	0.026
-267.297	95.190	0.312	-0.355
-266.282	41.809	0.230	0.208
-265.267	101.374	-0.217	0.253
-264.253	381.662	-0.047	-0.096
-263.238	373.034	0.077	-0.156
-262.224	90.123	-0.192	-0.214
-261.209	-200.000	0.030	-0.185
-260.195	-22.925	-0.181	0.109
-259.180	81.953	-0.262	-0.283
-258.165	-169.823	0.217	0.008
-257.151	666.018	0.032	-0.083
-256.136	-12.729	0.236	0.154
-255.122	-200.000	-0.006	-0.349
-254.107	148.965	-0.152	-0.205
-253.092	-68.988	0.155	-0.060
-252.078	-171.875	0.098	0.003
-251.063	31.663	0.145	0.125
-250.049	289.627	-0.153	-0.278
-249.034	-21.507	0.120	0.073
-248.019	-131.970	0.340	-0.044
-247.005	-200.000	0.015	-0.102
-245.990	-161.241	-0.164	0.009
-244.976	-47.099	0.239	0.116
-243.961	30.180	0.129	-0.110
-242.946	652.625	-0.018	0.046
-241.932	-93.708	0.227	0.062
-240.917	58.772	0.208	-0.204
-239.903	-200.000	-0.020	-0.305
-238.888	-4.478	0.215	0.148
-237.873	-200.000	-0.006	-0.413
-236.859	800.000	0.103	0.311
-235.844	547.946	-0.191	-0.455
-234.830	800.000	0.111	-0.381
-233.815	-27.534	0.070	-0.041
-232.800	-173.549	-0.134	-0.004
-231.786	56.397	0.107	0.104
-230.771	346.817	0.073	-0.144
-229.757	-129.516	0.107	0.015
-228.742	800.000	-0.069	0.235
-227.727	-90.451	-0.152	-0.044
-226.713	-157.689	0.015	0.001
-225.698	-200.000	0.023	-0.347
-224.684	56.224	0.158	0.153
-223.669	-200.000	-0.048	-0.375
-222.655	392.899	-0.146	-0.304
-221.640	11.813	0.080	0.062
-220.625	28.084	-0.270	-0.227
-219.611	-200.000	-0.015	-0.161
-218.596	118.506	0.084	0.103
-217.582	800.000	0.129	0.460
-216.567	800.000	-0.119	0.371
-215.552	-200.000	0.022	0.099
-214.538	-109.371	0.092	0.019
-213.523	364.300	0.131	0.262
-212.509	33.082	-0.233	-0.201
-211.494	64.370	0.236	0.237
-210.479	-62.095	0.231	-0.096
-209.465	-200.000	-0.008	0.221
-208.450	-48.747	-0.151	-0.072
-207.436	-50.890	-0.284	-0.133
-206.421	62.799	0.033	-0.033
-205.406	268.364	-0.061	-0.106
-204.392	-107.820	-0.178	-0.039
-203.377	15.312	-0.123	-0.096
-202.363	800.000	-0.011	-0.034
-201.348	22.971	-0.131	0.107
-200.333	-200.000	0.040	-0.284
-199.319	-95.514	0.239	0.064
-198.304	800.000	-0.050	-0.145
-197.290	10.512	-0.327	0.248
-196.275	-200.000	-0.022	-0.147
-195.260	-90.081	0.120	-0.035
-194.246	17.185	0.123	0.097
-193.231	-9.238	0.350	0.233
-192.217	-149.917	0.261	0.020
-191.202	-68.175	-0.098	-0.038
-190.187	-200.000	-0.021	0.120
-189.173	-49.381	0.224	-0.106
-188.158	-128.113	-0.066	-0.009
-187.144	29.272	-0.247	0.209
-186.129	-128.293	-0.224	0.032
-185.114	-65.532	0.214	-0.085
-184.100	-53.467	-0.134	0.061
-183.085	-30.717	-0.354	0.199
-182.071	200.409	-0.150	-0.230
-181.056	-6.719	0.396	0.268
-180.042	-72.020	0.114	0.042
-179.027	-200.000	-0.004	0.168
-178.012	57.350	-0.110	0.107
-176.998	-200.000	-0.044	-0.383
-175.983	-200.000	0.004	-0.147
-174.969	22.777	0.105	0.086
-173.954	87.085	0.140	0.154
-172.939	342.941	-0.063	0.123
-171.925	166.423	0.120	0.169
-170.910	-104.238	0.213	-0.049
-169.896	-77.884	-0.073	0.025
-168.881	14.839	-0.129	0.101
-167.866	-113.483	-0.406	-0.079
-166.852	-200.000	-0.014	0.205
-165.837	264.909	0.072	-0.126
-164.823	351.074	-0.116	0.229
-163.808	800.000	0.063	-0.237
-162.793	-200.000	0.002	0.029
-161.779	105.057	-0.099	-0.116
-160.764	-107.058	0.164	-0.036
-159.750	-109.444	0.341	0.072
-158.735	-51.087	0.171	0.080
-157.720	800.000	0.088	-0.244
-156.706	800.000	0.084	0.350
-155.691	-126.746	0.298	-0.044
-154.677	159.808	0.121	-0.167
-153.662	131.943	0.147	0.189
-152.647	61.408	-0.074	0.073
-151.633	-118.125	0.199	-0.035
-150.618	-200.000	0.044	-0.200
-149.604	-145.383	0.164	0.015
-148.589	800.000	-0.031	0.123
-147.574	20.911	-0.154	0.124
-146.560	800.000	0.017	0.060
-145.545	423.987	0.113	0.241
-144.531	-145.197	0.203	0.018
-143.516	-74.588	0.259	0.093
-142.502	-81.190	-0.124	-0.041
-141.487	224.325	0.066	-0.105
-140.472	800.000	0.067	0.187
-139.458	-83.651	0.080	-0.025
-138.443	690.782	-0.035	-0.090
-137.429	168.905	-0.042	0.059
-136.414	15.501	-0.080	-0.062
-135.399	-200.000	-0.011	-0.174
-134.385	-27.683	0.214	0.124
-133.370	-68.104	-0.451	0.174
-132.356	800.000	-0.029	-0.124
-131.341	-46.739	0.155	0.076
-130.326	286.882	-0.107	-0.193
-129.312	71.798	-0.195	-0.201
-128.297	800.000	0.006	-0.024
-127.283	-200.000	-0.048	0.509
-126.268	800.000	0.058	-0.198
-125.253	-200.000	-0.034	-0.154
-124.239	-133.655	-0.148	0.018
-123.224	84.954	0.277	0.302
-122.210	800.000	-0.069	0.253
-121.195	280.920	0.024	0.043
-120.180	-200.000	-0.016	0.115
-119.166	-95.613	-0.133	0.035
-118.151	291.728	0.101	0.182
-117.137	-170.736	0.364	0.012
-116.122	-200.000	-0.025	-0.148
-115.107	-133.993	0.227	0.028
-114.093	100.133	-0.104	0.120
-113.078	800.000	0.098	0.316
-112.064	-200.000	0.016	0.143
-111.049	331.722	0.162	0.311
-110.034	-200.000	-0.059	-0.357
-109.020	21.003	-0.273	-0.220
-108.005	270.463	-0.150	0.262
-106.991	-24.284	-0.010	-0.006
-105.976	-200.000	0.013	0.229
-104.962	288.056	-0.077	0.137
-103.947	-55.696	0.248	0.110
-102.932	-169.588	-0.218	-0.008
-101.918	-200.000	0.019	0.121
-100.903	-40.271	0.217	-0.112
-99.889	-151.432	-0.059	-0.004
-98.874	-57.469	0.315	0.137
-97.859	561.813	-0.142	-0.340
-96.845	-200.000	-0.032	0.193
-95.830	116.975	-0.086	-0.105
-94.816	-57.431	0.244	-0.106
-93.801	800.000	0.087	-0.272
-92.786	-26.627	-0.114	-0.066
-91.772	-40.844	0.163	0.084
-90.757	-200.000	0.011	0.394
-89.743	-200.000	0.010	0.078
-88.728	120.804	0.074	0.091
-87.713	-113.510	0.112	0.022
-86.699	-50.662	-0.183	0.085
-85.684	97.340	-0.073	0.083
-84.670	541.386	-0.093	-0.220
-83.655	217.866	0.191	-0.303
-82.640	-79.825	-0.203	-0.068
-81.626	-113.597	0.180	-0.035
-80.611	-128.344	-0.053	0.007
-79.597	-82.108	-0.268	0.087
-78.582	-187.260	-0.232	-0.003
-77.567	738.390	0.061	-0.161
-76.553	-70.886	0.131	0.049
-75.538	-16.995	0.166	0.104
-74.524	-111.931	-0.453	-0.091
-73.509	166.498	0.075	-0.105
-72.494	-166.972	-0.208	0.008
-71.480	787.848	0.058	0.158
-70.465	-200.000	0.050	0.398
-69.451	-30.673	0.212	0.119
-68.436	185.023	0.055	-0.081
-67.422	74.047	-0.154	-0.160
-66.407	532.681	0.065	0.151
-65.392	481.755	0.053	0.120
-64.378	31.822	0.226	-0.192
-63.363	800.000	0.092	-0.295
-62.349	-110.856	-0.110	-0.022
-61.334	205.411	-0.762	-1.172
-60.319	116.304	0.628	0.763
-59.305	800.000	-0.162	-0.611
-58.290	800.000	0.345	1.042
-57.276	502.318	0.752	1.722
-56.261	-200.000	97.166	595.846
-55.246	524.403	1405.512	3273.669
-54.232	152.494	2595.834	3510.459
-53.217	101.805	2329.316	2690.623
-52.203	37.905	2087.030	1836.810
-51.188	33.003	2000.109	1715.851
-50.173	31.489	1981.192	1685.922
-49.159	46.465	2031.472	1865.734
-48.144	47.537	2049.550	1892.064
-47.130	33.561	2011.456	1730.407
-46.115	31.175	2001.270	1699.872
-45.100	31.128	1997.887	1696.509
-44.086	31.039	1995.777	1693.840
-43.071	31.059	1992.906	1691.519
-42.057	31.000	1990.679	1689.026
-41.042	31.008	1988.794	1687.434
-40.027	31.134	1986.486	1686.541
-39.013	31.104	1985.198	1685.113
-37.998	31.124	1982.976	1683.339
-36.984	31.167	1981.068	1682.039
-35.969	31.168	1979.085	1680.298
-34.954	31.145	1976.934	1678.203
-33.940	31.079	1976.846	1677.469
-32.925	31.252	1973.781	1676.353
-31.911	31.212	1972.611	1674.933
-30.896	31.263	1970.912	1673.881
-29.881	31.360	1969.158	1673.197
-28.867	31.260	1967.917	1671.180
-27.852	31.258	1966.059	1669.513
-26.838	31.303	1963.874	1667.993
-25.823	31.249	1962.550	1666.323
-24.809	31.206	1960.949	1664.510
-23.794	31.241	1959.052	1663.153
-22.779	31.203	1957.114	1661.096
-21.765	31.294	1955.373	1660.369
-20.750	31.228	1953.871	1658.441
-19.736	31.175	1952.677	1656.892
-18.721	31.263	1950.578	1655.820
-17.706	31.228	1949.126	1654.213
-16.692	31.231	1947.355	1652.675
-15.677	31.196	1945.881	1651.042
-14.663	31.209	1944.292	1649.744
-13.648	31.195	1943.367	1648.771
-12.633	31.253	1942.341	1648.347
-11.619	31.213	1940.707	1646.544
-10.604	31.201	1939.358	1645.224
-9.590	31.152	1938.139	1643.697
-8.575	31.195	1936.206	1642.367
-7.560	31.193	1934.899	1641.180
-6.546	31.133	1934.018	1639.843
-5.531	31.188	1932.525	1638.990
-4.517	31.240	1931.026	1638.111
-3.502	31.217	1930.314	1637.236
-2.487	31.241	1928.617	1635.949
-1.473	31.255	1928.072	1635.545
-0.458	31.361	1923.276	1632.332
0.556	29.841	1904.538	1607.290
1.571	25.956	1886.421	1558.359
2.586	22.044	1909.027	1542.599
3.600	21.010	1944.352	1561.747
4.615	20.857	1940.151	1556.870
5.629	16.441	1838.412	1437.617
6.644	6.737	1714.982	1263.635
7.659	1.098	1675.452	1190.205
8.673	0.518	1672.012	1183.114
9.688	0.494	1670.662	1181.865
10.702	0.418	1669.411	1180.278
11.717	0.270	1665.959	1176.582
12.731	0.975	1665.576	1181.708
13.746	7.901	1681.398	1247.245
14.761	16.126	1697.071	1323.563
15.775	18.024	1698.725	1339.629
16.790	17.323	1695.660	1331.608
17.804	16.259	1692.308	1320.537
18.819	15.247	1689.071	1309.985
19.834	14.601	1686.837	1303.099
20.848	14.371	1684.871	1299.669
21.863	14.062	1683.565	1296.139
22.877	13.757	1682.316	1292.683
23.892	13.638	1680.700	1290.399
24.907	13.474	1679.639	1288.198
25.921	13.445	1678.472	1286.962
26.936	13.454	1677.519	1286.190
27.950	13.489	1676.897	1285.869
28.965	13.598	1676.044	1285.952
29.980	13.543	1675.428	1284.934
30.994	13.677	1674.077	1284.820
32.009	13.778	1673.088	1284.730
33.023	13.706	1672.633	1283.710
34.038	13.719	1671.648	1282.942
35.053	13.814	1670.206	1282.455
36.067	13.730	1668.879	1280.675
37.082	13.593	1668.579	1279.278
38.096	13.739	1666.882	1278.990
39.111	13.635	1666.708	1277.935
40.126	13.728	1665.580	1277.673
41.140	13.717	1664.740	1276.834
42.155	13.633	1663.315	1274.983
43.169	13.544	1662.011	1273.184
44.184	13.454	1661.081	1271.669
45.199	13.438	1660.019	1270.622
46.213	13.504	1658.418	1269.792
47.228	13.509	1656.829	1268.498
48.242	13.514	1655.902	1267.713
49.257	13.545	1655.073	1267.203
50.271	13.505	1653.602	1265.663
51.286	13.521	1651.764	1264.261
52.301	13.447	1650.995	1263.000
53.315	13.551	1649.202	1262.306
54.330	13.548	1648.145	1261.362
55.344	13.571	1645.837	1259.663
56.359	13.491	1644.897	1258.224
57.374	13.636	1643.290	1257.982
58.388	13.492	1642.894	1256.480
59.403	13.486	1641.283	1255.091
60.417	13.321	1640.327	1252.999
61.432	13.397	1638.921	1252.388
62.447	13.442	1637.251	1251.340
63.461	13.333	1636.817	1250.073
64.476	13.332	1635.653	1249.067
65.490	13.353	1634.168	1247.981
66.505	13.290	1633.163	1246.629
67.520	13.440	1631.428	1246.322
68.534	13.424	1631.267	1245.972
69.549	13.382	1629.807	1244.428
70.563	13.409	1628.619	1243.613
71.578	13.427	1627.132	1242.500
72.593	13.416	1626.462	1241.797
73.607	13.352	1625.510	1240.478
74.622	13.308	1624.509	1239.281
75.636	13.269	1623.157	1237.845
76.651	13.348	1622.132	1237.545
77.666	13.338	1621.525	1236.898
78.680	13.368	1620.757	1236.425
79.695	13.385	1619.485	1235.477
80.709	13.316	1618.462	1234.067
81.724	13.434	1617.480	1234.093
82.739	13.422	1616.338	1233.019
83.753	13.426	1615.719	1232.473
84.768	13.490	1614.632	1232.007
85.782	13.499	1613.981	1231.467
86.797	13.543	1613.228	1231.114
87.812	13.592	1612.419	1230.747
88.826	13.628	1610.858	1229.720
89.841	13.533	1609.854	1228.138
90.855	13.571	1608.406	1227.207
91.870	13.544	1607.680	1226.345
92.884	13.508	1606.995	1225.448
93.899	13.666	1605.349	1225.251
94.914	13.600	1604.948	1224.344
95.928	13.637	1603.120	1223.115
96.943	13.688	1601.533	1222.172
97.957	13.656	1600.408	1220.973
98.972	13.626	1598.963	1219.543
99.987	13.634	1597.532	1218.399
101.001	13.544	1596.001	1216.462
102.016	13.591	1594.344	1215.441
103.030	13.606	1592.970	1214.396
104.045	13.561	1591.697	1212.985
105.060	13.623	1590.139	1212.146
106.074	13.583	1589.103	1210.955
107.089	13.520	1587.501	1209.170
108.103	13.445	1586.001	1207.369
109.118	13.441	1584.531	1206.113
110.133	13.389	1583.468	1204.821
111.147	13.385	1581.756	1203.385
112.162	13.389	1580.198	1202.121
113.176	13.407	1578.958	1201.199
114.191	13.535	1577.567	1200.962
115.206	13.561	1575.873	1199.761
116.220	13.544	1574.982	1198.848
117.235	13.487	1573.758	1197.403
118.249	13.501	1572.728	1196.612
119.264	13.475	1571.579	1195.447
120.279	13.568	1570.005	1194.814
121.293	13.544	1568.335	1193.263
122.308	13.481	1566.934	1191.638
123.322	13.441	1565.552	1190.191
124.337	13.491	1563.441	1188.846
125.352	13.453	1562.908	1188.061
126.366	13.449	1561.562	1186.905
127.381	13.453	1560.399	1185.943
128.395	13.433	1559.318	1184.873
129.410	13.442	1558.209	1183.990
130.424	13.510	1556.468	1183.045
131.439	13.533	1555.164	1182.117
132.454	13.532	1553.677	1180.876
133.468	13.501	1553.137	1180.139
134.483	13.498	1551.497	1178.763
135.497	13.564	1549.468	1177.590
136.512	13.601	1548.402	1176.937
137.527	13.524	1547.360	1175.494
138.541	13.613	1545.778	1174.822
139.556	13.501	1544.381	1172.858
140.570	13.603	1542.901	1172.352
141.585	13.666	1540.946	1171.213
142.600	13.678	1540.003	1170.477
143.614	13.677	1539.183	1169.739
144.629	13.756	1538.178	1169.433
145.643	13.773	1536.656	1168.291
146.658	13.731	1535.053	1166.675
147.673	13.844	1533.250	1165.995
148.687	13.676	1532.166	1163.885
149.702	13.749	1530.740	1163.212
150.716	13.703	1528.908	1161.397
151.731	13.689	1527.493	1160.119
152.746	13.711	1526.235	1159.218
153.760	13.782	1524.189	1158.057
154.775	13.722	1523.500	1157.008
155.789	13.738	1522.234	1156.055
156.804	13.847	1520.920	1155.718
157.819	13.842	1519.578	1154.560
158.833	13.828	1518.457	1153.505
159.848	13.754	1517.927	1152.489
160.862	13.880	1516.672	1152.309
161.877	13.944	1515.266	1151.585
162.892	14.009	1513.793	1150.812
163.906	13.825	1512.859	1148.724
164.921	13.745	1511.603	1147.118
165.935	13.865	1510.288	1146.847
166.950	13.889	1509.294	1146.156
167.964	13.844	1508.128	1144.861
168.979	13.880	1507.068	1144.202
169.994	13.935	1505.869	1143.570
171.008	13.908	1505.107	1142.705
172.023	13.858	1503.865	1141.317
173.037	13.945	1502.761	1140.975
174.052	14.005	1501.306	1140.179
175.067	14.054	1500.293	1139.648
176.081	13.999	1499.050	1138.226
177.096	13.949	1498.001	1136.983
178.110	13.913	1496.628	1135.593
179.125	13.960	1495.502	1134.960
180.140	13.901	1494.541	1133.730
181.154	13.970	1493.409	1133.241
182.169	13.967	1492.643	1132.539
183.183	14.002	1491.339	1131.689
184.198	14.008	1490.607	1131.076
185.213	14.134	1488.669	1130.362
186.227	14.069	1488.047	1129.348
187.242	14.095	1487.022	1128.644
188.256	14.141	1485.739	1127.880
189.271	14.220	1484.396	1127.300
190.286	14.246	1483.427	1126.641
191.300	14.137	1482.920	1125.416
192.315	14.001	1481.189	1123.087
193.329	13.988	1479.747	1121.803
194.344	13.951	1478.681	1120.649
195.359	13.972	1477.511	1119.802
196.373	14.038	1476.890	1119.676
197.388	14.020	1476.140	1118.889
198.402	14.198	1474.563	1118.788
199.417	14.136	1473.415	1117.401
200.432	14.259	1472.542	1117.466
201.446	14.364	1471.463	1117.254
202.461	14.413	1470.266	1116.576
203.475	14.387	1468.948	1115.301
204.490	14.434	1468.057	1114.844
205.504	14.436	1466.832	1113.824
206.519	14.371	1466.030	1112.686
207.534	14.457	1464.404	1111.923
208.548	14.366	1463.595	1110.606
209.563	14.379	1462.631	1109.865
210.577	14.362	1461.301	1108.644
211.592	14.402	1460.687	1108.344
212.607	14.320	1460.519	1107.571
213.621	14.513	1459.501	1107.985
214.636	14.445	1458.491	1106.669
215.650	14.529	1457.269	1106.202
216.665	14.483	1456.423	1105.156
217.680	14.439	1456.095	1104.519
218.694	14.593	1454.955	1104.577
219.709	14.670	1453.921	1104.203
220.723	14.686	1452.503	1103.135
221.738	14.568	1451.936	1101.825
222.753	14.563	1451.199	1101.134
223.767	14.598	1450.100	1100.434
224.782	14.620	1448.718	1099.433
225.796	14.640	1448.347	1099.186
226.811	14.672	1447.502	1098.657
227.826	14.798	1446.437	1098.583
228.840	14.718	1445.540	1097.281
229.855	14.576	1445.000	1095.839
230.869	14.698	1443.644	1095.515
231.884	14.701	1442.467	1094.544
232.899	14.751	1441.249	1093.850
233.913	14.660	1440.674	1092.722
234.928	14.641	1439.566	1091.661
235.942	14.658	1438.116	1090.575
236.957	14.591	1437.001	1089.192
237.972	14.622	1436.159	1088.662
238.986	14.642	1434.717	1087.605
240.001	14.709	1433.702	1087.174
241.015	14.743	1432.225	1086.179
242.030	14.652	1431.994	1085.317
243.045	14.708	1430.714	1084.615
244.059	14.790	1429.985	1084.496
245.074	14.761	1428.881	1083.376
246.088	14.728	1428.431	1082.723
247.103	14.876	1427.288	1082.720
248.117	14.942	1426.342	1082.334
249.132	14.892	1425.810	1081.511
250.147	14.938	1425.337	1081.355
251.161	15.045	1424.508	1081.323
252.176	15.044	1423.906	1080.761
253.190	15.057	1423.268	1080.269
254.205	15.139	1422.126	1079.836
255.220	15.148	1421.435	1079.274
256.234	15.198	1420.679	1078.924
257.249	15.203	1419.790	1078.182
258.263	15.253	1418.770	1077.638
259.278	15.087	1418.353	1076.158
260.293	15.206	1417.075	1075.858
261.307	15.258	1416.181	1075.415
262.322	15.268	1415.450	1074.828
263.336	15.358	1414.562	1074.636
264.351	15.367	1413.461	1073.762
265.366	15.382	1412.648	1073.144
266.380	15.382	1411.682	1072.319
267.395	15.432	1410.506	1071.648
268.409	15.497	1409.524	1071.220
269.424	15.390	1408.973	1070.027
270.439	15.328	1408.061	1068.846
271.453	15.347	1406.630	1067.785
272.468	15.441	1405.974	1067.789
273.482	15.403	1404.990	1066.710
274.497	15.320	1404.526	1065.730
275.512	15.423	1403.066	1065.187
276.526	15.428	1402.580	1064.755
277.541	15.402	1401.352	1063.562
278.555	15.402	1400.744	1063.008
279.570	15.518	1399.412	1062.633
280.585	15.504	1398.694	1061.907
281.599	15.448	1398.021	1060.949
282.614	15.499	1397.510	1060.792
283.628	15.515	1395.836	1059.529
284.643	15.555	1394.904	1058.978
285.657	15.535	1393.841	1057.949
286.672	15.577	1392.919	1057.421
287.687	15.624	1392.051	1056.967
288.701	15.667	1391.094	1056.413
289.716	15.556	1390.624	1055.270
290.730	15.641	1389.658	1054.974
291.745	15.716	1388.147	1054.201
292.760	15.678	1387.363	1053.279
293.774	15.600	1386.430	1051.985
294.789	15.580	1385.658	1051.184
295.803	15.818	1384.663	1051.821
296.818	15.708	1384.072	1050.594
297.833	15.741	1382.919	1049.832
298.847	15.816	1381.802	1049.358
299.862	15.768	1380.633	1048.080
300.876	15.827	1380.028	1047.896
301.891	15.790	1379.185	1046.929
302.906	15.772	1378.570	1046.258
303.920	15.884	1377.701	1046.201
304.935	15.832	1376.792	1045.096
305.949	15.882	1375.851	1044.601
306.964	15.929	1375.420	1044.474
307.979	16.082	1374.020	1044.267
308.993	16.002	1373.137	1043.008
310.008	15.882	1372.777	1041.895
311.022	15.966	1371.514	1041.370
312.037	16.012	1370.095	1040.482
313.052	16.069	1369.247	1040.097
314.066	15.981	1368.478	1038.879
315.081	15.976	1367.528	1038.035
316.095	15.931	1366.254	1036.696
317.110	15.871	1365.210	1035.448
318.125	15.898	1364.937	1035.314
319.139	15.987	1363.413	1034.609
320.154	15.951	1362.690	1033.749
321.168	15.934	1361.639	1032.755
322.183	16.048	1360.502	1032.500
323.197	15.995	1360.309	1031.941
324.212	16.097	1359.139	1031.586
325.227	16.063	1358.193	1030.568
326.241	16.053	1357.167	1029.637
327.256	16.034	1356.484	1028.912
328.270	16.136	1355.165	1028.442
329.285	16.130	1354.158	1027.551
330.300	16.038	1353.782	1026.613
331.314	16.149	1352.540	1026.259
332.329	16.158	1351.447	1025.391
333.343	16.131	1351.281	1025.009
334.358	16.111	1350.203	1023.980
335.373	16.151	1349.826	1023.846
336.387	16.197	1348.680	1023.166
337.402	16.214	1347.865	1022.561
338.416	16.392	1347.067	1022.942
339.431	16.351	1346.470	1022.150
340.446	16.304	1345.887	1021.331
341.460	16.353	1344.645	1020.595
342.475	16.409	1343.583	1020.038
343.489	16.385	1342.748	1019.167
344.504	16.320	1342.275	1018.329
345.519	16.539	1340.789	1018.431
346.533	16.406	1340.613	1017.406
347.548	16.593	1339.282	1017.431
348.562	16.540	1338.439	1016.379
349.577	16.567	1337.252	1015.552
350.592	16.567	1336.730	1015.066
351.606	16.492	1336.061	1014.017
352.621	16.426	1335.108	1012.811
353.635	16.373	1334.219	1011.728
354.650	16.514	1332.861	1011.452
355.665	16.459	1332.478	1010.741
356.679	16.447	1331.437	1009.795
357.694	16.601	1329.854	1009.419
358.708	16.538	1328.803	1008.159
359.723	16.674	1327.201	1007.661
360.738	16.583	1326.507	1006.504
361.752	16.559	1326.115	1005.975
362.767	16.643	1324.721	1005.330
363.781	16.617	1324.001	1004.538
364.796	16.672	1323.368	1004.295
365.810	16.609	1322.605	1003.254
366.825	16.783	1321.862	1003.635
367.840	16.806	1320.892	1002.942
368.854	16.836	1320.132	1002.455
369.869	16.787	1320.342	1002.238
370.883	16.880	1319.191	1001.825
371.898	16.958	1318.261	1001.489
372.913	16.876	1317.391	1000.256
373.927	16.982	1316.115	999.824
374.942	16.958	1315.548	999.161
375.956	16.880	1315.101	998.277
376.971	16.861	1314.353	997.508
377.986	16.932	1313.064	996.859
379.000	16.935	1312.292	996.200
380.015	16.936	1311.647	995.632
381.029	17.003	1311.393	995.745
382.044	17.046	1310.482	995.216
383.059	17.094	1309.513	994.673
384.073	17.070	1308.858	993.948
385.088	17.007	1308.416	993.152
386.102	17.066	1307.659	992.837
387.117	17.115	1306.667	992.284
388.132	17.247	1305.875	992.366
389.146	17.134	1305.280	991.163
390.161	17.161	1304.374	990.545
391.175	17.057	1303.749	989.376
392.190	17.115	1302.491	988.671
393.205	17.101	1301.933	988.082
394.219	17.163	1300.760	987.465
395.234	17.182	1299.643	986.640
396.248	17.172	1298.315	985.482
397.263	17.158	1296.943	984.277
398.278	17.158	1295.494	983.089
399.292	17.250	1294.364	982.676
400.307	17.224	1293.554	981.824
401.321	17.219	1292.462	980.879
402.336	17.198	1291.735	980.118
403.350	17.137	1290.922	979.066
404.365	17.174	1289.564	978.162
405.380	17.245	1288.575	977.730
406.394	17.138	1288.364	976.868
407.409	17.227	1287.803	976.872
408.423	17.251	1286.738	976.117
409.438	17.428	1285.641	976.213
410.453	17.357	1285.408	975.541
411.467	17.499	1284.529	975.600
412.482	17.526	1283.970	975.242
413.496	17.520	1283.460	974.738
414.511	17.604	1282.502	974.402
415.526	17.479	1282.428	973.544
416.540	17.544	1281.181	972.886
417.555	17.564	1280.336	972.269
418.569	17.639	1279.873	972.263
419.584	17.643	1279.238	971.717
420.599	17.681	1278.672	971.418
421.613	94.131	1349.635	1462.392
422.628	92.127	1359.935	1462.539
