DTS Sentinel unit serial number:	SN413079Multiplexer serial number:	ORYXHardware model number:	OX4-SRSoftware version number:	ORYX F/W v4.00 Oryx Data Collector v3.7.2.0data status	okinstallation	princeton_trtdifferential loss correction	single-endedforward channel	channel 4reverse channel	N/Adate	2019/09/13time	20:49:34forward acquisition time	60.00reverse acquisition time	0.00gamma	496.2192k internal	0.2319k external	0.2319temperature offset calibration	1.0133default loss term (dB/km)	0.3790temperature slope calibration	1.0000multiplexer offset coefficient	1.0000multiplexer slope coefficient	1.0000fibre end	0.00T internal ref (°C)	28.78T ext. ref 1 (°C)	3.20T ext. ref 2 (°C)	23.35length (m)	temperature (°C)	Stokes	anti-Stokes-747.200	-200.000	-0.003	0.085
-746.185	19.087	0.213	-0.173
-745.171	800.000	0.088	-0.324
-744.156	-200.000	-0.043	0.261
-743.142	800.000	0.121	-0.384
-742.127	674.888	-0.120	-0.314
-741.112	275.514	0.205	-0.368
-740.098	-200.000	0.039	0.178
-739.083	-99.004	0.070	-0.018
-738.069	39.450	-0.078	-0.071
-737.054	800.000	0.042	0.141
-736.039	-74.171	-0.432	-0.158
-735.025	-105.740	0.241	-0.055
-734.010	-200.000	-0.003	0.031
-732.996	-33.269	0.168	-0.094
-731.981	800.000	0.078	0.237
-730.966	-125.681	-0.103	-0.016
-729.952	-200.000	0.065	0.422
-728.937	-134.654	0.059	0.007
-727.923	-200.000	0.023	-0.293
-726.908	-13.684	-0.248	0.162
-725.894	385.459	-0.076	0.159
-724.879	-41.465	0.160	0.083
-723.864	407.760	0.061	-0.130
-722.850	-93.366	-0.114	-0.032
-721.835	-64.612	0.166	-0.068
-720.821	-124.019	-0.246	0.039
-719.806	-144.015	-0.276	0.026
-718.791	-76.061	0.303	-0.108
-717.777	463.656	-0.131	-0.296
-716.762	-87.186	-0.212	0.065
-715.748	-54.909	0.309	0.141
-714.733	-147.662	-0.179	0.015
-713.718	752.093	0.037	0.102
-712.704	-200.000	0.011	-0.385
-711.689	296.351	0.187	0.346
-710.675	-109.616	-0.630	-0.134
-709.660	301.943	-0.202	-0.377
-708.645	-22.765	0.120	0.073
-707.631	34.775	-0.059	-0.052
-706.616	-80.560	0.147	-0.049
-705.602	-13.241	-0.285	-0.187
-704.587	800.000	-0.125	0.363
-703.572	-139.641	-0.125	-0.014
-702.558	630.140	0.043	0.109
-701.543	800.000	-0.106	0.341
-700.529	-40.983	0.255	-0.133
-699.514	800.000	0.059	-0.215
-698.499	-57.389	0.177	-0.078
-697.485	-134.158	-0.222	0.028
-696.470	34.478	0.076	0.067
-695.456	800.000	0.068	0.205
-694.441	-109.537	-0.144	0.031
-693.426	383.315	0.142	-0.295
-692.412	-8.140	0.274	-0.187
-691.397	-24.178	0.021	-0.013
-690.383	5.691	0.253	0.189
-689.368	-126.541	-0.108	0.016
-688.354	-200.000	0.030	-0.219
-687.339	-200.000	0.023	-0.106
-686.324	60.989	-0.174	0.174
-685.310	113.600	-0.168	0.205
-684.295	-41.664	-0.150	-0.078
-683.281	800.000	-0.068	0.190
-682.266	89.421	0.158	0.178
-681.251	374.497	-0.053	0.110
-680.237	-120.699	0.351	-0.060
-679.222	97.219	-0.305	0.354
-678.208	-200.000	0.019	0.159
-677.193	178.097	-0.084	-0.123
-676.178	800.000	-0.033	-0.110
-675.164	-103.231	0.236	-0.056
-674.149	-98.845	-0.460	-0.118
-673.135	-85.109	0.315	0.099
-672.120	-200.000	0.003	-0.050
-671.105	25.573	0.137	0.115
-670.091	-200.000	-0.000	0.319
-669.076	155.848	-0.196	-0.272
-668.062	-127.138	0.425	-0.063
-667.047	-34.730	-0.242	-0.133
-666.032	-92.843	0.123	-0.035
-665.018	800.000	-0.064	0.214
-664.003	-52.694	0.206	-0.096
-662.989	175.810	-0.034	0.049
-661.974	800.000	0.057	0.194
-660.959	800.000	-0.077	0.226
-659.945	-200.000	0.000	0.180
-658.930	-200.000	-0.109	0.684
-657.916	-200.000	0.022	0.541
-656.901	70.363	-0.069	-0.072
-655.886	23.735	0.248	0.206
-654.872	-161.471	-0.160	0.008
-653.857	241.192	-0.129	-0.216
-652.843	72.921	0.256	0.270
-651.828	-68.592	0.222	0.087
-650.814	36.577	0.098	0.087
-649.799	84.623	-0.069	0.076
-648.784	72.017	-0.120	0.125
-647.770	-25.256	0.063	0.037
-646.755	44.478	0.129	0.119
-645.741	142.529	0.171	-0.229
-644.726	42.871	-0.308	-0.283
-643.711	526.379	0.075	-0.177
-642.697	207.062	0.089	0.140
-641.682	601.707	-0.143	-0.359
-640.668	-200.000	0.011	0.345
-639.653	-24.387	-0.154	-0.093
-638.638	0.619	0.115	-0.083
-637.624	-200.000	-0.015	-0.083
-636.609	800.000	-0.072	0.247
-635.595	47.563	0.277	-0.260
-634.580	-39.653	0.177	-0.093
-633.565	190.555	0.190	-0.288
-632.551	-117.149	0.148	0.027
-631.536	-167.257	0.309	-0.013
-630.522	-1.676	-0.113	-0.081
-629.507	196.039	0.197	-0.301
-628.492	374.717	0.038	-0.078
-627.478	226.579	-0.255	0.416
-626.463	-200.000	-0.005	0.429
-625.449	-57.152	-0.219	-0.097
-624.434	-109.894	0.343	0.072
-623.419	-129.100	0.340	0.048
-622.405	800.000	0.038	0.119
-621.390	182.483	0.086	0.127
-620.376	-200.000	-0.007	-0.093
-619.361	-83.816	0.132	-0.043
-618.346	-200.000	0.046	-0.313
-617.332	163.775	0.277	-0.393
-616.317	-5.835	-0.194	-0.134
-615.303	-99.490	0.267	-0.068
-614.288	589.978	-0.151	0.375
-613.273	-31.703	-0.203	-0.115
-612.259	-30.090	0.072	-0.041
-611.244	35.600	-0.322	-0.285
-610.230	-15.111	-0.166	0.107
-609.215	210.281	-0.038	0.060
-608.201	-200.000	0.006	-0.278
-607.186	-24.313	-0.024	-0.014
-606.171	-73.287	-0.145	0.053
-605.157	-119.026	0.120	0.021
-604.142	-108.905	0.229	-0.049
-603.128	-200.000	0.007	0.148
-602.113	-200.000	0.007	-0.113
-601.098	104.570	-0.200	0.236
-600.084	-58.281	-0.310	-0.136
-599.069	-200.000	-0.009	-0.040
-598.055	-163.085	0.351	-0.017
-597.040	-41.842	-0.344	-0.177
-596.025	-40.071	-0.267	0.140
-595.011	800.000	0.049	-0.151
-593.996	-98.674	-0.260	0.067
-592.982	-119.739	0.068	-0.012
-591.967	-186.045	0.139	0.002
-590.952	-200.000	-0.051	0.352
-589.938	444.355	-0.126	-0.279
-588.923	-200.000	-0.006	-0.095
-587.909	800.000	-0.064	-0.197
-586.894	160.243	0.082	-0.115
-585.879	-66.386	-0.328	-0.131
-584.865	-200.000	0.024	-0.236
-583.850	310.023	0.059	0.110
-582.836	-139.984	-0.521	-0.055
-581.821	-65.340	0.229	-0.093
-580.806	-200.000	0.073	0.384
-579.792	-87.835	0.282	0.085
-578.777	759.063	0.048	0.130
-577.763	356.744	-0.040	0.079
-576.748	-200.000	-0.029	-0.145
-575.733	-39.783	-0.036	0.019
-574.719	-81.812	-0.163	0.054
-573.704	-69.176	-0.183	-0.071
-572.690	66.237	-0.033	-0.034
-571.675	-200.000	-0.013	0.389
-570.661	347.914	-0.152	0.302
-569.646	-94.199	0.297	-0.082
-568.631	800.000	-0.046	-0.145
-567.617	70.164	-0.153	-0.158
-566.602	-191.877	0.253	-0.002
-565.588	-200.000	-0.049	-0.221
-564.573	-71.997	0.209	-0.078
-563.558	-38.725	-0.024	-0.013
-562.544	458.723	-0.118	0.264
-561.529	-200.000	-0.038	0.172
-560.515	700.900	-0.030	-0.079
-559.500	-56.453	-0.423	0.188
-558.485	51.274	0.195	0.186
-557.471	92.834	0.171	0.194
-556.456	-75.585	0.229	-0.082
-555.442	-22.256	-0.063	-0.038
-554.427	-138.431	0.188	0.021
-553.412	184.750	0.171	-0.255
-552.398	-48.367	0.157	0.076
-551.383	800.000	0.048	-0.150
-550.369	143.301	0.178	0.238
-549.354	180.792	-0.089	0.131
-548.339	167.505	0.107	-0.152
-547.325	43.373	-0.157	0.144
-546.310	563.665	-0.118	-0.286
-545.296	27.992	-0.134	0.113
-544.281	-200.000	-0.007	-0.228
-543.266	-113.691	0.141	-0.028
-542.252	-144.535	0.350	0.032
-541.237	173.017	0.153	-0.221
-540.223	-130.710	0.423	-0.057
-539.208	-200.000	-0.039	-0.180
-538.193	-200.000	0.020	-0.218
-537.179	19.578	-0.209	0.169
-536.164	-200.000	-0.062	0.357
-535.150	-18.984	0.052	-0.032
-534.135	659.338	-0.114	-0.294
-533.121	-179.673	-0.211	0.005
-532.106	127.744	-0.173	0.221
-531.091	-117.878	0.244	0.044
-530.077	-114.786	-0.239	-0.046
-529.062	-200.000	-0.032	-0.213
-528.048	398.648	-0.103	-0.216
-527.033	296.116	0.126	-0.232
-526.018	-186.517	-0.267	-0.004
-525.004	-77.247	-0.304	-0.106
-523.989	-41.943	-0.130	-0.067
-522.975	-131.020	-0.099	-0.013
-521.960	-82.902	0.241	0.078
-520.945	781.060	-0.068	0.187
-519.931	-91.993	-0.301	0.085
-518.916	43.972	-0.171	-0.157
-517.902	-20.062	-0.097	-0.060
-516.887	183.621	-0.032	-0.047
-515.872	-126.174	0.252	0.038
-514.858	-99.703	-0.186	-0.047
-513.843	-200.000	-0.017	-0.156
-512.829	-18.847	-0.268	-0.168
-511.814	149.225	0.043	-0.058
-510.799	-118.418	-0.222	0.039
-509.785	-40.401	-0.277	-0.144
-508.770	284.248	-0.035	0.063
-507.756	323.538	-0.058	0.110
-506.741	-97.847	-0.585	0.151
-505.726	-200.000	0.001	0.010
-504.712	9.871	-0.237	-0.180
-503.697	800.000	0.092	0.287
-502.683	149.814	0.160	-0.217
-501.668	797.159	-0.120	-0.332
-500.653	3.159	0.110	-0.080
-499.639	-200.000	0.019	0.209
-498.624	-200.000	0.031	0.406
-497.610	-95.257	0.470	0.127
-496.595	752.609	-0.133	-0.361
-495.581	-128.273	-0.272	-0.039
-494.566	-94.569	0.139	0.038
-493.551	-95.080	-0.214	0.058
-492.537	115.892	-0.189	0.232
-491.522	242.088	0.209	0.350
-490.508	409.787	0.063	-0.134
-489.493	-200.000	-0.028	0.210
-488.478	545.354	-0.095	0.228
-487.464	106.787	0.030	0.036
-486.449	-26.259	0.057	0.033
-485.435	127.572	-0.107	0.137
-484.420	800.000	0.072	0.299
-483.405	-80.378	-0.288	0.096
-482.391	-200.000	0.076	0.356
-481.376	-84.008	0.227	0.072
-480.362	583.064	-0.039	-0.096
-479.347	80.335	-0.091	0.099
-478.332	-167.507	0.323	-0.013
-477.318	800.000	-0.071	0.209
-476.303	800.000	0.081	0.266
-475.289	68.460	0.008	0.008
-474.274	70.436	0.301	-0.311
-473.259	520.218	-0.056	0.131
-472.245	179.253	0.030	0.045
-471.230	-108.984	-0.202	-0.043
-470.216	-200.000	-0.031	-0.353
-469.201	262.323	0.146	-0.253
-468.186	544.955	0.059	-0.142
-467.172	-200.000	0.029	0.278
-466.157	-200.000	-0.002	-0.143
-465.143	800.000	-0.112	-0.443
-464.128	118.099	0.089	0.109
-463.113	127.981	-0.215	0.274
-462.099	800.000	-0.037	-0.135
-461.084	-181.957	-0.193	-0.004
-460.070	-110.779	0.499	-0.103
-459.055	63.346	-0.185	0.185
-458.040	192.091	0.038	0.057
-457.026	-99.473	0.194	0.049
-456.011	185.784	-0.265	0.393
-454.997	20.700	0.100	0.081
-453.982	-200.000	0.006	-0.068
-452.968	274.485	0.089	0.158
-451.953	-200.000	0.044	-0.237
-450.938	443.260	-0.113	-0.247
-449.924	245.246	0.065	-0.110
-448.909	-69.796	0.169	0.065
-447.895	-200.000	-0.025	-0.150
-446.880	-97.810	-0.216	-0.056
-445.865	449.237	0.057	-0.125
-444.851	130.638	0.172	-0.220
-443.836	-200.000	-0.028	-0.166
-442.822	-103.486	0.054	-0.013
-441.807	800.000	0.088	-0.258
-440.792	800.000	0.036	-0.146
-439.778	-183.681	0.226	-0.004
-438.763	-200.000	0.022	0.137
-437.749	-165.599	0.048	-0.002
-436.734	-166.528	0.086	0.004
-435.719	-103.484	0.199	0.047
-434.705	-64.523	0.072	-0.029
-433.690	255.942	0.082	-0.140
-432.676	332.007	-0.055	0.105
-431.661	17.907	0.243	-0.193
-430.646	-200.000	0.053	-0.289
-429.632	-131.665	-0.289	0.038
-428.617	-134.058	0.189	-0.023
-427.603	-15.983	-0.241	-0.153
-426.588	-200.000	0.023	-0.321
-425.573	-200.000	-0.003	0.064
-424.559	-59.819	-0.448	-0.192
-423.544	-134.534	-0.149	-0.018
-422.530	800.000	0.040	-0.119
-421.515	-200.000	-0.052	-0.250
-420.500	-54.367	-0.224	0.101
-419.486	-200.000	0.039	0.273
-418.471	-200.000	-0.041	0.339
-417.457	102.871	-0.208	-0.243
-416.442	-103.407	0.127	-0.030
-415.428	-15.245	-0.213	0.136
-414.413	-200.000	-0.019	0.112
-413.398	-175.589	-0.230	0.006
-412.384	-74.186	0.195	-0.071
-411.369	-200.000	0.069	-0.313
-410.355	-200.000	0.021	-0.391
-409.340	-75.599	0.266	0.095
-408.325	-200.000	0.002	-0.045
-407.311	40.999	0.219	-0.197
-406.296	67.204	-0.033	0.033
-405.282	-95.944	0.275	0.073
-404.267	-110.450	0.219	-0.045
-403.252	23.213	-0.192	-0.157
-402.238	-134.847	-0.097	-0.012
-401.223	-200.000	0.042	-0.413
-400.209	-200.000	-0.024	-0.201
-399.194	-149.966	-0.080	-0.006
-398.179	-120.314	0.221	-0.038
-397.165	413.482	-0.041	0.087
-396.150	800.000	-0.062	0.189
-395.136	-112.259	-0.254	0.051
-394.121	71.183	-0.036	-0.038
-393.106	-85.483	0.239	-0.074
-392.092	37.801	0.100	-0.089
-391.077	-37.156	-0.067	-0.036
-390.063	-28.361	0.297	0.171
-389.048	-94.150	0.124	-0.034
-388.033	333.846	-0.100	0.193
-387.019	-116.227	-0.083	0.015
-386.004	-200.000	0.031	0.134
-384.990	-98.642	-0.192	0.049
-383.975	-88.120	-0.303	-0.091
-382.960	60.046	0.180	-0.178
-381.946	-138.464	-0.284	0.031
-380.931	101.679	0.151	-0.175
-379.917	-148.853	0.284	-0.023
-378.902	-111.075	-0.071	-0.015
-377.888	-14.125	-0.077	-0.049
-376.873	800.000	-0.074	0.283
-375.858	114.941	-0.034	0.041
-374.844	800.000	-0.119	-0.474
-373.829	321.074	0.015	-0.029
-372.815	800.000	0.091	0.270
-371.800	38.542	-0.096	0.086
-370.785	108.433	0.233	0.277
-369.771	28.927	-0.103	0.087
-368.756	-200.000	-0.021	0.374
-367.742	-10.685	-0.115	0.076
-366.727	7.025	0.276	-0.205
-365.712	-146.582	-0.234	-0.020
-364.698	84.341	-0.156	0.170
-363.683	118.009	0.098	0.121
-362.669	249.308	0.191	0.322
-361.654	-200.000	-0.023	0.173
-360.639	800.000	0.108	0.369
-359.625	242.259	-0.037	0.062
-358.610	-62.286	-0.074	-0.031
-357.596	32.506	-0.215	-0.185
-356.581	127.115	-0.067	0.085
-355.566	-135.892	0.181	-0.021
-354.552	-54.874	0.183	0.082
-353.537	86.746	0.207	-0.228
-352.523	800.000	0.071	0.271
-351.508	-93.264	-0.153	-0.042
-350.493	800.000	-0.108	-0.326
-349.479	-53.139	0.299	-0.137
-348.464	-89.689	-0.280	0.082
-347.450	-23.581	0.300	0.180
-346.435	71.159	-0.223	0.231
-345.420	-19.667	-0.253	0.156
-344.406	-171.815	0.122	0.004
-343.391	-150.536	0.250	-0.019
-342.377	-200.000	-0.001	0.048
-341.362	-200.000	0.058	-0.393
-340.348	-52.887	0.129	-0.059
-339.333	-83.401	-0.288	0.092
-338.318	-58.664	0.157	0.068
-337.304	-74.447	-0.147	0.053
-336.289	-200.000	0.028	-0.162
-335.275	25.723	0.187	-0.155
-334.260	579.717	-0.035	-0.086
-333.245	800.000	0.029	0.105
-332.231	134.897	0.105	0.136
-331.216	800.000	-0.070	-0.234
-330.202	-145.794	-0.167	-0.015
-329.187	-17.150	-0.098	0.061
-328.172	-133.160	0.134	0.017
-327.158	-173.886	-0.236	-0.007
-326.143	-24.995	-0.179	0.106
-325.129	800.000	0.079	0.223
-324.114	209.074	0.029	0.044
-323.099	57.945	-0.235	0.229
-322.085	107.592	0.164	-0.194
-321.070	160.891	0.287	0.399
-320.056	168.360	-0.038	0.054
-319.041	-200.000	-0.037	-0.176
-318.026	-145.615	0.061	0.005
-317.012	2.186	-0.137	0.099
-315.997	-19.946	-0.132	-0.081
-314.983	170.029	0.133	0.189
-313.968	800.000	-0.141	-0.404
-312.953	-25.625	-0.176	-0.104
-311.939	132.987	0.176	0.226
-310.924	-110.512	-0.306	0.063
-309.910	-37.070	-0.066	0.035
-308.895	44.567	0.043	-0.039
-307.880	-200.000	0.022	-0.268
-306.866	-157.640	-0.351	-0.021
-305.851	247.898	-0.119	0.200
-304.837	63.032	0.195	0.194
-303.822	-200.000	0.018	0.321
-302.807	36.239	0.082	0.072
-301.793	-200.000	-0.006	-0.278
-300.778	34.268	-0.305	-0.265
-299.764	45.448	0.130	-0.120
-298.749	-160.538	0.200	-0.011
-297.735	189.359	-0.151	0.226
-296.720	-112.391	0.331	-0.066
-295.705	-110.264	-0.101	-0.021
-294.691	-83.973	0.155	0.049
-293.676	152.592	-0.069	-0.094
-292.662	-143.842	0.146	0.014
-291.647	39.132	-0.122	-0.109
-290.632	172.356	-0.195	-0.279
-289.618	199.017	0.211	-0.321
-288.603	-200.000	-0.015	-0.099
-287.589	-200.000	-0.013	0.100
-286.574	-67.502	-0.204	-0.080
-285.559	-116.058	0.199	0.037
-284.545	-200.000	0.063	-0.434
-283.530	89.099	0.147	0.162
-282.516	-106.582	0.120	-0.027
-281.501	198.903	0.133	-0.203
-280.486	191.953	0.123	-0.185
-279.472	134.803	-0.149	0.192
-278.457	574.327	0.075	-0.182
-277.443	468.961	0.035	0.078
-276.428	-19.031	0.116	-0.072
-275.413	-200.000	0.044	0.419
-274.399	-176.675	-0.255	-0.006
-273.384	-116.879	-0.248	-0.045
-272.370	321.806	-0.082	0.156
-271.355	15.449	0.358	0.279
-270.340	153.748	-0.125	0.170
-269.326	-200.000	-0.017	-0.121
-268.311	553.113	0.086	0.205
-267.297	-200.000	0.070	0.317
-266.282	427.847	-0.098	0.210
-265.267	-80.124	-0.343	-0.114
-264.253	-200.000	-0.022	0.135
-263.238	-37.363	0.122	-0.064
-262.224	70.730	-0.380	-0.390
-261.209	-200.000	-0.000	0.006
-260.195	-200.000	0.046	0.338
-259.180	-68.820	0.451	-0.173
-258.165	766.680	-0.180	0.485
-257.151	800.000	-0.060	0.170
-256.136	-126.110	-0.195	0.029
-255.122	-200.000	-0.016	-0.105
-254.107	81.086	-0.086	-0.092
-253.092	-166.448	0.129	-0.005
-252.078	-112.568	0.322	0.064
-251.063	-68.231	-0.145	0.056
-250.049	-117.692	-0.068	0.012
-249.034	9.769	-0.127	-0.096
-248.019	112.212	0.169	-0.203
-247.005	-96.025	0.107	0.028
-245.990	-83.836	0.308	-0.098
-244.976	800.000	0.103	-0.342
-243.961	800.000	0.076	0.209
-242.946	800.000	0.115	0.383
-241.932	558.205	0.080	-0.191
-240.917	448.267	0.106	-0.232
-239.903	-61.923	0.087	0.036
-238.888	332.790	0.040	-0.077
-237.873	-200.000	0.002	0.313
-236.859	20.619	-0.122	0.098
-235.844	23.224	0.049	-0.040
-234.830	-40.154	-0.200	-0.103
-233.815	297.728	-0.043	0.079
-232.800	-128.010	0.265	0.038
-231.786	-200.000	0.028	0.242
-230.771	800.000	0.080	0.230
-229.757	-39.430	0.186	0.097
-228.742	-94.828	0.083	0.022
-227.727	417.265	0.186	-0.394
-226.713	800.000	0.027	0.110
-225.698	176.065	0.059	-0.085
-224.684	27.150	-0.280	0.233
-223.669	-195.490	0.167	0.001
-222.655	-200.000	-0.001	-0.040
-221.640	4.660	0.185	0.135
-220.625	-98.835	0.148	0.037
-219.611	-127.796	0.186	-0.027
-218.596	800.000	0.059	0.188
-217.582	150.874	-0.188	-0.253
-216.567	-156.776	0.410	-0.025
-215.552	-62.062	0.146	0.060
-214.538	800.000	0.033	0.128
-213.523	119.034	-0.253	0.310
-212.509	800.000	0.067	0.275
-211.494	-145.874	-0.142	0.012
-210.479	-200.000	0.001	-0.255
-209.465	-200.000	-0.024	0.115
-208.450	800.000	-0.092	-0.332
-207.436	800.000	-0.030	0.098
-206.421	196.411	-0.105	0.158
-205.406	331.084	-0.043	0.082
-204.392	-93.804	-0.344	-0.094
-203.377	191.361	0.074	-0.110
-202.363	-200.000	0.025	0.310
-201.348	-200.000	-0.018	-0.290
-200.333	-95.577	-0.333	0.088
-199.319	12.472	0.268	0.204
-198.304	79.623	0.185	0.196
-197.290	800.000	-0.096	0.309
-196.275	-200.000	0.053	0.285
-195.260	-164.439	-0.029	-0.001
-194.246	800.000	0.018	-0.070
-193.231	-33.228	-0.069	0.038
-192.217	447.205	-0.046	0.099
-191.202	306.396	0.105	-0.194
-190.187	-85.305	0.240	-0.074
-189.173	-149.440	0.100	-0.008
-188.158	-3.417	-0.169	0.116
-187.144	-55.612	-0.177	0.078
-186.129	-41.088	-0.124	-0.063
-185.114	-200.000	-0.027	0.350
-184.100	29.619	0.155	-0.131
-183.085	-200.000	-0.003	0.391
-182.071	302.091	0.168	0.307
-181.056	79.675	-0.384	-0.407
-180.042	-58.471	0.141	0.061
-179.027	-143.123	0.118	0.011
-178.012	145.882	-0.147	-0.195
-176.998	-200.000	-0.027	0.220
-175.983	314.227	-0.044	0.083
-174.969	94.081	-0.187	-0.210
-173.954	226.091	0.200	0.322
-172.939	800.000	-0.058	0.243
-171.925	-25.959	-0.206	-0.120
-170.910	260.765	0.018	-0.031
-169.896	-145.219	0.223	-0.020
-168.881	-200.000	0.019	-0.194
-167.866	56.003	-0.123	-0.118
-166.852	-200.000	-0.010	-0.241
-165.837	-96.672	-0.285	0.074
-164.823	-73.683	-0.196	-0.071
-163.808	21.205	0.117	-0.094
-162.793	54.998	-0.117	-0.112
-161.779	-200.000	0.038	-0.166
-160.764	-73.903	0.228	-0.082
-159.750	751.748	-0.024	0.063
-158.735	25.792	-0.137	0.113
-157.720	12.281	-0.144	-0.110
-156.706	-105.762	0.203	-0.045
-155.691	35.413	-0.091	-0.079
-154.677	219.192	0.086	-0.136
-153.662	465.113	0.153	-0.338
-152.647	800.000	0.113	0.407
-151.633	-200.000	0.002	0.057
-150.618	-200.000	-0.006	0.297
-149.604	-200.000	0.011	-0.120
-148.589	-200.000	-0.012	0.454
-147.574	-41.509	0.251	0.127
-146.560	76.247	0.104	0.108
-145.545	-21.638	0.327	-0.197
-144.531	69.782	0.143	-0.145
-143.516	-200.000	-0.013	0.209
-142.502	-28.576	-0.101	0.057
-141.487	18.462	-0.096	-0.076
-140.472	800.000	0.043	-0.150
-139.458	47.867	0.179	-0.165
-138.443	-200.000	-0.005	0.143
-137.429	-200.000	0.005	0.288
-136.414	-111.645	-0.193	0.039
-135.399	-51.714	0.094	-0.043
-134.385	-43.810	-0.518	0.258
-133.370	-64.744	0.120	0.048
-132.356	89.039	-0.178	-0.195
-131.341	-105.172	-0.043	-0.010
-130.326	5.591	-0.123	0.090
-129.312	-200.000	0.072	-0.312
-128.297	-64.414	-0.256	0.103
-127.283	18.323	0.197	0.156
-126.268	52.800	-0.024	0.023
-125.253	-21.181	0.063	-0.038
-124.239	-146.423	-0.229	0.020
-123.224	-200.000	-0.016	-0.101
-122.210	-34.306	0.088	0.048
-121.195	-200.000	0.018	0.098
-120.180	-136.239	-0.236	-0.027
-119.166	-200.000	0.032	0.259
-118.151	-44.157	-0.253	0.125
-117.137	800.000	-0.065	0.269
-116.122	-200.000	-0.005	-0.237
-115.107	193.279	0.036	0.054
-114.093	-55.467	-0.262	-0.116
-113.078	-200.000	-0.013	-0.097
-112.064	-200.000	0.007	-0.053
-111.049	64.644	-0.295	-0.293
-110.034	10.223	-0.335	0.252
-109.020	-99.665	0.239	0.059
-108.005	-98.584	-0.035	-0.009
-106.991	-81.150	0.249	-0.081
-105.976	114.313	-0.106	-0.128
-104.962	-41.388	0.232	0.118
-103.947	800.000	0.078	-0.226
-102.932	351.613	0.086	-0.168
-101.918	28.641	-0.169	0.141
-100.903	-12.065	0.240	-0.155
-99.889	-87.332	0.157	-0.047
-98.874	74.671	0.139	0.144
-97.859	-200.000	-0.004	0.219
-96.845	84.484	-0.201	0.217
-95.830	333.043	-0.088	-0.168
-94.816	-92.868	0.243	-0.067
-93.801	800.000	-0.050	0.145
-92.786	-170.844	-0.237	-0.008
-91.772	-128.604	0.161	-0.022
-90.757	421.239	-0.186	-0.394
-89.743	-36.481	0.242	0.128
-88.728	-200.000	0.005	-0.046
-87.713	-133.391	-0.009	0.001
-86.699	186.287	0.039	0.058
-85.684	-200.000	-0.016	-0.169
-84.670	-18.791	0.255	-0.157
-83.655	800.000	-0.054	0.215
-82.640	-113.329	0.308	0.060
-81.626	-30.689	-0.123	0.069
-80.611	-200.000	0.030	-0.242
-79.597	75.483	0.221	0.230
-78.582	168.343	0.035	-0.049
-77.567	9.566	0.286	0.213
-76.553	-80.651	-0.259	-0.085
-75.538	551.301	-0.083	0.196
-74.524	-82.375	-0.268	-0.086
-73.509	286.716	0.067	0.119
-72.494	-117.320	0.341	-0.061
-71.480	-200.000	0.008	-0.034
-70.465	0.918	0.315	0.222
-69.451	-52.025	-0.301	-0.138
-68.436	139.663	-0.224	-0.291
-67.422	247.927	-0.044	-0.073
-66.407	-57.512	0.270	-0.117
-65.392	-105.473	-0.305	0.068
-64.378	124.114	-0.134	-0.166
-63.363	-200.000	0.006	0.219
-62.349	-200.000	0.229	-0.001
-61.334	63.897	-1.218	-1.206
-60.319	-5.101	0.984	0.667
-59.305	429.042	-0.571	-1.216
-58.290	173.804	0.891	1.267
-57.276	225.856	1.006	1.606
-56.261	-200.000	112.329	652.332
-55.246	532.553	1515.268	3531.646
-54.232	174.206	2700.958	3843.550
-53.217	103.676	2318.470	2680.610
-52.203	35.483	2065.144	1784.862
-51.188	30.660	1982.015	1669.777
-50.173	29.232	1965.795	1643.320
-49.159	46.220	2024.681	1846.854
-48.144	46.368	2040.295	1862.368
-47.130	31.103	1999.004	1687.832
-46.115	28.836	1988.425	1658.403
-45.100	28.688	1985.608	1654.657
-44.086	28.702	1983.245	1652.748
-43.071	28.653	1980.651	1650.079
-42.057	28.588	1978.719	1647.821
-41.042	28.572	1976.937	1646.125
-40.027	28.659	1975.352	1645.520
-39.013	28.707	1973.029	1643.953
-37.998	28.654	1971.103	1641.804
-36.984	28.628	1969.352	1640.048
-35.969	28.649	1967.530	1638.651
-34.954	28.724	1965.418	1637.500
-33.940	28.720	1964.328	1636.494
-32.925	28.822	1962.815	1636.069
-31.911	28.764	1961.028	1634.006
-30.896	28.785	1959.213	1632.615
-29.881	28.791	1958.158	1631.718
-28.867	28.910	1956.119	1631.010
-27.852	28.842	1954.925	1629.354
-26.838	28.826	1953.356	1627.837
-25.823	28.833	1951.238	1626.069
-24.809	28.815	1949.370	1624.291
-23.794	28.834	1948.085	1623.317
-22.779	28.825	1946.489	1621.843
-21.765	28.793	1944.738	1620.042
-20.750	28.775	1942.774	1618.186
-19.736	28.804	1941.644	1617.432
-18.721	28.795	1939.485	1615.493
-17.706	28.764	1938.078	1613.979
-16.692	28.768	1936.586	1612.715
-15.677	28.814	1934.985	1611.713
-14.663	28.781	1933.489	1610.118
-13.648	28.790	1932.283	1609.132
-12.633	28.793	1930.524	1607.628
-11.619	28.836	1929.507	1607.088
-10.604	28.845	1928.136	1605.965
-9.590	28.821	1927.129	1604.849
-8.575	28.814	1925.411	1603.293
-7.560	28.776	1924.445	1602.095
-6.546	28.854	1922.981	1601.493
-5.531	28.850	1921.591	1600.238
-4.517	28.814	1920.433	1598.897
-3.502	28.761	1919.581	1597.664
-2.487	28.751	1918.073	1596.261
-1.473	28.739	1917.354	1595.493
-0.458	28.910	1911.962	1592.426
0.556	29.554	1892.542	1563.323
1.571	25.006	1873.534	1509.265
2.586	20.922	1895.734	1492.125
3.600	19.866	1930.587	1510.212
4.615	19.325	1923.574	1499.886
5.629	14.556	1823.927	1382.632
6.644	6.940	1708.639	1235.782
7.659	3.424	1675.012	1184.379
8.673	3.232	1671.529	1180.336
9.688	3.103	1670.808	1178.739
10.702	3.230	1669.156	1178.437
11.717	3.235	1665.556	1175.832
12.731	3.611	1664.973	1178.183
13.746	8.755	1676.785	1225.900
14.761	16.628	1694.091	1299.104
15.775	20.560	1700.056	1333.795
16.790	20.606	1699.073	1333.256
17.804	19.636	1696.504	1323.697
18.819	18.625	1693.178	1313.250
19.834	18.012	1690.920	1306.697
20.848	17.791	1689.331	1303.662
21.863	17.736	1687.592	1301.785
22.877	17.456	1686.875	1298.978
23.892	17.347	1685.380	1296.880
24.907	17.208	1684.611	1295.118
25.921	17.245	1683.358	1294.320
26.936	17.194	1682.769	1293.363
27.950	17.237	1681.328	1292.472
28.965	17.188	1681.167	1291.862
29.980	17.270	1680.109	1291.550
30.994	17.493	1679.081	1292.342
32.009	17.502	1678.419	1291.784
33.023	17.581	1676.962	1291.151
34.038	17.601	1676.006	1290.454
35.053	17.594	1675.066	1289.561
36.067	17.485	1673.848	1287.683
37.082	17.461	1672.112	1286.056
38.096	17.473	1671.726	1285.733
39.111	17.446	1670.783	1284.693
40.126	17.449	1670.559	1284.429
41.140	17.457	1669.175	1283.308
42.155	17.362	1667.534	1281.221
43.169	17.141	1665.563	1277.928
44.184	17.076	1664.738	1276.695
45.199	17.076	1663.429	1275.576
46.213	17.062	1662.522	1274.660
47.228	17.050	1661.517	1273.691
48.242	17.199	1660.341	1273.794
49.257	17.362	1659.480	1274.239
50.271	17.352	1658.061	1272.963
51.286	17.267	1656.821	1271.266
52.301	17.331	1655.545	1270.652
53.315	17.335	1654.313	1269.621
54.330	17.276	1652.697	1267.826
55.344	17.184	1650.811	1265.583
56.359	17.111	1649.329	1263.796
57.374	17.120	1648.303	1262.966
58.388	17.114	1647.260	1262.010
59.403	17.099	1645.717	1260.602
60.417	16.953	1644.296	1258.318
61.432	17.013	1643.092	1257.733
62.447	17.002	1642.360	1256.977
63.461	16.918	1641.270	1255.409
64.476	16.874	1640.102	1254.080
65.490	16.843	1639.028	1252.921
66.505	16.896	1637.274	1251.857
67.520	16.859	1636.599	1250.956
68.534	16.884	1635.701	1250.348
69.549	16.946	1634.156	1249.511
70.563	16.861	1633.268	1248.097
71.578	16.894	1631.674	1247.010
72.593	16.837	1631.022	1245.984
73.607	16.676	1629.979	1243.889
74.622	16.658	1628.430	1242.468
75.636	16.715	1628.127	1242.548
76.651	16.731	1627.123	1241.786
77.666	16.763	1626.195	1241.201
78.680	16.813	1625.632	1241.032
79.695	16.742	1624.706	1239.696
80.709	16.997	1623.416	1240.467
81.724	16.852	1623.535	1239.387
82.739	17.093	1621.896	1239.786
83.753	17.130	1621.640	1239.751
84.768	17.277	1620.093	1239.526
85.782	17.191	1620.378	1239.013
86.797	17.454	1618.955	1239.730
87.812	17.498	1618.538	1239.622
88.826	17.487	1617.057	1238.299
89.841	17.376	1615.622	1236.284
90.855	17.393	1614.648	1235.551
91.870	17.397	1614.059	1235.017
92.884	17.545	1612.750	1234.980
93.899	17.493	1612.088	1233.987
94.914	17.570	1610.666	1233.347
95.928	17.582	1609.314	1232.291
96.943	17.525	1608.621	1231.237
97.957	17.604	1606.892	1230.377
98.972	17.487	1605.975	1228.718
99.987	17.416	1604.196	1226.742
101.001	17.456	1602.717	1225.788
102.016	17.382	1601.504	1224.219
103.030	17.441	1600.249	1223.575
104.045	17.396	1598.787	1222.025
105.060	17.386	1597.398	1220.786
106.074	17.350	1596.065	1219.401
107.089	17.259	1594.034	1217.088
108.103	17.069	1592.514	1214.460
109.118	16.923	1591.076	1212.214
110.133	16.886	1589.510	1210.649
111.147	16.885	1588.235	1209.561
112.162	16.819	1587.232	1208.225
113.176	16.942	1585.364	1207.567
114.191	17.001	1583.878	1206.752
115.206	17.060	1582.915	1206.331
116.220	17.065	1581.318	1205.038
117.235	17.013	1580.309	1203.795
118.249	17.045	1579.215	1203.086
119.264	17.029	1577.516	1201.568
120.279	16.944	1576.114	1199.792
121.293	16.887	1574.664	1198.183
122.308	16.782	1573.858	1196.723
123.322	16.837	1571.672	1195.341
124.337	16.841	1569.735	1193.790
125.352	16.733	1569.184	1192.502
126.366	16.737	1568.193	1191.675
127.381	16.713	1567.047	1190.531
128.395	16.689	1565.885	1189.370
129.410	16.842	1563.854	1188.797
130.424	16.755	1562.709	1187.208
131.439	16.807	1561.738	1186.732
132.454	16.926	1560.743	1186.707
133.468	16.962	1559.254	1185.723
134.483	16.994	1557.718	1184.672
135.497	17.021	1556.477	1183.810
136.512	17.058	1555.233	1183.015
137.527	17.023	1554.138	1181.837
138.541	17.093	1552.970	1181.326
139.556	17.104	1551.646	1180.293
140.570	17.140	1550.118	1179.278
141.585	17.174	1549.063	1178.605
142.600	17.369	1547.562	1178.713
143.614	17.414	1546.560	1178.153
144.629	17.497	1545.639	1177.927
145.643	17.567	1544.618	1177.527
146.658	17.614	1542.810	1176.369
147.673	17.469	1541.741	1174.451
148.687	17.361	1540.078	1172.332
149.702	17.226	1538.534	1170.123
150.716	17.241	1536.563	1168.625
151.731	17.153	1535.263	1166.927
152.746	17.179	1533.494	1165.656
153.760	17.200	1532.301	1164.797
154.775	17.216	1531.795	1164.416
155.789	17.355	1530.334	1164.150
156.804	17.375	1529.319	1163.416
157.819	17.452	1527.813	1162.693
158.833	17.381	1527.058	1161.533
159.848	17.383	1526.180	1160.770
160.862	17.584	1525.178	1161.278
161.877	17.567	1524.222	1160.331
162.892	17.403	1522.741	1157.984
163.906	17.339	1520.671	1155.872
164.921	17.146	1519.479	1153.555
165.935	17.225	1518.523	1153.263
166.950	17.267	1517.076	1152.348
167.964	17.285	1516.402	1151.853
168.979	17.308	1515.549	1151.264
169.994	17.325	1514.380	1150.390
171.008	17.326	1513.032	1149.266
172.023	17.404	1512.126	1149.004
173.037	17.371	1510.880	1147.733
174.052	17.497	1509.685	1147.571
175.067	17.580	1509.250	1147.700
176.081	17.445	1507.252	1145.168
177.096	17.359	1505.843	1143.421
178.110	17.229	1504.906	1141.733
179.125	17.273	1503.767	1141.066
180.140	17.318	1502.831	1140.554
181.154	17.379	1501.758	1140.049
182.169	17.497	1500.560	1139.829
183.183	17.582	1499.455	1139.458
184.198	17.643	1498.479	1139.026
185.213	17.618	1497.870	1138.290
186.227	17.760	1496.582	1138.158
187.242	17.621	1495.610	1136.397
188.256	17.662	1494.898	1136.029
189.271	17.765	1493.455	1135.514
190.286	17.741	1492.967	1134.880
191.300	17.718	1491.601	1133.594
192.315	17.547	1490.228	1131.314
193.329	17.165	1488.588	1127.433
194.344	17.186	1487.353	1126.537
195.359	17.242	1486.199	1125.932
196.373	17.452	1485.268	1126.521
197.388	17.488	1484.774	1126.285
198.402	17.576	1483.394	1125.719
199.417	17.714	1482.570	1125.902
200.432	17.822	1481.785	1125.919
201.446	17.912	1481.439	1126.153
202.461	18.039	1480.403	1126.100
203.475	18.080	1479.210	1125.367
204.490	18.076	1478.359	1124.594
205.504	18.088	1477.092	1123.607
206.519	17.851	1475.404	1120.668
207.534	17.887	1474.078	1119.798
208.548	17.718	1473.172	1117.899
209.563	17.747	1472.234	1117.280
210.577	17.743	1471.426	1116.540
211.592	17.728	1470.565	1115.689
212.607	17.854	1469.442	1115.568
213.621	17.957	1469.497	1116.184
214.636	18.025	1468.501	1115.770
215.650	17.954	1467.444	1114.404
216.665	17.923	1466.216	1113.170
217.680	17.999	1465.641	1113.134
218.694	18.189	1464.746	1113.591
219.709	18.165	1463.869	1112.669
220.723	18.216	1463.196	1112.389
221.738	18.149	1462.135	1111.051
222.753	18.173	1461.244	1110.433
223.767	18.116	1460.447	1109.360
224.782	18.146	1459.178	1108.489
225.796	18.142	1458.909	1108.163
226.811	18.253	1457.633	1107.814
227.826	18.315	1457.017	1107.650
228.840	18.248	1455.998	1106.341
229.855	18.180	1454.801	1104.898
230.869	18.140	1453.810	1103.789
231.884	18.095	1453.001	1102.786
232.899	18.123	1451.265	1101.549
233.913	18.040	1450.641	1100.447
234.928	18.000	1449.513	1099.234
235.942	17.975	1447.916	1097.768
236.957	17.973	1446.688	1096.722
237.972	17.859	1446.001	1095.374
238.986	17.920	1444.835	1094.788
240.001	17.853	1444.241	1093.808
241.015	17.952	1442.734	1093.205
242.030	17.968	1441.594	1092.344
243.045	18.045	1440.560	1091.957
244.059	18.027	1440.403	1091.628
245.074	18.173	1438.802	1091.252
246.088	18.230	1438.021	1090.925
247.103	18.213	1437.676	1090.456
248.117	18.229	1437.387	1090.245
249.132	18.438	1436.121	1090.519
250.147	18.429	1435.701	1090.045
251.161	18.711	1435.433	1091.535
252.176	18.772	1434.803	1091.352
253.190	18.808	1433.826	1090.742
254.205	18.886	1432.804	1090.361
255.220	18.868	1432.866	1090.198
256.234	19.035	1431.656	1090.237
257.249	18.913	1430.686	1088.631
258.263	18.990	1429.619	1088.207
259.278	18.910	1428.927	1087.078
260.293	18.910	1428.295	1086.501
261.307	18.923	1427.041	1085.534
262.322	19.059	1426.326	1085.750
263.336	19.120	1425.661	1085.534
264.351	19.124	1424.385	1084.492
265.366	19.116	1423.745	1083.863
266.380	19.125	1422.935	1083.202
267.395	19.060	1422.073	1082.045
268.409	19.112	1421.052	1081.495
269.424	19.007	1419.922	1079.884
270.439	18.938	1419.208	1078.811
271.453	18.995	1417.518	1077.789
272.468	18.990	1416.600	1076.964
273.482	18.937	1415.702	1075.855
274.497	18.867	1414.982	1074.772
275.512	18.759	1414.142	1073.366
276.526	18.759	1413.273	1072.610
277.541	18.809	1412.386	1072.152
278.555	18.867	1411.099	1071.442
279.570	18.923	1410.233	1071.041
280.585	19.027	1409.236	1070.834
281.599	19.102	1409.084	1071.091
282.614	19.194	1408.673	1071.256
283.628	19.111	1407.282	1069.591
284.643	18.999	1405.741	1067.626
285.657	18.993	1404.852	1066.823
286.672	19.036	1403.970	1066.323
287.687	18.962	1403.148	1065.145
288.701	19.175	1401.700	1065.273
289.716	19.080	1401.335	1064.312
290.730	19.025	1400.898	1063.547
291.745	19.024	1399.701	1062.540
292.760	19.076	1399.074	1062.286
293.774	19.105	1397.577	1061.236
294.789	19.091	1396.831	1060.490
295.803	19.205	1396.298	1060.696
296.818	19.259	1395.589	1060.390
297.833	19.162	1394.299	1058.724
298.847	19.052	1393.336	1057.222
299.862	19.105	1392.100	1056.519
300.876	19.196	1390.634	1055.868
301.891	19.173	1390.149	1055.263
302.906	19.240	1389.807	1055.321
303.920	19.318	1389.039	1055.121
304.935	19.503	1387.970	1055.350
305.949	19.472	1387.796	1054.936
306.964	19.518	1386.789	1054.355
307.979	19.688	1385.853	1054.588
308.993	19.562	1385.277	1053.289
310.008	19.475	1383.997	1051.692
311.022	19.501	1382.635	1050.726
312.037	19.510	1382.002	1050.202
313.052	19.549	1381.200	1049.739
314.066	19.574	1379.605	1048.586
315.081	19.453	1378.429	1046.862
316.095	19.389	1376.976	1045.283
317.110	19.228	1376.456	1043.814
318.125	19.231	1375.363	1042.913
319.139	19.137	1374.702	1041.749
320.154	19.169	1373.714	1041.103
321.168	19.252	1372.921	1040.914
322.183	19.259	1371.535	1039.814
323.197	19.258	1370.705	1039.083
324.212	19.260	1370.252	1038.665
325.227	19.392	1369.195	1038.563
326.241	19.424	1368.408	1038.069
327.256	19.437	1367.371	1037.265
328.270	19.419	1366.712	1036.567
329.285	19.334	1365.706	1035.204
330.300	19.340	1364.687	1034.376
331.314	19.517	1363.662	1034.568
332.329	19.409	1362.975	1033.309
333.343	19.387	1362.195	1032.495
334.358	19.348	1361.639	1031.745
335.373	19.458	1360.522	1031.465
336.387	19.626	1359.767	1031.808
337.402	19.618	1358.873	1030.990
338.416	19.717	1358.459	1031.175
339.431	19.614	1357.772	1029.946
340.446	19.783	1356.939	1030.231
341.460	19.778	1356.265	1029.599
342.475	19.863	1355.364	1029.327
343.489	20.006	1354.498	1029.431
344.504	20.016	1353.852	1028.905
345.519	20.079	1352.605	1028.245
346.533	20.169	1351.552	1027.885
347.548	20.136	1350.860	1027.071
348.562	20.151	1350.106	1026.499
349.577	20.175	1349.769	1026.292
350.592	20.156	1348.279	1024.957
351.606	19.971	1347.339	1023.057
352.621	19.746	1346.138	1020.724
353.635	19.694	1345.194	1019.612
354.650	19.677	1343.903	1018.444
355.665	19.616	1343.576	1017.748
356.679	19.819	1342.125	1017.755
357.694	19.930	1340.840	1017.343
358.708	19.965	1339.859	1016.711
359.723	19.995	1339.177	1016.282
360.738	20.072	1338.024	1015.769
361.752	19.945	1337.210	1014.314
362.767	19.957	1335.888	1013.292
363.781	19.980	1334.817	1012.526
364.796	20.004	1334.204	1012.113
365.810	20.062	1333.631	1011.926
366.825	20.133	1333.128	1011.867
367.840	20.254	1332.421	1011.950
368.854	20.245	1331.872	1011.388
369.869	20.299	1331.733	1011.512
370.883	20.439	1331.042	1011.709
371.898	20.467	1329.813	1010.847
372.913	20.317	1328.714	1009.052
373.927	20.266	1328.141	1008.233
374.942	20.330	1327.293	1007.873
375.956	20.419	1326.851	1007.963
376.971	20.393	1325.973	1007.057
377.986	20.366	1324.826	1005.938
379.000	20.391	1324.383	1005.660
380.015	20.452	1323.542	1005.282
381.029	20.512	1322.609	1004.834
382.044	20.587	1322.302	1004.944
383.059	20.642	1321.659	1004.685
384.073	20.641	1320.677	1003.843
385.088	20.593	1320.159	1003.084
386.102	20.567	1319.616	1002.435
387.117	20.605	1318.988	1002.088
388.132	20.630	1318.038	1001.417
389.146	20.471	1316.362	999.141
390.161	20.408	1315.555	998.080
391.175	20.450	1314.364	997.332
392.190	20.443	1313.696	996.692
393.205	20.344	1313.684	996.026
394.219	20.510	1312.362	995.889
395.234	20.617	1311.393	995.676
396.248	20.713	1310.079	995.140
397.263	20.505	1308.828	992.913
398.278	20.410	1307.599	991.351
399.292	20.457	1305.833	990.194
400.307	20.353	1305.271	989.089
401.321	20.293	1303.874	987.601
402.336	20.391	1302.644	987.139
403.350	20.346	1301.601	986.004
404.365	20.252	1301.256	985.122
405.380	20.240	1300.535	984.421
406.394	20.433	1299.351	984.530
407.409	20.521	1298.780	984.511
408.423	20.523	1298.547	984.260
409.438	20.692	1297.837	984.593
410.453	20.974	1296.408	985.014
411.467	20.957	1296.328	984.769
412.482	20.879	1295.504	983.617
413.496	20.971	1294.834	983.538
414.511	21.013	1294.333	983.307
415.526	21.007	1293.760	982.749
416.540	21.010	1293.519	982.499
417.555	21.139	1292.596	982.435
418.569	21.219	1291.935	982.298
419.584	21.141	1291.230	981.236
420.599	21.004	1291.024	980.221
421.613	144.687	1436.157	1796.458
422.628	139.666	1457.259	1796.554
