DTS Sentinel unit serial number:	SN413079Multiplexer serial number:	ORYXHardware model number:	OX4-SRSoftware version number:	ORYX F/W v4.00 Oryx Data Collector v3.7.2.0data status	okinstallation	princeton_trtdifferential loss correction	single-endedforward channel	channel 4reverse channel	N/Adate	2019/09/17time	22:17:35forward acquisition time	60.00reverse acquisition time	0.00gamma	496.2192k internal	0.2330k external	0.2330temperature offset calibration	0.9990default loss term (dB/km)	0.3790temperature slope calibration	1.0000multiplexer offset coefficient	1.0000multiplexer slope coefficient	1.0000fibre end	0.00T internal ref (°C)	25.62T ext. ref 1 (°C)	0.18T ext. ref 2 (°C)	18.57length (m)	temperature (°C)	Stokes	anti-Stokes-747.200	800.000	0.020	0.062
-746.185	-149.119	-0.249	0.020
-745.171	-116.255	0.160	0.030
-744.156	-42.789	-0.295	-0.151
-743.142	92.154	-0.072	-0.082
-742.127	122.448	-0.196	0.247
-741.112	-200.000	-0.025	-0.176
-740.098	-200.000	-0.381	0.002
-739.083	16.068	0.190	0.151
-738.069	-200.000	-0.004	0.315
-737.054	352.682	-0.065	-0.130
-736.039	-200.000	0.013	-0.177
-735.025	800.000	-0.075	0.241
-734.010	800.000	-0.004	-0.013
-732.996	-141.144	0.149	0.015
-731.981	-93.189	-0.412	-0.115
-730.966	-35.747	-0.265	0.145
-729.952	-182.168	0.170	0.003
-728.937	374.638	-0.134	-0.276
-727.923	81.008	0.142	0.155
-726.908	794.797	-0.084	0.233
-725.894	-177.385	-0.285	0.007
-724.879	-200.000	-0.043	0.456
-723.864	34.936	-0.129	-0.114
-722.850	-14.227	-0.022	0.014
-721.835	9.652	-0.120	-0.091
-720.821	359.719	-0.040	-0.080
-719.806	60.724	-0.299	0.299
-718.791	-3.531	-0.266	-0.186
-717.777	-200.000	-0.043	0.259
-716.762	-70.099	-0.282	-0.108
-715.748	85.360	0.299	-0.330
-714.733	-200.000	-0.027	-0.245
-713.718	14.516	0.306	-0.240
-712.704	-159.782	0.126	0.007
-711.689	-67.046	0.203	-0.081
-710.675	-200.000	0.032	0.209
-709.660	-200.000	-0.004	0.207
-708.645	-200.000	-0.005	-0.053
-707.631	110.003	0.256	-0.308
-706.616	31.418	-0.195	-0.168
-705.602	-123.879	0.046	-0.007
-704.587	291.982	0.190	-0.348
-703.572	464.755	-0.143	-0.321
-702.558	-192.895	-0.279	0.003
-701.543	-2.713	-0.251	-0.176
-700.529	121.976	-0.069	-0.086
-699.514	4.422	0.094	0.069
-698.499	800.000	0.047	0.166
-697.485	800.000	0.052	-0.202
-696.470	-139.787	-0.310	-0.033
-695.456	-200.000	0.040	0.194
-694.441	-39.365	-0.225	-0.119
-693.426	5.185	-0.407	-0.301
-692.412	-37.685	0.236	-0.126
-691.397	-116.982	-0.193	0.035
-690.383	-200.000	-0.033	0.154
-689.368	-147.957	0.236	-0.020
-688.354	800.000	0.078	0.290
-687.339	-200.000	-0.051	-0.269
-686.324	-103.712	-0.158	0.037
-685.310	800.000	-0.127	-0.469
-684.295	-161.649	0.119	0.006
-683.281	-200.000	-0.051	-0.245
-682.266	-71.269	-0.339	0.128
-681.251	80.114	0.099	-0.106
-680.237	-200.000	-0.028	0.334
-679.222	0.620	0.100	-0.072
-678.208	800.000	0.066	-0.275
-677.193	86.909	0.086	-0.096
-676.178	-200.000	-0.038	-0.379
-675.164	-200.000	-0.002	-0.129
-674.149	-121.270	0.199	0.033
-673.135	481.572	0.066	0.150
-672.120	-66.608	0.341	0.136
-671.105	722.930	-0.054	0.146
-670.091	476.256	-0.096	0.218
-669.076	-79.917	0.233	0.079
-668.062	800.000	0.073	-0.212
-667.047	73.199	-0.116	-0.122
-666.032	525.390	-0.086	0.204
-665.018	-129.042	0.185	0.026
-664.003	-93.162	-0.100	-0.028
-662.989	-72.003	0.226	0.084
-661.974	-47.807	-0.187	0.091
-660.959	-143.890	-0.443	0.042
-659.945	-200.000	0.041	0.238
-658.930	-189.670	-0.189	0.002
-657.916	108.221	-0.295	-0.353
-656.901	440.731	-0.056	-0.124
-655.886	746.936	-0.121	0.327
-654.872	-49.256	0.159	0.076
-653.857	-200.000	0.079	0.364
-652.843	-13.573	-0.174	-0.113
-651.828	-200.000	0.091	0.431
-650.814	349.840	0.054	-0.106
-649.799	-200.000	-0.013	0.220
-648.784	62.392	-0.119	0.119
-647.770	-163.267	0.118	0.006
-646.755	-135.257	0.084	-0.010
-645.741	-120.474	-0.205	0.035
-644.726	-133.659	0.142	-0.018
-643.711	-200.000	-0.038	0.223
-642.697	800.000	0.114	0.441
-641.682	410.731	-0.137	-0.291
-640.668	-14.941	0.191	-0.123
-639.653	-88.097	0.170	-0.051
-638.638	800.000	-0.111	-0.415
-637.624	-200.000	0.025	-0.292
-636.609	-200.000	0.018	-0.198
-635.595	-57.646	-0.248	-0.109
-634.580	275.598	-0.066	-0.117
-633.565	800.000	0.058	-0.197
-632.551	199.956	-0.072	0.110
-631.536	-10.656	-0.197	-0.131
-630.522	-163.454	-0.172	-0.008
-629.507	-41.073	-0.235	0.122
-628.492	175.995	0.142	-0.207
-627.478	-37.450	0.268	0.144
-626.463	577.298	-0.083	-0.204
-625.449	-95.712	-0.170	-0.046
-624.434	-167.814	-0.205	0.008
-623.419	20.078	0.335	0.271
-622.405	800.000	0.099	-0.283
-621.390	-48.494	-0.352	-0.170
-620.376	50.460	-0.183	0.173
-619.361	15.554	0.009	-0.007
-618.346	-137.507	-0.263	0.030
-617.332	-200.000	0.012	0.130
-616.317	-200.000	0.036	-0.283
-615.303	-128.988	0.334	0.047
-614.288	14.247	0.179	-0.140
-613.273	800.000	0.024	-0.070
-612.259	762.257	0.062	-0.169
-611.244	-61.896	-0.202	-0.084
-610.230	-133.133	-0.323	-0.041
-609.215	141.881	-0.067	-0.088
-608.201	-79.647	0.188	-0.063
-607.186	-152.311	0.250	-0.018
-606.171	-200.000	-0.015	0.161
-605.157	-49.002	-0.127	-0.061
-604.142	-182.108	-0.147	0.003
-603.128	-55.428	0.267	-0.120
-602.113	800.000	0.108	-0.381
-601.098	-200.000	0.048	0.245
-600.084	56.323	-0.027	-0.026
-599.069	0.593	0.342	0.245
-598.055	-92.556	0.161	0.045
-597.040	-131.069	0.093	0.012
-596.025	18.825	-0.205	0.165
-595.011	-33.308	-0.314	0.174
-593.996	-83.174	0.394	-0.127
-592.982	-200.000	-0.038	-0.477
-591.967	-110.553	0.313	0.065
-590.952	-120.632	0.079	-0.013
-589.938	800.000	0.040	0.162
-588.923	214.418	0.023	-0.037
-587.909	773.460	-0.084	-0.230
-586.894	53.770	-0.232	0.223
-585.879	-164.565	-0.151	-0.007
-584.865	-191.456	0.027	-0.000
-583.850	-163.726	-0.158	-0.007
-582.836	-200.000	-0.062	-0.399
-581.821	6.220	0.111	-0.083
-580.806	150.401	-0.069	-0.094
-579.792	39.676	-0.050	0.045
-578.777	-86.044	0.383	0.118
-577.763	-149.542	-0.200	0.016
-576.748	510.560	0.128	-0.297
-575.733	800.000	-0.079	0.309
-574.719	136.177	-0.120	0.156
-573.704	628.355	0.027	0.069
-572.690	-177.076	-0.094	-0.002
-571.675	-51.687	-0.378	0.176
-570.661	42.101	0.159	-0.144
-569.646	-109.245	0.224	-0.047
-568.631	-200.000	-0.034	0.235
-567.617	-20.127	0.149	0.092
-566.602	-54.811	0.216	-0.098
-565.588	800.000	0.039	-0.140
-564.573	244.654	-0.099	-0.167
-563.558	-200.000	0.048	-0.347
-562.544	-76.336	-0.176	0.062
-561.529	-177.554	-0.509	0.012
-560.515	255.043	0.097	-0.166
-559.500	-165.120	0.061	-0.003
-558.485	375.975	0.055	0.111
-557.471	-24.989	-0.103	-0.061
-556.456	-50.390	0.254	-0.120
-555.442	-101.534	-0.086	-0.021
-554.427	-164.535	0.121	0.006
-553.412	387.097	-0.117	-0.242
-552.398	-18.724	0.207	-0.129
-551.383	0.282	-0.259	0.185
-550.369	-200.000	-0.022	-0.107
-549.354	-24.279	0.296	-0.177
-548.339	521.623	0.133	0.312
-547.325	-64.928	-0.187	-0.075
-546.310	-56.419	-0.055	0.024
-545.296	-75.087	-0.413	-0.148
-544.281	87.882	0.122	-0.135
-543.266	10.444	0.183	0.139
-542.252	26.996	0.130	-0.109
-541.237	139.314	0.190	0.250
-540.223	800.000	-0.062	-0.209
-539.208	276.457	-0.066	0.116
-538.193	229.558	-0.230	-0.375
-537.179	-44.467	-0.231	-0.116
-536.164	-186.429	-0.061	-0.001
-535.150	-200.000	-0.024	-0.159
-534.135	130.655	0.099	0.127
-533.121	-85.941	-0.142	0.044
-532.106	84.135	0.288	-0.315
-531.091	330.774	0.096	-0.186
-530.077	-139.009	0.078	-0.008
-529.062	76.229	0.035	-0.037
-528.048	82.457	0.259	-0.281
-527.033	-142.135	-0.286	-0.028
-526.018	282.163	0.103	0.184
-525.004	800.000	0.056	-0.216
-523.989	202.267	0.122	-0.189
-522.975	22.720	0.197	0.161
-521.960	-58.131	0.087	0.038
-520.945	29.354	-0.182	-0.155
-519.931	-42.778	-0.144	0.073
-518.916	218.601	0.136	-0.218
-517.902	4.364	-0.306	0.224
-516.887	-200.000	-0.001	-0.073
-515.872	42.564	0.105	0.096
-514.858	781.802	0.091	0.248
-513.843	-200.000	0.000	0.139
-512.829	687.696	-0.063	-0.164
-511.814	-18.925	-0.163	0.101
-510.799	-9.437	0.154	-0.102
-509.785	41.393	-0.222	0.200
-508.770	800.000	-0.053	0.188
-507.756	170.224	0.178	-0.255
-506.741	369.451	0.080	-0.161
-505.726	59.025	-0.119	-0.117
-504.712	-83.008	0.406	-0.131
-503.697	-200.000	-0.010	-0.151
-502.683	97.881	0.264	-0.303
-501.668	-7.013	-0.287	-0.194
-500.653	-200.000	-0.009	-0.198
-499.639	-142.549	-0.309	0.030
-498.624	6.077	0.392	0.290
-497.610	800.000	0.052	-0.162
-496.595	76.237	0.176	-0.186
-495.581	-200.000	0.028	-0.157
-494.566	-152.887	-0.125	0.009
-493.551	-123.159	0.607	-0.097
-492.537	446.623	-0.089	0.196
-491.522	-189.472	0.142	0.002
-490.508	159.878	0.362	0.502
-489.493	715.487	-0.139	0.368
-488.478	627.729	0.177	0.446
-487.464	-72.629	-0.425	0.156
-486.449	253.509	-0.089	-0.152
-485.435	130.459	0.132	-0.169
-484.420	-113.285	-0.412	0.081
-483.405	-200.000	-0.017	-0.116
-482.391	-5.290	-0.228	0.156
-481.376	-116.290	0.489	-0.090
-480.362	245.014	-0.162	0.272
-479.347	-87.968	-0.306	-0.092
-478.332	-0.455	0.215	-0.152
-477.318	91.119	0.322	0.360
-476.303	800.000	-0.041	0.119
-475.289	-200.000	0.003	0.051
-474.274	513.102	0.075	-0.175
-473.259	-125.615	-0.236	0.036
-472.245	6.777	-0.043	0.032
-471.230	-27.184	-0.214	-0.124
-470.216	-200.000	0.008	0.422
-469.201	-12.352	-0.182	0.119
-468.186	52.753	-0.225	0.214
-467.172	302.088	-0.072	-0.133
-466.157	353.048	-0.085	0.168
-465.143	176.546	-0.151	0.218
-464.128	85.627	-0.166	-0.182
-463.113	162.873	0.126	0.176
-462.099	-2.766	0.240	0.167
-461.084	147.708	0.013	0.017
-460.070	-200.000	-0.046	-0.348
-459.055	26.977	0.058	0.048
-458.040	800.000	-0.035	0.106
-457.026	-102.524	0.367	0.087
-456.011	137.488	-0.242	-0.315
-454.997	-120.623	-0.128	0.022
-453.982	134.616	-0.103	-0.133
-452.968	384.285	-0.165	0.338
-451.953	-90.041	-0.129	-0.037
-450.938	-9.287	-0.319	0.212
-449.924	90.496	0.360	0.401
-448.909	342.996	0.058	-0.112
-447.895	-200.000	0.011	0.237
-446.880	-119.544	0.181	0.031
-445.865	-58.003	-0.313	0.136
-444.851	221.309	0.112	-0.179
-443.836	-200.000	-0.044	-0.339
-442.822	-133.670	-0.154	0.019
-441.807	-200.000	-0.009	-0.166
-440.792	154.191	0.034	0.047
-439.778	-57.590	0.015	-0.007
-438.763	-50.425	-0.166	0.078
-437.749	-15.360	0.229	-0.146
-436.734	110.543	-0.085	0.102
-435.719	-64.563	0.241	-0.097
-434.705	800.000	-0.073	-0.239
-433.690	524.911	0.119	0.278
-432.676	-155.683	0.070	0.004
-431.661	800.000	-0.138	0.444
-430.646	-22.219	-0.215	-0.130
-429.632	-16.505	0.436	0.275
-428.617	-78.746	0.106	0.036
-427.603	190.521	-0.210	0.314
-426.588	-200.000	-0.001	0.141
-425.573	298.093	-0.170	-0.311
-424.559	-135.140	0.046	-0.005
-423.544	800.000	-0.067	0.246
-422.530	310.210	0.141	-0.262
-421.515	-108.418	-0.496	0.106
-420.500	46.530	-0.137	0.127
-419.486	-200.000	-0.031	0.157
-418.471	-66.175	0.109	0.043
-417.457	-200.000	-0.004	0.286
-416.442	-35.849	0.171	0.092
-415.428	-200.000	-0.030	0.273
-414.413	34.910	-0.217	0.189
-413.398	68.265	0.153	0.156
-412.384	18.502	-0.156	0.124
-411.369	-123.961	0.147	0.023
-410.355	242.288	-0.071	-0.118
-409.340	-131.924	0.116	-0.015
-408.325	-76.813	-0.194	-0.067
-407.311	221.630	0.140	0.223
-406.296	7.817	-0.053	0.040
-405.282	22.502	0.226	0.184
-404.267	-76.322	-0.156	0.055
-403.252	157.514	0.122	-0.168
-402.238	13.056	0.140	0.108
-401.223	-74.370	-0.128	0.046
-400.209	800.000	-0.063	-0.185
-399.194	-93.065	0.130	0.036
-398.179	390.927	0.080	0.165
-397.165	290.705	-0.069	-0.125
-396.150	-40.009	0.196	0.102
-395.136	-40.889	-0.203	0.104
-394.121	-46.661	-0.256	-0.125
-393.106	800.000	-0.068	-0.226
-392.092	-200.000	0.012	-0.144
-391.077	29.122	-0.068	0.058
-390.063	38.567	-0.036	0.032
-389.048	-5.690	-0.133	0.091
-388.033	-200.000	-0.019	-0.169
-387.019	255.231	0.068	0.116
-386.004	-73.711	0.387	-0.140
-384.990	151.759	0.238	-0.322
-383.975	59.607	-0.206	0.201
-382.960	-187.507	-0.041	0.001
-381.946	800.000	-0.069	0.228
-380.931	-39.227	-0.315	-0.164
-379.917	-200.000	-0.007	-0.043
-378.902	13.043	-0.121	0.093
-377.888	800.000	0.112	0.311
-376.873	-200.000	0.038	0.273
-375.858	20.570	0.345	-0.277
-374.844	126.504	0.141	-0.177
-373.829	-81.647	0.066	0.021
-372.815	-200.000	0.012	0.108
-371.800	399.576	-0.092	-0.191
-370.785	800.000	-0.069	-0.275
-369.771	-200.000	0.000	-0.525
-368.756	225.034	-0.070	-0.112
-367.742	800.000	-0.054	0.160
-366.727	-90.901	0.206	0.059
-365.712	-36.192	-0.192	-0.103
-364.698	-200.000	-0.108	-0.479
-363.683	-95.459	-0.056	-0.015
-362.669	17.958	-0.088	-0.070
-361.654	-120.252	0.218	0.037
-360.639	-65.366	0.036	0.014
-359.625	597.723	-0.118	-0.291
-358.610	-69.155	0.263	0.100
-357.596	-68.478	0.144	-0.056
-356.581	-59.851	0.246	0.105
-355.566	134.290	-0.070	0.090
-354.552	381.161	0.104	0.211
-353.537	4.229	-0.203	-0.147
-352.523	16.611	-0.023	-0.018
-351.508	419.428	0.019	0.040
-350.493	94.229	0.059	0.066
-349.479	-16.193	-0.248	-0.156
-348.464	-200.000	-0.060	-0.477
-347.450	-157.824	0.118	-0.007
-346.435	-176.262	-0.204	0.005
-345.420	-200.000	-0.042	-0.265
-344.406	-129.732	-0.265	-0.036
-343.391	162.688	-0.101	0.140
-342.377	6.306	-0.312	-0.230
-341.362	-200.000	-0.010	0.250
-340.348	109.457	0.111	0.132
-339.333	48.508	0.274	0.255
-338.318	-200.000	-0.009	0.187
-337.304	169.570	-0.044	0.062
-336.289	-200.000	0.020	-0.191
-335.275	141.532	-0.034	0.045
-334.260	800.000	-0.042	0.146
-333.245	800.000	-0.104	0.446
-332.231	-103.148	-0.057	-0.013
-331.216	111.920	-0.094	-0.113
-330.202	-137.700	0.284	-0.032
-329.187	-200.000	0.000	-0.067
-328.172	800.000	0.021	-0.065
-327.158	-200.000	-0.004	0.359
-326.143	71.090	0.076	0.078
-325.129	-200.000	-0.060	-0.435
-324.114	747.428	-0.028	-0.076
-323.099	385.863	-0.103	0.210
-322.085	-4.855	-0.256	-0.175
-321.070	-26.202	0.490	-0.285
-320.056	800.000	-0.116	0.372
-319.041	-72.834	0.139	-0.051
-318.026	103.038	-0.106	0.123
-317.012	-94.211	0.036	0.010
-315.997	800.000	-0.061	0.240
-314.983	-42.907	0.183	0.092
-313.968	592.967	0.137	-0.335
-312.953	-86.189	-0.261	0.080
-311.939	333.621	-0.215	-0.411
-310.924	181.045	-0.172	-0.250
-309.910	26.197	0.253	0.210
-308.895	-200.000	-0.001	0.091
-307.880	-200.000	-0.001	-0.084
-306.866	-81.598	-0.135	-0.044
-305.851	143.755	0.131	0.173
-304.837	-124.376	-0.217	-0.033
-303.822	16.532	-0.221	-0.173
-302.807	800.000	0.075	0.309
-301.793	-200.000	0.002	0.148
-300.778	-80.854	-0.416	-0.137
-299.764	66.804	0.149	-0.150
-298.749	800.000	0.045	-0.185
-297.735	-103.473	0.309	0.072
-296.720	114.435	0.016	-0.019
-295.705	-200.000	0.010	0.171
-294.691	339.299	-0.106	0.205
-293.676	-21.912	-0.229	0.138
-292.662	478.246	0.073	0.163
-291.647	-71.847	0.152	-0.056
-290.632	729.129	0.011	-0.029
-289.618	-200.000	-0.095	0.510
-288.603	62.744	-0.218	0.216
-287.589	141.346	0.351	0.460
-286.574	-4.862	0.251	0.171
-285.559	-86.930	0.208	0.063
-284.545	-32.875	-0.133	-0.073
-283.530	-200.000	0.017	-0.377
-282.516	-66.469	0.337	0.132
-281.501	-200.000	0.042	-0.248
-280.486	-68.928	0.139	-0.053
-279.472	85.933	-0.174	-0.189
-278.457	-200.000	0.060	-0.350
-277.443	-73.237	0.170	-0.062
-276.428	782.273	0.066	0.178
-275.413	4.186	0.037	-0.027
-274.399	354.383	0.057	-0.113
-273.384	-43.566	-0.394	0.197
-272.370	-200.000	-0.032	0.157
-271.355	48.816	-0.167	0.155
-270.340	43.004	0.234	0.211
-269.326	95.867	0.111	0.126
-268.311	-93.349	0.146	-0.040
-267.297	-107.903	0.098	-0.021
-266.282	-56.334	-0.233	0.102
-265.267	-82.034	0.084	-0.027
-264.253	310.684	0.141	-0.261
-263.238	-93.961	0.140	-0.038
-262.224	-153.681	0.129	0.009
-261.209	-45.844	0.291	-0.142
-260.195	-200.000	0.032	-0.144
-259.180	-200.000	-0.023	-0.129
-258.165	634.496	0.083	0.209
-257.151	-92.620	0.264	0.073
-256.136	161.371	0.079	-0.109
-255.122	-65.297	0.080	0.032
-254.107	-58.466	0.012	-0.005
-253.092	-167.886	0.148	0.006
-252.078	-31.795	0.035	-0.019
-251.063	-160.908	-0.090	0.005
-250.049	87.320	0.169	0.185
-249.034	-107.776	0.221	0.048
-248.019	741.673	0.108	-0.287
-247.005	-200.000	0.044	-0.324
-245.990	211.570	-0.058	0.091
-244.976	-150.311	-0.262	0.020
-243.961	34.303	-0.216	-0.186
-242.946	36.991	-0.064	-0.056
-241.932	9.833	-0.228	0.171
-240.917	-200.000	-0.041	0.341
-239.903	32.343	0.112	-0.095
-238.888	-101.671	0.069	-0.017
-237.873	71.420	-0.134	0.137
-236.859	-73.952	0.272	-0.097
-235.844	434.613	0.111	-0.239
-234.830	-154.549	-0.325	-0.021
-233.815	24.375	-0.251	0.205
-232.800	-90.203	-0.403	0.116
-231.786	-92.266	0.191	-0.053
-230.771	-114.285	0.041	-0.008
-229.757	-124.539	0.329	0.050
-228.742	14.897	-0.191	-0.147
-227.727	800.000	-0.149	0.417
-226.713	-200.000	-0.015	0.104
-225.698	789.119	0.112	-0.302
-224.684	221.088	-0.081	-0.128
-223.669	-0.277	-0.153	-0.107
-222.655	236.658	-0.074	-0.122
-221.640	14.470	0.339	0.261
-220.625	-26.654	-0.183	0.106
-219.611	800.000	0.030	-0.116
-218.596	-123.068	-0.190	-0.030
-217.582	-63.921	-0.192	0.078
-216.567	-108.169	0.233	-0.050
-215.552	401.416	-0.049	0.102
-214.538	-200.000	-0.004	0.231
-213.523	-66.466	-0.369	0.145
-212.509	-1.973	-0.090	-0.062
-211.494	-200.000	0.078	0.458
-210.479	82.803	0.278	0.298
-209.465	34.162	0.062	-0.053
-208.450	-50.386	0.193	-0.090
-207.436	727.458	-0.036	-0.094
-206.421	98.483	0.176	-0.200
-205.406	268.820	0.089	-0.154
-204.392	-12.360	0.106	-0.068
-203.377	-176.840	0.102	0.003
-202.363	-200.000	0.039	0.237
-201.348	-57.792	0.072	-0.031
-200.333	0.747	0.318	-0.224
-199.319	-120.463	0.104	0.017
-198.304	-149.238	0.257	-0.020
-197.290	26.157	-0.154	-0.127
-196.275	-102.294	-0.217	0.051
-195.260	-200.000	0.001	-0.032
-194.246	-43.435	-0.241	-0.120
-193.231	48.261	-0.274	0.252
-192.217	800.000	-0.087	-0.367
-191.202	-200.000	-0.039	-0.302
-190.187	-94.265	-0.368	0.099
-189.173	-166.944	-0.047	-0.002
-188.158	214.912	-0.174	0.272
-187.144	-200.000	-0.012	-0.233
-186.129	-16.790	0.185	0.115
-185.114	144.746	-0.240	-0.316
-184.100	-123.435	0.203	-0.032
-183.085	800.000	0.035	-0.142
-182.071	800.000	-0.114	-0.311
-181.056	-200.000	0.037	0.204
-180.042	-53.533	0.382	0.172
-179.027	360.152	0.268	0.528
-178.012	-38.810	-0.078	-0.041
-176.998	367.776	0.094	0.186
-175.983	-200.000	-0.007	-0.195
-174.969	300.495	-0.150	0.273
-173.954	-148.007	0.216	-0.018
-172.939	-138.700	-0.278	-0.030
-171.925	707.505	0.054	0.141
-170.910	-106.940	-0.333	0.073
-169.896	-200.000	0.025	-0.123
-168.881	227.588	0.159	0.255
-167.866	-71.165	-0.288	0.107
-166.852	210.812	-0.020	0.032
-165.837	800.000	0.075	0.254
-164.823	60.280	-0.187	-0.182
-163.808	-32.266	0.181	-0.100
-162.793	-3.401	0.137	0.094
-161.779	147.856	0.026	0.034
-160.764	-69.999	-0.092	-0.035
-159.750	228.956	-0.056	0.090
-158.735	2.378	0.065	0.046
-157.720	-200.000	-0.021	-0.345
-156.706	-110.575	-0.193	-0.039
-155.691	604.590	-0.067	-0.165
-154.677	-200.000	0.004	-0.305
-153.662	310.170	-0.092	0.170
-152.647	-51.387	0.361	0.166
-151.633	800.000	0.010	0.033
-150.618	-73.067	-0.235	0.085
-149.604	134.631	-0.234	0.298
-148.589	-173.051	0.377	0.011
-147.574	-200.000	0.028	0.145
-146.560	-200.000	0.053	0.489
-145.545	-95.918	0.153	-0.040
-144.531	-57.736	-0.121	0.052
-143.516	-133.072	0.385	0.048
-142.502	-23.994	-0.256	-0.151
-141.487	-49.882	0.153	-0.071
-140.472	-107.883	0.106	-0.023
-139.458	-200.000	-0.014	-0.070
-138.443	800.000	0.106	0.349
-137.429	800.000	0.066	0.183
-136.414	48.200	0.059	0.055
-135.399	-72.937	0.124	0.045
-134.385	134.031	0.160	-0.203
-133.370	-200.000	0.018	-0.104
-132.356	545.977	0.058	0.137
-131.341	61.181	-0.193	0.188
-130.326	-91.789	0.100	0.028
-129.312	98.386	-0.196	0.222
-128.297	-200.000	-0.003	0.261
-127.283	383.056	0.101	0.204
-126.268	69.965	-0.255	0.259
-125.253	-39.726	0.146	0.075
-124.239	240.310	0.061	-0.100
-123.224	-2.266	0.169	0.117
-122.210	-12.880	-0.111	0.071
-121.195	127.283	0.211	-0.263
-120.180	-200.000	0.013	0.180
-119.166	-91.231	-0.388	0.109
-118.151	-200.000	0.008	-0.159
-117.137	102.924	0.081	-0.093
-116.122	153.047	0.206	0.277
-115.107	-200.000	-0.003	-0.291
-114.093	318.990	0.182	0.340
-113.078	85.418	-0.181	-0.195
-112.064	-70.279	-0.038	0.014
-111.049	418.698	0.087	-0.184
-110.034	-71.227	-0.476	0.176
-109.020	-97.109	-0.226	-0.058
-108.005	165.726	-0.129	-0.179
-106.991	160.667	-0.076	-0.104
-105.976	-200.000	-0.018	0.095
-104.962	800.000	-0.017	0.065
-103.947	206.118	0.118	-0.181
-102.932	-6.855	-0.029	-0.019
-101.918	5.304	-0.076	-0.055
-100.903	-200.000	0.071	-0.391
-99.889	-137.971	-0.214	0.023
-98.874	32.509	0.104	0.088
-97.859	800.000	-0.102	0.293
-96.845	-200.000	0.018	-0.120
-95.830	-75.983	0.213	0.074
-94.816	173.005	-0.122	-0.173
-93.801	380.648	0.046	-0.094
-92.786	-30.989	-0.058	0.032
-91.772	664.446	-0.137	0.348
-90.757	291.965	-0.062	0.111
-89.743	-108.645	0.469	0.099
-88.728	-71.543	-0.101	0.037
-87.713	33.922	-0.217	0.185
-86.699	-42.904	0.146	-0.073
-85.684	42.285	-0.247	-0.220
-84.670	-150.201	-0.365	-0.028
-83.655	48.638	0.164	-0.151
-82.640	38.489	-0.234	-0.205
-81.626	-29.567	0.343	-0.192
-80.611	172.997	0.124	0.175
-79.597	-69.675	0.276	0.104
-78.582	214.073	-0.058	0.089
-77.567	-200.000	-0.022	-0.181
-76.553	-122.028	-0.340	-0.055
-75.538	26.114	0.081	-0.066
-74.524	-168.300	0.226	0.009
-73.509	-105.539	-0.532	0.118
-72.494	-200.000	-0.019	0.394
-71.480	-65.699	-0.072	0.028
-70.465	695.434	-0.049	-0.127
-69.451	-200.000	-0.050	-0.346
-68.436	-200.000	0.009	0.174
-67.422	-62.726	0.159	-0.065
-66.407	1.297	-0.048	-0.034
-65.392	-116.062	-0.193	0.035
-64.378	800.000	-0.066	0.183
-63.363	-7.186	-0.118	-0.078
-62.349	-200.000	0.022	0.316
-61.334	18.005	-1.431	-1.119
-60.319	113.696	0.539	0.643
-59.305	-200.000	-0.238	-1.363
-58.290	470.823	0.547	1.206
-57.276	800.000	0.602	1.655
-56.261	-200.000	118.976	614.802
-55.246	407.016	1528.665	3165.660
-54.232	145.541	2689.648	3531.508
-53.217	88.270	2297.489	2499.997
-52.203	31.726	2043.578	1723.739
-51.188	27.360	1960.649	1615.080
-50.173	26.163	1943.384	1590.254
-49.159	42.022	2009.964	1787.757
-48.144	40.985	2024.977	1791.702
-47.130	27.722	1980.227	1634.185
-46.115	25.737	1968.495	1606.749
-45.100	25.612	1965.941	1603.482
-44.086	25.521	1963.184	1600.359
-43.071	25.506	1961.211	1598.558
-42.057	25.561	1958.449	1596.731
-41.042	25.464	1957.306	1594.876
-40.027	25.535	1955.257	1593.774
-39.013	25.587	1953.329	1592.597
-37.998	25.561	1951.143	1590.521
-36.984	25.467	1949.881	1588.601
-35.969	25.616	1947.609	1588.000
-34.954	25.551	1947.121	1586.963
-33.940	25.606	1945.239	1585.856
-32.925	25.552	1943.250	1583.696
-31.911	25.578	1942.315	1583.096
-30.896	25.652	1940.323	1582.062
-29.881	25.584	1938.977	1580.302
-28.867	25.752	1937.116	1580.198
-27.852	25.741	1935.452	1578.678
-26.838	25.715	1933.145	1576.505
-25.823	25.655	1931.875	1574.888
-24.809	25.608	1930.164	1573.018
-23.794	25.637	1928.693	1572.007
-22.779	25.608	1926.488	1569.899
-21.765	25.715	1924.377	1569.048
-20.750	25.529	1923.892	1566.970
-19.736	25.611	1922.372	1566.379
-18.721	25.664	1920.340	1565.128
-17.706	25.730	1918.582	1564.200
-16.692	25.642	1917.298	1562.332
-15.677	25.634	1915.765	1560.947
-14.663	25.661	1914.249	1559.889
-13.648	25.626	1913.182	1558.650
-12.633	25.608	1912.117	1557.567
-11.619	25.688	1910.537	1556.909
-10.604	25.654	1909.165	1555.437
-9.590	25.658	1908.093	1554.533
-8.575	25.592	1906.915	1552.949
-7.560	25.649	1905.186	1551.971
-6.546	25.715	1903.773	1551.322
-5.531	25.645	1903.204	1550.193
-4.517	25.704	1901.406	1549.173
-3.502	25.644	1900.418	1547.796
-2.487	25.612	1899.460	1546.679
-1.473	25.585	1898.702	1545.764
-0.458	25.604	1893.396	1541.548
0.556	23.594	1873.126	1511.708
1.571	19.026	1854.074	1457.595
2.586	14.967	1875.173	1439.199
3.600	13.941	1909.363	1456.316
4.615	13.785	1902.957	1449.939
5.629	10.612	1806.556	1350.009
6.644	4.153	1693.964	1215.239
7.659	0.514	1660.703	1163.257
8.673	0.240	1657.475	1158.783
9.688	0.202	1656.264	1157.546
10.702	0.217	1654.930	1156.627
11.717	0.071	1651.157	1152.768
12.731	0.515	1650.347	1155.501
13.746	5.555	1660.790	1201.466
14.761	13.001	1675.257	1269.291
15.775	16.630	1680.810	1301.335
16.790	16.836	1679.956	1302.144
17.804	15.906	1677.011	1292.609
18.819	14.919	1673.887	1282.527
19.834	14.315	1671.653	1276.074
20.848	14.080	1669.814	1272.756
21.863	13.815	1668.871	1269.900
22.877	13.592	1666.770	1266.480
23.892	13.359	1665.719	1263.794
24.907	13.229	1664.625	1261.860
25.921	13.229	1663.596	1260.969
26.936	13.185	1662.472	1259.668
27.950	13.317	1661.927	1260.146
28.965	13.240	1661.423	1259.069
29.980	13.405	1660.135	1259.234
30.994	13.338	1659.550	1258.169
32.009	13.347	1658.648	1257.444
33.023	13.501	1657.263	1257.455
34.038	13.524	1656.624	1257.029
35.053	13.481	1655.255	1255.553
36.067	13.411	1654.183	1254.096
37.082	13.394	1653.637	1253.449
38.096	13.498	1651.996	1252.876
39.111	13.349	1651.638	1251.369
40.126	13.456	1650.739	1251.387
41.140	13.490	1649.545	1250.626
42.155	13.325	1648.559	1248.524
43.169	13.218	1647.088	1246.490
44.184	13.219	1645.967	1245.538
45.199	13.162	1644.919	1244.210
46.213	13.233	1643.541	1243.593
47.228	13.212	1641.904	1242.081
48.242	13.210	1641.189	1241.416
49.257	13.282	1639.725	1240.738
50.271	13.295	1638.647	1239.912
51.286	13.315	1637.388	1239.002
52.301	13.438	1635.467	1238.355
53.315	13.348	1634.758	1237.038
54.330	13.368	1633.134	1235.848
55.344	13.229	1631.458	1233.431
56.359	13.228	1630.127	1232.314
57.374	13.234	1629.138	1231.501
58.388	13.187	1628.423	1230.503
59.403	13.242	1626.684	1229.489
60.417	13.177	1625.262	1227.821
61.432	13.202	1623.516	1226.576
62.447	13.179	1622.661	1225.654
63.461	13.098	1621.666	1224.191
64.476	13.138	1620.286	1223.341
65.490	13.179	1618.999	1222.565
66.505	13.117	1618.140	1221.348
67.520	13.135	1617.255	1220.706
68.534	13.232	1615.827	1220.237
69.549	13.202	1615.214	1219.441
70.563	13.270	1613.724	1218.713
71.578	13.187	1612.932	1217.388
72.593	13.152	1611.347	1215.828
73.607	13.112	1610.135	1214.511
74.622	13.002	1609.673	1213.248
75.636	13.102	1608.068	1212.664
76.651	13.094	1607.593	1212.144
77.666	13.118	1606.288	1211.230
78.680	13.075	1605.889	1210.503
79.695	13.123	1604.871	1209.983
80.709	13.163	1603.790	1209.353
81.724	13.116	1602.722	1208.095
82.739	13.176	1601.822	1207.752
83.753	13.202	1600.685	1206.978
84.768	13.249	1599.755	1206.511
85.782	13.204	1599.210	1205.662
86.797	13.364	1597.933	1205.764
87.812	13.435	1596.986	1205.454
88.826	13.275	1596.015	1203.449
89.841	13.268	1594.946	1202.491
90.855	13.286	1594.015	1201.809
91.870	13.263	1592.621	1200.488
92.884	13.342	1591.650	1200.219
93.899	13.391	1590.704	1199.761
94.914	13.344	1589.725	1198.570
95.928	13.296	1588.828	1197.444
96.943	13.408	1586.913	1196.705
97.957	13.383	1585.493	1195.345
98.972	13.344	1584.557	1194.253
99.987	13.310	1582.575	1192.406
101.001	13.340	1581.279	1191.541
102.016	13.416	1579.526	1190.661
103.030	13.403	1578.293	1189.532
104.045	13.352	1577.317	1188.329
105.060	13.443	1575.670	1187.638
106.074	13.324	1574.341	1185.674
107.089	13.335	1572.482	1184.246
108.103	13.234	1571.709	1182.842
109.118	13.196	1569.915	1181.114
110.133	13.180	1568.715	1179.988
111.147	13.249	1567.037	1179.118
112.162	13.175	1566.134	1177.805
113.176	13.262	1564.359	1176.984
114.191	13.281	1562.989	1175.984
115.206	13.364	1561.892	1175.646
116.220	13.299	1560.723	1174.200
117.235	13.284	1559.521	1173.086
118.249	13.253	1558.193	1171.767
119.264	13.178	1557.640	1170.710
120.279	13.287	1555.478	1169.756
121.293	13.280	1554.096	1168.565
122.308	13.279	1552.331	1167.129
123.322	13.301	1550.798	1166.022
124.337	13.314	1549.648	1165.146
125.352	13.207	1548.584	1163.496
126.366	13.095	1547.469	1161.767
127.381	13.238	1546.146	1161.670
128.395	13.201	1545.114	1160.536
129.410	13.198	1543.476	1159.180
130.424	13.200	1541.978	1157.967
131.439	13.239	1541.032	1157.426
132.454	13.248	1539.907	1156.542
133.468	13.317	1538.375	1155.770
134.483	13.350	1536.901	1154.793
135.497	13.369	1535.643	1153.880
136.512	13.324	1534.384	1152.515
137.527	13.361	1532.985	1151.624
138.541	13.422	1531.598	1150.904
139.556	13.350	1530.641	1149.583
140.570	13.399	1528.614	1148.294
141.585	13.400	1527.226	1147.156
142.600	13.399	1526.419	1146.448
143.614	13.489	1525.304	1146.132
144.629	13.495	1523.984	1145.075
145.643	13.489	1522.378	1143.730
146.658	13.529	1521.381	1143.154
147.673	13.550	1519.617	1141.875
148.687	13.467	1518.384	1140.270
149.702	13.484	1516.560	1138.918
150.716	13.529	1515.003	1137.957
151.731	13.437	1513.359	1135.989
152.746	13.490	1512.795	1135.828
153.760	13.457	1511.344	1134.418
154.775	13.462	1510.048	1133.378
155.789	13.603	1508.416	1133.013
156.804	13.610	1506.876	1131.807
157.819	13.692	1505.714	1131.392
158.833	13.586	1505.063	1130.080
159.848	13.628	1503.735	1129.271
160.862	13.681	1502.601	1128.681
161.877	13.638	1501.764	1127.659
162.892	13.737	1499.913	1126.841
163.906	13.653	1498.900	1125.407
164.921	13.637	1497.321	1124.019
165.935	13.592	1497.126	1123.467
166.950	13.581	1495.821	1122.314
167.964	13.628	1494.580	1121.602
168.979	13.674	1494.076	1121.436
169.994	13.741	1492.399	1120.529
171.008	13.622	1491.650	1119.066
172.023	13.688	1490.925	1118.866
173.037	13.716	1489.378	1117.795
174.052	13.804	1488.243	1117.435
175.067	13.700	1487.344	1115.961
176.081	13.810	1485.879	1115.506
177.096	13.739	1484.740	1114.073
178.110	13.721	1483.667	1113.049
179.125	13.667	1482.314	1111.574
180.140	13.756	1481.294	1111.305
181.154	13.660	1480.472	1109.946
182.169	13.720	1479.265	1109.347
183.183	13.693	1477.988	1108.108
184.198	13.820	1477.113	1108.206
185.213	13.966	1475.496	1107.865
186.227	13.883	1473.949	1106.056
187.242	13.850	1473.589	1105.464
188.256	13.855	1472.916	1104.897
189.271	13.988	1471.904	1104.925
190.286	13.976	1470.740	1103.874
191.300	13.945	1469.074	1102.322
192.315	13.827	1468.190	1100.775
193.329	13.853	1466.898	1099.883
194.344	13.724	1465.937	1098.214
195.359	13.755	1465.073	1097.672
196.373	13.800	1463.668	1096.818
197.388	13.861	1463.191	1096.766
198.402	13.878	1462.016	1095.899
199.417	14.017	1460.192	1095.356
200.432	14.003	1459.547	1094.681
201.446	14.088	1458.742	1094.538
202.461	14.145	1457.402	1093.812
203.475	14.155	1456.746	1093.293
204.490	14.194	1455.225	1092.305
205.504	14.173	1454.351	1091.416
206.519	14.133	1453.444	1090.374
207.534	14.100	1451.892	1088.903
208.548	14.010	1451.366	1087.819
209.563	14.115	1450.031	1087.409
210.577	14.261	1448.267	1086.945
211.592	14.232	1447.527	1086.101
212.607	14.155	1447.674	1085.618
213.621	14.212	1446.467	1084.987
214.636	14.219	1445.659	1084.333
215.650	14.194	1445.005	1083.581
216.665	14.246	1443.770	1082.895
217.680	14.327	1442.666	1082.497
218.694	14.241	1442.458	1081.689
219.709	14.339	1441.394	1081.429
220.723	14.403	1440.074	1080.757
221.738	14.421	1439.461	1080.319
222.753	14.375	1438.783	1079.420
223.767	14.296	1437.787	1078.063
224.782	14.416	1436.459	1077.747
225.796	14.342	1435.951	1076.796
226.811	14.434	1434.750	1076.393
227.826	14.456	1433.779	1075.714
228.840	14.572	1432.822	1075.644
229.855	14.472	1432.350	1074.553
230.869	14.512	1431.189	1073.841
231.884	14.433	1430.053	1072.385
232.899	14.495	1428.760	1071.722
233.913	14.444	1428.333	1070.978
234.928	14.444	1426.525	1069.530
235.942	14.486	1425.480	1068.919
236.957	14.456	1423.902	1067.449
237.972	14.589	1422.582	1067.220
238.986	14.404	1422.051	1065.542
240.001	14.505	1421.429	1065.625
241.015	14.505	1420.685	1064.971
242.030	14.479	1419.164	1063.572
243.045	14.474	1418.585	1063.011
244.059	14.578	1417.613	1062.852
245.074	14.623	1416.496	1062.206
246.088	14.659	1415.654	1061.715
247.103	14.635	1414.675	1060.730
248.117	14.648	1414.547	1060.622
249.132	14.711	1413.673	1060.273
250.147	14.774	1412.537	1059.731
251.161	14.814	1412.122	1059.580
252.176	14.811	1411.296	1058.848
253.190	14.877	1410.722	1058.739
254.205	14.985	1409.541	1058.443
255.220	14.916	1409.242	1057.686
256.234	15.007	1408.222	1057.405
257.249	14.945	1407.238	1056.180
258.263	14.944	1406.029	1055.174
259.278	15.031	1404.975	1054.836
260.293	14.954	1404.842	1054.155
261.307	15.017	1404.008	1053.833
262.322	15.064	1403.501	1053.655
263.336	15.064	1402.590	1052.879
264.351	15.126	1401.111	1052.067
265.366	15.109	1400.656	1051.523
266.380	15.190	1399.277	1050.904
267.395	15.114	1398.458	1049.718
268.409	15.195	1397.707	1049.571
269.424	15.169	1396.891	1048.705
270.439	15.180	1395.521	1047.649
271.453	15.149	1394.907	1046.904
272.468	15.204	1393.820	1046.336
273.482	15.186	1393.444	1045.850
274.497	15.166	1392.336	1044.801
275.512	15.152	1391.367	1043.894
276.526	15.249	1390.511	1043.764
277.541	15.196	1389.659	1042.704
278.555	15.192	1388.838	1041.971
279.570	15.219	1387.700	1041.195
280.585	15.298	1386.845	1040.951
281.599	15.355	1385.949	1040.534
282.614	15.300	1385.081	1039.451
283.628	15.296	1384.204	1038.679
284.643	15.361	1383.084	1038.145
285.657	15.354	1382.121	1037.292
286.672	15.343	1381.047	1036.325
287.687	15.284	1380.408	1035.390
288.701	15.377	1379.104	1034.890
289.716	15.388	1378.534	1034.440
290.730	15.386	1377.479	1033.544
291.745	15.466	1376.476	1033.194
292.760	15.418	1375.483	1032.064
293.774	15.415	1374.328	1031.085
294.789	15.506	1373.453	1030.895
295.803	15.496	1372.766	1030.229
296.818	15.615	1371.663	1030.041
297.833	15.553	1370.964	1029.044
298.847	15.536	1369.866	1028.023
299.862	15.544	1369.182	1027.467
300.876	15.518	1368.117	1026.418
301.891	15.511	1367.515	1025.833
302.906	15.535	1366.955	1025.471
303.920	15.525	1365.908	1024.530
304.935	15.684	1365.228	1024.904
305.949	15.724	1364.650	1024.618
306.964	15.713	1363.516	1023.613
307.979	15.728	1362.590	1022.918
308.993	15.793	1361.274	1022.230
310.008	15.740	1360.586	1021.306
311.022	15.743	1359.456	1020.382
312.037	15.833	1358.574	1020.175
313.052	15.830	1357.898	1019.563
314.066	15.750	1357.044	1018.344
315.081	15.764	1355.881	1017.469
316.095	15.784	1354.653	1016.578
317.110	15.744	1353.827	1015.627
318.125	15.759	1352.786	1014.847
319.139	15.851	1352.179	1014.856
320.154	15.824	1351.156	1013.833
321.168	15.833	1349.797	1012.781
322.183	15.784	1349.403	1012.100
323.197	15.908	1348.156	1011.821
324.212	15.834	1347.471	1010.773
325.227	15.900	1346.766	1010.546
326.241	15.978	1345.463	1009.951
327.256	15.931	1344.641	1008.964
328.270	15.909	1344.129	1008.357
329.285	15.909	1343.130	1007.521
330.300	15.801	1342.542	1006.341
331.314	15.932	1341.323	1006.123
332.329	15.938	1340.625	1005.543
333.343	15.893	1339.959	1004.688
334.358	15.992	1338.819	1004.335
335.373	16.000	1337.775	1003.509
336.387	16.046	1337.131	1003.213
337.402	15.963	1336.585	1002.220
338.416	16.029	1336.203	1002.239
339.431	16.027	1335.473	1001.592
340.446	16.136	1334.730	1001.591
341.460	16.165	1333.820	1000.993
342.475	16.170	1332.570	999.996
343.489	16.172	1331.931	999.437
344.504	16.165	1331.032	998.631
345.519	16.223	1330.457	998.457
346.533	16.333	1329.071	997.981
347.548	16.283	1328.155	996.906
348.562	16.293	1327.438	996.338
349.577	16.280	1326.436	995.421
350.592	16.354	1326.012	995.453
351.606	16.369	1325.083	994.756
352.621	16.273	1323.697	993.062
353.635	16.265	1322.814	992.263
354.650	16.266	1321.650	991.308
355.665	16.359	1320.717	991.068
356.679	16.283	1319.933	989.948
357.694	16.345	1318.724	989.318
358.708	16.335	1317.921	988.567
359.723	16.334	1316.752	987.598
360.738	16.340	1315.783	986.815
361.752	16.466	1314.842	986.758
362.767	16.462	1313.365	985.543
363.781	16.445	1312.475	984.689
364.796	16.512	1311.941	984.590
365.810	16.571	1311.006	984.145
366.825	16.572	1310.567	983.735
367.840	16.509	1309.921	982.794
368.854	16.561	1309.415	982.631
369.869	16.604	1308.718	982.270
370.883	16.680	1308.000	982.083
371.898	16.663	1307.328	981.392
372.913	16.747	1306.148	980.911
373.927	16.609	1305.563	979.586
374.942	16.667	1304.537	979.064
375.956	16.678	1303.807	978.495
376.971	16.656	1303.230	977.845
377.986	16.682	1302.282	977.199
379.000	16.694	1301.650	976.708
380.015	16.658	1301.038	975.952
381.029	16.715	1300.329	975.661
382.044	16.781	1299.692	975.482
383.059	16.864	1298.907	975.280
384.073	16.858	1298.299	974.706
385.088	16.985	1297.297	974.595
386.102	16.880	1296.687	973.450
387.117	16.967	1296.037	973.372
388.132	16.941	1295.274	972.562
389.146	16.891	1294.258	971.429
390.161	16.874	1293.362	970.575
391.175	16.756	1293.264	969.736
392.190	16.919	1292.290	969.855
393.205	16.968	1291.093	969.149
394.219	16.988	1290.402	968.660
395.234	17.084	1289.012	968.078
396.248	16.961	1287.525	966.174
397.263	17.042	1285.936	965.360
398.278	16.968	1285.000	964.150
399.292	17.049	1284.013	963.783
400.307	16.955	1283.328	962.651
401.321	16.974	1281.938	961.630
402.336	16.975	1281.183	960.984
403.350	16.972	1280.129	960.092
404.365	16.984	1279.640	959.709
405.380	17.082	1278.144	959.056
406.394	17.073	1277.730	958.607
407.409	17.080	1276.798	957.866
408.423	17.120	1276.003	957.408
409.438	17.235	1275.517	957.609
410.453	17.146	1274.892	956.552
411.467	17.154	1274.590	956.283
412.482	17.209	1273.578	955.752
413.496	17.272	1273.131	955.688
414.511	17.313	1271.943	954.940
415.526	17.396	1271.310	954.847
416.540	17.458	1270.363	954.397
417.555	17.412	1269.765	953.606
418.569	17.388	1269.580	953.248
419.584	17.446	1269.005	953.059
420.599	17.388	1268.642	952.373
421.613	99.508	1357.438	1484.583
422.628	96.923	1370.308	1484.652
