DTS Sentinel unit serial number:	SN413079Multiplexer serial number:	ORYXHardware model number:	OX4-SRSoftware version number:	ORYX F/W v4.00 Oryx Data Collector v3.7.2.0data status	okinstallation	princeton_trtdifferential loss correction	single-endedforward channel	channel 4reverse channel	N/Adate	2019/09/17time	01:13:35forward acquisition time	60.00reverse acquisition time	0.00gamma	496.2192k internal	0.2313k external	0.2313temperature offset calibration	0.9970default loss term (dB/km)	0.3790temperature slope calibration	1.0000multiplexer offset coefficient	1.0000multiplexer slope coefficient	1.0000fibre end	0.00T internal ref (°C)	29.50T ext. ref 1 (°C)	0.11T ext. ref 2 (°C)	24.19length (m)	temperature (°C)	Stokes	anti-Stokes-747.200	-93.235	0.198	-0.056
-746.185	44.871	-0.103	-0.096
-745.171	33.443	-0.162	0.143
-744.156	46.870	-0.214	0.201
-743.142	-200.000	0.033	0.276
-742.127	800.000	0.218	0.678
-741.112	-77.630	0.140	0.049
-740.098	-40.498	-0.164	-0.086
-739.083	95.599	-0.068	0.079
-738.069	-200.000	0.042	0.244
-737.054	-200.000	0.014	-0.071
-736.039	-41.011	-0.060	-0.032
-735.025	-51.169	0.350	0.166
-734.010	118.650	-0.121	0.152
-732.996	-112.721	0.163	0.033
-731.981	46.979	0.118	-0.111
-730.966	-108.290	-0.222	0.049
-729.952	-62.864	-0.278	0.116
-728.937	-112.625	-0.336	-0.068
-727.923	-107.001	0.123	0.028
-726.908	8.156	0.102	-0.078
-725.894	-99.817	-0.243	0.062
-724.879	-200.000	0.027	-0.200
-723.864	69.848	0.087	0.090
-722.850	-200.000	0.007	0.311
-721.835	-127.933	-0.141	-0.021
-720.821	-200.000	-0.015	0.226
-719.806	800.000	-0.092	-0.391
-718.791	101.801	0.125	0.147
-717.777	-200.000	0.005	0.206
-716.762	456.549	0.069	-0.154
-715.748	42.298	0.189	0.174
-714.733	-143.772	-0.226	0.022
-713.718	-200.000	0.042	-0.235
-712.704	-200.000	0.010	-0.139
-711.689	-200.000	-0.023	-0.253
-710.675	-200.000	-0.002	0.061
-709.660	-200.000	-0.000	0.107
-708.645	54.308	-0.255	-0.248
-707.631	-23.049	-0.219	0.134
-706.616	301.326	-0.054	-0.100
-705.602	30.091	0.222	-0.192
-704.587	338.129	-0.153	-0.302
-703.572	118.447	-0.215	-0.269
-702.558	152.677	-0.114	-0.158
-701.543	89.810	0.059	0.067
-700.529	-200.000	0.085	-0.478
-699.514	458.468	0.151	0.341
-698.499	230.342	-0.140	-0.231
-697.485	271.354	0.106	0.189
-696.470	287.413	-0.087	0.158
-695.456	1.947	-0.481	0.351
-694.441	180.799	0.132	-0.196
-693.426	-50.242	-0.231	0.111
-692.412	198.156	0.101	0.156
-691.397	-155.923	-0.290	-0.019
-690.383	-132.045	0.194	-0.026
-689.368	-200.000	-0.002	0.197
-688.354	-15.467	-0.138	-0.089
-687.339	-11.979	0.216	0.143
-686.324	-37.868	0.208	0.112
-685.310	-99.721	-0.160	0.041
-684.295	-83.614	0.142	0.046
-683.281	61.773	-0.127	0.128
-682.266	-43.610	0.105	0.054
-681.251	405.778	0.157	-0.336
-680.237	-18.246	0.217	0.137
-679.222	-16.695	0.124	-0.079
-678.208	-94.405	-0.329	-0.091
-677.193	381.352	0.156	-0.324
-676.178	-54.321	-0.128	-0.059
-675.164	14.426	0.100	-0.079
-674.149	-101.313	-0.360	0.089
-673.135	638.164	-0.047	-0.121
-672.120	-166.920	0.126	-0.005
-671.105	-41.841	-0.123	0.064
-670.091	-103.725	0.338	-0.080
-669.076	163.109	0.034	-0.048
-668.062	-200.000	-0.029	-0.131
-667.047	156.428	0.038	-0.053
-666.032	193.054	-0.215	-0.328
-665.018	-20.064	0.155	0.097
-664.003	-40.355	0.090	-0.048
-662.989	232.258	0.128	-0.213
-661.974	434.781	0.068	0.150
-660.959	800.000	-0.021	-0.063
-659.945	-200.000	-0.053	-0.263
-658.930	800.000	0.062	0.238
-657.916	-177.833	-0.148	-0.004
-656.901	-73.273	-0.425	0.157
-655.886	593.940	-0.018	-0.046
-654.872	-140.359	0.130	0.014
-653.857	-3.817	0.092	-0.065
-652.843	5.074	-0.404	0.301
-651.828	-182.947	-0.083	-0.002
-650.814	180.346	0.148	-0.219
-649.799	138.556	-0.168	-0.223
-648.784	800.000	-0.105	-0.398
-647.770	772.323	0.132	-0.363
-646.755	326.199	0.126	0.244
-645.741	-36.498	-0.163	-0.089
-644.726	36.914	0.144	0.129
-643.711	-200.000	-0.021	-0.132
-642.697	-200.000	-0.016	-0.244
-641.682	148.785	0.110	-0.150
-640.668	-200.000	0.031	-0.138
-639.653	-15.641	0.134	0.086
-638.638	-69.956	-0.227	-0.088
-637.624	-47.895	-0.332	-0.162
-636.609	-80.406	0.140	-0.047
-635.595	-151.349	-0.081	0.006
-634.580	-149.539	-0.334	-0.027
-633.565	-200.000	-0.008	-0.125
-632.551	-49.324	0.195	0.094
-631.536	-200.000	0.061	-0.407
-630.522	-102.205	0.192	-0.047
-629.507	-74.850	0.187	-0.068
-628.492	-96.027	-0.197	-0.053
-627.478	-148.767	0.109	0.009
-626.463	-200.000	0.010	-0.251
-625.449	-33.288	-0.144	-0.081
-624.434	709.773	-0.142	-0.380
-623.419	-46.636	0.227	0.112
-622.405	-121.853	-0.096	0.016
-621.390	-128.873	0.356	-0.050
-620.376	-128.301	-0.142	0.020
-619.361	103.958	-0.164	0.195
-618.346	220.748	-0.100	0.162
-617.332	-94.392	-0.163	-0.045
-616.317	781.535	0.111	-0.306
-615.303	-39.640	-0.322	0.170
-614.288	-200.000	0.008	0.185
-613.273	-144.355	-0.123	0.012
-612.259	800.000	0.082	0.304
-611.244	-74.243	-0.243	-0.089
-610.230	116.785	-0.123	-0.152
-609.215	313.048	-0.125	-0.237
-608.201	-200.000	0.033	-0.356
-607.186	-68.145	0.424	-0.167
-606.171	-200.000	0.282	0.001
-605.157	-20.688	-0.456	-0.283
-604.142	151.736	-0.065	-0.090
-603.128	81.668	-0.039	0.042
-602.113	-121.917	-0.085	-0.014
-601.098	222.695	-0.157	-0.255
-600.084	-196.117	-0.140	-0.001
-599.069	18.118	0.281	-0.226
-598.055	-115.630	-0.215	-0.041
-597.040	-200.000	-0.061	0.289
-596.025	266.168	-0.191	0.336
-595.011	73.727	0.094	-0.100
-593.996	407.290	-0.103	0.219
-592.982	-195.978	-0.331	0.002
-591.967	-200.000	0.046	-0.399
-590.952	-13.577	-0.212	-0.138
-589.938	-117.331	0.205	0.037
-588.923	10.691	-0.290	-0.223
-587.909	-99.765	-0.190	0.048
-586.894	800.000	0.059	-0.207
-585.879	-200.000	0.247	-0.001
-584.865	-200.000	-0.017	0.206
-583.850	-147.875	-0.243	-0.020
-582.836	-127.193	0.345	-0.051
-581.821	-89.143	-0.282	0.084
-580.806	-58.951	0.276	0.120
-579.792	-78.041	0.223	-0.077
-578.777	248.328	0.067	-0.115
-577.763	212.555	0.082	0.130
-576.748	106.045	-0.012	-0.014
-575.733	-122.184	0.088	0.014
-574.719	-183.749	-0.258	0.004
-573.704	179.007	-0.175	-0.258
-572.690	-200.000	0.037	0.292
-571.675	-177.899	0.384	0.009
-570.661	800.000	0.093	0.329
-569.646	800.000	-0.024	-0.073
-568.631	-200.000	0.012	-0.180
-567.617	-52.199	0.094	-0.044
-566.602	-7.469	0.189	0.129
-565.588	41.291	-0.251	-0.229
-564.573	112.891	-0.117	-0.143
-563.558	-12.443	0.223	0.147
-562.544	-125.136	-0.261	-0.040
-561.529	134.831	0.070	0.091
-560.515	-66.772	0.193	0.077
-559.500	-200.000	0.008	-0.392
-558.485	482.991	-0.122	-0.279
-557.471	-131.462	-0.182	0.024
-556.456	135.784	0.145	0.190
-555.442	-200.000	-0.023	0.355
-554.427	75.010	-0.133	-0.141
-553.412	-63.400	-0.154	0.064
-552.398	182.035	0.037	0.054
-551.383	800.000	0.055	-0.191
-550.369	132.056	-0.182	-0.236
-549.354	43.729	0.402	-0.370
-548.339	-144.953	-0.263	0.024
-547.325	800.000	-0.100	0.336
-546.310	4.973	0.058	0.043
-545.296	800.000	0.017	-0.047
-544.281	658.580	0.045	-0.117
-543.266	6.379	-0.219	-0.163
-542.252	-140.591	-0.311	0.032
-541.237	-80.663	0.414	-0.138
-540.223	734.353	-0.075	-0.201
-539.208	134.312	0.169	0.221
-538.193	138.015	0.117	0.154
-537.179	-200.000	0.002	-0.011
-536.164	-200.000	0.031	-0.260
-535.150	800.000	-0.057	0.215
-534.135	-116.611	-0.039	0.007
-533.121	-72.477	-0.214	-0.080
-532.106	114.529	0.138	-0.170
-531.091	5.751	0.256	0.190
-530.077	-200.000	-0.013	-0.091
-529.062	107.661	-0.152	-0.182
-528.048	255.847	0.082	0.142
-527.033	-139.946	-0.185	-0.020
-526.018	16.646	-0.138	-0.110
-525.004	-200.000	0.165	-0.001
-523.989	-144.661	0.191	-0.018
-522.975	-200.000	-0.016	-0.217
-521.960	235.627	-0.073	-0.121
-520.945	747.126	-0.086	-0.233
-519.931	-100.633	-0.193	0.048
-518.916	-200.000	-0.031	-0.162
-517.902	-200.000	-0.032	0.400
-516.887	-34.581	0.111	-0.061
-515.872	-14.530	-0.094	-0.061
-514.858	-62.646	-0.030	0.012
-513.843	-52.696	0.172	-0.080
-512.829	160.293	-0.065	0.091
-511.814	-114.899	0.065	0.012
-510.799	22.518	0.197	0.162
-509.785	308.374	0.110	0.207
-508.770	800.000	0.005	-0.019
-507.756	-200.000	0.118	0.000
-506.741	-3.060	-0.119	-0.084
-505.726	-8.814	-0.154	0.104
-504.712	-47.041	0.200	-0.098
-503.697	800.000	0.040	-0.114
-502.683	75.601	0.189	-0.200
-501.668	215.143	-0.080	0.127
-500.653	800.000	-0.166	0.601
-499.639	-101.406	-0.217	0.053
-498.624	-66.315	0.201	0.081
-497.610	-31.824	0.067	0.038
-496.595	217.178	0.154	-0.247
-495.581	29.457	-0.246	0.210
-494.566	-22.680	0.109	0.066
-493.551	-200.000	-0.069	-0.313
-492.537	31.210	0.226	-0.195
-491.522	-200.000	-0.012	-0.249
-490.508	74.812	0.331	0.350
-489.493	-23.393	0.196	0.118
-488.478	800.000	0.071	0.224
-487.464	35.087	-0.307	0.270
-486.449	-21.611	0.133	-0.081
-485.435	-32.734	-0.187	-0.105
-484.420	-200.000	0.017	0.093
-483.405	-5.150	0.156	-0.108
-482.391	89.493	-0.120	0.134
-481.376	20.170	-0.136	0.110
-480.362	-68.660	0.176	-0.068
-479.347	-129.784	0.107	-0.015
-478.332	-200.000	0.019	0.140
-477.318	59.997	-0.155	-0.154
-476.303	-85.986	-0.202	0.063
-475.289	34.942	-0.111	0.098
-474.274	-59.022	-0.239	0.104
-473.259	165.109	-0.301	-0.427
-472.245	-118.249	0.319	-0.057
-471.230	145.672	0.068	0.091
-470.216	-200.000	0.020	0.283
-469.201	-36.537	-0.242	0.130
-468.186	-160.375	-0.260	-0.014
-467.172	2.137	0.320	-0.232
-466.157	-200.000	0.027	-0.305
-465.143	800.000	-0.044	-0.140
-464.128	-154.292	-0.014	0.001
-463.113	-166.219	0.258	0.011
-462.099	-15.597	0.056	-0.036
-461.084	665.368	0.177	0.457
-460.070	-200.000	0.006	0.180
-459.055	800.000	-0.048	0.157
-458.040	62.482	0.124	-0.124
-457.026	-200.000	-0.010	0.229
-456.011	-81.213	0.211	-0.070
-454.997	800.000	0.129	0.381
-453.982	-32.094	0.228	0.128
-452.968	-55.237	0.274	0.124
-451.953	492.049	0.035	0.081
-450.938	153.227	-0.190	0.260
-449.924	43.762	0.185	-0.170
-448.909	-87.307	0.254	0.077
-447.895	287.896	0.069	-0.125
-446.880	-200.000	-0.015	0.168
-445.865	-18.781	0.292	-0.182
-444.851	800.000	0.123	-0.353
-443.836	800.000	0.066	-0.187
-442.822	-200.000	-0.021	-0.387
-441.807	-193.338	0.248	-0.002
-440.792	76.569	-0.360	0.383
-439.778	166.785	0.242	0.345
-438.763	185.967	-0.118	0.176
-437.749	-156.348	-0.185	0.012
-436.734	-200.000	0.030	0.189
-435.719	65.802	-0.369	-0.375
-434.705	-60.041	-0.187	0.080
-433.690	-86.722	-0.292	0.089
-432.676	-118.619	0.469	0.083
-431.661	26.311	-0.088	-0.073
-430.646	-164.382	0.182	-0.008
-429.632	6.466	0.064	0.047
-428.617	-121.668	0.161	-0.027
-427.603	-19.978	-0.202	0.125
-426.588	40.269	0.164	0.148
-425.573	-200.000	-0.001	-0.120
-424.559	194.978	-0.189	0.287
-423.544	-24.826	-0.190	-0.113
-422.530	-200.000	0.029	0.172
-421.515	668.665	-0.105	-0.273
-420.500	-176.244	-0.254	0.007
-419.486	-12.713	-0.117	-0.076
-418.471	-6.222	0.129	-0.088
-417.457	-33.692	-0.157	0.087
-416.442	551.404	-0.172	-0.414
-415.428	-49.385	-0.307	-0.147
-414.413	-88.688	0.125	-0.037
-413.398	-115.584	0.261	0.049
-412.384	710.603	-0.022	0.057
-411.369	77.395	-0.317	-0.338
-410.355	211.788	-0.185	-0.292
-409.340	151.694	-0.101	0.138
-408.325	-119.185	-0.371	-0.065
-407.311	-67.034	0.270	0.107
-406.296	-182.064	0.048	-0.001
-405.282	800.000	0.029	0.092
-404.267	415.289	-0.077	0.165
-403.252	30.452	0.120	0.102
-402.238	-200.000	-0.037	-0.179
-401.223	-200.000	-0.020	0.149
-400.209	-36.174	0.364	0.196
-399.194	93.280	0.076	0.086
-398.179	-30.078	-0.295	0.168
-397.165	-117.628	-0.247	-0.045
-396.150	-200.000	0.025	0.168
-395.136	-200.000	0.026	0.398
-394.121	-200.000	0.036	0.189
-393.106	800.000	-0.091	0.293
-392.092	800.000	-0.144	-0.412
-391.077	800.000	-0.016	-0.061
-390.063	-74.327	0.102	-0.037
-389.048	620.525	-0.092	-0.232
-388.033	321.264	0.127	-0.241
-387.019	57.982	-0.104	0.102
-386.004	-131.413	0.114	-0.015
-384.990	170.412	0.061	-0.087
-383.975	-141.389	-0.480	-0.049
-382.960	81.378	0.026	0.028
-381.946	-42.658	0.089	0.045
-380.931	23.695	0.093	0.077
-379.917	-84.297	-0.105	-0.033
-378.902	-100.366	-0.471	0.117
-377.888	130.607	0.099	-0.126
-376.873	124.358	0.098	0.124
-375.858	107.295	0.136	0.162
-374.844	800.000	0.018	0.053
-373.829	160.601	0.014	0.019
-372.815	-85.987	-0.262	0.081
-371.800	91.073	-0.087	-0.098
-370.785	-116.212	0.149	-0.028
-369.771	161.304	0.122	0.171
-368.756	131.653	-0.079	0.101
-367.742	-200.000	0.010	0.048
-366.727	586.780	0.056	0.137
-365.712	60.204	-0.303	0.299
-364.698	800.000	-0.034	-0.129
-363.683	-41.310	-0.143	0.074
-362.669	-161.940	-0.086	0.004
-361.654	-184.505	-0.093	-0.002
-360.639	800.000	0.047	0.191
-359.625	800.000	0.039	0.123
-358.610	-44.001	-0.161	-0.081
-357.596	-146.622	0.056	0.005
-356.581	-187.115	0.061	-0.001
-355.566	220.613	0.093	0.150
-354.552	252.504	0.062	-0.106
-353.537	727.423	0.042	-0.112
-352.523	489.262	-0.011	-0.025
-351.508	-112.558	0.218	-0.043
-350.493	268.908	0.234	0.410
-349.479	384.491	0.052	-0.106
-348.464	28.041	-0.192	-0.162
-347.450	103.969	0.136	0.159
-346.435	-14.678	0.357	0.229
-345.420	-200.000	-0.001	-0.321
-344.406	-80.987	-0.303	0.100
-343.391	-109.918	-0.126	0.026
-342.377	197.047	0.029	-0.045
-341.362	206.776	0.108	0.167
-340.348	-200.000	0.022	0.229
-339.333	329.786	-0.041	0.079
-338.318	-84.487	-0.038	-0.012
-337.304	800.000	0.046	-0.200
-336.289	-133.119	0.178	0.022
-335.275	169.642	0.104	0.148
-334.260	-136.792	0.148	0.017
-333.245	-87.221	-0.130	0.039
-332.231	554.435	-0.042	0.102
-331.216	-200.000	0.011	0.255
-330.202	-200.000	0.034	0.205
-329.187	-55.323	-0.295	0.132
-328.172	50.497	-0.119	-0.112
-327.158	1.568	0.312	-0.224
-326.143	-101.854	-0.210	-0.051
-325.129	489.539	-0.067	-0.152
-324.114	-97.682	-0.182	-0.047
-323.099	199.553	-0.126	0.193
-322.085	-200.000	-0.024	-0.165
-321.070	-200.000	-0.069	0.384
-320.056	-200.000	0.037	0.326
-319.041	28.444	-0.270	0.228
-318.026	-5.855	0.107	0.073
-317.012	203.772	-0.116	-0.179
-315.997	-146.165	0.187	0.016
-314.983	198.884	0.044	-0.067
-313.968	92.693	0.088	0.099
-312.953	20.515	-0.293	0.236
-311.939	29.353	0.077	-0.065
-310.924	113.000	0.140	0.169
-309.910	177.503	-0.118	0.171
-308.895	-62.435	-0.025	0.011
-307.880	-32.415	-0.140	-0.078
-306.866	117.696	0.292	-0.358
-305.851	207.382	-0.111	0.173
-304.837	-21.811	-0.048	0.029
-303.822	-200.000	0.050	0.269
-302.807	-200.000	-0.076	0.331
-301.793	262.402	0.064	-0.111
-300.778	-93.070	0.124	0.034
-299.764	-200.000	-0.007	0.220
-298.749	-200.000	0.025	-0.335
-297.735	6.862	-0.048	-0.036
-296.720	-14.728	-0.080	0.051
-295.705	-169.093	0.170	0.006
-294.691	107.773	-0.119	-0.141
-293.676	-200.000	-0.079	-0.356
-292.662	-138.085	-0.217	0.024
-291.647	772.543	-0.049	0.133
-290.632	201.570	-0.062	0.095
-289.618	-98.114	0.319	-0.082
-288.603	194.191	-0.096	-0.145
-287.589	-46.348	0.010	0.005
-286.574	-4.649	0.365	0.251
-285.559	-45.307	-0.301	-0.149
-284.545	-89.431	-0.105	0.031
-283.530	57.028	0.060	0.059
-282.516	55.574	0.033	-0.032
-281.501	-200.000	-0.030	-0.310
-280.486	-200.000	-0.004	0.359
-279.472	11.231	-0.232	-0.177
-278.457	27.081	-0.266	-0.223
-277.443	51.964	-0.191	0.181
-276.428	800.000	-0.053	-0.165
-275.413	629.493	0.045	-0.112
-274.399	800.000	0.139	0.461
-273.384	-19.086	-0.177	0.110
-272.370	-200.000	0.057	0.252
-271.355	45.222	0.009	0.008
-270.340	800.000	0.064	0.195
-269.326	-95.796	-0.286	-0.076
-268.311	800.000	0.058	0.205
-267.297	214.552	0.064	0.101
-266.282	-200.000	-0.041	0.443
-265.267	-200.000	-0.003	0.236
-264.253	239.756	0.080	-0.133
-263.238	440.034	0.121	-0.263
-262.224	113.988	0.047	-0.056
-261.209	-200.000	0.021	-0.204
-260.195	-126.249	-0.344	-0.051
-259.180	50.362	0.208	-0.196
-258.165	341.895	0.123	-0.240
-257.151	-41.024	0.090	-0.046
-256.136	800.000	0.069	-0.299
-255.122	34.633	0.220	-0.191
-254.107	-18.369	-0.251	0.156
-253.092	86.336	0.031	0.034
-252.078	-140.031	0.032	0.003
-251.063	-90.156	0.173	0.050
-250.049	10.818	0.084	-0.064
-249.034	-87.528	-0.224	0.067
-248.019	800.000	-0.025	0.082
-247.005	4.311	-0.135	-0.098
-245.990	-48.552	0.185	-0.088
-244.976	726.498	-0.036	0.094
-243.961	-85.567	-0.170	-0.053
-242.946	-1.383	-0.185	0.130
-241.932	-191.596	0.361	-0.004
-240.917	-200.000	0.033	-0.151
-239.903	76.792	0.210	-0.221
-238.888	-112.292	-0.047	0.009
-237.873	-22.758	-0.169	0.102
-236.859	-200.000	-0.048	-0.243
-235.844	241.035	0.223	-0.370
-234.830	51.210	0.025	-0.023
-233.815	9.772	0.095	0.072
-232.800	206.062	0.227	0.351
-231.786	-84.415	0.133	0.042
-230.771	10.278	-0.029	-0.022
-229.757	338.990	-0.093	0.180
-228.742	-57.368	-0.036	-0.016
-227.727	71.122	0.147	-0.151
-226.713	-120.239	0.115	0.019
-225.698	127.296	0.030	0.038
-224.684	345.653	-0.167	-0.326
-223.669	-85.329	-0.218	-0.068
-222.655	53.972	-0.071	0.068
-221.640	244.293	-0.067	-0.112
-220.625	-39.644	-0.098	-0.051
-219.611	43.831	0.101	0.092
-218.596	105.297	-0.218	-0.256
-217.582	145.689	-0.127	-0.170
-216.567	361.072	-0.118	0.234
-215.552	-116.509	-0.084	-0.015
-214.538	143.376	-0.097	0.129
-213.523	145.236	0.172	0.228
-212.509	-162.194	-0.103	0.005
-211.494	-21.911	0.096	-0.058
-210.479	236.286	-0.141	-0.232
-209.465	-14.657	0.153	-0.097
-208.450	800.000	-0.055	0.208
-207.436	-55.018	0.194	0.087
-206.421	14.727	0.163	-0.126
-205.406	214.699	0.106	-0.167
-204.392	232.248	0.129	0.210
-203.377	93.106	0.049	0.056
-202.363	181.612	0.082	-0.120
-201.348	-200.000	0.037	-0.206
-200.333	407.894	0.235	0.493
-199.319	-200.000	0.007	0.207
-198.304	-152.184	-0.585	0.042
-197.290	800.000	-0.082	-0.281
-196.275	201.190	0.091	0.139
-195.260	-73.173	-0.129	-0.047
-194.246	-5.284	0.034	-0.023
-193.231	-50.050	0.050	-0.023
-192.217	-88.639	0.209	0.062
-191.202	-79.158	0.161	0.054
-190.187	-84.873	0.275	0.086
-189.173	-95.729	0.171	0.045
-188.158	108.225	-0.122	-0.144
-187.144	-34.592	0.053	0.029
-186.129	-88.156	-0.081	0.024
-185.114	-153.776	0.155	-0.011
-184.100	-23.121	-0.116	0.070
-183.085	50.552	0.283	0.266
-182.071	38.154	0.091	0.080
-181.056	0.533	0.168	-0.119
-180.042	31.258	-0.190	0.161
-179.027	-92.037	0.361	0.101
-178.012	-64.858	0.113	-0.045
-176.998	-200.000	0.038	-0.215
-175.983	-118.792	0.125	-0.022
-174.969	373.720	0.047	0.095
-173.954	-135.451	0.197	-0.023
-172.939	-80.817	-0.163	0.054
-171.925	42.853	0.049	0.044
-170.910	-152.692	0.345	-0.024
-169.896	-48.660	0.361	0.172
-168.881	-24.438	0.171	-0.101
-167.866	35.090	0.278	0.241
-166.852	-10.721	-0.170	-0.111
-165.837	-56.591	0.217	0.095
-164.823	-148.923	0.237	0.019
-163.808	-188.462	0.148	0.002
-162.793	-200.000	-0.005	0.054
-161.779	137.243	-0.218	-0.282
-160.764	-48.578	-0.206	-0.098
-159.750	198.684	-0.225	-0.342
-158.735	328.540	-0.124	0.235
-157.720	25.509	-0.128	-0.105
-156.706	77.250	0.124	-0.131
-155.691	-200.000	0.001	-0.062
-154.677	-10.271	0.319	0.210
-153.662	304.686	0.076	-0.139
-152.647	8.130	-0.148	-0.110
-151.633	-83.136	-0.166	0.053
-150.618	-110.007	-0.208	0.043
-149.604	-54.185	0.183	-0.082
-148.589	-200.000	0.023	-0.137
-147.574	14.769	-0.119	-0.092
-146.560	-200.000	0.035	-0.208
-145.545	57.633	-0.115	0.112
-144.531	-84.128	-0.388	-0.122
-143.516	800.000	-0.038	0.122
-142.502	-92.083	0.209	-0.059
-141.487	-81.131	0.213	-0.070
-140.472	357.602	-0.087	0.172
-139.458	800.000	0.063	0.197
-138.443	800.000	0.068	0.271
-137.429	-114.255	-0.203	0.039
-136.414	594.173	0.152	0.372
-135.399	-200.000	0.027	0.152
-134.385	575.620	-0.091	-0.220
-133.370	130.035	-0.174	0.221
-132.356	-200.000	-0.045	0.497
-131.341	-89.653	0.262	0.076
-130.326	-95.790	0.280	-0.074
-129.312	32.359	-0.252	0.216
-128.297	-18.110	0.102	-0.063
-127.283	-200.000	-0.051	0.296
-126.268	-194.191	-0.296	-0.002
-125.253	179.387	0.186	-0.269
-124.239	-75.110	0.042	0.015
-123.224	-109.364	0.274	0.057
-122.210	-20.171	0.061	-0.037
-121.195	230.838	-0.128	-0.208
-120.180	173.723	-0.228	-0.326
-119.166	800.000	-0.102	0.341
-118.151	-200.000	-0.002	-0.177
-117.137	-200.000	-0.001	-0.116
-116.122	11.946	0.074	-0.057
-115.107	800.000	-0.024	0.098
-114.093	-47.347	0.086	0.041
-113.078	-183.682	0.111	-0.002
-112.064	551.100	-0.072	-0.172
-111.049	5.069	0.129	-0.094
-110.034	174.031	0.177	0.254
-109.020	-200.000	0.022	0.321
-108.005	26.212	0.335	0.277
-106.991	51.348	0.246	0.231
-105.976	-59.877	0.140	0.059
-104.962	698.770	0.115	0.298
-103.947	-200.000	-0.051	0.250
-102.932	-103.525	0.323	-0.075
-101.918	-121.637	-0.160	-0.026
-100.903	-13.861	-0.254	0.162
-99.889	7.253	-0.067	-0.050
-98.874	69.348	-0.232	0.236
-97.859	-200.000	-0.010	0.380
-96.845	-200.000	-0.031	0.298
-95.830	-153.212	0.146	0.010
-94.816	-107.743	-0.214	-0.046
-93.801	-35.803	-0.278	0.149
-92.786	-94.530	0.192	-0.052
-91.772	-155.362	-0.113	0.007
-90.757	-0.488	0.130	0.091
-89.743	-54.866	-0.246	-0.110
-88.728	-2.076	-0.309	-0.215
-87.713	-51.683	-0.269	0.124
-86.699	148.317	-0.123	-0.164
-85.684	-200.000	0.010	-0.297
-84.670	-114.588	0.141	0.027
-83.655	89.862	0.007	0.008
-82.640	148.884	0.216	0.289
-81.626	-200.000	-0.032	0.365
-80.611	-86.151	0.115	-0.035
-79.597	313.144	0.235	-0.437
-78.582	3.268	0.105	0.075
-77.567	-200.000	0.019	-0.218
-76.553	124.005	-0.087	0.108
-75.538	800.000	-0.004	0.015
-74.524	-104.395	-0.096	-0.022
-73.509	60.320	0.283	-0.277
-72.494	0.622	-0.201	0.142
-71.480	-173.913	0.260	-0.008
-70.465	-107.423	0.145	0.031
-69.451	-200.000	0.031	-0.184
-68.436	-200.000	0.005	0.145
-67.422	800.000	-0.033	0.122
-66.407	-8.961	0.269	-0.178
-65.392	-3.435	-0.112	0.077
-64.378	-95.232	-0.090	-0.024
-63.363	584.056	-0.156	-0.379
-62.349	292.628	-0.190	0.343
-61.334	78.901	-0.964	-1.019
-60.319	-2.162	0.542	0.376
-59.305	789.873	-0.418	-1.134
-58.290	433.950	0.571	1.225
-57.276	800.000	0.595	1.671
-56.261	-200.000	108.890	593.183
-55.246	439.125	1484.661	3199.717
-54.232	143.549	2675.508	3517.712
-53.217	96.213	2322.359	2621.125
-52.203	35.795	2072.901	1798.943
-51.188	31.188	1989.713	1685.207
-50.173	29.868	1972.902	1659.073
-49.159	45.956	2030.221	1854.137
-48.144	46.054	2046.881	1870.171
-47.130	31.822	2005.109	1703.741
-46.115	29.582	1994.072	1674.019
-45.100	29.477	1991.383	1670.748
-44.086	29.354	1989.534	1668.014
-43.071	29.387	1986.263	1665.507
-42.057	29.319	1984.638	1663.460
-41.042	29.343	1982.840	1662.110
-40.027	29.328	1980.965	1660.331
-39.013	29.371	1978.586	1658.663
-37.998	29.409	1976.466	1657.157
-36.984	29.429	1974.791	1655.869
-35.969	29.404	1973.394	1654.408
-34.954	29.492	1971.341	1653.409
-33.940	29.544	1969.649	1652.392
-32.925	29.497	1968.105	1650.607
-31.911	29.529	1966.582	1649.554
-30.896	29.496	1964.665	1647.588
-29.881	29.514	1963.220	1646.468
-28.867	29.487	1962.070	1645.194
-27.852	29.602	1959.791	1644.245
-26.838	29.568	1958.654	1642.925
-25.823	29.567	1956.249	1640.831
-24.809	29.471	1955.180	1639.016
-23.794	29.491	1953.512	1637.731
-22.779	29.512	1951.117	1635.842
-21.765	29.523	1949.462	1634.488
-20.750	29.573	1947.709	1633.396
-19.736	29.494	1946.539	1631.653
-18.721	29.520	1945.126	1630.635
-17.706	29.563	1943.029	1629.190
-16.692	29.576	1941.249	1627.751
-15.677	29.525	1939.636	1625.885
-14.663	29.424	1938.675	1624.123
-13.648	29.570	1936.873	1623.835
-12.633	29.581	1935.522	1622.728
-11.619	29.476	1934.611	1620.985
-10.604	29.515	1933.101	1619.990
-9.590	29.523	1931.801	1618.909
-8.575	29.518	1930.391	1617.618
-7.560	29.531	1928.947	1616.458
-6.546	29.508	1927.735	1615.178
-5.531	29.443	1927.306	1614.189
-4.517	29.457	1925.526	1612.757
-3.502	29.508	1924.384	1612.177
-2.487	29.517	1922.610	1610.707
-1.473	29.499	1922.026	1610.001
-0.458	29.572	1917.478	1606.758
0.556	27.565	1897.119	1579.494
1.571	23.418	1879.557	1529.042
2.586	19.798	1902.545	1515.938
3.600	19.009	1938.266	1537.212
4.615	18.790	1933.683	1531.493
5.629	14.729	1831.838	1416.331
6.644	5.790	1711.099	1251.767
7.659	0.488	1673.804	1182.894
8.673	0.143	1670.069	1177.448
9.688	0.129	1668.855	1176.378
10.702	0.135	1667.418	1175.307
11.717	0.024	1663.341	1171.468
12.731	0.554	1663.134	1175.345
13.746	7.062	1677.664	1236.496
14.761	15.244	1694.166	1312.877
15.775	17.717	1696.392	1333.857
16.790	16.852	1694.157	1325.219
17.804	15.800	1690.721	1314.199
18.819	14.852	1687.135	1303.906
19.834	14.278	1684.622	1297.375
20.848	14.039	1683.071	1294.206
21.863	13.772	1681.215	1290.587
22.877	13.495	1680.130	1287.491
23.892	13.306	1678.579	1284.720
24.907	13.138	1677.745	1282.663
25.921	13.182	1676.357	1281.827
26.936	13.148	1675.501	1280.798
27.950	13.114	1674.623	1279.749
28.965	13.210	1674.490	1280.281
29.980	13.256	1673.453	1279.728
30.994	13.380	1672.400	1279.771
32.009	13.432	1671.272	1279.194
33.023	13.465	1670.473	1278.725
34.038	13.368	1670.030	1277.523
35.053	13.403	1668.361	1276.400
36.067	13.325	1667.951	1275.372
37.082	13.316	1666.596	1274.156
38.096	13.343	1665.310	1273.267
39.111	13.354	1665.005	1273.008
40.126	13.357	1664.103	1272.229
41.140	13.319	1663.402	1271.283
42.155	13.332	1661.561	1269.868
43.169	13.224	1660.130	1267.834
44.184	13.123	1659.407	1266.394
45.199	13.159	1658.067	1265.533
46.213	13.069	1657.232	1264.095
47.228	13.090	1655.903	1263.130
48.242	13.222	1654.433	1262.908
49.257	13.285	1652.843	1262.064
50.271	13.310	1651.559	1261.159
51.286	13.250	1650.891	1260.083
52.301	13.348	1648.976	1259.259
53.315	13.301	1647.341	1257.542
54.330	13.234	1646.610	1256.359
55.344	13.248	1644.883	1255.040
56.359	13.204	1643.567	1253.585
57.374	13.184	1642.186	1252.272
58.388	13.196	1640.903	1251.277
59.403	13.145	1639.748	1249.894
60.417	13.141	1637.842	1248.303
61.432	13.100	1637.247	1247.431
62.447	13.125	1636.273	1246.769
63.461	13.080	1635.095	1245.415
64.476	13.056	1633.716	1244.078
65.490	13.129	1632.727	1243.762
66.505	13.035	1631.601	1242.091
67.520	13.155	1629.631	1241.379
68.534	13.182	1629.085	1241.058
69.549	13.215	1627.861	1240.264
70.563	13.212	1627.042	1239.506
71.578	13.098	1625.813	1237.603
72.593	13.067	1624.827	1236.514
73.607	13.021	1623.737	1235.230
74.622	13.054	1622.106	1234.129
75.636	12.983	1621.501	1233.029
76.651	12.979	1621.019	1232.520
77.666	13.048	1619.806	1232.003
78.680	12.982	1618.896	1230.712
79.695	12.996	1617.986	1230.019
80.709	13.081	1616.880	1229.698
81.724	13.063	1615.891	1228.705
82.739	13.226	1614.667	1228.878
83.753	13.170	1614.051	1227.884
84.768	13.105	1613.449	1226.836
85.782	13.312	1612.265	1227.362
86.797	13.279	1611.772	1226.636
87.812	13.327	1610.358	1225.806
88.826	13.218	1608.961	1223.825
89.841	13.205	1607.970	1222.864
90.855	13.297	1607.042	1222.735
91.870	13.267	1605.463	1221.205
92.884	13.366	1604.741	1221.272
93.899	13.372	1603.810	1220.500
94.914	13.318	1603.071	1219.438
95.928	13.388	1601.319	1218.512
96.943	13.493	1599.731	1217.969
97.957	13.338	1598.804	1216.012
98.972	13.327	1597.161	1214.574
99.987	13.332	1595.724	1213.414
101.001	13.296	1594.036	1211.755
102.016	13.252	1592.995	1210.533
103.030	13.278	1591.658	1209.602
104.045	13.282	1590.583	1208.710
105.060	13.335	1588.600	1207.480
106.074	13.315	1587.443	1206.349
107.089	13.208	1586.016	1204.380
108.103	13.139	1584.620	1202.706
109.118	13.084	1583.479	1201.340
110.133	13.048	1582.404	1200.156
111.147	13.117	1580.410	1199.036
112.162	13.157	1579.413	1198.461
113.176	13.189	1577.592	1197.204
114.191	13.173	1576.492	1196.148
115.206	13.174	1575.584	1195.364
116.220	13.250	1574.005	1194.612
117.235	13.224	1572.481	1193.156
118.249	13.219	1571.248	1192.084
119.264	13.176	1570.360	1190.992
120.279	13.181	1568.610	1189.599
121.293	13.172	1567.207	1188.363
122.308	13.194	1565.647	1187.232
123.322	13.108	1564.759	1185.839
124.337	13.095	1563.124	1184.397
125.352	13.097	1562.027	1183.478
126.366	13.158	1560.940	1182.985
127.381	13.170	1559.653	1181.992
128.395	13.203	1558.379	1181.159
129.410	13.084	1557.264	1179.360
130.424	13.114	1556.114	1178.594
131.439	13.212	1554.739	1178.149
132.454	13.230	1553.368	1177.138
133.468	13.312	1551.655	1176.318
134.483	13.260	1550.137	1174.689
135.497	13.313	1548.734	1173.897
136.512	13.363	1547.303	1173.065
137.527	13.318	1546.535	1172.059
138.541	13.247	1545.266	1170.494
139.556	13.251	1543.682	1169.217
140.570	13.330	1541.889	1168.315
141.585	13.372	1540.755	1167.646
142.600	13.356	1539.975	1166.843
143.614	13.358	1538.800	1165.863
144.629	13.411	1537.079	1164.827
145.643	13.446	1535.910	1164.087
146.658	13.503	1534.774	1163.519
147.673	13.480	1533.016	1161.921
148.687	13.434	1531.604	1160.428
149.702	13.481	1529.572	1159.117
150.716	13.402	1528.269	1157.472
151.731	13.350	1527.202	1156.200
152.746	13.371	1525.751	1155.143
153.760	13.438	1524.460	1154.533
154.775	13.372	1523.302	1153.095
155.789	13.475	1521.755	1152.537
156.804	13.460	1520.587	1151.446
157.819	13.523	1519.189	1150.727
158.833	13.566	1518.054	1150.059
159.848	13.574	1516.836	1149.095
160.862	13.697	1515.366	1148.731
161.877	13.651	1514.575	1147.710
162.892	13.614	1513.520	1146.551
163.906	13.554	1511.880	1144.793
164.921	13.541	1510.878	1143.847
165.935	13.428	1510.027	1142.317
166.950	13.480	1509.357	1142.070
167.964	13.524	1507.601	1140.946
168.979	13.544	1506.957	1140.495
169.994	13.569	1505.915	1139.779
171.008	13.577	1504.539	1138.684
172.023	13.549	1503.567	1137.656
173.037	13.593	1502.125	1136.769
174.052	13.714	1501.312	1136.884
175.067	13.700	1500.219	1135.857
176.081	13.615	1498.724	1134.045
177.096	13.623	1497.760	1133.274
178.110	13.605	1495.971	1131.693
179.125	13.608	1495.168	1131.006
180.140	13.515	1494.519	1129.781
181.154	13.670	1493.067	1129.638
182.169	13.672	1491.911	1128.677
183.183	13.701	1490.748	1127.895
184.198	13.672	1489.897	1126.957
185.213	13.786	1488.573	1126.631
186.227	13.840	1487.078	1125.762
187.242	13.821	1486.287	1124.936
188.256	13.898	1485.081	1124.447
189.271	13.948	1484.071	1123.920
190.286	13.842	1483.619	1122.761
191.300	13.796	1482.617	1121.593
192.315	13.760	1480.390	1119.563
193.329	13.548	1480.269	1117.943
194.344	13.583	1478.802	1116.973
195.359	13.646	1477.447	1116.278
196.373	13.656	1477.010	1115.914
197.388	13.834	1475.364	1115.766
198.402	13.807	1474.581	1114.896
199.417	13.923	1473.500	1114.757
200.432	14.011	1472.195	1114.265
201.446	14.123	1471.293	1114.232
202.461	14.009	1470.131	1112.488
203.475	14.023	1469.622	1112.100
204.490	14.083	1467.752	1110.985
205.504	14.002	1467.301	1110.006
206.519	14.060	1465.557	1108.977
207.534	14.064	1464.603	1108.180
208.548	14.021	1463.408	1106.892
209.563	13.999	1462.394	1105.883
210.577	14.056	1461.205	1105.268
211.592	14.021	1460.868	1104.679
212.607	14.117	1459.751	1104.376
213.621	14.180	1459.392	1104.427
214.636	14.183	1458.573	1103.723
215.650	14.123	1457.274	1102.251
216.665	14.235	1456.274	1102.134
217.680	14.264	1455.566	1101.697
218.694	14.251	1454.575	1100.757
219.709	14.247	1453.874	1100.109
220.723	14.302	1452.457	1099.301
221.738	14.280	1452.151	1098.826
222.753	14.269	1450.979	1097.770
223.767	14.273	1450.311	1097.192
224.782	14.303	1448.954	1096.268
225.796	14.380	1448.190	1096.096
226.811	14.478	1447.187	1095.885
227.826	14.408	1446.824	1095.054
228.840	14.404	1445.989	1094.301
229.855	14.307	1445.037	1092.848
230.869	14.349	1444.087	1092.303
231.884	14.238	1443.535	1091.066
232.899	14.342	1441.872	1090.391
233.913	14.358	1440.460	1089.333
234.928	14.314	1439.364	1088.118
235.942	14.344	1438.258	1087.381
236.957	14.313	1436.953	1086.095
237.972	14.373	1435.666	1085.420
238.986	14.312	1434.774	1084.251
240.001	14.375	1434.416	1084.294
241.015	14.400	1432.791	1083.131
242.030	14.359	1431.807	1082.024
243.045	14.457	1430.662	1081.703
244.059	14.486	1429.843	1081.175
245.074	14.464	1429.197	1080.449
246.088	14.547	1428.313	1080.221
247.103	14.461	1427.728	1079.125
248.117	14.604	1426.693	1079.173
249.132	14.594	1425.919	1078.430
250.147	14.596	1425.518	1078.043
251.161	14.722	1424.695	1078.137
252.176	14.800	1424.278	1078.230
253.190	14.798	1423.599	1077.611
254.205	14.781	1422.288	1076.411
255.220	14.921	1421.286	1076.457
256.234	14.884	1421.075	1075.967
257.249	14.987	1419.681	1075.477
258.263	14.937	1418.990	1074.539
259.278	14.955	1418.096	1073.883
260.293	14.972	1417.091	1073.137
261.307	14.969	1416.214	1072.354
262.322	14.993	1415.672	1072.002
263.336	15.010	1414.730	1071.302
264.351	14.985	1413.890	1070.414
265.366	15.024	1413.166	1070.022
266.380	15.094	1412.180	1069.625
267.395	15.156	1410.795	1068.879
268.409	15.097	1410.275	1068.016
269.424	14.972	1409.093	1066.230
270.439	14.934	1408.330	1065.312
271.453	15.075	1407.333	1065.362
272.468	15.048	1406.244	1064.275
273.482	15.042	1405.488	1063.567
274.497	15.060	1404.849	1063.103
275.512	15.022	1403.749	1061.935
276.526	15.021	1403.033	1061.298
277.541	15.172	1401.354	1060.886
278.555	15.165	1401.153	1060.595
279.570	15.108	1400.654	1059.767
280.585	15.137	1399.240	1058.787
281.599	15.154	1398.386	1058.154
282.614	15.218	1397.429	1057.739
283.628	15.250	1396.481	1057.132
284.643	15.192	1395.193	1055.693
285.657	15.168	1394.002	1054.548
286.672	15.204	1393.222	1054.093
287.687	15.300	1392.203	1053.835
288.701	15.309	1391.605	1053.344
289.716	15.247	1390.874	1052.305
290.730	15.255	1390.097	1051.674
291.745	15.298	1388.709	1050.803
292.760	15.230	1388.193	1049.895
293.774	15.374	1386.609	1049.503
294.789	15.337	1385.944	1048.677
295.803	15.422	1385.118	1048.490
296.818	15.414	1384.361	1047.771
297.833	15.414	1383.266	1046.851
298.847	15.357	1382.472	1045.804
299.862	15.399	1380.982	1044.847
300.876	15.447	1380.442	1044.644
301.891	15.409	1379.334	1043.473
302.906	15.462	1379.059	1043.501
303.920	15.388	1378.376	1042.438
304.935	15.515	1377.509	1042.477
305.949	15.519	1376.769	1041.848
306.964	15.588	1375.630	1041.322
307.979	15.693	1374.615	1041.109
308.993	15.645	1374.015	1040.269
310.008	15.698	1372.602	1039.436
311.022	15.656	1371.799	1038.471
312.037	15.686	1370.647	1037.698
313.052	15.703	1370.301	1037.446
314.066	15.653	1368.926	1036.004
315.081	15.641	1368.047	1035.175
316.095	15.615	1366.744	1033.935
317.110	15.676	1365.803	1033.508
318.125	15.651	1364.750	1032.468
319.139	15.801	1363.359	1032.243
320.154	15.672	1363.116	1031.179
321.168	15.626	1361.862	1029.857
322.183	15.728	1360.619	1029.447
323.197	15.694	1360.230	1028.858
324.212	15.758	1359.016	1028.236
325.227	15.731	1358.389	1027.504
326.241	15.747	1357.391	1026.760
327.256	15.739	1357.267	1026.523
328.270	15.691	1356.184	1025.322
329.285	15.827	1354.687	1024.932
330.300	15.866	1353.938	1024.505
331.314	15.841	1353.042	1023.588
332.329	15.813	1352.303	1022.768
333.343	15.870	1351.226	1022.210
334.358	15.828	1350.727	1021.484
335.373	15.889	1349.723	1021.008
336.387	15.900	1349.201	1020.587
337.402	15.854	1348.317	1019.550
338.416	15.937	1347.685	1019.483
339.431	15.913	1346.887	1018.644
340.446	15.995	1346.213	1018.542
341.460	16.000	1345.151	1017.680
342.475	16.038	1344.335	1017.203
343.489	16.069	1343.558	1016.711
344.504	16.205	1342.014	1016.268
345.519	16.081	1341.590	1015.111
346.533	16.195	1340.424	1014.824
347.548	16.234	1339.472	1014.251
348.562	16.216	1338.825	1013.559
349.577	16.313	1337.921	1013.369
350.592	16.343	1337.215	1012.924
351.606	16.198	1336.732	1011.604
352.621	16.187	1335.241	1010.316
353.635	16.238	1334.141	1009.701
354.650	16.162	1333.586	1008.738
355.665	16.259	1331.996	1008.024
356.679	16.285	1331.040	1007.369
357.694	16.186	1330.328	1006.148
358.708	16.250	1329.516	1005.828
359.723	16.304	1327.844	1004.793
360.738	16.314	1327.124	1004.221
361.752	16.259	1326.529	1003.353
362.767	16.381	1325.195	1002.978
363.781	16.428	1323.645	1001.997
364.796	16.347	1323.505	1001.320
365.810	16.348	1323.105	1000.940
366.825	16.477	1321.906	1000.704
367.840	16.453	1321.234	999.967
368.854	16.562	1320.204	999.741
369.869	16.528	1320.098	999.371
370.883	16.475	1319.818	998.761
371.898	16.579	1318.695	998.433
372.913	16.538	1317.822	997.444
373.927	16.554	1316.256	996.265
374.942	16.555	1315.880	995.900
375.956	16.638	1315.528	996.034
376.971	16.569	1314.492	994.754
377.986	16.575	1313.500	993.949
379.000	16.638	1312.825	993.718
380.015	16.697	1311.820	993.220
381.029	16.733	1311.112	992.806
382.044	16.734	1310.977	992.623
383.059	16.792	1310.005	992.138
384.073	16.793	1309.314	991.529
385.088	16.800	1308.525	990.889
386.102	16.723	1307.951	989.914
387.117	16.831	1307.055	989.779
388.132	16.876	1306.056	989.198
389.146	16.841	1305.201	988.261
390.161	16.781	1304.288	987.128
391.175	16.804	1303.488	986.571
392.190	16.827	1302.844	986.129
393.205	16.824	1302.146	985.500
394.219	16.773	1301.348	984.508
395.234	16.847	1300.060	983.879
396.248	16.905	1298.459	982.917
397.263	16.883	1297.017	981.611
398.278	16.850	1295.953	980.529
399.292	16.838	1295.157	979.771
400.307	16.751	1294.161	978.429
401.321	16.798	1293.160	977.855
402.336	16.885	1291.746	977.202
403.350	16.877	1290.618	976.217
404.365	16.918	1290.008	975.904
405.380	16.815	1289.666	974.966
406.394	16.909	1288.502	974.537
407.409	16.982	1287.661	974.238
408.423	17.018	1287.064	973.902
409.438	17.042	1286.329	973.401
410.453	17.157	1285.614	973.433
411.467	17.112	1285.001	972.622
412.482	17.079	1284.789	972.191
413.496	17.223	1283.554	971.994
414.511	17.255	1282.806	971.519
415.526	17.238	1282.237	970.909
416.540	17.285	1281.471	970.512
417.555	17.301	1281.202	970.309
418.569	17.302	1280.703	969.852
419.584	17.368	1279.733	969.409
420.599	17.249	1279.460	968.439
421.613	95.002	1353.701	1469.806
422.628	92.894	1364.481	1469.925
