DTS Sentinel unit serial number:	SN413079Multiplexer serial number:	ORYXHardware model number:	OX4-SRSoftware version number:	ORYX F/W v4.00 Oryx Data Collector v3.7.2.0data status	okinstallation	princeton_trtdifferential loss correction	single-endedforward channel	channel 4reverse channel	N/Adate	2019/09/15time	14:09:35forward acquisition time	60.00reverse acquisition time	0.00gamma	496.2192k internal	0.2288k external	0.2288temperature offset calibration	0.9993default loss term (dB/km)	0.3790temperature slope calibration	1.0000multiplexer offset coefficient	1.0000multiplexer slope coefficient	1.0000fibre end	0.00T internal ref (°C)	38.72T ext. ref 1 (°C)	4.95T ext. ref 2 (°C)	36.01length (m)	temperature (°C)	Stokes	anti-Stokes-747.200	-200.000	0.006	-0.235
-746.185	24.553	0.210	0.178
-745.171	-130.892	0.239	-0.033
-744.156	-62.675	0.035	-0.015
-743.142	-118.910	0.066	0.012
-742.127	554.302	-0.150	0.370
-741.112	-200.000	-0.040	0.281
-740.098	195.242	0.090	0.140
-739.083	-75.804	-0.289	-0.105
-738.069	-200.000	0.023	0.289
-737.054	151.353	0.057	0.079
-736.039	78.761	-0.186	-0.204
-735.025	-200.000	0.063	0.336
-734.010	74.278	0.029	-0.032
-732.996	477.295	0.112	-0.260
-731.981	-35.113	0.057	-0.032
-730.966	-99.314	-0.115	-0.030
-729.952	13.005	-0.297	-0.236
-728.937	-136.652	-0.305	0.036
-727.923	377.337	-0.052	-0.110
-726.908	-76.579	0.196	0.071
-725.894	-99.366	-0.256	-0.066
-724.879	800.000	-0.063	-0.278
-723.864	101.819	0.056	0.067
-722.850	-64.048	-0.351	-0.147
-721.835	-200.000	0.005	0.265
-720.821	253.717	0.056	0.099
-719.806	-103.582	-0.062	-0.015
-718.791	800.000	0.009	0.027
-717.777	56.563	-0.090	0.089
-716.762	263.656	-0.143	0.254
-715.748	-165.841	0.416	-0.018
-714.733	51.844	0.095	-0.092
-713.718	-80.434	-0.309	-0.106
-712.704	132.847	-0.116	-0.154
-711.689	150.037	0.180	-0.250
-710.675	35.728	0.125	-0.112
-709.660	-98.897	0.446	-0.116
-708.645	12.708	-0.237	0.187
-707.631	800.000	0.058	0.231
-706.616	-38.412	0.176	-0.095
-705.602	800.000	-0.107	-0.316
-704.587	-200.000	-0.030	0.243
-703.572	-116.164	-0.196	0.037
-702.558	322.854	-0.042	-0.083
-701.543	589.191	-0.054	-0.135
-700.529	18.274	-0.384	0.313
-699.514	-200.000	-0.059	-0.317
-698.499	-200.000	-0.042	-0.310
-697.485	-105.000	0.254	-0.060
-696.470	196.822	-0.142	-0.222
-695.456	455.950	-0.219	0.496
-694.441	179.370	0.188	0.281
-693.426	-200.000	-0.031	-0.190
-692.412	199.761	-0.113	-0.178
-691.397	-57.514	0.207	0.093
-690.383	-128.864	0.046	-0.007
-689.368	-63.254	-0.182	0.077
-688.354	342.990	0.035	-0.071
-687.339	99.951	-0.209	-0.248
-686.324	78.466	-0.139	-0.152
-685.310	-1.710	0.086	-0.062
-684.295	483.835	0.217	0.504
-683.281	-67.115	-0.189	0.076
-682.266	163.348	-0.059	0.085
-681.251	20.467	-0.171	0.141
-680.237	474.906	-0.053	0.121
-679.222	305.009	0.121	-0.230
-678.208	213.312	0.155	0.251
-677.193	-200.000	-0.033	0.659
-676.178	-200.000	0.024	0.127
-675.164	-32.469	-0.287	-0.164
-674.149	34.075	-0.204	-0.182
-673.135	45.396	-0.439	0.415
-672.120	351.333	-0.213	0.431
-671.105	414.763	0.017	0.036
-670.091	230.877	0.050	0.084
-669.076	-74.433	0.118	0.043
-668.062	-200.000	-0.006	-0.044
-667.047	219.146	0.040	-0.066
-666.032	36.422	-0.294	-0.265
-665.018	-133.616	-0.147	0.019
-664.003	-200.000	0.002	-0.134
-662.989	-200.000	0.042	0.238
-661.974	800.000	-0.081	-0.270
-660.959	-62.459	-0.124	-0.053
-659.945	360.278	0.130	0.266
-658.930	-100.631	-0.084	-0.021
-657.916	-36.347	0.131	-0.072
-656.901	648.138	0.035	0.090
-655.886	-85.220	-0.185	-0.059
-654.872	309.033	-0.111	-0.212
-653.857	-95.319	0.210	0.058
-652.843	-200.000	-0.291	0.000
-651.828	-148.707	0.168	-0.014
-650.814	-200.000	0.048	-0.221
-649.799	25.592	-0.181	-0.154
-648.784	-120.125	0.057	0.010
-647.770	104.504	0.138	0.166
-646.755	-74.720	0.125	-0.046
-645.741	62.050	-0.171	0.174
-644.726	800.000	0.041	0.137
-643.711	800.000	0.047	0.197
-642.697	278.747	-0.050	-0.090
-641.682	156.696	-0.213	-0.300
-640.668	-70.920	0.083	0.032
-639.653	-200.000	-0.010	0.141
-638.638	-38.430	-0.215	0.116
-637.624	125.670	0.027	0.034
-636.609	654.410	-0.050	-0.132
-635.595	-90.224	-0.188	0.056
-634.580	161.387	-0.102	0.146
-633.565	33.976	0.171	-0.152
-632.551	-51.388	-0.281	-0.134
-631.536	-200.000	-0.010	-0.421
-630.522	120.469	-0.132	-0.167
-629.507	27.735	0.321	0.276
-628.492	3.415	0.073	0.055
-627.478	92.564	-0.265	0.305
-626.463	-3.463	0.288	-0.205
-625.449	-91.119	-0.177	-0.052
-624.434	-200.000	0.002	-0.009
-623.419	418.741	-0.126	0.275
-622.405	155.177	-0.035	-0.049
-621.390	308.430	0.084	0.160
-620.376	800.000	0.102	0.354
-619.361	-152.433	0.093	-0.007
-618.346	71.408	0.219	0.232
-617.332	800.000	0.048	-0.164
-616.317	800.000	-0.081	0.317
-615.303	-46.964	0.190	-0.095
-614.288	800.000	0.025	-0.104
-613.273	2.529	-0.234	0.173
-612.259	800.000	0.040	-0.169
-611.244	-28.799	0.118	-0.069
-610.230	-55.710	-0.081	-0.037
-609.215	47.157	0.120	-0.114
-608.201	405.935	0.067	-0.145
-607.186	613.239	0.100	0.254
-606.171	800.000	0.074	-0.261
-605.157	-200.000	0.071	0.374
-604.142	-200.000	-0.036	0.178
-603.128	701.457	-0.149	-0.401
-602.113	800.000	-0.077	-0.317
-601.098	-77.036	-0.314	0.112
-600.084	160.845	-0.052	0.074
-599.069	236.036	0.019	-0.033
-598.055	-200.000	0.017	0.187
-597.040	-53.703	-0.404	0.188
-596.025	-125.411	-0.135	-0.021
-595.011	800.000	0.052	0.148
-593.996	800.000	0.081	0.292
-592.982	32.847	-0.169	0.149
-591.967	83.855	-0.278	0.310
-590.952	800.000	0.012	-0.047
-589.938	135.428	0.164	0.218
-588.923	-200.000	0.013	-0.123
-587.909	800.000	0.082	-0.235
-586.894	-200.000	0.029	-0.341
-585.879	800.000	0.026	-0.074
-584.865	51.452	-0.033	-0.032
-583.850	256.289	0.057	0.099
-582.836	-8.046	0.256	0.176
-581.821	21.074	0.114	0.095
-580.806	213.463	0.218	0.352
-579.792	442.420	0.074	-0.166
-578.777	-59.861	-0.175	0.076
-577.763	-33.376	0.160	-0.090
-576.748	-32.673	-0.198	-0.112
-575.733	133.263	-0.047	0.062
-574.719	800.000	-0.029	0.088
-573.704	122.144	-0.098	-0.124
-572.690	584.262	0.176	0.440
-571.675	-200.000	-0.022	-0.316
-570.661	-87.022	-0.190	0.059
-569.646	261.689	-0.059	-0.104
-568.631	34.126	0.193	-0.171
-567.617	-102.454	-0.534	0.130
-566.602	-65.010	0.247	-0.101
-565.588	-200.000	-0.019	0.258
-564.573	800.000	-0.106	-0.307
-563.558	28.553	-0.093	-0.080
-562.544	-68.844	0.159	-0.063
-561.529	-127.468	-0.150	0.022
-560.515	-200.000	0.023	0.234
-559.500	328.206	-0.159	-0.311
-558.485	-158.137	0.298	-0.018
-557.471	-50.699	-0.535	0.256
-556.456	84.622	-0.310	0.345
-555.442	188.768	0.183	0.279
-554.427	0.899	-0.088	-0.064
-553.412	-200.000	-0.031	-0.216
-552.398	-200.000	0.049	-0.229
-551.383	-26.111	0.192	-0.115
-550.369	800.000	0.050	0.175
-549.354	800.000	0.045	-0.194
-548.339	-160.625	0.498	-0.027
-547.325	292.146	0.078	-0.144
-546.310	268.092	-0.251	-0.447
-545.296	-200.000	-0.004	-0.108
-544.281	190.060	-0.278	0.424
-543.266	-99.137	0.434	0.112
-542.252	-6.110	-0.221	-0.153
-541.237	-113.393	0.318	0.063
-540.223	-200.000	-0.036	0.258
-539.208	61.609	0.246	-0.249
-538.193	-200.000	0.074	-0.364
-537.179	123.325	-0.189	-0.242
-536.164	-200.000	-0.052	-0.507
-535.150	-173.684	0.242	0.007
-534.135	800.000	0.033	0.105
-533.121	-200.000	-0.023	0.249
-532.106	83.021	-0.049	-0.054
-531.091	774.999	-0.068	-0.190
-530.077	-115.504	0.304	-0.058
-529.062	91.281	-0.240	0.274
-528.048	438.430	-0.056	-0.124
-527.033	54.285	-0.329	-0.322
-526.018	-11.946	-0.237	-0.158
-525.004	-112.208	-0.124	0.025
-523.989	-118.546	-0.243	-0.044
-522.975	-71.497	0.120	-0.046
-521.960	-200.000	0.019	-0.303
-520.945	-59.404	-0.116	-0.051
-519.931	13.842	0.203	0.160
-518.916	-74.662	-0.152	-0.055
-517.902	800.000	0.049	-0.143
-516.887	-15.417	-0.211	-0.137
-515.872	-20.920	0.196	0.122
-514.858	-200.000	-0.004	-0.400
-513.843	-170.097	-0.242	-0.009
-512.829	726.934	-0.094	-0.255
-511.814	-170.097	0.284	0.010
-510.799	673.516	0.076	-0.201
-509.785	125.580	-0.051	0.065
-508.770	18.688	-0.116	-0.094
-507.756	17.417	0.191	-0.154
-506.741	-6.816	-0.189	-0.131
-505.726	-103.427	0.245	0.059
-504.712	-32.365	-0.321	-0.182
-503.697	356.803	0.090	-0.182
-502.683	-158.570	-0.217	-0.013
-501.668	-123.014	0.289	0.047
-500.653	800.000	0.051	0.214
-499.639	375.111	-0.147	0.305
-498.624	800.000	-0.067	0.239
-497.610	69.586	-0.135	-0.142
-496.595	-200.000	-0.058	0.416
-495.581	-200.000	-0.027	0.238
-494.566	-93.204	0.155	-0.044
-493.551	-59.397	-0.167	0.073
-492.537	800.000	-0.031	-0.093
-491.522	-200.000	0.001	-0.174
-490.508	88.661	0.213	0.240
-489.493	-100.810	-0.143	0.036
-488.478	-80.700	-0.114	-0.038
-487.464	-17.995	0.226	-0.143
-486.449	-177.935	-0.211	0.005
-485.435	357.493	0.185	-0.374
-484.420	188.730	-0.047	0.072
-483.405	-108.686	-0.269	-0.058
-482.391	-86.983	-0.248	0.077
-481.376	-200.000	0.016	0.180
-480.362	-89.353	-0.177	-0.053
-479.347	212.840	0.152	0.243
-478.332	800.000	-0.085	-0.310
-477.318	111.887	-0.055	0.067
-476.303	-38.527	-0.154	-0.082
-475.289	-88.958	-0.405	-0.122
-474.274	-73.896	0.287	0.106
-473.259	-151.851	0.245	-0.018
-472.245	-37.550	-0.051	-0.028
-471.230	800.000	0.057	-0.190
-470.216	800.000	-0.095	-0.385
-469.201	-200.000	0.018	-0.093
-468.186	-200.000	0.051	-0.283
-467.172	-200.000	-0.013	-0.184
-466.157	800.000	-0.109	-0.355
-465.143	193.155	0.155	0.237
-464.128	120.166	0.241	-0.303
-463.113	266.752	0.075	-0.133
-462.099	-200.000	-0.049	0.280
-461.084	800.000	-0.074	-0.248
-460.070	800.000	-0.017	0.070
-459.055	-200.000	0.017	-0.185
-458.040	-60.088	0.343	-0.148
-457.026	-200.000	-0.025	0.359
-456.011	-95.527	0.170	0.046
-454.997	-178.734	0.289	0.007
-453.982	-151.340	-0.252	0.019
-452.968	-47.787	0.193	0.095
-451.953	-200.000	0.010	-0.272
-450.938	381.372	-0.030	0.062
-449.924	17.400	0.290	0.233
-448.909	330.174	0.064	-0.125
-447.895	38.969	0.165	0.149
-446.880	-76.300	0.283	0.101
-445.865	-143.102	-0.336	-0.033
-444.851	-27.576	0.140	0.082
-443.836	540.329	-0.093	0.224
-442.822	62.170	-0.070	0.071
-441.807	800.000	-0.110	-0.442
-440.792	-94.523	0.285	-0.079
-439.778	-31.372	0.156	0.089
-438.763	-200.000	0.027	0.286
-437.749	17.209	-0.095	0.077
-436.734	-84.217	0.193	0.062
-435.719	418.741	-0.123	-0.266
-434.705	124.705	-0.187	0.238
-433.690	-38.071	0.327	-0.176
-432.676	-129.850	-0.224	-0.031
-431.661	376.686	0.111	-0.230
-430.646	-200.000	-0.029	-0.233
-429.632	587.338	0.088	0.218
-428.617	-70.621	0.143	0.055
-427.603	800.000	-0.104	-0.331
-426.588	-16.625	-0.188	0.120
-425.573	-156.124	0.159	0.010
-424.559	-135.750	-0.283	-0.034
-423.544	-78.091	-0.267	0.093
-422.530	-200.000	0.051	-0.394
-421.515	-200.000	0.051	-0.274
-420.500	97.113	0.245	-0.285
-419.486	-200.000	0.023	0.107
-418.471	-69.483	0.113	-0.044
-417.457	-51.358	0.163	-0.077
-416.442	-34.993	-0.200	-0.111
-415.428	1.872	-0.212	-0.155
-414.413	-200.000	-0.015	-0.174
-413.398	800.000	0.035	0.101
-412.384	263.832	0.079	-0.138
-411.369	800.000	0.033	0.117
-410.355	-119.902	-0.119	-0.021
-409.340	-200.000	-0.016	0.459
-408.325	74.841	-0.168	-0.179
-407.311	58.863	-0.062	-0.062
-406.296	92.478	0.124	-0.141
-405.282	6.515	-0.296	0.222
-404.267	-21.954	0.178	-0.110
-403.252	-99.818	0.171	-0.043
-402.238	-1.377	0.079	-0.056
-401.223	-81.580	0.207	0.069
-400.209	-89.920	0.121	0.036
-399.194	10.780	-0.201	0.155
-398.179	800.000	-0.027	0.107
-397.165	-29.480	0.220	0.127
-396.150	-127.832	-0.061	-0.009
-395.136	-200.000	-0.004	-0.066
-394.121	367.109	0.135	-0.276
-393.106	-84.253	0.232	0.074
-392.092	-149.835	-0.274	0.022
-391.077	-200.000	-0.044	-0.287
-390.063	-131.543	-0.151	-0.020
-389.048	309.047	0.032	0.061
-388.033	15.496	-0.200	0.159
-387.019	-175.639	0.242	0.007
-386.004	-200.000	-0.030	-0.271
-384.990	-57.027	0.327	-0.146
-383.975	291.251	-0.076	-0.139
-382.960	216.162	-0.154	-0.248
-381.946	-200.000	0.035	-0.235
-380.931	-200.000	-0.010	0.123
-379.917	74.074	-0.190	-0.202
-378.902	800.000	-0.042	-0.164
-377.888	-194.054	-0.055	0.000
-376.873	800.000	-0.096	0.282
-375.858	161.662	0.068	-0.096
-374.844	-100.270	-0.315	0.079
-373.829	-84.850	0.064	-0.020
-372.815	144.650	0.042	0.057
-371.800	135.833	0.221	0.291
-370.785	39.184	0.015	-0.014
-369.771	800.000	0.041	0.134
-368.756	155.546	0.046	0.063
-367.742	-26.219	-0.453	-0.269
-366.727	420.602	-0.203	-0.438
-365.712	-106.392	0.073	0.016
-364.698	378.796	-0.059	-0.123
-363.683	-27.744	-0.233	0.137
-362.669	-93.234	-0.131	-0.037
-361.654	-200.000	-0.003	0.106
-360.639	800.000	0.048	0.194
-359.625	-20.498	0.144	0.090
-358.610	-39.083	-0.201	0.107
-357.596	-42.378	0.212	-0.109
-356.581	-139.557	0.202	-0.022
-355.566	43.854	0.014	-0.013
-354.552	-30.513	-0.284	0.163
-353.537	-160.011	0.318	-0.017
-352.523	-123.373	0.187	-0.030
-351.508	-116.354	-0.235	-0.044
-350.493	147.610	0.089	-0.121
-349.479	-200.000	0.006	-0.272
-348.464	-37.867	0.076	-0.041
-347.450	62.560	-0.238	0.240
-346.435	68.263	0.036	0.037
-345.420	800.000	-0.006	0.021
-344.406	-200.000	-0.029	-0.160
-343.391	215.369	-0.110	-0.177
-342.377	-200.000	0.005	0.253
-341.362	-105.402	-0.157	-0.036
-340.348	224.817	0.099	-0.161
-339.333	-70.464	0.393	0.150
-338.318	26.511	-0.097	0.082
-337.304	-150.237	0.282	0.022
-336.289	800.000	-0.058	0.182
-335.275	800.000	0.127	-0.379
-334.260	800.000	0.055	-0.189
-333.245	456.920	0.100	0.224
-332.231	800.000	0.045	-0.154
-331.216	259.679	0.204	-0.356
-330.202	-200.000	-0.019	-0.166
-329.187	-72.760	-0.043	0.016
-328.172	73.010	-0.208	0.219
-327.158	-200.000	0.018	0.114
-326.143	281.288	-0.117	0.211
-325.129	800.000	0.113	0.367
-324.114	-63.641	0.185	-0.077
-323.099	-50.681	0.384	0.183
-322.085	-87.994	0.358	-0.109
-321.070	800.000	0.028	0.095
-320.056	-91.438	0.277	0.080
-319.041	47.640	-0.165	-0.156
-318.026	349.502	0.069	0.138
-317.012	151.724	0.171	0.236
-315.997	159.707	-0.058	0.081
-314.983	-120.127	-0.255	-0.044
-313.968	-44.978	-0.158	-0.079
-312.953	-73.465	-0.107	0.039
-311.939	-65.297	0.040	-0.016
-310.924	-200.000	0.020	-0.278
-309.910	335.233	-0.122	-0.238
-308.895	-200.000	0.052	-0.307
-307.880	353.694	-0.135	-0.269
-306.866	-2.952	0.172	-0.121
-305.851	148.779	-0.015	-0.020
-304.837	800.000	0.031	0.119
-303.822	-200.000	-0.024	0.113
-302.807	242.001	-0.125	-0.211
-301.793	-200.000	0.008	-0.339
-300.778	-101.833	-0.236	-0.057
-299.764	120.385	-0.111	0.139
-298.749	311.104	-0.093	0.175
-297.735	0.385	0.108	-0.078
-296.720	-200.000	0.033	0.169
-295.705	-41.663	0.118	0.061
-294.691	-72.051	-0.265	0.099
-293.676	-19.986	-0.058	0.036
-292.662	-200.000	0.041	0.584
-291.647	5.558	0.111	-0.083
-290.632	-130.211	-0.164	0.022
-289.618	-44.995	0.092	0.046
-288.603	-65.119	0.168	0.068
-287.589	310.002	-0.073	-0.138
-286.574	800.000	-0.004	0.015
-285.559	445.616	0.073	0.161
-284.545	111.226	0.089	-0.108
-283.530	665.346	0.068	0.176
-282.516	45.438	-0.063	0.058
-281.501	325.681	-0.077	-0.147
-280.486	-101.049	0.171	0.042
-279.472	242.724	-0.136	-0.229
-278.457	-200.000	-0.008	0.095
-277.443	-200.000	-0.002	0.218
-276.428	227.808	-0.094	-0.154
-275.413	94.547	0.135	0.155
-274.399	-200.000	-0.014	0.177
-273.384	239.472	0.114	-0.192
-272.370	-129.252	-0.305	-0.043
-271.355	800.000	0.119	-0.361
-270.340	206.523	-0.212	0.332
-269.326	-143.314	0.339	-0.033
-268.311	7.935	-0.045	0.034
-267.297	-200.000	-0.046	0.312
-266.282	-9.482	-0.131	-0.088
-265.267	145.824	-0.066	0.089
-264.253	-51.592	0.091	-0.043
-263.238	800.000	-0.006	-0.028
-262.224	621.828	0.081	0.204
-261.209	131.580	0.064	0.083
-260.195	632.691	0.119	-0.304
-259.180	-46.308	0.046	-0.023
-258.165	110.488	0.179	-0.216
-257.151	-76.687	0.226	-0.080
-256.136	261.164	-0.081	-0.142
-255.122	-141.643	0.040	-0.004
-254.107	800.000	0.026	0.110
-253.092	800.000	0.065	0.231
-252.078	-87.127	-0.225	0.069
-251.063	800.000	0.049	0.195
-250.049	11.172	-0.172	-0.132
-249.034	19.127	-0.105	0.084
-248.019	112.116	-0.083	0.101
-247.005	50.985	-0.096	0.091
-245.990	-57.108	-0.219	-0.097
-244.976	171.285	0.236	0.340
-243.961	-15.721	0.157	0.101
-242.946	487.429	0.068	0.155
-241.932	-2.154	-0.178	-0.125
-240.917	309.401	-0.242	0.455
-239.903	1.747	-0.199	0.144
-238.888	-104.426	0.206	-0.048
-237.873	48.748	0.023	0.022
-236.859	800.000	0.046	-0.140
-235.844	147.669	-0.173	0.234
-234.830	-124.235	-0.129	-0.020
-233.815	86.538	-0.218	-0.241
-232.800	-200.000	-0.019	-0.237
-231.786	267.775	-0.101	-0.178
-230.771	42.661	-0.067	0.061
-229.757	-18.085	0.202	0.127
-228.742	74.035	0.137	0.144
-227.727	-200.000	-0.442	-0.001
-226.713	-87.892	-0.314	-0.095
-225.698	-200.000	-0.002	-0.088
-224.684	800.000	-0.058	0.164
-223.669	13.393	0.179	0.140
-222.655	-114.621	0.128	0.025
-221.640	-102.478	-0.160	-0.038
-220.625	-46.153	-0.186	0.092
-219.611	-200.000	0.049	-0.290
-218.596	-125.511	0.075	-0.011
-217.582	-200.000	0.022	0.291
-216.567	-29.640	-0.159	-0.091
-215.552	-200.000	0.035	0.284
-214.538	18.037	0.219	-0.175
-213.523	16.527	-0.115	0.091
-212.509	-71.191	-0.097	-0.037
-211.494	747.524	-0.015	-0.041
-210.479	50.653	-0.356	0.338
-209.465	1.912	0.215	0.156
-208.450	-155.240	0.121	0.008
-207.436	-94.394	0.126	0.034
-206.421	160.207	-0.042	0.058
-205.406	91.737	0.040	-0.045
-204.392	19.154	0.245	-0.197
-203.377	-91.445	-0.103	-0.030
-202.363	457.849	0.044	0.097
-201.348	-73.512	-0.190	-0.070
-200.333	-95.747	0.403	0.108
-199.319	-30.887	0.197	-0.111
-198.304	800.000	0.052	-0.202
-197.290	-200.000	-0.000	0.256
-196.275	774.780	-0.080	0.220
-195.260	-200.000	-0.044	0.303
-194.246	109.921	-0.196	0.236
-193.231	14.761	-0.127	0.100
-192.217	-200.000	-0.018	0.143
-191.202	-200.000	0.081	0.516
-190.187	-134.984	0.186	-0.022
-189.173	-200.000	-0.027	0.275
-188.158	-27.568	0.449	0.262
-187.144	43.991	0.102	-0.093
-186.129	39.268	-0.095	-0.085
-185.114	-25.214	0.191	0.114
-184.100	485.857	-0.075	0.172
-183.085	-200.000	0.000	-0.325
-182.071	18.239	-0.048	0.039
-181.056	-0.641	0.233	-0.166
-180.042	800.000	0.073	0.320
-179.027	800.000	0.040	0.125
-178.012	-200.000	-0.006	0.106
-176.998	62.114	0.075	0.075
-175.983	56.984	-0.152	0.148
-174.969	-200.000	0.005	-0.189
-173.954	-200.000	-0.017	-0.177
-172.939	-34.450	0.305	0.167
-171.925	1.873	-0.317	0.229
-170.910	0.797	0.198	-0.142
-169.896	60.044	0.220	0.218
-168.881	-86.388	0.058	-0.018
-167.866	16.213	-0.224	0.177
-166.852	44.225	-0.246	0.226
-165.837	-55.995	0.382	-0.171
-164.823	-15.677	0.069	-0.044
-163.808	62.444	0.171	0.171
-162.793	-200.000	0.001	0.090
-161.779	-109.721	0.072	0.015
-160.764	524.260	0.051	0.120
-159.750	504.229	0.076	-0.176
-158.735	186.369	-0.048	0.072
-157.720	-200.000	-0.047	0.245
-156.706	-72.323	-0.084	0.031
-155.691	171.764	0.049	-0.070
-154.677	800.000	-0.047	-0.183
-153.662	-200.000	0.006	0.102
-152.647	800.000	-0.074	-0.293
-151.633	411.874	-0.039	-0.082
-150.618	-77.393	0.114	-0.040
-149.604	-103.237	0.425	0.101
-148.589	-147.224	-0.080	-0.007
-147.574	7.115	-0.121	-0.090
-146.560	-89.760	0.277	-0.081
-145.545	315.222	-0.158	-0.298
-144.531	99.631	0.089	0.104
-143.516	-18.429	0.136	0.085
-142.502	314.004	0.139	0.262
-141.487	25.127	-0.069	-0.057
-140.472	800.000	0.040	0.125
-139.458	622.457	-0.072	-0.181
-138.443	-200.000	-0.038	0.272
-137.429	-200.000	0.019	0.306
-136.414	-80.148	0.063	-0.021
-135.399	-200.000	-0.001	-0.254
-134.385	-102.248	-0.206	0.049
-133.370	-200.000	-0.024	0.207
-132.356	-79.269	0.352	0.119
-131.341	-44.566	0.152	0.076
-130.326	800.000	-0.083	0.265
-129.312	120.482	0.212	-0.264
-128.297	-9.457	-0.165	0.110
-127.283	800.000	0.053	0.183
-126.268	-200.000	-0.019	-0.114
-125.253	251.338	-0.117	-0.200
-124.239	800.000	0.073	-0.218
-123.224	800.000	-0.139	0.414
-122.210	16.772	0.233	0.184
-121.195	710.220	0.022	-0.059
-120.180	-50.178	0.145	0.069
-119.166	-197.329	-0.411	-0.003
-118.151	800.000	-0.083	-0.250
-117.137	-122.293	0.338	-0.055
-116.122	800.000	0.059	0.213
-115.107	-80.721	0.046	0.015
-114.093	-29.062	0.381	0.219
-113.078	763.956	0.066	0.180
-112.064	-69.642	0.288	0.110
-111.049	195.399	0.184	0.280
-110.034	693.654	0.143	0.375
-109.020	-172.756	-0.577	0.018
-108.005	-154.882	-0.463	-0.031
-106.991	124.238	-0.138	-0.174
-105.976	436.051	0.118	0.256
-104.962	188.926	-0.103	0.154
-103.947	-35.014	0.221	-0.120
-102.932	-7.094	-0.287	-0.195
-101.918	800.000	0.024	0.072
-100.903	230.545	-0.125	0.204
-99.889	-117.091	-0.357	-0.065
-98.874	-200.000	-0.041	-0.447
-97.859	800.000	0.044	0.153
-96.845	-15.241	0.166	0.106
-95.830	-114.725	0.321	-0.061
-94.816	76.032	-0.097	-0.103
-93.801	-76.569	0.255	-0.090
-92.786	800.000	0.064	0.222
-91.772	-200.000	0.002	-0.084
-90.757	9.489	-0.115	-0.087
-89.743	-13.567	-0.119	-0.077
-88.728	800.000	0.066	0.208
-87.713	-26.152	-0.206	0.121
-86.699	-141.855	-0.413	0.041
-85.684	60.943	0.120	0.119
-84.670	800.000	0.058	-0.203
-83.655	800.000	-0.076	0.242
-82.640	-6.039	0.266	0.182
-81.626	-127.373	-0.154	-0.022
-80.611	77.815	-0.186	-0.198
-79.597	106.668	-0.003	0.003
-78.582	130.793	0.073	0.093
-77.567	-66.773	0.396	-0.156
-76.553	647.658	0.026	-0.066
-75.538	800.000	-0.024	-0.084
-74.524	-122.097	-0.086	-0.014
-73.509	-11.065	0.155	-0.102
-72.494	-200.000	0.024	0.143
-71.480	-102.280	-0.376	0.090
-70.465	708.420	0.141	-0.372
-69.451	90.040	0.209	0.233
-68.436	-200.000	-0.023	0.175
-67.422	32.896	-0.354	0.306
-66.407	407.140	0.260	0.549
-65.392	-4.586	-0.327	-0.225
-64.378	487.896	0.132	0.300
-63.363	-10.106	-0.194	0.129
-62.349	129.386	0.436	0.556
-61.334	40.647	-0.686	-0.617
-60.319	-111.528	0.269	-0.055
-59.305	800.000	-0.200	-0.558
-58.290	481.553	0.422	0.957
-57.276	716.316	0.696	1.842
-56.261	-200.000	80.465	503.695
-55.246	539.548	1375.754	3267.009
-54.232	179.560	2609.696	3813.478
-53.217	111.822	2393.883	2884.404
-52.203	45.118	2129.596	1958.431
-51.188	40.388	2036.623	1829.319
-50.173	38.716	2016.837	1796.174
-49.159	51.079	2057.449	1946.870
-48.144	54.602	2078.117	1998.969
-47.130	41.293	2041.095	1841.416
-46.115	38.707	2029.966	1807.491
-45.100	38.676	2026.402	1803.962
-44.086	38.637	2024.604	1801.931
-43.071	38.680	2021.952	1799.900
-42.057	38.564	2020.096	1797.110
-41.042	38.653	2018.419	1796.361
-40.027	38.647	2016.043	1794.117
-39.013	38.704	2013.466	1792.281
-37.998	38.669	2011.969	1790.553
-36.984	38.719	2009.953	1789.144
-35.969	38.643	2008.230	1786.848
-34.954	38.660	2006.389	1785.290
-33.940	38.638	2005.354	1784.098
-32.925	38.747	2003.476	1783.352
-31.911	38.656	2001.925	1781.072
-30.896	38.699	1999.989	1779.670
-29.881	38.765	1997.969	1778.400
-28.867	38.683	1997.537	1777.203
-27.852	38.830	1994.639	1775.884
-26.838	38.793	1992.400	1773.482
-25.823	38.671	1991.365	1771.392
-24.809	38.758	1989.321	1770.283
-23.794	38.748	1987.090	1768.143
-22.779	38.681	1985.930	1766.432
-21.765	38.683	1983.987	1764.653
-20.750	38.716	1982.150	1763.248
-19.736	38.642	1981.283	1761.738
-18.721	38.706	1979.363	1760.544
-17.706	38.702	1977.772	1759.019
-16.692	38.719	1976.264	1757.756
-15.677	38.761	1974.699	1756.671
-14.663	38.750	1972.707	1754.731
-13.648	38.820	1971.548	1754.257
-12.633	38.761	1970.685	1752.893
-11.619	38.746	1969.223	1751.389
-10.604	38.792	1967.493	1750.193
-9.590	38.747	1965.879	1748.286
-8.575	38.686	1965.078	1746.961
-7.560	38.827	1962.570	1745.915
-6.546	38.809	1962.255	1745.409
-5.531	38.764	1960.981	1743.806
-4.517	38.784	1959.350	1742.460
-3.502	38.724	1958.549	1741.151
-2.487	38.732	1957.319	1740.057
-1.473	38.715	1956.229	1738.864
-0.458	38.901	1951.491	1736.237
0.556	37.646	1933.526	1713.019
1.571	33.962	1913.600	1663.062
2.586	29.558	1935.503	1642.867
3.600	27.947	1971.903	1659.006
4.615	26.654	1967.144	1643.128
5.629	20.518	1863.233	1503.299
6.644	10.615	1738.086	1321.904
7.659	5.441	1697.704	1249.828
8.673	4.929	1693.858	1242.798
9.688	5.081	1691.365	1242.073
10.702	4.981	1690.495	1240.525
11.717	4.829	1687.455	1236.981
12.731	5.440	1687.925	1242.068
13.746	11.884	1703.832	1305.178
14.761	19.020	1718.317	1373.322
15.775	19.359	1716.988	1374.842
16.790	17.850	1712.013	1358.736
17.804	16.678	1708.281	1346.333
18.819	15.697	1704.701	1335.609
19.834	15.052	1702.344	1328.527
20.848	14.658	1700.986	1324.225
21.863	14.425	1699.223	1320.886
22.877	14.192	1697.830	1317.842
23.892	13.990	1695.948	1314.668
24.907	13.867	1695.069	1312.891
25.921	13.822	1694.176	1311.735
26.936	13.913	1692.786	1311.256
27.950	13.820	1692.521	1310.205
28.965	13.994	1691.628	1310.764
29.980	13.940	1691.245	1309.925
30.994	14.073	1689.888	1309.813
32.009	14.223	1688.050	1309.451
33.023	14.173	1687.559	1308.560
34.038	14.134	1687.327	1307.958
35.053	14.244	1685.526	1307.305
36.067	14.108	1684.460	1305.296
37.082	14.085	1682.933	1303.817
38.096	14.081	1682.318	1303.198
39.111	14.065	1681.650	1302.436
40.126	14.146	1680.512	1302.078
41.140	14.031	1680.174	1300.802
42.155	14.044	1677.961	1299.074
43.169	13.896	1676.733	1296.848
44.184	13.774	1675.386	1294.742
45.199	13.830	1674.093	1294.064
46.213	13.788	1673.162	1292.905
47.228	13.887	1671.770	1292.482
48.242	13.914	1670.523	1291.619
49.257	13.995	1669.735	1291.520
50.271	13.982	1668.511	1290.356
51.286	13.921	1667.495	1288.988
52.301	13.963	1665.978	1288.029
53.315	13.969	1664.090	1286.497
54.330	14.042	1662.668	1285.852
55.344	13.826	1661.861	1283.440
56.359	13.863	1659.832	1282.047
57.374	13.939	1658.854	1281.763
58.388	13.957	1657.358	1280.639
59.403	13.877	1656.182	1278.996
60.417	13.779	1654.953	1277.178
61.432	13.774	1653.966	1276.263
62.447	13.822	1652.520	1275.403
63.461	13.802	1651.693	1274.502
64.476	13.737	1650.942	1273.313
65.490	13.728	1649.176	1271.766
66.505	13.663	1648.273	1270.463
67.520	13.746	1647.404	1270.311
68.534	13.824	1645.818	1269.574
69.549	13.850	1645.063	1269.079
70.563	13.847	1643.538	1267.771
71.578	13.911	1642.439	1267.298
72.593	13.816	1641.640	1265.843
73.607	13.681	1640.979	1264.194
74.622	13.620	1639.734	1262.656
75.636	13.662	1638.598	1261.993
76.651	13.665	1637.841	1261.318
77.666	13.660	1637.003	1260.523
78.680	13.652	1636.027	1259.596
79.695	13.659	1635.289	1258.974
80.709	13.715	1634.114	1258.384
81.724	13.768	1633.574	1258.259
82.739	13.919	1632.135	1258.180
83.753	13.834	1631.827	1257.191
84.768	13.890	1630.857	1256.754
85.782	13.974	1629.957	1256.582
86.797	14.040	1629.148	1256.346
87.812	14.104	1627.968	1255.810
88.826	14.002	1627.238	1254.363
89.841	13.948	1625.988	1252.881
90.855	14.012	1624.623	1252.201
91.870	13.966	1624.130	1251.362
92.884	14.069	1622.494	1250.767
93.899	14.073	1621.550	1249.965
94.914	14.062	1620.663	1249.084
95.928	14.144	1619.308	1248.541
96.943	14.151	1617.729	1247.272
97.957	14.121	1616.702	1246.139
98.972	14.145	1614.791	1244.739
99.987	14.123	1613.201	1243.236
101.001	14.051	1611.801	1241.514
102.016	13.982	1610.271	1239.705
103.030	13.971	1609.476	1238.902
104.045	14.027	1607.792	1237.917
105.060	14.027	1606.432	1236.758
106.074	14.054	1604.871	1235.648
107.089	13.892	1603.216	1233.065
108.103	13.824	1601.747	1231.321
109.118	13.875	1599.702	1230.018
110.133	13.750	1598.911	1228.374
111.147	13.843	1597.084	1227.552
112.162	13.814	1595.965	1226.367
113.176	13.823	1594.614	1225.283
114.191	13.803	1593.351	1224.062
115.206	13.935	1592.113	1223.977
116.220	13.949	1590.841	1222.988
117.235	13.915	1589.803	1221.835
118.249	13.872	1587.852	1219.912
119.264	13.901	1586.926	1219.304
120.279	13.822	1585.800	1217.748
121.293	13.865	1583.821	1216.441
122.308	13.830	1582.426	1215.000
123.322	13.859	1580.955	1213.982
124.337	13.789	1579.736	1212.426
125.352	13.645	1578.727	1210.492
126.366	13.687	1577.604	1209.831
127.381	13.810	1576.262	1209.590
128.395	13.780	1574.930	1208.239
129.410	13.685	1574.233	1206.910
130.424	13.722	1572.672	1205.874
131.439	13.802	1571.234	1205.244
132.454	13.890	1569.606	1204.529
133.468	13.916	1568.482	1203.751
134.483	13.950	1566.555	1202.409
135.497	13.973	1565.527	1201.679
136.512	13.968	1564.136	1200.472
137.527	13.909	1563.005	1199.068
138.541	13.981	1561.814	1198.571
139.556	13.998	1560.363	1197.470
140.570	14.033	1558.452	1196.149
141.585	14.125	1557.149	1195.710
142.600	14.080	1556.648	1194.894
143.614	14.161	1555.271	1194.315
144.629	14.224	1553.822	1193.547
145.643	14.182	1552.645	1192.235
146.658	14.257	1551.142	1191.515
147.673	14.196	1549.732	1189.888
148.687	14.147	1548.128	1188.204
149.702	14.182	1546.363	1186.988
150.716	14.024	1544.729	1184.503
151.731	14.092	1543.725	1184.112
152.746	14.017	1542.474	1182.516
153.760	14.021	1540.939	1181.266
154.775	14.115	1539.813	1180.963
155.789	14.115	1538.297	1179.694
156.804	14.128	1537.249	1178.878
157.819	14.230	1536.283	1178.761
158.833	14.274	1534.792	1177.823
159.848	14.233	1533.939	1176.769
160.862	14.319	1532.584	1176.233
161.877	14.355	1531.378	1175.463
162.892	14.331	1529.918	1174.064
163.906	14.152	1528.931	1171.945
164.921	14.143	1527.403	1170.604
165.935	14.079	1526.861	1169.639
166.950	14.200	1525.520	1169.357
167.964	14.194	1524.010	1168.052
168.979	14.223	1523.196	1167.533
169.994	14.168	1521.905	1166.050
171.008	14.218	1520.539	1165.252
172.023	14.203	1519.486	1164.238
173.037	14.251	1518.623	1163.808
174.052	14.319	1517.598	1163.396
175.067	14.327	1516.652	1162.621
176.081	14.224	1515.356	1160.806
177.096	14.215	1514.145	1159.717
178.110	14.267	1512.460	1158.681
179.125	14.119	1511.879	1157.105
180.140	14.220	1510.253	1156.458
181.154	14.282	1509.533	1156.242
182.169	14.256	1508.534	1155.192
183.183	14.284	1507.415	1154.423
184.198	14.457	1506.006	1154.446
185.213	14.410	1505.144	1153.353
186.227	14.454	1504.308	1152.915
187.242	14.548	1503.091	1152.533
188.256	14.515	1501.821	1151.227
189.271	14.538	1500.849	1150.542
190.286	14.644	1500.042	1150.550
191.300	14.509	1499.330	1148.972
192.315	14.440	1497.509	1146.996
193.329	14.233	1496.346	1144.585
194.344	14.220	1495.389	1143.662
195.359	14.256	1494.190	1142.889
196.373	14.323	1493.253	1142.530
197.388	14.379	1492.527	1142.260
198.402	14.470	1491.221	1141.783
199.417	14.567	1490.106	1141.491
200.432	14.696	1489.060	1141.470
201.446	14.709	1488.128	1140.743
202.461	14.710	1487.097	1139.861
203.475	14.781	1485.917	1139.336
204.490	14.850	1484.652	1138.737
205.504	14.730	1483.968	1137.293
206.519	14.794	1482.409	1136.434
207.534	14.663	1481.452	1134.714
208.548	14.579	1480.468	1133.284
209.563	14.710	1479.290	1133.171
210.577	14.680	1478.308	1132.120
211.592	14.698	1477.255	1131.330
212.607	14.690	1476.592	1130.668
213.621	14.754	1476.283	1130.765
214.636	14.888	1474.828	1130.459
215.650	14.831	1473.986	1129.327
216.665	14.816	1473.205	1128.532
217.680	14.836	1472.510	1128.028
218.694	14.878	1471.997	1127.820
219.709	14.975	1470.895	1127.533
220.723	14.953	1469.371	1126.116
221.738	14.970	1468.749	1125.656
222.753	14.936	1467.719	1124.538
223.767	14.883	1466.520	1123.160
224.782	14.982	1466.003	1123.328
225.796	14.906	1465.078	1122.012
226.811	15.098	1463.900	1122.296
227.826	15.066	1463.894	1121.978
228.840	15.017	1462.700	1120.638
229.855	14.945	1461.690	1119.283
230.869	15.010	1460.470	1118.682
231.884	14.992	1459.372	1117.627
232.899	15.035	1458.363	1117.041
233.913	14.930	1457.194	1115.348
234.928	14.914	1455.754	1114.036
235.942	14.949	1454.516	1113.222
236.957	14.939	1453.282	1112.116
237.972	14.894	1452.657	1111.240
238.986	14.967	1451.031	1110.383
240.001	14.979	1450.087	1109.641
241.015	15.001	1449.224	1109.026
242.030	15.037	1447.896	1108.154
243.045	15.029	1447.080	1107.373
244.059	14.976	1446.379	1106.394
245.074	15.042	1445.362	1105.951
246.088	15.030	1444.829	1105.364
247.103	15.116	1443.805	1105.051
248.117	15.182	1442.879	1104.682
249.132	15.250	1441.892	1104.274
250.147	15.350	1440.933	1104.102
251.161	15.533	1440.426	1104.823
252.176	15.543	1439.945	1104.421
253.190	15.535	1439.472	1103.909
254.205	15.541	1438.044	1102.756
255.220	15.624	1437.638	1102.888
256.234	15.624	1436.953	1102.264
257.249	15.580	1436.326	1101.395
258.263	15.600	1435.363	1100.692
259.278	15.614	1434.228	1099.819
260.293	15.633	1433.542	1099.318
261.307	15.667	1432.466	1098.615
262.322	15.613	1432.172	1097.942
263.336	15.691	1431.206	1097.615
264.351	15.651	1430.207	1096.492
265.366	15.818	1428.414	1096.109
266.380	15.843	1427.617	1095.563
267.395	15.898	1426.744	1095.150
268.409	15.860	1426.010	1094.243
269.424	15.684	1425.567	1092.660
270.439	15.723	1424.088	1091.685
271.453	15.694	1423.344	1090.833
272.468	15.664	1422.551	1089.930
273.482	15.706	1421.686	1089.447
274.497	15.655	1420.736	1088.288
275.512	15.797	1419.464	1088.136
276.526	15.710	1419.221	1087.296
277.541	15.718	1417.966	1086.288
278.555	15.727	1417.009	1085.516
279.570	15.851	1416.078	1085.509
280.585	15.813	1415.200	1084.490
281.599	15.934	1414.479	1084.623
282.614	15.893	1414.192	1084.045
283.628	15.964	1412.041	1082.754
284.643	15.952	1410.894	1081.702
285.657	15.920	1409.957	1080.681
286.672	15.880	1409.025	1079.616
287.687	15.862	1408.611	1079.091
288.701	15.908	1407.157	1078.174
289.716	15.960	1406.235	1077.705
290.730	15.996	1405.633	1077.381
291.745	15.977	1404.764	1076.497
292.760	15.945	1404.112	1075.698
293.774	15.988	1402.842	1074.900
294.789	16.022	1401.803	1074.227
295.803	16.080	1400.967	1073.864
296.818	16.140	1399.938	1073.357
297.833	16.041	1399.210	1072.078
298.847	15.959	1398.073	1070.590
299.862	16.029	1397.245	1070.306
300.876	16.070	1395.870	1069.418
301.891	16.002	1395.428	1068.551
302.906	16.064	1394.215	1067.920
303.920	16.274	1393.682	1068.747
304.935	16.270	1392.869	1068.007
305.949	16.179	1392.270	1066.880
306.964	16.339	1391.286	1067.040
307.979	16.351	1390.505	1066.420
308.993	16.328	1389.229	1065.202
310.008	16.323	1388.605	1064.602
311.022	16.395	1387.418	1064.048
312.037	16.331	1386.670	1062.976
313.052	16.413	1385.744	1062.692
314.066	16.340	1384.612	1061.271
315.081	16.465	1383.276	1060.934
316.095	16.326	1382.631	1059.478
317.110	16.230	1381.154	1057.647
318.125	16.282	1380.267	1057.202
319.139	16.264	1379.504	1056.413
320.154	16.260	1378.676	1055.655
321.168	16.129	1377.607	1053.927
322.183	16.253	1376.762	1053.960
323.197	16.266	1375.833	1053.235
324.212	16.342	1374.966	1052.955
325.227	16.377	1374.273	1052.548
326.241	16.368	1373.317	1051.670
327.256	16.420	1372.011	1050.899
328.270	16.496	1370.949	1050.465
329.285	16.331	1370.616	1049.090
330.300	16.387	1369.987	1048.867
331.314	16.333	1368.834	1047.555
332.329	16.330	1368.107	1046.884
333.343	16.371	1366.913	1046.136
334.358	16.438	1366.221	1045.926
335.373	16.449	1365.177	1045.103
336.387	16.552	1364.483	1045.118
337.402	16.549	1363.553	1044.293
338.416	16.538	1363.469	1044.066
339.431	16.661	1362.633	1044.097
340.446	16.701	1361.423	1043.321
341.460	16.712	1360.422	1042.530
342.475	16.659	1359.710	1041.563
343.489	16.769	1358.782	1041.442
344.504	16.782	1358.266	1041.028
345.519	16.912	1356.910	1040.697
346.533	16.829	1356.305	1039.635
347.548	16.925	1355.213	1039.293
348.562	17.062	1354.073	1039.163
349.577	16.984	1353.693	1038.302
350.592	16.904	1353.129	1037.287
351.606	16.884	1351.760	1036.029
352.621	16.735	1350.802	1034.292
353.635	16.766	1349.886	1033.685
354.650	16.788	1348.586	1032.734
355.665	16.864	1347.313	1032.129
356.679	16.812	1346.444	1031.059
357.694	16.850	1345.777	1030.688
358.708	16.883	1344.463	1029.786
359.723	16.878	1343.772	1029.138
360.738	16.860	1342.868	1028.245
361.752	16.886	1341.642	1027.372
362.767	16.928	1340.486	1026.651
363.781	16.915	1339.817	1025.967
364.796	16.942	1338.890	1025.330
365.810	17.025	1337.540	1024.707
366.825	17.063	1337.375	1024.720
367.840	17.124	1336.526	1024.346
368.854	17.181	1336.140	1024.302
369.869	17.225	1335.742	1024.174
370.883	17.155	1335.006	1023.098
371.898	17.169	1334.027	1022.344
372.913	17.233	1333.302	1022.082
373.927	17.152	1332.455	1020.853
374.942	17.170	1331.349	1020.025
375.956	17.253	1330.610	1019.867
376.971	17.265	1330.111	1019.468
377.986	17.272	1328.911	1018.497
379.000	17.272	1328.366	1017.987
380.015	17.341	1327.599	1017.723
381.029	17.303	1327.180	1017.088
382.044	17.461	1325.964	1017.007
383.059	17.464	1325.119	1016.289
384.073	17.397	1324.873	1015.608
385.088	17.506	1324.089	1015.567
386.102	17.481	1323.300	1014.723
387.117	17.542	1322.723	1014.553
388.132	17.546	1321.895	1013.857
389.146	17.343	1320.959	1011.839
390.161	17.379	1320.071	1011.282
391.175	17.336	1319.309	1010.357
392.190	17.420	1318.505	1010.146
393.205	17.489	1317.064	1009.367
394.219	17.553	1316.192	1008.989
395.234	17.594	1315.133	1008.328
396.248	17.536	1314.175	1007.160
397.263	17.490	1312.591	1005.588
398.278	17.404	1311.467	1004.131
399.292	17.503	1310.105	1003.581
400.307	17.408	1309.369	1002.366
401.321	17.429	1308.118	1001.448
402.336	17.465	1306.809	1000.567
403.350	17.489	1305.837	999.873
404.365	17.488	1305.165	999.266
405.380	17.461	1304.271	998.334
406.394	17.503	1303.224	997.691
407.409	17.576	1303.035	997.886
408.423	17.623	1301.903	997.207
409.438	17.651	1301.544	997.008
410.453	17.798	1300.540	997.006
411.467	17.782	1300.045	996.446
412.482	17.887	1299.638	996.658
413.496	17.868	1298.642	995.696
414.511	17.847	1298.116	995.083
415.526	17.942	1297.288	994.912
416.540	17.903	1296.710	994.158
417.555	17.955	1295.960	993.797
418.569	17.988	1295.447	993.505
419.584	17.908	1294.912	992.543
420.599	18.010	1294.056	992.388
421.613	132.080	1425.310	1765.842
422.628	127.768	1444.423	1765.948
