DTS Sentinel unit serial number:	SN413079Multiplexer serial number:	ORYXHardware model number:	OX4-SRSoftware version number:	ORYX F/W v4.00 Oryx Data Collector v3.7.2.0data status	okinstallation	princeton_trtdifferential loss correction	single-endedforward channel	channel 4reverse channel	N/Adate	2019/09/13time	06:13:34forward acquisition time	60.00reverse acquisition time	0.00gamma	496.2192k internal	0.2323k external	0.2323temperature offset calibration	1.0198default loss term (dB/km)	0.3790temperature slope calibration	1.0000multiplexer offset coefficient	1.0000multiplexer slope coefficient	1.0000fibre end	0.00T internal ref (°C)	26.12T ext. ref 1 (°C)	4.09T ext. ref 2 (°C)	20.90length (m)	temperature (°C)	Stokes	anti-Stokes-747.200	-200.000	-0.001	0.026
-746.185	800.000	0.034	0.099
-745.171	-200.000	0.067	0.330
-744.156	800.000	0.105	0.404
-743.142	800.000	0.044	0.170
-742.127	153.930	0.169	0.235
-741.112	-150.708	0.162	-0.012
-740.098	504.841	0.012	0.028
-739.083	30.753	0.227	0.196
-738.069	-121.831	-0.127	0.021
-737.054	-178.464	-0.185	0.004
-736.039	56.999	-0.116	-0.114
-735.025	-200.000	0.100	0.503
-734.010	800.000	0.068	-0.216
-732.996	-162.204	-0.133	0.007
-731.981	354.904	-0.007	-0.015
-730.966	-33.974	-0.344	-0.191
-729.952	-102.914	0.388	-0.093
-728.937	255.495	0.077	0.133
-727.923	-117.827	-0.246	-0.045
-726.908	-18.186	-0.258	0.163
-725.894	800.000	0.124	0.349
-724.879	296.063	0.106	-0.195
-723.864	-200.000	0.025	-0.119
-722.850	-200.000	-0.004	-0.165
-721.835	-20.501	-0.286	-0.178
-720.821	-10.207	0.367	-0.246
-719.806	481.014	0.119	-0.273
-718.791	-89.795	-0.139	0.041
-717.777	31.973	-0.268	-0.233
-716.762	142.502	-0.320	0.429
-715.748	-200.000	-0.004	0.080
-714.733	-44.003	-0.178	-0.090
-713.718	-168.808	0.273	0.010
-712.704	111.517	0.154	-0.188
-711.689	-134.731	-0.240	0.029
-710.675	-87.711	0.436	-0.133
-709.660	397.024	0.152	0.321
-708.645	255.803	-0.082	-0.141
-707.631	-80.554	-0.319	-0.107
-706.616	800.000	-0.052	-0.192
-705.602	-67.892	0.272	-0.107
-704.587	-200.000	0.073	0.343
-703.572	492.332	0.155	-0.359
-702.558	107.304	-0.229	-0.274
-701.543	302.335	-0.178	-0.332
-700.529	-78.592	-0.236	-0.081
-699.514	-24.868	0.168	0.101
-698.499	-170.395	0.373	-0.013
-697.485	62.994	-0.110	0.111
-696.470	-200.000	-0.024	-0.112
-695.456	-162.428	-0.386	0.019
-694.441	197.386	-0.175	0.269
-693.426	231.679	0.166	-0.275
-692.412	-200.000	-0.016	0.126
-691.397	36.803	-0.145	0.129
-690.383	117.992	-0.119	-0.148
-689.368	-37.802	-0.323	-0.173
-688.354	161.135	-0.145	-0.204
-687.339	395.392	-0.120	-0.252
-686.324	76.144	-0.070	0.074
-685.310	-122.103	0.104	0.017
-684.295	105.744	-0.115	-0.137
-683.281	82.373	-0.327	-0.357
-682.266	280.926	0.069	-0.125
-681.251	-50.140	0.268	-0.128
-680.237	-200.000	0.008	-0.170
-679.222	227.765	-0.114	0.187
-678.208	800.000	0.088	-0.319
-677.193	417.913	-0.066	-0.143
-676.178	73.598	0.094	-0.099
-675.164	-99.935	0.164	0.041
-674.149	-200.000	-0.011	0.168
-673.135	706.673	0.051	0.137
-672.120	35.871	0.189	0.168
-671.105	73.125	0.127	-0.133
-670.091	-200.000	0.056	-0.286
-669.076	550.856	0.057	-0.139
-668.062	-38.870	0.277	-0.147
-667.047	44.061	0.104	-0.096
-666.032	-10.752	0.083	0.055
-665.018	-200.000	-0.000	0.061
-664.003	-172.912	0.402	-0.013
-662.989	-200.000	0.069	-0.407
-661.974	240.870	0.050	0.083
-660.959	-60.504	-0.242	0.103
-659.945	-126.872	0.103	-0.015
-658.930	65.658	-0.264	0.270
-657.916	512.975	-0.098	0.229
-656.901	141.627	-0.108	-0.145
-655.886	203.078	-0.056	-0.087
-654.872	-20.862	-0.266	-0.164
-653.857	-200.000	0.008	0.121
-652.843	-83.646	-0.408	-0.131
-651.828	-125.385	-0.397	0.061
-650.814	319.313	-0.185	-0.353
-649.799	-158.905	0.275	0.016
-648.784	-155.136	0.407	-0.027
-647.770	192.869	0.105	-0.160
-646.755	449.407	-0.114	-0.254
-645.741	49.649	-0.190	-0.180
-644.726	800.000	0.023	-0.069
-643.711	-80.403	0.262	-0.088
-642.697	-119.620	-0.265	0.046
-641.682	800.000	-0.090	-0.295
-640.668	-155.168	-0.598	-0.039
-639.653	-60.095	-0.029	-0.012
-638.638	84.134	-0.234	0.257
-637.624	-174.028	0.145	-0.004
-636.609	19.312	0.026	0.021
-635.595	-86.611	-0.160	0.049
-634.580	228.390	0.079	0.129
-633.565	785.776	0.092	0.255
-632.551	64.821	-0.229	0.232
-631.536	129.478	0.195	0.251
-630.522	-86.982	0.264	-0.081
-629.507	-18.384	-0.156	-0.098
-628.492	-53.046	-0.507	-0.234
-627.478	-75.022	-0.263	-0.095
-626.463	-42.182	-0.200	-0.103
-625.449	-44.244	-0.326	-0.164
-624.434	15.980	-0.196	0.156
-623.419	-53.157	-0.455	0.210
-622.405	84.504	-0.089	0.098
-621.390	-29.787	0.290	-0.166
-620.376	327.864	0.084	-0.163
-619.361	-200.000	0.032	-0.303
-618.346	-31.773	-0.122	-0.069
-617.332	-200.000	-0.009	-0.252
-616.317	420.542	0.079	0.170
-615.303	-112.461	-0.369	0.074
-614.288	-200.000	-0.004	-0.109
-613.273	800.000	-0.049	0.152
-612.259	-200.000	-0.017	-0.112
-611.244	-200.000	-0.003	-0.051
-610.230	-200.000	-0.016	-0.086
-609.215	482.819	0.101	-0.230
-608.201	-25.839	0.115	0.068
-607.186	800.000	0.016	0.052
-606.171	417.891	-0.101	0.216
-605.157	800.000	-0.013	0.045
-604.142	-129.171	-0.178	0.025
-603.128	-200.000	-0.007	0.221
-602.113	-21.759	-0.271	-0.166
-601.098	-52.641	0.120	0.055
-600.084	-84.750	0.112	0.035
-599.069	-20.467	-0.062	0.038
-598.055	-167.366	0.228	0.009
-597.040	-11.049	0.236	-0.156
-596.025	-200.000	0.112	0.494
-595.011	55.251	-0.218	0.211
-593.996	-71.126	-0.216	0.082
-592.982	-200.000	-0.009	0.158
-591.967	162.823	0.150	0.211
-590.952	-98.129	0.242	0.062
-589.938	616.011	0.128	-0.323
-588.923	-73.767	0.044	0.016
-587.909	198.022	-0.210	-0.322
-586.894	-200.000	0.027	-0.127
-585.879	367.516	0.117	-0.237
-584.865	-15.470	-0.203	0.130
-583.850	800.000	-0.090	-0.276
-582.836	-87.037	-0.233	-0.071
-581.821	36.691	-0.148	-0.131
-580.806	60.970	-0.026	0.026
-579.792	220.146	-0.080	-0.128
-578.777	800.000	0.119	-0.423
-577.763	-28.099	-0.193	0.112
-576.748	-160.051	-0.296	0.016
-575.733	-200.000	-0.006	-0.488
-574.719	800.000	-0.067	0.205
-573.704	369.558	0.132	0.268
-572.690	389.816	0.061	-0.127
-571.675	-130.636	-0.416	0.056
-570.661	-82.513	-0.059	0.019
-569.646	152.228	0.076	-0.104
-568.631	-24.564	-0.119	-0.071
-567.617	-116.843	-0.133	-0.024
-566.602	-132.682	-0.063	0.008
-565.588	-200.000	0.004	0.161
-564.573	800.000	-0.101	0.296
-563.558	-68.060	-0.187	-0.073
-562.544	168.516	-0.114	0.162
-561.529	255.909	0.145	-0.249
-560.515	758.249	0.017	0.047
-559.500	85.463	-0.190	-0.209
-558.485	31.711	0.205	-0.177
-557.471	-147.351	-0.450	0.038
-556.456	28.272	-0.219	-0.185
-555.442	-141.536	-0.158	0.016
-554.427	-109.010	0.359	0.077
-553.412	-6.843	-0.190	0.129
-552.398	-40.694	0.096	0.050
-551.383	289.416	0.132	0.240
-550.369	-122.130	0.135	0.022
-549.354	-128.344	-0.156	0.022
-548.339	-26.033	0.165	-0.097
-547.325	56.465	0.155	0.151
-546.310	6.850	0.253	0.189
-545.296	-130.000	-0.289	0.040
-544.281	-80.434	-0.260	0.087
-543.266	800.000	0.032	0.133
-542.252	-61.377	0.332	0.140
-541.237	-119.645	0.117	0.020
-540.223	-200.000	-0.068	0.341
-539.208	-200.000	-0.002	-0.257
-538.193	-200.000	0.025	-0.141
-537.179	65.263	0.119	0.120
-536.164	800.000	0.035	0.145
-535.150	-200.000	-0.044	-0.436
-534.135	115.504	-0.126	0.155
-533.121	-49.437	-0.244	0.117
-532.106	103.785	0.071	-0.084
-531.091	-141.992	0.189	0.019
-530.077	-128.892	0.394	-0.055
-529.062	17.910	0.271	-0.216
-528.048	232.407	-0.097	0.160
-527.033	161.758	-0.242	-0.339
-526.018	800.000	-0.118	0.330
-525.004	-11.458	-0.044	0.029
-523.989	632.950	-0.064	-0.162
-522.975	105.033	0.049	0.057
-521.960	-55.157	0.088	0.039
-520.945	-104.947	0.327	0.075
-519.931	135.988	-0.157	-0.205
-518.916	-89.791	-0.125	0.036
-517.902	-1.786	0.261	-0.184
-516.887	-200.000	0.006	-0.184
-515.872	196.290	0.069	-0.106
-514.858	-98.040	0.330	0.085
-513.843	-157.282	0.195	-0.012
-512.829	-200.000	0.008	-0.081
-511.814	-79.672	-0.288	0.097
-510.799	-200.000	0.032	0.259
-509.785	-122.692	-0.353	-0.057
-508.770	-200.000	-0.031	-0.244
-507.756	125.509	0.305	0.385
-506.741	699.788	0.034	-0.090
-505.726	138.802	0.198	0.260
-504.712	-20.881	0.053	0.032
-503.697	187.517	-0.054	-0.081
-502.683	234.148	0.215	-0.354
-501.668	-159.426	0.136	0.008
-500.653	-133.830	0.128	-0.016
-499.639	-138.432	0.271	0.030
-498.624	-200.000	0.014	0.065
-497.610	800.000	-0.087	-0.243
-496.595	289.845	0.104	-0.189
-495.581	534.713	0.042	-0.099
-494.566	-60.366	0.208	0.089
-493.551	-25.417	-0.087	0.052
-492.537	-33.424	-0.199	-0.110
-491.522	367.025	0.089	0.180
-490.508	37.478	0.255	0.226
-489.493	56.222	0.010	0.009
-488.478	800.000	-0.027	-0.111
-487.464	15.162	0.047	-0.037
-486.449	5.709	-0.014	0.011
-485.435	61.435	0.208	-0.207
-484.420	-117.147	0.213	0.039
-483.405	-114.644	0.592	0.113
-482.391	-29.909	-0.089	0.050
-481.376	800.000	0.107	0.431
-480.362	-157.958	0.233	-0.014
-479.347	103.137	-0.133	0.156
-478.332	-22.845	-0.136	-0.082
-477.318	-102.265	-0.045	0.011
-476.303	-88.119	0.273	-0.082
-475.289	140.200	-0.076	-0.101
-474.274	384.078	0.090	-0.186
-473.259	33.273	0.088	-0.077
-472.245	-0.045	0.193	-0.137
-471.230	362.322	-0.095	0.190
-470.216	-114.106	0.147	0.028
-469.201	-140.316	-0.297	0.031
-468.186	273.443	-0.139	-0.246
-467.172	300.429	-0.090	0.166
-466.157	165.343	0.145	-0.204
-465.143	57.874	-0.179	-0.175
-464.128	119.168	-0.150	0.186
-463.113	-76.718	-0.221	-0.077
-462.099	97.374	0.365	0.418
-461.084	-31.301	-0.139	-0.078
-460.070	-200.000	0.058	0.325
-459.055	286.679	-0.030	-0.055
-458.040	400.394	0.048	0.101
-457.026	-144.393	0.264	0.024
-456.011	11.905	0.190	0.146
-454.997	-200.000	-0.011	0.169
-453.982	201.260	-0.121	0.185
-452.968	57.910	-0.116	0.113
-451.953	-200.000	-0.007	-0.180
-450.938	-98.956	-0.331	-0.084
-449.924	11.690	0.085	0.065
-448.909	132.293	0.122	-0.157
-447.895	295.462	-0.095	0.173
-446.880	65.382	-0.108	0.110
-445.865	-200.000	0.032	0.181
-444.851	-57.780	0.261	-0.114
-443.836	122.480	0.180	0.225
-442.822	-109.057	-0.354	-0.075
-441.807	800.000	-0.061	-0.184
-440.792	800.000	0.074	0.225
-439.778	-73.250	-0.170	-0.062
-438.763	-20.493	0.224	0.138
-437.749	181.017	-0.040	-0.058
-436.734	-127.298	-0.143	0.021
-435.719	-78.490	-0.167	0.057
-434.705	-15.902	-0.175	-0.111
-433.690	152.536	0.081	0.111
-432.676	800.000	0.072	-0.225
-431.661	386.633	0.051	0.104
-430.646	800.000	0.121	-0.382
-429.632	-200.000	-0.035	0.372
-428.617	209.184	-0.169	-0.264
-427.603	87.609	0.102	-0.113
-426.588	-100.770	-0.138	0.034
-425.573	800.000	0.012	0.046
-424.559	-161.042	-0.259	0.014
-423.544	800.000	0.040	0.113
-422.530	-64.328	-0.175	0.071
-421.515	-92.767	-0.318	0.089
-420.500	-113.558	0.090	-0.017
-419.486	-189.910	0.354	-0.004
-418.471	800.000	-0.012	0.035
-417.457	-200.000	0.049	0.322
-416.442	-15.085	0.049	-0.031
-415.428	-200.000	-0.003	0.331
-414.413	-200.000	0.003	0.100
-413.398	-94.492	0.048	0.013
-412.384	-200.000	0.028	0.283
-411.369	-90.279	-0.166	-0.048
-410.355	123.708	-0.023	-0.029
-409.340	278.551	0.067	-0.119
-408.325	-96.625	-0.046	0.012
-407.311	88.722	-0.156	0.173
-406.296	-95.062	0.334	-0.090
-405.282	800.000	0.020	0.082
-404.267	-44.933	-0.090	-0.044
-403.252	50.123	-0.176	0.165
-402.238	-200.000	0.006	0.072
-401.223	-200.000	-0.117	-0.528
-400.209	-200.000	0.024	0.407
-399.194	304.110	0.101	0.186
-398.179	-47.748	0.028	-0.014
-397.165	-120.432	0.055	0.009
-396.150	-200.000	-0.048	-0.302
-395.136	532.242	0.011	0.025
-394.121	-200.000	-0.021	0.092
-393.106	-166.450	-0.049	-0.002
-392.092	-200.000	-0.007	-0.370
-391.077	28.758	0.168	-0.141
-390.063	-123.075	0.177	-0.028
-389.048	97.795	-0.052	-0.059
-388.033	389.877	-0.096	-0.199
-387.019	37.960	-0.089	0.079
-386.004	201.638	0.149	0.229
-384.990	-176.212	-0.126	0.003
-383.975	-19.391	0.314	-0.194
-382.960	-200.000	-0.017	-0.148
-381.946	-117.346	-0.230	0.042
-380.931	-83.148	0.244	0.078
-379.917	800.000	0.091	-0.279
-378.902	-56.334	-0.136	-0.060
-377.888	-63.988	0.130	0.053
-376.873	-87.456	0.118	0.036
-375.858	-200.000	0.045	0.322
-374.844	18.773	0.162	-0.129
-373.829	-104.868	-0.235	-0.054
-372.815	800.000	0.080	0.302
-371.800	128.558	0.223	0.283
-370.785	-17.374	0.217	0.136
-369.771	-98.017	-0.205	0.053
-368.756	-69.659	-0.044	0.017
-367.742	267.036	0.100	0.175
-366.727	-200.000	0.045	-0.229
-365.712	59.952	0.263	-0.259
-364.698	800.000	0.061	-0.197
-363.683	800.000	-0.084	-0.246
-362.669	-200.000	0.022	-0.190
-361.654	-42.197	0.370	-0.188
-360.639	-39.620	0.267	0.139
-359.625	-61.250	-0.291	0.122
-358.610	-170.510	-0.026	0.001
-357.596	7.471	-0.124	0.092
-356.581	279.988	0.066	-0.117
-355.566	-93.792	-0.191	0.052
-354.552	-40.608	-0.454	-0.234
-353.537	86.496	-0.205	-0.225
-352.523	746.638	-0.103	0.276
-351.508	-200.000	-0.016	0.110
-350.493	-200.000	0.002	0.169
-349.479	-200.000	0.013	-0.275
-348.464	192.649	0.069	-0.103
-347.450	19.715	-0.351	-0.281
-346.435	266.318	0.115	0.200
-345.420	-91.411	0.194	-0.055
-344.406	258.292	0.152	-0.260
-343.391	397.498	-0.150	0.311
-342.377	-17.708	0.085	-0.053
-341.362	394.632	0.148	-0.306
-340.348	-97.820	-0.235	0.060
-339.333	45.417	0.125	0.115
-338.318	-200.000	-0.048	0.320
-337.304	80.822	0.200	0.214
-336.289	436.129	0.078	0.168
-335.275	-200.000	0.037	0.223
-334.260	800.000	-0.096	-0.298
-333.245	-200.000	-0.012	-0.076
-332.231	-14.925	0.323	-0.206
-331.216	-8.160	0.100	0.067
-330.202	34.186	-0.243	0.211
-329.187	145.173	0.129	-0.172
-328.172	7.996	-0.318	-0.237
-327.158	-200.000	0.012	0.224
-326.143	612.282	0.100	0.249
-325.129	-200.000	0.016	0.270
-324.114	78.651	0.067	-0.071
-323.099	12.466	0.204	-0.156
-322.085	-50.806	0.102	-0.048
-321.070	-104.378	-0.181	0.042
-320.056	800.000	-0.033	0.111
-319.041	19.091	-0.282	-0.225
-318.026	-96.523	-0.266	-0.070
-317.012	7.221	-0.167	0.124
-315.997	54.020	-0.070	-0.067
-314.983	800.000	-0.058	-0.171
-313.968	-81.839	-0.278	-0.090
-312.953	-200.000	0.031	0.256
-311.939	-130.834	-0.186	-0.025
-310.924	-200.000	-0.005	0.302
-309.910	-105.013	0.297	0.068
-308.895	146.610	0.195	0.261
-307.880	136.475	0.134	0.173
-306.866	95.193	-0.126	0.142
-305.851	-74.737	-0.208	-0.074
-304.837	-200.000	-0.023	-0.199
-303.822	-92.077	-0.283	0.079
-302.807	-161.327	0.191	0.010
-301.793	-178.739	-0.208	-0.005
-300.778	-51.363	0.244	0.113
-299.764	179.474	0.156	0.227
-298.749	-136.435	-0.360	0.042
-297.735	744.824	-0.031	-0.083
-296.720	-200.000	0.002	0.065
-295.705	-148.882	-0.125	-0.010
-294.691	26.224	0.017	0.014
-293.676	648.515	0.124	-0.314
-292.662	-86.485	0.362	-0.110
-291.647	77.626	-0.172	-0.182
-290.632	-87.940	0.141	-0.042
-289.618	-69.708	0.205	0.078
-288.603	-44.422	-0.137	-0.068
-287.589	-107.534	-0.334	0.073
-286.574	-200.000	0.017	-0.078
-285.559	-116.472	-0.255	0.047
-284.545	-200.000	-0.027	0.130
-283.530	-168.034	-0.133	-0.005
-282.516	-200.000	-0.044	0.279
-281.501	-200.000	0.022	-0.109
-280.486	-161.612	-0.139	-0.007
-279.472	800.000	0.054	-0.155
-278.457	210.935	0.060	-0.093
-277.443	51.107	-0.103	-0.097
-276.428	716.973	-0.074	0.196
-275.413	-10.170	0.090	0.059
-274.399	51.744	0.103	-0.097
-273.384	-140.832	0.206	-0.021
-272.370	-188.222	-0.049	0.001
-271.355	-200.000	0.021	-0.176
-270.340	310.183	-0.115	-0.213
-269.326	612.519	0.089	0.221
-268.311	91.717	0.236	0.264
-267.297	-35.554	0.210	-0.113
-266.282	-6.517	0.093	0.063
-265.267	-87.013	-0.109	0.033
-264.253	161.515	-0.126	-0.174
-263.238	800.000	0.052	0.214
-262.224	800.000	0.063	-0.179
-261.209	800.000	0.050	0.155
-260.195	-200.000	-0.038	-0.188
-259.180	-97.596	0.212	-0.055
-258.165	218.830	-0.172	-0.272
-257.151	31.454	0.232	-0.198
-256.136	800.000	0.062	-0.216
-255.122	-161.430	0.220	-0.011
-254.107	-97.233	-0.265	-0.069
-253.092	800.000	0.085	0.293
-252.078	-61.526	0.106	-0.044
-251.063	68.444	-0.121	-0.123
-250.049	-149.242	0.121	-0.010
-249.034	-200.000	0.025	-0.287
-248.019	-60.272	-0.140	0.059
-247.005	297.048	-0.105	-0.192
-245.990	185.517	0.260	-0.382
-244.976	-41.393	-0.193	0.098
-243.961	-62.413	0.012	-0.005
-242.946	-200.000	-0.036	-0.160
-241.932	67.950	0.043	-0.043
-240.917	-200.000	-0.002	0.243
-239.903	-200.000	0.021	0.380
-238.888	52.074	-0.158	-0.149
-237.873	259.943	0.207	-0.355
-236.859	765.548	0.040	0.108
-235.844	157.926	-0.074	-0.101
-234.830	47.543	0.127	0.117
-233.815	273.696	-0.051	-0.088
-232.800	-112.527	0.119	0.023
-231.786	317.836	0.104	-0.195
-230.771	5.182	0.369	0.269
-229.757	56.498	0.154	0.148
-228.742	21.405	0.238	-0.191
-227.727	-200.000	-0.032	-0.159
-226.713	-116.819	0.314	0.057
-225.698	-146.408	-0.336	-0.029
-224.684	82.438	0.074	-0.080
-223.669	98.491	-0.062	0.071
-222.655	800.000	-0.099	0.413
-221.640	-71.734	0.198	0.073
-220.625	160.495	-0.063	-0.087
-219.611	106.323	-0.151	0.178
-218.596	-200.000	-0.061	0.298
-217.582	-200.000	-0.032	0.268
-216.567	4.535	0.232	0.168
-215.552	29.852	-0.063	-0.053
-214.538	279.884	0.089	-0.158
-213.523	81.019	0.080	-0.086
-212.509	58.604	0.195	-0.189
-211.494	-91.622	0.160	0.045
-210.479	-63.199	-0.223	0.091
-209.465	-17.800	0.056	-0.035
-208.450	-170.160	0.181	-0.006
-207.436	-53.361	-0.099	-0.045
-206.421	-155.025	-0.201	-0.013
-205.406	800.000	0.110	0.368
-204.392	261.220	0.087	0.149
-203.377	423.735	0.066	0.141
-202.363	-61.907	-0.440	0.182
-201.348	58.558	0.075	0.073
-200.333	25.296	-0.152	-0.125
-199.319	157.412	-0.051	0.070
-198.304	-153.141	0.160	-0.011
-197.290	-92.401	0.322	-0.090
-196.275	800.000	0.066	0.260
-195.260	88.354	0.080	-0.088
-194.246	-200.000	-0.013	-0.108
-193.231	107.192	-0.130	0.153
-192.217	176.642	0.116	-0.166
-191.202	-200.000	0.020	-0.303
-190.187	165.215	0.049	0.069
-189.173	-134.321	-0.146	-0.018
-188.158	-90.620	0.143	0.041
-187.144	-24.570	-0.348	0.205
-186.129	-3.850	-0.144	0.099
-185.114	209.812	-0.050	0.078
-184.100	-200.000	-0.022	-0.329
-183.085	-200.000	-0.045	-0.254
-182.071	344.754	0.014	-0.027
-181.056	-138.705	-0.245	0.026
-180.042	762.291	0.102	-0.274
-179.027	109.503	0.110	-0.130
-178.012	-73.161	-0.319	-0.116
-176.998	38.369	-0.243	0.214
-175.983	59.868	0.160	0.156
-174.969	800.000	0.084	-0.238
-173.954	-200.000	-0.022	0.138
-172.939	800.000	0.074	-0.272
-171.925	-178.180	0.186	0.004
-170.910	-92.711	-0.161	0.045
-169.896	1.897	0.302	0.215
-168.881	-184.561	-0.221	-0.004
-167.866	17.279	0.103	-0.080
-166.852	371.297	0.031	-0.063
-165.837	800.000	0.086	0.238
-164.823	800.000	0.101	0.405
-163.808	800.000	-0.051	0.153
-162.793	84.697	0.164	-0.178
-161.779	71.023	0.267	0.273
-160.764	800.000	0.028	-0.118
-159.750	97.447	0.237	-0.269
-158.735	78.930	0.185	-0.196
-157.720	-183.773	-0.334	-0.006
-156.706	-200.000	-0.025	0.123
-155.691	-62.617	-0.068	-0.028
-154.677	147.597	-0.146	0.195
-153.662	88.077	-0.289	-0.316
-152.647	92.727	-0.064	-0.071
-151.633	800.000	-0.068	-0.233
-150.618	-121.283	-0.168	-0.028
-149.604	52.049	-0.048	-0.045
-148.589	51.217	0.216	0.202
-147.574	-116.899	-0.379	-0.068
-146.560	-56.348	-0.174	0.076
-145.545	251.334	0.114	0.190
-144.531	-54.939	-0.128	-0.057
-143.516	-59.183	-0.122	0.052
-142.502	40.737	0.458	0.408
-141.487	-154.078	0.274	-0.018
-140.472	-44.437	0.169	-0.083
-139.458	-17.503	0.252	0.156
-138.443	-110.604	-0.102	0.021
-137.429	179.231	0.112	0.161
-136.414	-62.329	0.131	0.054
-135.399	-200.000	-0.043	0.201
-134.385	800.000	0.061	0.252
-133.370	590.614	0.077	-0.187
-132.356	-2.385	0.180	-0.124
-131.341	-200.000	-0.021	0.469
-130.326	-158.149	0.144	0.008
-129.312	6.246	-0.237	0.174
-128.297	263.886	-0.071	0.122
-127.283	-200.000	0.002	0.195
-126.268	-162.265	-0.201	-0.010
-125.253	-152.436	-0.056	-0.004
-124.239	-200.000	-0.052	0.293
-123.224	82.664	0.237	-0.254
-122.210	447.265	0.023	-0.049
-121.195	800.000	0.034	-0.094
-120.180	-137.019	0.012	-0.001
-119.166	44.818	0.206	0.187
-118.151	-88.312	0.126	-0.037
-117.137	-84.577	0.110	0.034
-116.122	-128.200	-0.378	-0.053
-115.107	-200.000	0.047	0.261
-114.093	800.000	-0.052	0.217
-113.078	-152.592	0.122	0.009
-112.064	-26.815	0.149	-0.086
-111.049	-144.527	-0.078	0.007
-110.034	286.381	-0.114	-0.202
-109.020	741.709	0.057	-0.151
-108.005	-200.000	0.000	-0.040
-106.991	332.436	-0.133	-0.252
-105.976	800.000	0.056	-0.179
-104.962	427.036	0.079	0.168
-103.947	183.484	0.097	0.141
-102.932	-200.000	0.003	-0.071
-101.918	194.924	-0.205	-0.306
-100.903	-19.957	-0.183	0.111
-99.889	314.606	-0.080	-0.148
-98.874	33.265	0.065	-0.056
-97.859	-50.066	-0.351	-0.164
-96.845	-44.302	-0.062	-0.031
-95.830	-70.124	0.356	-0.133
-94.816	-193.427	0.072	0.001
-93.801	800.000	-0.128	0.392
-92.786	12.502	0.164	-0.124
-91.772	31.969	0.299	0.254
-90.757	-94.367	-0.241	-0.065
-89.743	220.177	-0.120	-0.190
-88.728	-19.106	0.066	-0.041
-87.713	623.102	-0.069	0.170
-86.699	85.506	0.012	0.013
-85.684	-200.000	0.036	0.232
-84.670	66.088	0.190	0.190
-83.655	49.698	-0.169	0.156
-82.640	-39.050	0.090	0.047
-81.626	492.588	-0.166	0.375
-80.611	99.316	-0.071	0.081
-79.597	-106.111	0.237	-0.052
-78.582	-17.927	0.073	0.045
-77.567	-60.500	0.105	-0.044
-76.553	-132.959	-0.128	0.016
-75.538	238.805	-0.067	-0.109
-74.524	212.049	-0.044	0.068
-73.509	-89.013	-0.274	-0.080
-72.494	-147.963	0.259	0.021
-71.480	-200.000	0.005	0.202
-70.465	15.961	-0.369	0.286
-69.451	62.682	0.065	-0.064
-68.436	-200.000	-0.078	-0.383
-67.422	177.868	0.105	-0.151
-66.407	292.255	-0.229	0.411
-65.392	53.764	0.456	0.431
-64.378	800.000	-0.062	0.229
-63.363	-200.000	0.043	-0.360
-62.349	-60.759	-0.174	0.073
-61.334	82.353	-1.207	-1.288
-60.319	18.665	0.787	0.619
-59.305	450.097	-0.524	-1.138
-58.290	560.996	0.522	1.242
-57.276	162.286	0.973	1.342
-56.261	-200.000	117.809	644.222
-55.246	478.372	1552.266	3454.822
-54.232	170.230	2731.015	3841.262
-53.217	93.770	2329.914	2595.297
-52.203	32.580	2071.506	1760.216
-51.188	27.981	1987.277	1647.227
-50.173	26.639	1970.373	1621.148
-49.159	43.150	2031.837	1822.513
-48.144	42.376	2046.692	1828.715
-47.130	28.340	2004.273	1664.317
-46.115	26.168	1994.047	1636.102
-45.100	26.051	1991.468	1632.864
-44.086	26.026	1988.658	1630.265
-43.071	25.988	1985.942	1627.637
-42.057	26.003	1983.921	1626.044
-41.042	25.939	1982.324	1624.098
-40.027	25.994	1980.213	1622.795
-39.013	25.989	1978.351	1621.167
-37.998	26.095	1976.568	1620.591
-36.984	26.038	1974.810	1618.569
-35.969	26.054	1972.349	1616.636
-34.954	26.076	1970.849	1615.537
-33.940	26.098	1969.714	1614.737
-32.925	26.137	1968.030	1613.645
-31.911	26.144	1966.507	1612.395
-30.896	26.168	1964.587	1610.974
-29.881	26.130	1963.340	1609.544
-28.867	26.086	1962.196	1608.147
-27.852	26.158	1959.816	1606.778
-26.838	26.165	1958.066	1605.345
-25.823	26.156	1956.492	1603.907
-24.809	26.179	1954.182	1602.151
-23.794	26.198	1952.495	1600.876
-22.779	26.201	1950.597	1599.282
-21.765	26.198	1949.283	1598.118
-20.750	26.122	1947.975	1596.304
-19.736	26.183	1946.215	1595.340
-18.721	26.203	1944.674	1594.189
-17.706	26.154	1942.887	1592.231
-16.692	26.202	1941.101	1591.128
-15.677	26.101	1939.606	1588.952
-14.663	26.147	1938.542	1588.422
-13.648	26.111	1937.209	1586.950
-12.633	26.128	1936.287	1586.275
-11.619	26.071	1934.535	1584.279
-10.604	26.124	1933.452	1583.795
-9.590	26.174	1932.135	1583.092
-8.575	26.122	1930.407	1581.157
-7.560	26.128	1928.974	1579.972
-6.546	26.159	1927.789	1579.212
-5.531	26.092	1926.267	1577.316
-4.517	26.222	1925.217	1577.527
-3.502	26.100	1924.483	1575.797
-2.487	26.188	1922.781	1575.111
-1.473	26.198	1921.718	1574.262
-0.458	26.148	1917.251	1570.109
0.556	28.106	1897.118	1542.254
1.571	23.771	1878.882	1491.008
2.586	19.840	1901.616	1475.456
3.600	18.857	1936.830	1494.100
4.615	18.629	1929.659	1486.461
5.629	14.850	1830.259	1378.661
6.644	7.894	1717.120	1239.329
7.659	4.267	1684.078	1187.633
8.673	3.949	1681.200	1183.074
9.688	4.142	1680.247	1183.772
10.702	4.147	1679.047	1182.857
11.717	4.102	1675.426	1179.857
12.731	4.595	1674.279	1182.696
13.746	9.540	1686.351	1228.934
14.761	17.469	1703.273	1302.046
15.775	21.926	1711.127	1342.099
16.790	22.652	1710.990	1347.425
17.804	21.701	1708.805	1338.329
18.819	20.908	1705.420	1329.510
19.834	20.298	1703.015	1322.868
20.848	20.107	1701.867	1320.403
21.863	20.183	1700.622	1319.900
22.877	19.978	1699.560	1317.400
23.892	19.828	1698.737	1315.500
24.907	19.754	1697.541	1313.897
25.921	19.758	1695.782	1312.450
26.936	19.646	1695.064	1310.928
27.950	19.756	1693.784	1310.659
28.965	19.786	1693.372	1310.447
29.980	19.892	1692.567	1310.511
30.994	19.952	1691.886	1310.327
32.009	20.147	1690.955	1310.964
33.023	20.121	1690.777	1310.510
34.038	20.255	1689.536	1310.448
35.053	20.112	1687.995	1308.059
36.067	20.017	1686.670	1306.197
37.082	19.914	1685.452	1304.366
38.096	19.930	1684.666	1303.757
39.111	19.994	1684.013	1303.620
40.126	19.951	1683.784	1303.002
41.140	20.017	1682.313	1302.246
42.155	19.796	1680.210	1298.841
43.169	19.505	1678.757	1295.423
44.184	19.390	1677.566	1293.525
45.199	19.347	1676.791	1292.493
46.213	19.402	1675.377	1291.700
47.228	19.479	1674.372	1291.387
48.242	19.660	1673.236	1291.749
49.257	19.776	1672.821	1292.183
50.271	19.838	1671.307	1291.361
51.286	19.803	1669.779	1289.802
52.301	19.776	1668.617	1288.591
53.315	19.749	1667.828	1287.666
54.330	19.714	1666.009	1285.892
55.344	19.619	1664.281	1283.738
56.359	19.570	1662.407	1281.812
57.374	19.494	1661.682	1280.577
58.388	19.446	1660.820	1279.442
59.403	19.399	1659.448	1277.926
60.417	19.312	1658.303	1276.283
61.432	19.346	1657.181	1275.563
62.447	19.359	1655.633	1274.350
63.461	19.239	1654.555	1272.520
64.476	19.136	1653.546	1270.873
65.490	19.042	1652.410	1269.194
66.505	19.113	1650.778	1268.350
67.520	19.058	1650.264	1267.441
68.534	19.131	1649.385	1267.189
69.549	19.187	1647.750	1266.231
70.563	19.139	1646.627	1264.908
71.578	19.060	1645.654	1263.466
72.593	19.062	1644.344	1262.362
73.607	18.926	1643.354	1260.498
74.622	18.852	1641.870	1258.707
75.636	18.854	1641.352	1258.212
76.651	18.977	1640.511	1258.353
77.666	18.957	1639.666	1257.445
78.680	18.999	1639.052	1257.175
79.695	19.070	1638.363	1257.052
80.709	19.189	1637.517	1257.156
81.724	19.342	1636.202	1257.153
82.739	19.385	1635.882	1257.114
83.753	19.529	1634.463	1256.958
84.768	19.669	1634.556	1257.934
85.782	19.785	1634.372	1258.532
86.797	20.023	1633.072	1259.147
87.812	20.086	1632.152	1258.780
88.826	20.028	1630.986	1257.352
89.841	19.848	1630.104	1255.256
90.855	19.863	1629.045	1254.438
91.870	19.902	1627.814	1253.657
92.884	20.045	1627.088	1254.025
93.899	19.955	1626.734	1252.993
94.914	20.067	1625.096	1252.426
95.928	20.132	1623.967	1251.917
96.943	20.134	1622.845	1250.955
97.957	20.158	1621.094	1249.666
98.972	20.038	1619.888	1247.763
99.987	19.976	1618.298	1245.980
101.001	19.948	1616.562	1244.333
102.016	20.009	1615.326	1243.711
103.030	19.990	1614.096	1242.514
104.045	20.048	1612.706	1241.751
105.060	20.007	1611.463	1240.394
106.074	19.896	1610.045	1238.397
107.089	19.654	1608.119	1235.076
108.103	19.341	1606.231	1231.282
109.118	19.212	1604.532	1228.950
110.133	19.054	1603.039	1226.574
111.147	19.092	1601.934	1225.889
112.162	19.123	1600.672	1225.037
113.176	19.196	1598.888	1224.083
114.191	19.260	1597.963	1223.720
115.206	19.272	1597.419	1223.280
116.220	19.365	1595.626	1222.454
117.235	19.285	1594.309	1220.772
118.249	19.241	1593.265	1219.553
119.264	19.278	1591.495	1218.351
120.279	19.206	1589.918	1216.530
121.293	19.140	1588.814	1215.111
122.308	19.063	1587.195	1213.220
123.322	18.955	1585.756	1211.252
124.337	18.877	1583.938	1209.209
125.352	18.839	1582.737	1207.922
126.366	18.809	1581.852	1206.927
127.381	18.758	1580.500	1205.430
128.395	18.778	1579.189	1204.466
129.410	18.768	1578.221	1203.551
130.424	18.852	1576.301	1202.569
131.439	18.907	1575.163	1201.977
132.454	19.020	1574.270	1201.980
133.468	19.103	1573.316	1201.721
134.483	19.226	1571.366	1200.981
135.497	19.227	1570.086	1199.907
136.512	19.258	1568.629	1198.906
137.527	19.357	1567.190	1198.385
138.541	19.336	1566.749	1197.796
139.556	19.312	1565.263	1196.385
140.570	19.438	1563.872	1196.091
141.585	19.531	1562.783	1195.794
142.600	19.642	1562.052	1195.900
143.614	19.768	1560.733	1195.653
144.629	19.984	1559.123	1195.809
145.643	20.014	1558.546	1195.465
146.658	20.042	1557.504	1194.756
147.673	20.009	1555.224	1192.671
148.687	19.800	1553.802	1190.039
149.702	19.663	1552.318	1187.855
150.716	19.551	1550.634	1185.695
151.731	19.419	1549.292	1183.657
152.746	19.430	1547.553	1182.298
153.760	19.400	1546.310	1181.037
154.775	19.459	1545.100	1180.415
155.789	19.551	1544.038	1180.125
156.804	19.610	1543.214	1179.798
157.819	19.644	1542.230	1179.174
158.833	19.699	1541.051	1178.541
159.848	19.900	1539.641	1178.726
160.862	19.909	1539.128	1178.293
161.877	20.128	1537.542	1178.459
162.892	19.846	1536.063	1175.306
163.906	19.530	1534.704	1172.019
164.921	19.369	1533.271	1169.732
165.935	19.276	1532.117	1168.116
166.950	19.445	1531.357	1168.575
167.964	19.627	1529.502	1168.292
168.979	19.607	1529.053	1167.710
169.994	19.619	1528.513	1167.275
171.008	19.481	1527.071	1165.136
172.023	19.498	1526.309	1164.565
173.037	19.618	1524.718	1164.063
174.052	19.842	1523.879	1164.821
175.067	19.826	1523.647	1164.437
176.081	19.772	1521.834	1162.582
177.096	19.518	1519.977	1159.355
178.110	19.319	1518.509	1156.802
179.125	19.443	1517.415	1156.697
180.140	19.524	1516.294	1156.285
181.154	19.444	1515.873	1155.324
182.169	19.646	1514.832	1155.778
183.183	19.877	1513.736	1156.380
184.198	19.910	1512.753	1155.753
185.213	19.954	1511.745	1155.172
186.227	19.912	1510.801	1154.067
187.242	20.016	1509.960	1154.016
188.256	20.024	1509.069	1153.289
189.271	20.159	1508.056	1153.308
190.286	20.203	1507.250	1152.881
191.300	20.140	1505.622	1151.120
192.315	19.687	1504.343	1147.028
193.329	19.324	1502.909	1143.427
194.344	19.361	1501.444	1142.456
195.359	19.500	1500.509	1142.565
196.373	19.544	1499.704	1142.145
197.388	19.678	1498.902	1142.315
198.402	19.683	1498.054	1141.602
199.417	19.964	1497.543	1142.969
200.432	20.162	1496.817	1143.621
201.446	20.290	1496.213	1143.897
202.461	20.517	1494.652	1144.099
203.475	20.471	1493.827	1143.064
204.490	20.559	1493.160	1143.031
205.504	20.308	1492.115	1140.482
206.519	20.110	1490.481	1137.831
207.534	19.981	1489.111	1135.836
208.548	19.915	1488.052	1134.500
209.563	19.764	1487.090	1132.674
210.577	19.978	1485.951	1133.109
211.592	19.939	1485.316	1132.268
212.607	19.944	1484.834	1131.831
213.621	20.214	1484.037	1132.890
214.636	20.267	1483.511	1132.734
215.650	20.331	1481.612	1131.603
216.665	20.190	1481.087	1130.178
217.680	20.229	1480.512	1129.898
218.694	20.403	1479.768	1130.359
219.709	20.565	1479.170	1130.856
220.723	20.509	1478.070	1129.552
221.738	20.407	1477.001	1127.977
222.753	20.418	1476.252	1127.372
223.767	20.303	1475.089	1125.640
224.782	20.348	1473.809	1124.854
225.796	20.443	1473.394	1125.053
226.811	20.545	1472.649	1125.047
227.826	20.697	1472.185	1125.572
228.840	20.483	1471.315	1123.427
229.855	20.395	1469.623	1121.467
230.869	20.289	1468.658	1119.945
231.884	20.240	1467.735	1118.831
232.899	20.217	1466.430	1117.586
233.913	20.127	1465.287	1116.037
234.928	20.118	1463.458	1114.488
235.942	20.015	1462.152	1112.730
236.957	20.054	1460.768	1111.834
237.972	19.959	1460.070	1110.589
238.986	19.906	1459.184	1109.479
240.001	19.977	1458.547	1109.354
241.015	19.951	1457.713	1108.452
242.030	20.042	1456.250	1107.826
243.045	20.125	1455.425	1107.627
244.059	20.282	1454.564	1107.879
245.074	20.242	1454.242	1107.281
246.088	20.257	1453.628	1106.813
247.103	20.297	1452.708	1106.266
248.117	20.499	1451.674	1106.669
249.132	20.602	1451.177	1106.850
250.147	20.783	1450.916	1107.704
251.161	21.030	1450.415	1108.792
252.176	21.226	1450.105	1109.701
253.190	21.205	1449.422	1108.948
254.205	21.238	1448.748	1108.545
255.220	21.376	1447.895	1108.668
256.234	21.428	1446.861	1108.109
257.249	21.415	1446.028	1107.292
258.263	21.337	1445.572	1106.346
259.278	21.300	1444.469	1105.173
260.293	21.176	1443.712	1103.709
261.307	21.361	1442.229	1103.648
262.322	21.394	1442.273	1103.791
263.336	21.311	1441.645	1102.688
264.351	21.549	1439.975	1102.815
265.366	21.528	1439.344	1102.100
266.380	21.535	1438.300	1101.250
267.395	21.535	1437.550	1100.578
268.409	21.464	1436.673	1099.362
269.424	21.412	1435.461	1098.014
270.439	21.256	1434.180	1095.956
271.453	21.207	1433.171	1094.778
272.468	21.193	1432.518	1094.098
273.482	21.152	1431.388	1092.879
274.497	20.987	1430.049	1090.730
275.512	20.962	1429.606	1090.140
276.526	20.980	1428.464	1089.285
277.541	21.038	1427.380	1088.723
278.555	21.095	1426.539	1088.340
279.570	21.044	1426.126	1087.614
280.585	21.253	1425.378	1088.247
281.599	21.455	1424.788	1088.959
282.614	21.623	1423.745	1089.108
283.628	21.380	1422.312	1086.405
284.643	21.085	1421.204	1083.634
285.657	21.153	1419.944	1083.002
286.672	21.133	1419.090	1082.130
287.687	21.163	1418.020	1081.402
288.701	21.213	1416.874	1080.742
289.716	21.172	1416.629	1080.204
290.730	21.212	1415.804	1079.727
291.745	21.311	1414.398	1079.173
292.760	21.250	1413.632	1078.115
293.774	21.281	1412.784	1077.562
294.789	21.271	1411.680	1076.563
295.803	21.513	1411.403	1077.752
296.818	21.604	1410.555	1077.565
297.833	21.371	1409.395	1075.152
298.847	21.310	1408.034	1073.646
299.862	21.209	1407.351	1072.406
300.876	21.241	1406.520	1071.878
301.891	21.266	1405.559	1071.205
302.906	21.309	1404.825	1070.812
303.920	21.434	1404.161	1070.974
304.935	21.651	1403.502	1071.709
305.949	21.747	1402.620	1071.526
306.964	21.906	1402.220	1072.099
307.979	21.851	1401.561	1071.163
308.993	21.821	1400.156	1069.809
310.008	21.650	1399.087	1067.856
311.022	21.598	1398.488	1066.985
312.037	21.925	1396.751	1067.558
313.052	21.814	1396.439	1066.552
314.066	21.670	1395.230	1064.656
315.081	21.577	1393.677	1062.816
316.095	21.329	1392.436	1060.267
317.110	21.110	1391.805	1058.366
318.125	21.198	1390.314	1057.673
319.139	21.254	1389.594	1057.371
320.154	21.156	1388.805	1056.080
321.168	21.260	1387.674	1055.760
322.183	21.235	1386.662	1054.741
323.197	21.285	1385.576	1054.124
324.212	21.351	1384.804	1053.841
325.227	21.415	1384.312	1053.762
326.241	21.523	1383.486	1053.688
327.256	21.453	1382.850	1052.693
328.270	21.358	1381.836	1051.254
329.285	21.418	1380.094	1050.199
330.300	21.438	1379.307	1049.627
331.314	21.379	1378.585	1048.627
332.329	21.382	1377.763	1047.927
333.343	21.341	1377.066	1047.057
334.358	21.388	1376.218	1046.602
335.373	21.555	1375.225	1046.754
336.387	21.664	1374.727	1046.935
337.402	21.716	1374.369	1046.880
338.416	21.674	1373.856	1046.145
339.431	21.865	1372.857	1046.430
340.446	21.851	1372.742	1046.166
341.460	21.968	1371.410	1045.759
342.475	22.110	1370.485	1045.807
343.489	22.242	1369.810	1045.980
344.504	22.245	1369.505	1045.675
345.519	22.298	1368.266	1044.951
346.533	22.462	1367.116	1044.954
347.548	22.380	1366.308	1043.758
348.562	22.533	1365.412	1043.887
349.577	22.508	1365.001	1043.332
350.592	22.322	1364.176	1041.509
351.606	22.112	1362.290	1038.734
352.621	21.932	1360.765	1036.418
353.635	21.821	1359.929	1035.032
354.650	21.767	1358.974	1033.896
355.665	21.653	1358.302	1032.626
356.679	21.759	1356.882	1032.076
357.694	21.861	1355.808	1031.767
358.708	21.961	1354.986	1031.638
359.723	22.018	1354.221	1031.302
360.738	22.130	1352.987	1030.926
361.752	22.086	1352.355	1030.098
362.767	22.055	1351.121	1028.884
363.781	22.035	1350.009	1027.828
364.796	22.191	1349.342	1028.139
365.810	22.197	1348.853	1027.714
366.825	22.354	1348.370	1028.169
367.840	22.550	1348.196	1029.093
368.854	22.620	1347.262	1028.697
369.869	22.741	1346.723	1028.901
370.883	22.744	1346.133	1028.374
371.898	22.705	1345.359	1027.468
372.913	22.521	1344.207	1025.424
373.927	22.364	1343.511	1023.888
374.942	22.449	1342.345	1023.406
375.956	22.476	1342.025	1023.228
376.971	22.591	1341.125	1023.120
377.986	22.571	1340.226	1022.228
379.000	22.522	1339.376	1021.200
380.015	22.702	1338.796	1021.714
381.029	22.883	1338.143	1022.170
382.044	22.960	1337.812	1022.274
383.059	22.946	1336.874	1021.385
384.073	22.865	1336.597	1020.614
385.088	22.860	1335.450	1019.623
386.102	22.801	1334.900	1018.769
387.117	22.904	1333.881	1018.494
388.132	22.695	1333.247	1016.715
389.146	22.549	1331.779	1014.666
390.161	22.431	1330.938	1013.259
391.175	22.292	1330.266	1011.856
392.190	22.380	1329.414	1011.625
393.205	22.542	1328.326	1011.635
394.219	22.648	1327.890	1011.826
395.234	22.862	1326.576	1011.960
396.248	22.692	1325.570	1010.131
397.263	22.522	1323.692	1007.636
398.278	22.419	1322.606	1006.133
399.292	22.540	1321.013	1005.520
400.307	22.399	1319.999	1003.858
401.321	22.245	1318.841	1002.010
402.336	22.191	1318.328	1001.222
403.350	22.206	1316.764	1000.033
404.365	22.267	1315.711	999.494
405.380	22.280	1315.205	999.095
406.394	22.404	1314.641	999.282
407.409	22.486	1313.760	998.988
408.423	22.660	1313.546	999.721
409.438	22.615	1313.548	999.379
410.453	22.882	1312.600	1000.083
411.467	23.020	1311.598	1000.010
412.482	23.038	1311.179	999.704
413.496	23.109	1310.453	999.463
414.511	23.179	1309.828	999.294
415.526	23.160	1309.347	998.730
416.540	23.305	1308.770	999.024
417.555	23.385	1307.880	998.705
418.569	23.457	1307.450	998.693
419.584	23.283	1307.104	997.362
420.599	23.281	1305.864	996.319
421.613	147.655	1435.949	1796.690
422.628	143.085	1454.855	1796.769
