DTS Sentinel unit serial number:	SN413079Multiplexer serial number:	ORYXHardware model number:	OX4-SRSoftware version number:	ORYX F/W v4.00 Oryx Data Collector v3.7.2.0data status	okinstallation	princeton_trtdifferential loss correction	single-endedforward channel	channel 4reverse channel	N/Adate	2019/09/16time	23:37:35forward acquisition time	60.00reverse acquisition time	0.00gamma	496.2192k internal	0.2314k external	0.2314temperature offset calibration	0.9977default loss term (dB/km)	0.3790temperature slope calibration	1.0000multiplexer offset coefficient	1.0000multiplexer slope coefficient	1.0000fibre end	0.00T internal ref (°C)	29.75T ext. ref 1 (°C)	0.09T ext. ref 2 (°C)	23.59length (m)	temperature (°C)	Stokes	anti-Stokes-747.200	56.188	0.236	-0.233
-746.185	-200.000	0.010	0.226
-745.171	23.130	0.127	-0.105
-744.156	107.562	-0.089	0.107
-743.142	800.000	-0.019	-0.065
-742.127	-21.110	0.143	-0.089
-741.112	-200.000	-0.002	0.179
-740.098	133.728	-0.240	0.315
-739.083	29.464	-0.119	0.102
-738.069	-112.863	-0.071	-0.014
-737.054	205.145	0.058	0.091
-736.039	800.000	0.046	-0.137
-735.025	4.633	0.303	0.226
-734.010	-200.000	0.012	0.175
-732.996	745.438	0.079	-0.216
-731.981	83.890	0.084	0.093
-730.966	-128.391	0.201	0.029
-729.952	294.757	-0.099	-0.183
-728.937	18.389	0.076	-0.061
-727.923	-108.546	0.222	0.048
-726.908	-200.000	-0.009	0.117
-725.894	-60.707	-0.078	0.034
-724.879	-93.842	-0.109	0.030
-723.864	-34.772	-0.113	0.062
-722.850	-85.656	-0.228	0.072
-721.835	567.008	-0.081	-0.199
-720.821	54.056	-0.165	0.161
-719.806	-200.000	0.088	-0.448
-718.791	-200.000	-0.021	-0.135
-717.777	-102.772	-0.244	-0.059
-716.762	-135.832	-0.165	-0.020
-715.748	800.000	0.091	-0.359
-714.733	-47.798	-0.564	-0.277
-713.718	-200.000	-0.021	-0.117
-712.704	337.340	0.040	-0.079
-711.689	-200.000	0.007	0.232
-710.675	-97.796	0.138	0.036
-709.660	-68.163	0.152	0.060
-708.645	-94.970	0.082	-0.023
-707.631	358.319	-0.063	0.127
-706.616	800.000	-0.104	0.452
-705.602	107.611	0.100	0.120
-704.587	-200.000	0.000	0.226
-703.572	800.000	0.013	0.052
-702.558	-200.000	-0.002	-0.176
-701.543	-75.476	0.214	-0.077
-700.529	-60.725	-0.148	-0.063
-699.514	-67.655	-0.136	0.054
-698.499	201.326	-0.170	-0.265
-697.485	51.338	-0.199	-0.191
-696.470	-107.484	0.280	-0.062
-695.456	-200.000	0.009	0.121
-694.441	-138.357	-0.374	-0.042
-693.426	15.483	0.090	-0.072
-692.412	237.536	0.162	0.272
-691.397	583.236	-0.044	-0.109
-690.383	-172.976	-0.350	0.011
-689.368	-41.360	-0.100	0.052
-688.354	25.785	0.079	-0.067
-687.339	203.586	0.207	0.325
-686.324	-70.081	0.225	0.087
-685.310	169.772	0.090	0.130
-684.295	26.787	-0.267	0.226
-683.281	621.012	0.122	0.312
-682.266	-113.302	0.046	-0.009
-681.251	-87.837	0.175	-0.053
-680.237	-51.089	-0.105	-0.050
-679.222	-150.048	-0.176	0.014
-678.208	22.107	-0.225	-0.186
-677.193	-200.000	0.027	-0.182
-676.178	-200.000	0.099	-0.508
-675.164	-5.541	0.202	-0.140
-674.149	-200.000	0.000	0.012
-673.135	256.475	-0.141	0.244
-672.120	443.540	0.021	-0.046
-671.105	-114.275	-0.258	-0.050
-670.091	-200.000	0.008	0.084
-669.076	-96.859	-0.091	0.024
-668.062	800.000	0.099	-0.284
-667.047	800.000	0.193	0.636
-666.032	190.202	0.165	0.251
-665.018	-121.393	0.297	0.050
-664.003	-200.000	0.001	0.019
-662.989	303.434	-0.142	0.266
-661.974	-4.338	0.143	0.100
-660.959	800.000	-0.126	-0.479
-659.945	-200.000	-0.005	-0.100
-658.930	57.087	0.254	-0.250
-657.916	-110.413	-0.030	0.006
-656.901	380.364	-0.099	0.206
-655.886	-22.216	0.094	0.057
-654.872	-91.816	-0.134	-0.038
-653.857	402.269	0.073	-0.154
-652.843	-200.000	-0.020	-0.124
-651.828	-81.482	-0.132	-0.044
-650.814	-200.000	-0.041	-0.475
-649.799	104.339	-0.141	-0.167
-648.784	388.541	-0.205	-0.429
-647.770	-64.029	-0.208	-0.086
-646.755	-45.088	0.198	-0.100
-645.741	-200.000	0.012	-0.347
-644.726	5.497	-0.332	-0.247
-643.711	-200.000	0.020	-0.574
-642.697	-88.507	-0.118	0.036
-641.682	-200.000	-0.036	0.344
-640.668	-200.000	-0.027	0.356
-639.653	-82.966	-0.227	-0.074
-638.638	101.041	0.086	-0.101
-637.624	-200.000	-0.019	-0.371
-636.609	-27.466	-0.060	-0.035
-635.595	-103.126	-0.088	-0.021
-634.580	306.285	0.233	-0.437
-633.565	-200.000	0.051	-0.473
-632.551	-158.925	-0.231	0.013
-631.536	432.156	0.082	-0.180
-630.522	-12.051	0.132	-0.087
-629.507	800.000	0.025	0.071
-628.492	215.990	-0.151	-0.242
-627.478	-73.148	-0.058	0.021
-626.463	474.365	0.161	-0.368
-625.449	794.296	-0.073	0.202
-624.434	466.477	-0.053	-0.121
-623.419	-27.852	-0.436	0.255
-622.405	325.182	-0.062	0.120
-621.390	-44.770	0.356	0.179
-620.376	-200.000	-0.022	-0.110
-619.361	-137.529	0.216	-0.025
-618.346	365.016	-0.146	-0.297
-617.332	-137.593	-0.150	0.017
-616.317	98.297	0.118	-0.137
-615.303	782.915	-0.088	0.244
-614.288	-64.944	0.082	0.033
-613.273	313.083	-0.072	-0.136
-612.259	114.736	0.083	0.102
-611.244	95.068	0.047	0.055
-610.230	-19.359	-0.135	-0.084
-609.215	-200.000	0.009	-0.238
-608.201	105.287	0.108	-0.129
-607.186	-104.118	0.212	0.050
-606.171	-200.000	0.025	0.254
-605.157	-5.899	-0.306	0.212
-604.142	-200.000	0.034	-0.254
-603.128	207.225	0.153	-0.241
-602.113	-146.535	-0.246	0.022
-601.098	-200.000	-0.017	0.109
-600.084	-38.805	-0.219	0.117
-599.069	684.535	-0.035	-0.092
-598.055	416.980	-0.028	-0.061
-597.040	-42.658	-0.253	-0.130
-596.025	-155.849	0.214	0.014
-595.011	-31.818	-0.215	-0.121
-593.996	-133.947	-0.289	0.036
-592.982	-6.738	0.060	0.041
-591.967	-9.256	0.299	0.201
-590.952	-102.500	0.261	0.063
-589.938	-38.094	0.223	0.119
-588.923	-200.000	0.001	0.262
-587.909	-200.000	-0.015	0.162
-586.894	-200.000	0.016	0.216
-585.879	-200.000	-0.012	-0.189
-584.865	1.510	-0.207	-0.150
-583.850	-41.348	-0.266	0.138
-582.836	-57.977	-0.337	-0.148
-581.821	753.321	-0.067	0.182
-580.806	-200.000	-0.025	-0.187
-579.792	-16.554	0.411	-0.263
-578.777	-7.954	0.119	0.081
-577.763	-91.056	-0.108	-0.031
-576.748	-200.000	0.006	0.327
-575.733	-43.954	-0.059	-0.030
-574.719	-154.067	0.149	0.010
-573.704	519.825	0.070	0.166
-572.690	162.615	-0.101	0.143
-571.675	376.731	-0.066	-0.135
-570.661	200.260	0.126	-0.196
-569.646	-200.000	0.052	0.301
-568.631	-55.800	-0.141	-0.064
-567.617	800.000	0.083	-0.277
-566.602	-200.000	-0.028	0.223
-565.588	-16.831	-0.160	-0.102
-564.573	79.447	-0.219	0.237
-563.558	57.440	0.202	0.199
-562.544	-200.000	-0.030	0.147
-561.529	-181.904	-0.028	0.001
-560.515	-52.471	-0.091	-0.043
-559.500	-98.940	-0.219	-0.056
-558.485	800.000	0.039	0.166
-557.471	294.617	0.119	0.219
-556.456	209.800	0.080	0.126
-555.442	-113.524	0.024	-0.005
-554.427	-36.316	0.085	-0.046
-553.412	317.092	-0.193	-0.367
-552.398	312.759	0.105	0.199
-551.383	-104.343	-0.247	-0.058
-550.369	-200.000	-0.014	-0.065
-549.354	-164.155	-0.133	0.006
-548.339	-199.247	-0.363	-0.002
-547.325	-200.000	-0.033	0.228
-546.310	84.112	-0.099	0.109
-545.296	530.955	-0.130	0.309
-544.281	-200.000	0.031	-0.213
-543.266	-73.967	0.107	-0.039
-542.252	217.787	-0.044	-0.070
-541.237	148.919	0.108	0.146
-540.223	-75.580	-0.257	0.092
-539.208	800.000	0.055	-0.206
-538.193	-68.012	0.170	-0.067
-537.179	95.115	-0.264	-0.302
-536.164	-200.000	-0.017	0.180
-535.150	800.000	0.061	0.247
-534.135	503.527	0.061	-0.142
-533.121	-163.604	0.089	0.004
-532.106	-200.000	-0.002	0.191
-531.091	404.622	-0.166	0.353
-530.077	117.145	-0.012	0.015
-529.062	-141.628	0.405	-0.041
-528.048	-200.000	0.003	0.275
-527.033	800.000	-0.047	0.204
-526.018	-94.978	0.214	0.058
-525.004	80.679	-0.034	0.036
-523.989	27.643	0.055	0.047
-522.975	-200.000	0.003	0.264
-521.960	33.765	-0.107	0.094
-520.945	-200.000	-0.039	-0.210
-519.931	800.000	-0.009	0.032
-518.916	195.756	-0.196	0.300
-517.902	-74.733	-0.085	0.031
-516.887	-200.000	-0.051	0.331
-515.872	800.000	0.044	0.156
-514.858	-200.000	-0.024	-0.174
-513.843	219.733	0.131	0.210
-512.829	-106.683	0.258	0.058
-511.814	-16.381	-0.162	-0.103
-510.799	-58.768	-0.054	0.024
-509.785	309.357	-0.201	0.378
-508.770	32.325	-0.137	-0.118
-507.756	-111.851	0.197	0.040
-506.741	-55.570	0.193	0.087
-505.726	-127.215	-0.170	-0.025
-504.712	-0.087	-0.206	0.147
-503.697	89.846	-0.134	0.151
-502.683	-15.503	-0.141	-0.090
-501.668	-200.000	0.019	-0.276
-500.653	-159.771	-0.280	0.016
-499.639	52.685	-0.057	-0.055
-498.624	18.709	-0.274	-0.220
-497.610	65.418	0.219	-0.222
-496.595	-132.379	-0.324	0.042
-495.581	-154.899	0.152	-0.010
-494.566	551.205	0.177	-0.428
-493.551	-105.645	-0.037	-0.008
-492.537	-59.195	0.350	0.151
-491.522	88.327	0.174	-0.194
-490.508	-200.000	-0.028	-0.192
-489.493	-42.619	-0.168	0.086
-488.478	102.490	-0.076	0.089
-487.464	-200.000	0.044	-0.257
-486.449	101.080	-0.079	0.093
-485.435	-76.822	0.266	0.094
-484.420	192.182	0.137	-0.207
-483.405	72.345	0.319	0.333
-482.391	224.992	-0.014	0.024
-481.376	-100.384	0.119	-0.030
-480.362	-91.265	0.054	-0.015
-479.347	-121.249	-0.222	-0.037
-478.332	5.539	0.326	0.241
-477.318	212.630	0.049	-0.078
-476.303	-27.469	0.116	0.067
-475.289	-66.131	-0.193	0.077
-474.274	800.000	-0.037	0.108
-473.259	551.724	-0.083	-0.200
-472.245	159.381	0.244	-0.340
-471.230	-186.876	-0.402	0.006
-470.216	21.273	0.150	-0.122
-469.201	-169.958	0.162	-0.006
-468.186	-31.449	0.071	-0.040
-467.172	-200.000	-0.033	-0.186
-466.157	-200.000	0.013	-0.457
-465.143	-200.000	0.003	0.022
-464.128	-68.990	-0.205	0.079
-463.113	-156.156	0.132	-0.008
-462.099	149.070	0.012	0.016
-461.084	-200.000	0.031	-0.310
-460.070	-166.711	0.374	0.016
-459.055	-142.883	-0.417	-0.041
-458.040	-35.903	-0.272	-0.148
-457.026	7.824	0.101	-0.076
-456.011	-200.000	0.054	-0.309
-454.997	-93.962	-0.207	0.057
-453.982	-107.640	0.175	0.038
-452.968	800.000	0.079	0.259
-451.953	-84.672	-0.426	0.134
-450.938	110.259	-0.163	0.196
-449.924	-200.000	-0.054	-0.261
-448.909	190.892	0.272	-0.411
-447.895	-73.659	-0.158	-0.058
-446.880	197.399	-0.118	-0.180
-445.865	-68.633	0.068	0.026
-444.851	-59.129	-0.099	-0.043
-443.836	471.347	-0.035	0.079
-442.822	800.000	0.064	0.275
-441.807	800.000	0.050	0.169
-440.792	124.119	-0.120	0.151
-439.778	534.633	0.074	0.175
-438.763	-58.739	-0.286	-0.124
-437.749	-200.000	0.041	-0.182
-436.734	8.749	-0.145	0.110
-435.719	-200.000	-0.024	0.166
-434.705	-200.000	0.030	-0.191
-433.690	-53.445	0.341	0.156
-432.676	25.672	-0.152	-0.127
-431.661	102.158	-0.097	-0.114
-430.646	-101.264	0.199	0.049
-429.632	44.408	-0.224	-0.206
-428.617	146.340	-0.096	-0.129
-427.603	44.111	-0.060	-0.055
-426.588	378.052	0.137	-0.281
-425.573	446.529	-0.043	0.094
-424.559	225.759	-0.126	-0.205
-423.544	800.000	-0.020	0.075
-422.530	15.373	0.112	0.088
-421.515	-154.465	-0.041	0.003
-420.500	83.206	-0.083	-0.091
-419.486	800.000	0.037	0.135
-418.471	800.000	0.065	0.197
-417.457	507.289	-0.177	-0.411
-416.442	60.038	-0.175	0.173
-415.428	701.550	0.045	0.119
-414.413	-200.000	0.021	0.250
-413.398	-47.167	0.142	0.069
-412.384	-97.974	0.174	-0.045
-411.369	189.579	-0.145	0.218
-410.355	-130.487	0.266	-0.036
-409.340	-155.290	0.332	0.022
-408.325	52.629	0.139	-0.133
-407.311	-15.611	-0.071	0.045
-406.296	-27.545	0.381	-0.222
-405.282	-51.216	-0.230	0.108
-404.267	-32.456	-0.325	-0.181
-403.252	147.027	0.023	-0.031
-402.238	800.000	0.088	0.310
-401.223	-200.000	0.007	0.437
-400.209	-103.514	0.242	0.057
-399.194	-50.644	0.432	-0.204
-398.179	-29.686	-0.062	0.035
-397.165	58.828	-0.237	0.233
-396.150	2.309	0.254	0.184
-395.136	-94.605	-0.038	-0.010
-394.121	481.291	-0.093	0.211
-393.106	-152.737	0.260	0.018
-392.092	11.900	-0.061	0.047
-391.077	-112.703	-0.172	-0.034
-390.063	-98.778	0.066	-0.017
-389.048	294.873	-0.058	-0.106
-388.033	-162.536	-0.457	-0.023
-387.019	800.000	0.044	-0.155
-386.004	-176.120	-0.123	0.003
-384.990	124.331	-0.100	0.125
-383.975	218.133	-0.102	0.163
-382.960	130.539	0.159	0.204
-381.946	205.789	0.151	0.235
-380.931	800.000	0.033	-0.103
-379.917	800.000	0.072	0.222
-378.902	-95.332	-0.379	0.102
-377.888	800.000	0.026	-0.109
-376.873	182.459	0.032	-0.047
-375.858	250.426	0.142	-0.242
-374.844	-200.000	0.019	-0.195
-373.829	800.000	0.088	-0.263
-372.815	-138.552	0.292	-0.032
-371.800	-33.026	0.056	-0.031
-370.785	800.000	-0.059	-0.205
-369.771	-128.858	0.224	-0.031
-368.756	-8.116	0.155	-0.104
-367.742	222.400	0.063	0.102
-366.727	-16.370	0.139	-0.088
-365.712	118.625	0.146	0.181
-364.698	800.000	-0.128	-0.383
-363.683	800.000	0.049	-0.208
-362.669	-176.620	-0.176	-0.005
-361.654	-35.525	0.286	0.155
-360.639	166.259	0.074	0.104
-359.625	-131.021	-0.309	0.041
-358.610	-53.194	-0.105	-0.048
-357.596	-200.000	-0.010	0.124
-356.581	-5.105	0.076	-0.052
-355.566	-158.597	-0.288	0.017
-354.552	148.249	0.167	-0.225
-353.537	20.034	0.325	-0.261
-352.523	800.000	-0.059	0.170
-351.508	800.000	-0.081	0.302
-350.493	800.000	0.031	-0.105
-349.479	-200.000	-0.045	-0.225
-348.464	-110.624	-0.201	-0.042
-347.450	-131.971	-0.164	0.021
-346.435	165.459	-0.086	-0.121
-345.420	800.000	-0.078	-0.312
-344.406	51.896	0.209	-0.198
-343.391	-200.000	0.010	0.053
-342.377	29.787	-0.184	0.156
-341.362	-150.439	-0.195	-0.015
-340.348	398.780	-0.065	-0.135
-339.333	14.780	-0.224	0.175
-338.318	-142.149	-0.388	-0.038
-337.304	-31.919	0.167	0.093
-336.289	800.000	-0.036	-0.132
-335.275	-200.000	-0.012	0.116
-334.260	48.489	0.122	0.114
-333.245	81.459	-0.127	-0.137
-332.231	312.676	0.100	0.188
-331.216	-172.137	-0.162	-0.005
-330.202	139.803	0.182	0.239
-329.187	-168.225	0.123	-0.005
-328.172	81.687	-0.171	0.185
-327.158	-73.154	-0.282	0.103
-326.143	214.376	-0.129	0.204
-325.129	746.378	-0.070	-0.189
-324.114	-200.000	-0.013	-0.082
-323.099	800.000	-0.031	-0.108
-322.085	-99.108	0.255	0.064
-321.070	-200.000	0.047	0.371
-320.056	-25.269	-0.140	0.083
-319.041	-74.489	0.480	-0.173
-318.026	201.252	-0.131	0.202
-317.012	-200.000	-0.024	-0.131
-315.997	21.345	-0.181	-0.146
-314.983	16.455	-0.069	0.054
-313.968	421.929	-0.005	0.010
-312.953	68.139	0.135	-0.137
-311.939	-80.455	-0.192	0.064
-310.924	114.363	0.057	-0.069
-309.910	526.644	-0.111	-0.261
-308.895	-67.121	0.375	0.147
-307.880	53.430	-0.184	0.176
-306.866	-200.000	-0.017	-0.131
-305.851	-200.000	0.007	0.226
-304.837	800.000	0.060	0.258
-303.822	198.786	0.112	0.171
-302.807	-2.211	-0.177	0.124
-301.793	-155.653	-0.222	0.014
-300.778	-200.000	-0.001	0.289
-299.764	124.462	-0.088	-0.110
-298.749	800.000	-0.031	0.124
-297.735	-2.067	0.114	0.080
-296.720	36.595	0.060	0.052
-295.705	-200.000	-0.008	-0.105
-294.691	-24.569	0.232	-0.137
-293.676	-117.688	0.190	-0.034
-292.662	-123.764	-0.306	-0.048
-291.647	-164.189	0.270	0.012
-290.632	-150.113	-0.154	-0.012
-289.618	-145.897	0.222	0.020
-288.603	62.579	0.111	0.111
-287.589	143.385	0.130	0.172
-286.574	270.737	0.095	0.167
-285.559	528.727	-0.062	0.146
-284.545	800.000	0.048	-0.196
-283.530	-38.975	0.069	-0.036
-282.516	-66.262	-0.504	0.200
-281.501	-200.000	-0.021	0.131
-280.486	800.000	-0.032	-0.123
-279.472	305.153	-0.083	-0.153
-278.457	-42.023	0.156	0.080
-277.443	-4.829	0.152	-0.104
-276.428	325.051	-0.167	0.318
-275.413	-27.574	-0.286	0.166
-274.399	-108.531	0.262	0.056
-273.384	-196.298	-0.208	0.001
-272.370	-92.677	0.353	-0.099
-271.355	0.619	0.174	0.124
-270.340	-135.131	-0.160	0.019
-269.326	27.428	-0.045	0.038
-268.311	-70.332	-0.235	-0.089
-267.297	22.884	-0.192	0.157
-266.282	-200.000	-0.019	0.113
-265.267	144.720	-0.124	0.165
-264.253	-190.200	-0.174	0.002
-263.238	-40.224	0.409	0.212
-262.224	-127.931	0.113	0.016
-261.209	-35.970	0.321	0.173
-260.195	54.680	0.210	-0.201
-259.180	-144.248	-0.079	0.007
-258.165	-158.087	-0.279	0.016
-257.151	231.833	-0.088	-0.143
-256.136	-200.000	0.015	-0.270
-255.122	100.717	0.211	-0.244
-254.107	-200.000	0.246	-0.000
-253.092	-200.000	-0.014	0.349
-252.078	207.910	-0.122	0.189
-251.063	448.354	-0.097	-0.213
-250.049	-125.863	0.197	-0.030
-249.034	-200.000	-0.001	-0.203
-248.019	-200.000	-0.003	-0.092
-247.005	612.734	0.031	-0.078
-245.990	-10.718	0.227	-0.149
-244.976	-200.000	0.034	-0.189
-243.961	29.178	0.144	-0.121
-242.946	1.969	-0.141	-0.101
-241.932	78.086	0.148	0.157
-240.917	-67.561	-0.240	-0.094
-239.903	-14.318	-0.362	-0.232
-238.888	-36.018	0.304	-0.164
-237.873	-82.219	-0.182	0.059
-236.859	800.000	0.117	-0.393
-235.844	511.811	-0.093	-0.216
-234.830	-42.956	0.141	-0.071
-233.815	49.079	0.088	-0.082
-232.800	80.341	-0.208	0.222
-231.786	31.500	0.357	0.305
-230.771	-46.348	-0.165	-0.081
-229.757	-41.077	0.148	0.076
-228.742	359.119	-0.065	-0.128
-227.727	420.827	0.124	-0.264
-226.713	-77.392	-0.379	-0.131
-225.698	-200.000	0.020	-0.200
-224.684	-118.831	0.112	0.020
-223.669	-200.000	0.006	0.038
-222.655	199.026	0.119	0.182
-221.640	-0.530	0.204	-0.144
-220.625	-131.578	0.602	-0.079
-219.611	347.491	-0.046	0.090
-218.596	-42.932	-0.177	-0.089
-217.582	800.000	-0.080	-0.244
-216.567	83.517	0.250	0.271
-215.552	82.267	0.133	0.144
-214.538	-96.190	-0.082	-0.022
-213.523	134.293	0.167	0.216
-212.509	17.065	0.097	0.077
-211.494	380.965	0.084	0.170
-210.479	15.375	-0.157	-0.122
-209.465	-83.959	-0.114	-0.036
-208.450	103.158	0.329	0.383
-207.436	800.000	0.107	0.434
-206.421	97.142	0.095	0.108
-205.406	59.437	-0.066	-0.064
-204.392	42.634	-0.216	0.195
-203.377	227.249	0.209	-0.337
-202.363	522.171	-0.047	-0.110
-201.348	-24.123	0.200	0.119
-200.333	-177.018	-0.317	-0.008
-199.319	-200.000	0.023	-0.291
-198.304	800.000	0.063	0.210
-197.290	-200.000	0.010	0.212
-196.275	-47.409	0.168	0.081
-195.260	3.496	-0.124	0.090
-194.246	141.270	-0.065	-0.085
-193.231	56.180	-0.027	-0.026
-192.217	245.609	-0.058	0.097
-191.202	-6.231	0.335	0.227
-190.187	800.000	-0.050	0.149
-189.173	800.000	0.153	-0.433
-188.158	-48.280	0.176	0.084
-187.144	516.501	-0.068	0.158
-186.129	324.706	-0.013	-0.024
-185.114	-141.992	0.149	-0.015
-184.100	-85.382	0.109	-0.034
-183.085	491.756	0.006	0.014
-182.071	47.217	0.120	-0.111
-181.056	-64.752	0.081	0.033
-180.042	81.774	0.369	0.396
-179.027	800.000	0.025	-0.076
-178.012	-85.890	-0.065	-0.020
-176.998	800.000	-0.053	0.192
-175.983	-200.000	0.013	-0.128
-174.969	-200.000	-0.029	-0.194
-173.954	34.326	0.115	0.100
-172.939	-26.148	0.253	0.147
-171.925	800.000	-0.076	0.251
-170.910	800.000	-0.063	-0.183
-169.896	10.537	0.023	0.018
-168.881	-91.166	0.315	-0.090
-167.866	-200.000	-0.033	-0.166
-166.852	433.685	-0.140	0.302
-165.837	-78.683	-0.210	0.071
-164.823	-163.069	-0.201	0.010
-163.808	-200.000	0.004	-0.207
-162.793	595.204	0.139	-0.342
-161.779	150.320	0.125	0.168
-160.764	214.302	0.274	-0.430
-159.750	407.179	0.186	0.390
-158.735	82.223	-0.151	0.163
-157.720	148.627	0.150	-0.201
-156.706	18.787	-0.238	-0.189
-155.691	-51.544	0.056	0.026
-154.677	83.317	-0.167	0.180
-153.662	-200.000	0.023	-0.228
-152.647	-153.504	-0.182	-0.012
-151.633	17.078	0.186	0.146
-150.618	-8.022	-0.132	0.088
-149.604	476.955	0.046	0.104
-148.589	-200.000	0.037	-0.340
-147.574	-118.535	-0.148	-0.026
-146.560	171.494	0.064	-0.091
-145.545	50.181	-0.163	0.152
-144.531	76.368	0.140	0.147
-143.516	-11.036	0.116	0.076
-142.502	-98.376	-0.136	-0.035
-141.487	-200.000	-0.010	0.204
-140.472	430.943	0.141	-0.302
-139.458	800.000	-0.020	-0.082
-138.443	-3.064	-0.355	0.245
-137.429	77.674	0.171	-0.181
-136.414	-162.450	-0.300	-0.015
-135.399	-97.707	-0.108	0.028
-134.385	-127.226	-0.134	0.019
-133.370	337.765	-0.111	0.213
-132.356	-115.055	-0.183	-0.034
-131.341	-200.000	-0.029	0.255
-130.326	304.218	-0.114	0.209
-129.312	632.723	-0.074	0.186
-128.297	-200.000	0.002	0.245
-127.283	56.727	-0.021	0.020
-126.268	-26.507	0.264	-0.153
-125.253	24.533	0.130	-0.106
-124.239	-14.181	-0.046	0.029
-123.224	-200.000	0.003	-0.091
-122.210	-38.962	-0.282	0.147
-121.195	-200.000	-0.038	-0.220
-120.180	6.780	-0.139	-0.103
-119.166	81.865	0.288	-0.309
-118.151	32.733	0.062	-0.053
-117.137	-85.513	-0.102	-0.031
-116.122	-36.048	-0.137	0.073
-115.107	800.000	-0.072	0.292
-114.093	123.882	0.202	0.251
-113.078	-200.000	0.016	0.082
-112.064	99.168	-0.194	-0.222
-111.049	-145.381	0.383	0.034
-110.034	-160.070	-0.369	-0.020
-109.020	-69.231	0.287	0.109
-108.005	800.000	0.068	-0.196
-106.991	-89.451	-0.195	-0.057
-105.976	-41.826	-0.160	-0.081
-104.962	-200.000	-0.000	-0.449
-103.947	260.242	0.098	-0.167
-102.932	-28.309	-0.164	-0.094
-101.918	800.000	0.109	-0.397
-100.903	-148.166	-0.055	-0.005
-99.889	97.379	-0.322	0.366
-98.874	-104.234	-0.178	-0.041
-97.859	675.596	0.057	-0.145
-96.845	439.003	-0.117	-0.253
-95.830	33.335	0.083	0.071
-94.816	-63.822	0.269	0.109
-93.801	-3.883	0.197	-0.135
-92.786	66.269	0.089	0.089
-91.772	-99.846	0.291	-0.072
-90.757	-200.000	0.011	-0.189
-89.743	-66.965	0.134	0.052
-88.728	800.000	0.022	0.066
-87.713	-102.891	-0.303	0.071
-86.699	800.000	0.013	-0.052
-85.684	-61.262	0.275	-0.114
-84.670	-189.599	0.281	0.003
-83.655	-149.892	0.046	0.004
-82.640	237.938	-0.083	-0.136
-81.626	-51.916	0.088	-0.040
-80.611	-94.365	0.081	-0.022
-79.597	59.887	-0.114	0.111
-78.582	222.110	-0.151	-0.240
-77.567	-127.790	0.340	0.048
-76.553	167.342	0.074	-0.104
-75.538	14.874	0.193	0.149
-74.524	-108.129	0.388	-0.083
-73.509	800.000	0.023	-0.080
-72.494	166.172	-0.141	0.197
-71.480	-131.232	0.095	-0.012
-70.465	-64.693	-0.153	-0.061
-69.451	18.543	0.229	0.181
-68.436	101.921	0.186	0.214
-67.422	329.749	-0.110	0.209
-66.407	153.791	-0.097	0.132
-65.392	-200.000	0.010	-0.063
-64.378	65.629	-0.142	0.142
-63.363	322.731	-0.114	-0.214
-62.349	-79.147	0.104	-0.035
-61.334	63.193	-0.906	-0.897
-60.319	128.505	0.557	0.700
-59.305	800.000	-0.191	-0.740
-58.290	232.469	0.770	1.248
-57.276	800.000	0.543	1.625
-56.261	-200.000	108.439	599.858
-55.246	449.141	1478.745	3217.170
-54.232	144.863	2665.995	3517.538
-53.217	96.987	2316.221	2620.946
-52.203	36.033	2068.114	1796.597
-51.188	31.499	1984.937	1683.576
-50.173	30.017	1968.335	1656.192
-49.159	46.098	2024.383	1849.666
-48.144	46.612	2041.430	1869.830
-47.130	32.081	2000.325	1701.641
-46.115	29.789	1989.106	1671.339
-45.100	29.697	1986.338	1668.119
-44.086	29.616	1984.352	1665.651
-43.071	29.614	1981.435	1663.126
-42.057	29.527	1979.916	1661.000
-41.042	29.601	1977.843	1659.855
-40.027	29.614	1975.547	1657.981
-39.013	29.671	1973.936	1657.079
-37.998	29.629	1971.888	1654.911
-36.984	29.621	1970.094	1653.276
-35.969	29.707	1968.498	1652.638
-34.954	29.737	1966.764	1651.378
-33.940	29.741	1964.998	1649.867
-32.925	29.716	1963.615	1648.419
-31.911	29.741	1961.827	1647.078
-30.896	29.793	1959.588	1645.592
-29.881	29.802	1958.258	1644.488
-28.867	29.817	1957.018	1643.514
-27.852	29.805	1955.231	1641.848
-26.838	29.842	1953.287	1640.479
-25.823	29.770	1952.041	1638.730
-24.809	29.846	1949.478	1637.185
-23.794	29.762	1947.897	1635.046
-22.779	29.780	1945.780	1633.361
-21.765	29.844	1944.307	1632.626
-20.750	29.751	1943.283	1630.882
-19.736	29.741	1941.289	1629.058
-18.721	29.786	1939.513	1627.897
-17.706	29.716	1938.454	1626.332
-16.692	29.845	1935.866	1625.226
-15.677	29.739	1935.160	1623.639
-14.663	29.721	1933.500	1622.026
-13.648	29.708	1932.611	1621.096
-12.633	29.784	1930.985	1620.339
-11.619	29.823	1929.475	1619.348
-10.604	29.796	1928.354	1618.101
-9.590	29.734	1927.510	1616.794
-8.575	29.708	1925.368	1614.701
-7.560	29.749	1924.436	1614.215
-6.546	29.777	1923.133	1613.299
-5.531	29.744	1921.803	1611.836
-4.517	29.824	1920.051	1610.998
-3.502	29.814	1919.226	1610.155
-2.487	29.787	1918.058	1608.877
-1.473	29.769	1917.202	1607.937
-0.458	29.817	1912.050	1603.971
0.556	27.698	1891.866	1574.867
1.571	23.377	1872.612	1521.681
2.586	19.423	1894.710	1505.079
3.600	18.519	1929.694	1524.698
4.615	18.339	1924.790	1519.085
5.629	14.259	1824.419	1405.372
6.644	5.652	1705.111	1245.183
7.659	0.570	1667.175	1177.801
8.673	0.164	1663.810	1172.159
9.688	0.173	1662.079	1170.901
10.702	0.084	1660.975	1169.334
11.717	-0.071	1657.624	1165.665
12.731	0.573	1656.949	1170.079
13.746	6.895	1670.481	1228.808
14.761	15.103	1687.006	1305.062
15.775	17.645	1690.134	1327.188
16.790	16.918	1687.380	1319.259
17.804	15.961	1683.750	1308.869
18.819	14.908	1680.269	1297.880
19.834	14.309	1678.434	1291.701
20.848	13.997	1676.683	1287.824
21.863	13.828	1675.092	1285.177
22.877	13.512	1673.524	1281.421
23.892	13.292	1672.028	1278.460
24.907	13.170	1671.342	1276.877
25.921	13.260	1669.903	1276.360
26.936	13.158	1668.635	1274.487
27.950	13.192	1668.497	1274.536
28.965	13.290	1667.673	1274.550
29.980	13.263	1666.939	1273.664
30.994	13.385	1666.045	1273.812
32.009	13.363	1664.871	1272.626
33.023	13.449	1664.267	1272.715
34.038	13.463	1663.215	1271.903
35.053	13.422	1662.024	1270.568
36.067	13.495	1660.630	1269.949
37.082	13.374	1659.996	1268.429
38.096	13.342	1658.952	1267.271
39.111	13.442	1658.176	1267.330
40.126	13.466	1657.838	1267.146
41.140	13.375	1656.867	1265.596
42.155	13.335	1654.899	1263.676
43.169	13.215	1653.734	1261.757
44.184	13.156	1652.467	1260.225
45.199	13.224	1650.917	1259.453
46.213	13.120	1650.835	1258.485
47.228	13.195	1649.223	1257.714
48.242	13.263	1647.657	1256.929
49.257	13.273	1646.551	1256.052
50.271	13.260	1645.326	1254.909
51.286	13.322	1644.236	1254.434
52.301	13.282	1642.216	1252.479
53.315	13.348	1640.963	1251.913
54.330	13.315	1639.603	1250.511
55.344	13.229	1638.302	1248.761
56.359	13.178	1637.072	1247.331
57.374	13.237	1635.421	1246.404
58.388	13.255	1634.229	1245.522
59.403	13.226	1633.290	1244.473
60.417	13.071	1631.933	1242.169
61.432	13.212	1630.435	1241.980
62.447	13.155	1629.448	1240.684
63.461	13.170	1628.219	1239.755
64.476	13.157	1627.224	1238.787
65.490	13.171	1625.907	1237.781
66.505	13.171	1624.565	1236.653
67.520	13.137	1623.692	1235.623
68.534	13.182	1622.732	1235.115
69.549	13.122	1622.034	1234.033
70.563	13.205	1620.424	1233.317
71.578	13.107	1619.187	1231.532
72.593	13.121	1618.036	1230.656
73.607	13.058	1616.950	1229.248
74.622	13.107	1615.892	1228.698
75.636	13.074	1615.077	1227.728
76.651	13.074	1614.192	1226.945
77.666	13.041	1613.545	1226.102
78.680	13.085	1612.631	1225.627
79.695	13.099	1611.063	1224.426
80.709	13.117	1610.124	1223.742
81.724	13.147	1609.705	1223.535
82.739	13.150	1608.645	1222.639
83.753	13.149	1607.742	1221.840
84.768	13.284	1606.391	1221.706
85.782	13.227	1605.644	1220.609
86.797	13.407	1604.662	1221.080
87.812	13.279	1603.803	1219.374
88.826	13.277	1603.022	1218.654
89.841	13.317	1601.230	1217.485
90.855	13.183	1600.300	1215.681
91.870	13.360	1599.019	1215.903
92.884	13.396	1598.356	1215.552
93.899	13.378	1597.202	1214.438
94.914	13.360	1595.960	1213.253
95.928	13.356	1595.424	1212.707
96.943	13.372	1594.450	1211.981
97.957	13.387	1592.673	1210.632
98.972	13.374	1590.736	1208.956
99.987	13.362	1589.515	1207.833
101.001	13.352	1588.002	1206.506
102.016	13.393	1586.531	1205.579
103.030	13.440	1584.622	1204.363
104.045	13.339	1584.188	1203.193
105.060	13.422	1582.286	1202.245
106.074	13.252	1581.376	1200.210
107.089	13.248	1579.457	1198.620
108.103	13.201	1578.015	1197.076
109.118	13.171	1576.776	1195.817
110.133	13.126	1575.152	1194.155
111.147	13.118	1574.016	1193.126
112.162	13.188	1572.567	1192.428
113.176	13.181	1571.285	1191.301
114.191	13.229	1570.048	1190.603
115.206	13.185	1568.865	1189.289
116.220	13.283	1567.700	1189.006
117.235	13.187	1566.423	1187.239
118.249	13.202	1565.153	1186.281
119.264	13.198	1563.609	1184.972
120.279	13.249	1562.400	1184.317
121.293	13.188	1560.595	1182.414
122.308	13.134	1559.608	1181.175
123.322	13.175	1558.165	1180.267
124.337	13.175	1556.237	1178.703
125.352	13.134	1554.978	1177.353
126.366	13.121	1554.489	1176.788
127.381	13.182	1552.672	1175.738
128.395	13.170	1551.654	1174.781
129.410	13.160	1550.205	1173.509
130.424	13.179	1548.919	1172.567
131.439	13.109	1547.877	1171.174
132.454	13.258	1546.354	1170.973
133.468	13.383	1544.592	1170.421
134.483	13.261	1543.398	1168.550
135.497	13.279	1542.633	1167.994
136.512	13.151	1541.509	1166.137
137.527	13.264	1539.699	1165.459
138.541	13.241	1538.324	1164.158
139.556	13.233	1537.221	1163.163
140.570	13.329	1535.494	1162.426
141.585	13.370	1533.960	1161.452
142.600	13.298	1533.318	1160.357
143.614	13.355	1532.246	1159.844
144.629	13.436	1530.909	1159.294
145.643	13.535	1529.114	1158.527
146.658	13.522	1527.694	1157.258
147.673	13.547	1526.438	1156.380
148.687	13.583	1524.736	1155.236
149.702	13.472	1523.275	1153.256
150.716	13.426	1521.813	1151.723
151.731	13.396	1520.429	1150.369
152.746	13.387	1518.786	1148.961
153.760	13.408	1518.330	1148.657
154.775	13.475	1516.853	1147.908
155.789	13.518	1515.277	1146.907
156.804	13.558	1513.998	1146.116
157.819	13.492	1512.870	1144.707
158.833	13.548	1511.598	1144.025
159.848	13.663	1510.274	1143.718
160.862	13.736	1508.786	1142.991
161.877	13.587	1507.990	1141.264
162.892	13.617	1507.294	1140.843
163.906	13.521	1505.829	1138.972
164.921	13.455	1504.405	1137.341
165.935	13.505	1503.383	1136.808
166.950	13.572	1501.892	1136.043
167.964	13.595	1500.731	1135.222
168.979	13.577	1500.160	1134.562
169.994	13.638	1499.176	1134.137
171.008	13.546	1498.441	1132.854
172.023	13.606	1496.928	1132.019
173.037	13.577	1496.419	1131.332
174.052	13.636	1494.897	1130.488
175.067	13.648	1494.300	1130.016
176.081	13.619	1493.072	1128.789
177.096	13.608	1491.573	1127.483
178.110	13.575	1489.997	1125.970
179.125	13.657	1489.167	1125.797
180.140	13.670	1487.985	1124.890
181.154	13.679	1487.011	1124.119
182.169	13.633	1486.050	1122.977
183.183	13.659	1484.824	1122.130
184.198	13.772	1483.622	1121.887
185.213	13.768	1482.844	1121.169
186.227	13.862	1481.731	1120.866
187.242	13.801	1480.518	1119.436
188.256	13.898	1479.538	1119.254
189.271	13.942	1478.293	1118.505
190.286	13.894	1477.430	1117.431
191.300	13.899	1476.163	1116.409
192.315	13.766	1474.982	1114.523
193.329	13.754	1473.609	1113.303
194.344	13.692	1472.628	1112.051
195.359	13.664	1471.222	1110.705
196.373	13.790	1470.301	1110.752
197.388	13.821	1469.421	1110.198
198.402	13.879	1468.338	1109.669
199.417	13.936	1467.328	1109.187
200.432	13.932	1466.495	1108.432
201.446	14.079	1464.959	1108.156
202.461	14.105	1464.205	1107.662
203.475	14.106	1462.645	1106.386
204.490	14.190	1461.715	1106.146
205.504	14.097	1460.853	1104.773
206.519	14.079	1459.467	1103.514
207.534	14.105	1458.619	1102.944
208.548	14.106	1457.280	1101.838
209.563	13.965	1456.724	1100.392
210.577	14.092	1455.756	1100.403
211.592	14.064	1454.644	1099.276
212.607	14.049	1453.906	1098.522
213.621	14.189	1453.446	1099.002
214.636	14.271	1452.360	1098.625
215.650	14.264	1451.559	1097.876
216.665	14.212	1450.507	1096.643
217.680	14.262	1449.417	1096.051
218.694	14.227	1449.149	1095.518
219.709	14.265	1448.459	1095.151
220.723	14.296	1447.426	1094.478
221.738	14.327	1446.220	1093.670
222.753	14.334	1445.337	1092.951
223.767	14.197	1445.012	1091.714
224.782	14.322	1443.580	1091.356
225.796	14.310	1442.682	1090.499
226.811	14.423	1441.633	1090.347
227.826	14.385	1441.248	1089.714
228.840	14.388	1440.438	1089.021
229.855	14.336	1439.474	1087.857
230.869	14.436	1438.082	1087.365
231.884	14.445	1436.687	1086.272
232.899	14.441	1435.691	1085.394
233.913	14.308	1434.832	1083.787
234.928	14.383	1433.064	1082.839
235.942	14.305	1432.766	1082.013
236.957	14.275	1431.413	1080.699
237.972	14.231	1430.523	1079.650
238.986	14.369	1428.756	1079.111
240.001	14.400	1427.861	1078.539
241.015	14.435	1427.224	1078.193
242.030	14.380	1426.254	1077.006
243.045	14.391	1425.243	1076.220
244.059	14.570	1423.568	1076.014
245.074	14.540	1423.279	1075.504
246.088	14.586	1422.607	1075.201
247.103	14.580	1421.993	1074.601
248.117	14.583	1420.840	1073.657
249.132	14.690	1419.961	1073.585
250.147	14.633	1419.795	1072.998
251.161	14.783	1418.857	1073.159
252.176	14.884	1418.084	1073.127
253.190	14.860	1417.321	1072.303
254.205	14.876	1416.674	1071.819
255.220	14.933	1415.568	1071.250
256.234	14.849	1415.336	1070.442
257.249	15.002	1413.912	1070.251
258.263	14.876	1413.436	1068.989
259.278	14.887	1412.470	1068.236
260.293	14.961	1411.210	1067.658
261.307	14.962	1410.599	1067.110
262.322	15.021	1410.292	1067.162
263.336	15.069	1409.037	1066.421
264.351	14.953	1408.175	1064.934
265.366	15.067	1407.096	1064.750
266.380	15.201	1405.824	1064.547
267.395	15.044	1405.144	1062.942
268.409	15.023	1404.681	1062.359
269.424	15.093	1403.486	1061.806
270.439	15.178	1402.083	1061.193
271.453	15.043	1401.363	1059.697
272.468	15.036	1400.746	1059.093
273.482	15.135	1399.441	1058.637
274.497	15.097	1398.858	1057.864
275.512	15.120	1397.983	1057.255
276.526	15.078	1397.156	1056.269
277.541	15.153	1396.052	1055.816
278.555	15.071	1395.801	1055.014
279.570	15.193	1394.424	1054.647
280.585	15.210	1393.845	1054.223
281.599	15.321	1392.867	1054.091
282.614	15.254	1392.064	1052.967
283.628	15.271	1390.759	1051.991
284.643	15.263	1389.916	1051.214
285.657	15.187	1388.876	1049.855
286.672	15.244	1387.771	1049.286
287.687	15.302	1386.969	1048.947
288.701	15.210	1385.990	1047.541
289.716	15.403	1385.117	1047.994
290.730	15.315	1384.315	1046.747
291.745	15.335	1383.292	1046.005
292.760	15.324	1382.628	1045.338
293.774	15.455	1381.257	1045.025
294.789	15.382	1380.419	1043.847
295.803	15.446	1379.800	1043.686
296.818	15.505	1378.734	1043.151
297.833	15.351	1378.226	1041.717
298.847	15.500	1377.071	1041.679
299.862	15.551	1375.596	1040.785
300.876	15.401	1375.227	1039.486
301.891	15.457	1374.477	1039.170
302.906	15.504	1373.589	1038.698
303.920	15.567	1372.869	1038.451
304.935	15.488	1372.173	1037.347
305.949	15.522	1371.322	1036.819
306.964	15.619	1370.789	1036.925
307.979	15.761	1369.710	1036.892
308.993	15.681	1368.496	1035.392
310.008	15.719	1367.375	1034.684
311.022	15.666	1366.681	1033.743
312.037	15.739	1365.320	1033.068
313.052	15.768	1364.626	1032.627
314.066	15.732	1363.769	1031.667
315.081	15.731	1362.547	1030.650
316.095	15.676	1361.535	1029.452
317.110	15.555	1360.857	1028.108
318.125	15.606	1360.326	1027.932
319.139	15.679	1359.208	1027.438
320.154	15.748	1358.142	1026.963
321.168	15.743	1356.802	1025.831
322.183	15.700	1356.289	1025.092
323.197	15.760	1354.975	1024.370
324.212	15.712	1354.602	1023.707
325.227	15.778	1353.627	1023.279
326.241	15.711	1352.553	1021.969
327.256	15.789	1351.872	1021.840
328.270	15.822	1350.924	1021.232
329.285	15.810	1350.021	1020.385
330.300	15.822	1349.076	1019.652
331.314	15.890	1348.059	1019.208
332.329	15.824	1347.502	1018.295
333.343	15.838	1346.518	1017.548
334.358	15.693	1345.780	1016.023
335.373	15.831	1345.040	1016.208
336.387	15.903	1344.179	1015.902
337.402	15.923	1343.221	1015.210
338.416	15.979	1342.700	1015.066
339.431	16.021	1342.157	1014.817
340.446	15.972	1341.577	1013.994
341.460	16.111	1340.088	1013.614
342.475	16.118	1339.152	1012.859
343.489	16.177	1338.424	1012.573
344.504	16.136	1337.422	1011.476
345.519	16.162	1336.672	1010.979
346.533	16.166	1335.777	1010.232
347.548	16.190	1334.852	1009.589
348.562	16.301	1334.345	1009.783
349.577	16.239	1333.177	1008.436
350.592	16.264	1332.627	1008.081
351.606	16.238	1331.613	1007.070
352.621	16.220	1330.396	1005.951
353.635	16.155	1329.488	1004.793
354.650	16.164	1328.650	1004.120
355.665	16.117	1327.524	1002.900
356.679	16.203	1326.150	1002.285
357.694	16.265	1325.191	1001.842
358.708	16.061	1324.914	1000.331
359.723	16.227	1323.451	1000.120
360.738	16.340	1322.406	999.915
361.752	16.329	1321.143	998.804
362.767	16.390	1320.419	998.533
363.781	16.356	1319.427	997.491
364.796	16.365	1318.676	996.886
365.810	16.364	1318.285	996.496
366.825	16.480	1316.880	996.031
367.840	16.536	1316.411	995.919
368.854	16.486	1315.792	995.070
369.869	16.528	1315.553	995.047
370.883	16.570	1314.348	994.291
371.898	16.470	1314.395	993.651
372.913	16.573	1313.163	993.241
373.927	16.446	1312.482	991.890
374.942	16.664	1311.035	991.989
375.956	16.599	1310.695	991.259
376.971	16.598	1309.846	990.522
377.986	16.618	1308.903	989.842
379.000	16.678	1308.216	989.582
380.015	16.610	1307.587	988.625
381.029	16.721	1306.557	988.406
382.044	16.822	1305.792	988.327
383.059	16.788	1305.202	987.599
384.073	16.754	1304.687	986.924
385.088	16.804	1304.042	986.638
386.102	16.772	1303.389	985.871
387.117	16.916	1302.452	985.914
388.132	16.804	1302.103	984.909
389.146	16.833	1300.389	983.691
390.161	16.793	1299.961	983.048
391.175	16.791	1299.242	982.410
392.190	16.809	1298.059	981.529
393.205	16.814	1297.252	980.862
394.219	16.875	1296.519	980.575
395.234	17.009	1295.061	980.158
396.248	16.913	1293.977	978.698
397.263	16.908	1292.852	977.732
398.278	16.877	1291.514	976.454
399.292	16.913	1290.103	975.507
400.307	16.874	1289.183	974.500
401.321	16.850	1288.261	973.582
402.336	16.847	1287.649	973.016
403.350	16.880	1286.559	972.294
404.365	16.855	1285.883	971.556
405.380	16.908	1284.983	971.095
406.394	17.004	1283.990	970.808
407.409	16.965	1283.165	969.872
408.423	16.960	1282.742	969.441
409.438	16.975	1281.921	968.820
410.453	17.057	1280.975	968.483
411.467	17.232	1280.353	968.929
412.482	17.165	1280.002	968.196
413.496	17.190	1278.813	967.349
414.511	17.241	1278.539	967.351
415.526	17.278	1277.548	966.726
416.540	17.230	1276.927	965.896
417.555	17.302	1276.067	965.568
418.569	17.304	1276.011	965.450
419.584	17.375	1275.305	965.234
420.599	17.338	1274.858	964.602
421.613	95.242	1353.539	1469.611
422.628	92.999	1364.978	1469.724
