DTS Sentinel unit serial number:	SN413079Multiplexer serial number:	ORYXHardware model number:	OX4-SRSoftware version number:	ORYX F/W v4.00 Oryx Data Collector v3.7.2.0data status	okinstallation	princeton_trtdifferential loss correction	single-endedforward channel	channel 4reverse channel	N/Adate	2019/09/14time	22:57:35forward acquisition time	60.00reverse acquisition time	0.00gamma	496.2192k internal	0.2306k external	0.2306temperature offset calibration	1.0059default loss term (dB/km)	0.3790temperature slope calibration	1.0000multiplexer offset coefficient	1.0000multiplexer slope coefficient	1.0000fibre end	0.00T internal ref (°C)	32.44T ext. ref 1 (°C)	4.68T ext. ref 2 (°C)	27.48length (m)	temperature (°C)	Stokes	anti-Stokes-747.200	190.952	-0.031	-0.048
-746.185	-90.950	-0.211	0.062
-745.171	171.985	-0.042	-0.061
-744.156	48.888	0.273	0.261
-743.142	-200.000	0.055	0.452
-742.127	800.000	0.054	0.193
-741.112	101.319	0.057	0.068
-740.098	-155.865	-0.512	0.033
-739.083	-66.479	0.437	0.177
-738.069	117.010	-0.026	0.032
-737.054	586.522	-0.084	0.209
-736.039	651.814	0.035	-0.092
-735.025	-200.000	0.023	0.303
-734.010	-97.930	-0.105	0.028
-732.996	800.000	-0.073	-0.228
-731.981	-200.000	-0.016	-0.229
-730.966	2.379	0.051	0.038
-729.952	-200.000	-0.007	0.170
-728.937	79.156	-0.141	0.153
-727.923	-65.960	-0.202	-0.082
-726.908	-200.000	-0.072	-0.000
-725.894	-200.000	0.031	-0.330
-724.879	-101.235	-0.211	-0.052
-723.864	-77.009	-0.153	0.054
-722.850	150.108	-0.028	0.039
-721.835	-200.000	-0.001	0.132
-720.821	-75.173	-0.362	0.131
-719.806	-200.000	-0.031	-0.296
-718.791	687.043	-0.049	0.129
-717.777	31.444	0.203	0.177
-716.762	32.994	0.147	0.130
-715.748	-36.019	0.085	0.047
-714.733	-54.691	0.147	0.068
-713.718	-200.000	-0.015	0.072
-712.704	800.000	-0.070	0.249
-711.689	-8.524	-0.249	-0.170
-710.675	-45.606	-0.344	-0.173
-709.660	800.000	0.084	-0.235
-708.645	-110.791	-0.026	0.005
-707.631	-155.246	-0.391	-0.026
-706.616	-123.751	-0.297	0.048
-705.602	-200.000	-0.058	-0.336
-704.587	88.614	0.168	-0.190
-703.572	126.400	0.047	0.060
-702.558	800.000	-0.072	-0.204
-701.543	85.389	0.137	-0.153
-700.529	-106.944	-0.182	-0.041
-699.514	53.819	0.161	-0.157
-698.499	12.944	0.110	-0.087
-697.485	-200.000	0.031	0.178
-696.470	-66.239	-0.269	0.109
-695.456	-126.962	-0.260	0.039
-694.441	-0.510	0.222	0.160
-693.426	-168.447	-0.287	-0.011
-692.412	800.000	0.083	-0.318
-691.397	-111.239	-0.154	-0.032
-690.383	-200.000	-0.002	-0.045
-689.368	800.000	-0.063	-0.199
-688.354	-132.826	-0.330	-0.043
-687.339	-158.782	-0.052	-0.003
-686.324	-200.000	0.000	0.309
-685.310	-42.149	-0.207	0.107
-684.295	220.704	-0.055	-0.090
-683.281	165.894	-0.038	-0.055
-682.266	-200.000	0.012	-0.306
-681.251	737.131	0.163	-0.443
-680.237	-107.400	-0.361	0.080
-679.222	-109.465	-0.168	0.036
-678.208	-8.079	0.146	0.100
-677.193	-29.061	-0.236	0.138
-676.178	800.000	-0.096	0.419
-675.164	68.231	0.124	0.129
-674.149	-48.084	0.213	-0.104
-673.135	-32.628	-0.311	0.176
-672.120	-200.000	-0.016	-0.330
-671.105	-200.000	0.008	-0.094
-670.091	-200.000	0.015	0.203
-669.076	-200.000	0.013	0.107
-668.062	-146.427	0.246	-0.022
-667.047	48.055	0.224	0.212
-666.032	-200.000	-0.010	-0.065
-665.018	-184.226	-0.227	0.004
-664.003	-38.484	0.234	0.125
-662.989	97.335	0.069	-0.080
-661.974	-109.816	0.272	-0.058
-660.959	-93.958	-0.166	-0.046
-659.945	-157.588	0.181	0.011
-658.930	82.770	-0.145	0.159
-657.916	134.680	0.063	-0.083
-656.901	-146.690	0.211	0.018
-655.886	-89.756	-0.236	0.070
-654.872	-200.000	-0.002	-0.039
-653.857	-200.000	0.007	0.206
-652.843	56.035	0.225	-0.221
-651.828	-170.224	-0.124	-0.004
-650.814	62.311	0.144	-0.145
-649.799	266.358	-0.064	0.113
-648.784	-2.828	-0.169	0.120
-647.770	257.374	0.044	-0.076
-646.755	406.963	0.200	0.428
-645.741	295.977	-0.063	0.117
-644.726	66.823	-0.127	-0.131
-643.711	-200.000	-0.006	-0.243
-642.697	-57.650	0.198	0.088
-641.682	-94.190	-0.139	-0.039
-640.668	-70.029	-0.199	0.077
-639.653	60.227	-0.054	0.054
-638.638	-5.398	-0.035	0.024
-637.624	-43.529	0.120	0.061
-636.609	-148.190	0.310	0.026
-635.595	-90.259	-0.386	-0.114
-634.580	705.845	0.066	-0.176
-633.565	-200.000	-0.003	-0.180
-632.551	143.633	0.219	0.296
-631.536	233.950	0.121	0.202
-630.522	-72.966	-0.605	-0.225
-629.507	188.547	-0.167	-0.252
-628.492	492.304	0.093	-0.215
-627.478	328.047	0.121	-0.234
-626.463	29.124	-0.373	-0.321
-625.449	-84.438	-0.174	0.056
-624.434	-153.309	0.246	-0.017
-623.419	-190.414	-0.066	-0.001
-622.405	-200.000	-0.002	-0.302
-621.390	180.815	0.048	-0.071
-620.376	61.398	0.131	0.132
-619.361	-102.114	0.091	0.022
-618.346	-15.111	-0.229	-0.148
-617.332	-5.474	-0.353	-0.245
-616.317	402.140	0.008	0.018
-615.303	-25.305	-0.165	0.099
-614.288	-109.738	-0.114	-0.024
-613.273	-200.000	-0.059	-0.326
-612.259	92.740	-0.228	0.261
-611.244	20.366	0.372	-0.304
-610.230	-12.401	-0.224	0.148
-609.215	-103.188	-0.207	0.050
-608.201	-162.502	0.271	-0.014
-607.186	800.000	-0.031	0.139
-606.171	-200.000	0.011	-0.227
-605.157	179.340	-0.187	-0.277
-604.142	296.485	-0.040	0.074
-603.128	668.932	-0.130	0.340
-602.113	270.896	-0.106	-0.188
-601.098	-136.057	-0.290	-0.034
-600.084	-48.014	0.229	0.112
-599.069	-11.324	-0.137	0.091
-598.055	-34.879	-0.252	0.139
-597.040	-133.384	-0.219	-0.028
-596.025	107.473	-0.179	0.215
-595.011	118.189	0.129	-0.161
-593.996	131.265	0.236	-0.306
-592.982	-141.813	-0.265	0.027
-591.967	36.028	0.137	-0.122
-590.952	175.515	0.201	-0.294
-589.938	505.665	0.132	0.310
-588.923	-102.148	-0.262	0.064
-587.909	-200.000	0.151	0.000
-586.894	-103.918	0.208	-0.049
-585.879	417.442	0.100	0.217
-584.865	-200.000	0.014	0.143
-583.850	-83.565	0.108	0.035
-582.836	328.332	-0.073	-0.141
-581.821	-67.480	-0.205	0.081
-580.806	-200.000	-0.080	-0.570
-579.792	-200.000	0.005	-0.153
-578.777	-200.000	0.067	0.378
-577.763	178.681	0.150	-0.222
-576.748	-60.262	0.093	0.040
-575.733	-200.000	-0.079	0.401
-574.719	148.856	0.104	0.142
-573.704	-102.260	0.333	0.081
-572.690	147.104	-0.207	0.281
-571.675	-19.150	-0.294	0.184
-570.661	169.803	-0.038	0.055
-569.646	156.411	0.095	-0.132
-568.631	-107.023	0.113	0.025
-567.617	45.266	0.153	0.142
-566.602	308.883	-0.049	0.093
-565.588	800.000	0.110	-0.416
-564.573	-122.797	-0.471	0.077
-563.558	-16.801	-0.161	0.103
-562.544	-124.883	-0.380	-0.059
-561.529	479.243	0.039	-0.090
-560.515	800.000	-0.111	0.355
-559.500	-133.539	0.115	-0.015
-558.485	-200.000	0.027	-0.175
-557.471	-200.000	-0.032	-0.344
-556.456	-19.437	0.263	-0.165
-555.442	-39.636	-0.143	0.076
-554.427	311.036	0.228	-0.432
-553.412	-6.964	-0.270	0.186
-552.398	-7.024	-0.211	-0.145
-551.383	-124.753	-0.215	0.034
-550.369	261.163	-0.086	0.150
-549.354	-68.508	0.130	0.051
-548.339	182.727	0.138	-0.206
-547.325	-70.707	-0.379	-0.145
-546.310	600.914	-0.152	-0.381
-545.296	-67.284	-0.226	-0.090
-544.281	-61.859	-0.276	0.116
-543.266	28.750	-0.100	0.085
-542.252	-200.000	-0.026	-0.177
-541.237	-109.200	0.377	-0.081
-540.223	-200.000	-0.022	-0.196
-539.208	-31.761	-0.137	-0.078
-538.193	-200.000	0.006	-0.036
-537.179	329.842	-0.174	-0.338
-536.164	-200.000	-0.010	-0.085
-535.150	44.491	0.217	-0.201
-534.135	-62.366	0.109	0.046
-533.121	-109.757	-0.099	-0.021
-532.106	345.156	-0.044	0.088
-531.091	16.005	-0.290	-0.230
-530.077	89.306	0.169	-0.191
-529.062	-93.679	0.356	-0.099
-528.048	70.234	-0.278	0.290
-527.033	388.254	-0.114	0.238
-526.018	-1.538	-0.235	0.167
-525.004	-150.178	-0.208	0.016
-523.989	52.656	0.064	0.061
-522.975	61.818	-0.173	0.173
-521.960	17.143	0.043	0.035
-520.945	277.329	-0.058	-0.104
-519.931	585.630	0.039	-0.096
-518.916	-100.479	0.601	-0.150
-517.902	-16.150	-0.107	-0.069
-516.887	-74.300	-0.239	-0.087
-515.872	800.000	0.020	0.067
-514.858	459.119	0.230	0.515
-513.843	-200.000	0.029	-0.211
-512.829	-126.640	0.236	-0.035
-511.814	-200.000	-0.040	-0.433
-510.799	-170.405	-0.297	0.010
-509.785	436.230	0.145	0.319
-508.770	-33.233	0.373	0.208
-507.756	-36.938	-0.046	0.025
-506.741	-115.584	0.259	0.049
-505.726	-137.438	-0.238	0.027
-504.712	-14.542	-0.463	0.300
-503.697	-200.000	0.006	-0.168
-502.683	-49.785	-0.154	0.074
-501.668	498.412	0.143	-0.333
-500.653	-200.000	0.022	-0.487
-499.639	-153.412	0.301	-0.021
-498.624	-151.345	0.330	-0.025
-497.610	-75.280	0.314	-0.113
-496.595	92.826	-0.068	0.078
-495.581	-39.842	0.302	-0.159
-494.566	180.421	-0.089	-0.132
-493.551	-159.873	0.277	0.015
-492.537	169.471	-0.130	0.187
-491.522	800.000	0.027	0.106
-490.508	-44.610	0.145	0.073
-489.493	-80.099	-0.387	0.131
-488.478	-154.259	0.226	-0.015
-487.464	317.549	-0.023	0.043
-486.449	-108.660	-0.033	0.007
-485.435	800.000	-0.048	-0.200
-484.420	-52.485	-0.192	0.090
-483.405	-54.696	0.034	0.015
-482.391	70.406	-0.172	0.179
-481.376	-200.000	0.072	-0.416
-480.362	-148.999	0.162	0.013
-479.347	512.604	0.151	0.353
-478.332	-56.974	0.217	-0.097
-477.318	-200.000	-0.029	0.233
-476.303	-179.594	-0.140	0.003
-475.289	-114.582	-0.544	-0.105
-474.274	702.423	-0.125	0.332
-473.259	-1.193	-0.179	-0.127
-472.245	-167.760	0.341	-0.014
-471.230	101.417	-0.300	0.351
-470.216	-200.000	0.033	0.226
-469.201	138.711	-0.024	-0.032
-468.186	800.000	0.031	-0.135
-467.172	-200.000	-0.026	-0.427
-466.157	161.122	0.089	0.125
-465.143	-42.058	-0.231	0.119
-464.128	-48.520	-0.260	-0.126
-463.113	18.226	0.142	0.114
-462.099	64.430	0.231	-0.234
-461.084	800.000	0.014	0.046
-460.070	-11.620	0.310	-0.205
-459.055	-30.802	0.238	0.136
-458.040	-52.619	-0.232	-0.108
-457.026	-66.276	-0.125	0.050
-456.011	-96.669	0.290	0.077
-454.997	800.000	-0.021	-0.092
-453.982	773.749	-0.110	-0.301
-452.968	-79.868	0.087	0.029
-451.953	-200.000	-0.013	0.298
-450.938	-64.718	-0.171	-0.070
-449.924	2.916	0.222	-0.162
-448.909	-6.589	-0.219	-0.150
-447.895	569.622	0.024	0.059
-446.880	-118.942	0.093	0.016
-445.865	800.000	-0.104	0.302
-444.851	104.684	0.247	-0.293
-443.836	77.978	-0.109	-0.117
-442.822	304.276	-0.047	0.088
-441.807	2.916	0.182	0.133
-440.792	-200.000	-0.023	-0.181
-439.778	-200.000	-0.016	0.203
-438.763	-42.546	0.204	0.104
-437.749	-30.067	0.358	0.205
-436.734	-128.776	0.113	-0.016
-435.719	-200.000	-0.034	0.426
-434.705	-4.191	0.078	-0.054
-433.690	-200.000	-0.023	-0.252
-432.676	-96.921	-0.142	-0.038
-431.661	47.987	0.057	-0.054
-430.646	-200.000	0.001	-0.119
-429.632	51.486	0.096	0.091
-428.617	-89.863	0.155	-0.046
-427.603	61.890	0.104	0.105
-426.588	652.775	-0.106	-0.273
-425.573	-50.149	-0.047	-0.023
-424.559	-89.989	0.085	-0.025
-423.544	-200.000	-0.003	0.162
-422.530	153.840	0.203	0.279
-421.515	-200.000	-0.014	-0.324
-420.500	-193.551	-0.225	0.002
-419.486	-200.000	0.027	-0.285
-418.471	800.000	0.068	-0.242
-417.457	800.000	0.106	0.314
-416.442	-20.297	-0.022	0.014
-415.428	158.687	-0.127	0.177
-414.413	3.622	0.252	0.184
-413.398	281.729	0.095	0.170
-412.384	-161.082	0.156	0.008
-411.369	800.000	0.084	0.253
-410.355	54.218	0.042	0.041
-409.340	63.862	-0.184	0.185
-408.325	-64.463	-0.161	0.066
-407.311	-81.432	0.069	-0.023
-406.296	0.239	0.233	-0.167
-405.282	338.395	0.172	0.336
-404.267	800.000	-0.107	0.354
-403.252	145.514	-0.035	0.048
-402.238	-200.000	0.027	-0.210
-401.223	-140.206	-0.308	0.032
-400.209	-173.857	0.245	0.007
-399.194	-200.000	-0.030	-0.186
-398.179	329.995	-0.121	0.233
-397.165	-200.000	-0.004	0.094
-396.150	-200.000	0.029	-0.145
-395.136	25.847	0.064	0.053
-394.121	43.983	-0.120	0.111
-393.106	43.978	0.064	-0.058
-392.092	-61.494	-0.219	0.092
-391.077	230.933	0.037	0.061
-390.063	-179.590	0.462	0.010
-389.048	-112.515	0.375	-0.075
-388.033	-200.000	-0.028	0.307
-387.019	-29.110	0.256	0.147
-386.004	-9.789	0.109	0.073
-384.990	42.407	-0.082	0.075
-383.975	-100.158	-0.088	0.022
-382.960	-200.000	-0.028	-0.316
-381.946	-85.567	-0.312	-0.097
-380.931	-64.847	0.438	0.178
-379.917	-154.057	-0.270	-0.018
-378.902	-172.846	-0.131	0.004
-377.888	-39.291	-0.072	0.038
-376.873	800.000	0.033	-0.094
-375.858	800.000	0.060	0.243
-374.844	800.000	-0.115	-0.323
-373.829	117.537	0.213	-0.262
-372.815	-56.156	-0.104	0.046
-371.800	615.689	0.113	-0.285
-370.785	-200.000	-0.031	-0.339
-369.771	657.614	0.128	0.329
-368.756	-131.493	0.209	-0.028
-367.742	-91.823	-0.296	-0.084
-366.727	277.334	-0.086	-0.154
-365.712	-200.000	-0.006	0.175
-364.698	46.905	0.143	-0.133
-363.683	-45.642	0.174	0.086
-362.669	45.291	-0.072	0.066
-361.654	-80.565	0.172	-0.057
-360.639	-200.000	-0.005	0.029
-359.625	80.647	0.067	-0.072
-358.610	800.000	-0.045	0.180
-357.596	1.590	0.102	0.074
-356.581	223.617	-0.142	-0.229
-355.566	236.759	-0.106	-0.175
-354.552	800.000	-0.085	-0.243
-353.537	686.662	-0.058	0.152
-352.523	-41.984	-0.339	0.174
-351.508	-1.645	-0.100	0.071
-350.493	29.253	-0.066	-0.057
-349.479	-200.000	-0.022	0.316
-348.464	-78.145	-0.061	0.021
-347.450	-79.019	-0.388	-0.132
-346.435	93.518	-0.264	0.299
-345.420	21.811	-0.175	-0.143
-344.406	-102.106	0.217	-0.052
-343.391	-86.299	0.214	0.066
-342.377	-200.000	0.031	0.184
-341.362	-17.595	-0.201	0.127
-340.348	89.221	-0.218	0.244
-339.333	685.130	-0.073	-0.190
-338.318	409.633	-0.110	0.234
-337.304	-14.711	0.416	0.267
-336.289	130.109	0.211	0.271
-335.275	-18.458	0.315	0.197
-334.260	63.840	-0.011	0.011
-333.245	-176.807	0.333	0.008
-332.231	800.000	-0.085	-0.319
-331.216	-200.000	-0.046	-0.239
-330.202	-140.267	0.104	-0.011
-329.187	-200.000	-0.013	0.105
-328.172	93.007	0.291	0.329
-327.158	58.616	-0.054	0.053
-326.143	-148.919	0.217	-0.018
-325.129	269.387	0.174	0.306
-324.114	300.997	0.018	-0.033
-323.099	263.479	0.169	-0.294
-322.085	489.459	-0.197	-0.452
-321.070	-126.366	0.029	-0.004
-320.056	72.912	0.320	-0.335
-319.041	-200.000	0.023	0.153
-318.026	-93.191	0.529	-0.147
-317.012	17.863	-0.016	-0.013
-315.997	800.000	0.023	0.079
-314.983	800.000	-0.045	-0.148
-313.968	-185.097	-0.013	-0.000
-312.953	251.606	-0.140	-0.238
-311.939	10.664	0.210	0.160
-310.924	-99.578	0.049	0.012
-309.910	800.000	0.040	0.116
-308.895	84.445	0.175	0.192
-307.880	-200.000	0.018	0.337
-306.866	-77.527	0.215	0.075
-305.851	-131.144	-0.175	0.023
-304.837	-200.000	0.010	-0.160
-303.822	-190.592	-0.074	-0.001
-302.807	30.025	-0.056	-0.048
-301.793	-120.716	-0.221	0.037
-300.778	182.469	0.192	-0.283
-299.764	1.260	0.101	0.073
-298.749	-168.343	0.182	0.007
-297.735	134.982	0.150	0.195
-296.720	2.159	-0.089	0.065
-295.705	12.738	0.178	0.137
-294.691	49.002	0.282	0.265
-293.676	-62.590	-0.073	0.030
-292.662	375.979	0.116	0.236
-291.647	-200.000	-0.049	-0.294
-290.632	-104.346	0.485	0.112
-289.618	328.940	-0.201	-0.386
-288.603	-145.409	-0.250	-0.023
-287.589	-63.797	-0.304	0.124
-286.574	-107.915	0.133	0.029
-285.559	140.787	-0.080	0.106
-284.545	279.010	-0.165	0.295
-283.530	-93.074	-0.072	-0.020
-282.516	-105.860	-0.231	-0.052
-281.501	249.866	0.071	0.120
-280.486	-81.995	-0.099	-0.032
-279.472	75.642	-0.188	-0.198
-278.457	-115.771	0.378	0.071
-277.443	-51.058	0.003	-0.001
-276.428	-40.731	-0.097	0.050
-275.413	142.216	0.219	-0.290
-274.399	623.618	0.037	-0.093
-273.384	-28.139	-0.325	-0.188
-272.370	-200.000	-0.009	-0.210
-271.355	-56.124	0.099	-0.044
-270.340	-49.672	-0.441	0.209
-269.326	-145.784	0.144	-0.013
-268.311	108.667	0.159	0.190
-267.297	-198.761	-0.116	-0.001
-266.282	-20.107	0.328	-0.202
-265.267	-200.000	-0.018	-0.460
-264.253	-134.333	-0.110	-0.013
-263.238	146.951	-0.258	-0.347
-262.224	800.000	0.043	-0.127
-261.209	17.853	-0.311	-0.247
-260.195	800.000	-0.073	0.247
-259.180	-200.000	-0.029	-0.161
-258.165	-113.267	0.285	-0.056
-257.151	-200.000	0.007	0.137
-256.136	-200.000	0.048	-0.414
-255.122	263.080	-0.204	-0.353
-254.107	-35.975	-0.073	0.039
-253.092	147.515	0.089	-0.120
-252.078	800.000	0.068	0.233
-251.063	-191.993	0.256	0.002
-250.049	57.532	-0.174	0.170
-249.034	276.890	0.028	-0.049
-248.019	-16.928	-0.220	0.139
-247.005	-25.180	-0.140	0.083
-245.990	-84.321	-0.068	0.021
-244.976	800.000	-0.096	-0.355
-243.961	367.359	-0.076	0.153
-242.946	800.000	0.005	0.016
-241.932	4.943	0.267	-0.196
-240.917	-127.171	-0.068	-0.010
-239.903	31.013	0.145	0.124
-238.888	-115.085	0.109	0.021
-237.873	-21.015	-0.207	0.126
-236.859	-19.054	-0.133	0.082
-235.844	94.547	0.124	0.140
-234.830	195.368	-0.145	-0.219
-233.815	-80.172	-0.149	0.050
-232.800	47.551	-0.186	-0.173
-231.786	-174.621	-0.136	0.004
-230.771	184.781	0.178	-0.263
-229.757	19.009	-0.294	-0.235
-228.742	-200.000	0.030	0.361
-227.727	-200.000	0.045	0.259
-226.713	149.006	0.091	0.122
-225.698	14.174	0.276	0.214
-224.684	-75.223	0.305	0.109
-223.669	-57.043	0.064	0.028
-222.655	306.660	-0.112	-0.209
-221.640	97.275	0.068	0.078
-220.625	73.038	-0.108	0.113
-219.611	-200.000	0.007	0.087
-218.596	-200.000	-0.019	-0.097
-217.582	-136.005	0.343	0.040
-216.567	-158.575	-0.504	-0.029
-215.552	116.765	0.137	0.167
-214.538	178.371	0.128	-0.186
-213.523	-8.961	-0.069	-0.046
-212.509	123.012	-0.128	-0.160
-211.494	-166.283	-0.314	-0.013
-210.479	30.066	-0.209	-0.178
-209.465	386.080	-0.033	0.067
-208.450	174.555	0.157	0.227
-207.436	800.000	-0.126	0.358
-206.421	370.446	-0.046	-0.092
-205.406	583.594	0.095	0.232
-204.392	-200.000	0.019	0.333
-203.377	-42.439	0.088	0.045
-202.363	-200.000	0.001	0.183
-201.348	-200.000	0.026	-0.370
-200.333	-200.000	-0.244	0.000
-199.319	33.923	0.250	0.216
-198.304	162.031	-0.127	0.177
-197.290	-149.374	-0.165	0.013
-196.275	-200.000	0.015	0.190
-195.260	800.000	-0.053	-0.196
-194.246	-129.915	-0.419	-0.057
-193.231	-132.200	0.125	-0.016
-192.217	75.667	-0.198	-0.208
-191.202	-148.986	0.069	0.006
-190.187	-200.000	-0.012	0.150
-189.173	16.229	-0.220	0.173
-188.158	-67.547	-0.137	0.053
-187.144	109.441	0.316	-0.377
-186.129	-84.580	0.244	-0.077
-185.114	541.505	-0.127	-0.302
-184.100	-106.230	0.280	0.063
-183.085	-112.828	0.014	0.003
-182.071	-85.404	0.396	0.123
-181.056	-22.777	0.294	0.177
-180.042	299.326	-0.066	-0.120
-179.027	199.945	-0.046	0.071
-178.012	41.004	0.177	0.159
-176.998	-200.000	0.010	0.085
-175.983	-23.715	-0.076	0.045
-174.969	-200.000	-0.017	-0.085
-173.954	-125.563	0.097	-0.015
-172.939	47.539	0.199	-0.184
-171.925	-6.357	0.237	-0.161
-170.910	27.739	-0.131	0.110
-169.896	-200.000	0.042	0.290
-168.881	37.520	-0.352	0.311
-167.866	-158.877	0.352	-0.020
-166.852	304.728	0.079	-0.146
-165.837	-200.000	0.046	0.210
-164.823	-24.482	0.317	0.188
-163.808	-136.929	-0.203	-0.023
-162.793	-57.693	0.283	-0.123
-161.779	-200.000	-0.052	0.226
-160.764	97.503	-0.099	-0.113
-159.750	239.220	0.127	0.211
-158.735	-47.198	0.169	-0.082
-157.720	-97.465	-0.302	0.078
-156.706	-200.000	0.000	0.190
-155.691	211.264	-0.252	-0.394
-154.677	800.000	0.069	0.196
-153.662	254.030	-0.102	-0.174
-152.647	-108.922	-0.301	0.064
-151.633	-84.636	0.189	-0.059
-150.618	227.549	-0.034	-0.054
-149.604	38.958	-0.216	-0.192
-148.589	-5.361	0.182	-0.124
-147.574	5.015	-0.008	0.006
-146.560	413.966	-0.093	-0.197
-145.545	-179.074	0.235	-0.005
-144.531	-79.973	0.261	-0.087
-143.516	-94.467	0.148	-0.040
-142.502	335.137	-0.072	-0.138
-141.487	-95.460	-0.291	0.078
-140.472	188.497	-0.140	-0.208
-139.458	-86.203	0.232	-0.071
-138.443	210.316	-0.199	-0.311
-137.429	-200.000	-0.012	-0.107
-136.414	-51.037	-0.245	-0.114
-135.399	-118.326	0.456	0.080
-134.385	-22.817	-0.128	0.077
-133.370	696.463	-0.066	0.172
-132.356	-139.483	-0.268	0.028
-131.341	-92.846	0.189	0.052
-130.326	132.840	0.101	0.129
-129.312	800.000	0.016	0.056
-128.297	-51.585	0.386	-0.179
-127.283	-171.734	-0.221	0.007
-126.268	787.080	-0.070	0.191
-125.253	800.000	0.027	0.110
-124.239	800.000	0.074	-0.315
-123.224	-39.913	0.125	-0.065
-122.210	-59.232	-0.378	0.162
-121.195	-200.000	-0.025	0.253
-120.180	244.545	-0.159	-0.265
-119.166	76.980	0.162	-0.171
-118.151	390.683	-0.149	-0.307
-117.137	-200.000	-0.001	-0.116
-116.122	-62.156	-0.459	-0.190
-115.107	800.000	0.093	-0.261
-114.093	355.091	0.043	-0.085
-113.078	108.326	0.160	-0.189
-112.064	45.625	-0.302	0.277
-111.049	426.066	-0.068	-0.146
-110.034	747.511	0.084	-0.226
-109.020	800.000	-0.067	0.279
-108.005	17.719	0.170	-0.134
-106.991	134.400	-0.104	0.134
-105.976	157.810	0.231	-0.318
-104.962	-57.133	0.313	-0.137
-103.947	-0.493	0.304	0.214
-102.932	749.690	0.039	0.105
-101.918	51.290	-0.203	-0.191
-100.903	0.712	-0.203	0.144
-99.889	-59.708	0.431	-0.183
-98.874	-55.625	0.051	0.023
-97.859	-131.732	-0.389	-0.051
-96.845	-52.942	0.453	-0.207
-95.830	-140.172	0.098	0.010
-94.816	643.706	0.061	0.155
-93.801	30.077	0.278	-0.235
-92.786	-200.000	0.004	0.050
-91.772	-122.355	-0.344	-0.056
-90.757	-93.505	0.206	0.057
-89.743	-150.167	-0.116	-0.009
-88.728	178.755	0.027	-0.040
-87.713	8.813	0.183	0.136
-86.699	-118.249	0.378	0.067
-85.684	-122.224	-0.165	0.027
-84.670	31.626	0.309	-0.263
-83.655	-196.877	0.162	0.001
-82.640	338.882	0.102	-0.196
-81.626	-200.000	0.010	-0.059
-80.611	-200.000	-0.005	-0.060
-79.597	335.675	0.079	-0.153
-78.582	800.000	-0.008	-0.025
-77.567	-59.206	-0.109	-0.047
-76.553	-63.920	0.129	-0.052
-75.538	800.000	-0.115	-0.372
-74.524	52.489	-0.182	-0.172
-73.509	163.133	0.100	0.139
-72.494	716.732	0.103	0.270
-71.480	-99.381	0.173	-0.043
-70.465	-172.758	-0.152	0.005
-69.451	800.000	-0.043	-0.187
-68.436	308.563	0.057	-0.105
-67.422	-149.550	0.151	-0.012
-66.407	675.037	0.075	0.193
-65.392	-173.958	-0.198	-0.006
-64.378	258.633	-0.041	-0.070
-63.363	-55.133	0.055	-0.024
-62.349	-107.142	0.152	0.033
-61.334	9.054	-1.035	-0.774
-60.319	-107.603	0.368	0.080
-59.305	-200.000	-0.128	-1.308
-58.290	97.761	0.891	1.014
-57.276	800.000	0.506	1.522
-56.261	-200.000	95.038	586.378
-55.246	656.896	1369.376	3485.351
-54.232	195.949	2549.598	3841.403
-53.217	110.465	2299.524	2736.953
-52.203	39.122	2063.122	1827.226
-51.188	34.165	1978.718	1708.050
-50.173	32.638	1960.436	1678.616
-49.159	47.383	2009.538	1853.946
-48.144	48.813	2026.928	1882.814
-47.130	34.779	1989.081	1722.259
-46.115	32.479	1978.697	1692.555
-45.100	32.372	1976.136	1689.333
-44.086	32.282	1973.748	1686.421
-43.071	32.213	1971.022	1683.406
-42.057	32.225	1968.882	1681.618
-41.042	32.214	1966.830	1679.697
-40.027	32.276	1965.031	1678.644
-39.013	32.344	1962.769	1677.259
-37.998	32.389	1961.079	1676.143
-36.984	32.412	1959.290	1674.759
-35.969	32.346	1957.731	1672.772
-34.954	32.461	1955.887	1672.150
-33.940	32.382	1954.762	1670.425
-32.925	32.432	1953.398	1669.636
-31.911	32.467	1951.605	1668.347
-30.896	32.449	1949.571	1666.375
-29.881	32.499	1948.298	1665.667
-28.867	32.502	1946.364	1663.977
-27.852	32.498	1944.718	1662.466
-26.838	32.512	1942.715	1660.807
-25.823	32.470	1940.754	1658.698
-24.809	32.488	1939.346	1657.590
-23.794	32.407	1937.363	1655.110
-22.779	32.440	1935.431	1653.692
-21.765	32.404	1934.044	1652.122
-20.750	32.427	1931.972	1650.485
-19.736	32.445	1930.475	1649.300
-18.721	32.463	1928.924	1648.071
-17.706	32.470	1927.294	1646.670
-16.692	32.442	1925.971	1645.230
-15.677	32.413	1924.673	1643.807
-14.663	32.495	1922.897	1642.936
-13.648	32.508	1922.093	1642.294
-12.633	32.543	1920.163	1640.890
-11.619	32.431	1919.521	1639.304
-10.604	32.447	1917.304	1637.479
-9.590	32.446	1916.264	1636.518
-8.575	32.458	1914.851	1635.347
-7.560	32.458	1913.288	1633.951
-6.546	32.371	1912.501	1632.456
-5.531	32.387	1911.635	1631.796
-4.517	32.468	1910.275	1631.267
-3.502	32.389	1909.438	1629.807
-2.487	32.487	1907.631	1629.049
-1.473	32.426	1907.139	1628.036
-0.458	32.566	1902.329	1625.074
0.556	32.136	1882.813	1597.633
1.571	28.001	1863.732	1546.401
2.586	24.052	1886.048	1530.890
3.600	23.051	1921.438	1550.703
4.615	22.463	1916.136	1541.141
5.629	17.276	1816.102	1417.415
6.644	8.864	1698.955	1259.993
7.659	5.023	1663.423	1203.925
8.673	4.734	1660.296	1199.327
9.688	4.655	1658.843	1197.559
10.702	4.694	1657.403	1196.717
11.717	4.627	1654.343	1193.891
12.731	5.122	1654.048	1197.371
13.746	10.606	1666.346	1248.452
14.761	17.792	1681.944	1315.649
15.775	19.864	1683.470	1332.698
16.790	19.038	1680.396	1323.795
17.804	17.919	1677.363	1312.689
18.819	16.906	1674.133	1302.274
19.834	16.259	1671.425	1295.089
20.848	15.975	1670.325	1291.940
21.863	15.750	1668.689	1288.838
22.877	15.507	1667.025	1285.583
23.892	15.326	1665.838	1283.165
24.907	15.167	1665.002	1281.190
25.921	15.205	1663.760	1280.417
26.936	15.295	1661.997	1279.634
27.950	15.282	1661.321	1278.900
28.965	15.240	1661.407	1278.534
29.980	15.284	1660.460	1278.021
30.994	15.421	1659.303	1278.066
32.009	15.453	1658.840	1277.839
33.023	15.499	1658.136	1277.530
34.038	15.516	1656.533	1276.310
35.053	15.565	1655.686	1275.918
36.067	15.380	1654.478	1273.475
37.082	15.394	1653.512	1272.721
38.096	15.367	1652.505	1271.630
39.111	15.453	1651.314	1271.253
40.126	15.513	1650.470	1270.941
41.140	15.464	1649.979	1270.084
42.155	15.340	1648.127	1267.608
43.169	15.225	1646.649	1265.492
44.184	15.149	1645.677	1264.058
45.199	15.147	1644.882	1263.317
46.213	15.140	1643.491	1262.091
47.228	15.189	1642.497	1261.583
48.242	15.310	1641.027	1261.249
49.257	15.293	1640.266	1260.424
50.271	15.264	1639.025	1259.141
51.286	15.254	1638.026	1258.187
52.301	15.284	1636.445	1257.089
53.315	15.336	1634.934	1256.210
54.330	15.374	1633.385	1255.186
55.344	15.183	1631.546	1252.240
56.359	15.154	1630.556	1251.152
57.374	15.235	1629.447	1250.794
58.388	15.283	1627.967	1249.907
59.403	15.149	1626.610	1247.757
60.417	15.087	1625.600	1246.403
61.432	14.981	1624.698	1244.819
62.447	15.059	1623.520	1244.385
63.461	14.936	1622.467	1242.554
64.476	15.017	1621.287	1242.137
65.490	14.972	1620.204	1240.868
66.505	14.957	1618.726	1239.517
67.520	14.971	1617.569	1238.621
68.534	15.052	1616.524	1238.310
69.549	15.076	1615.673	1237.724
70.563	15.088	1614.215	1236.587
71.578	15.039	1612.820	1235.050
72.593	15.045	1611.853	1234.246
73.607	14.902	1610.842	1232.309
74.622	14.916	1609.353	1231.165
75.636	14.851	1608.701	1230.078
76.651	14.872	1608.174	1229.717
77.666	14.964	1607.238	1229.572
78.680	14.909	1606.350	1228.381
79.695	14.963	1605.367	1227.914
80.709	15.002	1604.225	1227.215
81.724	15.031	1603.915	1227.086
82.739	15.104	1603.083	1226.874
83.753	15.172	1602.156	1226.559
84.768	15.172	1601.189	1225.706
85.782	15.234	1600.518	1225.536
86.797	15.345	1599.688	1225.604
87.812	15.408	1598.461	1225.017
88.826	15.396	1597.036	1223.729
89.841	15.270	1596.744	1222.474
90.855	15.337	1595.189	1221.669
91.870	15.244	1594.502	1220.355
92.884	15.331	1593.372	1220.012
93.899	15.365	1592.998	1219.870
94.914	15.407	1591.325	1218.786
95.928	15.476	1590.190	1218.308
96.943	15.583	1588.911	1217.994
97.957	15.429	1587.600	1215.769
98.972	15.453	1586.095	1214.680
99.987	15.347	1584.571	1212.644
101.001	15.271	1583.279	1210.999
102.016	15.378	1581.592	1210.371
103.030	15.364	1580.462	1209.301
104.045	15.333	1578.979	1207.834
105.060	15.388	1577.773	1207.196
106.074	15.335	1576.368	1205.633
107.089	15.301	1575.005	1204.245
108.103	15.018	1573.625	1201.049
109.118	15.002	1571.615	1199.294
110.133	15.057	1569.992	1198.347
111.147	15.021	1569.291	1197.448
112.162	15.059	1567.591	1196.315
113.176	15.101	1566.411	1195.610
114.191	15.027	1565.293	1194.119
115.206	15.147	1563.590	1193.571
116.220	15.124	1562.632	1192.572
117.235	15.132	1560.987	1191.266
118.249	15.169	1559.412	1190.225
119.264	15.170	1558.508	1189.434
120.279	15.149	1557.181	1188.168
121.293	15.046	1555.761	1186.252
122.308	15.030	1554.023	1184.705
123.322	14.994	1552.883	1183.477
124.337	15.022	1550.777	1181.967
125.352	14.914	1550.105	1180.587
126.366	14.940	1549.077	1179.881
127.381	14.965	1547.427	1178.697
128.395	14.908	1546.214	1177.266
129.410	14.999	1545.437	1177.212
130.424	15.074	1544.094	1176.612
131.439	15.088	1542.812	1175.630
132.454	15.103	1541.336	1174.502
133.468	15.121	1539.687	1173.269
134.483	15.133	1538.310	1172.199
135.497	15.182	1536.977	1171.422
136.512	15.182	1535.858	1170.471
137.527	15.257	1534.462	1169.827
138.541	15.193	1533.230	1168.333
139.556	15.253	1531.949	1167.674
140.570	15.226	1530.564	1166.328
141.585	15.317	1529.553	1166.083
142.600	15.322	1528.400	1165.136
143.614	15.445	1527.133	1164.922
144.629	15.449	1526.037	1164.011
145.643	15.536	1524.412	1163.274
146.658	15.524	1523.097	1162.082
147.673	15.464	1521.706	1160.502
148.687	15.311	1520.990	1158.798
149.702	15.401	1519.030	1157.820
150.716	15.385	1517.000	1156.061
151.731	15.264	1516.195	1154.515
152.746	15.364	1514.537	1153.836
153.760	15.298	1513.708	1152.649
154.775	15.239	1512.561	1151.266
155.789	15.367	1511.209	1151.016
156.804	15.453	1509.796	1150.425
157.819	15.508	1508.360	1149.609
158.833	15.546	1507.512	1149.123
159.848	15.622	1505.847	1148.268
160.862	15.650	1505.093	1147.785
161.877	15.621	1503.947	1146.613
162.892	15.552	1502.653	1145.056
163.906	15.417	1501.551	1143.194
164.921	15.370	1500.393	1141.886
165.935	15.350	1499.413	1140.906
166.950	15.338	1498.166	1139.778
167.964	15.416	1497.623	1139.793
168.979	15.501	1495.932	1138.978
169.994	15.485	1495.775	1138.653
171.008	15.529	1494.104	1137.574
172.023	15.506	1493.345	1136.743
173.037	15.557	1491.823	1135.828
174.052	15.615	1490.778	1135.322
175.067	15.649	1489.898	1134.780
176.081	15.662	1488.326	1133.570
177.096	15.569	1487.142	1131.943
178.110	15.451	1486.062	1130.228
179.125	15.443	1484.960	1129.235
180.140	15.515	1483.542	1128.540
181.154	15.625	1482.762	1128.586
182.169	15.650	1481.639	1127.802
183.183	15.709	1480.411	1127.158
184.198	15.725	1479.415	1126.412
185.213	15.743	1478.554	1125.772
186.227	15.791	1477.423	1125.133
187.242	15.796	1476.532	1124.387
188.256	15.833	1475.392	1123.672
189.271	15.864	1474.136	1122.823
190.286	15.918	1472.950	1122.177
191.300	15.838	1471.923	1120.766
192.315	15.547	1471.084	1118.090
193.329	15.444	1469.629	1116.201
194.344	15.435	1468.300	1115.028
195.359	15.422	1467.961	1114.590
196.373	15.521	1466.625	1114.132
197.388	15.757	1465.410	1114.673
198.402	15.700	1464.649	1113.623
199.417	15.832	1463.553	1113.563
200.432	15.946	1462.622	1113.510
201.446	16.040	1462.071	1113.612
202.461	16.145	1460.759	1113.206
203.475	16.089	1459.878	1112.069
204.490	16.116	1458.618	1111.186
205.504	16.018	1457.983	1109.959
206.519	16.008	1456.107	1108.368
207.534	15.959	1455.397	1107.404
208.548	15.959	1453.810	1106.103
209.563	15.889	1452.781	1104.761
210.577	15.982	1451.959	1104.651
211.592	15.940	1451.243	1103.728
212.607	16.003	1450.553	1103.524
213.621	16.125	1449.853	1103.691
214.636	16.197	1448.774	1103.241
215.650	16.059	1448.001	1101.653
216.665	16.124	1446.956	1101.186
217.680	16.146	1446.160	1100.627
218.694	16.214	1445.705	1100.623
219.709	16.347	1444.176	1100.228
220.723	16.320	1443.470	1099.421
221.738	16.194	1442.680	1097.899
222.753	16.238	1441.732	1097.369
223.767	16.184	1440.947	1096.319
224.782	16.204	1440.102	1095.714
225.796	16.249	1438.753	1094.881
226.811	16.324	1437.894	1094.616
227.826	16.337	1437.505	1094.306
228.840	16.349	1436.414	1093.457
229.855	16.296	1435.135	1092.042
230.869	16.303	1434.643	1091.616
231.884	16.326	1433.315	1090.661
232.899	16.247	1432.704	1089.590
233.913	16.177	1431.580	1088.189
234.928	16.170	1429.808	1086.697
235.942	16.218	1428.521	1085.929
236.957	16.115	1427.811	1084.631
237.972	16.158	1426.389	1083.732
238.986	16.211	1425.325	1083.171
240.001	16.143	1424.587	1082.076
241.015	16.244	1424.053	1082.223
242.030	16.300	1422.331	1081.176
243.045	16.372	1420.998	1080.528
244.059	16.379	1420.696	1080.247
245.074	16.335	1420.061	1079.390
246.088	16.400	1419.161	1079.023
247.103	16.450	1418.292	1078.588
248.117	16.490	1417.520	1078.158
249.132	16.560	1416.618	1077.825
250.147	16.667	1416.223	1078.113
251.161	16.741	1415.559	1077.978
252.176	16.856	1415.005	1078.196
253.190	16.771	1414.847	1077.436
254.205	16.875	1413.426	1076.922
255.220	16.974	1412.399	1076.674
256.234	16.997	1411.804	1076.269
257.249	16.935	1411.269	1075.374
258.263	16.870	1410.295	1074.126
259.278	17.016	1409.421	1074.288
260.293	17.033	1408.022	1073.231
261.307	16.936	1407.457	1072.095
262.322	16.896	1407.188	1071.544
263.336	17.157	1405.697	1071.960
264.351	17.075	1404.835	1070.689
265.366	17.070	1404.032	1069.951
266.380	17.159	1403.270	1069.835
267.395	17.167	1402.375	1069.110
268.409	17.114	1401.661	1068.141
269.424	17.070	1400.261	1066.700
270.439	17.036	1399.256	1065.627
271.453	17.048	1398.217	1064.814
272.468	17.145	1397.008	1064.410
273.482	17.010	1396.584	1063.144
274.497	16.986	1396.138	1062.563
275.512	17.053	1394.155	1061.381
276.526	17.063	1393.808	1061.082
277.541	17.005	1393.160	1060.137
278.555	17.035	1392.408	1059.653
279.570	17.107	1391.165	1059.064
280.585	17.198	1390.158	1058.769
281.599	17.261	1389.561	1058.613
282.614	17.212	1388.980	1057.775
283.628	17.263	1387.357	1056.760
284.643	17.205	1386.357	1055.547
285.657	17.193	1385.243	1054.528
286.672	17.180	1384.145	1053.522
287.687	17.198	1383.942	1053.382
288.701	17.165	1382.844	1052.253
289.716	17.205	1381.779	1051.593
290.730	17.214	1381.358	1051.236
291.745	17.252	1379.980	1050.332
292.760	17.330	1378.562	1049.636
293.774	17.298	1378.074	1048.980
294.789	17.370	1377.098	1048.583
295.803	17.365	1376.692	1048.150
296.818	17.414	1375.929	1047.782
297.833	17.272	1374.971	1046.085
298.847	17.435	1373.305	1045.727
299.862	17.362	1372.575	1044.628
300.876	17.382	1371.432	1043.792
301.891	17.356	1370.770	1043.037
302.906	17.329	1370.193	1042.335
303.920	17.353	1369.665	1041.991
304.935	17.480	1368.757	1041.984
305.949	17.589	1367.829	1041.855
306.964	17.706	1367.092	1041.915
307.979	17.759	1365.780	1041.144
308.993	17.634	1365.261	1039.896
310.008	17.617	1364.362	1039.017
311.022	17.581	1363.236	1037.849
312.037	17.536	1362.822	1037.163
313.052	17.598	1361.367	1036.341
314.066	17.553	1360.877	1035.607
315.081	17.641	1359.278	1034.831
316.095	17.545	1358.191	1033.330
317.110	17.463	1357.501	1032.213
318.125	17.506	1356.658	1031.743
319.139	17.575	1355.295	1031.032
320.154	17.550	1354.522	1030.204
321.168	17.602	1353.560	1029.695
322.183	17.600	1352.241	1028.586
323.197	17.528	1351.357	1027.393
324.212	17.660	1350.546	1027.478
325.227	17.623	1349.876	1026.657
326.241	17.696	1349.025	1026.355
327.256	17.734	1347.924	1025.657
328.270	17.730	1347.036	1024.866
329.285	17.676	1346.190	1023.805
330.300	17.687	1345.257	1023.072
331.314	17.666	1344.284	1022.115
332.329	17.687	1343.662	1021.681
333.343	17.700	1342.643	1020.891
334.358	17.571	1342.167	1019.668
335.373	17.787	1341.007	1019.987
336.387	17.815	1340.501	1019.678
337.402	17.845	1339.808	1019.244
338.416	17.811	1339.096	1018.405
339.431	17.873	1338.279	1018.063
340.446	17.876	1337.824	1017.649
341.460	17.996	1336.690	1017.409
342.475	18.137	1335.498	1017.252
343.489	18.190	1334.456	1016.685
344.504	18.248	1333.278	1016.041
345.519	18.192	1332.639	1015.132
346.533	18.100	1332.532	1014.416
347.548	18.207	1331.228	1013.964
348.562	18.184	1330.700	1013.335
349.577	18.291	1329.687	1013.110
350.592	18.165	1329.255	1011.944
351.606	18.088	1328.270	1010.649
352.621	18.050	1326.803	1009.221
353.635	18.071	1325.600	1008.337
354.650	18.036	1324.889	1007.500
355.665	18.066	1323.755	1006.731
356.679	18.021	1322.970	1005.777
357.694	18.024	1322.125	1005.063
358.708	18.188	1320.750	1004.891
359.723	18.266	1319.689	1004.456
360.738	18.235	1318.654	1003.394
361.752	18.229	1317.654	1002.510
362.767	18.228	1316.841	1001.799
363.781	18.183	1315.869	1000.706
364.796	18.174	1315.169	1000.033
365.810	18.299	1314.622	1000.259
366.825	18.396	1313.559	999.926
367.840	18.441	1313.125	999.774
368.854	18.500	1312.383	999.465
369.869	18.500	1312.035	999.108
370.883	18.614	1311.137	999.000
371.898	18.546	1310.712	998.194
372.913	18.582	1309.508	997.397
373.927	18.499	1308.585	996.123
374.942	18.494	1307.734	995.357
375.956	18.511	1307.308	995.047
376.971	18.577	1306.518	994.739
377.986	18.571	1305.297	993.685
379.000	18.465	1304.754	992.569
380.015	18.648	1304.071	993.024
381.029	18.593	1303.479	992.165
382.044	18.676	1302.667	991.941
383.059	18.800	1301.740	991.863
384.073	18.731	1301.320	991.054
385.088	18.736	1300.536	990.400
386.102	18.826	1300.081	990.484
387.117	18.753	1299.199	989.307
388.132	18.747	1298.210	988.428
389.146	18.708	1297.396	987.497
390.161	18.658	1296.590	986.506
391.175	18.616	1295.905	985.660
392.190	18.684	1295.063	985.324
393.205	18.798	1293.671	984.832
394.219	18.880	1292.914	984.639
395.234	18.812	1292.067	983.517
396.248	18.814	1290.377	982.150
397.263	18.779	1289.231	980.993
398.278	18.621	1287.932	979.018
399.292	18.741	1286.488	978.515
400.307	18.649	1285.892	977.453
401.321	18.722	1284.539	976.756
402.336	18.542	1283.905	975.159
403.350	18.639	1282.661	974.681
404.365	18.702	1281.336	973.945
405.380	18.702	1280.927	973.547
406.394	18.720	1280.452	973.201
407.409	18.811	1279.670	973.036
408.423	18.795	1279.181	972.490
409.438	19.051	1278.022	972.973
410.453	18.968	1277.938	972.349
411.467	19.079	1276.815	972.038
412.482	19.135	1276.482	972.012
413.496	19.213	1275.394	971.538
414.511	19.208	1275.024	971.144
415.526	19.097	1274.353	969.921
416.540	19.158	1273.871	969.811
417.555	19.302	1272.651	969.607
418.569	19.258	1272.170	968.909
419.584	19.245	1271.897	968.541
420.599	19.345	1270.884	968.248
421.613	140.771	1431.790	1794.151
422.628	135.292	1455.227	1794.271
