DTS Sentinel unit serial number:	SN413079Multiplexer serial number:	ORYXHardware model number:	OX4-SRSoftware version number:	ORYX F/W v4.00 Oryx Data Collector v3.7.2.0data status	okinstallation	princeton_trtdifferential loss correction	single-endedforward channel	channel 4reverse channel	N/Adate	2019/09/15time	09:49:34forward acquisition time	60.00reverse acquisition time	0.00gamma	496.2192k internal	0.2298k external	0.2298temperature offset calibration	1.0018default loss term (dB/km)	0.3790temperature slope calibration	1.0000multiplexer offset coefficient	1.0000multiplexer slope coefficient	1.0000fibre end	0.00T internal ref (°C)	34.00T ext. ref 1 (°C)	4.98T ext. ref 2 (°C)	29.74length (m)	temperature (°C)	Stokes	anti-Stokes-747.200	-11.752	-0.145	0.097
-746.185	-35.148	-0.256	-0.142
-745.171	-115.065	0.323	-0.063
-744.156	-83.736	0.193	-0.063
-743.142	-6.603	0.132	0.092
-742.127	647.318	-0.067	0.174
-741.112	-200.000	-0.002	0.181
-740.098	-87.059	-0.278	0.086
-739.083	210.654	0.145	0.233
-738.069	-200.000	-0.015	0.184
-737.054	355.503	-0.146	0.297
-736.039	-86.530	-0.296	-0.093
-735.025	-77.857	0.231	0.081
-734.010	74.796	-0.211	-0.227
-732.996	-16.448	-0.255	0.165
-731.981	-200.000	0.047	-0.218
-730.966	800.000	-0.120	-0.343
-729.952	340.415	-0.194	-0.386
-728.937	263.227	-0.164	0.290
-727.923	52.800	-0.308	-0.300
-726.908	355.069	-0.037	-0.075
-725.894	-0.132	-0.076	-0.055
-724.879	-132.586	-0.717	0.094
-723.864	95.633	0.026	-0.031
-722.850	-200.000	0.054	-0.250
-721.835	-200.000	-0.087	0.000
-720.821	173.123	-0.175	0.257
-719.806	-38.016	0.162	0.087
-718.791	-129.793	-0.206	-0.029
-717.777	-86.564	0.291	0.091
-716.762	71.827	-0.225	0.239
-715.748	-160.348	0.532	0.029
-714.733	-76.553	-0.095	-0.034
-713.718	90.849	-0.093	0.106
-712.704	-200.000	0.002	-0.087
-711.689	-45.436	0.223	-0.113
-710.675	-200.000	0.004	0.061
-709.660	-74.519	0.175	-0.064
-708.645	588.512	0.236	-0.593
-707.631	-11.707	-0.104	0.069
-706.616	148.119	0.158	-0.217
-705.602	-100.632	-0.184	0.046
-704.587	247.719	-0.110	0.189
-703.572	393.344	-0.108	0.230
-702.558	265.973	0.126	-0.224
-701.543	-117.019	-0.123	0.023
-700.529	-200.000	0.060	0.355
-699.514	-106.091	-0.127	0.029
-698.499	-88.601	-0.065	0.020
-697.485	800.000	0.127	-0.447
-696.470	-2.001	-0.072	0.052
-695.456	-129.240	0.171	0.024
-694.441	-16.949	0.263	0.169
-693.426	-172.006	-0.197	-0.007
-692.412	15.831	-0.100	-0.080
-691.397	800.000	-0.041	0.160
-690.383	-135.191	0.040	-0.005
-689.368	35.911	-0.196	0.175
-688.354	-97.863	0.074	-0.020
-687.339	800.000	0.069	-0.218
-686.324	168.930	0.131	-0.190
-685.310	440.388	0.183	0.408
-684.295	-14.993	-0.170	0.111
-683.281	211.026	-0.079	-0.127
-682.266	312.778	0.084	0.160
-681.251	-60.062	-0.249	-0.108
-680.237	-77.999	-0.221	0.078
-679.222	182.689	-0.332	0.499
-678.208	-130.486	-0.201	0.028
-677.193	130.973	-0.251	-0.328
-676.178	345.689	-0.051	0.102
-675.164	353.261	-0.040	0.081
-674.149	-32.470	0.087	0.050
-673.135	28.842	0.213	-0.184
-672.120	-10.891	-0.315	0.212
-671.105	-199.964	-0.178	0.001
-670.091	138.596	0.095	0.127
-669.076	-86.692	-0.142	-0.044
-668.062	-200.000	-0.004	0.024
-667.047	773.626	-0.043	0.119
-666.032	-200.000	-0.003	-0.200
-665.018	-200.000	0.012	-0.055
-664.003	-200.000	0.008	-0.129
-662.989	800.000	0.035	-0.135
-661.974	-8.364	-0.322	-0.220
-660.959	-122.657	0.112	0.019
-659.945	-144.277	0.228	-0.022
-658.930	-164.070	-0.233	0.011
-657.916	168.872	-0.032	0.046
-656.901	-107.433	-0.150	-0.033
-655.886	-10.955	-0.091	-0.061
-654.872	185.133	0.205	-0.309
-653.857	205.899	-0.107	-0.169
-652.843	77.253	-0.211	0.228
-651.828	-93.202	0.059	-0.017
-650.814	-20.258	0.213	0.134
-649.799	800.000	-0.048	0.169
-648.784	336.148	0.069	0.135
-647.770	166.611	0.129	-0.186
-646.755	-40.548	-0.279	-0.147
-645.741	71.242	-0.153	-0.162
-644.726	-57.850	-0.242	0.108
-643.711	-200.000	-0.015	0.339
-642.697	800.000	-0.019	0.061
-641.682	-82.636	0.167	0.055
-640.668	-126.013	-0.183	-0.028
-639.653	132.464	0.205	0.269
-638.638	-46.545	0.184	0.092
-637.624	262.109	-0.116	-0.204
-636.609	-34.969	0.123	0.068
-635.595	332.701	-0.052	0.102
-634.580	184.963	-0.218	0.328
-633.565	-186.251	0.211	-0.003
-632.551	50.210	-0.222	0.213
-631.536	800.000	0.061	-0.262
-630.522	-84.257	-0.476	0.153
-629.507	-147.553	-0.111	0.009
-628.492	342.915	-0.109	0.216
-627.478	22.139	0.063	-0.052
-626.463	221.263	-0.074	-0.120
-625.449	172.944	-0.104	0.153
-624.434	-200.000	0.012	0.112
-623.419	-200.000	0.020	0.140
-622.405	203.449	0.020	-0.031
-621.390	409.675	0.182	0.392
-620.376	-101.675	0.248	-0.061
-619.361	66.601	-0.263	0.271
-618.346	428.401	-0.138	-0.302
-617.332	-66.894	-0.221	0.089
-616.317	-21.912	-0.106	-0.066
-615.303	-0.008	0.490	-0.355
-614.288	-42.781	0.066	0.034
-613.273	32.682	-0.027	-0.024
-612.259	212.527	-0.047	0.076
-611.244	-1.746	-0.128	-0.092
-610.230	-38.307	0.183	0.099
-609.215	800.000	-0.086	0.277
-608.201	-200.000	0.020	0.106
-607.186	-200.000	0.000	-0.010
-606.171	-7.071	-0.138	0.095
-605.157	-154.498	-0.345	-0.023
-604.142	2.610	0.178	0.131
-603.128	-52.315	-0.083	-0.039
-602.113	-123.906	-0.256	-0.041
-601.098	197.671	0.158	0.245
-600.084	-101.867	0.373	-0.091
-599.069	6.042	-0.145	-0.109
-598.055	-46.898	-0.218	-0.108
-597.040	-200.000	-0.006	-0.173
-596.025	355.262	0.029	0.059
-595.011	-89.346	0.081	-0.024
-593.996	291.975	-0.111	0.204
-592.982	70.111	-0.267	-0.280
-591.967	120.632	-0.117	0.148
-590.952	-15.125	-0.250	0.163
-589.938	-134.037	0.273	0.034
-588.923	119.360	0.237	0.297
-587.909	84.874	0.109	-0.121
-586.894	243.915	0.054	0.092
-585.879	-200.000	0.004	-0.025
-584.865	-77.010	-0.313	-0.111
-583.850	197.686	-0.104	0.161
-582.836	-66.041	0.281	-0.114
-581.821	23.889	0.115	0.096
-580.806	-200.000	0.003	0.053
-579.792	-89.583	0.258	0.077
-578.777	-11.684	0.177	0.118
-577.763	281.589	-0.127	-0.230
-576.748	-200.000	0.104	-0.497
-575.733	-118.401	0.216	0.039
-574.719	-26.148	-0.119	-0.071
-573.704	-189.433	-0.174	-0.002
-572.690	-30.418	0.270	0.155
-571.675	-200.000	-0.026	-0.261
-570.661	-117.019	-0.338	0.063
-569.646	-130.637	-0.205	0.028
-568.631	0.629	0.186	0.135
-567.617	-29.612	0.047	0.027
-566.602	-40.593	0.041	0.022
-565.588	800.000	-0.120	0.349
-564.573	451.757	0.183	0.410
-563.558	35.470	0.240	0.213
-562.544	-200.000	0.013	0.146
-561.529	31.437	0.182	-0.159
-560.515	-18.561	0.212	-0.134
-559.500	417.432	0.126	-0.272
-558.485	24.531	-0.122	0.103
-557.471	-54.897	-0.491	-0.224
-556.456	-118.368	0.073	-0.013
-555.442	246.614	0.058	-0.099
-554.427	-154.565	0.248	0.017
-553.412	-127.994	0.253	-0.037
-552.398	166.335	-0.224	-0.321
-551.383	-200.000	-0.019	-0.242
-550.369	253.136	-0.090	-0.155
-549.354	16.178	-0.109	-0.087
-548.339	48.893	-0.040	-0.038
-547.325	-71.685	0.149	-0.056
-546.310	-39.790	-0.105	0.056
-545.296	-1.019	-0.278	0.199
-544.281	119.513	0.101	0.127
-543.266	800.000	-0.019	-0.062
-542.252	800.000	0.070	0.226
-541.237	-200.000	0.004	-0.134
-540.223	94.094	0.171	0.196
-539.208	-79.831	0.376	0.128
-538.193	357.634	0.064	-0.130
-537.179	192.183	-0.040	-0.062
-536.164	108.924	0.094	-0.114
-535.150	51.263	-0.081	0.078
-534.135	277.970	-0.089	0.160
-533.121	-123.957	0.324	0.052
-532.106	-106.286	0.169	0.038
-531.091	258.421	0.091	-0.159
-530.077	-64.947	0.080	-0.033
-529.062	-4.239	0.164	0.115
-528.048	800.000	-0.047	0.204
-527.033	-57.915	-0.066	-0.029
-526.018	-64.720	-0.071	0.029
-525.004	-111.670	-0.119	0.024
-523.989	-200.000	-0.022	-0.357
-522.975	98.978	-0.191	-0.223
-521.960	57.455	0.199	-0.197
-520.945	42.362	-0.202	0.186
-519.931	343.592	-0.120	0.238
-518.916	35.912	0.196	0.175
-517.902	292.592	0.121	0.223
-516.887	283.705	-0.103	-0.187
-515.872	-48.128	-0.263	-0.129
-514.858	800.000	0.109	-0.399
-513.843	5.138	-0.086	-0.064
-512.829	800.000	0.100	-0.320
-511.814	26.281	-0.295	0.249
-510.799	-200.000	0.007	-0.099
-509.785	616.548	0.102	-0.258
-508.770	-43.955	-0.156	0.079
-507.756	282.313	-0.090	0.163
-506.741	219.364	0.022	-0.035
-505.726	62.938	0.114	0.116
-504.712	800.000	-0.066	-0.190
-503.697	792.473	-0.099	-0.276
-502.683	459.354	-0.042	0.094
-501.668	-200.000	0.008	-0.063
-500.653	-101.399	-0.392	0.097
-499.639	-200.000	0.025	0.168
-498.624	-147.870	0.218	0.018
-497.610	-200.000	-0.010	-0.133
-496.595	26.877	0.228	0.193
-495.581	-45.272	-0.297	0.149
-494.566	152.437	-0.067	-0.092
-493.551	800.000	0.064	0.197
-492.537	145.263	-0.146	-0.198
-491.522	787.811	0.039	0.109
-490.508	-200.000	0.027	0.152
-489.493	-69.157	-0.061	-0.024
-488.478	-200.000	-0.020	-0.140
-487.464	37.187	0.303	-0.271
-486.449	17.365	-0.230	-0.184
-485.435	-33.817	-0.153	-0.085
-484.420	-3.270	0.315	-0.222
-483.405	-74.362	-0.452	-0.165
-482.391	-124.443	-0.095	0.015
-481.376	800.000	-0.060	0.235
-480.362	800.000	-0.055	0.184
-479.347	-200.000	-0.004	-0.380
-478.332	-10.808	-0.029	0.019
-477.318	-156.917	0.048	-0.003
-476.303	223.489	0.063	-0.103
-475.289	-70.581	-0.175	-0.067
-474.274	-20.586	0.275	0.170
-473.259	-200.000	0.032	0.276
-472.245	-24.654	0.142	-0.085
-471.230	-120.563	0.415	0.071
-470.216	196.510	0.099	0.152
-469.201	-105.560	-0.373	-0.085
-468.186	800.000	0.208	0.591
-467.172	-152.428	0.300	-0.022
-466.157	39.111	-0.438	-0.395
-465.143	-17.831	-0.283	-0.179
-464.128	42.081	0.316	-0.289
-463.113	51.362	0.099	0.095
-462.099	-90.040	0.401	0.118
-461.084	-45.478	-0.473	-0.236
-460.070	174.785	-0.178	0.260
-459.055	-98.958	-0.063	-0.016
-458.040	800.000	-0.062	-0.222
-457.026	-133.894	-0.304	0.038
-456.011	-150.990	-0.091	-0.007
-454.997	-167.329	0.288	0.012
-453.982	800.000	0.133	-0.424
-452.968	63.638	-0.298	0.301
-451.953	-200.000	-0.036	0.172
-450.938	-200.000	0.020	-0.221
-449.924	286.035	-0.120	-0.219
-448.909	17.339	0.100	-0.080
-447.895	-107.108	0.191	-0.043
-446.880	186.273	-0.182	0.274
-445.865	-37.831	-0.096	-0.052
-444.851	256.749	0.115	0.199
-443.836	-15.183	-0.067	0.043
-442.822	-52.501	-0.321	-0.150
-441.807	23.956	0.168	-0.140
-440.792	-102.950	0.118	-0.028
-439.778	-181.460	-0.669	0.013
-438.763	93.974	0.144	0.164
-437.749	252.310	-0.126	0.216
-436.734	-141.661	0.096	0.010
-435.719	-69.228	-0.348	0.135
-434.705	-200.000	0.067	-0.408
-433.690	187.757	-0.055	0.083
-432.676	389.621	-0.038	0.080
-431.661	-23.328	-0.323	0.196
-430.646	-181.015	-0.205	-0.004
-429.632	274.236	-0.155	-0.277
-428.617	564.951	-0.098	-0.238
-427.603	-106.871	0.109	-0.024
-426.588	376.269	0.044	0.090
-425.573	-95.548	-0.263	-0.071
-424.559	-38.923	0.540	0.287
-423.544	-137.368	-0.293	0.034
-422.530	-200.000	0.061	-0.314
-421.515	-90.458	-0.173	-0.051
-420.500	66.175	0.207	-0.212
-419.486	-119.723	-0.099	0.017
-418.471	-6.686	0.264	-0.181
-417.457	-122.930	-0.141	-0.023
-416.442	477.697	0.070	0.159
-415.428	-135.419	-0.233	-0.028
-414.413	-38.429	-0.245	-0.131
-413.398	-42.725	0.120	-0.061
-412.384	149.690	-0.249	0.340
-411.369	-79.448	-0.329	0.112
-410.355	-81.366	0.101	-0.034
-409.340	6.592	0.214	0.160
-408.325	-200.000	0.017	0.303
-407.311	93.770	-0.081	0.093
-406.296	42.511	-0.327	0.300
-405.282	-200.000	0.021	0.151
-404.267	-144.480	-0.162	0.015
-403.252	48.987	0.185	-0.175
-402.238	568.741	-0.044	-0.108
-401.223	62.746	0.111	0.111
-400.209	-91.367	0.173	-0.050
-399.194	-200.000	0.048	-0.221
-398.179	-45.174	0.219	-0.110
-397.165	308.083	-0.067	0.125
-396.150	592.539	-0.063	0.158
-395.136	-121.339	-0.204	-0.034
-394.121	171.044	0.163	0.235
-393.106	-91.407	-0.355	0.102
-392.092	706.816	-0.057	-0.153
-391.077	382.461	-0.116	0.241
-390.063	65.719	-0.175	0.179
-389.048	123.461	-0.029	0.037
-388.033	-55.790	-0.405	-0.182
-387.019	-109.969	0.055	-0.012
-386.004	-200.000	-0.058	-0.258
-384.990	-78.877	0.274	-0.094
-383.975	662.797	0.067	-0.174
-382.960	-200.000	-0.024	-0.321
-381.946	49.508	-0.094	-0.089
-380.931	154.868	0.217	-0.300
-379.917	546.831	-0.040	-0.096
-378.902	148.969	-0.241	-0.328
-377.888	-90.557	-0.107	0.031
-376.873	51.389	0.206	-0.197
-375.858	158.859	-0.132	0.185
-374.844	-149.165	0.230	0.019
-373.829	-200.000	-0.007	-0.134
-372.815	-144.163	-0.207	0.019
-371.800	800.000	-0.063	-0.180
-370.785	-200.000	-0.003	0.290
-369.771	-131.475	-0.364	-0.048
-368.756	-127.785	-0.182	0.026
-367.742	-140.312	0.187	-0.020
-366.727	800.000	-0.102	0.313
-365.712	-200.000	-0.033	0.387
-364.698	800.000	0.076	-0.255
-363.683	537.629	0.190	-0.455
-362.669	-200.000	0.076	0.404
-361.654	477.852	-0.047	0.107
-360.639	-62.177	-0.123	-0.051
-359.625	212.733	0.277	-0.440
-358.610	29.577	-0.075	-0.064
-357.596	-200.000	-0.002	0.057
-356.581	-65.770	0.050	-0.020
-355.566	-59.133	-0.119	-0.051
-354.552	-200.000	-0.008	0.047
-353.537	48.602	-0.060	0.056
-352.523	275.385	0.062	-0.110
-351.508	200.479	-0.056	0.086
-350.493	257.120	-0.031	-0.053
-349.479	259.585	-0.057	-0.099
-348.464	180.392	-0.196	-0.289
-347.450	800.000	-0.077	-0.288
-346.435	123.988	0.143	-0.181
-345.420	334.480	-0.076	0.148
-344.406	189.942	0.178	0.268
-343.391	-55.333	-0.136	0.061
-342.377	-200.000	0.016	0.146
-341.362	800.000	-0.104	-0.394
-340.348	-138.617	-0.354	0.039
-339.333	-7.051	0.148	0.101
-338.318	95.292	0.130	0.149
-337.304	-6.502	0.237	0.162
-336.289	800.000	-0.063	-0.206
-335.275	-182.555	-0.105	-0.002
-334.260	-200.000	-0.033	0.234
-333.245	-116.743	-0.386	0.071
-332.231	428.828	-0.118	-0.257
-331.216	-103.964	0.145	-0.034
-330.202	563.741	0.098	-0.238
-329.187	366.920	-0.034	0.070
-328.172	-200.000	0.025	0.297
-327.158	285.334	0.082	-0.148
-326.143	-29.985	-0.087	0.050
-325.129	800.000	0.036	0.115
-324.114	64.622	0.288	-0.291
-323.099	87.857	0.046	-0.052
-322.085	41.828	-0.273	0.249
-321.070	21.934	0.129	-0.105
-320.056	-126.113	-0.086	-0.013
-319.041	-124.755	0.309	-0.048
-318.026	442.695	0.099	-0.219
-317.012	800.000	-0.023	0.076
-315.997	-74.353	-0.170	-0.062
-314.983	-39.960	0.233	0.122
-313.968	586.167	0.149	0.368
-312.953	62.699	-0.108	0.109
-311.939	125.993	0.430	-0.545
-310.924	216.861	-0.223	0.356
-309.910	296.847	0.098	-0.181
-308.895	-194.854	-0.247	-0.002
-307.880	-91.692	0.294	-0.084
-306.866	-89.208	-0.151	0.045
-305.851	-200.000	0.011	0.124
-304.837	-115.781	0.128	-0.024
-303.822	122.602	0.170	-0.213
-302.807	59.867	0.088	0.087
-301.793	-9.661	-0.211	-0.141
-300.778	667.966	-0.065	-0.169
-299.764	292.448	-0.195	0.357
-298.749	138.555	-0.038	0.050
-297.735	-59.054	-0.110	-0.048
-296.720	3.627	0.070	-0.052
-295.705	-147.640	-0.260	0.022
-294.691	-69.753	-0.167	-0.064
-293.676	-6.947	0.334	0.227
-292.662	-95.758	-0.164	-0.044
-291.647	-157.813	0.142	0.008
-290.632	-153.285	0.498	0.035
-289.618	-157.346	0.184	0.011
-288.603	7.986	0.325	-0.244
-287.589	97.075	-0.092	0.105
-286.574	-47.566	0.156	-0.076
-285.559	-46.322	0.211	0.104
-284.545	-134.402	0.174	-0.021
-283.530	800.000	-0.033	-0.101
-282.516	37.517	-0.212	-0.189
-281.501	211.716	-0.096	-0.152
-280.486	-200.000	0.001	0.205
-279.472	-33.388	-0.298	0.165
-278.457	60.109	0.234	0.232
-277.443	800.000	0.089	0.303
-276.428	-78.530	-0.054	0.019
-275.413	541.208	0.051	-0.122
-274.399	-200.000	-0.005	-0.070
-273.384	32.308	-0.243	0.210
-272.370	-99.678	-0.323	-0.081
-271.355	-187.219	0.370	0.005
-270.340	21.574	-0.133	-0.108
-269.326	159.508	0.028	0.039
-268.311	-132.192	0.267	0.035
-267.297	800.000	-0.058	0.201
-266.282	-42.948	0.231	0.118
-265.267	58.123	0.174	-0.171
-264.253	132.675	0.080	0.103
-263.238	-127.845	0.055	-0.008
-262.224	72.819	0.128	0.133
-261.209	180.041	0.145	-0.213
-260.195	-135.137	-0.133	-0.016
-259.180	-106.772	0.253	-0.056
-258.165	-134.573	-0.155	0.019
-257.151	800.000	0.040	-0.138
-256.136	800.000	0.012	0.046
-255.122	-59.855	0.065	0.028
-254.107	800.000	0.107	0.311
-253.092	27.346	-0.133	-0.112
-252.078	-200.000	0.006	0.220
-251.063	390.008	-0.097	0.200
-250.049	-200.000	-0.050	-0.226
-249.034	-25.121	-0.268	0.159
-248.019	-46.420	0.031	0.015
-247.005	-168.696	0.093	-0.004
-245.990	-35.014	-0.340	-0.186
-244.976	-127.325	0.428	-0.063
-243.961	-200.000	-0.009	0.257
-242.946	-200.000	-0.017	0.107
-241.932	292.382	-0.053	-0.096
-240.917	-140.890	-0.206	-0.021
-239.903	-98.760	0.243	0.062
-238.888	-71.565	0.275	0.103
-237.873	-70.061	-0.113	0.043
-236.859	-106.390	0.169	-0.038
-235.844	-42.282	-0.071	0.036
-234.830	-200.000	0.023	-0.422
-233.815	800.000	0.074	-0.237
-232.800	-43.061	0.236	-0.120
-231.786	165.356	0.193	0.273
-230.771	-48.413	-0.161	-0.078
-229.757	43.217	-0.235	-0.215
-228.742	207.874	-0.177	0.277
-227.727	-200.000	-0.021	-0.161
-226.713	800.000	0.031	0.104
-225.698	-151.331	-0.103	0.008
-224.684	175.194	0.329	0.477
-223.669	111.645	-0.106	-0.128
-222.655	-67.380	-0.207	-0.082
-221.640	-27.771	0.189	-0.110
-220.625	14.905	0.230	-0.180
-219.611	-44.066	-0.084	-0.042
-218.596	269.190	-0.121	0.212
-217.582	304.071	0.165	-0.307
-216.567	-86.565	0.186	0.057
-215.552	265.369	-0.028	-0.048
-214.538	115.888	0.133	0.163
-213.523	354.499	-0.122	0.243
-212.509	-175.939	-0.429	-0.011
-211.494	493.007	0.055	-0.127
-210.479	-66.053	0.245	0.098
-209.465	110.939	-0.148	0.179
-208.450	-200.000	0.016	-0.084
-207.436	-72.523	0.082	0.030
-206.421	-200.000	-0.009	-0.106
-205.406	55.297	0.100	-0.097
-204.392	800.000	-0.019	0.083
-203.377	-159.515	-0.088	-0.005
-202.363	-200.000	-0.014	-0.094
-201.348	-42.539	-0.159	-0.081
-200.333	-56.773	0.110	0.049
-199.319	161.048	-0.117	0.163
-198.304	34.821	-0.143	0.125
-197.290	800.000	0.022	0.092
-196.275	-200.000	0.009	-0.272
-195.260	800.000	0.060	-0.202
-194.246	-138.282	0.300	-0.033
-193.231	20.570	0.214	-0.173
-192.217	-124.640	0.603	0.093
-191.202	-87.834	0.046	0.014
-190.187	-152.528	0.317	-0.023
-189.173	-4.874	0.109	-0.075
-188.158	502.492	0.103	0.237
-187.144	800.000	-0.042	-0.134
-186.129	800.000	-0.046	-0.158
-185.114	-200.000	-0.018	0.248
-184.100	0.267	-0.076	0.054
-183.085	800.000	-0.053	0.196
-182.071	-23.691	0.177	0.106
-181.056	615.294	0.084	0.209
-180.042	800.000	0.107	-0.359
-179.027	-99.153	0.163	-0.041
-178.012	800.000	0.049	0.141
-176.998	-200.000	-0.043	0.364
-175.983	800.000	0.028	-0.096
-174.969	-122.508	0.099	0.016
-173.954	-200.000	-0.043	0.296
-172.939	377.905	-0.109	-0.223
-171.925	28.058	-0.316	-0.266
-170.910	35.101	0.350	-0.306
-169.896	800.000	-0.017	0.064
-168.881	-28.296	0.226	0.130
-167.866	800.000	0.017	0.060
-166.852	16.595	0.186	-0.147
-165.837	329.421	0.056	-0.107
-164.823	-200.000	-0.050	-0.404
-163.808	-200.000	-0.017	0.412
-162.793	133.361	0.131	-0.169
-161.779	192.575	-0.104	-0.156
-160.764	449.460	-0.128	0.282
-159.750	-73.921	0.155	0.056
-158.735	465.035	0.093	-0.207
-157.720	136.115	0.031	-0.041
-156.706	-79.066	0.221	-0.075
-155.691	-22.262	-0.066	-0.040
-154.677	800.000	0.098	0.286
-153.662	-162.553	-0.268	-0.013
-152.647	-117.239	0.080	-0.015
-151.633	-135.158	0.304	0.036
-150.618	-13.873	-0.290	0.187
-149.604	800.000	0.152	0.447
-148.589	-15.019	0.097	-0.062
-147.574	800.000	-0.077	0.269
-146.560	237.704	0.234	0.387
-145.545	-88.923	-0.060	0.018
-144.531	-200.000	-0.075	-0.649
-143.516	-200.000	0.057	-0.392
-142.502	121.910	0.123	0.153
-141.487	-120.375	0.266	0.045
-140.472	18.521	0.254	0.203
-139.458	-200.000	0.003	0.269
-138.443	-43.997	-0.353	0.177
-137.429	-200.000	0.036	0.231
-136.414	545.197	0.120	0.285
-135.399	-85.662	0.123	-0.038
-134.385	-129.690	0.115	-0.016
-133.370	-200.000	0.011	-0.233
-132.356	-200.000	-0.005	0.037
-131.341	800.000	0.082	-0.346
-130.326	-124.271	0.218	-0.034
-129.312	269.270	0.154	-0.269
-128.297	24.397	0.108	0.089
-127.283	726.888	0.084	-0.224
-126.268	-109.659	0.080	0.017
-125.253	51.207	0.103	-0.097
-124.239	225.166	0.066	-0.106
-123.224	800.000	-0.069	0.257
-122.210	-14.665	0.112	0.072
-121.195	-93.856	0.086	-0.024
-120.180	31.459	-0.211	-0.181
-119.166	-81.408	-0.147	-0.048
-118.151	800.000	-0.005	-0.019
-117.137	-24.133	-0.255	0.152
-116.122	800.000	0.016	0.055
-115.107	-200.000	-0.000	-0.214
-114.093	800.000	0.158	-0.482
-113.078	-21.152	-0.087	-0.053
-112.064	-200.000	-0.018	0.090
-111.049	-200.000	-0.030	-0.202
-110.034	444.166	-0.087	-0.190
-109.020	301.775	0.046	0.084
-108.005	-147.340	-0.303	-0.026
-106.991	551.900	0.091	0.217
-105.976	-200.000	-0.035	-0.209
-104.962	70.544	-0.123	-0.127
-103.947	-120.660	-0.216	-0.036
-102.932	23.264	0.153	0.125
-101.918	-170.718	0.181	-0.006
-100.903	22.977	0.243	0.198
-99.889	195.376	0.267	0.404
-98.874	245.346	-0.083	0.139
-97.859	24.657	0.175	-0.144
-96.845	-200.000	0.007	-0.215
-95.830	-67.331	0.129	0.051
-94.816	77.795	0.227	0.241
-93.801	124.735	0.055	0.069
-92.786	225.161	-0.097	0.155
-91.772	-129.932	-0.234	-0.032
-90.757	312.396	-0.133	-0.249
-89.743	-80.907	0.240	0.079
-88.728	-98.646	-0.347	-0.088
-87.713	317.604	-0.169	0.318
-86.699	-39.891	0.180	-0.094
-85.684	-200.000	0.031	0.190
-84.670	-145.930	-0.144	-0.013
-83.655	36.604	-0.081	-0.071
-82.640	800.000	0.035	-0.109
-81.626	-200.000	0.058	0.356
-80.611	-43.733	-0.125	0.063
-79.597	-136.999	0.174	-0.020
-78.582	82.467	0.291	-0.314
-77.567	92.990	-0.131	0.148
-76.553	-159.964	0.412	-0.022
-75.538	-6.196	0.131	-0.089
-74.524	800.000	-0.035	-0.103
-73.509	402.268	0.175	-0.365
-72.494	-111.163	0.378	0.077
-71.480	-200.000	0.023	-0.187
-70.465	-23.132	-0.263	-0.158
-69.451	-35.915	0.220	-0.118
-68.436	22.684	0.067	0.055
-67.422	-121.341	-0.334	0.055
-66.407	-51.604	0.112	-0.052
-65.392	146.369	-0.060	0.080
-64.378	96.524	-0.136	0.155
-63.363	-103.183	0.165	-0.039
-62.349	-137.140	0.183	0.021
-61.334	88.766	-0.780	-0.863
-60.319	-31.157	0.597	0.335
-59.305	-200.000	-0.171	-0.843
-58.290	78.159	0.796	0.845
-57.276	289.334	0.754	1.358
-56.261	-200.000	97.579	574.307
-55.246	611.584	1409.451	3501.950
-54.232	181.552	2625.596	3837.993
-53.217	109.980	2345.384	2795.986
-52.203	40.627	2090.469	1871.641
-51.188	35.661	2003.230	1748.427
-50.173	34.077	1985.500	1718.595
-49.159	48.576	2037.277	1896.472
-48.144	51.134	2056.127	1937.377
-47.130	36.485	2014.601	1765.607
-46.115	34.060	2002.324	1732.723
-45.100	33.915	1999.674	1729.041
-44.086	33.890	1996.827	1726.286
-43.071	33.902	1993.841	1723.746
-42.057	33.819	1991.908	1721.254
-41.042	33.847	1990.158	1719.929
-40.027	33.904	1988.123	1718.609
-39.013	33.907	1986.277	1716.978
-37.998	33.924	1984.380	1715.421
-36.984	33.877	1982.923	1713.670
-35.969	34.012	1980.218	1712.478
-34.954	33.993	1977.923	1710.257
-33.940	33.879	1977.662	1708.937
-32.925	33.993	1975.589	1708.100
-31.911	34.012	1973.664	1706.542
-30.896	33.984	1971.900	1704.701
-29.881	33.970	1970.207	1703.044
-28.867	34.039	1969.161	1702.687
-27.852	34.006	1967.071	1700.513
-26.838	34.013	1965.281	1698.966
-25.823	34.040	1963.057	1697.214
-24.809	34.001	1962.018	1695.902
-23.794	33.998	1959.888	1693.969
-22.779	33.996	1957.973	1692.225
-21.765	34.067	1956.235	1691.286
-20.750	34.020	1955.021	1689.756
-19.736	34.008	1953.609	1688.362
-18.721	34.036	1952.136	1687.265
-17.706	34.009	1950.581	1685.619
-16.692	34.027	1948.563	1683.963
-15.677	33.979	1947.051	1682.172
-14.663	34.039	1945.514	1681.305
-13.648	34.048	1944.299	1680.269
-12.633	34.073	1943.104	1679.387
-11.619	33.978	1942.191	1677.697
-10.604	33.981	1940.574	1676.259
-9.590	34.013	1939.082	1675.184
-8.575	34.033	1937.802	1674.191
-7.560	34.019	1936.647	1672.998
-6.546	34.104	1934.874	1672.151
-5.531	34.179	1933.832	1671.839
-4.517	34.059	1933.214	1670.184
-3.502	34.014	1931.984	1668.662
-2.487	34.083	1929.910	1667.409
-1.473	34.036	1929.586	1666.657
-0.458	34.153	1924.724	1663.409
0.556	33.024	1904.698	1635.897
1.571	28.751	1885.659	1582.675
2.586	24.695	1908.114	1565.931
3.600	23.590	1944.073	1585.434
4.615	22.932	1939.253	1575.505
5.629	17.981	1837.984	1451.143
6.644	9.474	1719.182	1289.344
7.659	5.401	1681.997	1229.378
8.673	5.067	1678.745	1224.275
9.688	4.943	1677.514	1222.296
10.702	4.965	1675.681	1221.018
11.717	4.955	1672.904	1218.810
12.731	5.392	1672.366	1221.724
13.746	11.215	1686.832	1277.969
14.761	18.144	1701.290	1343.431
15.775	19.374	1701.371	1353.029
16.790	18.276	1697.289	1341.067
17.804	17.125	1694.065	1329.396
18.819	16.072	1690.852	1318.524
19.834	15.414	1688.594	1311.500
20.848	15.131	1686.708	1307.715
21.863	14.920	1685.484	1305.004
22.877	14.657	1683.526	1301.320
23.892	14.434	1682.099	1298.369
24.907	14.340	1680.813	1296.531
25.921	14.266	1679.957	1295.180
26.936	14.254	1679.278	1294.446
27.950	14.355	1678.475	1294.500
28.965	14.329	1677.775	1293.639
29.980	14.496	1677.133	1294.325
30.994	14.488	1676.174	1293.407
32.009	14.538	1675.014	1292.790
33.023	14.622	1674.090	1292.613
34.038	14.664	1672.991	1291.971
35.053	14.702	1671.145	1290.724
36.067	14.543	1670.057	1288.545
37.082	14.501	1669.650	1287.796
38.096	14.524	1668.309	1286.823
39.111	14.591	1667.117	1286.302
40.126	14.510	1667.149	1285.590
41.140	14.508	1665.604	1284.270
42.155	14.428	1664.449	1282.654
43.169	14.440	1661.883	1280.653
44.184	14.347	1661.462	1279.501
45.199	14.293	1660.437	1278.185
46.213	14.282	1658.804	1276.728
47.228	14.287	1658.512	1276.431
48.242	14.327	1657.169	1275.590
49.257	14.531	1655.456	1275.721
50.271	14.459	1654.669	1274.444
51.286	14.421	1653.805	1273.382
52.301	14.502	1652.120	1272.591
53.315	14.408	1651.223	1271.069
54.330	14.450	1648.938	1269.517
55.344	14.289	1647.488	1267.064
56.359	14.329	1645.980	1266.091
57.374	14.295	1644.915	1264.906
58.388	14.396	1643.834	1264.724
59.403	14.288	1642.621	1262.864
60.417	14.263	1641.053	1261.357
61.432	14.219	1640.075	1260.157
62.447	14.221	1639.053	1259.278
63.461	14.231	1637.585	1258.114
64.476	14.197	1636.228	1256.705
65.490	14.059	1635.695	1255.144
66.505	14.110	1634.733	1254.675
67.520	14.261	1633.502	1254.761
68.534	14.230	1632.212	1253.428
69.549	14.215	1631.120	1252.361
70.563	14.188	1630.106	1251.267
71.578	14.242	1629.029	1250.735
72.593	14.145	1627.890	1249.023
73.607	14.104	1627.222	1248.094
74.622	14.065	1625.994	1246.751
75.636	14.098	1624.780	1245.957
76.651	14.057	1623.957	1244.910
77.666	14.146	1622.858	1244.618
78.680	14.148	1622.015	1243.877
79.695	14.137	1621.581	1243.351
80.709	14.175	1620.388	1242.611
81.724	14.219	1619.713	1242.314
82.739	14.236	1619.020	1241.795
83.753	14.353	1617.761	1241.596
84.768	14.435	1616.696	1241.280
85.782	14.427	1616.255	1240.773
86.797	14.506	1615.606	1240.754
87.812	14.545	1614.409	1240.015
88.826	14.563	1612.914	1238.890
89.841	14.383	1611.769	1236.559
90.855	14.481	1610.802	1236.438
91.870	14.437	1609.942	1235.346
92.884	14.601	1609.268	1235.934
93.899	14.516	1607.851	1234.107
94.914	14.504	1606.787	1233.089
95.928	14.500	1605.876	1232.253
96.943	14.636	1604.093	1231.779
97.957	14.585	1603.336	1230.710
98.972	14.533	1601.500	1228.813
99.987	14.530	1599.829	1227.396
101.001	14.511	1598.180	1225.887
102.016	14.485	1596.764	1224.498
103.030	14.526	1595.113	1223.425
104.045	14.501	1594.169	1222.413
105.060	14.488	1592.978	1221.293
106.074	14.514	1591.280	1220.074
107.089	14.351	1589.769	1217.618
108.103	14.281	1588.228	1215.818
109.118	14.206	1586.891	1214.141
110.133	14.175	1584.565	1212.029
111.147	14.184	1583.695	1211.320
112.162	14.288	1582.204	1210.825
113.176	14.209	1580.979	1209.206
114.191	14.249	1579.414	1208.192
115.206	14.328	1578.241	1207.763
116.220	14.338	1577.097	1206.851
117.235	14.333	1575.769	1205.692
118.249	14.343	1574.488	1204.677
119.264	14.331	1573.022	1203.363
120.279	14.257	1571.990	1201.933
121.293	14.182	1570.514	1200.162
122.308	14.218	1568.716	1198.936
123.322	14.207	1567.222	1197.614
124.337	14.191	1565.276	1195.901
125.352	14.158	1564.300	1194.818
126.366	14.125	1563.331	1193.728
127.381	14.155	1562.155	1192.947
128.395	14.170	1561.032	1192.090
129.410	14.209	1559.608	1191.172
130.424	14.168	1558.405	1189.856
131.439	14.238	1556.745	1188.984
132.454	14.328	1555.541	1188.599
133.468	14.371	1554.164	1187.750
134.483	14.302	1553.187	1186.406
135.497	14.362	1551.792	1185.664
136.512	14.331	1550.163	1184.092
137.527	14.399	1548.800	1183.430
138.541	14.426	1547.457	1182.494
139.556	14.437	1546.370	1181.636
140.570	14.455	1545.085	1180.673
141.585	14.504	1543.592	1179.778
142.600	14.555	1542.639	1179.305
143.614	14.555	1541.956	1178.676
144.629	14.655	1540.135	1177.887
145.643	14.624	1538.835	1176.570
146.658	14.639	1538.010	1175.941
147.673	14.704	1535.810	1174.612
148.687	14.573	1534.368	1172.486
149.702	14.506	1533.170	1170.998
150.716	14.510	1531.342	1169.524
151.731	14.642	1529.857	1169.209
152.746	14.498	1529.000	1167.447
153.760	14.451	1527.628	1165.964
154.775	14.501	1526.338	1165.228
155.789	14.544	1524.721	1164.188
156.804	14.597	1524.017	1163.915
157.819	14.597	1523.188	1163.182
158.833	14.569	1521.775	1161.808
159.848	14.844	1519.813	1162.119
160.862	14.776	1519.172	1161.052
161.877	14.851	1517.662	1160.314
162.892	14.679	1516.655	1158.250
163.906	14.534	1515.862	1156.539
164.921	14.596	1514.251	1155.635
165.935	14.563	1513.029	1154.369
166.950	14.596	1512.155	1153.831
167.964	14.683	1510.984	1153.434
168.979	14.661	1509.972	1152.408
169.994	14.648	1508.961	1151.444
171.008	14.621	1507.860	1150.319
172.023	14.776	1506.571	1150.303
173.037	14.824	1505.511	1149.718
174.052	14.806	1504.571	1148.774
175.067	14.855	1503.595	1148.269
176.081	14.839	1502.068	1146.888
177.096	14.689	1501.041	1144.975
178.110	14.696	1499.954	1144.094
179.125	14.741	1498.450	1143.152
180.140	14.778	1497.663	1142.702
181.154	14.801	1496.613	1141.958
182.169	14.769	1495.776	1141.001
183.183	14.856	1494.059	1140.180
184.198	14.870	1493.192	1139.513
185.213	14.860	1492.124	1138.533
186.227	14.919	1490.804	1137.821
187.242	14.956	1490.317	1137.605
188.256	15.103	1488.411	1137.043
189.271	14.995	1487.975	1135.880
190.286	14.997	1486.860	1134.940
191.300	15.058	1485.633	1134.320
192.315	14.801	1484.604	1131.694
193.329	14.706	1482.953	1129.692
194.344	14.736	1481.751	1128.879
195.359	14.726	1481.021	1128.156
196.373	14.783	1480.053	1127.701
197.388	14.915	1478.827	1127.555
198.402	15.015	1478.262	1127.701
199.417	14.957	1477.305	1126.480
200.432	15.104	1476.245	1126.561
201.446	15.204	1475.193	1126.331
202.461	15.307	1474.273	1126.222
203.475	15.320	1473.096	1125.306
204.490	15.236	1472.257	1124.008
205.504	15.320	1471.107	1123.594
206.519	15.164	1470.074	1121.658
207.534	15.132	1468.814	1120.383
208.548	15.093	1468.087	1119.467
209.563	15.110	1466.759	1118.474
210.577	15.137	1465.338	1117.468
211.592	15.205	1464.415	1117.117
212.607	15.106	1464.180	1116.183
213.621	15.233	1463.310	1116.267
214.636	15.255	1462.328	1115.561
215.650	15.325	1461.091	1114.989
216.665	15.250	1460.327	1113.807
217.680	15.425	1459.270	1114.062
218.694	15.379	1458.740	1113.255
219.709	15.457	1457.208	1112.504
220.723	15.382	1456.777	1111.578
221.738	15.445	1455.911	1111.239
222.753	15.442	1454.597	1110.117
223.767	15.403	1453.844	1109.188
224.782	15.479	1452.484	1108.555
225.796	15.485	1451.852	1108.013
226.811	15.456	1451.213	1107.233
227.826	15.621	1450.062	1107.347
228.840	15.617	1448.902	1106.339
229.855	15.462	1448.460	1104.881
230.869	15.488	1447.181	1103.979
231.884	15.394	1446.252	1102.557
232.899	15.416	1445.460	1101.998
233.913	15.510	1443.750	1101.212
234.928	15.392	1442.713	1099.550
235.942	15.306	1441.861	1098.238
236.957	15.431	1440.004	1097.549
237.972	15.443	1439.044	1096.798
238.986	15.368	1438.238	1095.596
240.001	15.409	1437.316	1095.066
241.015	15.458	1436.146	1094.392
242.030	15.522	1435.042	1093.873
243.045	15.548	1433.815	1093.011
244.059	15.535	1433.328	1092.460
245.074	15.619	1432.816	1092.517
246.088	15.628	1431.521	1091.495
247.103	15.642	1431.063	1091.139
248.117	15.772	1429.610	1090.773
249.132	15.748	1429.083	1090.122
250.147	15.774	1428.504	1089.755
251.161	15.848	1427.998	1089.750
252.176	15.995	1427.295	1090.066
253.190	15.966	1426.408	1089.103
254.205	16.045	1425.673	1088.961
255.220	16.161	1424.857	1088.987
256.234	16.097	1424.120	1087.912
257.249	16.043	1423.295	1086.837
258.263	16.177	1422.014	1086.629
259.278	16.172	1421.100	1085.803
260.293	16.185	1420.489	1085.323
261.307	16.065	1420.144	1084.191
262.322	16.172	1419.372	1084.192
263.336	16.229	1418.021	1083.430
264.351	16.335	1416.873	1083.141
265.366	16.259	1416.215	1082.052
266.380	16.239	1415.478	1081.264
267.395	16.250	1414.051	1080.150
268.409	16.297	1413.616	1080.023
269.424	16.264	1412.762	1079.062
270.439	16.244	1411.526	1077.894
271.453	16.204	1410.625	1076.857
272.468	16.261	1409.275	1076.093
273.482	16.164	1408.953	1075.137
274.497	16.176	1407.972	1074.371
275.512	16.186	1407.223	1073.768
276.526	16.283	1405.899	1073.279
277.541	16.201	1405.153	1072.092
278.555	16.184	1404.683	1071.530
279.570	16.272	1403.668	1071.222
280.585	16.318	1402.734	1070.706
281.599	16.460	1401.917	1070.883
282.614	16.491	1400.789	1070.125
283.628	16.370	1399.970	1068.641
284.643	16.318	1399.134	1067.575
285.657	16.390	1397.908	1067.004
286.672	16.354	1397.288	1066.206
287.687	16.344	1396.024	1065.086
288.701	16.308	1395.010	1063.993
289.716	16.393	1394.347	1063.924
290.730	16.547	1393.010	1063.779
291.745	16.447	1391.946	1062.246
292.760	16.416	1391.541	1061.646
293.774	16.502	1390.442	1061.253
294.789	16.459	1389.574	1060.227
295.803	16.513	1389.086	1060.102
296.818	16.579	1388.349	1059.858
297.833	16.561	1387.247	1058.810
298.847	16.460	1386.118	1057.223
299.862	16.579	1384.753	1056.831
300.876	16.565	1383.764	1055.900
301.891	16.548	1382.864	1055.011
302.906	16.578	1382.048	1054.482
303.920	16.577	1381.588	1054.029
304.935	16.679	1380.930	1054.071
305.949	16.775	1380.278	1054.082
306.964	16.769	1379.412	1053.286
307.979	16.910	1378.010	1053.001
308.993	16.841	1377.316	1051.946
310.008	16.721	1376.495	1050.485
311.022	16.863	1374.945	1050.086
312.037	16.882	1374.248	1049.578
313.052	16.870	1373.738	1049.021
314.066	16.837	1372.930	1048.107
315.081	16.778	1371.192	1046.323
316.095	16.684	1370.326	1044.990
317.110	16.700	1369.239	1044.171
318.125	16.612	1368.660	1043.094
319.139	16.614	1367.575	1042.184
320.154	16.748	1366.769	1042.305
321.168	16.792	1365.279	1041.347
322.183	16.712	1364.269	1039.988
323.197	16.770	1363.424	1039.608
324.212	16.727	1363.153	1039.047
325.227	16.893	1361.998	1039.095
326.241	16.896	1361.241	1038.443
327.256	16.962	1360.025	1037.824
328.270	16.912	1359.450	1036.991
329.285	16.880	1358.294	1035.821
330.300	16.901	1357.057	1034.912
331.314	16.881	1356.467	1034.251
332.329	16.960	1355.719	1034.069
333.343	16.951	1354.559	1033.038
334.358	16.972	1353.638	1032.376
335.373	16.980	1353.124	1031.938
336.387	16.991	1352.055	1031.098
337.402	16.994	1351.680	1030.743
338.416	17.076	1351.071	1030.685
339.431	17.125	1350.233	1030.247
340.446	17.132	1349.830	1029.895
341.460	17.097	1348.812	1028.810
342.475	17.197	1347.726	1028.498
343.489	17.261	1346.974	1028.220
344.504	17.275	1346.045	1027.505
345.519	17.281	1345.396	1026.953
346.533	17.315	1344.285	1026.220
347.548	17.368	1343.217	1025.637
348.562	17.487	1342.031	1025.358
349.577	17.426	1341.714	1024.657
350.592	17.407	1341.513	1024.299
351.606	17.403	1339.803	1022.880
352.621	17.361	1338.526	1021.561
353.635	17.254	1337.059	1019.708
354.650	17.210	1336.986	1019.299
355.665	17.297	1335.767	1018.799
356.679	17.255	1334.954	1017.839
357.694	17.328	1333.725	1017.250
358.708	17.265	1332.641	1015.951
359.723	17.393	1331.564	1015.807
360.738	17.353	1330.907	1014.980
361.752	17.464	1329.498	1014.476
362.767	17.437	1328.573	1013.519
363.781	17.441	1327.496	1012.634
364.796	17.407	1327.225	1012.135
365.810	17.592	1326.286	1012.429
366.825	17.554	1325.761	1011.712
367.840	17.577	1325.037	1011.208
368.854	17.594	1325.080	1011.247
369.869	17.640	1324.220	1010.779
370.883	17.837	1323.163	1011.047
371.898	17.731	1322.010	1009.450
372.913	17.703	1321.375	1008.712
373.927	17.597	1320.818	1007.569
374.942	17.646	1319.750	1006.956
375.956	17.688	1318.883	1006.454
376.971	17.851	1317.986	1006.642
377.986	17.703	1317.836	1005.561
379.000	17.818	1316.304	1004.985
380.015	17.796	1315.970	1004.510
381.029	17.817	1315.322	1004.047
382.044	18.000	1314.264	1004.230
383.059	17.978	1313.611	1003.510
384.073	17.951	1313.176	1002.929
385.088	17.890	1312.588	1002.034
386.102	17.993	1311.589	1001.787
387.117	18.003	1310.640	1001.035
388.132	17.956	1310.445	1000.523
389.146	17.836	1309.226	998.796
390.161	17.725	1308.146	997.237
391.175	17.851	1307.425	997.336
392.190	17.762	1307.000	996.404
393.205	17.939	1306.047	996.620
394.219	18.007	1304.848	996.017
395.234	18.021	1303.577	995.041
396.248	17.990	1302.095	993.640
397.263	17.974	1301.134	992.726
398.278	17.954	1299.467	991.252
399.292	18.074	1298.353	991.005
400.307	17.851	1297.555	989.019
401.321	17.799	1296.830	988.079
402.336	17.862	1295.289	987.182
403.350	17.857	1294.482	986.447
404.365	17.946	1293.746	986.317
405.380	17.919	1292.839	985.378
406.394	17.983	1291.893	984.943
407.409	18.046	1291.378	984.823
408.423	17.997	1290.801	984.015
409.438	18.142	1289.824	984.016
410.453	18.235	1289.181	983.972
411.467	18.250	1288.404	983.384
412.482	18.249	1287.863	982.874
413.496	18.253	1287.410	982.464
414.511	18.387	1286.352	982.339
415.526	18.405	1285.613	981.794
416.540	18.394	1284.953	981.139
417.555	18.397	1284.522	980.741
418.569	18.483	1283.377	980.272
419.584	18.424	1282.926	979.503
420.599	18.541	1282.349	979.644
421.613	137.693	1431.151	1790.517
422.628	132.695	1452.805	1790.612
