DTS Sentinel unit serial number:	SN413079Multiplexer serial number:	ORYXHardware model number:	OX4-SRSoftware version number:	ORYX F/W v4.00 Oryx Data Collector v3.7.2.0data status	okinstallation	princeton_trtdifferential loss correction	single-endedforward channel	channel 4reverse channel	N/Adate	2019/09/12time	10:03:10forward acquisition time	60.00reverse acquisition time	0.00gamma	496.2192k internal	0.2296k external	0.2296temperature offset calibration	1.0070default loss term (dB/km)	0.3790temperature slope calibration	1.0000multiplexer offset coefficient	1.0000multiplexer slope coefficient	1.0000fibre end	0.00T internal ref (°C)	36.28T ext. ref 1 (°C)	1.86T ext. ref 2 (°C)	33.15length (m)	temperature (°C)	Stokes	anti-Stokes-747.200	-113.619	0.342	-0.068
-746.185	-152.842	-0.254	-0.018
-745.171	-159.811	-0.528	0.030
-744.156	-200.000	-0.009	0.084
-743.142	11.910	0.385	0.302
-742.127	800.000	0.033	-0.140
-741.112	-18.363	-0.103	0.066
-740.098	104.121	0.193	0.232
-739.083	23.337	0.133	-0.111
-738.069	105.698	0.128	0.155
-737.054	-137.279	-0.195	-0.023
-736.039	-166.406	-0.408	0.018
-735.025	-172.532	-0.164	-0.005
-734.010	800.000	-0.066	-0.232
-732.996	800.000	-0.018	-0.064
-731.981	521.684	-0.197	-0.472
-730.966	-54.575	0.019	0.009
-729.952	261.965	0.092	-0.163
-728.937	-78.373	0.431	-0.151
-727.923	-200.000	-0.015	-0.149
-726.908	-17.647	-0.199	-0.128
-725.894	-47.679	0.130	0.064
-724.879	-9.597	0.198	0.135
-723.864	56.548	-0.337	-0.335
-722.850	672.051	0.033	-0.088
-721.835	355.675	0.019	-0.040
-720.821	800.000	0.060	-0.211
-719.806	55.691	-0.102	0.101
-718.791	-17.193	-0.329	0.212
-717.777	448.667	-0.046	0.104
-716.762	173.064	-0.243	0.357
-715.748	800.000	-0.031	0.127
-714.733	106.727	-0.160	0.193
-713.718	235.552	-0.198	0.334
-712.704	-171.583	0.308	0.010
-711.689	-200.000	-0.017	-0.316
-710.675	73.223	-0.252	-0.268
-709.660	-136.058	0.228	-0.027
-708.645	294.573	0.094	-0.176
-707.631	-116.502	-0.136	0.026
-706.616	800.000	-0.083	-0.272
-705.602	117.338	-0.072	-0.090
-704.587	-200.000	-0.031	0.142
-703.572	215.459	-0.137	-0.222
-702.558	-107.242	0.191	-0.043
-701.543	101.579	-0.121	-0.144
-700.529	19.442	0.200	0.164
-699.514	647.577	-0.039	-0.102
-698.499	95.657	-0.092	0.107
-697.485	-149.155	-0.223	0.018
-696.470	200.718	-0.040	-0.063
-695.456	-192.063	0.273	0.003
-694.441	-107.260	0.234	-0.052
-693.426	-200.000	-0.053	-0.267
-692.412	-40.488	-0.090	-0.048
-691.397	46.082	-0.211	0.199
-690.383	-163.994	-0.229	0.011
-689.368	-174.235	-0.355	-0.011
-688.354	800.000	0.049	0.159
-687.339	-200.000	-0.005	-0.212
-686.324	-120.463	0.231	-0.040
-685.310	132.762	0.057	-0.075
-684.295	-200.000	-0.050	-0.244
-683.281	800.000	0.090	0.319
-682.266	-200.000	-0.010	0.173
-681.251	38.670	-0.171	-0.156
-680.237	-54.534	0.122	0.057
-679.222	127.558	-0.175	0.227
-678.208	-200.000	-0.019	0.119
-677.193	-200.000	0.011	-0.310
-676.178	-23.006	-0.063	0.039
-675.164	233.209	0.119	-0.200
-674.149	-56.389	0.260	-0.118
-673.135	-91.138	0.122	-0.036
-672.120	-154.571	0.172	-0.012
-671.105	-26.136	-0.158	-0.094
-670.091	800.000	0.021	0.085
-669.076	22.718	-0.034	0.028
-668.062	-112.767	0.182	0.037
-667.047	-200.000	-0.055	0.295
-666.032	632.203	0.076	-0.197
-665.018	800.000	-0.018	0.060
-664.003	-121.009	0.272	0.047
-662.989	-200.000	-0.027	0.154
-661.974	-160.051	0.043	0.002
-660.959	-200.000	0.013	0.126
-659.945	16.017	0.193	0.155
-658.930	-200.000	-0.001	-0.103
-657.916	-200.000	0.000	0.114
-656.901	-200.000	0.039	-0.388
-655.886	-115.990	-0.067	-0.013
-654.872	-31.640	0.181	-0.104
-653.857	-82.519	-0.082	0.027
-652.843	800.000	0.047	-0.181
-651.828	375.124	0.109	0.225
-650.814	-200.000	0.005	-0.389
-649.799	-35.609	0.259	0.143
-648.784	-200.000	-0.038	0.249
-647.770	800.000	-0.069	-0.253
-646.755	-80.519	-0.200	-0.068
-645.741	260.229	-0.019	-0.033
-644.726	98.102	0.123	-0.144
-643.711	-32.709	0.459	0.260
-642.697	800.000	-0.046	-0.134
-641.682	800.000	0.086	-0.264
-640.668	-22.205	-0.204	0.126
-639.653	-64.651	0.250	0.103
-638.638	-9.227	0.279	0.190
-637.624	800.000	0.037	0.125
-636.609	756.663	-0.078	0.215
-635.595	-200.000	-0.002	0.111
-634.580	179.363	0.114	0.169
-633.565	-97.513	-0.226	0.060
-632.551	-185.548	0.087	0.001
-631.536	75.634	-0.153	-0.165
-630.522	360.385	-0.100	-0.204
-629.507	-200.000	-0.002	-0.046
-628.492	-51.954	-0.213	-0.100
-627.478	-200.000	0.002	-0.073
-626.463	-23.870	-0.161	-0.098
-625.449	715.773	0.028	0.076
-624.434	-131.294	0.226	-0.031
-623.419	-200.000	-0.019	-0.450
-622.405	-200.000	0.069	0.354
-621.390	45.004	-0.167	0.156
-620.376	-65.912	-0.217	0.088
-619.361	-145.873	-0.234	-0.021
-618.346	-52.161	0.050	0.024
-617.332	-99.058	0.023	-0.006
-616.317	-7.789	-0.067	0.046
-615.303	-200.000	0.040	-0.188
-614.288	-48.114	0.275	0.135
-613.273	265.329	0.088	-0.157
-612.259	106.405	-0.149	0.179
-611.244	287.105	0.126	-0.231
-610.230	-200.000	-0.001	0.007
-609.215	-6.173	-0.143	-0.099
-608.201	800.000	0.072	-0.282
-607.186	71.641	0.137	-0.144
-606.171	-128.639	-0.100	-0.014
-605.157	-19.304	0.326	0.205
-604.142	93.435	-0.186	-0.214
-603.128	91.654	0.148	-0.169
-602.113	-200.000	0.002	0.145
-601.098	41.043	-0.032	-0.030
-600.084	450.106	0.034	-0.076
-599.069	1.056	-0.161	0.117
-598.055	-200.000	-0.027	-0.125
-597.040	800.000	0.063	0.252
-596.025	-150.018	0.341	0.027
-595.011	-120.155	-0.111	-0.019
-593.996	-20.587	-0.102	-0.064
-592.982	-200.000	-0.056	-0.254
-591.967	325.619	0.176	-0.343
-590.952	-21.908	-0.194	0.120
-589.938	-200.000	0.036	0.323
-588.923	496.747	-0.079	-0.185
-587.909	262.548	0.089	-0.157
-586.894	368.395	0.078	0.160
-585.879	-37.495	0.106	-0.057
-584.865	-92.267	-0.296	-0.085
-583.850	-200.000	-0.020	-0.388
-582.836	270.452	-0.047	0.083
-581.821	-200.000	-0.025	-0.178
-580.806	-55.243	0.108	-0.049
-579.792	-106.172	0.220	-0.050
-578.777	-138.246	0.432	-0.049
-577.763	487.431	-0.050	0.116
-576.748	671.617	0.068	0.180
-575.733	-44.980	-0.209	-0.106
-574.719	-91.143	0.123	0.036
-573.704	-116.952	0.037	0.007
-572.690	-90.642	-0.363	0.106
-571.675	107.092	0.078	-0.094
-570.661	371.099	-0.061	-0.127
-569.646	514.642	0.103	-0.244
-568.631	284.098	-0.100	0.183
-567.617	-200.000	-0.003	0.095
-566.602	519.327	0.100	0.237
-565.588	141.994	0.268	-0.361
-564.573	167.728	0.217	-0.313
-563.558	-200.000	-0.009	-0.054
-562.544	-193.034	-0.233	0.002
-561.529	-200.000	0.023	-0.216
-560.515	800.000	-0.069	-0.204
-559.500	-113.528	0.074	-0.015
-558.485	800.000	0.041	-0.132
-557.471	20.486	0.231	0.189
-556.456	-192.799	-0.213	0.002
-555.442	-200.000	-0.036	-0.304
-554.427	542.399	0.093	0.225
-553.412	-200.000	0.086	-0.400
-552.398	-59.918	0.517	0.224
-551.383	-87.323	0.198	0.061
-550.369	-84.876	-0.408	0.130
-549.354	-32.905	-0.090	0.051
-548.339	-31.953	0.359	0.204
-547.325	159.550	0.039	0.055
-546.310	-105.866	-0.366	0.084
-545.296	-200.000	0.046	0.280
-544.281	-103.629	-0.640	0.152
-543.266	-148.992	0.125	-0.010
-542.252	113.376	-0.131	-0.162
-541.237	80.490	0.164	-0.179
-540.223	231.026	0.073	-0.121
-539.208	-96.576	-0.144	-0.038
-538.193	704.942	-0.114	0.305
-537.179	-144.642	0.095	-0.009
-536.164	-200.000	0.004	0.025
-535.150	67.797	0.131	0.135
-534.135	186.554	-0.103	-0.156
-533.121	-27.659	-0.298	-0.175
-532.106	-84.820	0.353	-0.112
-531.091	459.428	-0.164	-0.370
-530.077	33.323	0.137	-0.120
-529.062	-200.000	-0.012	-0.192
-528.048	56.394	0.068	0.067
-527.033	-83.833	0.113	0.037
-526.018	81.800	0.028	0.030
-525.004	32.391	0.235	0.205
-523.989	372.265	0.142	-0.293
-522.975	-9.537	0.110	-0.075
-521.960	-46.644	-0.309	-0.153
-520.945	40.680	0.048	0.044
-519.931	-61.391	0.193	0.082
-518.916	35.655	0.192	-0.170
-517.902	-30.901	0.174	-0.099
-516.887	800.000	-0.020	0.056
-515.872	646.821	0.066	-0.172
-514.858	-144.625	0.151	-0.014
-513.843	-105.205	-0.253	-0.059
-512.829	-46.703	0.076	0.038
-511.814	800.000	-0.056	-0.211
-510.799	-163.587	0.316	0.015
-509.785	800.000	-0.111	-0.405
-508.770	-94.381	0.171	-0.047
-507.756	313.188	-0.122	-0.232
-506.741	166.163	0.206	0.295
-505.726	226.451	-0.072	0.119
-504.712	338.867	-0.037	0.074
-503.697	76.066	0.184	0.197
-502.683	-116.976	-0.303	0.056
-501.668	153.262	-0.126	-0.175
-500.653	523.423	0.088	0.210
-499.639	-200.000	-0.010	-0.054
-498.624	-49.585	-0.174	-0.084
-497.610	-108.998	0.232	0.050
-496.595	-90.497	0.193	-0.057
-495.581	-138.272	-0.252	0.028
-494.566	35.453	-0.191	0.170
-493.551	21.605	0.096	-0.079
-492.537	68.769	-0.078	-0.081
-491.522	683.712	-0.038	0.101
-490.508	800.000	-0.091	0.328
-489.493	-200.000	0.011	-0.077
-488.478	-107.375	-0.214	-0.048
-487.464	624.165	-0.103	0.263
-486.449	76.878	-0.065	-0.070
-485.435	35.745	-0.059	-0.052
-484.420	800.000	0.073	0.245
-483.405	-4.783	-0.105	-0.073
-482.391	800.000	0.080	0.304
-481.376	800.000	-0.049	0.141
-480.362	177.905	0.053	0.078
-479.347	-19.624	0.181	0.113
-478.332	-122.508	-0.241	0.040
-477.318	-107.219	-0.141	0.031
-476.303	-38.889	-0.146	-0.078
-475.289	277.849	0.066	0.119
-474.274	-77.027	-0.320	-0.113
-473.259	-100.325	-0.275	0.069
-472.245	-69.713	-0.063	0.024
-471.230	-112.467	-0.231	-0.047
-470.216	800.000	0.023	-0.069
-469.201	226.217	-0.174	0.285
-468.186	-21.708	-0.118	-0.073
-467.172	-149.986	-0.029	0.002
-466.157	241.529	0.047	-0.079
-465.143	-134.444	-0.147	-0.018
-464.128	11.282	-0.184	-0.143
-463.113	-100.540	0.303	0.076
-462.099	665.226	0.078	0.204
-461.084	50.734	0.212	0.203
-460.070	800.000	0.067	0.217
-459.055	800.000	-0.051	0.204
-458.040	46.609	-0.042	0.039
-457.026	-60.695	-0.183	0.078
-456.011	800.000	-0.054	-0.198
-454.997	800.000	0.061	-0.202
-453.982	-126.089	-0.172	0.026
-452.968	-18.421	-0.091	0.057
-451.953	800.000	-0.098	-0.371
-450.938	-125.275	-0.226	0.035
-449.924	-32.756	-0.209	-0.118
-448.909	442.119	0.140	-0.311
-447.895	-200.000	-0.004	-0.098
-446.880	-87.900	-0.219	0.067
-445.865	-81.822	0.186	-0.062
-444.851	60.299	0.244	-0.243
-443.836	-12.556	0.148	-0.098
-442.822	-172.342	0.298	-0.010
-441.807	-200.000	-0.017	0.177
-440.792	-117.769	-0.066	0.012
-439.778	-200.000	0.008	0.161
-438.763	800.000	-0.028	-0.078
-437.749	49.700	0.141	-0.134
-436.734	48.899	-0.229	-0.217
-435.719	13.551	0.093	-0.073
-434.705	148.024	-0.127	0.173
-433.690	511.840	-0.080	0.188
-432.676	-114.206	-0.288	0.056
-431.661	-51.222	-0.124	0.058
-430.646	-83.892	0.406	0.130
-429.632	-9.910	-0.377	0.253
-428.617	623.542	0.032	-0.081
-427.603	177.600	0.043	0.063
-426.588	-69.487	0.199	-0.077
-425.573	-33.244	-0.427	0.238
-424.559	-200.000	-0.022	-0.168
-423.544	-200.000	-0.025	0.272
-422.530	-71.689	-0.055	-0.021
-421.515	95.510	-0.479	-0.551
-420.500	-28.397	0.263	-0.153
-419.486	-5.740	0.169	0.117
-418.471	99.826	-0.054	-0.063
-417.457	500.764	-0.133	-0.310
-416.442	286.575	0.095	-0.173
-415.428	-200.000	0.043	0.197
-414.413	-57.742	0.142	-0.063
-413.398	800.000	-0.055	-0.215
-412.384	-14.481	-0.144	0.094
-411.369	85.956	-0.065	0.073
-410.355	-200.000	-0.003	-0.262
-409.340	29.979	-0.162	-0.140
-408.325	-200.000	-0.029	0.413
-407.311	-83.579	-0.165	0.053
-406.296	-200.000	0.037	0.185
-405.282	401.029	0.072	-0.152
-404.267	-13.700	-0.169	-0.110
-403.252	-200.000	0.000	-0.014
-402.238	-158.359	-0.411	0.024
-401.223	-91.501	0.213	0.061
-400.209	-124.665	0.210	-0.033
-399.194	-71.227	0.081	0.031
-398.179	555.474	0.129	0.313
-397.165	243.029	0.108	0.182
-396.150	112.547	0.256	0.313
-395.136	-114.761	-0.289	-0.056
-394.121	349.394	0.100	-0.200
-393.106	73.248	-0.116	0.123
-392.092	-167.797	-0.348	0.014
-391.077	188.646	0.065	-0.098
-390.063	-200.000	-0.021	0.180
-389.048	800.000	0.030	0.093
-388.033	-29.668	0.275	-0.158
-387.019	-200.000	-0.044	0.268
-386.004	-29.097	0.140	0.081
-384.990	290.581	0.176	-0.322
-383.975	800.000	-0.083	0.326
-382.960	-104.863	-0.142	0.033
-381.946	-103.269	0.378	0.090
-380.931	-38.588	0.142	0.076
-379.917	-99.062	-0.258	-0.066
-378.902	-200.000	-0.014	-0.307
-377.888	11.105	0.094	-0.072
-376.873	800.000	-0.105	0.310
-375.858	78.965	0.065	-0.071
-374.844	-200.000	-0.027	-0.126
-373.829	228.456	-0.150	-0.246
-372.815	800.000	-0.034	-0.095
-371.800	-132.470	0.259	0.034
-370.785	-65.117	-0.231	0.094
-369.771	25.494	-0.311	0.260
-368.756	49.574	-0.013	0.012
-367.742	-93.599	-0.182	0.051
-366.727	-94.888	0.062	0.017
-365.712	232.660	0.054	-0.089
-364.698	535.883	-0.055	-0.131
-363.683	-27.024	0.122	-0.072
-362.669	211.517	-0.024	0.038
-361.654	121.828	0.164	0.205
-360.639	-200.000	0.008	0.118
-359.625	-48.151	0.406	0.197
-358.610	-84.592	0.047	0.015
-357.596	-200.000	0.011	-0.384
-356.581	-98.129	-0.134	-0.035
-355.566	-200.000	-0.012	0.355
-354.552	-200.000	-0.037	0.197
-353.537	59.990	-0.102	-0.101
-352.523	-149.046	0.374	-0.030
-351.508	167.279	-0.153	0.219
-350.493	-184.576	-0.063	-0.001
-349.479	3.148	-0.148	0.108
-348.464	-110.112	-0.111	-0.023
-347.450	-91.535	0.220	-0.063
-346.435	33.927	-0.270	0.237
-345.420	0.627	-0.280	-0.202
-344.406	-22.769	-0.251	-0.153
-343.391	298.139	-0.049	-0.090
-342.377	72.693	-0.159	-0.167
-341.362	-146.880	0.219	-0.019
-340.348	0.458	0.161	0.116
-339.333	10.366	-0.271	-0.207
-338.318	-200.000	-0.113	-0.000
-337.304	35.303	-0.280	0.247
-336.289	-200.000	-0.060	0.508
-335.275	27.791	0.220	-0.186
-334.260	-31.073	0.152	0.086
-333.245	-82.851	-0.190	0.062
-332.231	-200.000	0.023	-0.189
-331.216	-52.256	-0.301	-0.140
-330.202	73.457	-0.112	0.117
-329.187	272.661	0.150	-0.266
-328.172	-82.268	-0.223	0.073
-327.158	231.042	0.114	0.188
-326.143	-116.421	0.423	-0.079
-325.129	-77.119	0.226	-0.079
-324.114	-66.266	-0.106	-0.042
-323.099	-168.681	-0.155	-0.006
-322.085	-200.000	0.021	0.102
-321.070	109.008	-0.012	0.015
-320.056	-200.000	-0.000	-0.246
-319.041	379.608	-0.007	0.014
-318.026	-32.943	0.205	-0.115
-317.012	-79.233	0.205	0.070
-315.997	-200.000	0.025	-0.188
-314.983	243.242	-0.069	-0.117
-313.968	-200.000	-0.010	0.154
-312.953	800.000	0.039	0.147
-311.939	-17.152	0.400	-0.254
-310.924	-137.914	0.077	0.009
-309.910	-11.833	-0.042	-0.028
-308.895	-56.087	0.297	0.133
-307.880	-151.482	0.087	-0.007
-306.866	-192.564	-0.171	-0.002
-305.851	-47.617	-0.056	0.027
-304.837	158.240	-0.215	-0.299
-303.822	140.808	-0.172	-0.228
-302.807	218.048	0.113	-0.181
-301.793	287.066	0.144	0.262
-300.778	71.533	0.166	0.173
-299.764	215.407	0.181	-0.288
-298.749	-82.698	-0.364	-0.118
-297.735	120.538	0.050	0.062
-296.720	87.806	0.201	0.224
-295.705	88.918	-0.014	0.016
-294.691	-200.000	0.014	-0.086
-293.676	172.288	-0.104	-0.151
-292.662	439.268	-0.087	0.191
-291.647	212.900	0.039	0.063
-290.632	-90.346	0.112	-0.033
-289.618	-29.687	0.200	-0.114
-288.603	-52.930	-0.122	-0.056
-287.589	351.480	-0.128	0.254
-286.574	-27.194	-0.021	-0.012
-285.559	491.434	0.217	-0.499
-284.545	42.361	-0.069	-0.063
-283.530	-200.000	0.022	0.122
-282.516	104.353	-0.171	0.202
-281.501	-83.756	0.161	0.051
-280.486	-200.000	-0.011	0.150
-279.472	-135.754	0.245	0.029
-278.457	91.109	-0.008	0.009
-277.443	-17.718	-0.452	0.285
-276.428	-109.245	0.336	-0.072
-275.413	-200.000	-0.027	-0.214
-274.399	36.696	-0.045	0.040
-273.384	-44.766	0.077	-0.039
-272.370	-180.483	0.284	-0.006
-271.355	622.649	-0.167	-0.421
-270.340	21.823	-0.302	0.247
-269.326	-200.000	0.025	0.556
-268.311	321.234	0.037	0.070
-267.297	59.977	0.069	0.068
-266.282	-186.428	-0.044	0.001
-265.267	38.855	0.168	0.150
-264.253	148.332	0.024	0.032
-263.238	700.242	-0.087	-0.231
-262.224	-200.000	0.006	-0.187
-261.209	800.000	-0.022	-0.088
-260.195	7.242	0.160	0.120
-259.180	1.204	-0.047	-0.034
-258.165	-200.000	-0.020	-0.105
-257.151	-89.394	0.210	-0.062
-256.136	-200.000	0.028	0.347
-255.122	-97.692	-0.317	0.082
-254.107	68.968	-0.057	0.059
-253.092	-14.203	-0.198	0.128
-252.078	-91.851	0.087	-0.025
-251.063	44.036	-0.079	0.073
-250.049	-59.502	0.220	0.095
-249.034	-200.000	-0.077	0.503
-248.019	-200.000	0.032	-0.186
-247.005	-147.648	0.162	0.014
-245.990	-200.000	-0.040	-0.245
-244.976	-56.046	-0.261	0.117
-243.961	-200.000	0.089	-0.414
-242.946	25.758	0.109	0.091
-241.932	-87.398	-0.129	-0.039
-240.917	-112.007	-0.333	-0.067
-239.903	-29.461	0.188	0.108
-238.888	800.000	-0.066	0.215
-237.873	214.876	-0.020	-0.032
-236.859	-92.965	-0.206	0.058
-235.844	-44.779	-0.049	0.024
-234.830	199.184	-0.128	0.197
-233.815	-104.795	0.211	-0.049
-232.800	-200.000	-0.024	0.193
-231.786	-173.527	0.144	0.004
-230.771	-187.819	0.171	0.002
-229.757	21.583	-0.393	0.321
-228.742	43.964	0.026	0.024
-227.727	29.367	0.014	-0.012
-226.713	339.942	-0.108	0.210
-225.698	-67.915	-0.250	0.098
-224.684	-178.288	0.398	0.009
-223.669	-160.713	0.116	-0.006
-222.655	130.946	0.191	-0.245
-221.640	61.877	0.028	-0.028
-220.625	-200.000	-0.042	-0.206
-219.611	-92.889	-0.254	-0.071
-218.596	-131.209	0.135	-0.018
-217.582	-0.538	-0.174	0.124
-216.567	-110.947	-0.328	-0.068
-215.552	219.098	-0.028	0.044
-214.538	2.094	-0.332	0.240
-213.523	59.855	-0.243	0.240
-212.509	-59.445	0.292	-0.126
-211.494	-61.746	0.214	-0.090
-210.479	800.000	-0.067	0.189
-209.465	-50.822	0.060	-0.028
-208.450	-200.000	-0.086	-0.449
-207.436	-77.146	0.184	-0.064
-206.421	-71.095	0.181	0.068
-205.406	-200.000	-0.022	0.282
-204.392	-50.016	0.243	-0.115
-203.377	41.412	-0.150	-0.136
-202.363	-47.149	0.304	0.148
-201.348	509.760	-0.119	-0.276
-200.333	-87.504	-0.183	-0.055
-199.319	-200.000	-0.025	0.158
-198.304	129.645	0.151	0.192
-197.290	800.000	-0.062	0.252
-196.275	28.834	-0.061	0.051
-195.260	15.235	0.107	-0.084
-194.246	253.796	-0.178	0.304
-193.231	-147.936	0.320	-0.027
-192.217	-106.422	0.392	-0.088
-191.202	-5.191	0.294	-0.202
-190.187	144.013	-0.147	-0.196
-189.173	-200.000	0.037	0.346
-188.158	-42.691	0.255	0.130
-187.144	345.781	0.083	-0.163
-186.129	-33.421	-0.138	0.076
-185.114	-200.000	0.028	-0.244
-184.100	216.232	0.239	0.380
-183.085	220.171	0.063	-0.101
-182.071	-57.280	0.072	0.031
-181.056	-47.930	0.144	0.070
-180.042	-94.952	0.252	0.068
-179.027	-31.120	-0.440	-0.248
-178.012	-200.000	0.008	-0.068
-176.998	-56.722	0.193	0.085
-175.983	-51.293	0.187	-0.087
-174.969	-182.184	-0.065	0.001
-173.954	9.093	-0.043	0.033
-172.939	-137.668	-0.219	0.025
-171.925	800.000	-0.023	0.087
-170.910	23.050	0.112	0.092
-169.896	-10.423	0.251	-0.166
-168.881	-54.783	-0.154	0.069
-167.866	-112.338	0.025	0.005
-166.852	275.164	-0.080	0.142
-165.837	91.743	-0.075	-0.084
-164.823	-147.426	0.134	0.011
-163.808	-104.302	-0.095	-0.022
-162.793	-110.872	0.116	0.024
-161.779	484.707	-0.187	-0.425
-160.764	-117.234	0.277	0.050
-159.750	-24.970	-0.160	-0.095
-158.735	-57.728	-0.191	0.084
-157.720	64.887	0.047	-0.047
-156.706	-91.823	0.109	0.031
-155.691	-200.000	-0.008	0.214
-154.677	-38.301	-0.159	-0.084
-153.662	800.000	0.007	-0.022
-152.647	55.522	0.060	-0.058
-151.633	36.492	-0.034	-0.030
-150.618	612.826	-0.059	-0.148
-149.604	-200.000	-0.031	0.159
-148.589	163.815	-0.163	-0.229
-147.574	114.808	-0.129	-0.157
-146.560	-200.000	-0.053	0.262
-145.545	7.588	-0.199	0.149
-144.531	-42.427	-0.047	-0.024
-143.516	-200.000	0.002	0.401
-142.502	800.000	-0.053	0.168
-141.487	616.653	0.092	0.231
-140.472	800.000	-0.122	0.420
-139.458	184.287	0.084	-0.124
-138.443	800.000	0.096	-0.303
-137.429	177.573	0.140	-0.204
-136.414	800.000	-0.029	-0.091
-135.399	659.899	-0.096	0.248
-134.385	-93.945	0.363	-0.099
-133.370	-119.984	-0.340	-0.058
-132.356	-48.933	-0.183	0.087
-131.341	-200.000	0.009	-0.062
-130.326	-70.984	0.208	-0.078
-129.312	-200.000	-0.008	-0.259
-128.297	-133.928	-0.388	-0.048
-127.283	113.085	-0.019	-0.023
-126.268	242.742	-0.101	0.168
-125.253	-200.000	0.024	-0.456
-124.239	13.770	0.147	-0.114
-123.224	-88.139	0.019	0.006
-122.210	33.759	-0.133	-0.115
-121.195	-50.302	0.073	0.034
-120.180	800.000	0.057	0.174
-119.166	300.864	0.067	0.124
-118.151	147.191	0.153	0.205
-117.137	102.763	-0.221	-0.258
-116.122	-200.000	-0.003	0.082
-115.107	5.205	-0.221	0.162
-114.093	108.618	-0.168	0.200
-113.078	-200.000	0.038	0.300
-112.064	3.214	0.109	-0.079
-111.049	-94.097	-0.141	0.039
-110.034	-0.480	-0.343	-0.243
-109.020	146.612	0.194	-0.260
-108.005	800.000	0.050	0.185
-106.991	55.120	-0.131	0.126
-105.976	23.252	0.297	0.243
-104.962	-200.000	-0.015	-0.153
-103.947	-200.000	0.072	0.393
-102.932	-70.291	-0.223	0.084
-101.918	30.090	-0.067	0.057
-100.903	-8.689	-0.359	0.240
-99.889	800.000	0.076	-0.249
-98.874	800.000	-0.065	0.185
-97.859	-158.153	0.378	-0.022
-96.845	-200.000	-0.009	-0.182
-95.830	800.000	-0.070	-0.196
-94.816	83.647	-0.343	0.372
-93.801	-200.000	-0.131	0.585
-92.786	800.000	0.062	0.198
-91.772	126.428	0.133	0.168
-90.757	44.985	-0.180	0.165
-89.743	-0.117	0.102	-0.072
-88.728	-200.000	0.026	-0.138
-87.713	495.810	0.113	-0.259
-86.699	512.583	0.173	-0.401
-85.684	-112.929	0.367	-0.072
-84.670	-200.000	-0.180	0.000
-83.655	414.032	-0.124	0.263
-82.640	364.099	0.134	-0.268
-81.626	-32.943	-0.126	-0.070
-80.611	51.029	-0.261	-0.246
-79.597	122.103	0.143	-0.178
-78.582	-200.000	-0.003	-0.094
-77.567	274.017	-0.169	0.298
-76.553	-159.173	0.066	-0.004
-75.538	334.089	0.066	-0.127
-74.524	74.824	-0.290	0.304
-73.509	345.875	0.135	-0.264
-72.494	-200.000	0.041	0.443
-71.480	3.726	0.257	0.187
-70.465	-74.763	-0.063	0.022
-69.451	164.008	-0.230	-0.322
-68.436	150.327	0.141	0.190
-67.422	146.238	0.114	0.153
-66.407	-31.257	0.087	0.049
-65.392	-81.249	0.478	0.157
-64.378	19.370	-0.131	0.105
-63.363	-200.000	0.060	-0.403
-62.349	-200.000	-0.014	-0.140
-61.334	6.216	-0.845	-0.624
-60.319	97.040	0.312	0.356
-59.305	-200.000	-0.116	-0.786
-58.290	366.068	0.456	0.914
-57.276	800.000	0.442	1.510
-56.261	-200.000	89.412	506.334
-55.246	459.131	1396.217	3089.788
-54.232	144.922	2614.943	3477.277
-53.217	102.109	2360.627	2741.430
-52.203	42.458	2101.791	1900.994
-51.188	37.993	2012.309	1779.383
-50.173	36.381	1993.775	1748.348
-49.159	49.459	2040.943	1909.805
-48.144	52.604	2060.833	1957.192
-47.130	38.841	2019.548	1793.256
-46.115	36.353	2008.176	1760.436
-45.100	36.297	2005.061	1757.129
-44.086	36.247	2003.047	1754.838
-43.071	36.172	2000.318	1751.692
-42.057	36.038	1998.742	1749.031
-41.042	36.139	1996.509	1747.924
-40.027	36.166	1994.808	1746.608
-39.013	36.134	1992.251	1744.015
-37.998	36.178	1990.616	1742.904
-36.984	36.191	1988.748	1741.324
-35.969	36.137	1986.768	1739.034
-34.954	36.312	1985.042	1739.025
-33.940	36.288	1983.844	1737.692
-32.925	36.295	1981.487	1735.620
-31.911	36.313	1980.087	1734.486
-30.896	36.270	1978.405	1732.559
-29.881	36.290	1976.937	1731.389
-28.867	36.346	1975.206	1730.302
-27.852	36.406	1972.966	1728.813
-26.838	36.312	1971.392	1726.523
-25.823	36.302	1969.663	1724.846
-24.809	36.345	1967.847	1723.577
-23.794	36.340	1965.992	1721.840
-22.779	36.251	1964.784	1719.912
-21.765	36.280	1962.452	1718.063
-20.750	36.271	1961.238	1716.855
-19.736	36.307	1959.770	1715.819
-18.721	36.379	1957.849	1714.708
-17.706	36.373	1956.451	1713.362
-16.692	36.278	1954.745	1710.957
-15.677	36.292	1952.790	1709.307
-14.663	36.379	1951.408	1708.797
-13.648	36.366	1950.234	1707.592
-12.633	36.351	1948.698	1706.039
-11.619	36.282	1947.973	1704.732
-10.604	36.296	1946.493	1703.494
-9.590	36.267	1945.140	1701.981
-8.575	36.268	1943.860	1700.803
-7.560	36.229	1942.793	1699.461
-6.546	36.191	1940.939	1697.434
-5.531	36.293	1939.816	1697.281
-4.517	36.214	1938.927	1695.741
-3.502	36.306	1937.665	1695.382
-2.487	36.272	1936.220	1693.749
-1.473	36.265	1935.711	1693.176
-0.458	36.400	1930.934	1690.112
0.556	36.514	1911.885	1665.350
1.571	32.648	1892.878	1615.577
2.586	28.751	1915.950	1601.233
3.600	27.731	1953.395	1623.311
4.615	26.812	1948.730	1611.132
5.629	19.788	1841.577	1463.205
6.644	8.085	1714.245	1269.216
7.659	2.473	1673.535	1195.241
8.673	1.958	1670.327	1188.833
9.688	1.962	1668.661	1187.572
10.702	1.820	1666.957	1185.151
11.717	1.711	1664.078	1182.155
12.731	2.072	1663.354	1184.335
13.746	9.174	1680.928	1252.272
14.761	20.469	1706.036	1359.766
15.775	25.856	1715.994	1409.860
16.790	26.585	1716.955	1416.228
17.804	26.795	1715.764	1416.761
18.819	26.821	1714.735	1415.992
19.834	26.929	1714.487	1416.502
20.848	27.050	1714.308	1417.170
21.863	27.146	1712.861	1416.598
22.877	27.233	1711.901	1416.358
23.892	27.233	1711.232	1415.677
24.907	27.202	1710.139	1414.410
25.921	27.151	1709.116	1413.042
26.936	27.123	1708.284	1412.008
27.950	27.199	1707.099	1411.498
28.965	27.126	1706.806	1410.563
29.980	27.113	1705.982	1409.658
30.994	27.160	1704.294	1408.498
32.009	27.149	1703.018	1407.238
33.023	27.172	1702.060	1406.496
34.038	27.105	1701.390	1405.302
35.053	27.254	1700.291	1405.419
36.067	27.202	1699.234	1404.021
37.082	27.259	1698.407	1403.655
38.096	27.188	1697.437	1402.182
39.111	27.159	1696.566	1401.112
40.126	27.120	1695.843	1400.095
41.140	27.145	1695.271	1399.692
42.155	27.195	1693.643	1398.601
43.169	27.193	1693.001	1397.936
44.184	27.123	1692.025	1396.468
45.199	27.211	1690.830	1396.034
46.213	27.246	1689.479	1395.060
47.228	27.166	1688.282	1393.341
48.242	27.138	1687.455	1392.319
49.257	27.222	1685.713	1391.400
50.271	27.191	1684.600	1390.124
51.286	27.222	1683.627	1389.429
52.301	27.183	1682.315	1387.932
53.315	27.154	1680.921	1386.436
54.330	27.111	1679.761	1385.026
55.344	27.167	1677.778	1383.695
56.359	27.140	1677.536	1383.172
57.374	27.051	1675.946	1381.062
58.388	27.150	1675.223	1381.094
59.403	27.166	1673.974	1380.061
60.417	27.202	1672.689	1379.156
61.432	27.145	1671.751	1377.829
62.447	27.227	1670.353	1377.176
63.461	27.220	1669.778	1376.527
64.476	27.232	1668.463	1375.408
65.490	27.219	1667.414	1374.323
66.505	27.194	1666.772	1373.485
67.520	27.188	1665.605	1372.354
68.534	27.188	1664.641	1371.445
69.549	27.173	1663.833	1370.538
70.563	27.220	1662.312	1369.518
71.578	27.219	1661.112	1368.401
72.593	27.294	1660.508	1368.346
73.607	27.232	1659.532	1366.956
74.622	27.227	1657.978	1365.522
75.636	27.155	1658.009	1364.884
76.651	27.182	1656.906	1364.054
77.666	27.160	1656.382	1363.337
78.680	27.201	1655.300	1362.634
79.695	27.235	1653.801	1361.537
80.709	27.134	1653.405	1360.331
81.724	27.192	1652.756	1360.112
82.739	27.151	1651.958	1359.027
83.753	27.265	1650.768	1358.781
84.768	27.239	1649.562	1357.475
85.782	27.253	1648.940	1356.946
86.797	27.239	1647.693	1355.696
87.812	27.244	1647.073	1355.106
88.826	27.236	1645.623	1353.732
89.841	27.285	1644.698	1353.216
90.855	27.257	1643.740	1352.098
91.870	27.240	1642.681	1350.982
92.884	27.234	1641.733	1350.037
93.899	27.223	1641.269	1349.459
94.914	27.228	1640.065	1348.383
95.928	27.255	1638.897	1347.503
96.943	27.210	1637.725	1346.086
97.957	27.156	1636.090	1344.225
98.972	27.156	1635.143	1343.328
99.987	27.272	1633.737	1342.908
101.001	27.292	1631.972	1341.488
102.016	27.246	1630.440	1339.773
103.030	27.143	1629.554	1338.164
104.045	27.131	1628.439	1337.045
105.060	27.245	1627.021	1336.598
106.074	27.276	1626.107	1335.959
107.089	27.190	1625.037	1334.333
108.103	27.218	1623.777	1333.380
109.118	27.290	1622.276	1332.560
110.133	27.314	1621.744	1332.181
111.147	27.385	1619.744	1330.941
112.162	27.343	1619.249	1330.109
113.176	27.288	1617.974	1328.544
114.191	27.280	1616.518	1327.171
115.206	27.322	1615.352	1326.404
116.220	27.257	1614.828	1325.383
117.235	27.282	1613.580	1324.421
118.249	27.276	1612.066	1323.015
119.264	27.186	1611.380	1321.684
120.279	27.195	1610.196	1320.662
121.293	27.236	1608.826	1319.720
122.308	27.292	1607.883	1319.235
123.322	27.406	1606.271	1318.616
124.337	27.305	1605.582	1317.203
125.352	27.357	1604.216	1316.347
126.366	27.354	1603.876	1315.925
127.381	27.295	1603.036	1314.693
128.395	27.392	1601.603	1314.101
129.410	27.392	1600.679	1313.229
130.424	27.405	1599.361	1312.124
131.439	27.385	1598.340	1311.026
132.454	27.407	1597.324	1310.239
133.468	27.382	1595.711	1308.620
134.483	27.352	1594.593	1307.369
135.497	27.347	1593.757	1306.534
136.512	27.356	1592.518	1305.469
137.527	27.371	1591.115	1304.307
138.541	27.339	1590.303	1303.295
139.556	27.375	1588.645	1302.082
140.570	27.404	1587.872	1301.541
141.585	27.302	1586.666	1299.709
142.600	27.314	1585.954	1299.092
143.614	27.325	1584.906	1298.198
144.629	27.444	1583.191	1297.532
145.643	27.290	1582.395	1295.663
146.658	27.381	1581.087	1295.130
147.673	27.348	1579.411	1293.407
148.687	27.235	1579.009	1292.158
149.702	27.456	1577.738	1292.575
150.716	27.332	1576.215	1290.332
151.731	27.294	1575.450	1289.323
152.746	27.372	1574.282	1288.806
153.760	27.402	1573.245	1288.055
154.775	27.394	1572.523	1287.292
155.789	27.385	1571.205	1286.036
156.804	27.383	1570.491	1285.325
157.819	27.367	1569.329	1284.148
158.833	27.356	1568.258	1283.076
159.848	27.350	1567.262	1282.105
160.862	27.380	1566.388	1281.489
161.877	27.377	1565.340	1280.496
162.892	27.340	1564.548	1279.479
163.906	27.439	1563.247	1278.996
164.921	27.428	1562.214	1277.961
165.935	27.444	1561.540	1277.409
166.950	27.392	1560.769	1276.299
167.964	27.488	1559.210	1275.586
168.979	27.465	1558.315	1274.579
169.994	27.517	1557.544	1274.199
171.008	27.515	1557.001	1273.628
172.023	27.504	1556.371	1272.921
173.037	27.491	1554.670	1271.325
174.052	27.610	1553.314	1270.937
175.067	27.509	1552.810	1269.710
176.081	27.429	1552.218	1268.551
177.096	27.500	1550.428	1267.472
178.110	27.515	1549.493	1266.701
179.125	27.459	1548.960	1265.760
180.140	27.506	1548.025	1265.212
181.154	27.588	1546.766	1264.639
182.169	27.600	1545.739	1263.771
183.183	27.517	1545.185	1262.630
184.198	27.451	1544.554	1261.549
185.213	27.499	1543.704	1261.073
186.227	27.563	1542.464	1260.392
187.242	27.610	1541.511	1259.824
188.256	27.513	1541.059	1258.674
189.271	27.577	1540.165	1258.278
190.286	27.606	1539.210	1257.587
191.300	27.615	1538.079	1256.611
192.315	27.658	1537.152	1256.039
193.329	27.666	1535.865	1254.933
194.344	27.440	1535.647	1253.084
195.359	27.573	1534.932	1253.310
196.373	27.618	1534.032	1252.769
197.388	27.534	1533.057	1251.289
198.402	27.524	1531.974	1250.225
199.417	27.540	1531.101	1249.508
200.432	27.531	1530.432	1248.790
201.446	27.551	1529.518	1248.075
202.461	27.471	1529.625	1247.504
203.475	27.464	1527.869	1245.913
204.490	27.534	1527.053	1245.616
205.504	27.628	1525.562	1244.930
206.519	27.578	1525.157	1244.147
207.534	27.599	1524.565	1243.699
208.548	27.660	1523.283	1242.959
209.563	27.573	1522.742	1241.816
210.577	27.654	1521.627	1241.343
211.592	27.586	1521.699	1240.830
212.607	27.671	1520.255	1240.124
213.621	27.671	1519.583	1239.467
214.636	27.700	1518.848	1238.954
215.650	27.722	1517.852	1238.180
216.665	27.763	1517.136	1237.765
217.680	27.776	1516.324	1237.081
218.694	27.705	1515.546	1235.856
219.709	27.742	1514.862	1235.442
220.723	27.835	1513.586	1234.919
221.738	27.714	1513.234	1233.706
222.753	27.699	1512.259	1232.700
223.767	27.637	1511.713	1231.729
224.782	27.659	1510.378	1230.675
225.796	27.758	1509.588	1230.590
226.811	27.770	1508.720	1229.858
227.826	27.834	1508.030	1229.615
228.840	27.771	1507.643	1228.765
229.855	27.730	1506.801	1227.695
230.869	27.770	1505.446	1226.753
231.884	27.635	1505.284	1225.605
232.899	27.801	1503.649	1225.283
233.913	27.803	1502.375	1224.145
234.928	27.770	1501.948	1223.472
235.942	27.833	1500.697	1222.763
236.957	27.914	1499.595	1222.302
237.972	27.866	1498.280	1220.796
238.986	27.862	1497.587	1220.100
240.001	27.810	1496.645	1218.878
241.015	27.807	1495.781	1218.047
242.030	27.932	1494.694	1217.885
243.045	27.949	1493.755	1217.127
244.059	27.991	1492.970	1216.661
245.074	27.958	1491.766	1215.349
246.088	27.881	1491.653	1214.637
247.103	28.023	1490.947	1214.901
248.117	28.010	1490.168	1214.071
249.132	27.941	1489.409	1212.889
250.147	27.932	1488.585	1212.053
251.161	28.043	1487.359	1211.679
252.176	28.157	1486.551	1211.668
253.190	28.022	1486.075	1210.278
254.205	28.046	1485.483	1209.848
255.220	28.054	1484.440	1208.946
256.234	28.069	1483.526	1208.193
257.249	28.075	1482.711	1207.463
258.263	28.154	1481.930	1207.242
259.278	28.078	1481.262	1206.089
260.293	28.134	1480.661	1205.860
261.307	28.063	1479.853	1204.632
262.322	28.072	1479.379	1204.197
263.336	28.176	1478.124	1203.754
264.351	28.090	1477.460	1202.543
265.366	28.144	1476.522	1202.027
266.380	28.163	1475.446	1201.164
267.395	28.199	1474.157	1200.248
268.409	28.176	1474.114	1199.959
269.424	28.170	1472.861	1198.792
270.439	28.108	1472.433	1197.930
271.453	28.179	1471.292	1197.357
272.468	28.054	1470.701	1195.955
273.482	28.139	1470.003	1195.837
274.497	28.125	1468.755	1194.622
275.512	28.097	1468.535	1194.158
276.526	28.186	1467.904	1194.117
277.541	28.266	1466.629	1193.501
278.555	28.239	1465.703	1192.466
279.570	28.139	1465.123	1191.237
280.585	28.239	1464.015	1190.880
281.599	28.191	1463.469	1190.017
282.614	28.209	1462.455	1189.208
283.628	28.153	1461.731	1188.147
284.643	28.110	1460.622	1186.859
285.657	28.282	1459.753	1187.168
286.672	28.296	1458.874	1186.433
287.687	28.304	1457.772	1185.485
288.701	28.157	1457.017	1183.815
289.716	28.330	1456.222	1184.182
290.730	28.345	1455.673	1183.732
291.745	28.305	1454.806	1182.663
292.760	28.292	1454.251	1182.023
293.774	28.361	1453.246	1181.545
294.789	28.266	1452.386	1180.130
295.803	28.332	1451.998	1180.136
296.818	28.332	1450.507	1178.817
297.833	28.362	1449.500	1178.087
298.847	28.362	1449.235	1177.772
299.862	28.374	1448.060	1176.791
300.876	28.327	1447.690	1176.083
301.891	28.454	1446.445	1175.777
302.906	28.477	1445.831	1175.327
303.920	28.469	1445.306	1174.742
304.935	28.528	1444.370	1174.257
305.949	28.514	1443.898	1173.677
306.964	28.507	1442.994	1172.797
307.979	28.564	1442.003	1172.248
308.993	28.476	1441.142	1170.886
310.008	28.615	1439.944	1170.694
311.022	28.529	1439.584	1169.747
312.037	28.515	1438.848	1168.958
313.052	28.508	1437.934	1168.071
314.066	28.494	1436.746	1166.910
315.081	28.630	1435.516	1166.673
316.095	28.616	1434.813	1165.911
317.110	28.498	1434.058	1164.441
318.125	28.534	1433.130	1163.816
319.139	28.616	1432.396	1163.638
320.154	28.644	1431.715	1163.161
321.168	28.612	1430.932	1162.218
322.183	28.687	1429.648	1161.545
323.197	28.577	1429.104	1160.304
324.212	28.617	1428.109	1159.647
325.227	28.618	1427.532	1159.080
326.241	28.628	1426.609	1158.294
327.256	28.719	1425.691	1158.021
328.270	28.746	1424.576	1157.184
329.285	28.729	1424.248	1156.704
330.300	28.641	1423.728	1155.628
331.314	28.725	1422.703	1155.224
332.329	28.774	1421.436	1154.396
333.343	28.761	1420.872	1153.757
334.358	28.796	1420.377	1153.470
335.373	28.778	1419.937	1152.902
336.387	28.900	1418.667	1152.528
337.402	28.818	1418.476	1151.758
338.416	28.835	1417.983	1151.363
339.431	28.845	1416.912	1150.453
340.446	28.959	1416.303	1150.569
341.460	28.964	1415.675	1149.992
342.475	28.969	1414.418	1148.900
343.489	28.994	1413.730	1148.397
344.504	28.821	1413.212	1146.791
345.519	28.938	1411.543	1146.067
346.533	28.975	1410.653	1145.473
347.548	28.914	1410.248	1144.665
348.562	28.900	1409.416	1143.796
349.577	28.945	1408.652	1143.359
350.592	28.950	1408.355	1143.046
351.606	28.957	1407.176	1142.032
352.621	28.827	1406.309	1140.421
353.635	28.977	1404.914	1140.116
354.650	28.877	1404.584	1139.131
355.665	28.949	1403.651	1138.718
356.679	29.028	1401.976	1137.749
357.694	29.058	1401.240	1137.232
358.708	29.090	1400.468	1136.707
359.723	28.990	1399.588	1135.274
360.738	29.054	1398.245	1134.475
361.752	28.906	1397.305	1132.702
362.767	29.046	1396.020	1132.424
363.781	29.065	1395.310	1131.861
364.796	29.101	1394.471	1131.307
365.810	29.161	1394.019	1131.202
366.825	29.227	1393.134	1130.794
367.840	29.106	1392.141	1129.147
368.854	29.203	1391.664	1129.252
369.869	29.146	1391.326	1128.526
370.883	29.198	1390.515	1128.092
371.898	29.223	1389.727	1127.503
372.913	29.202	1389.433	1127.038
373.927	29.193	1388.105	1125.805
374.942	29.240	1387.375	1125.397
375.956	29.252	1387.057	1125.114
376.971	29.239	1386.545	1124.521
377.986	29.271	1385.532	1123.798
379.000	29.203	1384.646	1122.564
380.015	29.322	1383.800	1122.500
381.029	29.417	1383.084	1122.399
382.044	29.360	1382.540	1121.514
383.059	29.344	1381.811	1120.724
384.073	29.248	1381.381	1119.692
385.088	29.361	1380.603	1119.648
386.102	29.306	1380.331	1118.999
387.117	29.389	1379.887	1119.043
388.132	29.455	1378.710	1118.390
389.146	29.406	1377.952	1117.378
390.161	29.350	1377.022	1116.187
391.175	29.491	1376.333	1116.383
392.190	29.421	1376.027	1115.610
393.205	29.355	1375.559	1114.734
394.219	29.466	1374.320	1114.300
395.234	29.391	1373.445	1113.043
396.248	29.504	1371.876	1112.350
397.263	29.462	1371.178	1111.432
398.278	29.436	1370.138	1110.334
399.292	29.509	1369.366	1110.050
400.307	29.455	1368.534	1108.954
401.321	29.551	1367.525	1108.617
402.336	29.560	1366.281	1107.563
403.350	29.522	1365.678	1106.747
404.365	29.503	1364.711	1105.750
405.380	29.554	1363.910	1105.312
406.394	29.562	1363.473	1104.903
407.409	29.597	1362.510	1104.237
408.423	29.734	1361.615	1104.230
409.438	29.689	1360.733	1103.149
410.453	29.703	1360.262	1102.757
411.467	29.696	1359.676	1102.141
412.482	29.703	1358.891	1101.449
413.496	29.744	1358.324	1101.139
414.511	29.683	1357.628	1100.112
415.526	29.783	1356.758	1099.901
416.540	29.835	1356.233	1099.689
417.555	29.699	1355.079	1097.848
418.569	29.768	1354.355	1097.574
419.584	29.768	1354.576	1097.656
420.599	29.716	1354.201	1096.946
421.613	89.225	1348.364	1429.295
422.628	89.443	1347.472	1429.398
