DTS Sentinel unit serial number:	SN413079Multiplexer serial number:	ORYXHardware model number:	OX4-SRSoftware version number:	ORYX F/W v4.00 Oryx Data Collector v3.7.2.0data status	okinstallation	princeton_trtdifferential loss correction	single-endedforward channel	channel 4reverse channel	N/Adate	2019/09/18time	13:05:35forward acquisition time	60.00reverse acquisition time	0.00gamma	496.2192k internal	0.2303k external	0.2303temperature offset calibration	0.9992default loss term (dB/km)	0.3790temperature slope calibration	1.0000multiplexer offset coefficient	1.0000multiplexer slope coefficient	1.0000fibre end	0.00T internal ref (°C)	33.64T ext. ref 1 (°C)	0.58T ext. ref 2 (°C)	31.94length (m)	temperature (°C)	Stokes	anti-Stokes-747.200	-35.420	0.180	-0.100
-746.185	-118.752	-0.435	-0.078
-745.171	564.670	-0.134	0.330
-744.156	102.580	0.197	0.235
-743.142	139.358	0.098	0.132
-742.127	-200.000	-0.016	0.309
-741.112	-185.249	0.072	0.001
-740.098	200.208	-0.242	0.379
-739.083	-200.000	0.029	0.256
-738.069	-120.770	-0.182	-0.031
-737.054	800.000	0.089	0.364
-736.039	153.916	-0.133	0.185
-735.025	-131.553	0.097	0.013
-734.010	-115.217	-0.135	0.026
-732.996	-163.031	-0.062	0.003
-731.981	9.511	-0.222	0.171
-730.966	-136.634	0.158	0.019
-729.952	-200.000	0.007	0.140
-728.937	83.555	-0.185	0.206
-727.923	-190.334	0.244	-0.003
-726.908	20.715	-0.215	-0.177
-725.894	-47.204	0.336	-0.166
-724.879	-200.000	0.009	-0.052
-723.864	49.802	0.202	-0.193
-722.850	-143.970	-0.159	0.015
-721.835	800.000	0.049	0.168
-720.821	-78.376	-0.242	-0.084
-719.806	800.000	-0.025	0.096
-718.791	194.470	0.164	-0.253
-717.777	-18.834	-0.215	-0.136
-716.762	-81.894	0.075	0.025
-715.748	-182.172	0.104	-0.002
-714.733	164.617	0.075	-0.108
-713.718	601.481	0.105	-0.265
-712.704	148.821	-0.165	0.227
-711.689	800.000	-0.087	-0.293
-710.675	3.638	-0.226	-0.167
-709.660	-97.411	-0.212	0.056
-708.645	-15.318	0.159	0.103
-707.631	262.465	-0.183	0.323
-706.616	127.990	0.173	-0.223
-705.602	-72.266	-0.191	-0.072
-704.587	-200.000	-0.014	-0.187
-703.572	-132.553	0.259	-0.034
-702.558	-59.125	-0.120	0.052
-701.543	-56.066	0.133	0.060
-700.529	235.375	0.158	0.266
-699.514	25.117	-0.163	0.138
-698.499	-200.000	0.018	-0.102
-697.485	800.000	-0.092	0.403
-696.470	674.813	-0.099	0.260
-695.456	-200.000	0.021	0.315
-694.441	-15.429	0.237	-0.154
-693.426	-113.137	0.080	-0.016
-692.412	112.590	0.136	-0.167
-691.397	-1.802	-0.254	-0.182
-690.383	-193.972	-0.205	0.002
-689.368	800.000	-0.013	0.055
-688.354	-200.000	-0.014	-0.249
-687.339	-175.915	-0.265	-0.007
-686.324	-42.992	0.048	-0.025
-685.310	-18.656	0.088	-0.056
-684.295	-200.000	0.027	-0.147
-683.281	-200.000	0.027	0.135
-682.266	-104.904	-0.485	0.113
-681.251	-200.000	0.080	-0.393
-680.237	-153.452	-0.138	0.010
-679.222	800.000	-0.023	0.066
-678.208	619.789	0.033	-0.084
-677.193	254.617	0.122	0.212
-676.178	-115.333	-0.126	-0.024
-675.164	800.000	0.065	-0.236
-674.149	-200.000	0.013	-0.076
-673.135	260.225	0.121	-0.212
-672.120	340.415	0.046	0.091
-671.105	0.180	-0.173	0.125
-670.091	-200.000	0.006	-0.267
-669.076	-59.654	0.092	-0.040
-668.062	800.000	0.123	0.479
-667.047	800.000	-0.067	0.284
-666.032	-89.190	-0.272	0.082
-665.018	124.762	0.139	-0.178
-664.003	-200.000	-0.027	0.196
-662.989	376.408	-0.064	-0.133
-661.974	559.172	0.043	0.105
-660.959	61.860	0.157	0.159
-659.945	-17.012	-0.094	0.060
-658.930	12.408	0.223	-0.175
-657.916	-200.000	0.004	-0.044
-656.901	-120.404	0.351	-0.061
-655.886	-40.690	-0.325	-0.171
-654.872	800.000	-0.006	-0.019
-653.857	-200.000	0.054	-0.364
-652.843	-200.000	-0.004	-0.080
-651.828	-22.952	0.407	-0.249
-650.814	31.396	-0.171	-0.149
-649.799	63.346	-0.120	0.122
-648.784	-119.947	-0.189	-0.033
-647.770	31.547	-0.092	0.080
-646.755	-81.750	0.348	0.116
-645.741	114.660	-0.178	-0.220
-644.726	-176.089	-0.220	0.006
-643.711	175.988	-0.099	-0.146
-642.697	-90.895	-0.409	-0.119
-641.682	92.708	-0.245	0.280
-640.668	-147.331	0.283	-0.024
-639.653	-200.000	0.006	-0.219
-638.638	-143.298	0.078	-0.008
-637.624	-115.659	-0.206	0.039
-636.609	-89.020	-0.302	-0.091
-635.595	-95.974	-0.076	0.021
-634.580	-200.000	0.019	-0.272
-633.565	9.876	-0.196	-0.151
-632.551	-21.114	0.353	0.219
-631.536	76.139	0.144	0.154
-630.522	-33.399	-0.370	0.208
-629.507	-200.000	-0.050	0.268
-628.492	-54.487	0.337	-0.155
-627.478	34.453	-0.196	0.174
-626.463	-200.000	-0.019	-0.310
-625.449	-173.150	-0.151	0.005
-624.434	-52.644	-0.316	0.148
-623.419	-113.380	-0.201	0.040
-622.405	-200.000	0.014	-0.305
-621.390	-200.000	-0.127	0.001
-620.376	-200.000	0.007	0.220
-619.361	713.210	-0.096	-0.257
-618.346	800.000	0.087	-0.267
-617.332	674.409	0.070	-0.185
-616.317	40.158	0.238	-0.216
-615.303	-136.866	0.397	-0.046
-614.288	-200.000	0.053	0.246
-613.273	-200.000	-0.000	-0.214
-612.259	800.000	0.045	-0.144
-611.244	-200.000	-0.007	0.397
-610.230	800.000	0.104	0.394
-609.215	-200.000	0.014	-0.078
-608.201	-52.118	0.255	0.120
-607.186	-92.129	-0.064	0.018
-606.171	132.947	0.156	-0.205
-605.157	-31.266	0.295	0.168
-604.142	180.389	0.109	0.162
-603.128	-55.679	-0.376	0.170
-602.113	237.948	-0.213	0.357
-601.098	411.271	-0.099	-0.212
-600.084	800.000	-0.038	0.111
-599.069	-55.353	-0.237	0.108
-598.055	-200.000	0.056	-0.300
-597.040	-110.452	-0.157	0.033
-596.025	800.000	0.022	0.085
-595.011	-200.000	0.073	-0.387
-593.996	-9.321	0.323	0.218
-592.982	800.000	-0.051	0.195
-591.967	57.108	0.227	-0.224
-590.952	-200.000	0.033	-0.214
-589.938	-57.817	-0.250	0.111
-588.923	-200.000	-0.030	0.234
-587.909	-64.578	-0.318	-0.131
-586.894	-113.514	-0.306	0.061
-585.879	303.405	0.236	-0.443
-584.865	154.204	-0.029	0.040
-583.850	-200.000	-0.044	-0.277
-582.836	-200.000	0.003	0.055
-581.821	-156.510	-0.114	-0.007
-580.806	-119.488	-0.269	-0.047
-579.792	-200.000	-0.027	0.169
-578.777	-99.985	0.246	-0.062
-577.763	-200.000	-0.014	-0.201
-576.748	-167.950	0.324	0.013
-575.733	183.191	-0.216	-0.323
-574.719	749.948	-0.103	-0.282
-573.704	-158.713	0.155	0.009
-572.690	-6.081	0.133	0.092
-571.675	131.673	-0.041	0.054
-570.661	-52.351	-0.284	-0.133
-569.646	800.000	0.109	-0.315
-568.631	-35.524	-0.122	-0.067
-567.617	-200.000	-0.027	-0.162
-566.602	15.649	-0.273	0.217
-565.588	787.877	-0.107	-0.297
-564.573	-200.000	0.040	-0.324
-563.558	101.409	0.037	-0.044
-562.544	-72.463	0.153	0.057
-561.529	-29.481	-0.384	-0.222
-560.515	-185.047	-0.287	0.005
-559.500	565.059	-0.074	-0.182
-558.485	-111.656	-0.178	0.037
-557.471	-200.000	0.078	-0.375
-556.456	-149.504	-0.199	-0.016
-555.442	800.000	0.046	-0.204
-554.427	800.000	-0.048	-0.179
-553.412	-200.000	-0.020	-0.145
-552.398	-143.881	0.354	-0.034
-551.383	-200.000	0.010	-0.075
-550.369	556.476	0.095	-0.232
-549.354	463.226	-0.044	-0.099
-548.339	17.694	-0.364	-0.292
-547.325	800.000	0.067	-0.245
-546.310	85.572	-0.062	-0.068
-545.296	168.636	0.134	0.194
-544.281	623.482	0.070	0.178
-543.266	104.768	0.016	0.020
-542.252	-200.000	0.005	0.066
-541.237	800.000	0.074	0.249
-540.223	62.696	0.201	0.203
-539.208	-59.261	0.078	0.034
-538.193	-117.109	0.030	0.006
-537.179	-105.850	0.304	-0.069
-536.164	-20.805	0.213	0.132
-535.150	26.958	-0.395	0.335
-534.135	118.971	-0.114	-0.142
-533.121	225.721	-0.154	0.252
-532.106	800.000	0.041	0.152
-531.091	192.482	0.140	0.214
-530.077	6.697	-0.177	-0.133
-529.062	108.242	0.163	-0.196
-528.048	570.546	0.114	-0.281
-527.033	-200.000	-0.001	0.165
-526.018	-39.679	-0.225	0.119
-525.004	800.000	0.022	0.065
-523.989	-200.000	-0.015	0.299
-522.975	800.000	0.075	0.260
-521.960	-180.711	0.369	-0.008
-520.945	-15.724	-0.258	-0.166
-519.931	25.699	0.136	0.114
-518.916	-45.618	0.252	0.126
-517.902	72.466	-0.042	-0.044
-516.887	165.919	0.159	-0.227
-515.872	800.000	-0.029	0.115
-514.858	62.758	0.197	-0.199
-513.843	-0.787	0.099	-0.071
-512.829	-44.072	0.426	0.216
-511.814	523.240	0.141	0.335
-510.799	154.372	-0.097	-0.134
-509.785	-200.000	0.091	0.414
-508.770	-1.488	-0.110	-0.078
-507.756	-1.437	0.085	0.060
-506.741	-200.000	-0.001	0.140
-505.726	-26.319	0.108	0.064
-504.712	6.735	-0.132	0.099
-503.697	800.000	-0.097	0.279
-502.683	-33.813	0.426	-0.237
-501.668	-200.000	-0.060	-0.000
-500.653	285.973	-0.174	0.317
-499.639	-70.835	-0.100	-0.038
-498.624	96.416	-0.033	-0.038
-497.610	596.666	0.073	0.183
-496.595	247.123	-0.072	-0.122
-495.581	6.332	-0.143	-0.107
-494.566	-200.000	-0.060	0.289
-493.551	238.780	-0.039	-0.066
-492.537	-200.000	-0.045	-0.478
-491.522	-125.099	0.272	-0.042
-490.508	16.943	-0.286	0.228
-489.493	140.853	0.202	-0.269
-488.478	157.211	0.031	0.044
-487.464	328.157	-0.137	0.265
-486.449	800.000	0.102	-0.367
-485.435	530.347	-0.070	-0.168
-484.420	61.180	0.083	-0.083
-483.405	-171.660	-0.217	0.007
-482.391	574.109	-0.088	0.216
-481.376	-200.000	-0.228	0.001
-480.362	195.838	-0.262	0.402
-479.347	331.253	-0.187	0.363
-478.332	417.722	-0.115	0.247
-477.318	800.000	-0.050	0.215
-476.303	-45.219	0.428	-0.215
-475.289	-78.754	-0.255	-0.088
-474.274	26.529	-0.072	0.060
-473.259	-3.061	-0.319	-0.224
-472.245	19.560	-0.107	-0.086
-471.230	698.266	0.004	0.011
-470.216	-93.397	0.078	-0.022
-469.201	83.770	0.118	0.130
-468.186	-200.000	0.006	0.100
-467.172	800.000	0.045	0.138
-466.157	-21.394	-0.104	0.064
-465.143	800.000	-0.118	0.479
-464.128	104.297	0.121	0.143
-463.113	78.018	-0.086	-0.092
-462.099	164.523	0.249	0.354
-461.084	454.472	0.123	0.274
-460.070	-51.197	-0.279	-0.132
-459.055	-109.963	0.208	0.044
-458.040	-97.765	-0.209	-0.054
-457.026	153.778	-0.096	0.133
-456.011	453.249	0.100	0.222
-454.997	379.615	0.088	0.181
-453.982	-200.000	0.012	-0.256
-452.968	145.972	0.083	-0.112
-451.953	800.000	-0.047	-0.184
-450.938	-67.165	-0.326	0.129
-449.924	600.300	-0.014	0.035
-448.909	800.000	-0.123	0.501
-447.895	311.792	0.129	0.243
-446.880	180.041	0.146	0.215
-445.865	-133.214	-0.141	0.018
-444.851	-74.465	-0.299	0.109
-443.836	-200.000	-0.006	0.207
-442.822	-167.304	0.239	-0.010
-441.807	-69.719	0.104	0.040
-440.792	-77.230	-0.167	0.059
-439.778	-126.405	-0.234	0.035
-438.763	-200.000	0.014	-0.405
-437.749	161.799	0.188	-0.266
-436.734	60.345	0.320	0.319
-435.719	59.334	-0.254	0.252
-434.705	-200.000	-0.011	-0.248
-433.690	-111.395	0.278	-0.057
-432.676	789.545	0.072	-0.199
-431.661	-49.624	-0.399	-0.191
-430.646	-80.493	0.260	-0.087
-429.632	-200.000	0.029	0.273
-428.617	-25.050	0.327	-0.195
-427.603	21.391	-0.190	0.156
-426.588	800.000	-0.069	-0.292
-425.573	-72.468	-0.259	0.096
-424.559	800.000	-0.032	0.098
-423.544	-200.000	-0.025	-0.123
-422.530	-147.939	0.190	-0.016
-421.515	-200.000	0.018	0.274
-420.500	115.332	0.234	-0.288
-419.486	-44.066	0.205	-0.104
-418.471	-200.000	0.001	-0.152
-417.457	-200.000	-0.013	0.099
-416.442	-200.000	0.001	-0.183
-415.428	-97.944	0.168	-0.044
-414.413	121.300	0.197	0.247
-413.398	-138.093	0.134	0.015
-412.384	-55.141	0.166	-0.075
-411.369	-174.884	-0.392	0.011
-410.355	504.078	0.028	0.065
-409.340	800.000	-0.071	-0.229
-408.325	-200.000	0.015	-0.166
-407.311	-130.385	0.151	0.021
-406.296	578.625	-0.134	0.330
-405.282	-137.830	0.156	-0.018
-404.267	800.000	0.024	0.088
-403.252	-200.000	0.093	-0.423
-402.238	-181.886	0.098	0.002
-401.223	554.869	-0.142	-0.342
-400.209	-160.249	0.078	0.004
-399.194	-200.000	0.321	0.001
-398.179	-75.519	0.234	0.084
-397.165	343.045	-0.132	-0.260
-396.150	-200.000	-0.020	-0.095
-395.136	402.788	0.185	0.390
-394.121	371.734	0.080	-0.163
-393.106	154.134	-0.126	-0.173
-392.092	-159.736	-0.082	0.005
-391.077	-99.185	0.195	0.050
-390.063	-200.000	0.016	0.184
-389.048	234.006	-0.042	0.070
-388.033	730.744	-0.094	0.252
-387.019	-200.000	-0.014	0.071
-386.004	-52.014	0.125	0.058
-384.990	739.806	-0.124	-0.333
-383.975	800.000	-0.040	-0.111
-382.960	15.769	0.179	0.142
-381.946	-99.359	0.184	-0.046
-380.931	171.012	-0.080	-0.115
-379.917	-200.000	-0.010	-0.135
-378.902	-57.463	-0.218	-0.096
-377.888	-47.151	0.070	-0.034
-376.873	40.733	0.149	-0.135
-375.858	109.223	0.090	0.108
-374.844	768.898	0.040	0.110
-373.829	-52.675	-0.320	0.148
-372.815	-59.402	-0.439	0.190
-371.800	-95.314	-0.163	0.044
-370.785	-44.844	-0.539	-0.270
-369.771	320.170	0.146	-0.278
-368.756	800.000	0.129	0.472
-367.742	13.566	0.163	-0.127
-366.727	-200.000	0.035	0.221
-365.712	-120.789	0.273	-0.046
-364.698	126.092	0.248	0.315
-363.683	13.207	0.240	0.187
-362.669	-196.787	0.164	-0.001
-361.654	-200.000	-0.002	-0.047
-360.639	-74.539	0.187	-0.068
-359.625	-58.106	0.149	-0.065
-358.610	93.396	-0.078	-0.088
-357.596	42.437	0.090	-0.082
-356.581	-200.000	-0.012	-0.282
-355.566	-136.219	0.124	-0.015
-354.552	-118.438	0.178	-0.032
-353.537	49.914	0.160	-0.151
-352.523	632.014	0.079	-0.201
-351.508	-143.337	0.399	-0.038
-350.493	-162.256	-0.277	0.014
-349.479	-108.414	0.323	0.070
-348.464	-200.000	-0.028	-0.207
-347.450	-200.000	0.050	-0.293
-346.435	323.645	0.158	-0.303
-345.420	-47.550	-0.309	-0.150
-344.406	-200.000	-0.013	-0.164
-343.391	199.222	0.137	0.210
-342.377	179.352	-0.090	-0.133
-341.362	800.000	-0.096	-0.329
-340.348	3.949	0.022	0.016
-339.333	-200.000	0.032	0.156
-338.318	-200.000	0.010	0.221
-337.304	51.729	-0.320	-0.305
-336.289	62.130	0.194	-0.194
-335.275	-200.000	-0.011	-0.139
-334.260	-102.122	-0.213	0.051
-333.245	-200.000	0.012	0.075
-332.231	-200.000	0.018	-0.082
-331.216	-200.000	0.026	-0.147
-330.202	-111.581	-0.398	-0.081
-329.187	361.352	-0.148	0.297
-328.172	34.969	0.203	-0.178
-327.158	-200.000	-0.003	0.172
-326.143	-84.993	0.110	0.035
-325.129	314.506	-0.077	-0.145
-324.114	-200.000	0.032	-0.312
-323.099	238.047	-0.180	-0.300
-322.085	-132.867	-0.132	-0.017
-321.070	206.844	0.149	-0.233
-320.056	465.820	0.059	-0.132
-319.041	34.874	0.179	-0.157
-318.026	-200.000	0.031	-0.190
-317.012	-129.462	-0.106	-0.015
-315.997	-150.048	-0.248	-0.019
-314.983	344.931	-0.086	-0.170
-313.968	-14.458	-0.087	0.056
-312.953	576.068	-0.177	-0.432
-311.939	-150.640	-0.204	-0.016
-310.924	-89.294	0.112	-0.033
-309.910	83.244	-0.253	0.276
-308.895	-70.055	0.200	0.076
-307.880	-92.884	0.391	0.109
-306.866	-150.000	-0.197	0.015
-305.851	-40.232	0.130	-0.068
-304.837	800.000	0.039	-0.127
-303.822	-79.659	-0.111	-0.038
-302.807	427.792	-0.235	0.509
-301.793	-146.993	-0.348	-0.030
-300.778	-200.000	0.023	-0.270
-299.764	800.000	-0.046	-0.168
-298.749	-200.000	-0.043	-0.197
-297.735	-121.070	-0.132	0.022
-296.720	800.000	-0.006	-0.019
-295.705	-145.506	0.286	-0.026
-294.691	-200.000	-0.009	0.117
-293.676	226.096	0.070	0.113
-292.662	19.557	0.291	-0.234
-291.647	-200.000	-0.001	-0.114
-290.632	-200.000	-0.022	0.139
-289.618	800.000	-0.099	0.325
-288.603	-200.000	0.017	0.460
-287.589	-101.228	0.307	-0.075
-286.574	186.807	0.132	-0.197
-285.559	51.585	-0.157	0.149
-284.545	-27.814	-0.225	-0.130
-283.530	47.977	-0.084	0.078
-282.516	-108.349	0.384	-0.083
-281.501	-62.789	0.097	-0.040
-280.486	-15.814	-0.186	0.119
-279.472	-105.942	-0.106	-0.024
-278.457	64.015	0.255	0.256
-277.443	-6.853	0.228	0.155
-276.428	163.511	-0.083	0.116
-275.413	40.374	0.330	-0.297
-274.399	377.466	-0.063	-0.128
-273.384	-0.764	-0.154	0.109
-272.370	-112.602	0.293	-0.058
-271.355	-155.340	0.211	-0.014
-270.340	40.031	-0.178	0.160
-269.326	120.951	0.095	0.118
-268.311	287.621	0.186	0.336
-267.297	374.819	-0.164	0.335
-266.282	-200.000	-0.032	-0.259
-265.267	265.289	-0.174	0.303
-264.253	710.313	-0.044	0.115
-263.238	-69.701	0.284	-0.109
-262.224	-57.278	-0.248	-0.109
-261.209	-1.246	-0.216	0.152
-260.195	-57.083	-0.156	-0.069
-259.180	-77.970	0.169	0.058
-258.165	-114.970	-0.387	0.074
-257.151	800.000	0.048	-0.158
-256.136	-79.581	0.268	-0.090
-255.122	-70.092	-0.272	-0.103
-254.107	-200.000	0.023	0.235
-253.092	800.000	0.038	-0.109
-252.078	569.113	0.140	-0.340
-251.063	-182.683	0.093	-0.002
-250.049	-89.227	-0.085	-0.025
-249.034	370.721	-0.049	-0.099
-248.019	-200.000	-0.024	0.150
-247.005	800.000	0.049	-0.144
-245.990	-50.935	-0.128	0.060
-244.976	258.615	0.113	-0.195
-243.961	800.000	0.024	0.085
-242.946	-82.060	-0.099	0.032
-241.932	-126.438	-0.069	-0.010
-240.917	800.000	-0.157	0.474
-239.903	254.544	-0.010	0.018
-238.888	76.576	0.331	0.350
-237.873	800.000	-0.037	0.121
-236.859	277.939	-0.123	0.219
-235.844	-200.000	0.019	0.335
-234.830	-128.572	-0.156	0.022
-233.815	-96.087	0.307	0.081
-232.800	404.182	0.080	0.169
-231.786	800.000	-0.041	0.168
-230.771	-28.402	-0.111	0.064
-229.757	218.129	-0.174	-0.277
-228.742	-200.000	0.042	0.258
-227.727	117.482	-0.027	-0.033
-226.713	-87.147	-0.092	-0.028
-225.698	-85.729	-0.313	-0.097
-224.684	-173.714	0.206	-0.006
-223.669	800.000	0.077	-0.216
-222.655	285.049	0.174	-0.313
-221.640	-96.826	-0.190	0.050
-220.625	82.383	-0.063	0.068
-219.611	-17.651	-0.095	0.059
-218.596	-137.430	-0.040	0.005
-217.582	-100.055	0.140	0.035
-216.567	695.543	-0.160	0.418
-215.552	23.344	0.340	0.279
-214.538	-96.312	0.226	-0.060
-213.523	-200.000	0.025	-0.159
-212.509	-89.207	0.094	0.028
-211.494	568.164	-0.057	0.138
-210.479	16.785	0.093	-0.073
-209.465	800.000	-0.091	-0.287
-208.450	-15.195	-0.222	-0.142
-207.436	-39.830	0.105	0.055
-206.421	-79.782	0.112	0.037
-205.406	-52.174	0.158	-0.073
-204.392	153.011	-0.135	0.184
-203.377	31.484	-0.014	0.012
-202.363	-190.440	-0.091	0.001
-201.348	-95.583	-0.151	-0.040
-200.333	-84.846	-0.085	0.027
-199.319	-25.820	-0.307	0.181
-198.304	65.906	0.056	0.056
-197.290	267.146	0.086	-0.149
-196.275	242.540	0.143	-0.239
-195.260	-86.917	0.259	-0.079
-194.246	-4.449	-0.133	0.091
-193.231	118.324	0.154	-0.189
-192.217	800.000	0.104	0.402
-191.202	315.480	0.166	-0.313
-190.187	-156.139	0.075	0.005
-189.173	772.278	0.051	0.138
-188.158	-102.740	-0.188	0.045
-187.144	800.000	-0.027	0.090
-186.129	173.732	0.041	0.059
-185.114	800.000	0.088	0.304
-184.100	25.496	0.059	-0.049
-183.085	-200.000	0.037	-0.402
-182.071	-141.866	-0.218	0.022
-181.056	-200.000	-0.003	-0.076
-180.042	-112.572	0.196	0.039
-179.027	165.640	-0.054	0.076
-178.012	-72.556	-0.148	0.055
-176.998	-200.000	0.020	0.125
-175.983	35.229	-0.064	0.056
-174.969	185.988	-0.118	0.175
-173.954	-198.029	0.218	0.001
-172.939	285.193	0.069	0.124
-171.925	-200.000	0.013	-0.324
-170.910	-0.297	-0.183	-0.130
-169.896	241.135	-0.169	-0.281
-168.881	12.776	-0.224	-0.172
-167.866	94.419	0.190	0.215
-166.852	-54.864	-0.031	0.014
-165.837	-158.513	0.131	0.008
-164.823	-40.312	0.150	-0.078
-163.808	-160.327	0.129	0.007
-162.793	-36.592	0.181	0.097
-161.779	-41.459	-0.335	0.171
-160.764	-58.513	-0.153	-0.066
-159.750	-200.000	0.023	0.271
-158.735	-100.620	0.229	0.056
-157.720	223.841	0.046	0.074
-156.706	-28.611	0.027	0.016
-155.691	423.216	-0.183	0.390
-154.677	800.000	0.039	-0.147
-153.662	-120.432	-0.111	0.019
-152.647	-14.002	0.233	-0.150
-151.633	78.407	0.109	0.115
-150.618	-200.000	-0.015	0.286
-149.604	800.000	-0.039	-0.126
-148.589	-35.714	-0.249	0.134
-147.574	231.639	0.102	0.166
-146.560	78.370	-0.045	-0.048
-145.545	62.719	-0.083	0.083
-144.531	11.809	0.222	-0.170
-143.516	98.838	-0.106	-0.122
-142.502	-170.533	-0.169	-0.006
-141.487	55.723	0.206	0.198
-140.472	-49.953	-0.245	-0.115
-139.458	-65.810	0.197	0.079
-138.443	-23.441	0.227	0.135
-137.429	-142.140	-0.070	-0.007
-136.414	-200.000	0.061	-0.293
-135.399	-57.983	0.094	0.041
-134.385	-200.000	-0.008	0.057
-133.370	-39.355	-0.038	-0.020
-132.356	-71.978	0.211	-0.078
-131.341	210.022	0.069	0.107
-130.326	-141.537	0.181	0.018
-129.312	115.747	0.216	-0.263
-128.297	-50.609	-0.337	-0.158
-127.283	352.541	-0.024	-0.047
-126.268	580.280	0.090	0.220
-125.253	800.000	-0.130	0.407
-124.239	800.000	0.039	0.159
-123.224	-85.166	0.173	-0.054
-122.210	63.930	0.051	-0.051
-121.195	61.005	0.175	0.173
-120.180	5.469	-0.315	-0.231
-119.166	62.390	0.222	-0.220
-118.151	-48.932	-0.310	0.148
-117.137	-200.000	-0.052	0.304
-116.122	73.653	-0.048	0.049
-115.107	-50.618	-0.194	-0.091
-114.093	-34.605	-0.081	0.044
-113.078	161.563	-0.064	-0.089
-112.064	-42.491	0.104	-0.053
-111.049	403.307	0.151	-0.316
-110.034	-191.318	-0.244	0.002
-109.020	-200.000	-0.040	0.433
-108.005	31.038	0.011	0.009
-106.991	557.761	-0.093	0.223
-105.976	237.799	0.048	-0.078
-104.962	116.942	0.218	0.266
-103.947	300.020	-0.193	-0.354
-102.932	3.248	0.312	-0.225
-101.918	800.000	0.048	0.189
-100.903	800.000	-0.092	-0.374
-99.889	800.000	-0.042	0.159
-98.874	800.000	-0.068	0.243
-97.859	-98.398	-0.263	-0.067
-96.845	31.530	-0.034	-0.029
-95.830	-89.107	0.234	0.069
-94.816	800.000	-0.098	-0.320
-93.801	-118.706	0.184	0.032
-92.786	-92.587	0.385	0.107
-91.772	140.352	0.123	0.161
-90.757	-73.982	-0.303	-0.109
-89.743	570.330	0.068	0.164
-88.728	2.147	-0.059	0.042
-87.713	-200.000	-0.004	0.087
-86.699	-31.795	0.484	0.270
-85.684	197.266	-0.091	0.138
-84.670	191.935	0.234	0.350
-83.655	-161.685	0.324	0.016
-82.640	-41.868	0.325	0.165
-81.626	375.907	0.045	0.092
-80.611	254.468	-0.095	-0.161
-79.597	800.000	-0.026	-0.112
-78.582	-49.701	0.072	0.034
-77.567	135.012	0.082	-0.106
-76.553	-123.630	0.356	-0.056
-75.538	310.813	-0.228	-0.425
-74.524	800.000	0.071	-0.280
-73.509	-200.000	0.016	-0.471
-72.494	14.820	0.328	-0.254
-71.480	157.368	0.099	-0.135
-70.465	800.000	-0.031	0.105
-69.451	68.493	-0.155	-0.158
-68.436	-200.000	0.031	0.311
-67.422	9.099	0.141	0.106
-66.407	-200.000	0.019	0.395
-65.392	180.240	-0.013	0.019
-64.378	4.638	0.075	-0.055
-63.363	4.749	0.044	0.032
-62.349	-149.693	0.219	-0.017
-61.334	277.732	-0.458	-0.808
-60.319	-28.932	0.181	0.103
-59.305	478.168	-0.416	-0.933
-58.290	120.116	0.692	0.851
-57.276	771.813	0.607	1.640
-56.261	-200.000	96.060	547.661
-55.246	483.988	1436.721	3240.878
-54.232	141.006	2669.897	3499.857
-53.217	99.404	2388.320	2738.581
-52.203	39.836	2129.908	1895.326
-51.188	35.164	2042.268	1774.130
-50.173	33.742	2024.255	1745.344
-49.159	47.446	2074.891	1916.952
-48.144	49.475	2094.902	1954.293
-47.130	35.929	2053.453	1790.686
-46.115	33.622	2042.473	1759.664
-45.100	33.557	2039.071	1756.057
-44.086	33.495	2036.814	1753.471
-43.071	33.428	2034.423	1750.722
-42.057	33.379	2031.893	1748.030
-41.042	33.379	2029.743	1746.107
-40.027	33.443	2027.686	1744.859
-39.013	33.574	2025.155	1743.816
-37.998	33.493	2024.077	1742.076
-36.984	33.587	2021.604	1740.739
-35.969	33.554	2020.226	1739.184
-34.954	33.612	2018.252	1737.941
-33.940	33.661	2016.245	1736.597
-32.925	33.587	2015.262	1735.003
-31.911	33.615	2013.319	1733.516
-30.896	33.537	2011.716	1731.355
-29.881	33.615	2010.284	1730.766
-28.867	33.695	2008.526	1729.914
-27.852	33.644	2006.894	1727.974
-26.838	33.649	2004.700	1726.059
-25.823	33.643	2002.396	1723.952
-24.809	33.672	2000.576	1722.583
-23.794	33.644	1999.412	1721.259
-22.779	33.614	1997.716	1719.455
-21.765	33.593	1996.341	1718.018
-20.750	33.656	1994.526	1716.960
-19.736	33.687	1992.729	1715.625
-18.721	33.767	1991.080	1714.857
-17.706	33.686	1989.504	1712.702
-16.692	33.641	1987.550	1710.543
-15.677	33.582	1986.446	1708.998
-14.663	33.703	1984.049	1707.957
-13.648	33.717	1983.121	1707.211
-12.633	33.704	1981.936	1706.013
-11.619	33.694	1980.705	1704.792
-10.604	33.685	1978.991	1703.167
-9.590	33.676	1977.486	1701.726
-8.575	33.648	1975.955	1700.086
-7.560	33.693	1974.658	1699.309
-6.546	33.791	1972.984	1698.677
-5.531	33.715	1972.315	1697.355
-4.517	33.673	1970.769	1695.577
-3.502	33.578	1970.095	1694.083
-2.487	33.596	1968.732	1693.003
-1.473	33.679	1967.449	1692.575
-0.458	33.751	1963.256	1689.539
0.556	32.670	1944.403	1667.625
1.571	28.852	1925.348	1617.609
2.586	24.620	1948.190	1598.873
3.600	23.163	1983.795	1614.672
4.615	22.055	1978.013	1599.734
5.629	16.934	1872.961	1470.352
6.644	6.969	1746.071	1289.696
7.659	1.271	1704.970	1213.749
8.673	0.598	1701.992	1206.153
9.688	0.633	1700.206	1205.061
10.702	0.641	1698.711	1203.951
11.717	0.458	1695.359	1200.017
12.731	1.075	1694.718	1204.363
13.746	7.751	1710.769	1269.079
14.761	15.923	1726.950	1346.567
15.775	17.894	1728.351	1363.297
16.790	17.109	1725.636	1354.776
17.804	16.142	1722.262	1344.299
18.819	15.192	1718.980	1334.059
19.834	14.659	1716.442	1327.738
20.848	14.377	1714.974	1324.237
21.863	14.070	1713.281	1320.374
22.877	13.752	1711.312	1316.216
23.892	13.555	1710.036	1313.561
24.907	13.344	1709.445	1311.315
25.921	13.380	1707.895	1310.299
26.936	13.425	1706.647	1309.579
27.950	13.451	1706.241	1309.359
28.965	13.455	1705.639	1308.810
29.980	13.559	1704.999	1309.030
30.994	13.576	1703.875	1308.180
32.009	13.566	1703.004	1307.317
33.023	13.705	1702.139	1307.638
34.038	13.672	1701.117	1306.474
35.053	13.651	1699.831	1305.209
36.067	13.648	1698.838	1304.302
37.082	13.525	1697.996	1302.574
38.096	13.651	1696.754	1302.496
39.111	13.608	1696.454	1301.817
40.126	13.721	1695.021	1301.485
41.140	13.621	1694.137	1299.910
42.155	13.568	1692.797	1298.350
43.169	13.532	1691.700	1297.112
44.184	13.413	1690.569	1295.201
45.199	13.460	1689.915	1294.950
46.213	13.432	1687.794	1292.994
47.228	13.408	1686.997	1292.082
48.242	13.501	1684.940	1291.112
49.257	13.550	1684.128	1290.757
50.271	13.557	1682.607	1289.532
51.286	13.494	1681.714	1288.248
52.301	13.451	1680.964	1287.223
53.315	13.502	1678.821	1285.861
54.330	13.500	1677.632	1284.824
55.344	13.466	1675.543	1282.844
56.359	13.477	1673.541	1281.290
57.374	13.484	1672.729	1280.606
58.388	13.388	1671.831	1279.061
59.403	13.474	1670.151	1278.325
60.417	13.382	1668.702	1276.395
61.432	13.337	1667.968	1275.372
62.447	13.327	1666.780	1274.277
63.461	13.410	1665.232	1273.620
64.476	13.347	1664.246	1272.270
65.490	13.442	1663.279	1272.145
66.505	13.404	1661.844	1270.645
67.520	13.456	1660.726	1270.077
68.534	13.377	1659.926	1268.749
69.549	13.416	1658.887	1268.142
70.563	13.404	1657.550	1266.915
71.578	13.364	1656.359	1265.582
72.593	13.420	1654.923	1264.805
73.607	13.278	1654.241	1263.085
74.622	13.306	1652.738	1262.036
75.636	13.322	1651.923	1261.425
76.651	13.274	1651.057	1260.289
77.666	13.336	1650.016	1259.854
78.680	13.250	1649.315	1258.550
79.695	13.308	1648.638	1258.364
80.709	13.420	1647.100	1257.931
81.724	13.316	1646.017	1256.204
82.739	13.438	1645.092	1256.313
83.753	13.428	1644.763	1255.874
84.768	13.473	1643.578	1255.202
85.782	13.497	1642.890	1254.745
86.797	13.508	1641.982	1254.021
87.812	13.535	1640.872	1253.271
88.826	13.473	1639.311	1251.497
89.841	13.508	1638.125	1250.743
90.855	13.563	1636.894	1250.107
91.870	13.461	1636.119	1248.636
92.884	13.468	1634.996	1247.724
93.899	13.591	1633.689	1247.544
94.914	13.582	1632.383	1246.367
95.928	13.622	1631.236	1245.679
96.943	13.687	1630.241	1245.301
97.957	13.587	1629.033	1243.517
98.972	13.601	1627.324	1242.209
99.987	13.620	1625.755	1241.041
101.001	13.613	1624.206	1239.699
102.016	13.644	1622.464	1238.489
103.030	13.598	1621.147	1237.029
104.045	13.573	1619.932	1235.805
105.060	13.572	1618.892	1234.901
106.074	13.586	1617.126	1233.547
107.089	13.531	1615.339	1231.667
108.103	13.441	1614.520	1230.259
109.118	13.382	1613.151	1228.673
110.133	13.448	1611.332	1227.667
111.147	13.417	1610.375	1226.599
112.162	13.419	1608.653	1225.193
113.176	13.448	1606.900	1223.965
114.191	13.509	1605.667	1223.370
115.206	13.435	1604.797	1222.051
116.220	13.478	1603.146	1221.004
117.235	13.574	1601.535	1220.375
118.249	13.533	1600.121	1218.885
119.264	13.497	1599.206	1217.816
120.279	13.504	1597.870	1216.744
121.293	13.484	1596.188	1215.213
122.308	13.471	1594.693	1213.871
123.322	13.414	1593.314	1212.297
124.337	13.441	1591.761	1211.204
125.352	13.432	1590.560	1210.117
126.366	13.402	1589.472	1208.962
127.381	13.515	1588.227	1208.732
128.395	13.480	1587.156	1207.559
129.410	13.428	1585.843	1206.071
130.424	13.435	1584.123	1204.706
131.439	13.484	1582.697	1203.870
132.454	13.462	1581.307	1202.549
133.468	13.556	1580.154	1202.247
134.483	13.564	1578.150	1200.674
135.497	13.554	1577.307	1199.855
136.512	13.594	1575.618	1198.755
137.527	13.612	1574.231	1197.725
138.541	13.506	1572.732	1195.708
139.556	13.586	1571.073	1194.916
140.570	13.569	1570.007	1193.884
141.585	13.624	1568.578	1193.083
142.600	13.583	1567.335	1191.742
143.614	13.574	1566.343	1190.817
144.629	13.761	1564.681	1190.790
145.643	13.744	1563.271	1189.490
146.658	13.781	1562.083	1188.741
147.673	13.711	1560.541	1186.962
148.687	13.800	1558.671	1186.073
149.702	13.704	1557.803	1184.624
150.716	13.777	1555.555	1183.327
151.731	13.646	1554.447	1181.449
152.746	13.677	1553.096	1180.538
153.760	13.707	1551.622	1179.522
154.775	13.662	1550.693	1178.396
155.789	13.730	1549.102	1177.562
156.804	13.760	1548.155	1176.953
157.819	13.755	1546.629	1175.652
158.833	13.804	1545.485	1175.028
159.848	13.812	1543.758	1173.666
160.862	13.916	1542.795	1173.567
161.877	13.825	1541.825	1172.078
162.892	13.796	1540.730	1170.942
163.906	13.739	1539.341	1169.380
164.921	13.688	1537.641	1167.628
165.935	13.739	1536.784	1167.226
166.950	13.792	1535.926	1166.851
167.964	13.805	1534.309	1165.605
168.979	13.759	1533.346	1164.453
169.994	13.824	1532.114	1163.866
171.008	13.844	1531.392	1163.354
172.023	13.795	1529.960	1161.821
173.037	13.792	1528.913	1160.903
174.052	13.919	1527.328	1160.484
175.067	13.993	1526.326	1160.138
176.081	13.953	1525.063	1158.793
177.096	13.888	1523.839	1157.310
178.110	13.894	1522.662	1156.358
179.125	13.876	1521.685	1155.384
180.140	13.881	1520.804	1154.652
181.154	13.853	1519.795	1153.583
182.169	13.974	1518.036	1152.992
183.183	13.985	1516.664	1151.923
184.198	13.985	1515.518	1150.949
185.213	14.011	1514.682	1150.390
186.227	14.024	1513.345	1149.367
187.242	14.169	1512.699	1149.773
188.256	14.113	1511.427	1148.321
189.271	14.162	1510.621	1147.943
190.286	14.203	1508.843	1146.775
191.300	14.121	1508.395	1145.767
192.315	13.950	1507.216	1143.592
193.329	13.972	1505.410	1142.275
194.344	14.091	1504.315	1142.156
195.359	13.993	1503.694	1140.915
196.373	14.056	1502.204	1140.112
197.388	14.087	1501.873	1139.976
198.402	14.201	1500.392	1139.528
199.417	14.200	1499.115	1138.450
200.432	14.274	1497.964	1137.986
201.446	14.327	1496.945	1137.468
202.461	14.294	1496.208	1136.583
203.475	14.231	1495.391	1135.434
204.490	14.369	1494.390	1135.513
205.504	14.309	1493.168	1134.077
206.519	14.273	1491.979	1132.828
207.534	14.263	1490.576	1131.595
208.548	14.319	1489.397	1130.979
209.563	14.292	1487.972	1129.611
210.577	14.380	1487.300	1129.598
211.592	14.269	1486.838	1128.400
212.607	14.360	1485.823	1128.145
213.621	14.441	1485.062	1128.017
214.636	14.371	1484.055	1126.674
215.650	14.444	1483.090	1126.340
216.665	14.479	1481.833	1125.515
217.680	14.475	1481.628	1125.238
218.694	14.477	1480.433	1124.241
219.709	14.511	1479.355	1123.554
220.723	14.574	1478.696	1123.381
221.738	14.518	1477.471	1121.968
222.753	14.518	1476.948	1121.473
223.767	14.476	1475.411	1119.927
224.782	14.536	1474.511	1119.544
225.796	14.637	1473.377	1119.264
226.811	14.702	1472.595	1119.009
227.826	14.712	1471.654	1118.262
228.840	14.624	1470.969	1117.050
229.855	14.608	1469.726	1115.902
230.869	14.623	1469.076	1115.410
231.884	14.555	1467.935	1113.988
232.899	14.619	1466.438	1113.183
233.913	14.663	1465.095	1112.355
234.928	14.623	1464.453	1111.509
235.942	14.669	1462.785	1110.446
236.957	14.606	1461.702	1109.111
237.972	14.592	1460.868	1108.287
238.986	14.548	1459.813	1107.092
240.001	14.668	1458.592	1106.868
241.015	14.613	1457.823	1105.818
242.030	14.693	1456.471	1105.223
243.045	14.655	1455.361	1104.032
244.059	14.717	1454.640	1103.799
245.074	14.755	1453.947	1103.427
246.088	14.739	1453.056	1102.546
247.103	14.742	1452.545	1102.081
248.117	14.818	1451.331	1101.562
249.132	14.931	1450.041	1101.229
250.147	14.976	1449.464	1100.993
251.161	14.935	1448.992	1100.267
252.176	15.020	1448.468	1100.332
253.190	15.101	1447.150	1099.760
254.205	15.052	1446.795	1099.072
255.220	15.076	1445.701	1098.303
256.234	15.154	1444.813	1098.047
257.249	15.158	1444.104	1097.435
258.263	15.090	1443.556	1096.473
259.278	15.108	1442.626	1095.788
260.293	15.143	1441.481	1095.050
261.307	15.271	1440.472	1095.024
262.322	15.129	1440.261	1093.842
263.336	15.245	1439.247	1093.731
264.351	15.271	1438.007	1092.862
265.366	15.296	1436.841	1092.039
266.380	15.323	1435.799	1091.325
267.395	15.349	1434.859	1090.684
268.409	15.322	1434.337	1090.015
269.424	15.350	1432.767	1088.907
270.439	15.287	1432.001	1087.820
271.453	15.299	1431.367	1087.323
272.468	15.385	1430.492	1087.120
273.482	15.376	1429.481	1086.196
274.497	15.319	1428.686	1085.124
275.512	15.288	1428.088	1084.372
276.526	15.297	1426.983	1083.499
277.541	15.364	1426.235	1083.269
278.555	15.236	1425.341	1081.664
279.570	15.393	1423.999	1081.562
280.585	15.466	1423.274	1081.390
281.599	15.580	1422.439	1081.393
282.614	15.526	1421.152	1079.969
283.628	15.546	1419.739	1078.930
284.643	15.561	1418.800	1078.216
285.657	15.506	1417.632	1076.883
286.672	15.515	1417.091	1076.436
287.687	15.609	1415.877	1076.018
288.701	15.586	1414.919	1075.050
289.716	15.573	1414.276	1074.382
290.730	15.530	1413.929	1073.744
291.745	15.616	1412.630	1073.214
292.760	15.638	1411.342	1072.282
293.774	15.610	1410.355	1071.258
294.789	15.611	1409.602	1070.598
295.803	15.651	1408.590	1069.988
296.818	15.702	1407.981	1069.756
297.833	15.640	1406.918	1068.462
298.847	15.684	1405.517	1067.580
299.862	15.684	1404.927	1067.036
300.876	15.711	1403.844	1066.290
301.891	15.656	1402.864	1065.103
302.906	15.837	1402.003	1065.505
303.920	15.845	1401.358	1064.971
304.935	15.836	1400.650	1064.277
305.949	15.950	1399.745	1064.219
306.964	15.827	1399.148	1062.891
307.979	15.944	1397.630	1062.382
308.993	15.955	1397.005	1061.883
310.008	15.959	1396.507	1061.435
311.022	15.919	1395.284	1060.160
312.037	16.017	1393.753	1059.520
313.052	15.983	1393.154	1058.761
314.066	15.895	1392.213	1057.397
315.081	15.888	1391.415	1056.654
316.095	15.909	1389.913	1055.554
317.110	15.981	1388.797	1055.058
318.125	15.977	1387.849	1054.224
319.139	15.904	1387.007	1053.032
320.154	15.964	1386.181	1052.687
321.168	16.004	1385.189	1052.090
322.183	15.971	1384.196	1051.037
323.197	16.039	1382.908	1050.388
324.212	15.963	1382.560	1049.561
325.227	15.976	1381.990	1049.118
326.241	16.094	1380.451	1048.590
327.256	16.088	1379.640	1047.843
328.270	16.102	1378.977	1047.332
329.285	16.166	1377.851	1046.779
330.300	16.100	1376.879	1045.542
331.314	16.126	1376.074	1045.002
332.329	16.043	1375.445	1043.912
333.343	16.085	1374.495	1043.364
334.358	16.068	1373.625	1042.501
335.373	16.165	1372.553	1042.195
336.387	16.223	1371.730	1041.836
337.402	16.225	1371.162	1041.324
338.416	16.181	1370.828	1040.708
339.431	16.220	1369.807	1040.085
340.446	16.238	1369.127	1039.587
341.460	16.321	1368.061	1039.198
342.475	16.329	1366.995	1038.339
343.489	16.369	1366.160	1037.862
344.504	16.426	1365.364	1037.518
345.519	16.517	1363.753	1036.759
346.533	16.471	1363.157	1035.930
347.548	16.540	1362.101	1035.459
348.562	16.513	1361.455	1034.708
349.577	16.586	1360.555	1034.384
350.592	16.479	1360.135	1033.318
351.606	16.522	1359.141	1032.736
352.621	16.439	1357.760	1031.087
353.635	16.514	1356.571	1030.546
354.650	16.447	1356.165	1029.738
355.665	16.511	1354.794	1028.998
356.679	16.536	1353.832	1028.328
357.694	16.553	1352.952	1027.675
358.708	16.595	1351.707	1026.888
359.723	16.537	1350.859	1025.806
360.738	16.569	1349.421	1024.812
361.752	16.692	1348.650	1024.883
362.767	16.607	1347.341	1023.281
363.781	16.594	1346.792	1022.697
364.796	16.577	1345.980	1021.889
365.810	16.650	1345.248	1021.680
366.825	16.776	1344.284	1021.622
367.840	16.715	1343.781	1020.782
368.854	16.822	1342.927	1020.684
369.869	16.840	1342.069	1020.054
370.883	16.876	1341.996	1020.124
371.898	16.801	1341.367	1019.100
372.913	16.833	1340.231	1018.344
373.927	16.893	1339.396	1017.977
374.942	16.881	1338.303	1016.985
375.956	16.831	1337.858	1016.257
376.971	16.895	1336.699	1015.672
377.986	16.836	1336.490	1015.066
379.000	16.901	1335.068	1014.284
380.015	16.986	1334.057	1013.939
381.029	16.986	1333.627	1013.520
382.044	16.997	1333.034	1013.048
383.059	17.070	1331.969	1012.585
384.073	17.067	1331.435	1012.069
385.088	17.047	1330.420	1011.089
386.102	17.077	1329.792	1010.702
387.117	17.124	1329.211	1010.451
388.132	17.156	1328.335	1009.886
389.146	17.054	1327.580	1008.612
390.161	17.049	1326.756	1007.872
391.175	17.008	1326.417	1007.281
392.190	17.126	1325.098	1006.888
393.205	17.058	1324.973	1006.301
394.219	17.177	1323.492	1005.790
395.234	17.288	1322.016	1005.236
396.248	17.200	1320.769	1003.678
397.263	17.158	1319.265	1002.201
398.278	17.205	1318.006	1001.435
399.292	17.109	1317.227	1000.187
400.307	17.149	1316.102	999.483
401.321	17.207	1314.753	998.705
402.336	17.168	1313.790	997.661
403.350	17.194	1312.728	996.917
404.365	17.274	1311.662	996.486
405.380	17.162	1311.110	995.323
406.394	17.235	1310.397	995.122
407.409	17.316	1309.556	994.870
408.423	17.355	1308.669	994.336
409.438	17.340	1308.207	993.810
410.453	17.432	1307.351	993.611
411.467	17.496	1306.496	993.246
412.482	17.441	1306.113	992.542
413.496	17.508	1305.447	992.340
414.511	17.529	1304.012	991.286
415.526	17.608	1303.410	991.198
416.540	17.581	1303.260	990.838
417.555	17.524	1302.442	989.800
418.569	17.522	1301.782	989.200
419.584	17.602	1301.312	989.220
420.599	17.600	1300.738	988.685
421.613	91.927	1349.520	1451.813
422.628	90.571	1356.610	1451.937
