DTS Sentinel unit serial number:	SN413079Multiplexer serial number:	ORYXHardware model number:	OX4-SRSoftware version number:	ORYX F/W v4.00 Oryx Data Collector v3.7.2.0data status	okinstallation	princeton_trtdifferential loss correction	single-endedforward channel	channel 4reverse channel	N/Adate	2019/09/11time	16:39:10forward acquisition time	60.00reverse acquisition time	0.00gamma	496.2192k internal	0.2275k external	0.2275temperature offset calibration	1.0024default loss term (dB/km)	0.3790temperature slope calibration	1.0000multiplexer offset coefficient	1.0000multiplexer slope coefficient	1.0000fibre end	0.00T internal ref (°C)	43.81T ext. ref 1 (°C)	1.11T ext. ref 2 (°C)	39.51length (m)	temperature (°C)	Stokes	anti-Stokes-747.200	-46.863	-0.287	-0.145
-746.185	-25.462	0.126	0.077
-745.171	162.243	-0.211	-0.305
-744.156	-85.528	-0.261	-0.084
-743.142	160.400	0.169	0.243
-742.127	-124.305	-0.158	0.025
-741.112	-65.482	-0.360	-0.149
-740.098	-69.651	-0.171	0.068
-739.083	574.217	0.042	0.105
-738.069	267.754	-0.247	0.446
-737.054	117.932	-0.167	0.212
-736.039	100.101	-0.204	0.244
-735.025	-200.000	0.047	0.260
-734.010	-93.346	-0.300	0.086
-732.996	34.175	-0.188	0.169
-731.981	-200.000	0.038	-0.294
-730.966	-200.000	0.042	0.242
-729.952	308.884	-0.160	0.309
-728.937	-200.000	0.004	-0.066
-727.923	-81.848	-0.269	-0.091
-726.908	59.521	0.387	-0.394
-725.894	188.522	-0.139	-0.214
-724.879	-18.297	-0.063	0.041
-723.864	36.832	-0.019	-0.018
-722.850	88.043	0.114	-0.131
-721.835	617.750	-0.100	-0.259
-720.821	-200.000	0.012	0.154
-719.806	-67.640	0.082	-0.033
-718.791	800.000	-0.080	0.233
-717.777	-162.267	-0.176	-0.009
-716.762	238.745	-0.183	-0.313
-715.748	-114.609	-0.173	0.034
-714.733	71.505	-0.193	-0.207
-713.718	145.580	-0.155	0.214
-712.704	800.000	-0.040	-0.168
-711.689	800.000	0.020	0.086
-710.675	-101.932	-0.153	-0.038
-709.660	-27.955	0.084	-0.050
-708.645	-61.282	0.196	0.085
-707.631	800.000	0.064	-0.280
-706.616	22.105	-0.107	0.090
-705.602	-200.000	-0.008	-0.058
-704.587	-119.965	-0.102	-0.018
-703.572	-130.623	0.189	-0.026
-702.558	-200.000	0.014	-0.076
-701.543	-200.000	-0.114	0.517
-700.529	-72.380	-0.130	0.050
-699.514	-200.000	0.041	0.234
-698.499	-52.462	-0.169	0.080
-697.485	800.000	-0.077	0.259
-696.470	-30.160	-0.168	0.099
-695.456	-8.076	0.443	0.307
-694.441	-200.000	0.016	-0.131
-693.426	46.418	-0.061	-0.058
-692.412	73.329	-0.104	0.112
-691.397	800.000	-0.088	0.257
-690.383	56.256	-0.159	0.159
-689.368	93.649	0.112	0.131
-688.354	-200.000	0.018	-0.096
-687.339	-47.759	-0.159	-0.079
-686.324	8.492	0.152	-0.118
-685.310	103.885	-0.055	0.066
-684.295	-92.461	-0.055	0.016
-683.281	-170.029	-0.218	0.008
-682.266	-200.000	0.009	-0.080
-681.251	-200.000	-0.034	-0.179
-680.237	-41.232	0.189	0.100
-679.222	-200.000	0.037	-0.257
-678.208	-200.000	-0.039	0.236
-677.193	-131.508	0.288	0.039
-676.178	-200.000	0.011	0.274
-675.164	119.943	-0.189	-0.241
-674.149	800.000	0.084	-0.314
-673.135	-6.561	0.164	-0.115
-672.120	-200.000	0.061	-0.344
-671.105	800.000	-0.089	0.255
-670.091	-109.965	0.207	-0.045
-669.076	-41.298	0.146	-0.077
-668.062	800.000	-0.034	-0.119
-667.047	470.867	-0.138	-0.319
-666.032	21.984	0.320	0.268
-665.018	-200.000	0.031	-0.278
-664.003	123.137	0.061	0.079
-662.989	85.549	-0.108	-0.122
-661.974	-35.258	0.028	0.015
-660.959	800.000	-0.102	-0.327
-659.945	-38.557	-0.094	0.051
-658.930	68.633	0.186	0.197
-657.916	-200.000	-0.028	0.258
-656.901	-180.618	0.268	-0.006
-655.886	323.355	-0.039	0.076
-654.872	113.382	0.137	-0.171
-653.857	800.000	-0.022	-0.081
-652.843	96.190	0.123	-0.144
-651.828	-36.012	-0.142	0.079
-650.814	260.395	0.047	0.084
-649.799	-39.321	-0.130	-0.070
-648.784	-81.890	-0.264	-0.089
-647.770	800.000	0.031	0.102
-646.755	-200.000	0.028	-0.150
-645.741	117.734	-0.177	0.223
-644.726	-200.000	-0.053	-0.436
-643.711	364.713	-0.135	-0.279
-642.697	96.321	0.113	-0.132
-641.682	342.048	-0.157	-0.316
-640.668	304.749	0.105	0.200
-639.653	-200.000	0.054	-0.298
-638.638	0.227	0.080	-0.059
-637.624	-69.196	-0.158	0.062
-636.609	70.706	-0.026	0.028
-635.595	387.830	0.027	0.057
-634.580	-56.122	-0.331	0.152
-633.565	-173.662	0.217	0.007
-632.551	253.055	-0.067	0.118
-631.536	-94.313	-0.154	-0.043
-630.522	36.030	-0.093	-0.084
-629.507	639.088	0.052	0.137
-628.492	77.245	0.121	0.132
-627.478	-128.620	-0.095	0.014
-626.463	53.099	-0.187	-0.184
-625.449	-134.293	0.179	-0.023
-624.434	26.106	-0.291	-0.250
-623.419	-105.442	0.231	-0.054
-622.405	-32.937	0.174	-0.099
-621.390	-200.000	-0.036	-0.249
-620.376	-200.000	-0.065	-0.304
-619.361	117.592	0.097	-0.123
-618.346	-47.728	-0.298	-0.148
-617.332	-32.357	-0.077	-0.044
-616.317	-200.000	-0.062	-0.309
-615.303	203.722	0.105	-0.167
-614.288	-162.465	-0.446	0.023
-613.273	-40.429	0.164	-0.087
-612.259	-66.422	0.285	-0.116
-611.244	-125.416	0.201	0.031
-610.230	196.473	-0.111	-0.173
-609.215	-189.209	-0.317	-0.004
-608.201	-64.508	0.053	-0.022
-607.186	11.602	-0.179	-0.141
-606.171	-111.825	0.244	0.051
-605.157	800.000	-0.020	-0.078
-604.142	-50.848	0.142	-0.068
-603.128	-39.273	-0.044	0.024
-602.113	-9.991	-0.097	-0.066
-601.098	287.848	0.146	0.272
-600.084	-94.860	-0.172	-0.048
-599.069	-41.727	0.082	-0.043
-598.055	-59.060	-0.346	-0.153
-597.040	-153.321	0.166	0.012
-596.025	86.871	-0.080	0.090
-595.011	27.628	0.383	-0.330
-593.996	-200.000	0.230	0.000
-592.982	59.055	0.036	0.037
-591.967	-36.240	0.231	0.128
-590.952	-87.727	-0.266	0.082
-589.938	26.458	0.219	0.188
-588.923	-97.326	0.192	0.051
-587.909	87.768	0.185	-0.211
-586.894	800.000	-0.068	-0.295
-585.879	-175.559	-0.303	0.008
-584.865	800.000	0.025	0.096
-583.850	431.917	0.135	0.301
-582.836	800.000	-0.083	0.248
-581.821	-168.894	0.231	0.009
-580.806	11.602	0.071	0.056
-579.792	613.339	0.093	-0.238
-578.777	-200.000	0.058	0.268
-577.763	11.275	-0.086	-0.068
-576.748	147.687	0.039	-0.054
-575.733	-117.964	0.264	-0.048
-574.719	800.000	-0.075	0.231
-573.704	135.914	-0.066	0.088
-572.690	-47.614	0.052	0.026
-571.675	-121.402	0.465	0.079
-570.661	44.647	0.254	-0.239
-569.646	34.667	0.111	-0.099
-568.631	200.223	0.160	-0.252
-567.617	401.502	0.085	-0.183
-566.602	-0.757	-0.147	-0.106
-565.588	-123.460	-0.165	-0.027
-564.573	168.268	0.050	-0.073
-563.558	-143.478	-0.085	0.008
-562.544	800.000	0.028	0.086
-561.529	38.881	-0.102	-0.093
-560.515	139.020	0.084	0.112
-559.500	18.548	-0.118	-0.097
-558.485	-55.962	-0.278	0.127
-557.471	800.000	0.130	0.439
-556.456	240.841	0.199	-0.340
-555.442	522.741	-0.064	0.153
-554.427	800.000	-0.102	0.320
-553.412	-105.922	-0.270	-0.062
-552.398	-124.318	-0.038	0.006
-551.383	800.000	0.040	-0.171
-550.369	16.808	-0.037	-0.030
-549.354	198.789	0.125	0.196
-548.339	-146.893	-0.212	0.019
-547.325	-200.000	0.014	0.111
-546.310	-200.000	-0.058	-0.295
-545.296	-135.507	0.258	0.031
-544.281	60.878	0.297	0.301
-543.266	4.354	0.432	0.324
-542.252	800.000	-0.105	0.328
-541.237	-3.718	0.213	0.151
-540.223	24.529	-0.114	0.097
-539.208	-36.922	0.229	0.126
-538.193	-200.000	0.005	-0.031
-537.179	532.588	0.116	-0.281
-536.164	135.327	0.067	-0.089
-535.150	-158.932	0.150	0.009
-534.135	-116.081	-0.142	0.027
-533.121	-102.183	-0.318	0.078
-532.106	800.000	-0.076	0.219
-531.091	117.671	0.225	0.283
-530.077	199.596	-0.123	-0.194
-529.062	-14.869	-0.118	-0.078
-528.048	-191.738	-0.190	0.002
-527.033	-54.016	-0.213	0.099
-526.018	-90.977	0.295	-0.087
-525.004	-55.580	-0.232	-0.106
-523.989	-200.000	-0.024	-0.149
-522.975	688.440	0.076	-0.204
-521.960	-200.000	-0.040	0.219
-520.945	450.293	-0.010	-0.022
-519.931	115.671	0.176	-0.220
-518.916	69.250	0.161	-0.169
-517.902	86.407	0.096	0.108
-516.887	456.002	0.079	0.180
-515.872	36.718	-0.151	-0.137
-514.858	107.526	-0.093	-0.113
-513.843	-48.410	0.171	-0.084
-512.829	81.403	-0.185	0.205
-511.814	349.367	0.093	0.188
-510.799	-54.628	0.205	0.095
-509.785	-98.789	-0.309	-0.080
-508.770	-73.392	0.257	0.096
-507.756	29.689	0.012	-0.011
-506.741	132.486	0.135	0.178
-505.726	326.283	0.162	-0.317
-504.712	-102.489	0.126	-0.031
-503.697	205.478	-0.069	-0.110
-502.683	-41.668	-0.052	-0.027
-501.668	89.253	-0.043	-0.049
-500.653	-143.498	-0.318	0.031
-499.639	155.465	0.123	-0.173
-498.624	-85.023	0.164	-0.053
-497.610	657.852	-0.097	0.254
-496.595	-5.741	-0.068	-0.048
-495.581	-200.000	0.044	-0.423
-494.566	-35.067	-0.171	0.095
-493.551	320.350	-0.094	0.182
-492.537	800.000	-0.042	0.156
-491.522	102.744	0.054	-0.065
-490.508	236.324	-0.049	-0.083
-489.493	-200.000	0.000	-0.413
-488.478	-200.000	-0.013	0.249
-487.464	-200.000	-0.016	-0.350
-486.449	95.198	-0.163	-0.190
-485.435	-58.150	0.068	-0.030
-484.420	434.687	0.057	0.127
-483.405	374.318	0.055	-0.115
-482.391	367.123	0.119	-0.245
-481.376	42.912	-0.322	-0.300
-480.362	37.289	0.124	-0.112
-479.347	-200.000	0.027	0.347
-478.332	800.000	-0.013	0.051
-477.318	26.660	-0.075	0.064
-476.303	-85.647	-0.126	-0.040
-475.289	800.000	0.024	-0.085
-474.274	240.915	0.091	-0.155
-473.259	-114.929	0.169	-0.033
-472.245	77.878	0.140	-0.152
-471.230	-200.000	0.022	0.114
-470.216	-68.489	-0.265	0.105
-469.201	25.130	0.060	-0.051
-468.186	108.075	-0.111	-0.134
-467.172	408.149	0.029	-0.064
-466.157	-65.419	0.241	-0.099
-465.143	-162.125	-0.171	-0.009
-464.128	-105.361	-0.173	0.040
-463.113	-29.883	0.328	-0.191
-462.099	-18.342	0.151	0.096
-461.084	240.103	-0.107	-0.181
-460.070	-99.048	0.312	0.081
-459.055	21.308	-0.180	-0.149
-458.040	800.000	0.008	-0.025
-457.026	181.836	0.123	0.185
-456.011	-108.369	-0.135	0.030
-454.997	-78.916	0.235	0.081
-453.982	-43.379	0.168	-0.086
-452.968	-177.292	-0.100	0.003
-451.953	12.046	0.266	0.209
-450.938	159.872	-0.167	0.237
-449.924	424.744	0.075	-0.165
-448.909	-200.000	0.037	-0.305
-447.895	800.000	0.099	-0.409
-446.880	-68.770	-0.220	-0.087
-445.865	800.000	0.026	0.073
-444.851	800.000	-0.093	0.337
-443.836	-131.026	-0.278	0.038
-442.822	-200.000	0.038	0.254
-441.807	-76.810	-0.382	-0.136
-440.792	43.479	0.067	0.062
-439.778	118.735	-0.146	0.184
-438.763	-174.309	0.161	-0.005
-437.749	134.329	-0.197	0.260
-436.734	-16.768	-0.260	0.168
-435.719	-200.000	-0.006	0.072
-434.705	469.468	0.064	-0.146
-433.690	-200.000	-0.002	-0.215
-432.676	-122.994	-0.270	0.044
-431.661	88.274	-0.185	-0.209
-430.646	-170.265	-0.227	-0.008
-429.632	556.489	0.200	-0.490
-428.617	484.101	-0.123	0.285
-427.603	-24.644	-0.026	-0.016
-426.588	-200.000	-0.001	0.091
-425.573	-118.284	-0.315	-0.057
-424.559	57.102	0.172	-0.170
-423.544	31.453	-0.149	-0.131
-422.530	-78.812	-0.120	-0.042
-421.515	-172.394	0.202	-0.007
-420.500	-200.000	-0.003	0.024
-419.486	-58.056	-0.080	-0.036
-418.471	-56.443	-0.207	0.093
-417.457	98.052	0.150	0.176
-416.442	-56.592	0.106	0.048
-415.428	-20.954	0.377	-0.235
-414.413	-75.869	-0.171	0.062
-413.398	-200.000	-0.087	0.392
-412.384	261.807	-0.031	-0.055
-411.369	206.671	-0.035	0.055
-410.355	-13.112	0.175	0.116
-409.340	-120.090	-0.364	-0.063
-408.325	-37.032	0.394	0.215
-407.311	434.060	0.042	0.094
-406.296	35.863	-0.050	-0.044
-405.282	-103.932	0.306	-0.073
-404.267	-157.303	0.118	0.007
-403.252	28.890	0.213	0.183
-402.238	181.058	-0.206	0.308
-401.223	505.796	-0.080	0.190
-400.209	173.322	-0.149	0.218
-399.194	196.536	0.104	0.161
-398.179	-77.981	-0.365	0.128
-397.165	-132.568	0.336	0.044
-396.150	800.000	0.054	0.196
-395.136	-23.197	0.275	0.168
-394.121	-200.000	-0.008	0.159
-393.106	-101.810	0.066	-0.016
-392.092	5.633	-0.123	-0.092
-391.077	-81.940	-0.175	-0.058
-390.063	-87.656	-0.243	0.075
-389.048	-1.545	-0.099	-0.071
-388.033	302.716	-0.062	-0.117
-387.019	800.000	-0.070	-0.275
-386.004	800.000	0.062	0.261
-384.990	-95.208	-0.303	-0.083
-383.975	703.968	-0.168	0.451
-382.960	-72.178	0.294	-0.111
-381.946	796.801	-0.134	0.377
-380.931	33.920	0.068	0.060
-379.917	548.045	-0.033	-0.079
-378.902	-17.238	0.153	-0.098
-377.888	-147.229	-0.176	-0.015
-376.873	176.917	0.048	-0.070
-375.858	-200.000	0.053	-0.392
-374.844	22.259	-0.293	0.244
-373.829	405.913	0.105	-0.225
-372.815	-181.530	-0.096	0.002
-371.800	39.040	-0.041	0.037
-370.785	-200.000	0.023	0.236
-369.771	-162.730	0.262	-0.013
-368.756	800.000	0.100	-0.313
-367.742	-200.000	-0.023	-0.346
-366.727	-56.521	-0.455	0.205
-365.712	-200.000	-0.007	0.265
-364.698	177.370	-0.063	-0.093
-363.683	100.417	-0.167	-0.198
-362.669	68.467	-0.268	-0.279
-361.654	-71.034	0.197	-0.075
-360.639	-27.641	0.149	-0.088
-359.625	-13.809	-0.247	0.162
-358.610	691.675	-0.024	0.063
-357.596	-90.791	-0.094	-0.028
-356.581	242.581	-0.173	0.294
-355.566	-200.000	0.008	0.141
-354.552	800.000	-0.045	-0.192
-353.537	-119.562	-0.095	0.017
-352.523	-200.000	-0.037	0.322
-351.508	-33.874	0.104	-0.058
-350.493	-54.427	0.527	-0.242
-349.479	-126.355	0.172	0.026
-348.464	462.865	-0.052	-0.119
-347.450	-98.575	-0.293	0.076
-346.435	633.907	0.072	-0.184
-345.420	800.000	-0.030	0.125
-344.406	-94.737	-0.348	0.096
-343.391	3.066	-0.275	-0.203
-342.377	-64.675	0.161	0.066
-341.362	81.154	-0.303	0.332
-340.348	-122.713	-0.151	0.025
-339.333	800.000	-0.037	0.118
-338.318	94.031	-0.089	0.103
-337.304	69.635	-0.161	0.168
-336.289	151.867	-0.058	0.081
-335.275	-200.000	0.047	-0.512
-334.260	-149.410	-0.439	0.035
-333.245	91.020	-0.048	-0.055
-332.231	160.494	0.092	0.130
-331.216	-200.000	-0.058	-0.310
-330.202	235.206	-0.112	-0.188
-329.187	199.625	0.214	0.333
-328.172	72.293	-0.122	0.129
-327.158	-200.000	0.008	0.329
-326.143	-5.151	-0.080	-0.056
-325.129	800.000	0.080	-0.249
-324.114	37.192	0.339	0.305
-323.099	55.694	0.103	0.102
-322.085	-125.443	0.252	-0.039
-321.070	-2.834	-0.098	-0.069
-320.056	-108.211	-0.209	0.046
-319.041	-150.762	-0.233	-0.018
-318.026	337.944	0.090	-0.178
-317.012	-146.777	0.469	0.041
-315.997	-200.000	-0.021	0.167
-314.983	177.275	-0.161	0.238
-313.968	-64.586	0.269	0.111
-312.953	-64.743	0.200	0.082
-311.939	-52.299	0.207	0.097
-310.924	-87.705	0.158	-0.048
-309.910	-140.513	0.119	0.013
-308.895	47.395	0.096	0.091
-307.880	48.541	0.172	-0.164
-306.866	726.487	0.093	-0.251
-305.851	800.000	-0.027	0.115
-304.837	800.000	-0.110	-0.316
-303.822	200.976	0.187	-0.291
-302.807	-200.000	0.033	-0.313
-301.793	-200.000	0.022	-0.145
-300.778	-97.126	0.129	0.034
-299.764	107.306	0.087	-0.104
-298.749	-111.418	0.351	-0.072
-297.735	800.000	-0.057	-0.209
-296.720	-91.936	-0.224	-0.064
-295.705	800.000	-0.047	-0.183
-294.691	12.356	0.225	-0.176
-293.676	-94.262	-0.218	0.060
-292.662	-10.730	0.189	0.127
-291.647	-170.865	-0.064	0.002
-290.632	226.886	0.171	0.281
-289.618	-200.000	0.042	0.387
-288.603	800.000	0.066	-0.244
-287.589	85.682	0.178	0.199
-286.574	-200.000	0.059	0.331
-285.559	-89.360	-0.075	0.022
-284.545	168.837	0.010	0.015
-283.530	-25.670	0.213	-0.127
-282.516	-101.188	0.327	0.081
-281.501	-102.056	0.225	0.055
-280.486	31.721	-0.086	-0.075
-279.472	-86.261	-0.093	-0.029
-278.457	-27.718	0.066	0.039
-277.443	40.411	-0.157	0.144
-276.428	-142.613	-0.030	-0.003
-275.413	38.132	0.246	-0.222
-274.399	-200.000	-0.054	0.264
-273.384	-127.149	-0.114	-0.017
-272.370	-11.155	0.310	-0.207
-271.355	800.000	-0.060	0.220
-270.340	-10.364	0.016	-0.011
-269.326	-200.000	-0.030	-0.303
-268.311	-200.000	-0.002	-0.061
-267.297	53.919	0.095	0.092
-266.282	-63.183	0.360	-0.150
-265.267	-108.376	0.094	0.021
-264.253	-136.587	-0.196	-0.023
-263.238	-60.013	0.134	0.058
-262.224	800.000	0.026	0.096
-261.209	800.000	0.106	-0.305
-260.195	-60.918	0.336	0.144
-259.180	-117.233	0.271	0.050
-258.165	-135.106	-0.462	-0.056
-257.151	-200.000	-0.007	0.104
-256.136	645.704	-0.060	-0.154
-255.122	115.835	-0.093	0.116
-254.107	121.622	-0.057	-0.071
-253.092	10.053	-0.252	0.194
-252.078	-20.116	-0.330	-0.206
-251.063	150.354	-0.193	0.265
-250.049	175.841	-0.135	-0.198
-249.034	85.487	-0.184	0.205
-248.019	800.000	0.062	-0.181
-247.005	-111.406	0.453	0.093
-245.990	85.515	0.136	0.151
-244.976	63.129	-0.239	-0.242
-243.961	-200.000	0.001	-0.044
-242.946	-62.279	-0.227	-0.096
-241.932	-132.773	-0.422	-0.055
-240.917	-77.853	0.188	-0.066
-239.903	-58.393	-0.051	0.022
-238.888	-17.053	0.205	0.131
-237.873	-127.274	0.331	-0.049
-236.859	-200.000	-0.040	-0.214
-235.844	-200.000	0.037	-0.220
-234.830	278.991	0.119	-0.214
-233.815	-200.000	-0.010	0.262
-232.800	-200.000	-0.027	0.299
-231.786	-200.000	0.011	0.082
-230.771	191.474	0.130	0.198
-229.757	105.825	0.233	0.279
-228.742	443.083	-0.098	-0.218
-227.727	-81.348	0.318	0.106
-226.713	28.516	-0.249	0.213
-225.698	-200.000	-0.021	-0.177
-224.684	83.295	0.209	0.230
-223.669	118.761	0.130	-0.163
-222.655	-65.947	-0.189	0.076
-221.640	-200.000	0.075	-0.399
-220.625	44.215	-0.319	0.295
-219.611	-34.081	-0.231	-0.128
-218.596	-121.620	0.231	-0.039
-217.582	-200.000	-0.049	0.224
-216.567	-200.000	-0.001	-0.332
-215.552	-200.000	0.024	0.199
-214.538	315.787	-0.085	0.161
-213.523	-200.000	0.016	0.097
-212.509	255.599	0.183	0.317
-211.494	-138.130	0.024	-0.003
-210.479	-43.673	-0.303	-0.154
-209.465	-89.407	0.101	0.030
-208.450	33.268	-0.300	-0.263
-207.436	771.017	-0.064	-0.176
-206.421	587.010	0.077	0.192
-205.406	128.817	0.079	-0.102
-204.392	-122.894	-0.319	-0.052
-203.377	-200.000	0.094	0.444
-202.363	151.631	-0.158	-0.217
-201.348	702.055	0.053	-0.142
-200.333	66.089	0.192	-0.197
-199.319	375.169	-0.053	0.109
-198.304	800.000	-0.043	0.155
-197.290	79.718	-0.134	0.145
-196.275	-88.468	-0.094	0.028
-195.260	-180.682	0.158	-0.003
-194.246	-92.265	-0.047	0.013
-193.231	293.404	-0.077	-0.142
-192.217	-17.614	-0.211	0.134
-191.202	-200.000	0.008	0.146
-190.187	-120.526	0.385	-0.066
-189.173	-33.132	-0.233	0.130
-188.158	99.900	0.025	0.029
-187.144	93.466	-0.038	-0.044
-186.129	27.125	-0.084	0.071
-185.114	-108.248	0.025	-0.005
-184.100	800.000	0.069	-0.213
-183.085	240.445	0.113	0.190
-182.071	8.993	0.244	-0.186
-181.056	17.587	0.147	0.118
-180.042	135.732	0.073	0.095
-179.027	-44.672	0.199	0.100
-178.012	-49.451	0.021	0.010
-176.998	-36.158	-0.244	-0.133
-175.983	-146.324	-0.231	0.020
-174.969	-95.013	0.174	-0.047
-173.954	800.000	0.112	0.325
-172.939	-200.000	-0.016	0.382
-171.925	574.615	-0.046	0.113
-170.910	-47.707	0.311	-0.152
-169.896	-65.970	-0.243	-0.098
-168.881	-20.475	-0.060	0.037
-167.866	7.062	-0.331	0.249
-166.852	-200.000	0.022	-0.107
-165.837	-165.201	0.193	0.009
-164.823	800.000	0.009	0.037
-163.808	-132.745	-0.058	-0.007
-162.793	-200.000	-0.005	-0.140
-161.779	235.328	0.038	0.063
-160.764	121.821	0.094	-0.118
-159.750	-132.099	0.240	-0.031
-158.735	18.522	-0.179	0.144
-157.720	413.723	-0.093	-0.199
-156.706	94.330	0.116	0.133
-155.691	-111.110	-0.309	0.064
-154.677	137.227	-0.182	0.240
-153.662	-27.171	-0.056	0.033
-152.647	-145.606	-0.328	0.030
-151.633	-200.000	0.012	0.370
-150.618	-47.174	0.201	-0.099
-149.604	374.883	-0.030	-0.061
-148.589	26.511	-0.238	0.200
-147.574	40.250	0.082	-0.075
-146.560	-121.048	-0.341	-0.058
-145.545	-200.000	0.042	-0.343
-144.531	-125.360	-0.067	0.010
-143.516	-68.739	0.229	-0.089
-142.502	-200.000	0.127	-0.000
-141.487	59.627	-0.044	0.043
-140.472	800.000	-0.075	-0.222
-139.458	800.000	-0.056	-0.195
-138.443	-94.026	0.097	-0.027
-137.429	-141.649	0.276	0.028
-136.414	-200.000	0.010	0.184
-135.399	-122.856	-0.298	0.048
-134.385	294.815	0.165	0.303
-133.370	-129.442	-0.125	-0.018
-132.356	309.368	-0.111	0.210
-131.341	16.151	0.161	0.127
-130.326	-89.287	-0.342	-0.102
-129.312	10.055	-0.260	0.199
-128.297	-132.791	0.242	0.031
-127.283	526.759	0.089	0.211
-126.268	-25.134	-0.165	-0.098
-125.253	-75.248	-0.167	0.060
-124.239	198.787	0.155	0.239
-123.224	361.438	0.070	0.141
-122.210	-200.000	0.023	0.291
-121.195	50.472	0.173	-0.164
-120.180	-100.215	0.377	0.094
-119.166	82.016	0.141	-0.153
-118.151	-194.125	0.107	0.001
-117.137	-46.273	-0.138	-0.068
-116.122	-113.152	-0.072	-0.014
-115.107	39.755	0.282	-0.255
-114.093	-50.714	0.303	-0.144
-113.078	800.000	0.072	0.290
-112.064	-139.522	0.296	0.032
-111.049	-200.000	0.002	0.053
-110.034	800.000	-0.059	0.210
-109.020	-48.074	0.059	-0.029
-108.005	800.000	-0.012	-0.052
-106.991	-174.944	0.257	0.007
-105.976	21.827	-0.074	0.061
-104.962	-200.000	-0.041	-0.248
-103.947	-117.589	0.162	0.029
-102.932	-200.000	-0.057	0.272
-101.918	-78.169	-0.370	0.128
-100.903	725.852	-0.080	-0.215
-99.889	-48.633	-0.103	0.050
-98.874	131.970	-0.118	0.152
-97.859	800.000	-0.052	0.208
-96.845	109.675	-0.060	0.072
-95.830	-84.396	-0.177	0.056
-94.816	-200.000	-0.058	-0.303
-93.801	-200.000	-0.063	0.292
-92.786	-9.671	0.282	-0.189
-91.772	202.492	0.069	-0.108
-90.757	-200.000	0.006	-0.038
-89.743	16.247	-0.274	0.217
-88.728	312.711	0.052	-0.099
-87.713	521.540	0.122	-0.289
-86.699	-73.654	0.210	0.077
-85.684	64.436	-0.080	-0.081
-84.670	-200.000	-0.023	0.108
-83.655	50.834	0.212	-0.202
-82.640	-135.522	0.188	-0.023
-81.626	-200.000	0.018	-0.398
-80.611	800.000	0.092	0.305
-79.597	-200.000	0.082	0.578
-78.582	375.261	-0.112	-0.230
-77.567	127.955	0.226	-0.289
-76.553	-200.000	-0.021	0.154
-75.538	-200.000	0.024	-0.134
-74.524	-200.000	-0.042	0.295
-73.509	800.000	0.106	0.388
-72.494	-80.941	-0.059	-0.020
-71.480	151.607	-0.162	-0.222
-70.465	140.066	-0.058	0.077
-69.451	2.818	0.254	-0.185
-68.436	167.822	0.080	-0.115
-67.422	-79.704	0.193	0.065
-66.407	86.893	-0.112	-0.124
-65.392	137.841	0.253	-0.332
-64.378	416.873	-0.040	0.085
-63.363	-200.000	-0.008	-0.204
-62.349	-75.001	-0.375	0.135
-61.334	68.714	-0.747	-0.770
-60.319	213.699	0.057	0.090
-59.305	800.000	0.199	-0.577
-58.290	290.299	0.420	0.765
-57.276	-200.000	0.372	1.830
-56.261	-200.000	71.080	527.812
-55.246	597.928	1274.891	3172.576
-54.232	143.791	2502.619	3348.456
-53.217	112.632	2368.716	2878.717
-52.203	51.409	2106.627	2008.548
-51.188	46.021	2012.591	1869.920
-50.173	44.093	1993.465	1834.661
-49.159	55.930	2027.244	1973.652
-48.144	61.630	2049.039	2046.664
-47.130	46.724	2014.112	1877.441
-46.115	43.846	2003.459	1841.321
-45.100	43.799	2000.702	1838.284
-44.086	43.755	1998.473	1835.762
-43.071	43.685	1995.929	1832.724
-42.057	43.659	1993.799	1830.453
-41.042	43.645	1992.352	1828.926
-40.027	43.708	1989.967	1827.238
-39.013	43.805	1988.301	1826.506
-37.998	43.757	1986.146	1824.023
-36.984	43.653	1984.537	1821.540
-35.969	43.726	1983.336	1821.021
-34.954	43.797	1981.182	1819.607
-33.940	43.814	1979.280	1817.943
-32.925	43.807	1977.957	1816.595
-31.911	43.856	1976.497	1815.615
-30.896	43.926	1974.293	1814.151
-29.881	43.759	1973.256	1811.625
-28.867	43.908	1970.928	1810.751
-27.852	43.901	1968.953	1808.804
-26.838	43.899	1967.235	1807.139
-25.823	43.828	1965.832	1805.141
-24.809	43.868	1963.773	1803.534
-23.794	43.879	1962.085	1802.014
-22.779	43.842	1960.052	1799.744
-21.765	43.866	1958.625	1798.578
-20.750	43.806	1957.121	1796.589
-19.736	43.837	1955.671	1795.462
-18.721	43.802	1954.397	1793.912
-17.706	43.823	1952.662	1792.439
-16.692	43.833	1950.729	1790.678
-15.677	43.751	1949.472	1788.732
-14.663	43.786	1948.089	1787.693
-13.648	43.784	1946.570	1786.217
-12.633	43.871	1945.276	1785.720
-11.619	43.819	1943.886	1783.921
-10.604	43.822	1942.181	1782.314
-9.590	43.838	1940.865	1781.168
-8.575	43.823	1939.236	1779.476
-7.560	43.784	1938.401	1778.294
-6.546	43.825	1936.953	1777.255
-5.531	43.780	1935.841	1775.766
-4.517	43.767	1934.668	1774.505
-3.502	43.783	1933.329	1773.353
-2.487	43.845	1932.339	1772.911
-1.473	43.857	1930.740	1771.479
-0.458	43.942	1926.884	1768.619
0.556	43.339	1909.037	1745.416
1.571	39.502	1888.383	1693.479
2.586	34.718	1908.566	1669.735
3.600	32.966	1944.887	1685.744
4.615	31.826	1941.976	1672.905
5.629	23.966	1835.012	1514.030
6.644	9.525	1701.306	1288.792
7.659	1.926	1654.123	1193.629
8.673	1.219	1649.924	1184.974
9.688	1.111	1648.584	1183.067
10.702	1.107	1646.602	1181.504
11.717	0.993	1644.478	1178.992
12.731	1.318	1643.424	1180.656
13.746	9.139	1662.866	1255.877
14.761	20.260	1688.007	1362.575
15.775	24.684	1695.045	1402.942
16.790	24.977	1694.618	1404.766
17.804	24.982	1694.198	1404.327
18.819	25.101	1693.003	1404.143
19.834	25.256	1692.057	1404.449
20.848	25.460	1690.954	1405.003
21.863	25.410	1691.133	1404.636
22.877	25.399	1689.969	1403.461
23.892	25.398	1688.622	1402.211
24.907	25.303	1688.655	1401.378
25.921	25.396	1686.857	1400.485
26.936	25.455	1685.735	1399.886
27.950	25.429	1684.591	1398.614
28.965	25.397	1684.426	1398.103
29.980	25.357	1684.060	1397.366
30.994	25.326	1682.616	1395.797
32.009	25.428	1680.992	1395.123
33.023	25.337	1680.566	1393.938
34.038	25.372	1679.359	1393.088
35.053	25.398	1678.788	1392.689
36.067	25.419	1677.321	1391.511
37.082	25.437	1676.021	1390.449
38.096	25.365	1675.572	1389.399
39.111	25.361	1675.064	1388.825
40.126	25.423	1673.641	1387.998
41.140	25.375	1673.065	1387.028
42.155	25.387	1672.131	1386.219
43.169	25.359	1670.334	1384.393
44.184	25.412	1670.046	1384.443
45.199	25.402	1668.681	1383.111
46.213	25.274	1667.935	1381.385
47.228	25.333	1666.921	1380.875
48.242	25.409	1665.352	1380.038
49.257	25.430	1663.788	1378.783
50.271	25.428	1662.811	1377.836
51.286	25.429	1661.535	1376.660
52.301	25.417	1660.035	1375.209
53.315	25.335	1659.298	1373.844
54.330	25.360	1657.982	1372.826
55.344	25.392	1656.481	1371.710
56.359	25.371	1655.373	1370.507
57.374	25.418	1654.096	1369.687
58.388	25.480	1652.772	1368.940
59.403	25.481	1651.486	1367.765
60.417	25.429	1650.678	1366.578
61.432	25.429	1649.922	1365.833
62.447	25.445	1649.000	1365.068
63.461	25.439	1647.641	1363.779
64.476	25.447	1646.774	1362.998
65.490	25.386	1645.962	1361.743
66.505	25.373	1644.757	1360.531
67.520	25.382	1644.178	1359.995
68.534	25.524	1642.526	1359.582
69.549	25.415	1641.845	1358.076
70.563	25.440	1641.013	1357.459
71.578	25.497	1639.527	1356.537
72.593	25.453	1638.823	1355.502
73.607	25.489	1637.986	1354.964
74.622	25.436	1636.845	1353.498
75.636	25.414	1636.456	1352.893
76.651	25.524	1635.097	1352.479
77.666	25.451	1634.433	1351.259
78.680	25.443	1633.903	1350.641
79.695	25.419	1632.766	1349.398
80.709	25.432	1632.008	1348.750
81.724	25.401	1630.993	1347.565
82.739	25.542	1629.783	1347.497
83.753	25.410	1629.056	1345.793
84.768	25.462	1628.292	1345.430
85.782	25.432	1627.075	1344.082
86.797	25.430	1626.306	1343.313
87.812	25.383	1625.909	1342.515
88.826	25.435	1624.502	1341.622
89.841	25.544	1623.269	1341.297
90.855	25.451	1622.475	1339.833
91.870	25.473	1621.154	1338.787
92.884	25.555	1620.000	1338.324
93.899	25.390	1619.466	1336.535
94.914	25.511	1618.117	1336.201
95.928	25.442	1616.910	1334.577
96.943	25.498	1615.563	1333.763
97.957	25.503	1614.379	1332.706
98.972	25.515	1612.682	1331.276
99.987	25.516	1611.853	1330.480
101.001	25.549	1610.646	1329.606
102.016	25.510	1608.612	1327.521
103.030	25.399	1607.882	1325.985
104.045	25.431	1606.941	1325.328
105.060	25.428	1605.694	1324.160
106.074	25.511	1604.002	1323.255
107.089	25.415	1603.276	1321.836
108.103	25.456	1602.095	1321.047
109.118	25.424	1600.741	1319.577
110.133	25.475	1599.312	1318.662
111.147	25.472	1598.719	1318.030
112.162	25.524	1597.571	1317.346
113.176	25.558	1596.055	1316.233
114.191	25.556	1595.034	1315.259
115.206	25.663	1593.795	1314.902
116.220	25.594	1592.666	1313.348
117.235	25.534	1591.747	1312.042
118.249	25.601	1590.339	1311.252
119.264	25.534	1589.544	1309.986
120.279	25.476	1588.620	1308.688
121.293	25.615	1586.978	1308.231
122.308	25.578	1585.621	1306.733
123.322	25.646	1584.303	1306.025
124.337	25.600	1583.209	1304.674
125.352	25.585	1582.363	1303.747
126.366	25.582	1581.607	1302.989
127.381	25.634	1580.436	1302.287
128.395	25.497	1579.915	1300.751
129.410	25.577	1578.952	1300.417
130.424	25.603	1577.647	1299.418
131.439	25.629	1576.601	1298.628
132.454	25.598	1575.064	1297.022
133.468	25.604	1573.553	1295.710
134.483	25.696	1571.985	1294.962
135.497	25.639	1571.075	1293.694
136.512	25.606	1570.411	1292.793
137.527	25.672	1569.106	1292.076
138.541	25.660	1567.992	1290.959
139.556	25.669	1566.648	1289.806
140.570	25.741	1565.461	1289.228
141.585	25.679	1564.279	1287.694
142.600	25.710	1563.033	1286.782
143.614	25.695	1561.691	1285.455
144.629	25.675	1561.300	1284.876
145.643	25.637	1559.844	1283.295
146.658	25.625	1558.648	1282.113
147.673	25.554	1557.520	1280.563
148.687	25.611	1556.050	1279.644
149.702	25.661	1555.201	1279.188
150.716	25.605	1553.632	1277.389
151.731	25.653	1552.259	1276.484
152.746	25.559	1551.863	1275.386
153.760	25.561	1550.462	1274.129
154.775	25.574	1549.428	1273.261
155.789	25.685	1548.244	1272.958
156.804	25.782	1546.771	1272.320
157.819	25.710	1546.115	1271.161
158.833	25.728	1544.889	1270.171
159.848	25.637	1544.354	1268.971
160.862	25.686	1543.673	1268.646
161.877	25.730	1542.522	1267.897
162.892	25.705	1541.286	1266.593
163.906	25.701	1540.641	1265.924
164.921	25.673	1539.845	1264.961
165.935	25.731	1538.566	1264.211
166.950	25.660	1538.168	1263.271
167.964	25.695	1536.594	1262.108
168.979	25.702	1535.781	1261.379
169.994	25.828	1535.014	1261.524
171.008	25.763	1533.757	1259.922
172.023	25.740	1533.373	1259.338
173.037	25.806	1531.641	1258.260
174.052	25.734	1530.764	1256.924
175.067	25.768	1529.825	1256.284
176.081	25.819	1529.008	1255.852
177.096	25.830	1527.715	1254.758
178.110	25.760	1527.000	1253.576
179.125	25.776	1525.877	1252.650
180.140	25.743	1524.780	1251.412
181.154	25.777	1524.220	1251.079
182.169	25.793	1523.688	1250.641
183.183	25.765	1522.296	1249.194
184.198	25.804	1521.261	1248.503
185.213	25.830	1520.754	1248.157
186.227	25.703	1519.736	1246.332
187.242	25.792	1518.727	1246.007
188.256	25.805	1518.015	1245.404
189.271	25.789	1517.386	1244.672
190.286	25.714	1516.992	1243.720
191.300	25.795	1515.987	1243.339
192.315	25.884	1514.789	1242.862
193.329	25.716	1513.847	1240.822
194.344	25.829	1512.715	1240.566
195.359	25.879	1511.927	1240.150
196.373	25.898	1511.093	1239.490
197.388	25.816	1510.056	1237.963
198.402	25.820	1509.202	1237.185
199.417	25.639	1508.562	1235.306
200.432	25.758	1507.496	1235.138
201.446	25.759	1506.877	1234.532
202.461	25.907	1505.790	1234.547
203.475	25.761	1505.042	1232.823
204.490	25.798	1504.159	1232.244
205.504	25.838	1503.248	1231.660
206.519	25.828	1502.480	1230.853
207.534	25.869	1501.724	1230.404
208.548	25.893	1500.939	1229.820
209.563	25.856	1499.991	1228.681
210.577	25.835	1499.229	1227.802
211.592	25.882	1498.058	1227.058
212.607	25.932	1497.864	1227.126
213.621	25.890	1497.519	1226.455
214.636	26.049	1495.903	1226.100
215.650	26.007	1495.042	1225.004
216.665	25.941	1494.894	1224.323
217.680	25.971	1493.795	1223.517
218.694	25.916	1493.044	1222.421
219.709	25.966	1492.431	1222.148
220.723	26.032	1491.356	1221.612
221.738	25.972	1490.784	1220.625
222.753	25.965	1490.056	1219.878
223.767	25.934	1488.828	1218.555
224.782	25.900	1488.273	1217.761
225.796	25.977	1487.433	1217.483
226.811	25.964	1486.891	1216.846
227.826	26.028	1485.386	1215.937
228.840	26.105	1485.020	1216.048
229.855	26.022	1484.377	1214.858
230.869	26.043	1483.316	1214.021
231.884	26.035	1482.431	1213.138
232.899	26.021	1481.541	1212.210
233.913	26.020	1480.319	1211.090
234.928	26.029	1479.029	1209.989
235.942	26.058	1478.340	1209.512
236.957	26.091	1477.486	1208.931
237.972	26.133	1476.663	1208.430
238.986	26.132	1475.290	1207.193
240.001	26.132	1474.600	1206.524
241.015	26.116	1473.384	1205.315
242.030	26.193	1472.443	1204.949
243.045	26.288	1471.405	1204.627
244.059	26.214	1470.855	1203.581
245.074	26.175	1470.108	1202.603
246.088	26.142	1469.540	1201.812
247.103	26.276	1468.709	1201.918
248.117	26.220	1467.834	1200.718
249.132	26.281	1466.650	1200.055
250.147	26.253	1466.177	1199.369
251.161	26.293	1465.429	1198.921
252.176	26.346	1464.869	1198.709
253.190	26.305	1463.985	1197.605
254.205	26.280	1462.997	1196.523
255.220	26.401	1462.285	1196.636
256.234	26.227	1461.425	1194.678
257.249	26.316	1460.973	1194.790
258.263	26.441	1459.774	1194.531
259.278	26.364	1458.768	1193.097
260.293	26.281	1458.681	1192.370
261.307	26.334	1457.518	1191.661
262.322	26.343	1456.947	1191.150
263.336	26.390	1456.455	1190.950
264.351	26.392	1455.280	1189.899
265.366	26.353	1454.678	1189.043
266.380	26.515	1453.004	1188.636
267.395	26.385	1452.547	1187.304
268.409	26.416	1452.105	1187.042
269.424	26.324	1451.184	1185.580
270.439	26.377	1450.064	1184.902
271.453	26.317	1449.445	1183.901
272.468	26.398	1448.486	1183.543
273.482	26.455	1447.917	1183.347
274.497	26.367	1447.080	1181.984
275.512	26.353	1446.441	1181.264
276.526	26.452	1445.765	1181.255
277.541	26.389	1444.893	1180.029
278.555	26.485	1443.821	1179.677
279.570	26.538	1442.952	1179.201
280.585	26.473	1442.518	1178.320
281.599	26.523	1441.561	1177.759
282.614	26.471	1440.381	1176.355
283.628	26.514	1439.068	1175.456
284.643	26.564	1438.581	1175.277
285.657	26.526	1437.858	1174.340
286.672	26.524	1436.722	1173.296
287.687	26.452	1436.258	1172.342
288.701	26.534	1435.019	1171.760
289.716	26.616	1434.376	1171.665
290.730	26.611	1433.951	1171.181
291.745	26.632	1432.964	1170.404
292.760	26.578	1432.448	1169.528
293.774	26.541	1431.212	1168.178
294.789	26.654	1429.935	1167.762
295.803	26.528	1429.724	1166.675
296.818	26.702	1428.591	1166.770
297.833	26.637	1428.256	1165.975
298.847	26.612	1427.226	1164.867
299.862	26.727	1426.267	1164.719
300.876	26.644	1425.823	1163.725
301.891	26.669	1424.625	1162.803
302.906	26.688	1424.006	1162.314
303.920	26.725	1423.582	1162.106
304.935	26.798	1422.637	1161.695
305.949	26.751	1421.909	1160.699
306.964	26.719	1421.175	1159.795
307.979	26.679	1420.395	1158.799
308.993	26.710	1419.368	1158.053
310.008	26.773	1418.631	1157.753
311.022	26.804	1417.577	1156.988
312.037	26.798	1416.449	1155.926
313.052	26.813	1416.053	1155.597
314.066	26.770	1415.068	1154.417
315.081	26.886	1413.803	1154.021
316.095	26.784	1413.139	1152.730
317.110	26.871	1412.048	1152.287
318.125	26.851	1411.609	1151.703
319.139	26.842	1410.782	1150.873
320.154	26.914	1410.045	1150.620
321.168	26.819	1409.348	1149.349
322.183	26.916	1407.888	1148.672
323.197	26.880	1407.254	1147.823
324.212	26.877	1406.341	1146.962
325.227	26.821	1405.570	1145.875
326.241	26.918	1404.641	1145.629
327.256	26.941	1404.017	1145.161
328.270	26.929	1403.251	1144.366
329.285	26.971	1402.615	1144.005
330.300	26.995	1401.886	1143.464
331.314	27.032	1400.622	1142.560
332.329	26.940	1399.918	1141.313
333.343	27.040	1399.181	1141.234
334.358	27.074	1398.785	1141.023
335.373	27.040	1398.347	1140.351
336.387	26.959	1397.347	1138.928
337.402	27.141	1396.298	1139.113
338.416	27.188	1396.030	1139.090
339.431	27.177	1395.283	1138.311
340.446	27.135	1394.864	1137.604
341.460	27.058	1393.961	1136.286
342.475	27.197	1393.016	1136.282
343.489	27.178	1391.822	1135.091
344.504	27.192	1391.192	1134.561
345.519	27.138	1390.428	1133.502
346.533	27.117	1389.344	1132.389
347.548	27.232	1388.263	1132.122
348.562	27.309	1387.739	1132.072
349.577	27.296	1387.068	1131.348
350.592	27.295	1386.167	1130.508
351.606	27.228	1385.590	1129.520
352.621	27.142	1384.315	1127.848
353.635	27.249	1383.451	1127.706
354.650	27.154	1382.927	1126.587
355.665	27.245	1382.231	1126.484
356.679	27.280	1381.082	1125.665
357.694	27.329	1379.966	1124.959
358.708	27.334	1378.753	1123.906
359.723	27.295	1377.475	1122.523
360.738	27.216	1376.920	1121.483
361.752	27.274	1375.712	1120.759
362.767	27.318	1374.530	1119.963
363.781	27.387	1373.772	1119.671
364.796	27.395	1373.206	1119.159
365.810	27.377	1372.471	1118.355
366.825	27.413	1371.852	1117.970
367.840	27.416	1371.032	1117.225
368.854	27.429	1370.221	1116.542
369.869	27.497	1369.801	1116.519
370.883	27.415	1369.466	1115.645
371.898	27.400	1368.713	1114.837
372.913	27.531	1367.947	1114.916
373.927	27.462	1367.027	1113.650
374.942	27.473	1366.198	1112.943
375.956	27.476	1365.842	1112.571
376.971	27.504	1365.179	1112.104
377.986	27.569	1363.654	1111.158
379.000	27.572	1363.190	1110.699
380.015	27.552	1362.401	1109.838
381.029	27.569	1361.950	1109.480
382.044	27.511	1361.441	1108.612
383.059	27.618	1360.192	1108.148
384.073	27.507	1360.301	1107.463
385.088	27.612	1359.396	1107.263
386.102	27.547	1358.990	1106.440
387.117	27.618	1358.007	1105.973
388.132	27.682	1357.444	1105.806
389.146	27.603	1356.686	1104.614
390.161	27.674	1355.789	1104.212
391.175	27.676	1355.392	1103.802
392.190	27.779	1354.247	1103.396
393.205	27.701	1353.649	1102.342
394.219	27.733	1352.725	1101.687
395.234	27.752	1351.996	1101.108
396.248	27.722	1350.832	1099.882
397.263	27.794	1349.432	1099.081
398.278	27.661	1348.776	1097.645
399.292	27.839	1347.556	1097.626
400.307	27.810	1346.793	1096.732
401.321	27.921	1345.320	1096.102
402.336	27.881	1344.979	1095.487
403.350	27.791	1344.001	1094.056
404.365	27.760	1343.196	1093.121
405.380	27.837	1342.340	1092.785
406.394	27.794	1341.967	1092.127
407.409	27.810	1341.031	1091.363
408.423	27.968	1340.366	1091.669
409.438	27.879	1340.078	1090.810
410.453	27.932	1339.206	1090.317
411.467	27.863	1338.480	1089.218
412.482	28.016	1337.943	1089.600
413.496	27.958	1337.141	1088.503
414.511	27.898	1336.426	1087.466
415.526	27.958	1335.871	1087.278
416.540	28.014	1335.039	1086.834
417.555	27.972	1334.363	1085.941
418.569	27.872	1333.750	1084.752
419.584	27.968	1333.292	1084.852
420.599	27.970	1333.016	1084.546
421.613	69.710	1307.876	1300.370
422.628	70.418	1304.209	1300.483
