DTS Sentinel unit serial number:	SN413079Multiplexer serial number:	ORYXHardware model number:	OX4-SRSoftware version number:	ORYX F/W v4.00 Oryx Data Collector v3.7.2.0data status	okinstallation	princeton_trtdifferential loss correction	single-endedforward channel	channel 4reverse channel	N/Adate	2019/09/13time	15:17:34forward acquisition time	60.00reverse acquisition time	0.00gamma	496.2192k internal	0.2296k external	0.2296temperature offset calibration	1.0211default loss term (dB/km)	0.3790temperature slope calibration	1.0000multiplexer offset coefficient	1.0000multiplexer slope coefficient	1.0000fibre end	0.00T internal ref (°C)	35.47T ext. ref 1 (°C)	4.73T ext. ref 2 (°C)	29.68length (m)	temperature (°C)	Stokes	anti-Stokes-747.200	47.328	0.230	-0.219
-746.185	-119.418	-0.023	-0.004
-745.171	-9.028	0.293	0.201
-744.156	-200.000	-0.005	-0.118
-743.142	113.535	0.163	0.202
-742.127	-137.226	-0.181	-0.021
-741.112	270.770	0.029	0.052
-740.098	-200.000	-0.045	0.339
-739.083	-200.000	-0.018	0.293
-738.069	800.000	0.142	0.501
-737.054	-200.000	0.011	-0.468
-736.039	-146.036	-0.369	0.033
-735.025	-200.000	0.028	0.373
-734.010	-27.086	-0.121	0.072
-732.996	-179.016	-0.056	-0.001
-731.981	-163.386	0.077	-0.004
-730.966	800.000	-0.041	-0.159
-729.952	66.423	-0.235	0.244
-728.937	800.000	-0.148	0.468
-727.923	-188.280	0.267	-0.003
-726.908	-125.749	0.142	-0.022
-725.894	-200.000	-0.011	0.093
-724.879	-95.149	-0.708	-0.195
-723.864	-35.882	-0.055	-0.030
-722.850	800.000	-0.075	-0.215
-721.835	-31.683	-0.043	0.025
-720.821	128.929	0.134	-0.174
-719.806	214.633	-0.130	0.211
-718.791	-27.477	-0.095	0.057
-717.777	40.969	0.165	0.152
-716.762	148.883	0.066	0.091
-715.748	-107.977	0.227	-0.050
-714.733	800.000	0.049	-0.192
-713.718	-200.000	-0.037	-0.394
-712.704	-20.985	0.182	0.114
-711.689	-1.716	-0.316	0.227
-710.675	-95.408	-0.122	0.034
-709.660	387.405	-0.233	-0.491
-708.645	274.850	-0.039	-0.070
-707.631	-21.905	0.144	-0.089
-706.616	800.000	-0.098	-0.399
-705.602	800.000	0.085	0.303
-704.587	327.874	0.092	-0.180
-703.572	800.000	0.123	-0.387
-702.558	-6.969	-0.166	-0.115
-701.543	-65.750	-0.178	0.073
-700.529	27.500	0.219	-0.188
-699.514	-126.644	0.456	-0.069
-698.499	-177.230	-0.371	0.009
-697.485	6.232	-0.107	-0.081
-696.470	-69.305	-0.185	0.072
-695.456	-200.000	0.021	-0.116
-694.441	116.479	-0.260	-0.325
-693.426	800.000	0.031	0.091
-692.412	353.108	-0.072	0.145
-691.397	800.000	-0.075	-0.260
-690.383	711.513	-0.058	0.157
-689.368	-66.139	0.357	0.145
-688.354	543.928	-0.121	0.295
-687.339	-86.113	-0.306	-0.096
-686.324	-20.420	0.057	-0.036
-685.310	-132.532	-0.286	-0.038
-684.295	266.536	0.058	-0.104
-683.281	-200.000	-0.051	-0.232
-682.266	165.421	0.150	-0.216
-681.251	64.602	-0.150	0.154
-680.237	150.700	0.149	0.207
-679.222	234.096	-0.063	0.105
-678.208	-16.698	-0.146	0.094
-677.193	-184.122	-0.064	-0.001
-676.178	-139.504	-0.067	0.007
-675.164	-200.000	0.049	0.390
-674.149	-1.155	0.100	0.072
-673.135	299.797	0.226	0.423
-672.120	142.773	0.211	0.285
-671.105	-1.345	-0.070	-0.050
-670.091	-121.253	0.381	-0.065
-669.076	627.940	-0.057	-0.148
-668.062	106.276	-0.064	0.077
-667.047	-75.112	0.176	-0.064
-666.032	-66.170	-0.385	0.156
-665.018	98.914	0.154	-0.181
-664.003	-200.000	-0.036	-0.175
-662.989	-110.504	0.250	0.053
-661.974	583.710	0.129	0.323
-660.959	28.781	0.290	-0.250
-659.945	373.621	-0.133	-0.276
-658.930	39.420	-0.095	0.086
-657.916	-200.000	0.053	-0.241
-656.901	-20.779	0.212	0.132
-655.886	800.000	-0.030	0.086
-654.872	-87.854	-0.228	0.070
-653.857	-58.886	-0.099	0.044
-652.843	74.293	0.134	-0.144
-651.828	-44.662	0.157	-0.080
-650.814	-20.136	0.313	0.196
-649.799	-200.000	0.031	-0.310
-648.784	-116.237	-0.154	0.029
-647.770	-200.000	-0.007	-0.045
-646.755	47.393	0.268	-0.254
-645.741	-54.893	-0.069	-0.032
-644.726	28.124	0.253	-0.218
-643.711	43.208	-0.257	-0.239
-642.697	-59.087	0.085	0.037
-641.682	75.468	0.138	-0.149
-640.668	-78.962	0.402	-0.139
-639.653	-200.000	0.021	0.324
-638.638	365.761	0.020	-0.040
-637.624	-165.234	-0.527	-0.024
-636.609	609.017	0.109	-0.276
-635.595	167.671	0.134	-0.194
-634.580	88.200	0.178	-0.201
-633.565	32.002	0.150	-0.132
-632.551	-15.770	-0.233	-0.151
-631.536	800.000	0.087	-0.273
-630.522	-200.000	-0.007	0.237
-629.507	800.000	-0.040	-0.149
-628.492	800.000	-0.043	0.158
-627.478	-184.205	-0.311	0.005
-626.463	-92.551	-0.209	0.060
-625.449	168.574	0.115	-0.167
-624.434	-91.711	-0.331	0.096
-623.419	565.436	-0.038	-0.094
-622.405	-92.191	0.406	0.117
-621.390	147.647	0.077	0.105
-620.376	-200.000	0.054	0.263
-619.361	242.250	-0.012	-0.020
-618.346	38.210	0.195	0.176
-617.332	-31.916	0.137	0.078
-616.317	445.046	-0.110	-0.245
-615.303	272.464	0.121	-0.217
-614.288	-124.113	-0.155	-0.025
-613.273	-113.152	0.406	0.081
-612.259	800.000	0.009	0.039
-611.244	215.403	0.133	-0.214
-610.230	-37.169	-0.170	-0.093
-609.215	142.181	0.240	0.323
-608.201	-143.081	0.120	0.012
-607.186	321.418	0.140	-0.270
-606.171	-65.622	0.175	-0.071
-605.157	-78.651	-0.367	0.128
-604.142	72.219	0.081	-0.086
-603.128	-5.051	-0.137	0.096
-602.113	374.193	-0.047	-0.098
-601.098	141.825	-0.110	0.148
-600.084	-109.208	-0.274	-0.059
-599.069	324.046	-0.067	-0.130
-598.055	-41.062	-0.415	0.218
-597.040	-55.105	0.217	-0.099
-596.025	-200.000	-0.024	-0.173
-595.011	370.127	-0.052	-0.108
-593.996	382.846	-0.120	0.252
-592.982	-6.737	-0.083	0.057
-591.967	-200.000	-0.041	-0.290
-590.952	-80.356	0.129	0.044
-589.938	190.261	0.099	0.150
-588.923	-200.000	-0.004	0.035
-587.909	-135.924	0.215	-0.026
-586.894	-36.897	-0.191	0.104
-585.879	-18.011	0.143	-0.091
-584.865	-99.351	0.228	-0.059
-583.850	-119.584	-0.263	-0.046
-582.836	19.627	0.185	-0.151
-581.821	-200.000	-0.010	0.061
-580.806	122.205	0.133	-0.168
-579.792	217.372	-0.049	0.079
-578.777	10.920	0.317	-0.246
-577.763	-200.000	-0.035	0.254
-576.748	-187.193	0.179	-0.002
-575.733	41.567	-0.083	-0.077
-574.719	800.000	0.121	-0.382
-573.704	171.925	-0.183	0.267
-572.690	-200.000	-0.104	0.686
-571.675	-186.518	0.274	0.004
-570.661	-73.439	-0.227	-0.084
-569.646	38.446	-0.182	-0.165
-568.631	64.694	-0.093	0.095
-567.617	69.219	-0.202	-0.211
-566.602	-66.147	0.149	-0.060
-565.588	-109.940	-0.245	0.052
-564.573	6.213	-0.154	0.116
-563.558	-200.000	0.002	-0.058
-562.544	-98.462	0.154	0.040
-561.529	11.208	-0.127	-0.098
-560.515	-200.000	-0.010	-0.167
-559.500	-166.576	0.124	-0.005
-558.485	28.148	0.212	0.182
-557.471	-131.339	-0.396	-0.053
-556.456	9.239	0.111	0.085
-555.442	149.340	-0.133	-0.183
-554.427	-135.617	-0.249	0.030
-553.412	-84.307	0.050	-0.016
-552.398	64.551	0.194	-0.199
-551.383	800.000	-0.057	0.240
-550.369	114.965	-0.102	-0.126
-549.354	800.000	0.020	0.083
-548.339	-200.000	0.011	0.244
-547.325	13.527	-0.073	-0.058
-546.310	-200.000	0.036	0.201
-545.296	-93.091	0.148	-0.042
-544.281	800.000	0.026	0.092
-543.266	800.000	0.018	-0.066
-542.252	-179.916	0.182	-0.004
-541.237	-29.266	0.246	0.143
-540.223	-200.000	-0.007	0.166
-539.208	33.879	0.316	-0.279
-538.193	18.814	-0.239	-0.194
-537.179	-44.752	-0.114	-0.058
-536.164	-23.988	-0.267	0.162
-535.150	-108.564	-0.234	-0.051
-534.135	800.000	0.036	-0.118
-533.121	-6.488	0.166	0.115
-532.106	611.672	-0.151	0.383
-531.091	-107.911	0.063	-0.014
-530.077	80.824	0.195	-0.213
-529.062	386.958	-0.046	-0.096
-528.048	800.000	0.056	-0.174
-527.033	-119.753	0.426	-0.074
-526.018	409.757	0.195	0.418
-525.004	326.625	-0.119	0.231
-523.989	-90.447	-0.119	0.035
-522.975	495.207	0.098	0.227
-521.960	7.105	-0.084	0.063
-520.945	-200.000	0.006	-0.034
-519.931	-200.000	-0.028	0.268
-518.916	-4.991	0.089	-0.062
-517.902	-200.000	-0.069	0.332
-516.887	97.219	0.114	0.132
-515.872	633.271	0.105	-0.269
-514.858	-25.130	0.327	0.196
-513.843	-200.000	-0.015	0.197
-512.829	189.305	-0.083	0.126
-511.814	-110.993	0.363	-0.076
-510.799	-200.000	-0.015	-0.225
-509.785	800.000	0.040	0.166
-508.770	108.905	-0.057	-0.070
-507.756	61.497	-0.187	0.188
-506.741	-165.806	-0.287	-0.012
-505.726	-117.473	-0.132	-0.024
-504.712	-61.400	-0.039	-0.017
-503.697	-74.051	-0.080	0.029
-502.683	-165.852	-0.323	0.014
-501.668	800.000	0.073	0.289
-500.653	-26.922	0.359	0.212
-499.639	263.576	0.126	0.222
-498.624	680.301	0.066	-0.175
-497.610	796.797	-0.061	0.171
-496.595	327.496	-0.039	0.076
-495.581	90.179	0.146	-0.165
-494.566	412.981	0.045	0.097
-493.551	-34.539	0.167	-0.093
-492.537	318.814	-0.231	-0.443
-491.522	37.306	-0.068	0.061
-490.508	538.635	0.133	-0.321
-489.493	-109.229	0.331	-0.071
-488.478	122.653	0.193	0.244
-487.464	-28.645	-0.098	0.057
-486.449	46.861	0.029	0.027
-485.435	105.198	-0.143	0.170
-484.420	7.006	-0.194	0.146
-483.405	65.611	-0.163	0.167
-482.391	800.000	-0.051	0.190
-481.376	47.372	0.223	-0.210
-480.362	-27.065	0.153	0.091
-479.347	-94.740	-0.141	-0.039
-478.332	-200.000	0.405	-0.001
-477.318	800.000	0.091	0.280
-476.303	-37.484	0.062	-0.034
-475.289	339.234	0.132	0.260
-474.274	-79.734	0.127	-0.043
-473.259	60.983	0.131	0.132
-472.245	-5.162	0.116	-0.081
-471.230	-86.826	-0.245	0.076
-470.216	-183.253	0.599	0.011
-469.201	-99.719	-0.411	-0.104
-468.186	-110.962	-0.442	-0.092
-467.172	800.000	-0.081	-0.274
-466.157	-27.978	0.220	0.129
-465.143	-200.000	-0.001	-0.229
-464.128	-29.212	-0.173	-0.100
-463.113	-96.269	-0.246	-0.066
-462.099	-152.987	0.189	0.013
-461.084	26.097	-0.322	0.272
-460.070	-95.815	0.304	-0.082
-459.055	32.128	0.172	0.150
-458.040	-125.729	0.131	0.020
-457.026	-200.000	-0.019	-0.278
-456.011	150.409	0.085	0.116
-454.997	-200.000	-0.035	0.289
-453.982	-59.344	0.140	0.061
-452.968	83.368	0.051	0.057
-451.953	-108.835	0.038	0.008
-450.938	-200.000	0.004	-0.186
-449.924	1.065	-0.266	0.193
-448.909	-108.012	-0.091	0.020
-447.895	-72.926	-0.213	0.079
-446.880	-54.708	-0.189	0.086
-445.865	-200.000	0.003	0.367
-444.851	-117.352	0.123	-0.022
-443.836	-20.100	-0.038	0.024
-442.822	395.853	-0.057	-0.121
-441.807	-94.407	0.303	-0.083
-440.792	-200.000	-0.033	-0.202
-439.778	-151.808	-0.299	-0.022
-438.763	-128.503	-0.197	-0.028
-437.749	-109.132	-0.263	-0.057
-436.734	43.183	-0.154	0.141
-435.719	-200.000	0.046	0.335
-434.705	188.383	0.263	0.397
-433.690	53.864	-0.157	0.153
-432.676	-34.452	0.242	-0.134
-431.661	800.000	-0.022	0.077
-430.646	364.871	0.216	0.439
-429.632	800.000	0.070	0.210
-428.617	87.080	0.094	-0.105
-427.603	-62.468	0.294	0.123
-426.588	-200.000	-0.018	0.217
-425.573	-69.193	0.265	-0.103
-424.559	194.177	0.102	-0.156
-423.544	-126.317	0.054	0.008
-422.530	15.450	-0.237	-0.188
-421.515	288.102	-0.047	0.085
-420.500	82.632	-0.153	0.167
-419.486	169.642	-0.112	0.162
-418.471	-46.117	0.160	0.079
-417.457	389.256	0.083	0.173
-416.442	574.321	-0.067	0.165
-415.428	193.759	0.034	0.053
-414.413	94.303	-0.150	-0.172
-413.398	217.286	-0.104	0.168
-412.384	-200.000	0.044	-0.309
-411.369	-172.890	0.494	-0.015
-410.355	-200.000	-0.009	-0.353
-409.340	731.881	-0.074	0.200
-408.325	-19.105	-0.133	-0.084
-407.311	-75.213	-0.431	-0.155
-406.296	107.990	-0.279	-0.336
-405.282	-45.017	0.164	0.083
-404.267	1.316	-0.156	0.113
-403.252	160.490	-0.225	0.316
-402.238	-54.813	0.322	0.147
-401.223	-200.000	-0.019	-0.086
-400.209	-200.000	0.012	0.287
-399.194	-19.474	-0.153	-0.096
-398.179	-35.319	-0.264	-0.145
-397.165	27.733	0.159	0.135
-396.150	-148.413	0.232	-0.019
-395.136	-159.268	-0.193	0.011
-394.121	-6.220	-0.353	0.243
-393.106	-131.011	-0.198	0.027
-392.092	-58.042	0.295	0.130
-391.077	-200.000	0.018	-0.081
-390.063	-21.081	0.108	0.066
-389.048	258.029	0.015	0.026
-388.033	-98.861	-0.140	-0.036
-387.019	800.000	0.018	-0.072
-386.004	-66.809	-0.032	0.013
-384.990	739.499	-0.072	-0.195
-383.975	-101.863	0.109	-0.026
-382.960	172.741	0.080	-0.116
-381.946	-180.874	0.111	0.002
-380.931	-81.808	-0.072	-0.024
-379.917	-72.030	0.109	-0.041
-378.902	-185.126	-0.167	0.003
-377.888	143.628	-0.068	-0.091
-376.873	-200.000	-0.004	-0.122
-375.858	-101.829	0.039	-0.010
-374.844	163.893	-0.207	-0.294
-373.829	186.192	0.230	-0.345
-372.815	182.402	0.272	-0.403
-371.800	180.903	0.107	-0.158
-370.785	3.572	-0.035	-0.026
-369.771	-200.000	-0.020	-0.101
-368.756	119.050	-0.156	-0.194
-367.742	-117.791	-0.320	0.058
-366.727	37.580	-0.135	0.120
-365.712	-21.413	0.043	-0.027
-364.698	800.000	-0.032	-0.113
-363.683	800.000	-0.096	-0.365
-362.669	83.039	-0.134	0.147
-361.654	348.593	-0.066	-0.132
-360.639	-94.971	0.116	0.032
-359.625	32.903	0.149	0.130
-358.610	28.053	0.236	0.201
-357.596	-139.023	-0.215	0.023
-356.581	-27.989	-0.161	-0.094
-355.566	-147.384	-0.122	0.010
-354.552	-16.219	0.294	0.188
-353.537	121.657	-0.116	0.145
-352.523	672.736	-0.049	0.129
-351.508	800.000	0.037	-0.107
-350.493	-159.848	-0.355	-0.020
-349.479	800.000	-0.102	0.309
-348.464	212.710	0.023	-0.037
-347.450	-82.789	-0.144	0.047
-346.435	61.538	0.081	0.081
-345.420	649.352	-0.097	0.249
-344.406	-200.000	-0.007	-0.254
-343.391	142.721	0.190	-0.254
-342.377	-200.000	-0.042	-0.433
-341.362	-200.000	0.013	-0.266
-340.348	113.137	-0.202	-0.247
-339.333	-68.158	0.065	-0.025
-338.318	-200.000	0.017	0.349
-337.304	-200.000	-0.007	0.244
-336.289	16.892	-0.138	-0.110
-335.275	-200.000	-0.008	0.062
-334.260	-38.543	0.102	0.054
-333.245	504.865	-0.145	0.338
-332.231	-200.000	-0.026	-0.192
-331.216	-53.279	-0.163	-0.075
-330.202	103.345	0.118	-0.140
-329.187	318.182	0.110	0.209
-328.172	-200.000	-0.003	-0.362
-327.158	-4.289	0.161	0.112
-326.143	-200.000	0.029	-0.247
-325.129	-86.159	0.179	0.055
-324.114	402.128	-0.096	0.202
-323.099	499.036	0.091	-0.212
-322.085	-59.160	0.326	0.141
-321.070	-94.039	0.207	0.057
-320.056	-200.000	-0.051	-0.306
-319.041	-88.773	-0.409	0.122
-318.026	-200.000	0.007	-0.106
-317.012	800.000	-0.058	-0.221
-315.997	40.289	-0.255	0.230
-314.983	555.928	0.109	-0.263
-313.968	-2.063	-0.145	0.102
-312.953	257.917	0.203	0.352
-311.939	197.285	-0.102	-0.156
-310.924	251.829	-0.165	-0.282
-309.910	-17.609	-0.305	-0.192
-308.895	-64.254	-0.036	-0.015
-307.880	-200.000	0.015	0.208
-306.866	-125.226	0.250	-0.038
-305.851	434.352	0.062	0.135
-304.837	-199.026	-0.155	-0.001
-303.822	-62.537	-0.261	0.109
-302.807	52.918	0.150	-0.144
-301.793	87.236	0.206	0.229
-300.778	-200.000	0.018	-0.129
-299.764	-200.000	0.071	0.324
-298.749	64.960	-0.145	0.147
-297.735	470.020	-0.106	0.239
-296.720	298.304	0.062	0.115
-295.705	-157.217	-0.116	0.007
-294.691	-31.526	0.163	0.092
-293.676	-68.134	0.109	0.043
-292.662	70.180	-0.126	-0.130
-291.647	5.278	-0.173	0.128
-290.632	-31.902	-0.117	0.066
-289.618	-127.468	-0.248	0.036
-288.603	317.704	-0.185	0.351
-287.589	83.144	-0.023	-0.026
-286.574	-71.283	-0.143	0.054
-285.559	-109.626	0.377	-0.080
-284.545	87.338	-0.198	0.219
-283.530	31.557	0.225	0.194
-282.516	-108.530	-0.216	0.047
-281.501	-132.680	-0.288	-0.037
-280.486	375.270	0.087	0.177
-279.472	-71.252	0.146	-0.055
-278.457	-44.025	-0.176	-0.089
-277.443	155.695	0.133	-0.184
-276.428	-76.674	0.214	0.075
-275.413	23.810	-0.068	0.056
-274.399	-200.000	-0.008	-0.241
-273.384	800.000	0.024	0.092
-272.370	-150.573	0.229	0.018
-271.355	-200.000	0.001	-0.163
-270.340	1.203	0.152	0.109
-269.326	-200.000	-0.013	-0.197
-268.311	-70.360	0.105	0.040
-267.297	22.310	-0.151	-0.123
-266.282	-86.086	0.107	-0.033
-265.267	-46.562	0.205	-0.101
-264.253	95.531	0.061	-0.070
-263.238	-109.443	0.249	-0.053
-262.224	-90.515	0.104	0.030
-261.209	28.247	0.169	0.143
-260.195	-200.000	0.042	-0.366
-259.180	-92.549	0.119	-0.033
-258.165	-200.000	0.011	0.131
-257.151	800.000	0.073	0.238
-256.136	130.787	0.160	-0.206
-255.122	426.920	-0.071	-0.154
-254.107	-200.000	-0.018	0.324
-253.092	233.792	0.061	0.101
-252.078	-200.000	-0.005	0.026
-251.063	-97.736	0.147	0.038
-250.049	-24.714	-0.230	0.137
-249.034	-89.814	0.231	0.068
-248.019	-79.507	0.259	0.088
-247.005	-65.079	0.275	-0.111
-245.990	-69.508	-0.121	-0.047
-244.976	800.000	0.057	-0.165
-243.961	245.549	0.133	-0.225
-242.946	-63.014	-0.064	-0.026
-241.932	-91.760	0.158	0.045
-240.917	373.712	-0.104	-0.211
-239.903	-49.581	-0.135	0.064
-238.888	-103.857	-0.280	0.065
-237.873	-200.000	-0.033	-0.150
-236.859	-49.227	0.276	0.132
-235.844	-62.782	-0.235	-0.098
-234.830	440.283	0.242	-0.530
-233.815	-107.715	-0.369	-0.081
-232.800	-66.357	-0.188	-0.075
-231.786	-17.606	-0.210	-0.132
-230.771	189.736	0.301	0.453
-229.757	67.169	-0.248	-0.253
-228.742	255.057	-0.117	-0.201
-227.727	-44.176	-0.055	-0.028
-226.713	623.692	-0.071	-0.179
-225.698	19.026	-0.235	-0.189
-224.684	-200.000	0.007	0.186
-223.669	800.000	0.068	-0.237
-222.655	-51.479	-0.379	0.177
-221.640	-200.000	-0.010	0.339
-220.625	106.900	-0.227	-0.270
-219.611	-67.785	0.136	0.053
-218.596	800.000	-0.092	-0.332
-217.582	29.932	0.166	-0.142
-216.567	-145.203	0.171	0.016
-215.552	-55.215	-0.221	-0.099
-214.538	70.510	0.042	-0.044
-213.523	181.682	0.161	-0.237
-212.509	800.000	-0.040	0.113
-211.494	-200.000	-0.015	0.266
-210.479	-63.000	-0.286	-0.118
-209.465	-109.086	0.096	0.021
-208.450	-200.000	0.008	0.395
-207.436	59.814	-0.124	0.122
-206.421	189.484	0.163	0.244
-205.406	143.499	-0.158	-0.211
-204.392	-33.415	-0.140	-0.078
-203.377	-75.838	0.198	-0.070
-202.363	-200.000	-0.005	-0.096
-201.348	-52.487	-0.225	0.104
-200.333	571.685	0.147	-0.358
-199.319	-84.828	-0.163	0.051
-198.304	-200.000	-0.012	-0.318
-197.290	324.005	0.064	0.123
-196.275	-200.000	-0.025	0.277
-195.260	-28.548	0.344	0.198
-194.246	44.132	0.034	-0.031
-193.231	-60.431	0.228	0.097
-192.217	68.053	-0.312	0.319
-191.202	800.000	-0.044	-0.152
-190.187	1.916	0.050	-0.036
-189.173	800.000	-0.079	0.226
-188.158	-119.122	0.287	0.050
-187.144	17.456	-0.113	-0.090
-186.129	-200.000	0.026	0.341
-185.114	22.052	0.173	-0.141
-184.100	-200.000	0.048	0.250
-183.085	-200.000	-0.029	-0.138
-182.071	-42.341	-0.282	-0.144
-181.056	800.000	-0.091	-0.322
-180.042	124.239	0.098	-0.123
-179.027	-149.717	0.127	0.010
-178.012	-200.000	0.064	-0.302
-176.998	-65.238	0.145	-0.059
-175.983	-191.153	-0.062	-0.001
-174.969	544.421	0.068	0.163
-173.954	47.790	-0.209	-0.195
-172.939	-171.967	-0.195	-0.006
-171.925	692.830	-0.071	0.187
-170.910	-55.670	0.220	-0.098
-169.896	-139.519	-0.214	-0.023
-168.881	-48.800	0.161	0.077
-167.866	-200.000	0.022	-0.286
-166.852	60.058	-0.150	-0.148
-165.837	370.473	0.149	-0.302
-164.823	197.066	0.133	-0.202
-163.808	241.209	-0.152	0.253
-162.793	-48.540	0.249	0.120
-161.779	-121.425	-0.115	-0.019
-160.764	-105.188	-0.288	-0.066
-159.750	-200.000	0.020	0.094
-158.735	-35.151	0.250	0.136
-157.720	378.534	-0.128	0.261
-156.706	-81.238	-0.236	-0.078
-155.691	-130.373	0.262	-0.035
-154.677	800.000	0.045	-0.127
-153.662	446.728	-0.101	0.222
-152.647	37.205	0.071	-0.063
-151.633	-200.000	-0.003	0.023
-150.618	-10.111	0.083	0.055
-149.604	-153.635	0.350	0.024
-148.589	-200.000	0.027	-0.133
-147.574	56.561	-0.067	0.065
-146.560	-121.208	0.163	-0.027
-145.545	800.000	-0.018	-0.081
-144.531	145.542	0.129	0.173
-143.516	106.786	-0.211	0.250
-142.502	39.362	0.198	0.177
-141.487	-122.342	0.326	-0.053
-140.472	-118.811	-0.270	0.047
-139.458	-200.000	0.001	0.171
-138.443	-200.000	0.233	0.000
-137.429	-200.000	-0.036	-0.300
-136.414	31.399	0.361	0.310
-135.399	-6.075	0.326	0.222
-134.385	-181.539	0.074	-0.001
-133.370	-15.932	-0.218	-0.138
-132.356	175.474	0.091	-0.131
-131.341	-200.000	-0.035	-0.271
-130.326	-106.717	-0.278	0.062
-129.312	-86.642	-0.289	0.088
-128.297	-200.000	0.021	0.175
-127.283	3.833	-0.235	-0.171
-126.268	-141.914	0.167	0.017
-125.253	10.028	-0.179	0.135
-124.239	45.448	0.180	-0.166
-123.224	-72.393	-0.038	0.014
-122.210	-54.353	0.230	0.104
-121.195	-31.172	0.345	0.194
-120.180	-200.000	0.031	-0.214
-119.166	-145.473	0.298	-0.027
-118.151	800.000	-0.040	0.130
-117.137	-74.909	0.460	-0.164
-116.122	800.000	-0.111	-0.458
-115.107	-155.472	-0.154	0.010
-114.093	-62.301	-0.269	0.112
-113.078	-200.000	-0.016	0.393
-112.064	-155.386	-0.042	0.003
-111.049	69.064	-0.170	0.174
-110.034	-44.638	0.133	0.066
-109.020	549.643	0.153	-0.366
-108.005	-200.000	-0.017	0.297
-106.991	-39.492	-0.052	0.027
-105.976	99.913	0.045	-0.052
-104.962	-200.000	0.006	-0.218
-103.947	-90.302	0.209	0.060
-102.932	2.034	-0.213	0.154
-101.918	-105.320	0.335	0.076
-100.903	464.909	0.079	-0.177
-99.889	-200.000	0.005	0.288
-98.874	-148.971	0.415	0.033
-97.859	800.000	0.116	0.422
-96.845	185.620	-0.276	-0.408
-95.830	-199.484	0.438	0.002
-94.816	217.256	-0.072	0.114
-93.801	-200.000	-0.012	-0.182
-92.786	53.098	0.227	-0.216
-91.772	7.850	0.383	0.286
-90.757	353.530	-0.065	-0.129
-89.743	85.026	-0.229	-0.250
-88.728	-200.000	0.025	-0.165
-87.713	-200.000	0.013	-0.078
-86.699	-134.579	-0.191	0.023
-85.684	450.484	0.096	0.210
-84.670	-200.000	-0.007	-0.056
-83.655	116.678	0.136	0.166
-82.640	373.296	-0.023	-0.047
-81.626	45.105	0.097	0.089
-80.611	756.640	0.035	0.096
-79.597	204.721	0.101	-0.155
-78.582	800.000	-0.054	0.209
-77.567	800.000	0.008	0.027
-76.553	-9.560	-0.391	0.259
-75.538	-62.294	0.130	0.054
-74.524	166.648	-0.168	0.237
-73.509	-61.276	0.173	-0.073
-72.494	800.000	-0.093	-0.346
-71.480	-121.239	0.105	0.017
-70.465	56.658	-0.110	-0.107
-69.451	-8.953	-0.079	0.053
-68.436	37.146	-0.235	0.207
-67.422	214.109	0.233	0.368
-66.407	-40.236	-0.095	-0.049
-65.392	67.348	-0.144	0.146
-64.378	179.660	-0.212	0.309
-63.363	-200.000	0.103	0.569
-62.349	-200.000	0.049	0.255
-61.334	114.125	-0.631	-0.763
-60.319	-67.914	0.639	0.248
-59.305	121.115	-0.567	-0.702
-58.290	117.669	0.679	0.832
-57.276	497.411	0.679	1.554
-56.261	-200.000	95.084	563.261
-55.246	628.623	1384.646	3480.530
-54.232	183.619	2608.790	3836.223
-53.217	113.294	2345.260	2829.963
-52.203	42.334	2093.087	1892.025
-51.188	37.167	2005.865	1766.244
-50.173	35.655	1986.629	1735.592
-49.159	49.732	2037.498	1909.138
-48.144	52.712	2057.439	1955.026
-47.130	37.916	2014.494	1780.402
-46.115	35.472	2002.664	1747.663
-45.100	35.386	1999.558	1744.093
-44.086	35.343	1997.648	1741.974
-43.071	35.291	1995.165	1739.266
-42.057	35.353	1992.660	1737.577
-41.042	35.356	1990.855	1735.957
-40.027	35.345	1988.787	1733.984
-39.013	35.295	1987.176	1732.063
-37.998	35.405	1984.794	1730.906
-36.984	35.389	1983.219	1729.323
-35.969	35.405	1981.468	1727.875
-34.954	35.396	1979.932	1726.383
-33.940	35.490	1977.935	1725.418
-32.925	35.488	1976.278	1723.888
-31.911	35.495	1974.712	1722.518
-30.896	35.565	1972.623	1721.255
-29.881	35.484	1971.533	1719.502
-28.867	35.513	1969.901	1718.275
-27.852	35.485	1967.901	1716.211
-26.838	35.493	1966.380	1714.891
-25.823	35.545	1964.291	1713.461
-24.809	35.526	1962.333	1711.515
-23.794	35.463	1961.150	1709.855
-22.779	35.393	1959.563	1707.782
-21.765	35.471	1957.574	1706.675
-20.750	35.436	1956.042	1704.957
-19.736	35.546	1953.949	1704.045
-18.721	35.629	1952.182	1703.172
-17.706	35.479	1951.807	1701.444
-16.692	35.484	1949.688	1699.575
-15.677	35.458	1948.104	1697.897
-14.663	35.507	1946.492	1696.862
-13.648	35.495	1945.091	1695.466
-12.633	35.503	1943.816	1694.358
-11.619	35.476	1942.904	1693.254
-10.604	35.466	1941.258	1691.668
-9.590	35.541	1940.027	1691.185
-8.575	35.449	1938.695	1689.147
-7.560	35.413	1937.457	1687.685
-6.546	35.531	1935.892	1687.289
-5.531	35.469	1934.735	1685.672
-4.517	35.478	1933.550	1684.650
-3.502	35.461	1932.461	1683.490
-2.487	35.413	1931.362	1682.046
-1.473	35.450	1930.544	1681.584
-0.458	35.479	1925.984	1677.804
0.556	37.740	1905.220	1646.937
1.571	32.522	1883.141	1583.955
2.586	27.630	1902.884	1558.717
3.600	25.894	1937.852	1572.094
4.615	24.362	1931.581	1553.533
5.629	18.988	1830.220	1427.406
6.644	9.954	1710.631	1263.636
7.659	5.024	1672.335	1197.458
8.673	4.631	1668.634	1191.687
9.688	4.753	1667.663	1191.822
10.702	4.777	1666.042	1190.745
11.717	4.760	1662.933	1188.288
12.731	5.417	1663.572	1193.658
13.746	11.714	1678.396	1252.545
14.761	19.890	1695.418	1328.144
15.775	22.797	1699.544	1353.588
16.790	22.316	1697.447	1348.115
17.804	21.453	1694.364	1338.942
18.819	20.381	1691.400	1328.286
19.834	19.770	1689.153	1321.735
20.848	19.500	1687.563	1318.310
21.863	19.470	1686.187	1316.891
22.877	19.287	1684.686	1314.207
23.892	19.074	1683.539	1311.571
24.907	18.962	1682.702	1309.956
25.921	18.920	1681.588	1308.651
26.936	18.903	1680.409	1307.487
27.950	19.052	1679.354	1307.682
28.965	19.060	1679.043	1307.385
29.980	19.132	1678.277	1307.220
30.994	19.249	1676.915	1306.932
32.009	19.325	1675.945	1306.636
33.023	19.332	1675.575	1306.283
34.038	19.448	1673.964	1305.794
35.053	19.401	1672.904	1304.491
36.067	19.271	1671.833	1302.560
37.082	19.137	1671.173	1300.917
38.096	19.194	1670.052	1300.359
39.111	19.225	1668.892	1299.576
40.126	19.339	1668.401	1299.941
41.140	19.248	1667.307	1298.286
42.155	19.110	1665.776	1295.939
43.169	18.838	1664.411	1292.719
44.184	18.704	1663.315	1290.741
45.199	18.708	1661.646	1289.364
46.213	18.762	1660.225	1288.552
47.228	18.827	1659.296	1288.204
48.242	18.889	1658.403	1287.862
49.257	19.119	1657.586	1288.839
50.271	19.138	1656.316	1287.879
51.286	19.077	1655.085	1286.349
52.301	19.099	1653.695	1285.317
53.315	19.125	1652.313	1284.326
54.330	19.004	1651.342	1282.556
55.344	18.911	1649.456	1280.288
56.359	18.857	1647.805	1278.484
57.374	18.880	1646.752	1277.728
58.388	18.882	1645.639	1276.769
59.403	18.804	1644.384	1275.100
60.417	18.735	1642.559	1273.062
61.432	18.642	1641.758	1271.642
62.447	18.629	1640.516	1270.472
63.461	18.587	1639.167	1269.001
64.476	18.553	1637.851	1267.619
65.490	18.596	1637.150	1267.280
66.505	18.532	1635.779	1265.632
67.520	18.574	1634.699	1265.000
68.534	18.479	1634.314	1263.884
69.549	18.633	1632.692	1263.652
70.563	18.601	1631.657	1262.507
71.578	18.515	1630.062	1260.532
72.593	18.539	1629.272	1259.981
73.607	18.401	1627.961	1257.846
74.622	18.437	1626.939	1257.210
75.636	18.341	1626.323	1255.915
76.651	18.385	1625.355	1255.379
77.666	18.435	1624.600	1255.055
78.680	18.438	1623.681	1254.250
79.695	18.508	1622.862	1254.018
80.709	18.515	1622.310	1253.538
81.724	18.618	1621.497	1253.551
82.739	18.785	1620.678	1254.026
83.753	18.865	1619.730	1253.763
84.768	18.977	1619.034	1253.931
85.782	19.085	1618.175	1253.944
86.797	19.161	1618.039	1254.281
87.812	19.164	1617.467	1253.743
88.826	19.224	1615.478	1252.530
89.841	19.150	1614.627	1251.219
90.855	19.063	1614.129	1250.089
91.870	19.201	1612.577	1249.784
92.884	19.182	1612.011	1249.095
93.899	19.218	1610.838	1248.334
94.914	19.327	1609.242	1247.777
95.928	19.327	1608.549	1247.131
96.943	19.377	1607.106	1246.261
97.957	19.237	1605.980	1244.266
98.972	19.274	1604.322	1243.136
99.987	19.227	1602.638	1241.383
101.001	19.178	1601.445	1239.996
102.016	19.234	1599.266	1238.608
103.030	19.203	1598.518	1237.691
104.045	19.202	1596.998	1236.402
105.060	19.187	1595.518	1235.035
106.074	19.223	1594.411	1234.332
107.089	18.974	1593.356	1231.617
108.103	18.779	1590.478	1227.893
109.118	18.594	1589.628	1225.805
110.133	18.528	1588.132	1224.074
111.147	18.573	1586.677	1223.160
112.162	18.482	1585.023	1221.135
113.176	18.560	1584.193	1220.943
114.191	18.654	1582.405	1220.121
115.206	18.631	1581.431	1219.099
116.220	18.791	1580.218	1219.193
117.235	18.666	1578.908	1217.186
118.249	18.731	1577.317	1216.317
119.264	18.687	1575.996	1214.875
120.279	18.588	1574.911	1213.235
121.293	18.519	1573.493	1211.543
122.308	18.480	1571.631	1209.728
123.322	18.496	1570.001	1208.477
124.337	18.258	1569.316	1206.172
125.352	18.362	1567.363	1205.290
126.366	18.340	1566.397	1204.285
127.381	18.378	1564.974	1203.352
128.395	18.325	1564.416	1202.446
129.410	18.479	1562.635	1202.051
130.424	18.414	1561.371	1200.515
131.439	18.469	1560.340	1200.007
132.454	18.528	1559.314	1199.523
133.468	18.555	1558.422	1198.915
134.483	18.718	1556.371	1198.369
135.497	18.758	1554.912	1197.425
136.512	18.752	1553.722	1196.360
137.527	18.785	1552.200	1195.310
138.541	18.796	1551.445	1194.699
139.556	18.785	1550.149	1193.516
140.570	18.897	1548.388	1192.832
141.585	19.017	1547.665	1193.005
142.600	19.045	1546.467	1192.167
143.614	19.121	1545.154	1191.577
144.629	19.258	1544.018	1191.541
145.643	19.334	1542.795	1191.016
146.658	19.362	1541.377	1190.010
147.673	19.266	1539.767	1188.004
148.687	19.055	1538.218	1185.246
149.702	19.058	1536.680	1183.982
150.716	18.904	1535.064	1181.571
151.731	18.832	1533.342	1179.646
152.746	18.839	1532.491	1178.937
153.760	18.884	1530.623	1177.705
154.775	18.858	1529.709	1176.719
155.789	19.036	1529.007	1177.291
156.804	19.002	1527.543	1175.830
157.819	19.156	1526.146	1175.700
158.833	19.071	1525.507	1174.524
159.848	19.171	1524.264	1174.144
160.862	19.262	1523.321	1173.932
161.877	19.267	1522.202	1173.002
162.892	19.183	1520.928	1171.343
163.906	18.967	1519.323	1168.540
164.921	18.814	1517.999	1166.379
165.935	18.807	1516.529	1165.099
166.950	18.869	1515.801	1164.857
167.964	18.928	1514.919	1164.472
168.979	19.026	1513.660	1164.069
169.994	19.024	1512.444	1163.012
171.008	18.982	1511.235	1161.696
172.023	19.004	1510.238	1160.977
173.037	19.127	1509.047	1160.787
174.052	19.183	1508.567	1160.692
175.067	19.279	1507.463	1160.391
176.081	19.129	1506.544	1158.572
177.096	18.898	1504.821	1155.588
178.110	18.827	1503.452	1153.958
179.125	18.994	1501.994	1153.860
180.140	18.937	1501.075	1152.670
181.154	18.949	1500.183	1151.963
182.169	19.176	1498.710	1152.246
183.183	19.158	1498.371	1151.763
184.198	19.279	1497.048	1151.452
185.213	19.291	1496.443	1150.964
186.227	19.303	1495.298	1150.065
187.242	19.318	1494.570	1149.504
188.256	19.438	1493.813	1149.617
189.271	19.458	1492.806	1148.876
190.286	19.551	1491.850	1148.658
191.300	19.518	1490.174	1147.042
192.315	19.193	1488.734	1143.680
193.329	18.837	1487.388	1140.181
194.344	18.891	1485.881	1139.283
195.359	18.910	1485.744	1139.199
196.373	19.020	1484.356	1138.767
197.388	19.167	1483.287	1138.816
198.402	19.266	1482.467	1138.744
199.417	19.413	1481.709	1139.030
200.432	19.532	1481.004	1139.173
201.446	19.726	1480.096	1139.651
202.461	19.743	1479.253	1139.015
203.475	19.811	1478.130	1138.491
204.490	19.788	1477.528	1137.779
205.504	19.732	1476.134	1136.237
206.519	19.653	1474.589	1134.432
207.534	19.476	1473.540	1132.357
208.548	19.428	1471.715	1130.542
209.563	19.473	1471.000	1130.186
210.577	19.353	1470.390	1128.831
211.592	19.537	1469.115	1128.959
212.607	19.493	1468.601	1128.178
213.621	19.632	1468.172	1128.655
214.636	19.779	1467.007	1128.619
215.650	19.712	1465.648	1127.037
216.665	19.674	1464.904	1126.117
217.680	19.660	1464.573	1125.669
218.694	19.896	1463.624	1126.381
219.709	20.003	1462.526	1126.129
220.723	19.943	1461.603	1124.932
221.738	19.829	1460.977	1123.610
222.753	19.843	1459.716	1122.629
223.767	19.796	1459.288	1121.893
224.782	19.784	1458.201	1120.881
225.796	19.854	1457.432	1120.644
226.811	19.984	1456.459	1120.641
227.826	19.928	1456.308	1120.063
228.840	19.912	1455.054	1118.896
229.855	19.901	1453.394	1117.451
230.869	19.778	1452.853	1116.141
231.884	19.762	1451.414	1114.832
232.899	19.885	1449.990	1114.432
233.913	19.623	1449.628	1112.372
234.928	19.535	1448.371	1110.741
235.942	19.593	1446.682	1109.722
236.957	19.521	1445.737	1108.438
237.972	19.583	1443.986	1107.389
238.986	19.575	1443.234	1106.663
240.001	19.554	1442.381	1105.777
241.015	19.610	1441.406	1105.290
242.030	19.564	1440.561	1104.254
243.045	19.753	1439.110	1104.251
244.059	19.793	1438.202	1103.713
245.074	19.840	1437.738	1103.557
246.088	19.810	1437.081	1102.762
247.103	19.827	1436.660	1102.454
248.117	20.010	1435.766	1102.830
249.132	20.020	1435.235	1102.392
250.147	20.262	1434.282	1103.100
251.161	20.420	1434.001	1103.794
252.176	20.537	1433.902	1104.358
253.190	20.685	1432.401	1104.048
254.205	20.681	1431.898	1103.536
255.220	20.789	1430.976	1103.410
256.234	20.781	1430.749	1103.090
257.249	20.717	1429.747	1101.813
258.263	20.734	1428.716	1101.026
259.278	20.743	1427.708	1100.210
260.293	20.707	1426.933	1099.288
261.307	20.697	1425.877	1098.311
262.322	20.744	1425.760	1098.422
263.336	20.815	1424.647	1097.918
264.351	20.817	1423.691	1097.098
265.366	20.828	1423.009	1096.541
266.380	20.903	1421.509	1095.758
267.395	20.857	1420.875	1094.888
268.409	20.922	1419.718	1094.303
269.424	20.747	1418.961	1092.530
270.439	20.679	1417.517	1090.895
271.453	20.674	1416.534	1090.007
272.468	20.662	1415.915	1089.359
273.482	20.558	1415.034	1087.936
274.497	20.580	1413.607	1086.876
275.512	20.553	1413.061	1086.192
276.526	20.520	1412.299	1085.304
277.541	20.637	1411.050	1084.981
278.555	20.675	1410.079	1084.375
279.570	20.647	1409.287	1083.495
280.585	20.735	1408.815	1083.586
281.599	20.841	1408.160	1083.647
282.614	20.938	1407.500	1083.645
283.628	20.924	1405.929	1082.253
284.643	20.768	1404.815	1080.331
285.657	20.711	1403.688	1079.015
286.672	20.631	1402.952	1077.855
287.687	20.714	1401.461	1077.128
288.701	20.688	1400.966	1076.491
289.716	20.628	1400.481	1075.655
290.730	20.706	1399.652	1075.408
291.745	20.680	1398.359	1074.158
292.760	20.756	1397.826	1074.119
293.774	20.895	1396.581	1073.925
294.789	20.858	1395.606	1072.856
295.803	20.965	1395.167	1073.081
296.818	21.045	1394.184	1072.720
297.833	20.922	1393.239	1071.143
298.847	20.849	1391.921	1069.584
299.862	20.844	1390.785	1068.588
300.876	20.850	1389.612	1067.625
301.891	20.861	1389.493	1067.508
302.906	20.914	1388.599	1067.056
303.920	21.011	1387.831	1066.965
304.935	21.186	1387.390	1067.600
305.949	21.258	1386.694	1067.409
306.964	21.336	1386.011	1067.268
307.979	21.393	1384.649	1066.468
308.993	21.289	1383.668	1064.987
310.008	21.167	1382.714	1063.414
311.022	21.292	1381.271	1062.973
312.037	21.260	1380.656	1062.207
313.052	21.366	1380.019	1062.269
314.066	21.246	1378.653	1060.392
315.081	21.044	1377.811	1058.426
316.095	20.982	1376.053	1056.610
317.110	20.865	1375.234	1055.179
318.125	20.834	1374.343	1054.212
319.139	20.905	1373.491	1053.894
320.154	20.987	1372.230	1053.332
321.168	20.970	1371.184	1052.334
322.183	20.992	1370.423	1051.787
323.197	20.946	1369.603	1050.788
324.212	20.919	1368.731	1049.862
325.227	21.075	1368.360	1050.426
326.241	21.154	1367.381	1050.052
327.256	21.088	1366.127	1048.605
328.270	21.161	1365.189	1048.228
329.285	20.985	1364.565	1046.600
330.300	21.038	1363.795	1046.236
331.314	21.002	1362.592	1045.003
332.329	20.960	1361.897	1044.126
333.343	21.026	1361.211	1043.901
334.358	21.088	1359.792	1043.094
335.373	21.191	1359.264	1043.210
336.387	21.186	1358.857	1042.778
337.402	21.256	1358.030	1042.470
338.416	21.223	1357.642	1041.881
339.431	21.265	1357.094	1041.615
340.446	21.450	1356.167	1041.920
341.460	21.557	1355.240	1041.751
342.475	21.516	1354.603	1040.923
343.489	21.623	1354.025	1041.025
344.504	21.741	1352.599	1040.538
345.519	21.805	1351.911	1040.294
346.533	21.787	1350.901	1039.319
347.548	21.858	1350.196	1039.105
348.562	21.940	1349.570	1039.018
349.577	21.958	1348.394	1038.126
350.592	21.841	1347.624	1036.750
351.606	21.639	1346.539	1034.628
352.621	21.462	1345.162	1032.432
353.635	21.411	1343.802	1031.001
354.650	21.454	1343.085	1030.611
355.665	21.398	1341.870	1029.260
356.679	21.428	1340.892	1028.592
357.694	21.486	1340.197	1028.310
358.708	21.600	1339.069	1028.022
359.723	21.657	1337.982	1027.433
360.738	21.768	1336.875	1027.143
361.752	21.704	1335.998	1026.001
362.767	21.696	1335.235	1025.279
363.781	21.597	1334.239	1023.846
364.796	21.607	1333.827	1023.493
365.810	21.766	1332.822	1023.562
366.825	21.943	1331.981	1023.862
367.840	21.992	1332.034	1024.097
368.854	22.110	1331.130	1023.999
369.869	22.182	1330.855	1024.112
370.883	22.203	1329.682	1023.246
371.898	22.067	1329.071	1021.893
372.913	22.059	1328.174	1021.067
373.927	22.014	1327.193	1019.959
374.942	21.994	1326.357	1019.108
375.956	22.061	1326.080	1019.197
376.971	22.137	1325.256	1018.914
377.986	22.201	1323.557	1017.888
379.000	22.174	1323.203	1017.367
380.015	22.183	1322.902	1017.098
381.029	22.238	1321.945	1016.593
382.044	22.363	1321.360	1016.774
383.059	22.436	1320.745	1016.633
384.073	22.438	1319.470	1015.574
385.088	22.311	1319.488	1014.766
386.102	22.366	1318.552	1014.273
387.117	22.328	1317.694	1013.301
388.132	22.172	1316.837	1011.658
389.146	22.120	1315.673	1010.377
390.161	22.021	1314.612	1008.903
391.175	22.059	1313.951	1008.524
392.190	22.093	1313.403	1008.205
393.205	22.051	1312.652	1007.300
394.219	22.213	1312.072	1007.693
395.234	22.254	1310.585	1006.696
396.248	22.327	1309.039	1005.841
397.263	22.179	1307.565	1003.771
398.278	22.058	1306.496	1002.176
399.292	22.123	1304.857	1001.200
400.307	22.075	1303.878	1000.086
401.321	21.920	1303.166	998.565
402.336	21.959	1301.569	997.478
403.350	21.904	1301.147	996.755
404.365	21.947	1300.226	996.203
405.380	21.996	1299.242	995.638
406.394	21.903	1299.040	994.868
407.409	22.074	1298.160	995.075
408.423	22.257	1296.944	995.089
409.438	22.453	1296.478	995.752
410.453	22.422	1296.099	995.199
411.467	22.560	1295.252	995.241
412.482	22.519	1294.789	994.565
413.496	22.700	1294.312	995.132
414.511	22.832	1293.289	994.999
415.526	22.785	1292.605	994.124
416.540	22.657	1292.782	993.448
417.555	22.949	1291.513	994.028
418.569	22.918	1291.259	993.572
419.584	22.779	1290.469	992.096
420.599	22.680	1289.835	990.962
421.613	143.553	1431.204	1788.528
422.628	138.668	1451.785	1788.640
