DTS Sentinel unit serial number:	SN413079Multiplexer serial number:	ORYXHardware model number:	OX4-SRSoftware version number:	ORYX F/W v4.00 Oryx Data Collector v3.7.2.0data status	okinstallation	princeton_trtdifferential loss correction	single-endedforward channel	channel 4reverse channel	N/Adate	2019/09/14time	03:37:35forward acquisition time	60.00reverse acquisition time	0.00gamma	496.2192k internal	0.2322k external	0.2322temperature offset calibration	1.0134default loss term (dB/km)	0.3790temperature slope calibration	1.0000multiplexer offset coefficient	1.0000multiplexer slope coefficient	1.0000fibre end	0.00T internal ref (°C)	26.62T ext. ref 1 (°C)	3.30T ext. ref 2 (°C)	21.60length (m)	temperature (°C)	Stokes	anti-Stokes-747.200	420.121	-0.032	0.069
-746.185	-68.788	-0.243	-0.095
-745.171	115.783	-0.265	0.328
-744.156	222.268	0.049	-0.079
-743.142	-75.650	0.208	-0.075
-742.127	-75.389	0.048	0.017
-741.112	145.263	-0.087	0.118
-740.098	-200.000	-0.028	-0.128
-739.083	210.861	0.066	0.104
-738.069	411.471	-0.019	0.042
-737.054	15.933	0.095	-0.076
-736.039	12.085	-0.220	-0.171
-735.025	-135.532	0.116	-0.014
-734.010	292.187	-0.196	-0.361
-732.996	-51.761	-0.346	-0.163
-731.981	-105.719	-0.217	0.049
-730.966	251.609	0.087	0.149
-729.952	-200.000	-0.003	0.127
-728.937	-200.000	0.031	-0.288
-727.923	93.438	-0.200	0.228
-726.908	-125.649	0.186	0.028
-725.894	-200.000	0.028	0.292
-724.879	-85.953	-0.198	-0.062
-723.864	-102.890	-0.076	-0.018
-722.850	-32.259	0.159	0.090
-721.835	-84.293	0.070	-0.022
-720.821	800.000	-0.077	-0.221
-719.806	418.531	0.116	0.251
-718.791	143.821	0.103	-0.138
-717.777	96.938	0.216	0.250
-716.762	800.000	0.043	0.166
-715.748	715.553	0.019	-0.050
-714.733	-85.840	-0.251	-0.079
-713.718	-114.301	-0.310	-0.060
-712.704	298.650	0.162	-0.300
-711.689	-92.943	-0.257	0.072
-710.675	800.000	-0.087	0.266
-709.660	50.381	0.200	-0.190
-708.645	-73.279	-0.067	0.025
-707.631	-57.091	-0.074	0.033
-706.616	446.127	-0.038	-0.085
-705.602	-56.720	0.234	-0.104
-704.587	-200.000	-0.020	-0.195
-703.572	800.000	0.050	-0.216
-702.558	-37.371	-0.010	-0.005
-701.543	32.375	-0.225	-0.196
-700.529	90.305	-0.145	-0.163
-699.514	106.869	0.188	-0.225
-698.499	-143.555	-0.245	-0.024
-697.485	-200.000	0.005	-0.376
-696.470	-14.079	0.545	-0.355
-695.456	-67.940	-0.406	-0.160
-694.441	261.008	0.136	0.238
-693.426	-115.416	-0.355	0.067
-692.412	-76.526	-0.160	0.057
-691.397	800.000	-0.193	0.664
-690.383	-200.000	0.002	-0.216
-689.368	502.277	0.101	0.234
-688.354	681.853	0.076	-0.200
-687.339	-200.000	0.051	0.273
-686.324	115.313	-0.082	-0.101
-685.310	238.239	-0.107	-0.179
-684.295	-200.000	0.108	-0.482
-683.281	800.000	-0.066	-0.252
-682.266	-18.486	-0.203	0.128
-681.251	-143.710	-0.230	-0.022
-680.237	370.586	-0.146	-0.298
-679.222	299.576	0.034	-0.063
-678.208	-200.000	0.023	0.272
-677.193	516.262	-0.188	0.444
-676.178	-10.888	0.249	0.165
-675.164	-20.064	0.138	-0.086
-674.149	-100.866	0.098	0.024
-673.135	-58.051	0.217	0.095
-672.120	152.935	-0.150	0.206
-671.105	162.163	-0.054	0.076
-670.091	-200.000	0.013	0.225
-669.076	-100.637	-0.277	0.069
-668.062	-137.836	0.220	-0.025
-667.047	-73.776	-0.079	-0.029
-666.032	-3.712	-0.252	0.176
-665.018	-31.752	-0.227	0.128
-664.003	800.000	0.088	-0.361
-662.989	260.155	-0.219	-0.381
-661.974	-2.197	0.044	0.031
-660.959	23.460	-0.156	-0.129
-659.945	-200.000	0.051	-0.355
-658.930	800.000	-0.060	0.259
-657.916	-10.232	-0.273	-0.183
-656.901	7.130	-0.365	-0.274
-655.886	243.929	-0.147	-0.248
-654.872	-89.494	-0.298	0.088
-653.857	-200.000	0.003	0.153
-652.843	10.335	0.211	-0.162
-651.828	4.925	0.204	-0.151
-650.814	-112.214	0.122	0.025
-649.799	27.589	0.111	0.094
-648.784	-25.411	-0.219	0.130
-647.770	-101.445	0.369	-0.090
-646.755	-67.638	-0.154	0.061
-645.741	9.388	-0.287	-0.218
-644.726	-137.815	-0.134	0.015
-643.711	800.000	-0.062	0.239
-642.697	-200.000	0.004	-0.219
-641.682	-200.000	-0.001	0.287
-640.668	-200.000	-0.012	0.105
-639.653	-103.793	0.459	-0.108
-638.638	46.542	-0.210	0.196
-637.624	58.550	0.232	-0.229
-636.609	643.752	0.055	-0.140
-635.595	-200.000	0.007	0.089
-634.580	170.207	0.215	0.310
-633.565	-67.596	0.124	-0.049
-632.551	-7.924	-0.359	-0.244
-631.536	7.925	0.263	0.198
-630.522	-200.000	-0.035	-0.169
-629.507	-125.372	-0.094	0.014
-628.492	800.000	0.052	0.189
-627.478	-152.191	0.155	0.011
-626.463	-178.939	0.108	0.002
-625.449	-200.000	0.009	-0.343
-624.434	-6.947	0.113	-0.077
-623.419	154.560	0.154	-0.213
-622.405	-32.033	-0.080	0.045
-621.390	36.266	0.153	0.135
-620.376	-51.203	-0.262	-0.124
-619.361	-87.737	-0.097	-0.029
-618.346	-139.612	0.102	-0.011
-617.332	-146.575	-0.347	0.030
-616.317	78.273	-0.146	0.157
-615.303	53.282	-0.145	-0.140
-614.288	354.948	0.129	-0.258
-613.273	800.000	-0.074	-0.213
-612.259	86.519	-0.182	-0.202
-611.244	-11.571	-0.379	-0.250
-610.230	273.685	-0.031	0.056
-609.215	-200.000	0.033	0.275
-608.201	-181.706	0.302	-0.006
-607.186	-46.839	0.239	-0.117
-606.171	-151.300	0.094	0.007
-605.157	-200.000	0.040	0.364
-604.142	-36.120	-0.242	-0.131
-603.128	140.788	0.096	-0.128
-602.113	267.526	0.061	0.108
-601.098	-83.964	-0.103	0.033
-600.084	-200.000	-0.031	-0.176
-599.069	800.000	-0.061	-0.231
-598.055	-200.000	0.004	0.101
-597.040	254.544	-0.168	-0.288
-596.025	131.333	0.101	0.130
-595.011	-65.278	0.162	-0.065
-593.996	679.994	0.084	-0.220
-592.982	55.514	0.012	-0.012
-591.967	268.254	0.135	-0.238
-590.952	-24.250	-0.175	-0.105
-589.938	800.000	0.072	-0.267
-588.923	-157.366	-0.135	-0.008
-587.909	311.071	-0.080	0.151
-586.894	194.998	-0.174	-0.266
-585.879	41.746	0.068	-0.062
-584.865	-200.000	0.013	0.133
-583.850	392.987	-0.105	0.220
-582.836	294.500	-0.127	0.232
-581.821	800.000	-0.073	0.291
-580.806	0.326	0.228	0.164
-579.792	249.280	0.031	0.052
-578.777	245.677	0.130	-0.220
-577.763	532.146	0.168	-0.398
-576.748	-103.649	-0.217	-0.051
-575.733	800.000	0.086	-0.298
-574.719	50.262	0.049	-0.047
-573.704	-9.945	-0.189	0.126
-572.690	-200.000	-0.030	0.165
-571.675	-131.051	0.133	0.018
-570.661	402.956	0.069	0.146
-569.646	1.656	0.064	-0.046
-568.631	459.709	0.074	-0.165
-567.617	146.439	0.037	-0.050
-566.602	800.000	0.036	-0.112
-565.588	-52.448	-0.111	-0.051
-564.573	82.292	-0.098	-0.106
-563.558	201.263	0.111	-0.172
-562.544	-69.648	-0.223	0.086
-561.529	345.655	-0.109	0.215
-560.515	-75.638	0.083	-0.030
-559.500	68.928	-0.031	0.032
-558.485	-102.338	0.243	-0.058
-557.471	237.475	-0.116	-0.194
-556.456	-200.000	0.031	0.146
-555.442	-103.547	0.290	0.068
-554.427	-200.000	-0.024	0.189
-553.412	-95.468	-0.345	0.093
-552.398	-151.391	0.300	-0.022
-551.383	170.577	-0.151	-0.217
-550.369	-200.000	0.036	0.178
-549.354	-166.227	0.170	0.007
-548.339	-58.868	-0.135	-0.059
-547.325	-200.000	-0.054	0.288
-546.310	-163.207	-0.339	-0.016
-545.296	-200.000	-0.035	0.367
-544.281	464.451	0.037	0.082
-543.266	197.228	-0.149	0.228
-542.252	-38.215	0.061	0.033
-541.237	-200.000	-0.070	0.403
-540.223	-2.370	-0.265	-0.186
-539.208	242.135	-0.111	0.186
-538.193	-66.968	0.076	0.030
-537.179	-18.639	0.199	0.124
-536.164	75.478	0.179	-0.189
-535.150	-200.000	-0.011	-0.169
-534.135	-29.796	-0.237	0.135
-533.121	185.394	0.017	0.025
-532.106	132.905	0.149	0.192
-531.091	-79.044	0.174	-0.059
-530.077	99.912	-0.079	0.091
-529.062	-175.072	-0.243	0.007
-528.048	-109.256	-0.164	0.035
-527.033	-200.000	-0.009	0.205
-526.018	-103.595	-0.146	0.034
-525.004	183.391	0.050	-0.073
-523.989	123.339	0.105	-0.132
-522.975	-162.314	-0.207	0.010
-521.960	-41.316	0.164	-0.085
-520.945	800.000	0.117	-0.465
-519.931	194.307	0.101	0.153
-518.916	-77.136	-0.288	0.101
-517.902	-135.063	-0.259	-0.031
-516.887	285.013	0.138	-0.249
-515.872	800.000	-0.081	0.287
-514.858	537.715	-0.093	-0.222
-513.843	97.731	0.250	0.288
-512.829	231.257	0.015	-0.025
-511.814	-127.342	-0.225	-0.033
-510.799	-178.143	-0.305	0.007
-509.785	-144.514	0.240	-0.022
-508.770	-158.697	-0.200	-0.011
-507.756	800.000	-0.034	-0.143
-506.741	-81.790	0.312	-0.102
-505.726	-134.638	0.253	0.031
-504.712	-94.420	0.067	0.018
-503.697	89.530	0.240	-0.268
-502.683	202.420	-0.165	-0.255
-501.668	242.381	-0.086	0.144
-500.653	-200.000	-0.011	0.089
-499.639	-95.660	0.146	0.039
-498.624	-49.255	0.167	0.080
-497.610	-1.232	-0.178	0.126
-496.595	-200.000	-0.079	0.000
-495.581	198.419	0.119	-0.182
-494.566	-200.000	-0.005	-0.270
-493.551	462.075	-0.104	-0.231
-492.537	594.910	-0.107	-0.264
-491.522	-200.000	0.006	-0.112
-490.508	412.332	-0.127	0.269
-489.493	-67.025	-0.197	-0.078
-488.478	23.628	-0.248	-0.204
-487.464	408.471	-0.078	-0.165
-486.449	-200.000	0.030	0.496
-485.435	-200.000	-0.050	0.316
-484.420	369.611	0.066	-0.133
-483.405	231.293	0.137	0.224
-482.391	119.259	-0.153	-0.189
-481.376	26.014	0.152	-0.127
-480.362	138.815	-0.066	-0.087
-479.347	-1.609	-0.322	0.227
-478.332	-7.723	-0.178	0.120
-477.318	800.000	0.010	-0.035
-476.303	666.100	0.100	0.259
-475.289	-125.327	-0.291	-0.044
-474.274	-37.677	0.160	-0.085
-473.259	-200.000	0.014	0.090
-472.245	557.493	0.117	-0.282
-471.230	16.032	-0.090	0.071
-470.216	187.621	-0.058	-0.086
-469.201	-43.386	0.292	-0.148
-468.186	-132.725	-0.141	-0.018
-467.172	-200.000	0.035	0.400
-466.157	68.294	0.148	-0.151
-465.143	-155.628	0.331	0.021
-464.128	-81.830	-0.026	-0.009
-463.113	-200.000	-0.055	-0.258
-462.099	-200.000	0.043	-0.233
-461.084	-152.470	-0.089	0.006
-460.070	-200.000	-0.030	-0.150
-459.055	-23.117	-0.286	-0.172
-458.040	84.347	0.364	0.398
-457.026	-10.817	-0.251	0.166
-456.011	181.165	-0.178	0.262
-454.997	-63.043	0.172	0.071
-453.982	-174.564	0.118	0.003
-452.968	287.343	0.203	0.366
-451.953	216.828	0.076	-0.121
-450.938	800.000	-0.040	-0.120
-449.924	-99.576	0.354	0.089
-448.909	79.718	0.200	-0.215
-447.895	-79.974	0.127	0.043
-446.880	-200.000	-0.039	0.176
-445.865	-59.375	-0.167	0.072
-444.851	-180.639	0.144	-0.003
-443.836	309.286	0.043	0.080
-442.822	-142.367	0.175	0.017
-441.807	-21.021	-0.111	0.068
-440.792	186.428	0.157	0.233
-439.778	-200.000	-0.004	-0.344
-438.763	-102.969	-0.244	-0.058
-437.749	-152.081	0.299	-0.022
-436.734	763.148	-0.060	0.164
-435.719	22.986	-0.110	0.090
-434.705	800.000	0.090	0.308
-433.690	67.744	-0.059	-0.060
-432.676	53.680	0.050	0.048
-431.661	96.357	0.186	-0.212
-430.646	-200.000	0.001	-0.240
-429.632	-200.000	-0.032	0.145
-428.617	800.000	-0.046	0.177
-427.603	119.074	0.200	0.247
-426.588	-17.012	0.184	0.116
-425.573	299.009	-0.026	-0.047
-424.559	-98.552	-0.170	0.043
-423.544	178.033	-0.085	0.123
-422.530	-173.859	-0.246	-0.007
-421.515	-200.000	-0.100	0.466
-420.500	220.174	-0.025	0.041
-419.486	172.397	-0.073	0.105
-418.471	-200.000	0.019	-0.113
-417.457	-200.000	-0.059	-0.360
-416.442	63.364	-0.124	0.124
-415.428	-200.000	-0.006	-0.238
-414.413	-200.000	-0.093	-0.450
-413.398	80.715	-0.144	-0.155
-412.384	37.807	-0.125	0.110
-411.369	183.901	-0.058	-0.086
-410.355	2.015	-0.127	-0.091
-409.340	-61.386	-0.073	-0.031
-408.325	-188.805	0.377	-0.005
-407.311	-16.761	0.116	-0.073
-406.296	150.521	0.124	0.168
-405.282	70.866	-0.128	-0.132
-404.267	4.499	-0.263	-0.192
-403.252	267.258	0.124	0.216
-402.238	221.142	0.120	0.192
-401.223	-35.352	0.068	0.037
-400.209	-153.606	0.298	0.020
-399.194	-74.585	-0.330	0.118
-398.179	-14.579	-0.033	0.021
-397.165	440.367	-0.068	-0.148
-396.150	-100.620	-0.182	-0.045
-395.136	-60.766	0.246	-0.104
-394.121	800.000	-0.018	0.069
-393.106	-200.000	-0.039	0.215
-392.092	52.806	0.086	-0.082
-391.077	-200.000	0.064	0.491
-390.063	-134.783	-0.147	0.018
-389.048	91.117	0.130	-0.146
-388.033	-105.353	-0.173	-0.039
-387.019	-154.158	0.155	-0.010
-386.004	74.423	0.141	-0.147
-384.990	-200.000	0.005	-0.140
-383.975	43.203	0.346	0.315
-382.960	-135.734	-0.304	0.036
-381.946	-148.599	-0.099	0.008
-380.931	800.000	-0.066	-0.194
-379.917	-124.850	0.319	0.049
-378.902	-95.800	0.114	0.030
-377.888	-88.625	-0.437	0.130
-376.873	-200.000	-0.004	-0.050
-375.858	-95.988	0.330	-0.088
-374.844	-200.000	0.016	-0.348
-373.829	148.935	-0.152	0.205
-372.815	-200.000	0.063	0.334
-371.800	800.000	-0.151	0.538
-370.785	135.451	-0.132	0.171
-369.771	348.078	-0.122	-0.240
-368.756	40.063	-0.129	0.116
-367.742	-121.237	-0.200	-0.033
-366.727	-10.785	-0.211	-0.139
-365.712	-88.085	-0.137	-0.041
-364.698	-172.200	-0.229	-0.007
-363.683	58.306	-0.043	-0.042
-362.669	256.224	-0.066	0.112
-361.654	154.772	-0.226	0.309
-360.639	426.324	-0.123	-0.264
-359.625	-61.387	0.146	-0.061
-358.610	198.869	-0.223	0.339
-357.596	800.000	-0.089	-0.287
-356.581	386.986	-0.052	-0.107
-355.566	-200.000	0.011	0.145
-354.552	800.000	0.081	-0.278
-353.537	-32.349	0.552	-0.307
-352.523	-109.701	-0.040	0.008
-351.508	-33.877	-0.064	0.035
-350.493	54.393	-0.099	0.094
-349.479	-103.470	-0.127	0.030
-348.464	-148.921	-0.064	-0.005
-347.450	-75.085	-0.120	-0.043
-346.435	-39.182	-0.297	0.155
-345.420	-200.000	0.053	0.242
-344.406	800.000	0.045	-0.150
-343.391	800.000	-0.041	-0.177
-342.377	461.538	0.084	-0.186
-341.362	29.238	0.307	0.259
-340.348	-22.216	0.179	0.108
-339.333	-137.711	-0.263	-0.029
-338.318	-200.000	-0.017	0.270
-337.304	-200.000	-0.000	0.193
-336.289	-200.000	-0.046	0.344
-335.275	-116.269	-0.248	0.046
-334.260	18.200	0.132	0.105
-333.245	800.000	-0.018	0.073
-332.231	32.646	-0.078	-0.067
-331.216	-200.000	0.019	-0.144
-330.202	-71.851	0.148	-0.055
-329.187	-200.000	0.007	-0.235
-328.172	800.000	-0.042	0.134
-327.158	-200.000	-0.031	0.301
-326.143	-200.000	-0.018	-0.274
-325.129	-200.000	-0.020	-0.275
-324.114	608.736	-0.052	0.130
-323.099	96.909	0.093	0.105
-322.085	309.359	0.175	0.325
-321.070	659.385	-0.078	-0.200
-320.056	-188.242	0.157	-0.002
-319.041	9.425	0.159	0.120
-318.026	173.794	-0.273	-0.392
-317.012	441.475	-0.086	0.186
-315.997	81.320	-0.063	0.068
-314.983	-200.000	0.025	0.121
-313.968	-123.692	0.457	0.072
-312.953	-50.592	-0.291	0.136
-311.939	-51.827	0.342	0.158
-310.924	-161.928	0.399	0.020
-309.910	380.799	-0.077	-0.157
-308.895	87.866	0.088	0.097
-307.880	-98.145	-0.096	0.025
-306.866	4.681	0.096	-0.070
-305.851	-51.339	0.282	0.131
-304.837	-121.656	0.313	0.051
-303.822	153.582	0.120	0.163
-302.807	190.085	-0.170	0.253
-301.793	800.000	0.059	0.170
-300.778	235.918	-0.163	0.267
-299.764	800.000	-0.052	-0.210
-298.749	-52.184	0.284	0.131
-297.735	481.239	-0.068	-0.154
-296.720	23.806	0.339	-0.278
-295.705	-24.475	-0.248	0.147
-294.691	300.375	0.186	-0.340
-293.676	-107.671	0.379	-0.082
-292.662	-200.000	0.007	-0.096
-291.647	800.000	-0.055	-0.182
-290.632	40.613	-0.154	0.138
-289.618	-80.548	0.218	-0.072
-288.603	-18.624	-0.094	0.058
-287.589	-198.960	-0.126	0.001
-286.574	-77.122	-0.127	0.044
-285.559	-116.397	-0.228	-0.042
-284.545	-51.782	0.222	0.102
-283.530	426.015	0.083	-0.177
-282.516	-200.000	0.016	-0.314
-281.501	441.597	0.010	-0.021
-280.486	-200.000	0.038	0.164
-279.472	17.983	-0.074	-0.059
-278.457	-106.039	0.378	0.084
-277.443	-25.269	0.246	-0.144
-276.428	143.176	-0.211	-0.279
-275.413	75.074	0.153	-0.160
-274.399	-63.984	0.312	-0.127
-273.384	-24.810	-0.208	-0.123
-272.370	-200.000	-0.039	-0.176
-271.355	92.107	-0.175	0.196
-270.340	111.857	-0.078	-0.094
-269.326	800.000	0.072	0.233
-268.311	-98.225	-0.217	0.055
-267.297	652.543	0.091	-0.230
-266.282	54.676	0.147	-0.141
-265.267	-200.000	0.017	0.120
-264.253	-65.056	0.252	-0.101
-263.238	35.990	-0.160	0.140
-262.224	-64.827	0.306	-0.123
-261.209	800.000	0.101	0.427
-260.195	-200.000	0.012	-0.261
-259.180	69.192	-0.132	0.134
-258.165	175.832	-0.247	-0.356
-257.151	-200.000	0.010	0.069
-256.136	-78.383	0.031	0.010
-255.122	521.270	-0.074	0.172
-254.107	800.000	0.032	0.102
-253.092	244.191	0.022	-0.037
-252.078	-133.627	-0.267	-0.033
-251.063	-200.000	0.022	0.367
-250.049	-71.419	0.324	0.120
-249.034	-2.165	0.352	-0.245
-248.019	-55.665	-0.203	-0.090
-247.005	-200.000	-0.023	-0.220
-245.990	-119.640	0.198	0.034
-244.976	242.538	0.074	-0.122
-243.961	229.587	-0.118	-0.191
-242.946	-142.573	0.360	0.035
-241.932	-200.000	-0.015	-0.150
-240.917	-148.203	0.251	-0.021
-239.903	-27.534	0.095	0.055
-238.888	800.000	0.052	0.188
-237.873	458.049	-0.125	-0.276
-236.859	800.000	0.033	-0.124
-235.844	295.398	-0.172	0.312
-234.830	-94.195	-0.114	0.031
-233.815	-88.966	-0.233	-0.068
-232.800	-200.000	-0.023	-0.211
-231.786	92.932	0.192	0.215
-230.771	419.268	-0.223	-0.472
-229.757	112.231	-0.048	0.057
-228.742	-5.871	-0.237	0.161
-227.727	-182.096	-0.039	-0.001
-226.713	-4.573	0.187	-0.128
-225.698	-200.000	0.004	0.034
-224.684	-89.899	-0.174	-0.050
-223.669	-140.689	0.207	0.021
-222.655	-30.866	0.258	0.144
-221.640	800.000	-0.124	0.463
-220.625	284.625	0.182	0.324
-219.611	-85.216	-0.242	-0.075
-218.596	23.103	-0.302	0.245
-217.582	-69.661	-0.089	-0.034
-216.567	-95.312	0.063	0.017
-215.552	-142.803	0.233	0.022
-214.538	213.315	0.195	-0.304
-213.523	-71.444	-0.141	0.052
-212.509	-124.834	-0.211	0.032
-211.494	129.484	-0.235	0.298
-210.479	102.960	0.227	0.263
-209.465	800.000	-0.073	-0.225
-208.450	-51.795	0.167	0.077
-207.436	-37.638	0.257	0.135
-206.421	425.390	0.037	0.078
-205.406	-200.000	-0.037	-0.302
-204.392	-200.000	-0.007	-0.200
-203.377	-88.234	-0.398	0.118
-202.363	81.697	0.175	0.187
-201.348	-13.844	-0.321	-0.205
-200.333	-200.000	0.036	0.232
-199.319	241.742	0.072	0.119
-198.304	144.660	0.053	0.070
-197.290	-13.954	-0.041	-0.026
-196.275	-200.000	0.032	0.191
-195.260	-80.226	0.225	0.074
-194.246	56.321	-0.200	0.192
-193.231	-7.104	0.113	0.076
-192.217	-4.612	0.302	-0.206
-191.202	-129.114	0.035	-0.005
-190.187	-120.346	-0.374	0.063
-189.173	-96.927	-0.027	-0.007
-188.158	514.814	0.150	0.345
-187.144	178.559	0.024	0.035
-186.129	-58.018	0.196	0.085
-185.114	249.216	-0.190	-0.319
-184.100	-200.000	0.029	-0.194
-183.085	-200.000	-0.021	0.180
-182.071	-59.819	0.119	-0.050
-181.056	-129.595	-0.126	-0.017
-180.042	90.412	0.101	0.111
-179.027	800.000	0.056	-0.161
-178.012	71.181	-0.072	-0.074
-176.998	-200.000	-0.080	-0.372
-175.983	-81.684	0.319	-0.103
-174.969	-200.000	-0.026	-0.217
-173.954	40.854	-0.151	0.135
-172.939	-134.986	0.165	-0.020
-171.925	80.467	0.106	0.113
-170.910	-114.744	-0.315	0.059
-169.896	-128.944	-0.099	-0.014
-168.881	-57.274	-0.365	0.158
-167.866	65.596	-0.127	0.127
-166.852	-200.000	0.001	0.169
-165.837	11.369	-0.325	-0.246
-164.823	88.586	-0.119	-0.130
-163.808	-112.841	0.191	-0.037
-162.793	657.455	0.040	-0.101
-161.779	232.939	0.176	-0.285
-160.764	157.100	0.176	-0.241
-159.750	159.531	-0.090	0.123
-158.735	-76.746	0.150	0.052
-157.720	195.600	0.194	-0.292
-156.706	17.288	0.146	-0.114
-155.691	88.854	-0.167	-0.184
-154.677	7.561	-0.041	-0.031
-153.662	-119.208	-0.173	-0.030
-152.647	55.504	-0.097	-0.093
-151.633	-200.000	0.047	-0.232
-150.618	7.828	0.173	0.128
-149.604	-200.000	-0.029	-0.161
-148.589	800.000	-0.051	-0.153
-147.574	183.661	0.059	-0.086
-146.560	800.000	0.027	-0.111
-145.545	-61.721	0.155	-0.064
-144.531	-41.829	0.024	0.012
-143.516	-122.745	-0.248	0.040
-142.502	-200.000	0.012	0.418
-141.487	800.000	0.056	-0.215
-140.472	800.000	-0.065	0.230
-139.458	800.000	-0.056	0.171
-138.443	800.000	-0.065	0.186
-137.429	-61.533	-0.416	-0.173
-136.414	-56.761	0.388	-0.169
-135.399	400.529	-0.076	-0.158
-134.385	-71.712	0.276	-0.101
-133.370	-200.000	0.010	-0.097
-132.356	244.388	0.128	-0.212
-131.341	22.409	0.456	0.368
-130.326	-86.433	-0.082	-0.025
-129.312	27.144	0.344	0.285
-128.297	-75.083	-0.275	0.097
-127.283	-26.699	-0.054	-0.031
-126.268	-200.000	0.029	-0.172
-125.253	-38.354	0.254	0.132
-124.239	101.874	-0.270	-0.311
-123.224	-200.000	-0.015	-0.164
-122.210	800.000	0.098	0.313
-121.195	-0.848	0.088	0.062
-120.180	-126.159	-0.397	0.059
-119.166	345.076	0.108	0.210
-118.151	-27.300	0.205	0.118
-117.137	260.671	-0.212	0.362
-116.122	-200.000	-0.015	-0.215
-115.107	-78.064	-0.023	-0.008
-114.093	12.276	0.105	-0.080
-113.078	-111.347	-0.279	0.056
-112.064	-200.000	0.057	0.403
-111.049	-45.757	-0.193	-0.094
-110.034	69.224	0.138	-0.140
-109.020	-129.349	-0.125	-0.017
-108.005	108.344	-0.251	0.296
-106.991	-43.463	-0.218	-0.109
-105.976	-3.164	0.185	0.127
-104.962	800.000	0.123	0.451
-103.947	800.000	0.029	0.102
-102.932	157.614	0.176	-0.240
-101.918	-200.000	-0.044	0.291
-100.903	23.128	-0.131	-0.106
-99.889	-200.000	0.027	-0.130
-98.874	441.083	-0.107	-0.231
-97.859	-162.790	0.161	0.008
-96.845	-71.778	0.138	-0.051
-95.830	134.232	-0.079	0.101
-94.816	1.727	0.166	0.118
-93.801	-200.000	0.003	-0.291
-92.786	-8.291	0.040	-0.027
-91.772	75.667	0.157	-0.163
-90.757	-50.754	-0.060	-0.028
-89.743	152.400	-0.115	0.154
-88.728	-46.408	-0.223	0.108
-87.713	16.615	-0.294	0.229
-86.699	800.000	0.060	0.194
-85.684	58.288	0.086	0.083
-84.670	-68.303	-0.118	-0.045
-83.655	-105.734	-0.154	0.034
-82.640	99.808	-0.055	0.063
-81.626	800.000	0.132	-0.409
-80.611	-105.765	0.239	0.053
-79.597	-200.000	-0.001	-0.096
-78.582	-99.010	0.116	0.029
-77.567	-134.893	0.370	-0.044
-76.553	49.158	-0.100	0.093
-75.538	225.402	0.054	-0.086
-74.524	-200.000	0.064	0.000
-73.509	-91.393	0.258	0.073
-72.494	110.421	0.077	-0.091
-71.480	436.675	-0.019	0.041
-70.465	-200.000	-0.037	0.229
-69.451	800.000	0.153	0.481
-68.436	20.901	-0.197	-0.157
-67.422	-143.942	0.131	0.012
-66.407	73.376	0.184	-0.189
-65.392	-78.885	-0.148	0.050
-64.378	-54.127	0.085	0.038
-63.363	-65.492	-0.337	0.133
-62.349	800.000	-0.019	-0.063
-61.334	40.596	-1.115	-0.988
-60.319	38.841	0.424	0.372
-59.305	454.085	-0.535	-1.165
-58.290	139.435	0.900	1.166
-57.276	362.779	0.659	1.302
-56.261	-200.000	116.599	650.489
-55.246	505.747	1538.903	3507.003
-54.232	171.818	2720.166	3842.969
-53.217	96.747	2334.133	2629.579
-52.203	33.232	2078.456	1772.986
-51.188	28.464	1993.189	1657.207
-50.173	27.097	1976.006	1630.598
-49.159	44.497	2036.352	1839.548
-48.144	43.248	2051.711	1841.961
-47.130	28.821	2010.125	1674.275
-46.115	26.629	1999.724	1645.656
-45.100	26.560	1996.771	1642.532
-44.086	26.565	1994.419	1640.578
-43.071	26.560	1991.523	1638.089
-42.057	26.534	1989.091	1635.784
-41.042	26.548	1987.370	1634.430
-40.027	26.526	1986.128	1633.149
-39.013	26.531	1983.461	1630.939
-37.998	26.502	1981.804	1629.242
-36.984	26.576	1979.837	1628.230
-35.969	26.466	1978.538	1626.105
-34.954	26.514	1976.584	1624.874
-33.940	26.549	1974.971	1623.797
-32.925	26.608	1973.442	1623.001
-31.911	26.677	1971.461	1621.924
-30.896	26.727	1969.694	1620.857
-29.881	26.636	1968.086	1618.656
-28.867	26.675	1967.103	1618.132
-27.852	26.707	1965.303	1616.869
-26.838	26.633	1964.135	1615.184
-25.823	26.713	1961.057	1613.302
-24.809	26.650	1959.494	1611.389
-23.794	26.641	1957.895	1609.934
-22.779	26.633	1955.928	1608.181
-21.765	26.705	1954.539	1607.612
-20.750	26.655	1952.836	1605.708
-19.736	26.668	1951.399	1604.574
-18.721	26.638	1949.530	1602.707
-17.706	26.600	1948.356	1601.343
-16.692	26.775	1945.772	1600.705
-15.677	26.674	1944.638	1598.817
-14.663	26.646	1943.697	1597.727
-13.648	26.608	1942.336	1596.212
-12.633	26.606	1940.881	1594.937
-11.619	26.594	1939.606	1593.716
-10.604	26.642	1938.206	1592.931
-9.590	26.644	1936.425	1591.420
-8.575	26.658	1935.512	1590.730
-7.560	26.597	1934.364	1589.190
-6.546	26.649	1933.175	1588.600
-5.531	26.695	1931.428	1587.510
-4.517	26.580	1930.416	1585.602
-3.502	26.582	1929.492	1584.801
-2.487	26.662	1928.172	1584.354
-1.473	26.629	1927.197	1583.200
-0.458	26.693	1921.811	1579.275
0.556	27.481	1902.654	1551.820
1.571	23.337	1884.270	1501.647
2.586	19.568	1908.107	1488.093
3.600	18.609	1943.904	1507.446
4.615	18.207	1936.596	1498.129
5.629	13.910	1834.990	1383.670
6.644	6.750	1721.173	1241.602
7.659	3.562	1689.016	1193.662
8.673	3.292	1685.803	1189.202
9.688	3.276	1684.740	1188.222
10.702	3.310	1683.242	1187.327
11.717	3.312	1679.524	1184.616
12.731	3.798	1678.023	1187.179
13.746	8.630	1690.094	1232.925
14.761	16.240	1706.408	1303.709
15.775	19.969	1713.093	1337.563
16.790	20.176	1713.032	1338.998
17.804	19.188	1709.871	1328.787
18.819	18.270	1706.594	1319.051
19.834	17.667	1703.843	1312.167
20.848	17.556	1702.711	1310.324
21.863	17.391	1701.016	1307.637
22.877	17.186	1699.568	1304.835
23.892	16.892	1698.606	1301.724
24.907	16.884	1697.390	1300.613
25.921	16.916	1696.099	1299.760
26.936	16.982	1694.952	1299.269
27.950	16.982	1694.067	1298.478
28.965	17.005	1693.460	1298.073
29.980	16.989	1693.239	1297.663
30.994	17.056	1691.681	1296.871
32.009	17.131	1691.066	1296.853
33.023	17.175	1689.930	1296.207
34.038	17.251	1689.325	1296.203
35.053	17.189	1687.905	1294.526
36.067	17.123	1686.565	1292.885
37.082	17.079	1685.448	1291.580
38.096	17.138	1684.000	1290.802
39.111	17.105	1683.826	1290.306
40.126	17.169	1682.896	1289.965
41.140	17.188	1681.576	1288.982
42.155	16.988	1680.299	1286.369
43.169	16.793	1678.674	1283.539
44.184	16.784	1677.682	1282.598
45.199	16.784	1676.002	1281.202
46.213	16.721	1675.614	1280.312
47.228	16.752	1673.797	1279.048
48.242	16.885	1673.225	1279.501
49.257	17.037	1672.232	1279.771
50.271	16.999	1671.003	1278.431
51.286	17.017	1669.542	1277.341
52.301	17.071	1668.223	1276.624
53.315	16.940	1667.222	1274.754
54.330	17.001	1665.600	1273.862
55.344	16.854	1663.397	1270.963
56.359	16.697	1662.732	1269.169
57.374	16.820	1661.030	1268.678
58.388	16.843	1660.339	1268.205
59.403	16.762	1658.937	1266.418
60.417	16.730	1657.170	1264.718
61.432	16.611	1656.181	1262.967
62.447	16.686	1654.859	1262.406
63.461	16.595	1653.692	1260.719
64.476	16.628	1652.161	1259.686
65.490	16.511	1651.215	1257.990
66.505	16.533	1650.226	1257.288
67.520	16.466	1649.864	1256.401
68.534	16.610	1648.339	1256.196
69.549	16.640	1646.803	1255.136
70.563	16.700	1645.484	1254.470
71.578	16.515	1644.896	1252.534
72.593	16.542	1643.292	1251.407
73.607	16.482	1642.429	1250.191
74.622	16.411	1641.462	1248.821
75.636	16.506	1640.168	1248.426
76.651	16.480	1639.493	1247.610
77.666	16.461	1638.812	1246.839
78.680	16.481	1637.846	1246.142
79.695	16.540	1636.823	1245.692
80.709	16.557	1635.982	1245.069
81.724	16.555	1635.717	1244.739
82.739	16.722	1634.165	1244.675
83.753	16.755	1633.977	1244.667
84.768	16.914	1632.344	1244.478
85.782	16.960	1632.121	1244.537
86.797	16.977	1631.834	1244.330
87.812	17.059	1630.969	1244.165
88.826	17.040	1629.229	1242.583
89.841	16.924	1628.596	1241.142
90.855	16.961	1627.184	1240.226
91.870	17.004	1626.561	1239.962
92.884	17.115	1625.064	1239.521
93.899	17.162	1624.047	1238.975
94.914	17.110	1622.802	1237.535
95.928	17.130	1621.650	1236.696
96.943	17.229	1620.339	1236.306
97.957	17.169	1618.792	1234.581
98.972	17.083	1617.603	1232.942
99.987	17.072	1615.791	1231.367
101.001	17.135	1614.136	1230.458
102.016	17.103	1612.505	1228.869
103.030	17.024	1612.022	1227.826
104.045	16.973	1610.983	1226.556
105.060	17.117	1608.766	1225.795
106.074	17.046	1607.504	1224.213
107.089	16.894	1605.873	1221.773
108.103	16.633	1604.352	1218.628
109.118	16.604	1602.679	1217.038
110.133	16.603	1600.960	1215.617
111.147	16.699	1599.786	1215.309
112.162	16.649	1598.268	1213.686
113.176	16.643	1597.026	1212.598
114.191	16.657	1595.722	1211.599
115.206	16.721	1594.776	1211.232
116.220	16.690	1593.137	1209.659
117.235	16.714	1591.986	1208.847
118.249	16.664	1590.569	1207.305
119.264	16.767	1589.324	1206.988
120.279	16.661	1587.902	1205.046
121.293	16.617	1586.124	1203.278
122.308	16.604	1584.900	1202.149
123.322	16.563	1583.187	1200.459
124.337	16.479	1581.401	1198.399
125.352	16.413	1580.786	1197.358
126.366	16.482	1579.187	1196.534
127.381	16.408	1578.110	1195.087
128.395	16.446	1577.339	1194.667
129.410	16.460	1575.572	1193.323
130.424	16.532	1574.095	1192.603
131.439	16.661	1572.629	1192.300
132.454	16.628	1571.690	1191.247
133.468	16.652	1570.599	1190.484
134.483	16.754	1568.657	1189.620
135.497	16.778	1567.603	1188.888
136.512	16.728	1566.383	1187.507
137.527	16.761	1564.946	1186.544
138.541	16.771	1563.927	1185.736
139.556	16.805	1562.223	1184.576
140.570	16.785	1561.211	1183.560
141.585	16.941	1559.904	1183.559
142.600	16.996	1558.936	1183.104
143.614	16.998	1557.787	1182.140
144.629	17.004	1556.735	1181.278
145.643	17.156	1555.350	1181.178
146.658	17.222	1553.732	1180.301
147.673	17.107	1552.471	1178.444
148.687	16.970	1550.837	1176.149
149.702	16.956	1548.810	1174.411
150.716	16.841	1547.594	1172.593
151.731	16.856	1546.026	1171.400
152.746	16.901	1544.699	1170.600
153.760	16.990	1543.083	1169.886
154.775	16.988	1542.201	1169.102
155.789	16.890	1541.630	1167.889
156.804	17.075	1539.779	1167.661
157.819	17.072	1538.937	1166.897
158.833	17.015	1537.646	1165.424
159.848	17.122	1536.710	1165.345
160.862	17.308	1534.945	1165.178
161.877	17.179	1534.755	1164.047
162.892	17.116	1533.137	1162.286
163.906	16.991	1531.319	1159.952
164.921	16.985	1529.486	1158.419
165.935	16.921	1529.200	1157.659
166.950	17.007	1528.104	1157.313
167.964	17.126	1526.171	1156.563
168.979	17.095	1525.865	1156.016
169.994	17.127	1524.502	1155.100
171.008	16.963	1523.581	1153.179
172.023	17.049	1522.679	1152.982
173.037	17.139	1521.283	1152.436
174.052	17.194	1520.693	1152.255
175.067	17.165	1519.534	1151.083
176.081	17.201	1518.007	1150.067
177.096	17.012	1516.571	1147.597
178.110	16.969	1515.082	1146.079
179.125	16.901	1514.342	1144.957
180.140	16.998	1513.221	1144.668
181.154	17.051	1512.285	1144.212
182.169	17.102	1510.990	1143.474
183.183	17.208	1509.842	1143.222
184.198	17.304	1508.957	1143.093
185.213	17.381	1507.697	1142.551
186.227	17.340	1506.862	1141.547
187.242	17.407	1505.798	1141.088
188.256	17.424	1504.898	1140.422
189.271	17.474	1503.368	1139.496
190.286	17.464	1502.836	1138.920
191.300	17.358	1501.747	1137.285
192.315	17.163	1500.225	1134.730
193.329	16.937	1498.590	1131.888
194.344	16.956	1496.692	1130.480
195.359	16.987	1496.357	1130.331
196.373	17.020	1495.857	1130.076
197.388	17.187	1494.589	1130.130
198.402	17.349	1493.455	1130.244
199.417	17.359	1492.626	1129.587
200.432	17.520	1491.771	1129.906
201.446	17.486	1491.528	1129.397
202.461	17.634	1490.020	1129.134
203.475	17.719	1489.056	1128.871
204.490	17.781	1488.152	1128.492
205.504	17.550	1487.055	1126.035
206.519	17.540	1485.813	1124.929
207.534	17.519	1484.515	1123.708
208.548	17.485	1483.151	1122.353
209.563	17.479	1481.869	1121.243
210.577	17.504	1481.124	1120.744
211.592	17.410	1480.444	1119.514
212.607	17.550	1479.775	1119.828
213.621	17.578	1479.466	1119.680
214.636	17.746	1478.450	1119.916
215.650	17.672	1476.955	1118.200
216.665	17.709	1476.382	1117.906
217.680	17.769	1475.603	1117.611
218.694	17.878	1474.433	1117.341
219.709	17.846	1474.108	1116.785
220.723	17.841	1473.161	1115.937
221.738	17.825	1472.107	1114.935
222.753	17.798	1471.141	1113.931
223.767	17.832	1470.066	1113.239
224.782	17.886	1468.966	1112.659
225.796	17.872	1468.343	1111.996
226.811	17.900	1467.863	1111.717
227.826	18.063	1466.681	1111.785
228.840	17.948	1465.830	1110.296
229.855	17.817	1465.097	1108.790
230.869	17.887	1463.809	1108.169
231.884	17.919	1462.775	1107.500
232.899	17.797	1461.777	1105.851
233.913	17.760	1460.472	1104.528
234.928	17.803	1458.875	1103.501
235.942	17.695	1458.208	1102.197
236.957	17.677	1456.924	1101.017
237.972	17.615	1455.468	1099.418
238.986	17.634	1454.044	1098.368
240.001	17.651	1453.258	1097.789
241.015	17.800	1452.074	1097.751
242.030	17.721	1451.410	1096.648
243.045	17.687	1450.548	1095.679
244.059	17.850	1449.645	1095.947
245.074	17.969	1448.410	1095.682
246.088	18.022	1447.793	1095.459
247.103	17.867	1447.747	1094.332
248.117	17.981	1446.827	1094.266
249.132	18.154	1445.670	1094.403
250.147	18.235	1445.242	1094.500
251.161	18.371	1444.629	1094.809
252.176	18.377	1444.101	1094.352
253.190	18.518	1443.744	1094.883
254.205	18.596	1442.219	1094.128
255.220	18.650	1441.435	1093.782
256.234	18.648	1440.843	1093.220
257.249	18.564	1440.270	1092.154
258.263	18.624	1439.124	1091.572
259.278	18.576	1438.252	1090.506
260.293	18.646	1437.383	1090.199
261.307	18.595	1436.420	1089.047
262.322	18.758	1435.710	1089.444
263.336	18.815	1435.237	1089.350
264.351	18.707	1433.976	1087.615
265.366	18.806	1433.058	1087.451
266.380	18.796	1432.391	1086.784
267.395	18.766	1431.589	1085.889
268.409	18.892	1430.445	1085.723
269.424	18.728	1429.407	1083.804
270.439	18.641	1428.230	1082.269
271.453	18.632	1427.307	1081.413
272.468	18.715	1425.788	1080.690
273.482	18.620	1425.175	1079.533
274.497	18.614	1424.091	1078.576
275.512	18.610	1423.410	1077.938
276.526	18.560	1422.523	1076.860
277.541	18.629	1421.612	1076.510
278.555	18.677	1420.641	1075.981
279.570	18.621	1420.014	1075.060
280.585	18.736	1419.053	1074.957
281.599	18.885	1418.655	1075.491
282.614	18.852	1417.855	1074.584
283.628	18.883	1416.030	1073.298
284.643	18.660	1415.337	1071.288
285.657	18.642	1414.333	1070.316
286.672	18.693	1413.508	1069.921
287.687	18.716	1412.339	1069.083
288.701	18.698	1411.412	1068.171
289.716	18.702	1410.480	1067.399
290.730	18.784	1409.648	1067.182
291.745	18.829	1408.425	1066.440
292.760	18.816	1407.683	1065.704
293.774	18.884	1406.716	1065.298
294.789	18.825	1405.824	1064.166
295.803	18.932	1405.355	1064.382
296.818	19.053	1404.555	1064.425
297.833	18.877	1403.660	1062.566
298.847	18.876	1402.153	1061.329
299.862	18.936	1401.159	1060.851
300.876	18.891	1400.208	1059.759
301.891	18.885	1399.325	1058.957
302.906	18.922	1398.746	1058.658
303.920	19.021	1397.867	1058.503
304.935	19.111	1396.862	1058.205
305.949	19.166	1397.055	1058.594
306.964	19.254	1396.079	1058.301
307.979	19.360	1394.878	1057.946
308.993	19.193	1393.602	1055.863
310.008	19.136	1392.662	1054.711
311.022	19.220	1391.849	1054.514
312.037	19.220	1391.024	1053.796
313.052	19.347	1389.781	1053.537
314.066	19.258	1388.397	1051.852
315.081	19.061	1387.584	1049.940
316.095	19.012	1386.623	1048.823
317.110	18.956	1385.469	1047.513
318.125	18.919	1384.485	1046.451
319.139	18.972	1383.194	1045.709
320.154	19.090	1382.257	1045.622
321.168	18.957	1381.559	1044.192
322.183	18.996	1380.670	1043.665
323.197	18.988	1379.800	1042.866
324.212	19.028	1378.799	1042.263
325.227	19.119	1377.724	1041.910
326.241	19.072	1376.785	1040.824
327.256	19.138	1376.301	1040.761
328.270	19.124	1375.357	1039.871
329.285	19.164	1374.275	1039.202
330.300	19.108	1373.259	1038.005
331.314	19.099	1372.163	1037.028
332.329	19.179	1371.302	1036.773
333.343	19.180	1370.459	1036.047
334.358	19.194	1369.676	1035.450
335.373	19.239	1369.226	1035.284
336.387	19.263	1368.397	1034.713
337.402	19.332	1367.544	1034.388
338.416	19.373	1366.884	1034.042
339.431	19.424	1366.659	1034.087
340.446	19.409	1365.787	1033.250
341.460	19.548	1364.447	1032.973
342.475	19.702	1363.501	1033.086
343.489	19.680	1362.820	1032.348
344.504	19.846	1361.957	1032.594
345.519	19.824	1361.139	1031.752
346.533	19.870	1360.081	1031.135
347.548	19.907	1358.996	1030.438
348.562	19.924	1358.340	1029.948
349.577	19.854	1357.871	1029.086
350.592	19.796	1356.965	1027.964
351.606	19.627	1355.804	1025.993
352.621	19.616	1354.500	1024.846
353.635	19.358	1353.852	1022.737
354.650	19.493	1352.656	1022.546
355.665	19.478	1351.917	1021.806
356.679	19.598	1350.374	1021.258
357.694	19.653	1349.321	1020.694
358.708	19.537	1348.801	1019.531
359.723	19.789	1347.208	1019.718
360.738	19.736	1346.018	1018.418
361.752	19.780	1345.359	1018.087
362.767	19.734	1344.446	1017.033
363.781	19.642	1343.645	1015.798
364.796	19.744	1342.871	1015.721
365.810	19.952	1341.890	1016.114
366.825	19.930	1341.816	1015.840
367.840	19.954	1341.326	1015.516
368.854	19.933	1340.976	1015.038
369.869	20.171	1339.819	1015.469
370.883	20.174	1339.374	1015.059
371.898	20.006	1338.344	1013.203
372.913	20.096	1337.080	1012.683
373.927	19.899	1336.589	1011.072
374.942	20.034	1335.770	1011.152
375.956	20.076	1335.218	1010.886
376.971	20.121	1334.242	1010.320
377.986	20.142	1332.979	1009.400
379.000	20.114	1332.204	1008.559
380.015	20.176	1331.392	1008.217
381.029	20.195	1331.342	1008.197
382.044	20.230	1330.645	1007.784
383.059	20.397	1329.766	1008.000
384.073	20.378	1328.677	1006.978
385.088	20.341	1328.858	1006.808
386.102	20.230	1328.253	1005.616
387.117	20.325	1326.878	1005.041
388.132	20.327	1326.046	1004.330
389.146	20.212	1324.812	1002.645
390.161	20.208	1324.065	1001.965
391.175	20.029	1323.657	1000.535
392.190	20.135	1322.502	1000.182
393.205	20.243	1321.740	1000.139
394.219	20.341	1321.156	1000.175
395.234	20.338	1319.755	999.010
396.248	20.306	1318.263	997.610
397.263	20.270	1316.761	996.177
398.278	20.384	1315.290	995.628
399.292	20.223	1314.280	993.853
400.307	20.167	1313.268	992.682
401.321	20.141	1312.329	991.735
402.336	20.033	1311.368	990.302
403.350	20.114	1310.204	989.801
404.365	20.095	1309.394	988.989
405.380	20.161	1308.232	988.404
406.394	20.219	1307.786	988.308
407.409	20.269	1307.267	988.112
408.423	20.292	1306.741	987.761
409.438	20.527	1305.394	987.987
410.453	20.557	1304.940	987.728
411.467	20.607	1304.310	987.450
412.482	20.657	1304.065	987.459
413.496	20.648	1303.592	986.963
414.511	20.700	1302.308	986.198
415.526	20.725	1301.804	985.871
416.540	20.791	1301.303	985.776
417.555	20.889	1300.575	985.692
418.569	20.919	1299.993	985.332
419.584	20.856	1299.375	984.421
420.599	20.755	1298.920	983.419
421.613	145.299	1436.287	1797.210
422.628	140.533	1456.240	1797.288
