DTS Sentinel unit serial number:	SN413079Multiplexer serial number:	ORYXHardware model number:	OX4-SRSoftware version number:	ORYX F/W v4.00 Oryx Data Collector v3.7.2.0data status	okinstallation	princeton_trtdifferential loss correction	single-endedforward channel	channel 4reverse channel	N/Adate	2019/09/17time	14:37:34forward acquisition time	60.00reverse acquisition time	0.00gamma	496.2192k internal	0.2295k external	0.2295temperature offset calibration	0.9988default loss term (dB/km)	0.3790temperature slope calibration	1.0000multiplexer offset coefficient	1.0000multiplexer slope coefficient	1.0000fibre end	0.00T internal ref (°C)	36.69T ext. ref 1 (°C)	0.40T ext. ref 2 (°C)	33.81length (m)	temperature (°C)	Stokes	anti-Stokes-747.200	-98.730	0.361	0.094
-746.185	-200.000	0.015	0.132
-745.171	241.389	0.144	0.245
-744.156	-200.000	0.038	0.298
-743.142	-112.978	-0.237	0.048
-742.127	209.555	-0.294	0.470
-741.112	50.213	-0.096	0.093
-740.098	-141.940	-0.108	-0.011
-739.083	800.000	0.076	0.261
-738.069	108.623	0.016	-0.020
-737.054	-200.000	0.021	-0.272
-736.039	168.591	-0.092	-0.134
-735.025	-119.995	0.262	0.046
-734.010	609.289	0.026	0.067
-732.996	-21.260	-0.277	0.173
-731.981	-50.133	-0.051	0.024
-730.966	-86.043	0.137	-0.043
-729.952	-72.538	0.106	0.040
-728.937	86.917	0.092	-0.103
-727.923	-168.622	-0.099	0.004
-726.908	169.472	-0.115	-0.168
-725.894	-20.256	-0.111	0.070
-724.879	-189.505	0.046	0.001
-723.864	-20.305	0.054	-0.034
-722.850	16.781	0.163	0.132
-721.835	-106.076	-0.174	0.040
-720.821	-155.623	0.159	-0.010
-719.806	-123.655	0.270	-0.044
-718.791	70.683	0.100	-0.106
-717.777	-140.431	-0.178	0.019
-716.762	-200.000	-0.019	-0.290
-715.748	545.590	0.030	-0.072
-714.733	-74.141	-0.379	-0.140
-713.718	293.095	0.101	0.189
-712.704	-138.893	-0.098	-0.011
-711.689	-63.820	0.363	-0.152
-710.675	347.289	-0.102	-0.205
-709.660	-146.487	-0.280	-0.025
-708.645	6.368	-0.204	0.155
-707.631	-109.347	0.263	-0.057
-706.616	-112.779	-0.383	0.078
-705.602	-200.000	-0.022	-0.170
-704.587	-36.355	0.137	-0.075
-703.572	47.456	0.262	0.249
-702.558	-161.306	-0.228	-0.012
-701.543	-200.000	0.026	-0.378
-700.529	-113.216	0.179	0.036
-699.514	-200.000	-0.042	-0.197
-698.499	-71.231	-0.487	-0.186
-697.485	-13.836	-0.294	-0.194
-696.470	-174.540	0.293	0.009
-695.456	605.334	0.087	0.220
-694.441	408.146	0.033	0.070
-693.426	-200.000	-0.008	-0.058
-692.412	-110.861	0.207	-0.044
-691.397	151.971	0.219	-0.304
-690.383	-200.000	0.004	-0.373
-689.368	-144.496	0.174	-0.016
-688.354	9.508	-0.353	0.273
-687.339	-143.104	0.072	0.007
-686.324	-11.686	-0.031	0.021
-685.310	-200.000	0.002	-0.121
-684.295	-57.768	0.128	0.057
-683.281	80.659	-0.185	0.204
-682.266	-151.941	0.279	-0.021
-681.251	792.477	-0.037	0.103
-680.237	-78.222	-0.070	0.024
-679.222	800.000	0.052	0.176
-678.208	-112.436	-0.215	0.044
-677.193	-180.808	-0.050	0.001
-676.178	-200.000	-0.016	-0.119
-675.164	-134.579	-0.216	0.027
-674.149	147.692	0.223	-0.306
-673.135	-63.810	-0.105	-0.044
-672.120	4.894	-0.301	-0.226
-671.105	-191.968	-0.120	-0.001
-670.091	218.508	0.206	-0.335
-669.076	-125.071	-0.210	-0.033
-668.062	-200.000	0.008	-0.346
-667.047	800.000	0.092	0.261
-666.032	-43.176	-0.126	-0.065
-665.018	5.999	0.223	0.169
-664.003	-2.386	-0.156	-0.112
-662.989	-200.000	0.085	-0.392
-661.974	137.752	-0.190	0.254
-660.959	800.000	-0.072	0.209
-659.945	-109.335	-0.335	-0.072
-658.930	-71.327	-0.217	0.083
-657.916	-200.000	-0.021	-0.324
-656.901	84.896	-0.252	-0.281
-655.886	57.728	-0.217	0.216
-654.872	-200.000	-0.012	-0.410
-653.857	800.000	-0.084	0.280
-652.843	-200.000	-0.000	0.189
-651.828	45.808	0.116	0.109
-650.814	-118.618	-0.138	-0.025
-649.799	111.129	0.090	0.110
-648.784	-200.000	0.067	0.381
-647.770	-200.000	-0.020	0.194
-646.755	-108.371	-0.384	0.084
-645.741	-200.000	0.021	-0.117
-644.726	130.537	-0.074	0.097
-643.711	800.000	-0.093	0.287
-642.697	-79.087	0.388	-0.134
-641.682	108.930	0.115	0.140
-640.668	203.686	-0.105	-0.166
-639.653	-12.299	-0.268	-0.179
-638.638	51.638	-0.279	-0.270
-637.624	-16.133	0.259	0.168
-636.609	-132.114	0.095	0.013
-635.595	194.135	-0.083	0.128
-634.580	-13.689	0.245	0.161
-633.565	-98.068	0.291	0.076
-632.551	560.318	-0.091	0.224
-631.536	33.992	-0.249	-0.221
-630.522	-110.192	0.267	0.057
-629.507	800.000	-0.045	0.168
-628.492	83.407	0.110	-0.123
-627.478	39.438	-0.095	-0.087
-626.463	234.455	0.165	-0.277
-625.449	-157.280	-0.389	-0.024
-624.434	-122.783	-0.354	0.058
-623.419	-99.084	0.136	-0.035
-622.405	-200.000	0.023	0.494
-621.390	-124.866	-0.164	-0.026
-620.376	-200.000	-0.183	0.001
-619.361	47.346	-0.160	0.152
-618.346	1.866	0.181	-0.133
-617.332	-125.071	-0.097	0.015
-616.317	-200.000	0.001	0.211
-615.303	-200.000	0.000	0.237
-614.288	146.179	-0.161	-0.220
-613.273	-145.969	0.328	-0.030
-612.259	48.982	0.276	0.264
-611.244	-34.366	-0.197	-0.110
-610.230	-144.841	-0.037	0.003
-609.215	58.466	0.226	0.225
-608.201	13.357	0.160	0.126
-607.186	-74.199	-0.163	-0.060
-606.171	-93.653	0.280	-0.079
-605.157	-110.799	0.430	-0.090
-604.142	-60.084	0.191	-0.083
-603.128	3.945	0.118	-0.088
-602.113	-86.874	-0.354	-0.110
-601.098	800.000	-0.070	0.246
-600.084	-71.166	0.259	-0.099
-599.069	271.035	0.074	-0.133
-598.055	25.703	0.047	-0.040
-597.040	85.796	-0.135	-0.151
-596.025	312.519	0.101	-0.192
-595.011	-87.583	-0.359	0.110
-593.996	-72.785	0.046	-0.017
-592.982	35.452	-0.241	-0.215
-591.967	-200.000	-0.017	0.260
-590.952	50.091	-0.225	-0.215
-589.938	800.000	-0.059	0.204
-588.923	-47.006	-0.357	-0.177
-587.909	-200.000	-0.030	0.189
-586.894	82.922	-0.072	0.079
-585.879	-200.000	0.008	0.050
-584.865	-75.175	0.142	0.051
-583.850	-74.205	-0.153	0.056
-582.836	33.785	0.104	-0.092
-581.821	-166.974	-0.232	-0.010
-580.806	4.071	-0.175	0.130
-579.792	754.095	-0.118	-0.324
-578.777	1.126	0.279	-0.204
-577.763	-200.000	-0.016	-0.317
-576.748	-49.619	-0.449	0.217
-575.733	-46.224	-0.236	0.118
-574.719	-159.228	0.563	0.032
-573.704	35.276	0.051	0.046
-572.690	-200.000	-0.004	-0.153
-571.675	173.213	-0.031	-0.046
-570.661	197.684	0.248	-0.384
-569.646	76.473	-0.140	0.151
-568.631	198.683	0.058	-0.091
-567.617	183.119	-0.146	-0.218
-566.602	180.256	0.104	-0.154
-565.588	40.672	0.159	0.145
-564.573	-89.627	-0.390	-0.116
-563.558	56.801	-0.326	-0.322
-562.544	-200.000	0.006	-0.056
-561.529	-125.675	-0.101	0.016
-560.515	-169.499	0.417	-0.015
-559.500	340.241	-0.183	-0.362
-558.485	118.500	-0.113	-0.142
-557.471	47.068	-0.245	0.231
-556.456	-77.391	-0.124	0.044
-555.442	-193.059	-0.066	0.001
-554.427	102.344	-0.118	0.140
-553.412	-61.327	-0.172	-0.074
-552.398	-120.882	0.328	-0.056
-551.383	800.000	0.075	-0.274
-550.369	-117.912	-0.099	-0.018
-549.354	800.000	0.063	0.204
-548.339	-200.000	0.009	0.090
-547.325	-27.793	-0.190	-0.112
-546.310	530.803	0.055	-0.131
-545.296	553.334	-0.050	0.121
-544.281	-60.611	-0.035	-0.015
-543.266	-105.069	0.194	0.045
-542.252	-200.000	0.019	-0.360
-541.237	-105.814	-0.317	0.073
-540.223	800.000	-0.107	-0.356
-539.208	-125.891	0.214	0.033
-538.193	350.637	-0.191	-0.384
-537.179	-78.944	0.330	-0.114
-536.164	221.762	0.160	0.260
-535.150	268.637	0.204	0.363
-534.135	-136.536	0.151	-0.018
-533.121	323.185	-0.076	0.146
-532.106	146.634	-0.198	0.270
-531.091	-200.000	0.006	0.378
-530.077	-73.039	-0.126	-0.047
-529.062	-8.960	-0.228	-0.155
-528.048	-42.807	0.310	0.160
-527.033	-111.047	-0.152	0.032
-526.018	516.834	-0.158	0.375
-525.004	554.327	0.062	-0.151
-523.989	-200.000	0.008	0.101
-522.975	-66.621	0.004	0.002
-521.960	-128.769	-0.098	0.014
-520.945	-72.877	0.118	0.044
-519.931	-96.935	0.121	-0.032
-518.916	196.462	0.146	0.225
-517.902	-200.000	-0.028	0.184
-516.887	107.576	-0.148	0.179
-515.872	-200.000	-0.038	-0.184
-514.858	-200.000	0.044	0.347
-513.843	-165.623	0.197	-0.009
-512.829	-22.303	-0.166	-0.102
-511.814	394.877	-0.159	0.335
-510.799	-200.000	-0.005	-0.270
-509.785	800.000	-0.049	-0.178
-508.770	-200.000	0.022	-0.127
-507.756	72.515	0.098	-0.104
-506.741	800.000	-0.090	0.273
-505.726	-121.971	0.068	-0.011
-504.712	-10.583	0.208	-0.139
-503.697	32.829	-0.227	-0.199
-502.683	50.515	-0.313	0.300
-501.668	-68.239	-0.222	0.087
-500.653	49.708	0.119	0.114
-499.639	87.547	0.051	0.057
-498.624	-100.123	0.181	0.046
-497.610	98.695	-0.208	0.243
-496.595	-113.660	0.100	-0.020
-495.581	273.722	-0.085	0.152
-494.566	-25.023	-0.046	-0.028
-493.551	-200.000	-0.017	0.089
-492.537	265.965	-0.109	0.192
-491.522	52.169	0.251	0.242
-490.508	-200.000	0.027	-0.128
-489.493	-200.000	-0.018	-0.193
-488.478	70.310	0.003	-0.004
-487.464	-132.027	0.179	-0.024
-486.449	-200.000	-0.001	0.050
-485.435	-200.000	-0.004	0.297
-484.420	-200.000	0.042	-0.398
-483.405	229.010	-0.139	-0.230
-482.391	-89.851	-0.188	-0.055
-481.376	336.837	0.132	-0.259
-480.362	-140.188	-0.117	-0.012
-479.347	-79.794	-0.042	0.014
-478.332	10.124	0.162	0.125
-477.318	59.084	-0.109	0.109
-476.303	-200.000	0.038	0.306
-475.289	-175.088	-0.220	0.006
-474.274	330.395	-0.194	-0.378
-473.259	127.565	0.102	-0.131
-472.245	429.319	-0.060	0.132
-471.230	-56.706	-0.142	-0.064
-470.216	2.917	-0.117	-0.086
-469.201	8.625	0.228	-0.173
-468.186	800.000	-0.071	0.273
-467.172	215.851	0.194	0.311
-466.157	-160.322	0.310	-0.017
-465.143	131.952	-0.075	-0.098
-464.128	-20.800	-0.077	0.047
-463.113	-148.227	-0.187	-0.016
-462.099	-88.840	-0.216	-0.065
-461.084	800.000	-0.069	-0.262
-460.070	-138.743	0.145	-0.016
-459.055	-1.896	-0.092	-0.066
-458.040	-86.634	0.203	0.063
-457.026	-12.384	-0.236	-0.156
-456.011	201.846	0.132	0.205
-454.997	-26.326	-0.360	-0.214
-453.982	305.680	0.179	-0.337
-452.968	-200.000	0.102	-0.624
-451.953	-200.000	-0.021	-0.119
-450.938	-60.109	-0.354	0.153
-449.924	158.901	-0.052	-0.073
-448.909	-22.269	0.295	0.180
-447.895	-17.841	0.184	0.117
-446.880	46.009	-0.375	-0.351
-445.865	-151.689	-0.191	-0.014
-444.851	-60.904	-0.228	0.098
-443.836	569.260	0.136	-0.333
-442.822	-12.460	-0.050	0.033
-441.807	-148.879	0.129	0.011
-440.792	101.414	-0.242	-0.285
-439.778	82.520	-0.026	0.028
-438.763	-168.391	0.305	0.012
-437.749	18.796	0.142	-0.115
-436.734	80.154	-0.223	-0.243
-435.719	45.109	-0.122	0.114
-434.705	-200.000	0.040	0.331
-433.690	172.159	-0.033	0.048
-432.676	-169.680	0.224	-0.008
-431.661	800.000	-0.196	-0.596
-430.646	53.746	-0.178	0.173
-429.632	135.733	-0.080	0.105
-428.617	9.715	0.093	-0.072
-427.603	800.000	0.039	-0.119
-426.588	-154.366	0.388	0.026
-425.573	-200.000	-0.041	0.394
-424.559	-32.998	0.156	-0.087
-423.544	-146.726	-0.352	-0.031
-422.530	-200.000	-0.013	-0.162
-421.515	307.005	0.225	-0.422
-420.500	800.000	0.074	-0.325
-419.486	46.093	-0.250	-0.234
-418.471	265.400	0.081	0.143
-417.457	72.339	0.232	-0.244
-416.442	-37.474	-0.286	-0.154
-415.428	-67.452	0.213	-0.084
-414.413	58.520	0.114	0.113
-413.398	676.218	-0.098	-0.256
-412.384	-68.385	0.443	0.174
-411.369	-200.000	-0.016	0.197
-410.355	-143.211	0.156	-0.015
-409.340	-73.083	-0.277	-0.102
-408.325	-79.494	0.111	0.038
-407.311	321.557	0.130	0.250
-406.296	565.817	0.077	-0.189
-405.282	-103.523	0.288	0.068
-404.267	178.105	-0.154	-0.227
-403.252	-118.505	0.122	-0.022
-402.238	-32.538	-0.237	0.133
-401.223	-200.000	-0.052	-0.302
-400.209	-1.966	0.012	0.008
-399.194	-41.466	0.175	-0.091
-398.179	-10.802	-0.405	-0.270
-397.165	800.000	-0.033	0.134
-396.150	-200.000	-0.041	0.232
-395.136	28.261	0.093	-0.079
-394.121	-144.530	-0.161	-0.015
-393.106	-132.846	0.248	0.032
-392.092	98.435	-0.077	0.090
-391.077	-200.000	0.086	-0.442
-390.063	132.927	0.083	-0.108
-389.048	-154.255	0.076	0.005
-388.033	413.096	0.132	0.283
-387.019	794.315	-0.085	-0.235
-386.004	-200.000	-0.020	0.152
-384.990	-117.229	0.104	-0.019
-383.975	-200.000	-0.015	0.180
-382.960	800.000	0.069	-0.264
-381.946	176.402	0.122	0.179
-380.931	-26.325	0.159	0.094
-379.917	-70.164	0.052	0.020
-378.902	-200.000	0.012	0.102
-377.888	-94.424	0.073	0.020
-376.873	-78.919	-0.303	0.104
-375.858	-58.459	-0.336	0.147
-374.844	64.740	0.269	0.273
-373.829	-31.369	-0.252	0.143
-372.815	-31.440	0.216	0.122
-371.800	66.024	0.079	0.080
-370.785	-129.419	0.539	0.075
-369.771	-101.974	0.033	0.008
-368.756	-200.000	0.025	-0.171
-367.742	800.000	0.039	-0.113
-366.727	-53.368	0.203	-0.094
-365.712	421.672	-0.245	0.529
-364.698	-200.000	-0.003	-0.243
-363.683	-65.119	-0.144	0.058
-362.669	244.869	0.064	-0.108
-361.654	-40.853	0.187	0.097
-360.639	39.692	0.192	0.173
-359.625	71.674	0.145	-0.151
-358.610	-157.215	-0.185	-0.011
-357.596	800.000	0.069	0.216
-356.581	49.408	-0.133	0.126
-355.566	-200.000	-0.012	-0.155
-354.552	94.321	-0.290	0.331
-353.537	201.285	0.222	-0.344
-352.523	73.183	0.225	-0.237
-351.508	-168.221	-0.216	0.008
-350.493	96.746	0.137	-0.159
-349.479	-106.365	0.242	0.054
-348.464	-116.735	-0.291	-0.054
-347.450	86.155	-0.158	0.175
-346.435	-79.445	-0.288	-0.098
-345.420	-200.000	-0.058	0.269
-344.406	-200.000	-0.001	0.239
-343.391	75.539	0.177	0.188
-342.377	271.491	-0.109	-0.193
-341.362	248.471	-0.065	0.111
-340.348	-38.800	-0.327	0.174
-339.333	-185.876	0.280	-0.004
-338.318	46.135	0.043	-0.040
-337.304	-200.000	-0.022	-0.201
-336.289	56.816	-0.148	0.145
-335.275	23.553	0.151	0.125
-334.260	271.736	0.065	-0.115
-333.245	-83.686	0.257	-0.083
-332.231	-153.308	-0.135	-0.009
-331.216	-164.163	0.168	0.008
-330.202	404.023	0.020	0.043
-329.187	35.950	0.144	0.127
-328.172	-72.360	0.229	0.085
-327.158	34.904	-0.206	0.181
-326.143	800.000	-0.091	-0.349
-325.129	-101.894	-0.165	-0.040
-324.114	-115.595	0.436	0.082
-323.099	41.737	-0.195	0.177
-322.085	-74.975	0.243	-0.087
-321.070	20.080	-0.169	-0.137
-320.056	164.156	-0.138	0.195
-319.041	12.137	0.231	0.179
-318.026	277.470	0.102	0.183
-317.012	-200.000	-0.043	-0.261
-315.997	-200.000	-0.005	0.337
-314.983	-111.621	0.405	0.083
-313.968	-129.345	0.379	0.053
-312.953	-141.534	-0.187	0.019
-311.939	83.103	0.065	0.071
-310.924	531.457	-0.076	0.180
-309.910	-51.370	0.220	-0.104
-308.895	-109.656	0.146	-0.031
-307.880	151.366	-0.219	-0.300
-306.866	385.679	-0.091	-0.189
-305.851	-115.890	0.207	-0.039
-304.837	725.110	-0.100	-0.267
-303.822	-105.608	-0.044	-0.010
-302.807	-156.323	0.127	0.008
-301.793	19.768	-0.169	-0.136
-300.778	220.250	0.077	0.124
-299.764	286.511	-0.029	0.052
-298.749	-200.000	0.004	-0.053
-297.735	-143.793	-0.130	0.012
-296.720	72.795	-0.325	0.340
-295.705	68.779	0.029	-0.030
-294.691	-37.728	-0.462	-0.247
-293.676	-113.774	0.243	-0.048
-292.662	-5.679	0.064	-0.044
-291.647	-30.210	-0.326	0.186
-290.632	-31.505	-0.182	0.103
-289.618	-200.000	-0.002	0.352
-288.603	87.037	0.178	0.198
-287.589	256.771	0.115	0.198
-286.574	-200.000	0.041	0.277
-285.559	-200.000	-0.009	0.396
-284.545	-15.867	0.092	0.059
-283.530	-200.000	0.032	0.147
-282.516	5.844	-0.200	0.149
-281.501	-111.910	-0.189	0.038
-280.486	201.477	0.182	0.281
-279.472	-200.000	-0.010	-0.367
-278.457	141.014	0.221	-0.294
-277.443	51.094	-0.143	-0.136
-276.428	-158.798	0.421	0.024
-275.413	-54.104	0.336	-0.153
-274.399	-89.676	-0.172	0.051
-273.384	75.257	-0.096	0.102
-272.370	-81.003	0.097	0.032
-271.355	148.517	0.203	-0.275
-270.340	-200.000	-0.046	0.410
-269.326	517.510	0.055	0.128
-268.311	-118.375	0.173	0.031
-267.297	4.889	0.067	0.049
-266.282	474.724	-0.080	-0.181
-265.267	-41.973	0.150	0.077
-264.253	215.571	-0.192	-0.305
-263.238	-79.264	-0.118	0.040
-262.224	18.859	0.122	0.098
-261.209	164.332	-0.102	0.144
-260.195	-11.495	0.227	0.150
-259.180	-200.000	0.027	-0.314
-258.165	-109.519	0.157	-0.033
-257.151	601.879	-0.044	0.109
-256.136	213.269	-0.236	0.375
-255.122	-172.350	0.065	-0.002
-254.107	321.939	0.131	-0.250
-253.092	-180.694	-0.239	0.005
-252.078	-200.000	-0.002	-0.082
-251.063	-90.754	-0.117	-0.034
-250.049	244.045	-0.077	0.130
-249.034	-200.000	-0.011	0.071
-248.019	150.005	0.221	-0.301
-247.005	-200.000	-0.003	0.204
-245.990	183.145	0.239	-0.354
-244.976	610.023	-0.042	-0.106
-243.961	-200.000	-0.024	0.213
-242.946	-10.602	-0.163	-0.108
-241.932	-160.729	-0.266	-0.014
-240.917	-41.531	-0.062	-0.032
-239.903	336.051	-0.072	-0.140
-238.888	291.195	-0.127	0.232
-237.873	340.502	-0.093	0.182
-236.859	48.301	0.148	0.139
-235.844	800.000	0.060	0.181
-234.830	800.000	-0.041	-0.180
-233.815	-176.442	-0.238	0.006
-232.800	226.272	0.121	0.197
-231.786	15.291	-0.199	-0.157
-230.771	-200.000	-0.035	-0.175
-229.757	-200.000	-0.013	0.223
-228.742	-54.778	-0.297	-0.134
-227.727	540.141	0.165	-0.394
-226.713	57.198	-0.158	-0.155
-225.698	800.000	0.077	0.232
-224.684	800.000	-0.028	-0.098
-223.669	-200.000	-0.039	-0.311
-222.655	122.016	-0.098	0.123
-221.640	543.476	0.064	-0.154
-220.625	209.194	0.093	0.146
-219.611	-200.000	0.058	-0.350
-218.596	-200.000	-0.105	-0.488
-217.582	81.890	0.245	0.266
-216.567	83.683	0.235	0.257
-215.552	18.041	0.110	0.088
-214.538	-162.785	-0.315	-0.015
-213.523	1.282	0.273	0.197
-212.509	-200.000	0.043	0.356
-211.494	800.000	0.042	0.139
-210.479	-59.381	0.068	0.029
-209.465	-148.663	0.136	0.011
-208.450	-33.207	0.109	0.060
-207.436	800.000	-0.065	-0.238
-206.421	-147.405	0.432	0.037
-205.406	-33.942	0.319	-0.176
-204.392	-51.158	-0.159	-0.074
-203.377	133.987	0.031	-0.040
-202.363	-25.132	0.261	-0.155
-201.348	800.000	-0.042	-0.123
-200.333	800.000	-0.058	0.204
-199.319	-200.000	0.006	0.575
-198.304	145.821	-0.035	0.047
-197.290	49.652	0.289	-0.272
-196.275	-200.000	-0.000	0.340
-195.260	-105.063	0.145	0.033
-194.246	-158.934	0.237	0.014
-193.231	101.996	0.251	0.293
-192.217	-51.200	-0.225	0.105
-191.202	-200.000	0.006	-0.069
-190.187	-32.385	0.513	0.286
-189.173	343.769	0.020	0.039
-188.158	-77.872	0.252	-0.087
-187.144	-30.144	-0.072	-0.041
-186.129	-200.000	0.021	-0.293
-185.114	-93.418	0.232	0.064
-184.100	-42.321	-0.314	0.160
-183.085	-18.453	-0.184	0.115
-182.071	-77.687	0.409	0.142
-181.056	-1.850	0.187	-0.132
-180.042	-200.000	0.025	-0.353
-179.027	27.252	0.113	-0.095
-178.012	-14.078	-0.419	-0.271
-176.998	-200.000	0.007	0.225
-175.983	-200.000	0.010	-0.267
-174.969	236.455	0.117	-0.194
-173.954	-178.480	-0.192	-0.004
-172.939	-200.000	-0.007	-0.049
-171.925	258.645	-0.153	-0.263
-170.910	283.146	0.032	-0.057
-169.896	-200.000	-0.038	0.199
-168.881	64.504	0.187	-0.188
-167.866	-14.931	-0.414	0.265
-166.852	-128.792	-0.214	-0.030
-165.837	-200.000	-0.010	-0.081
-164.823	350.998	-0.123	-0.244
-163.808	-101.076	-0.167	0.041
-162.793	-200.000	-0.019	-0.155
-161.779	-120.248	-0.423	-0.072
-160.764	800.000	-0.082	0.245
-159.750	-95.585	0.221	0.059
-158.735	142.882	-0.302	-0.402
-157.720	-200.000	-0.001	-0.052
-156.706	-101.089	-0.268	-0.066
-155.691	-57.144	0.355	-0.156
-154.677	110.335	-0.060	0.072
-153.662	82.389	-0.229	0.249
-152.647	-200.000	0.030	0.178
-151.633	19.884	-0.168	-0.135
-150.618	168.276	-0.159	0.226
-149.604	14.522	0.214	-0.167
-148.589	214.290	-0.058	-0.092
-147.574	-11.596	0.013	0.009
-146.560	603.697	-0.057	0.143
-145.545	-7.035	-0.296	-0.201
-144.531	-200.000	0.011	0.135
-143.516	59.829	0.272	-0.268
-142.502	-200.000	0.011	0.106
-141.487	-161.302	-0.338	0.018
-140.472	-176.675	-0.199	-0.005
-139.458	-200.000	0.047	-0.226
-138.443	-26.590	0.256	-0.149
-137.429	-200.000	0.003	0.121
-136.414	-155.796	0.253	0.016
-135.399	-200.000	-0.009	0.273
-134.385	-38.520	0.044	0.023
-133.370	800.000	0.057	-0.162
-132.356	713.982	-0.048	-0.126
-131.341	-200.000	0.000	0.138
-130.326	-113.529	0.072	-0.014
-129.312	-72.910	-0.108	0.039
-128.297	-158.604	0.275	0.016
-127.283	-58.489	0.096	0.041
-126.268	398.259	0.238	-0.497
-125.253	-200.000	-0.046	-0.202
-124.239	16.162	0.181	-0.143
-123.224	61.002	0.105	0.104
-122.210	36.312	-0.205	0.180
-121.195	496.563	-0.111	0.254
-120.180	-69.045	-0.163	-0.062
-119.166	-200.000	-0.002	-0.058
-118.151	51.741	-0.072	-0.068
-117.137	42.111	0.267	0.242
-116.122	800.000	0.076	0.250
-115.107	-117.734	0.226	-0.041
-114.093	624.777	0.229	-0.575
-113.078	-200.000	-0.030	-0.142
-112.064	24.421	-0.082	0.068
-111.049	-24.100	0.121	-0.072
-110.034	243.354	-0.094	0.157
-109.020	-96.780	0.101	0.027
-108.005	-200.000	-0.046	-0.315
-106.991	110.279	-0.033	-0.039
-105.976	-80.649	0.196	-0.065
-104.962	191.004	-0.200	-0.299
-103.947	434.155	0.050	0.108
-102.932	124.314	-0.082	0.103
-101.918	800.000	0.128	-0.382
-100.903	79.843	-0.136	0.145
-99.889	-77.775	0.040	0.014
-98.874	77.678	-0.050	-0.053
-97.859	-81.499	0.355	0.116
-96.845	198.707	-0.215	-0.328
-95.830	-33.915	0.239	0.131
-94.816	784.791	0.048	-0.131
-93.801	404.569	-0.146	-0.306
-92.786	-66.122	-0.283	0.113
-91.772	23.486	0.096	-0.079
-90.757	-73.819	0.382	-0.138
-89.743	57.293	0.061	0.059
-88.728	-179.292	0.323	0.007
-87.713	83.967	0.391	0.425
-86.699	516.221	0.083	0.193
-85.684	190.263	-0.072	0.108
-84.670	372.926	0.054	-0.109
-83.655	-200.000	-0.020	-0.095
-82.640	800.000	0.041	0.141
-81.626	-46.561	0.299	-0.146
-80.611	135.847	0.083	-0.108
-79.597	-200.000	0.002	0.097
-78.582	800.000	-0.097	-0.311
-77.567	-200.000	-0.063	-0.316
-76.553	385.095	-0.016	-0.033
-75.538	-200.000	0.004	0.136
-74.524	-200.000	-0.022	0.165
-73.509	-153.070	0.321	0.023
-72.494	50.182	-0.147	0.138
-71.480	-70.417	0.120	-0.045
-70.465	80.950	0.158	0.169
-69.451	51.363	0.202	0.191
-68.436	-53.949	0.163	0.074
-67.422	-83.258	-0.094	0.030
-66.407	-68.675	-0.298	0.115
-65.392	139.855	-0.028	-0.037
-64.378	-48.161	0.280	-0.134
-63.363	-160.619	0.225	-0.012
-62.349	800.000	-0.151	0.508
-61.334	-26.759	-1.195	-0.696
-60.319	-141.593	0.424	-0.043
-59.305	681.532	-0.273	-0.708
-58.290	138.451	0.677	0.885
-57.276	800.000	0.456	1.555
-56.261	-200.000	89.253	499.475
-55.246	419.071	1429.021	3042.486
-54.232	140.012	2646.299	3471.653
-53.217	99.926	2397.837	2764.744
-52.203	42.602	2134.308	1932.885
-51.188	38.266	2043.152	1810.211
-50.173	36.782	2024.178	1779.701
-49.159	49.681	2070.644	1940.741
-48.144	52.565	2090.055	1985.701
-47.130	39.219	2050.306	1825.111
-46.115	36.742	2038.887	1791.970
-45.100	36.764	2035.117	1788.794
-44.086	36.578	2033.605	1785.675
-43.071	36.586	2030.278	1782.761
-42.057	36.498	2028.557	1780.361
-41.042	36.518	2026.800	1778.930
-40.027	36.573	2024.832	1777.639
-39.013	36.655	2022.051	1775.880
-37.998	36.595	2020.799	1774.164
-36.984	36.588	2018.377	1771.905
-35.969	36.611	2016.672	1770.547
-34.954	36.660	2014.371	1768.899
-33.940	36.625	2014.034	1768.213
-32.925	36.781	2011.672	1767.500
-31.911	36.733	2010.155	1765.660
-30.896	36.709	2008.721	1764.104
-29.881	36.724	2006.738	1762.436
-28.867	36.804	2004.349	1760.991
-27.852	36.775	2003.238	1759.685
-26.838	36.795	2000.731	1757.589
-25.823	36.737	1999.108	1755.569
-24.809	36.686	1997.511	1753.633
-23.794	36.683	1995.821	1752.059
-22.779	36.716	1993.671	1750.401
-21.765	36.698	1992.510	1749.144
-20.750	36.669	1990.691	1747.216
-19.736	36.714	1989.152	1746.203
-18.721	36.704	1987.367	1744.480
-17.706	36.675	1985.789	1742.759
-16.692	36.551	1984.556	1740.490
-15.677	36.745	1982.068	1739.985
-14.663	36.728	1981.226	1739.024
-13.648	36.827	1979.266	1738.126
-12.633	36.728	1978.458	1736.464
-11.619	36.693	1977.380	1735.130
-10.604	36.647	1976.156	1733.573
-9.590	36.652	1974.638	1732.218
-8.575	36.706	1973.018	1731.209
-7.560	36.633	1971.932	1729.536
-6.546	36.664	1970.402	1728.406
-5.531	36.705	1968.950	1727.427
-4.517	36.665	1967.992	1726.163
-3.502	36.697	1966.104	1724.727
-2.487	36.679	1964.912	1723.448
-1.473	36.755	1964.227	1723.461
-0.458	36.792	1960.904	1720.801
0.556	35.485	1941.512	1696.921
1.571	31.510	1921.824	1644.699
2.586	27.026	1942.856	1622.591
3.600	25.282	1979.085	1636.805
4.615	24.326	1974.604	1624.251
5.629	18.757	1868.891	1489.011
6.644	7.628	1740.034	1295.899
7.659	1.182	1695.833	1211.505
8.673	0.508	1692.054	1203.326
9.688	0.428	1690.156	1201.232
10.702	0.334	1689.444	1199.867
11.717	0.320	1685.921	1197.146
12.731	0.755	1686.478	1200.892
13.746	8.066	1703.016	1271.041
14.761	16.630	1719.333	1351.790
15.775	18.365	1719.796	1365.888
16.790	17.286	1716.155	1354.281
17.804	16.179	1713.447	1343.213
18.819	15.222	1709.737	1332.579
19.834	14.604	1707.066	1325.474
20.848	14.286	1705.654	1321.738
21.863	14.010	1703.629	1317.861
22.877	13.722	1702.707	1314.754
23.892	13.453	1701.273	1311.394
24.907	13.479	1699.769	1310.328
25.921	13.407	1699.017	1309.057
26.936	13.424	1697.778	1308.124
27.950	13.456	1696.962	1307.635
28.965	13.509	1696.413	1307.510
29.980	13.506	1695.680	1306.806
30.994	13.528	1694.653	1306.079
32.009	13.502	1694.314	1305.490
33.023	13.642	1692.564	1305.129
34.038	13.651	1692.208	1304.816
35.053	13.583	1691.358	1303.503
36.067	13.620	1689.985	1302.622
37.082	13.573	1688.664	1301.119
38.096	13.641	1687.382	1300.554
39.111	13.556	1687.137	1299.581
40.126	13.619	1686.368	1299.367
41.140	13.567	1685.249	1297.984
42.155	13.548	1683.688	1296.517
43.169	13.426	1682.592	1294.609
44.184	13.377	1681.312	1293.123
45.199	13.385	1680.342	1292.328
46.213	13.422	1678.735	1291.264
47.228	13.422	1677.505	1290.200
48.242	13.487	1676.398	1289.744
49.257	13.451	1675.772	1288.865
50.271	13.564	1674.118	1288.363
51.286	13.541	1673.019	1287.219
52.301	13.591	1671.292	1286.170
53.315	13.472	1670.235	1284.318
54.330	13.497	1668.909	1283.377
55.344	13.471	1667.249	1281.789
56.359	13.427	1665.200	1279.756
57.374	13.488	1664.141	1279.301
58.388	13.422	1663.282	1278.022
59.403	13.457	1661.841	1277.071
60.417	13.358	1660.647	1275.277
61.432	13.454	1658.952	1274.598
62.447	13.381	1658.128	1273.293
63.461	13.306	1656.748	1271.546
64.476	13.294	1655.875	1270.668
65.490	13.315	1654.995	1270.040
66.505	13.351	1653.124	1268.773
67.520	13.383	1652.202	1268.198
68.534	13.278	1651.667	1266.865
69.549	13.301	1650.311	1265.889
70.563	13.371	1649.310	1265.548
71.578	13.287	1648.401	1264.095
72.593	13.306	1646.905	1262.983
73.607	13.332	1645.614	1262.081
74.622	13.216	1644.887	1260.527
75.636	13.205	1643.925	1259.588
76.651	13.240	1642.278	1258.484
77.666	13.260	1641.145	1257.653
78.680	13.266	1640.381	1257.009
79.695	13.215	1639.706	1255.992
80.709	13.347	1638.195	1255.724
81.724	13.230	1637.735	1254.369
82.739	13.295	1636.900	1254.112
83.753	13.312	1635.897	1253.364
84.768	13.378	1634.803	1252.911
85.782	13.462	1633.881	1252.729
86.797	13.548	1633.162	1252.722
87.812	13.572	1632.077	1251.957
88.826	13.514	1630.661	1250.325
89.841	13.513	1629.735	1249.499
90.855	13.480	1628.547	1248.223
91.870	13.450	1627.545	1247.119
92.884	13.513	1626.683	1246.825
93.899	13.493	1625.829	1245.910
94.914	13.545	1624.107	1244.867
95.928	13.557	1622.864	1243.899
96.943	13.575	1621.422	1242.820
97.957	13.553	1620.152	1241.572
98.972	13.583	1619.019	1240.816
99.987	13.560	1617.155	1239.107
101.001	13.515	1616.278	1237.984
102.016	13.575	1614.195	1236.730
103.030	13.570	1613.090	1235.738
104.045	13.607	1611.448	1234.644
105.060	13.545	1610.108	1233.045
106.074	13.541	1608.525	1231.695
107.089	13.447	1607.046	1229.755
108.103	13.444	1605.637	1228.548
109.118	13.409	1603.834	1226.799
110.133	13.383	1602.577	1225.536
111.147	13.311	1601.444	1224.028
112.162	13.337	1600.092	1223.081
113.176	13.401	1598.208	1222.006
114.191	13.358	1597.672	1221.172
115.206	13.423	1595.780	1220.095
116.220	13.464	1594.651	1219.428
117.235	13.486	1593.361	1218.490
118.249	13.408	1592.403	1217.078
119.264	13.385	1590.831	1215.597
120.279	13.475	1588.995	1214.750
121.293	13.460	1587.567	1213.444
122.308	13.400	1586.512	1212.092
123.322	13.412	1584.244	1210.334
124.337	13.382	1583.550	1209.478
125.352	13.322	1582.368	1208.033
126.366	13.337	1581.282	1207.207
127.381	13.331	1579.969	1206.053
128.395	13.371	1578.977	1205.479
129.410	13.390	1577.432	1204.331
130.424	13.454	1576.411	1203.910
131.439	13.416	1574.515	1202.080
132.454	13.406	1573.227	1200.919
133.468	13.463	1571.347	1199.792
134.483	13.576	1569.914	1199.410
135.497	13.600	1567.816	1197.873
136.512	13.532	1567.337	1196.911
137.527	13.539	1566.001	1195.834
138.541	13.493	1565.052	1194.674
139.556	13.523	1563.399	1193.523
140.570	13.585	1562.014	1192.801
141.585	13.546	1560.633	1191.364
142.600	13.575	1559.477	1190.586
143.614	13.649	1558.007	1189.885
144.629	13.685	1556.812	1189.123
145.643	13.744	1554.717	1187.847
146.658	13.752	1553.856	1187.140
147.673	13.675	1552.374	1185.353
148.687	13.630	1550.727	1183.666
149.702	13.577	1549.356	1182.138
150.716	13.585	1547.616	1180.760
151.731	13.588	1546.308	1179.679
152.746	13.538	1545.019	1178.236
153.760	13.675	1543.316	1177.809
154.775	13.589	1542.245	1176.279
155.789	13.634	1540.822	1175.408
156.804	13.678	1539.865	1174.884
157.819	13.701	1538.627	1173.997
158.833	13.687	1537.582	1172.996
159.848	13.782	1535.950	1172.319
160.862	13.815	1534.774	1171.552
161.877	13.805	1533.697	1170.558
162.892	13.851	1532.553	1169.906
163.906	13.729	1531.122	1167.846
164.921	13.697	1529.890	1166.577
165.935	13.699	1529.126	1165.909
166.950	13.758	1527.698	1165.129
167.964	13.816	1526.525	1164.542
168.979	13.663	1525.888	1162.882
169.994	13.754	1524.362	1162.251
171.008	13.815	1523.287	1161.756
172.023	13.760	1522.415	1160.600
173.037	13.840	1521.183	1160.120
174.052	13.909	1519.886	1159.510
175.067	13.958	1518.702	1158.846
176.081	13.947	1517.645	1157.862
177.096	13.830	1516.094	1155.757
178.110	13.860	1514.917	1154.967
179.125	13.917	1513.684	1154.322
180.140	13.912	1512.840	1153.540
181.154	13.905	1511.352	1152.259
182.169	13.891	1510.338	1151.283
183.183	13.877	1509.552	1150.489
184.198	13.913	1508.431	1149.782
185.213	14.015	1507.028	1149.315
186.227	14.031	1505.890	1148.458
187.242	14.015	1505.469	1147.922
188.256	14.062	1503.803	1146.872
189.271	14.111	1503.029	1146.521
190.286	14.104	1501.584	1145.266
191.300	14.058	1500.874	1144.312
192.315	13.947	1499.513	1142.408
193.329	13.963	1497.966	1141.240
194.344	13.867	1496.759	1139.559
195.359	13.876	1496.096	1139.011
196.373	13.944	1494.661	1138.289
197.388	14.003	1494.074	1138.140
198.402	14.068	1492.833	1137.538
199.417	14.192	1491.450	1137.234
200.432	14.130	1491.255	1136.565
201.446	14.193	1489.748	1135.739
202.461	14.274	1488.284	1135.075
203.475	14.233	1487.066	1133.767
204.490	14.261	1486.387	1133.342
205.504	14.291	1485.321	1132.634
206.519	14.265	1483.958	1131.317
207.534	14.292	1482.643	1130.398
208.548	14.301	1481.763	1129.689
209.563	14.233	1480.668	1128.295
210.577	14.244	1479.837	1127.630
211.592	14.237	1478.997	1126.849
212.607	14.261	1478.035	1126.179
213.621	14.361	1477.130	1126.060
214.636	14.472	1475.871	1125.751
215.650	14.453	1475.186	1125.000
216.665	14.310	1474.772	1123.624
217.680	14.413	1473.528	1123.266
218.694	14.464	1472.680	1122.865
219.709	14.460	1472.277	1122.432
220.723	14.538	1470.987	1121.873
221.738	14.467	1470.092	1120.618
222.753	14.499	1469.171	1120.031
223.767	14.485	1468.321	1119.189
224.782	14.499	1467.318	1118.418
225.796	14.537	1465.948	1117.532
226.811	14.610	1465.280	1117.411
227.826	14.596	1464.829	1116.874
228.840	14.639	1463.409	1115.980
229.855	14.572	1462.998	1115.119
230.869	14.528	1462.150	1114.080
231.884	14.556	1460.786	1113.128
232.899	14.528	1459.703	1112.023
233.913	14.525	1458.706	1111.145
234.928	14.540	1457.226	1110.016
235.942	14.516	1456.651	1109.319
236.957	14.511	1455.253	1108.125
237.972	14.567	1453.641	1107.174
238.986	14.605	1452.686	1106.597
240.001	14.569	1451.672	1105.489
241.015	14.690	1450.372	1105.200
242.030	14.609	1449.621	1103.999
243.045	14.647	1448.679	1103.434
244.059	14.707	1447.573	1102.889
245.074	14.687	1446.637	1101.946
246.088	14.731	1446.216	1101.819
247.103	14.700	1445.616	1101.061
248.117	14.697	1444.771	1100.297
249.132	14.778	1443.277	1099.599
250.147	14.799	1442.887	1099.342
251.161	14.885	1442.664	1099.638
252.176	15.024	1441.680	1099.702
253.190	15.018	1440.808	1098.900
254.205	15.019	1439.877	1098.101
255.220	15.076	1439.116	1097.798
256.234	15.054	1438.729	1097.260
257.249	15.061	1437.462	1096.245
258.263	15.115	1436.361	1095.659
259.278	15.190	1435.412	1095.330
260.293	15.117	1434.659	1094.184
261.307	15.099	1433.878	1093.375
262.322	15.163	1433.442	1093.359
263.336	15.261	1432.174	1092.936
264.351	15.236	1431.502	1092.163
265.366	15.382	1429.806	1091.725
266.380	15.252	1429.424	1090.491
267.395	15.286	1428.692	1090.053
268.409	15.343	1427.532	1089.441
269.424	15.378	1426.424	1088.728
270.439	15.246	1425.836	1087.329
271.453	15.327	1424.766	1086.941
272.468	15.287	1423.849	1085.882
273.482	15.260	1423.239	1085.152
274.497	15.250	1422.191	1084.191
275.512	15.319	1421.260	1083.830
276.526	15.303	1420.250	1082.859
277.541	15.352	1419.125	1082.220
278.555	15.297	1418.887	1081.592
279.570	15.268	1418.103	1080.710
280.585	15.366	1416.730	1080.198
281.599	15.515	1415.341	1080.001
282.614	15.449	1414.865	1079.123
283.628	15.475	1413.667	1078.281
284.643	15.450	1412.711	1077.294
285.657	15.515	1411.585	1076.756
286.672	15.521	1410.620	1075.964
287.687	15.451	1409.684	1074.705
288.701	15.509	1408.635	1074.179
289.716	15.484	1408.008	1073.448
290.730	15.585	1407.050	1073.271
291.745	15.557	1405.787	1072.032
292.760	15.551	1404.868	1071.199
293.774	15.589	1404.001	1070.682
294.789	15.592	1402.791	1069.686
295.803	15.655	1402.121	1069.481
296.818	15.681	1401.280	1068.913
297.833	15.654	1400.542	1068.080
298.847	15.649	1399.444	1067.118
299.862	15.666	1398.379	1066.316
300.876	15.651	1397.327	1065.324
301.891	15.685	1396.752	1065.010
302.906	15.718	1395.943	1064.508
303.920	15.722	1395.287	1063.936
304.935	15.727	1394.289	1063.113
305.949	15.758	1393.487	1062.606
306.964	15.830	1392.326	1062.078
307.979	15.884	1391.681	1061.832
308.993	15.897	1390.517	1060.934
310.008	15.867	1389.543	1059.911
311.022	15.867	1388.886	1059.316
312.037	15.987	1387.741	1059.103
313.052	15.862	1386.884	1057.570
314.066	15.949	1385.560	1057.011
315.081	15.901	1384.827	1056.055
316.095	15.857	1383.958	1055.026
317.110	15.834	1382.600	1053.752
318.125	15.882	1381.674	1053.254
319.139	15.833	1381.309	1052.575
320.154	15.943	1380.176	1052.307
321.168	15.830	1379.032	1050.637
322.183	15.904	1378.208	1050.377
323.197	15.982	1376.734	1049.650
324.212	15.945	1376.131	1048.865
325.227	16.015	1375.502	1048.725
326.241	15.965	1374.527	1047.581
327.256	15.979	1373.720	1046.961
328.270	16.058	1372.805	1046.657
329.285	16.039	1371.552	1045.493
330.300	15.850	1371.352	1044.078
331.314	16.036	1369.970	1044.084
332.329	16.025	1369.172	1043.316
333.343	16.090	1368.177	1042.865
334.358	15.979	1367.648	1041.684
335.373	16.011	1367.290	1041.518
336.387	16.134	1365.808	1041.059
337.402	16.147	1365.120	1040.523
338.416	16.160	1364.456	1040.005
339.431	16.123	1364.067	1039.385
340.446	16.240	1363.064	1039.251
341.460	16.324	1361.695	1038.633
342.475	16.246	1361.147	1037.643
343.489	16.320	1360.305	1037.360
344.504	16.351	1359.204	1036.622
345.519	16.391	1358.173	1035.992
346.533	16.354	1357.417	1035.092
347.548	16.454	1356.242	1034.722
348.562	16.453	1355.386	1033.967
349.577	16.487	1354.876	1033.698
350.592	16.395	1354.531	1032.779
351.606	16.373	1353.964	1032.118
352.621	16.409	1352.209	1030.909
353.635	16.354	1351.116	1029.654
354.650	16.245	1350.466	1028.400
355.665	16.457	1349.376	1028.771
356.679	16.401	1348.097	1027.364
357.694	16.396	1346.736	1026.204
358.708	16.420	1346.004	1025.702
359.723	16.459	1344.868	1024.982
360.738	16.400	1344.139	1023.977
361.752	16.602	1342.883	1024.150
362.767	16.663	1341.506	1023.384
363.781	16.535	1340.465	1021.722
364.796	16.651	1339.896	1021.899
365.810	16.574	1339.036	1020.691
366.825	16.588	1338.588	1020.343
367.840	16.714	1337.667	1020.309
368.854	16.740	1337.135	1019.970
369.869	16.731	1336.733	1019.521
370.883	16.752	1336.052	1019.035
371.898	16.743	1335.231	1018.265
372.913	16.745	1334.490	1017.622
373.927	16.748	1333.699	1016.946
374.942	16.760	1332.692	1016.159
375.956	16.780	1331.872	1015.566
376.971	16.820	1331.465	1015.403
377.986	16.783	1330.405	1014.287
379.000	16.754	1329.668	1013.462
380.015	16.918	1328.467	1013.433
381.029	16.925	1327.800	1012.876
382.044	16.944	1327.161	1012.417
383.059	16.924	1326.597	1011.774
384.073	16.972	1325.746	1011.321
385.088	16.945	1325.146	1010.615
386.102	16.950	1324.685	1010.202
387.117	16.992	1323.796	1009.687
388.132	17.055	1322.800	1009.211
389.146	16.937	1321.828	1007.679
390.161	17.023	1321.066	1007.523
391.175	16.977	1320.426	1006.667
392.190	16.948	1319.562	1005.753
393.205	17.009	1318.735	1005.390
394.219	17.093	1317.718	1005.027
395.234	17.164	1316.111	1004.128
396.248	17.124	1315.089	1003.024
397.263	17.120	1313.815	1001.941
398.278	17.163	1312.570	1001.155
399.292	17.081	1311.585	999.832
400.307	17.052	1310.697	998.897
401.321	17.101	1309.458	998.155
402.336	17.160	1308.307	997.535
403.350	17.192	1306.866	996.534
404.365	17.004	1306.497	995.062
405.380	17.151	1305.785	995.296
406.394	17.124	1304.920	994.387
407.409	17.158	1304.083	993.860
408.423	17.266	1303.265	993.785
409.438	17.164	1302.877	992.803
410.453	17.364	1301.878	993.123
411.467	17.328	1301.164	992.278
412.482	17.298	1300.924	991.830
413.496	17.373	1300.005	991.482
414.511	17.447	1299.154	991.178
415.526	17.481	1297.980	990.388
416.540	17.349	1297.657	989.291
417.555	17.428	1297.098	989.236
418.569	17.550	1295.893	988.934
419.584	17.519	1295.801	988.600
420.599	17.570	1295.094	988.264
421.613	87.258	1341.309	1423.629
422.628	85.998	1348.049	1423.761
