DTS Sentinel unit serial number:	SN413079Multiplexer serial number:	ORYXHardware model number:	OX4-SRSoftware version number:	ORYX F/W v4.00 Oryx Data Collector v3.7.2.0data status	okinstallation	princeton_trtdifferential loss correction	single-endedforward channel	channel 4reverse channel	N/Adate	2019/09/15time	08:09:34forward acquisition time	60.00reverse acquisition time	0.00gamma	496.2192k internal	0.2309k external	0.2309temperature offset calibration	1.0030default loss term (dB/km)	0.3790temperature slope calibration	1.0000multiplexer offset coefficient	1.0000multiplexer slope coefficient	1.0000fibre end	0.00T internal ref (°C)	30.94T ext. ref 1 (°C)	4.99T ext. ref 2 (°C)	27.49length (m)	temperature (°C)	Stokes	anti-Stokes-747.200	136.902	0.057	0.076
-746.185	800.000	-0.057	0.168
-745.171	18.231	-0.228	0.185
-744.156	-200.000	0.024	0.617
-743.142	50.310	-0.237	0.228
-742.127	87.642	0.064	-0.072
-741.112	-47.029	0.226	0.112
-740.098	129.949	0.114	0.148
-739.083	-200.000	0.030	0.409
-738.069	282.848	-0.067	0.122
-737.054	261.215	0.045	-0.079
-736.039	-42.182	-0.284	-0.147
-735.025	800.000	0.072	0.254
-734.010	169.304	-0.111	-0.160
-732.996	-55.552	-0.175	-0.080
-731.981	88.020	0.108	-0.121
-730.966	-96.268	-0.290	0.078
-729.952	-126.790	-0.123	-0.018
-728.937	-135.299	-0.271	-0.033
-727.923	-35.148	0.107	0.059
-726.908	249.958	-0.223	0.384
-725.894	236.073	-0.029	0.048
-724.879	800.000	-0.079	-0.229
-723.864	87.483	0.303	0.340
-722.850	-200.000	-0.008	0.065
-721.835	800.000	-0.091	-0.402
-720.821	85.541	-0.141	-0.157
-719.806	438.092	0.023	-0.050
-718.791	-5.238	0.152	-0.106
-717.777	-81.098	-0.208	0.070
-716.762	-50.631	-0.236	-0.113
-715.748	-70.832	0.293	-0.112
-714.733	-200.000	-0.007	-0.301
-713.718	647.225	0.067	-0.175
-712.704	-28.245	0.149	-0.087
-711.689	-74.740	0.096	-0.035
-710.675	-13.210	-0.229	-0.151
-709.660	41.405	-0.265	0.244
-708.645	-159.007	0.255	0.015
-707.631	-52.274	-0.329	-0.155
-706.616	-111.782	0.121	-0.025
-705.602	-200.000	-0.003	-0.169
-704.587	-200.000	0.004	0.148
-703.572	-200.000	-0.009	-0.100
-702.558	722.127	0.083	0.223
-701.543	486.335	-0.116	0.268
-700.529	-175.100	0.038	-0.001
-699.514	-200.000	-0.099	0.000
-698.499	-61.829	-0.052	0.022
-697.485	-76.237	-0.086	0.031
-696.470	-200.000	0.035	0.221
-695.456	800.000	0.093	0.263
-694.441	-18.274	-0.351	0.222
-693.426	54.975	0.158	-0.155
-692.412	315.481	-0.092	-0.177
-691.397	800.000	-0.034	-0.097
-690.383	143.763	-0.044	0.059
-689.368	-113.087	0.413	-0.083
-688.354	-57.290	0.208	-0.093
-687.339	-179.707	-0.209	0.005
-686.324	-151.319	0.430	-0.032
-685.310	20.698	-0.014	-0.011
-684.295	152.515	0.292	-0.404
-683.281	-200.000	0.065	-0.348
-682.266	-200.000	0.052	-0.356
-681.251	-88.185	0.205	0.062
-680.237	-60.307	0.049	0.021
-679.222	-92.932	0.314	-0.089
-678.208	-42.056	0.208	-0.108
-677.193	800.000	0.034	-0.109
-676.178	322.363	0.078	-0.150
-675.164	27.672	0.248	0.212
-674.149	-64.872	0.095	-0.039
-673.135	-42.109	-0.171	0.088
-672.120	-7.673	-0.245	-0.168
-671.105	-96.193	0.288	0.078
-670.091	-200.000	0.020	0.096
-669.076	145.862	-0.017	-0.023
-668.062	546.460	-0.050	0.121
-667.047	-124.409	0.174	-0.027
-666.032	-62.269	0.116	-0.049
-665.018	473.723	-0.114	-0.261
-664.003	6.067	-0.121	0.091
-662.989	-116.287	-0.164	-0.031
-661.974	387.505	0.047	-0.099
-660.959	800.000	0.092	0.272
-659.945	31.152	-0.167	-0.145
-658.930	203.231	-0.057	0.090
-657.916	-200.000	-0.003	0.135
-656.901	-98.256	0.113	0.029
-655.886	-5.280	0.211	0.147
-654.872	38.460	0.101	0.091
-653.857	-142.384	-0.344	0.034
-652.843	103.446	-0.101	0.120
-651.828	800.000	0.035	-0.148
-650.814	201.915	0.022	-0.035
-649.799	-200.000	0.004	0.078
-648.784	307.703	0.106	-0.200
-647.770	800.000	-0.041	0.178
-646.755	7.525	-0.099	0.075
-645.741	-156.765	-0.319	-0.020
-644.726	-170.366	0.138	-0.005
-643.711	397.463	0.050	-0.106
-642.697	-112.153	0.453	-0.092
-641.682	6.613	-0.374	0.282
-640.668	185.971	0.272	-0.409
-639.653	-177.385	-0.261	0.006
-638.638	158.504	-0.099	0.139
-637.624	-33.394	0.156	-0.087
-636.609	-145.866	0.172	-0.015
-635.595	385.428	-0.148	-0.308
-634.580	33.387	-0.123	-0.108
-633.565	-92.964	0.136	0.038
-632.551	-8.198	-0.318	0.217
-631.536	-82.706	-0.202	-0.066
-630.522	173.122	0.106	-0.155
-629.507	74.386	0.327	0.348
-628.492	-180.011	0.179	0.004
-627.478	78.170	0.088	-0.095
-626.463	202.872	0.072	-0.112
-625.449	-14.966	-0.109	0.071
-624.434	-94.691	-0.410	-0.113
-623.419	146.342	-0.104	-0.141
-622.405	800.000	-0.101	-0.290
-621.390	-57.939	-0.242	0.107
-620.376	-12.479	0.129	0.085
-619.361	-89.640	0.101	0.030
-618.346	48.099	-0.064	-0.060
-617.332	-39.327	0.188	-0.099
-616.317	140.290	0.062	0.082
-615.303	4.179	-0.236	0.175
-614.288	62.549	-0.226	-0.228
-613.273	631.771	-0.038	-0.098
-612.259	-200.000	-0.040	0.182
-611.244	221.040	-0.151	0.245
-610.230	403.112	-0.104	0.221
-609.215	-58.291	0.196	0.086
-608.201	-75.151	0.164	0.059
-607.186	265.202	0.045	-0.080
-606.171	-191.636	-0.193	-0.002
-605.157	800.000	0.060	0.244
-604.142	62.739	-0.132	-0.133
-603.128	3.710	0.203	-0.149
-602.113	-108.201	0.404	0.088
-601.098	-22.560	0.317	-0.194
-600.084	800.000	-0.037	-0.121
-599.069	-30.591	-0.259	0.148
-598.055	-200.000	0.023	0.106
-597.040	800.000	-0.097	-0.283
-596.025	-95.808	-0.088	0.024
-595.011	-34.310	-0.324	0.179
-593.996	800.000	0.109	0.364
-592.982	259.436	0.197	-0.344
-591.967	-0.090	0.199	0.143
-590.952	7.415	-0.147	-0.111
-589.938	583.746	-0.133	-0.331
-588.923	-124.665	-0.447	-0.070
-587.909	-87.079	0.255	-0.078
-586.894	-79.473	-0.128	0.044
-585.879	-167.283	-0.160	-0.007
-584.865	800.000	0.078	-0.311
-583.850	-115.632	-0.275	-0.052
-582.836	254.590	0.171	-0.296
-581.821	77.812	0.050	0.054
-580.806	373.350	-0.205	-0.420
-579.792	78.147	0.169	-0.182
-578.777	800.000	0.049	-0.162
-577.763	-92.867	-0.364	0.103
-576.748	-200.000	-0.011	0.294
-575.733	-134.291	-0.170	0.021
-574.719	-18.541	-0.288	0.181
-573.704	-86.516	0.148	-0.046
-572.690	-200.000	0.043	0.271
-571.675	253.124	0.149	0.256
-570.661	-64.475	0.139	0.057
-569.646	-200.000	0.015	0.209
-568.631	114.765	-0.107	0.132
-567.617	-139.108	-0.216	0.024
-566.602	800.000	-0.061	-0.250
-565.588	-87.077	-0.216	-0.066
-564.573	800.000	-0.056	-0.164
-563.558	66.339	0.177	0.181
-562.544	800.000	-0.018	-0.075
-561.529	-91.987	-0.030	0.009
-560.515	-75.728	0.172	-0.061
-559.500	381.170	0.090	-0.186
-558.485	-115.470	-0.086	-0.016
-557.471	-200.000	-0.004	-0.133
-556.456	-200.000	0.046	0.235
-555.442	84.118	-0.194	-0.214
-554.427	-40.557	0.309	-0.162
-553.412	165.089	-0.026	-0.038
-552.398	-65.179	0.387	-0.157
-551.383	22.095	-0.022	0.018
-550.369	78.150	-0.080	0.086
-549.354	800.000	0.067	-0.276
-548.339	166.681	-0.193	0.276
-547.325	-200.000	-0.071	0.330
-546.310	100.913	-0.238	-0.280
-545.296	-200.000	0.033	-0.339
-544.281	-59.243	0.381	0.165
-543.266	-200.000	-0.050	0.310
-542.252	-118.622	0.348	0.062
-541.237	-73.219	-0.246	0.091
-540.223	-94.345	-0.372	-0.102
-539.208	-200.000	-0.021	-0.115
-538.193	-169.617	0.288	-0.011
-537.179	-61.399	-0.248	-0.105
-536.164	230.411	-0.191	0.315
-535.150	-94.155	-0.226	0.062
-534.135	112.171	0.266	0.324
-533.121	-68.956	0.180	0.070
-532.106	-200.000	-0.013	0.380
-531.091	211.382	0.101	0.160
-530.077	800.000	-0.064	0.234
-529.062	87.288	0.119	0.133
-528.048	-200.000	-0.017	0.167
-527.033	-179.945	0.275	0.006
-526.018	-32.259	-0.199	0.112
-525.004	-28.739	-0.120	-0.069
-523.989	-84.258	0.023	0.007
-522.975	175.819	0.157	-0.229
-521.960	32.777	0.306	-0.267
-520.945	134.229	0.173	-0.225
-519.931	-110.971	0.145	0.030
-518.916	-59.973	-0.088	0.038
-517.902	192.161	-0.167	-0.253
-516.887	-200.000	-0.003	0.121
-515.872	-200.000	0.030	0.456
-514.858	-200.000	-0.056	0.350
-513.843	173.504	0.099	0.144
-512.829	-93.383	0.106	-0.030
-511.814	-200.000	0.110	0.000
-510.799	350.186	0.095	-0.189
-509.785	-200.000	-0.014	0.076
-508.770	-200.000	0.003	0.245
-507.756	800.000	0.168	-0.540
-506.741	-89.082	-0.170	0.051
-505.726	800.000	0.070	-0.266
-504.712	101.748	-0.211	0.247
-503.697	-145.009	0.478	0.044
-502.683	800.000	-0.003	-0.010
-501.668	-41.450	-0.125	-0.065
-500.653	-74.354	-0.284	-0.103
-499.639	33.984	-0.175	0.154
-498.624	750.228	-0.079	0.214
-497.610	-200.000	-0.084	0.423
-496.595	-200.000	-0.030	0.425
-495.581	-134.804	0.273	0.033
-494.566	-87.665	0.245	-0.074
-493.551	-50.601	-0.045	-0.021
-492.537	-139.192	-0.152	-0.016
-491.522	-79.209	0.265	-0.091
-490.508	296.625	0.184	-0.339
-489.493	-100.928	-0.310	-0.077
-488.478	-200.000	-0.010	-0.326
-487.464	287.490	0.044	0.079
-486.449	0.921	0.249	0.180
-485.435	229.345	-0.156	-0.256
-484.420	-155.765	0.062	-0.004
-483.405	800.000	0.066	-0.185
-482.391	-126.905	0.118	0.017
-481.376	800.000	0.085	-0.320
-480.362	274.124	0.046	-0.082
-479.347	-200.000	0.001	0.156
-478.332	-108.336	-0.376	-0.082
-477.318	-45.723	-0.267	-0.133
-476.303	340.211	-0.203	0.398
-475.289	379.132	0.045	0.092
-474.274	307.815	-0.073	-0.136
-473.259	800.000	0.030	0.109
-472.245	-200.000	-0.031	0.000
-471.230	800.000	0.051	-0.209
-470.216	-0.609	-0.075	0.053
-469.201	-200.000	-0.017	0.204
-468.186	-153.497	-0.079	-0.005
-467.172	74.627	0.291	-0.307
-466.157	-137.563	-0.299	0.034
-465.143	-85.651	0.261	-0.081
-464.128	-200.000	0.013	-0.271
-463.113	253.364	-0.209	-0.359
-462.099	-98.930	-0.281	0.072
-461.084	10.358	-0.162	-0.124
-460.070	95.389	-0.151	-0.173
-459.055	-14.370	-0.287	0.186
-458.040	-200.000	0.004	-0.060
-457.026	34.259	0.142	0.124
-456.011	-200.000	0.012	-0.102
-454.997	800.000	-0.016	-0.046
-453.982	800.000	-0.033	-0.134
-452.968	-10.805	-0.205	-0.136
-451.953	20.668	-0.074	-0.060
-450.938	7.351	-0.095	-0.072
-449.924	719.395	-0.065	-0.174
-448.909	556.931	0.099	0.240
-447.895	69.997	0.134	-0.139
-446.880	-72.083	0.245	-0.091
-445.865	800.000	-0.093	0.300
-444.851	-200.000	0.047	0.222
-443.836	52.915	0.148	0.142
-442.822	-200.000	0.006	-0.192
-441.807	233.720	0.173	0.286
-440.792	571.754	-0.147	0.360
-439.778	-90.710	-0.124	0.036
-438.763	-200.000	-0.005	0.421
-437.749	-152.277	0.063	0.005
-436.734	141.994	0.254	-0.338
-435.719	38.506	0.225	-0.201
-434.705	27.905	-0.080	0.068
-433.690	-200.000	0.020	-0.174
-432.676	-27.603	-0.417	0.243
-431.661	800.000	0.047	-0.204
-430.646	-16.052	0.204	-0.130
-429.632	-200.000	0.007	0.033
-428.617	-200.000	0.043	-0.577
-427.603	-185.342	0.249	0.004
-426.588	-77.620	0.305	-0.106
-425.573	-200.000	-0.030	-0.146
-424.559	114.866	0.115	-0.141
-423.544	-200.000	-0.008	0.386
-422.530	71.497	0.071	-0.074
-421.515	-122.605	-0.551	-0.090
-420.500	-78.937	0.251	-0.086
-419.486	282.660	-0.238	0.428
-418.471	174.049	-0.119	0.173
-417.457	800.000	-0.052	0.185
-416.442	800.000	0.064	-0.250
-415.428	80.107	-0.110	0.118
-414.413	-200.000	0.056	0.296
-413.398	-138.622	0.136	0.015
-412.384	800.000	0.064	-0.208
-411.369	275.926	-0.146	-0.259
-410.355	-145.782	-0.203	-0.018
-409.340	-133.590	0.221	0.028
-408.325	266.922	0.133	0.234
-407.311	-41.076	0.124	-0.064
-406.296	-53.003	-0.146	0.067
-405.282	800.000	-0.049	-0.201
-404.267	-125.722	-0.259	-0.039
-403.252	130.166	0.183	0.235
-402.238	-17.109	0.215	0.136
-401.223	-47.442	0.215	0.105
-400.209	34.666	0.160	-0.140
-399.194	153.455	0.053	-0.073
-398.179	3.084	0.103	-0.075
-397.165	99.203	0.040	-0.046
-396.150	-141.661	0.147	0.015
-395.136	175.562	0.053	-0.077
-394.121	552.007	-0.059	0.141
-393.106	-200.000	0.015	0.121
-392.092	-122.709	0.188	0.031
-391.077	157.172	0.081	0.112
-390.063	-200.000	0.008	0.090
-389.048	0.180	-0.298	-0.213
-388.033	144.415	0.059	0.079
-387.019	135.521	-0.053	0.070
-386.004	800.000	-0.113	-0.478
-384.990	-37.896	0.313	0.167
-383.975	-200.000	-0.019	-0.159
-382.960	400.746	0.051	0.108
-381.946	-100.558	0.176	-0.043
-380.931	63.646	-0.160	0.161
-379.917	-13.117	0.134	0.087
-378.902	-200.000	-0.025	-0.272
-377.888	-148.019	-0.240	0.020
-376.873	-200.000	-0.004	-0.232
-375.858	-54.522	-0.237	-0.107
-374.844	18.785	0.156	-0.125
-373.829	-155.370	-0.105	0.007
-372.815	-200.000	-0.011	0.181
-371.800	148.487	0.188	0.254
-370.785	-200.000	-0.006	-0.102
-369.771	-185.636	-0.433	-0.007
-368.756	-100.243	-0.241	0.060
-367.742	-87.108	-0.092	0.028
-366.727	-130.650	0.355	-0.048
-365.712	-128.308	-0.291	0.041
-364.698	800.000	-0.054	0.233
-363.683	-100.309	-0.054	-0.014
-362.669	-179.718	-0.357	-0.008
-361.654	-61.294	0.339	-0.143
-360.639	-119.210	0.100	0.017
-359.625	-95.018	0.221	-0.060
-358.610	-123.090	-0.050	-0.008
-357.596	-30.604	-0.118	0.067
-356.581	800.000	0.022	0.088
-355.566	-14.368	0.259	-0.167
-354.552	-15.453	0.158	0.101
-353.537	-154.962	-0.135	0.009
-352.523	-183.209	-0.083	0.001
-351.508	291.437	-0.131	0.239
-350.493	157.614	0.102	-0.141
-349.479	-81.953	0.266	0.087
-348.464	-200.000	-0.012	0.166
-347.450	-20.670	0.242	0.149
-346.435	-200.000	0.019	0.105
-345.420	601.860	0.021	-0.052
-344.406	800.000	-0.094	-0.405
-343.391	0.878	0.062	-0.044
-342.377	93.163	0.261	0.296
-341.362	112.645	-0.046	0.055
-340.348	-17.927	-0.199	0.125
-339.333	141.654	-0.229	0.304
-338.318	-200.000	-0.032	0.509
-337.304	-200.000	-0.012	0.104
-336.289	-189.316	-0.276	0.003
-335.275	132.071	0.238	0.307
-334.260	-200.000	0.021	-0.099
-333.245	-17.450	-0.162	0.102
-332.231	-200.000	-0.030	-0.138
-331.216	-45.573	-0.199	-0.099
-330.202	46.333	0.096	0.089
-329.187	800.000	0.017	-0.075
-328.172	122.254	-0.106	0.133
-327.158	111.879	0.136	-0.164
-326.143	38.640	0.035	0.031
-325.129	2.817	0.123	0.089
-324.114	-200.000	-0.034	0.307
-323.099	-200.000	0.003	-0.096
-322.085	-200.000	0.027	0.382
-321.070	222.536	-0.055	0.088
-320.056	195.600	0.157	-0.239
-319.041	192.352	0.090	0.135
-318.026	800.000	-0.046	-0.141
-317.012	-112.083	0.192	-0.039
-315.997	-200.000	-0.053	0.461
-314.983	-200.000	-0.019	-0.205
-313.968	-146.304	-0.224	-0.020
-312.953	189.164	-0.092	-0.138
-311.939	510.972	0.077	-0.179
-310.924	620.622	0.155	0.389
-309.910	-200.000	0.009	0.084
-308.895	-43.404	0.071	0.036
-307.880	-139.327	0.159	-0.017
-306.866	-18.919	0.218	0.136
-305.851	-200.000	-0.013	0.066
-304.837	800.000	-0.067	0.203
-303.822	11.862	-0.220	-0.169
-302.807	-166.261	-0.344	0.015
-301.793	-63.978	-0.364	-0.149
-300.778	-81.693	0.170	-0.056
-299.764	424.672	-0.048	-0.102
-298.749	22.755	0.072	-0.059
-297.735	-60.408	0.265	-0.113
-296.720	-22.335	-0.187	-0.113
-295.705	62.258	-0.232	0.231
-294.691	-200.000	-0.028	0.127
-293.676	800.000	0.083	-0.254
-292.662	-200.000	0.093	-0.524
-291.647	-133.605	-0.156	-0.019
-290.632	-0.712	-0.259	0.183
-289.618	67.669	-0.123	-0.125
-288.603	73.954	-0.203	-0.212
-287.589	476.982	0.121	-0.273
-286.574	-24.567	0.077	-0.046
-285.559	-63.111	-0.075	-0.031
-284.545	-27.380	0.333	0.193
-283.530	586.712	-0.112	0.275
-282.516	-200.000	0.004	0.017
-281.501	-200.000	-0.023	-0.191
-280.486	-40.449	-0.217	-0.112
-279.472	-3.804	-0.311	-0.216
-278.457	-41.045	0.229	0.118
-277.443	129.705	0.031	0.040
-276.428	30.234	-0.174	-0.148
-275.413	7.715	-0.365	0.273
-274.399	67.982	-0.130	0.132
-273.384	-88.719	0.136	-0.040
-272.370	800.000	-0.013	0.042
-271.355	-72.443	-0.236	-0.087
-270.340	-130.758	-0.043	0.006
-269.326	118.346	0.090	-0.111
-268.311	-57.175	-0.349	0.153
-267.297	-172.415	0.314	-0.010
-266.282	-56.876	-0.102	-0.045
-265.267	-130.891	0.176	0.024
-264.253	-96.714	-0.316	-0.083
-263.238	26.128	-0.190	0.158
-262.224	-62.390	-0.214	-0.089
-261.209	-53.319	0.243	0.111
-260.195	256.897	-0.107	0.183
-259.180	117.044	-0.108	0.132
-258.165	800.000	0.083	0.311
-257.151	-200.000	-0.011	0.156
-256.136	-200.000	-0.001	0.010
-255.122	-43.632	0.361	-0.181
-254.107	-200.000	0.043	-0.252
-253.092	-200.000	0.014	0.128
-252.078	-159.295	0.141	-0.008
-251.063	21.585	-0.086	-0.070
-250.049	-110.306	0.238	0.049
-249.034	-65.410	0.236	-0.094
-248.019	800.000	-0.134	-0.440
-247.005	-200.000	0.002	-0.272
-245.990	-153.355	-0.126	-0.009
-244.976	-48.928	0.211	-0.101
-243.961	-200.000	-0.009	-0.116
-242.946	136.466	-0.047	-0.061
-241.932	241.170	0.116	0.193
-240.917	93.239	0.224	0.253
-239.903	-88.048	-0.081	0.024
-238.888	-125.946	0.306	-0.046
-237.873	-200.000	0.022	-0.211
-236.859	-200.000	0.043	-0.217
-235.844	31.078	0.221	0.189
-234.830	508.368	-0.035	-0.082
-233.815	338.441	-0.076	-0.148
-232.800	-46.557	0.079	0.039
-231.786	66.435	0.112	-0.113
-230.771	-200.000	0.085	0.378
-229.757	97.694	0.199	-0.228
-228.742	-62.341	-0.076	-0.031
-227.727	491.678	-0.115	0.263
-226.713	-200.000	-0.071	-0.402
-225.698	800.000	0.088	-0.316
-224.684	-97.306	-0.214	0.056
-223.669	427.821	0.092	0.198
-222.655	76.182	0.082	-0.087
-221.640	-134.305	-0.057	0.007
-220.625	800.000	-0.038	-0.118
-219.611	-19.772	-0.159	-0.098
-218.596	54.075	-0.227	-0.218
-217.582	-200.000	0.034	0.152
-216.567	515.440	0.115	0.267
-215.552	-94.559	0.168	-0.045
-214.538	-132.064	0.418	0.054
-213.523	426.674	-0.075	0.162
-212.509	-157.137	0.181	0.011
-211.494	-200.000	0.046	-0.305
-210.479	257.990	-0.033	0.057
-209.465	261.242	-0.059	-0.102
-208.450	-114.533	0.279	0.053
-207.436	424.909	0.195	0.417
-206.421	88.243	0.042	0.047
-205.406	-71.270	0.424	0.158
-204.392	558.191	-0.014	-0.034
-203.377	-137.271	-0.274	-0.031
-202.363	25.603	0.140	-0.116
-201.348	48.650	-0.090	0.084
-200.333	-200.000	-0.010	0.070
-199.319	-120.391	0.172	0.029
-198.304	32.400	0.120	-0.103
-197.290	9.297	0.154	-0.115
-196.275	-200.000	0.088	-0.410
-195.260	800.000	0.057	-0.194
-194.246	-200.000	0.057	-0.334
-193.231	-86.539	-0.336	0.102
-192.217	-200.000	-0.038	0.218
-191.202	0.609	0.121	-0.086
-190.187	800.000	0.095	-0.346
-189.173	-200.000	-0.063	-0.282
-188.158	81.581	0.078	-0.084
-187.144	128.427	0.077	0.097
-186.129	-103.057	0.161	-0.038
-185.114	-123.579	0.420	0.066
-184.100	-200.000	-0.009	-0.157
-183.085	-31.085	-0.318	-0.178
-182.071	-200.000	-0.011	0.166
-181.056	-200.000	-0.071	0.311
-180.042	186.152	-0.163	-0.241
-179.027	534.254	-0.086	0.203
-178.012	-109.799	0.170	0.036
-176.998	-200.000	0.010	0.339
-175.983	73.887	-0.104	-0.108
-174.969	135.617	-0.085	-0.110
-173.954	-47.005	-0.124	0.060
-172.939	-200.000	0.054	0.267
-171.925	135.066	-0.111	0.143
-170.910	800.000	-0.016	-0.058
-169.896	-163.967	0.196	-0.009
-168.881	11.035	-0.185	0.141
-167.866	800.000	-0.066	0.186
-166.852	158.851	0.088	-0.122
-165.837	59.694	-0.117	0.115
-164.823	-97.354	-0.178	-0.046
-163.808	800.000	-0.054	0.230
-162.793	76.561	-0.187	0.197
-161.779	20.574	0.248	-0.199
-160.764	-200.000	0.003	-0.285
-159.750	-156.116	-0.236	0.015
-158.735	773.993	0.021	0.057
-157.720	-200.000	-0.023	-0.105
-156.706	800.000	-0.034	-0.138
-155.691	800.000	0.057	0.197
-154.677	-34.479	-0.169	-0.092
-153.662	-155.059	0.453	-0.030
-152.647	800.000	0.027	-0.116
-151.633	471.529	-0.190	0.425
-150.618	105.082	-0.045	-0.053
-149.604	-100.062	-0.128	0.032
-148.589	201.205	0.094	0.144
-147.574	-158.174	-0.319	-0.019
-146.560	-4.524	-0.069	-0.047
-145.545	-200.000	0.037	0.327
-144.531	789.400	-0.070	-0.191
-143.516	-177.053	-0.154	0.004
-142.502	-159.221	-0.071	0.004
-141.487	-176.593	0.273	0.007
-140.472	-9.837	0.275	-0.181
-139.458	-108.932	-0.341	-0.072
-138.443	-93.640	0.390	0.107
-137.429	-200.000	0.045	0.210
-136.414	-18.264	-0.186	0.116
-135.399	-200.000	-0.007	0.079
-134.385	450.242	0.049	-0.106
-133.370	-200.000	-0.042	0.403
-132.356	383.099	-0.070	0.142
-131.341	-104.657	0.109	-0.025
-130.326	-88.470	0.116	0.034
-129.312	-200.000	-0.030	0.171
-128.297	28.131	0.163	-0.136
-127.283	160.305	-0.120	-0.167
-126.268	-164.092	0.225	0.010
-125.253	-64.201	0.154	0.062
-124.239	-102.343	-0.236	-0.056
-123.224	5.129	-0.162	0.118
-122.210	-200.000	0.018	0.446
-121.195	8.230	0.061	-0.045
-120.180	800.000	0.032	0.092
-119.166	-200.000	-0.024	0.146
-118.151	-28.384	-0.386	0.221
-117.137	-11.976	-0.270	0.176
-116.122	-60.097	0.138	0.058
-115.107	-69.477	0.256	0.097
-114.093	-200.000	0.051	0.412
-113.078	29.490	-0.102	0.086
-112.064	-68.945	0.072	0.028
-111.049	-110.706	-0.225	-0.046
-110.034	688.409	0.120	0.312
-109.020	28.377	-0.385	0.322
-108.005	-135.993	0.256	-0.030
-106.991	-19.000	0.160	-0.099
-105.976	800.000	0.137	0.382
-104.962	-200.000	0.011	0.183
-103.947	-83.519	0.081	-0.026
-102.932	-200.000	-0.056	-0.268
-101.918	-200.000	-0.001	0.256
-100.903	165.953	0.226	0.317
-99.889	-200.000	-0.003	-0.102
-98.874	114.136	0.105	0.127
-97.859	47.898	0.185	0.171
-96.845	223.295	-0.108	-0.173
-95.830	-50.682	0.261	0.122
-94.816	-86.672	-0.280	-0.085
-93.801	-200.000	0.003	-0.063
-92.786	211.881	0.051	-0.080
-91.772	-50.621	0.124	-0.058
-90.757	131.793	0.206	0.262
-89.743	7.496	0.139	0.103
-88.728	-200.000	0.050	-0.346
-87.713	-200.000	0.026	-0.283
-86.699	3.210	0.301	-0.217
-85.684	202.914	0.114	-0.175
-84.670	-141.500	0.292	-0.029
-83.655	-12.513	0.198	0.128
-82.640	-130.381	0.269	0.036
-81.626	-118.697	0.156	0.027
-80.611	-129.927	-0.062	-0.008
-79.597	-200.000	0.057	0.299
-78.582	-200.000	0.060	0.309
-77.567	-200.000	-0.002	0.068
-76.553	-86.312	-0.144	0.044
-75.538	800.000	0.110	0.344
-74.524	-200.000	0.003	-0.294
-73.509	365.966	0.097	0.193
-72.494	800.000	-0.095	-0.284
-71.480	-200.000	0.010	-0.087
-70.465	219.605	-0.096	-0.153
-69.451	263.203	0.128	0.220
-68.436	88.374	-0.152	0.167
-67.422	72.022	0.266	-0.274
-66.407	326.455	-0.095	0.181
-65.392	-200.000	0.054	-0.316
-64.378	-131.939	0.284	-0.037
-63.363	-110.410	0.134	-0.028
-62.349	-200.000	-0.040	0.291
-61.334	50.162	-0.842	-0.787
-60.319	-39.476	0.579	0.300
-59.305	800.000	-0.310	-1.209
-58.290	800.000	0.199	0.646
-57.276	800.000	0.570	1.651
-56.261	-200.000	99.004	594.281
-55.246	583.740	1404.613	3410.933
-54.232	187.603	2603.142	3842.114
-53.217	107.626	2314.296	2724.173
-52.203	37.664	2069.848	1816.948
-51.188	32.726	1983.267	1696.579
-50.173	31.114	1964.951	1666.456
-49.159	46.071	2017.465	1846.791
-48.144	47.228	2035.277	1873.518
-47.130	33.348	1995.402	1712.322
-46.115	30.901	1985.047	1681.311
-45.100	30.777	1982.398	1677.891
-44.086	30.844	1979.767	1676.193
-43.071	30.836	1976.979	1673.700
-42.057	30.742	1975.239	1671.316
-41.042	30.780	1973.342	1669.988
-40.027	30.843	1971.076	1668.565
-39.013	30.788	1969.649	1666.798
-37.998	30.759	1967.840	1664.943
-36.984	30.882	1965.806	1664.250
-35.969	30.880	1963.266	1662.015
-34.954	30.912	1961.562	1660.796
-33.940	30.833	1960.901	1659.470
-32.925	30.940	1958.918	1658.671
-31.911	30.946	1957.347	1657.331
-30.896	30.864	1955.841	1655.263
-29.881	30.944	1953.937	1654.294
-28.867	30.996	1952.444	1653.428
-27.852	30.977	1951.201	1652.138
-26.838	31.022	1948.758	1650.409
-25.823	30.970	1947.048	1648.434
-24.809	30.977	1945.463	1647.086
-23.794	30.956	1943.713	1645.350
-22.779	30.982	1941.773	1643.879
-21.765	30.897	1940.510	1641.988
-20.750	30.918	1939.013	1640.844
-19.736	31.022	1936.688	1639.729
-18.721	30.993	1935.500	1638.400
-17.706	30.926	1934.302	1636.731
-16.692	30.937	1932.200	1634.985
-15.677	30.989	1930.758	1634.152
-14.663	31.006	1929.190	1632.917
-13.648	31.018	1927.742	1631.729
-12.633	30.999	1926.505	1630.450
-11.619	30.923	1925.548	1628.915
-10.604	31.051	1923.538	1628.263
-9.590	30.959	1922.525	1626.539
-8.575	30.957	1921.118	1625.264
-7.560	30.957	1919.551	1623.875
-6.546	30.960	1918.342	1622.812
-5.531	30.971	1917.685	1622.293
-4.517	30.961	1916.094	1620.793
-3.502	30.937	1915.214	1619.779
-2.487	30.963	1913.645	1618.611
-1.473	31.027	1912.989	1618.549
-0.458	31.049	1908.585	1614.948
0.556	30.296	1889.145	1589.711
1.571	26.549	1870.975	1542.427
2.586	22.931	1894.516	1530.413
3.600	22.274	1931.236	1554.137
4.615	21.786	1926.036	1545.511
5.629	17.083	1825.009	1424.932
6.644	9.014	1708.712	1270.359
7.659	5.314	1674.134	1215.799
8.673	5.106	1670.825	1211.670
9.688	5.009	1669.842	1210.097
10.702	4.970	1668.360	1208.618
11.717	4.875	1664.997	1205.339
12.731	5.442	1664.203	1209.041
13.746	10.927	1677.312	1261.090
14.761	17.626	1691.658	1323.987
15.775	19.386	1692.563	1338.245
16.790	18.381	1689.778	1328.138
17.804	17.361	1685.932	1317.097
18.819	16.239	1683.230	1306.196
19.834	15.728	1680.480	1299.999
20.848	15.387	1678.890	1296.019
21.863	15.163	1677.799	1293.334
22.877	14.881	1676.106	1289.738
23.892	14.706	1674.518	1287.053
24.907	14.634	1673.303	1285.450
25.921	14.534	1672.693	1284.094
26.936	14.586	1671.535	1283.495
27.950	14.630	1670.416	1282.856
28.965	14.567	1670.274	1282.152
29.980	14.715	1669.310	1282.436
30.994	14.810	1668.029	1282.067
32.009	14.882	1666.984	1281.705
33.023	14.851	1666.062	1280.645
34.038	14.884	1665.457	1280.319
35.053	14.837	1664.171	1278.859
36.067	14.810	1662.653	1277.369
37.082	14.761	1661.479	1275.977
38.096	14.695	1661.031	1275.022
39.111	14.686	1660.350	1274.315
40.126	14.950	1658.883	1275.093
41.140	14.850	1657.859	1273.427
42.155	14.714	1656.067	1270.900
43.169	14.523	1655.392	1268.821
44.184	14.416	1654.261	1267.029
45.199	14.512	1652.699	1266.445
46.213	14.550	1651.714	1265.870
47.228	14.591	1650.064	1264.801
48.242	14.683	1648.918	1264.514
49.257	14.701	1648.177	1263.968
50.271	14.711	1647.189	1263.172
51.286	14.678	1645.913	1261.829
52.301	14.705	1644.719	1261.013
53.315	14.720	1643.446	1260.039
54.330	14.656	1641.387	1257.863
55.344	14.580	1639.808	1255.968
56.359	14.492	1638.770	1254.398
57.374	14.619	1637.422	1254.215
58.388	14.584	1636.302	1252.978
59.403	14.554	1634.627	1251.361
60.417	14.532	1633.736	1250.409
61.432	14.484	1632.968	1249.345
62.447	14.437	1631.792	1247.989
63.461	14.405	1630.460	1246.617
64.476	14.352	1629.451	1245.341
65.490	14.382	1628.169	1244.470
66.505	14.370	1626.599	1243.077
67.520	14.341	1626.243	1242.472
68.534	14.469	1624.840	1242.245
69.549	14.428	1624.006	1241.198
70.563	14.545	1622.339	1240.682
71.578	14.470	1621.361	1239.267
72.593	14.488	1620.137	1238.355
73.607	14.318	1619.315	1236.357
74.622	14.312	1618.091	1235.265
75.636	14.361	1617.444	1235.028
76.651	14.291	1617.010	1234.067
77.666	14.319	1615.781	1233.227
78.680	14.339	1614.915	1232.601
79.695	14.368	1613.870	1231.910
80.709	14.430	1613.226	1231.773
81.724	14.404	1612.362	1230.806
82.739	14.502	1611.402	1230.689
83.753	14.501	1610.520	1229.902
84.768	14.585	1609.612	1229.714
85.782	14.735	1608.992	1230.241
86.797	14.756	1608.181	1229.665
87.812	14.740	1607.326	1228.786
88.826	14.682	1605.690	1227.000
89.841	14.625	1604.739	1225.743
90.855	14.689	1604.085	1225.611
91.870	14.731	1602.962	1224.946
92.884	14.665	1602.345	1223.883
93.899	14.752	1600.927	1223.334
94.914	14.844	1599.265	1222.623
95.928	14.898	1598.420	1222.263
96.943	14.921	1596.991	1221.235
97.957	14.827	1595.802	1219.533
98.972	14.810	1594.230	1218.094
99.987	14.768	1592.394	1216.284
101.001	14.758	1590.994	1215.032
102.016	14.738	1589.222	1213.423
103.030	14.757	1587.874	1212.429
104.045	14.721	1587.577	1211.833
105.060	14.712	1585.654	1210.191
106.074	14.695	1583.965	1208.675
107.089	14.632	1582.891	1207.292
108.103	14.409	1581.102	1204.211
109.118	14.515	1579.501	1203.645
110.133	14.493	1578.017	1202.252
111.147	14.496	1576.721	1201.177
112.162	14.430	1575.782	1199.884
113.176	14.474	1574.590	1199.187
114.191	14.562	1572.586	1198.181
115.206	14.560	1571.956	1197.583
116.220	14.525	1570.491	1196.107
117.235	14.556	1569.262	1195.293
118.249	14.575	1567.846	1194.241
119.264	14.504	1566.788	1192.824
120.279	14.554	1565.117	1191.800
121.293	14.563	1563.683	1190.666
122.308	14.467	1562.616	1189.069
123.322	14.422	1560.813	1187.267
124.337	14.488	1559.212	1186.417
125.352	14.428	1557.933	1184.915
126.366	14.381	1557.121	1183.858
127.381	14.471	1555.652	1183.274
128.395	14.381	1555.325	1182.281
129.410	14.444	1553.900	1181.536
130.424	14.370	1552.262	1179.667
131.439	14.546	1550.370	1179.370
132.454	14.484	1549.567	1178.212
133.468	14.613	1547.622	1177.544
134.483	14.528	1546.802	1176.214
135.497	14.491	1545.637	1174.961
136.512	14.652	1543.973	1174.725
137.527	14.573	1542.817	1173.185
138.541	14.566	1541.897	1172.337
139.556	14.615	1540.304	1171.364
140.570	14.598	1539.336	1170.403
141.585	14.708	1537.729	1169.847
142.600	14.746	1536.723	1169.247
143.614	14.867	1535.285	1168.898
144.629	14.885	1534.056	1167.981
145.643	14.948	1532.799	1167.366
146.658	15.027	1531.341	1166.697
147.673	14.819	1530.064	1164.176
148.687	14.793	1528.339	1162.577
149.702	14.743	1526.672	1160.858
150.716	14.729	1524.786	1159.224
151.731	14.702	1524.071	1158.390
152.746	14.803	1522.559	1157.840
153.760	14.706	1521.335	1156.138
154.775	14.737	1520.273	1155.442
155.789	14.800	1519.080	1154.867
156.804	14.903	1517.528	1154.299
157.819	14.912	1516.157	1153.213
158.833	14.975	1514.876	1152.570
159.848	14.979	1514.170	1151.962
160.862	15.006	1513.234	1151.331
161.877	14.995	1511.914	1150.152
162.892	14.972	1510.665	1148.939
163.906	14.869	1509.419	1147.182
164.921	14.726	1508.291	1145.243
165.935	14.728	1507.570	1144.610
166.950	14.855	1506.409	1144.494
167.964	14.896	1504.838	1143.480
168.979	14.945	1504.300	1143.308
169.994	14.915	1502.952	1141.980
171.008	14.842	1502.149	1140.770
172.023	14.945	1501.172	1140.625
173.037	15.027	1499.650	1139.928
174.052	15.074	1498.282	1139.108
175.067	15.056	1497.486	1138.277
176.081	14.959	1496.636	1136.874
177.096	14.947	1495.098	1135.523
178.110	14.930	1493.968	1134.445
179.125	14.902	1492.959	1133.390
180.140	14.943	1492.064	1132.892
181.154	15.037	1491.075	1132.675
182.169	14.933	1490.236	1131.237
183.183	14.960	1488.626	1130.091
184.198	15.139	1487.180	1130.106
185.213	15.171	1486.193	1129.469
186.227	15.189	1485.287	1128.802
187.242	15.205	1484.171	1127.963
188.256	15.255	1483.251	1127.502
189.271	15.267	1482.119	1126.621
190.286	15.376	1480.750	1126.213
191.300	15.261	1479.678	1124.529
192.315	15.003	1478.757	1121.996
193.329	14.902	1477.078	1119.947
194.344	14.887	1476.068	1118.982
195.359	14.906	1475.514	1118.589
196.373	15.035	1474.463	1118.556
197.388	15.153	1472.948	1118.099
198.402	15.200	1472.383	1117.880
199.417	15.321	1470.877	1117.442
200.432	15.298	1470.428	1116.850
201.446	15.462	1469.156	1116.876
202.461	15.476	1468.008	1115.999
203.475	15.534	1466.951	1115.481
204.490	15.537	1465.946	1114.636
205.504	15.517	1465.121	1113.781
206.519	15.340	1463.761	1111.476
207.534	15.353	1462.957	1110.852
208.548	15.353	1461.758	1109.842
209.563	15.318	1460.569	1108.613
210.577	15.346	1459.447	1107.846
211.592	15.410	1458.646	1107.561
212.607	15.439	1457.879	1107.071
213.621	15.497	1457.320	1106.934
214.636	15.553	1456.336	1106.456
215.650	15.579	1455.388	1105.810
216.665	15.541	1454.392	1104.708
217.680	15.679	1453.248	1104.646
218.694	15.672	1452.871	1104.216
219.709	15.750	1452.245	1104.153
220.723	15.730	1451.171	1103.110
221.738	15.664	1450.055	1101.730
222.753	15.625	1449.313	1100.818
223.767	15.618	1448.577	1100.109
224.782	15.658	1447.465	1099.433
225.796	15.643	1446.389	1098.417
226.811	15.762	1445.484	1098.408
227.826	15.775	1444.692	1097.800
228.840	15.792	1444.130	1097.384
229.855	15.714	1442.752	1095.729
230.869	15.684	1442.151	1094.981
231.884	15.699	1440.989	1094.100
232.899	15.769	1439.318	1093.189
233.913	15.757	1438.333	1092.267
234.928	15.675	1437.193	1090.775
235.942	15.639	1435.933	1089.490
236.957	15.590	1434.684	1088.125
237.972	15.751	1433.678	1088.312
238.986	15.682	1432.551	1086.909
240.001	15.621	1432.140	1086.108
241.015	15.668	1431.288	1085.673
242.030	15.640	1429.937	1084.370
243.045	15.773	1428.594	1084.111
244.059	15.788	1427.934	1083.610
245.074	15.849	1426.774	1083.026
246.088	15.826	1426.652	1082.692
247.103	15.846	1425.716	1082.014
248.117	15.979	1424.881	1082.136
249.132	15.920	1423.996	1080.990
250.147	16.037	1423.325	1081.140
251.161	16.193	1422.716	1081.578
252.176	16.248	1422.239	1081.476
253.190	16.288	1421.262	1080.891
254.205	16.286	1420.295	1080.046
255.220	16.332	1419.637	1079.743
256.234	16.394	1418.807	1079.413
257.249	16.338	1418.382	1078.638
258.263	16.346	1417.059	1077.587
259.278	16.318	1416.366	1076.789
260.293	16.331	1415.636	1076.222
261.307	16.366	1414.545	1075.517
262.322	16.384	1413.948	1075.085
263.336	16.487	1413.117	1075.013
264.351	16.533	1411.758	1074.173
265.366	16.544	1410.761	1073.392
266.380	16.551	1409.947	1072.719
267.395	16.498	1409.171	1071.702
268.409	16.564	1408.266	1071.332
269.424	16.509	1407.332	1070.182
270.439	16.424	1406.456	1068.880
271.453	16.445	1405.559	1068.236
272.468	16.452	1404.617	1067.473
273.482	16.477	1403.597	1066.761
274.497	16.453	1402.571	1065.734
275.512	16.412	1402.131	1065.048
276.526	16.422	1401.168	1064.287
277.541	16.513	1399.790	1063.716
278.555	16.506	1399.233	1063.153
279.570	16.469	1398.497	1062.267
280.585	16.620	1396.880	1061.893
281.599	16.582	1396.717	1061.442
282.614	16.629	1396.166	1061.219
283.628	16.593	1394.912	1059.946
284.643	16.606	1393.668	1058.990
285.657	16.625	1392.326	1057.998
286.672	16.572	1391.635	1057.046
287.687	16.543	1390.970	1056.268
288.701	16.680	1389.555	1055.950
289.716	16.595	1389.164	1055.033
290.730	16.690	1387.868	1054.544
291.745	16.705	1387.192	1054.034
292.760	16.739	1386.272	1053.454
293.774	16.775	1384.904	1052.546
294.789	16.720	1384.205	1051.579
295.803	16.765	1383.469	1051.205
296.818	16.948	1382.475	1051.493
297.833	16.879	1381.611	1050.316
298.847	16.764	1380.803	1048.894
299.862	16.660	1380.087	1047.611
300.876	16.789	1378.628	1047.211
301.891	16.806	1378.186	1046.890
302.906	16.830	1377.029	1046.064
303.920	16.893	1376.554	1045.998
304.935	16.975	1376.166	1046.116
305.949	16.967	1375.167	1045.214
306.964	17.017	1374.852	1045.189
307.979	17.123	1373.206	1044.499
308.993	17.128	1372.147	1043.632
310.008	17.028	1371.225	1042.228
311.022	17.177	1370.147	1042.226
312.037	17.129	1369.385	1041.263
313.052	17.112	1368.617	1040.480
314.066	17.039	1367.568	1039.144
315.081	17.050	1366.387	1038.223
316.095	16.867	1365.434	1036.287
317.110	16.966	1364.047	1035.747
318.125	16.930	1363.128	1034.739
319.139	16.954	1362.510	1034.328
320.154	16.983	1361.394	1033.567
321.168	16.968	1360.758	1032.898
322.183	16.982	1359.137	1031.659
323.197	16.943	1358.226	1030.643
324.212	16.925	1357.918	1030.206
325.227	17.095	1356.683	1030.209
326.241	17.057	1355.668	1029.116
327.256	17.141	1354.775	1028.858
328.270	17.074	1354.068	1027.826
329.285	17.019	1353.454	1026.933
330.300	17.043	1352.449	1026.228
331.314	17.103	1351.393	1025.697
332.329	17.117	1350.357	1024.902
333.343	17.173	1349.173	1024.255
334.358	17.064	1348.704	1023.150
335.373	17.147	1348.306	1023.260
336.387	17.198	1347.138	1022.585
337.402	17.221	1346.077	1021.827
338.416	17.376	1345.536	1022.262
339.431	17.379	1344.818	1021.641
340.446	17.304	1344.524	1020.879
341.460	17.425	1343.351	1020.624
342.475	17.418	1342.582	1019.909
343.489	17.496	1341.637	1019.564
344.504	17.487	1341.001	1018.935
345.519	17.532	1339.928	1018.302
346.533	17.550	1338.930	1017.560
347.548	17.588	1338.177	1017.127
348.562	17.675	1337.292	1016.884
349.577	17.641	1336.423	1015.928
350.592	17.650	1335.737	1015.368
351.606	17.567	1334.443	1013.801
352.621	17.531	1333.299	1012.632
353.635	17.480	1332.643	1011.738
354.650	17.515	1331.597	1011.066
355.665	17.499	1330.406	1009.977
356.679	17.441	1329.645	1008.966
357.694	17.569	1328.282	1008.595
358.708	17.505	1327.440	1007.489
359.723	17.643	1326.109	1007.208
360.738	17.573	1325.152	1005.975
361.752	17.636	1324.118	1005.476
362.767	17.631	1323.380	1004.795
363.781	17.655	1322.430	1004.126
364.796	17.604	1321.907	1003.339
365.810	17.778	1320.834	1003.464
366.825	17.790	1320.371	1003.090
367.840	17.885	1319.649	1003.014
368.854	17.893	1319.308	1002.713
369.869	17.895	1318.623	1002.115
370.883	18.032	1317.643	1002.082
371.898	17.934	1317.136	1001.035
372.913	17.807	1316.396	999.644
373.927	17.944	1315.138	999.400
374.942	17.905	1314.433	998.549
375.956	17.978	1313.486	998.163
376.971	18.021	1312.681	997.717
377.986	18.015	1312.019	997.089
379.000	17.980	1311.353	996.293
380.015	18.046	1310.680	996.079
381.029	18.039	1310.104	995.508
382.044	18.208	1309.176	995.700
383.059	18.103	1308.396	994.411
384.073	18.129	1307.961	994.143
385.088	18.119	1307.214	993.427
386.102	18.131	1306.628	992.966
387.117	18.131	1305.739	992.201
388.132	18.198	1304.963	991.911
389.146	18.101	1303.726	990.319
390.161	18.146	1303.020	989.959
391.175	18.109	1302.079	988.938
392.190	18.059	1301.629	988.225
393.205	18.128	1300.716	987.840
394.219	18.278	1299.095	987.390
395.234	18.348	1298.208	987.030
396.248	18.267	1296.982	985.543
397.263	18.269	1295.475	984.326
398.278	18.207	1294.225	982.931
399.292	18.125	1292.939	981.393
400.307	18.107	1292.297	980.717
401.321	18.143	1291.001	979.855
402.336	18.054	1290.487	978.867
403.350	18.155	1289.203	978.387
404.365	18.137	1288.248	977.473
405.380	18.165	1287.481	976.965
406.394	18.236	1286.656	976.654
407.409	18.254	1286.199	976.324
408.423	18.264	1285.666	975.893
409.438	18.315	1284.828	975.462
410.453	18.419	1284.012	975.345
411.467	18.356	1283.750	974.701
412.482	18.552	1282.881	975.069
413.496	18.577	1282.029	974.478
414.511	18.510	1281.748	973.800
415.526	18.574	1280.779	973.335
416.540	18.728	1279.976	973.513
417.555	18.696	1279.100	972.581
418.569	18.712	1278.812	972.366
419.584	18.607	1278.196	971.218
420.599	18.588	1277.642	970.603
421.613	140.186	1432.569	1794.831
422.628	134.928	1455.125	1794.950
