DTS Sentinel unit serial number:	SN413079Multiplexer serial number:	ORYXHardware model number:	OX4-SRSoftware version number:	ORYX F/W v4.00 Oryx Data Collector v3.7.2.0data status	okinstallation	princeton_trtdifferential loss correction	single-endedforward channel	channel 4reverse channel	N/Adate	2019/09/19time	06:01:35forward acquisition time	60.00reverse acquisition time	0.00gamma	496.2192k internal	0.2340k external	0.2340temperature offset calibration	1.0027default loss term (dB/km)	0.3790temperature slope calibration	1.0000multiplexer offset coefficient	1.0000multiplexer slope coefficient	1.0000fibre end	0.00T internal ref (°C)	19.14T ext. ref 1 (°C)	0.58T ext. ref 2 (°C)	12.80length (m)	temperature (°C)	Stokes	anti-Stokes-747.200	-4.826	-0.054	0.037
-746.185	57.794	0.311	0.305
-745.171	-200.000	-0.012	-0.225
-744.156	103.533	-0.177	-0.209
-743.142	-29.468	-0.321	-0.184
-742.127	-155.868	0.399	0.026
-741.112	334.681	-0.075	-0.145
-740.098	-84.175	-0.224	-0.071
-739.083	249.899	0.206	0.351
-738.069	13.307	-0.104	0.081
-737.054	-5.393	-0.069	-0.048
-736.039	-200.000	-0.001	0.196
-735.025	-200.000	0.042	0.208
-734.010	115.900	0.033	-0.041
-732.996	800.000	-0.031	0.091
-731.981	55.723	-0.051	0.050
-730.966	-113.409	0.335	0.066
-729.952	617.383	-0.126	0.316
-728.937	-99.591	-0.306	-0.077
-727.923	-24.935	0.229	0.136
-726.908	-200.000	0.006	-0.363
-725.894	-16.771	0.232	-0.147
-724.879	240.252	0.055	0.093
-723.864	-200.000	-0.053	-0.343
-722.850	-114.133	-0.684	0.133
-721.835	800.000	-0.064	0.246
-720.821	-127.356	-0.412	0.060
-719.806	-200.000	0.025	-0.199
-718.791	-37.685	-0.128	-0.068
-717.777	-58.649	0.301	-0.131
-716.762	-7.260	-0.309	-0.210
-715.748	414.477	0.163	-0.349
-714.733	684.071	-0.110	-0.287
-713.718	-31.711	-0.217	-0.122
-712.704	201.996	0.149	-0.230
-711.689	-158.251	-0.269	0.016
-710.675	366.735	0.062	0.126
-709.660	155.674	0.255	-0.352
-708.645	-200.000	0.289	-0.001
-707.631	30.690	0.123	-0.106
-706.616	168.404	-0.133	0.189
-705.602	-200.000	-0.040	-0.245
-704.587	800.000	0.084	-0.324
-703.572	800.000	-0.074	0.260
-702.558	177.325	0.177	0.258
-701.543	-97.507	0.246	0.064
-700.529	760.365	-0.127	0.346
-699.514	-121.867	-0.368	-0.061
-698.499	-70.886	-0.154	0.058
-697.485	-200.000	0.001	0.093
-696.470	-150.085	-0.213	0.017
-695.456	258.213	0.145	-0.250
-694.441	-118.556	-0.071	-0.013
-693.426	-200.000	-0.009	0.059
-692.412	-200.000	0.072	-0.354
-691.397	-79.904	-0.067	0.023
-690.383	-21.741	0.232	-0.142
-689.368	116.537	-0.192	0.236
-688.354	800.000	-0.067	-0.280
-687.339	284.558	0.042	-0.076
-686.324	-200.000	0.032	-0.161
-685.310	800.000	-0.036	0.157
-684.295	-112.293	-0.269	-0.054
-683.281	304.313	-0.097	-0.179
-682.266	800.000	-0.114	-0.342
-681.251	-127.555	0.242	-0.035
-680.237	-100.447	0.117	-0.029
-679.222	-11.831	0.323	-0.212
-678.208	-72.563	-0.317	0.117
-677.193	-40.837	-0.097	0.050
-676.178	-144.156	0.296	0.028
-675.164	-200.000	0.002	-0.139
-674.149	361.914	0.035	-0.071
-673.135	-200.000	0.013	-0.142
-672.120	40.694	-0.325	-0.293
-671.105	503.672	-0.080	0.186
-670.091	38.041	0.077	-0.069
-669.076	160.740	-0.040	0.055
-668.062	-35.480	-0.064	0.035
-667.047	12.136	-0.122	-0.094
-666.032	519.958	0.015	-0.036
-665.018	-162.170	0.273	0.014
-664.003	-113.067	-0.066	-0.013
-662.989	-130.576	-0.077	0.010
-661.974	800.000	0.103	0.303
-660.959	47.221	-0.249	-0.232
-659.945	-153.873	0.090	-0.006
-658.930	-145.838	0.317	-0.028
-657.916	-97.549	-0.246	-0.064
-656.901	-143.765	-0.096	0.009
-655.886	165.109	0.126	0.178
-654.872	53.598	0.115	0.111
-653.857	-87.244	-0.359	0.109
-652.843	-17.045	-0.178	-0.112
-651.828	-200.000	0.004	0.428
-650.814	-103.613	0.067	0.016
-649.799	-65.808	0.130	0.052
-648.784	25.980	0.119	-0.099
-647.770	-41.855	0.206	-0.106
-646.755	-200.000	0.057	0.322
-645.741	-152.546	0.242	0.017
-644.726	-200.000	0.004	0.205
-643.711	141.732	0.180	-0.238
-642.697	-76.140	-0.137	0.048
-641.682	-106.614	-0.253	0.056
-640.668	117.604	0.123	0.151
-639.653	97.025	0.136	0.155
-638.638	265.320	0.130	-0.226
-637.624	444.858	0.071	-0.155
-636.609	-185.957	0.081	-0.001
-635.595	800.000	0.114	-0.345
-634.580	194.371	0.233	-0.352
-633.565	-93.475	0.061	0.017
-632.551	17.521	-0.199	-0.158
-631.536	-200.000	-0.015	-0.256
-630.522	-35.698	-0.215	0.116
-629.507	346.875	-0.097	0.191
-628.492	800.000	-0.046	-0.136
-627.478	800.000	-0.132	0.458
-626.463	700.552	0.092	-0.242
-625.449	231.439	-0.055	0.091
-624.434	-69.533	-0.192	0.073
-623.419	-124.988	-0.257	0.039
-622.405	-61.911	0.128	-0.054
-621.390	697.282	0.100	0.262
-620.376	288.822	-0.059	-0.106
-619.361	-102.869	-0.328	0.078
-618.346	167.933	0.125	-0.177
-617.332	-200.000	-0.032	0.172
-616.317	-109.524	-0.118	-0.025
-615.303	-200.000	-0.044	-0.198
-614.288	-101.305	-0.125	0.031
-613.273	-130.114	-0.390	-0.053
-612.259	37.595	-0.212	-0.187
-611.244	153.726	0.151	-0.207
-610.230	68.455	0.125	0.128
-609.215	384.219	-0.152	-0.312
-608.201	800.000	0.036	-0.115
-607.186	-90.269	-0.290	0.084
-606.171	-200.000	-0.024	-0.189
-605.157	466.266	0.033	0.075
-604.142	254.868	0.125	0.213
-603.128	-200.000	-0.015	0.153
-602.113	-95.671	0.423	-0.113
-601.098	3.661	0.088	-0.064
-600.084	-120.879	-0.240	0.040
-599.069	-63.057	0.094	0.039
-598.055	-200.000	-0.008	0.127
-597.040	10.223	-0.116	0.088
-596.025	-57.976	-0.212	-0.092
-595.011	580.881	0.066	0.162
-593.996	137.942	-0.092	-0.120
-592.982	123.892	0.113	-0.141
-591.967	57.827	0.215	0.210
-590.952	-110.899	0.192	0.039
-589.938	-14.357	-0.280	0.180
-588.923	-7.592	0.121	0.081
-587.909	66.007	-0.179	-0.181
-586.894	71.268	-0.103	-0.107
-585.879	-200.000	0.006	0.444
-584.865	47.975	-0.171	-0.159
-583.850	649.008	0.088	-0.224
-582.836	800.000	0.057	-0.214
-581.821	800.000	-0.069	0.221
-580.806	73.526	0.153	-0.159
-579.792	800.000	-0.056	0.185
-578.777	-200.000	-0.014	-0.209
-577.763	-131.432	-0.236	0.031
-576.748	-31.134	-0.054	-0.030
-575.733	304.295	0.099	0.182
-574.719	67.322	-0.023	-0.023
-573.704	-200.000	0.000	0.115
-572.690	66.102	-0.245	0.248
-571.675	-200.000	0.054	0.301
-570.661	-107.983	-0.353	-0.076
-569.646	-39.235	0.267	0.140
-568.631	-200.000	-0.004	-0.023
-567.617	574.082	-0.164	0.399
-566.602	113.393	-0.117	0.142
-565.588	-31.810	0.062	-0.035
-564.573	800.000	0.054	-0.160
-563.558	18.010	-0.126	-0.100
-562.544	-25.968	0.076	0.045
-561.529	800.000	-0.042	0.181
-560.515	-200.000	-0.002	0.025
-559.500	302.895	-0.079	-0.146
-558.485	287.486	0.152	-0.273
-557.471	68.556	-0.208	0.212
-556.456	-71.839	-0.131	0.048
-555.442	6.028	0.143	-0.105
-554.427	-104.228	0.205	0.047
-553.412	-7.975	0.053	0.036
-552.398	393.232	-0.056	0.116
-551.383	350.273	0.072	-0.142
-550.369	255.837	0.304	-0.519
-549.354	-159.669	0.205	-0.011
-548.339	676.185	-0.055	-0.143
-547.325	-200.000	-0.021	-0.205
-546.310	17.660	0.256	-0.203
-545.296	363.852	-0.081	0.162
-544.281	-128.558	-0.204	0.029
-543.266	800.000	-0.071	0.254
-542.252	-45.009	-0.300	0.149
-541.237	207.726	-0.142	0.220
-540.223	-163.727	-0.094	0.004
-539.208	800.000	0.076	-0.308
-538.193	135.313	-0.248	-0.321
-537.179	-70.331	-0.043	-0.016
-536.164	-159.712	-0.131	-0.007
-535.150	-200.000	-0.025	0.122
-534.135	800.000	0.126	-0.407
-533.121	800.000	-0.109	-0.371
-532.106	-110.848	-0.198	-0.041
-531.091	-63.293	0.216	0.088
-530.077	98.633	0.177	-0.203
-529.062	-87.019	0.198	0.060
-528.048	-200.000	-0.047	-0.316
-527.033	-200.000	-0.034	0.389
-526.018	220.196	0.074	0.118
-525.004	35.998	0.157	-0.137
-523.989	27.226	0.212	-0.177
-522.975	-98.524	-0.284	0.072
-521.960	-74.247	0.301	-0.108
-520.945	-21.957	0.280	0.169
-519.931	-200.000	0.001	-0.159
-518.916	17.708	-0.546	-0.432
-517.902	122.399	-0.208	0.258
-516.887	20.570	-0.148	-0.119
-515.872	492.502	0.067	0.152
-514.858	49.385	-0.080	0.074
-513.843	-152.946	0.122	0.009
-512.829	-200.000	0.017	-0.222
-511.814	201.362	0.178	-0.273
-510.799	-200.000	0.066	-0.348
-509.785	-122.810	0.332	0.053
-508.770	146.889	-0.131	0.175
-507.756	-133.551	-0.259	-0.032
-506.741	4.452	-0.098	-0.071
-505.726	49.362	0.173	0.161
-504.712	194.592	0.055	0.083
-503.697	-178.578	0.320	-0.007
-502.683	-117.461	-0.048	-0.009
-501.668	67.137	-0.092	0.093
-500.653	-200.000	0.018	-0.124
-499.639	-109.081	-0.026	-0.006
-498.624	-100.793	-0.275	0.067
-497.610	120.632	-0.167	0.206
-496.595	-200.000	0.009	-0.125
-495.581	-97.402	-0.121	0.031
-494.566	316.523	0.126	-0.236
-493.551	7.482	-0.161	0.119
-492.537	581.435	0.084	-0.205
-491.522	-64.295	0.077	-0.031
-490.508	-55.016	0.228	-0.102
-489.493	125.302	-0.090	0.113
-488.478	-73.240	-0.332	-0.121
-487.464	-200.000	-0.015	0.176
-486.449	-28.888	-0.069	-0.039
-485.435	800.000	-0.075	0.230
-484.420	130.729	0.133	-0.170
-483.405	26.369	0.056	0.047
-482.391	800.000	0.064	-0.270
-481.376	-200.000	-0.013	-0.174
-480.362	800.000	0.060	-0.205
-479.347	43.776	0.075	0.068
-478.332	145.283	0.151	-0.200
-477.318	-200.000	0.047	-0.370
-476.303	154.140	-0.185	0.251
-475.289	800.000	0.113	-0.480
-474.274	-200.000	-0.004	0.058
-473.259	-25.612	0.300	-0.176
-472.245	-21.011	-0.320	0.194
-471.230	102.313	-0.076	0.088
-470.216	154.281	-0.133	0.182
-469.201	-200.000	-0.053	-0.261
-468.186	46.069	0.118	0.108
-467.172	483.167	-0.115	0.258
-466.157	-200.000	-0.014	-0.062
-465.143	-142.301	-0.443	0.043
-464.128	379.931	0.118	0.241
-463.113	800.000	0.040	0.130
-462.099	-186.474	0.345	0.005
-461.084	57.245	0.501	-0.485
-460.070	8.022	-0.204	0.152
-459.055	-79.610	-0.095	-0.032
-458.040	272.716	0.085	0.149
-457.026	3.405	-0.116	-0.084
-456.011	27.574	-0.128	0.107
-454.997	-38.468	0.354	-0.185
-453.982	-46.895	-0.086	0.042
-452.968	-45.920	-0.355	-0.174
-451.953	-92.922	0.031	-0.008
-450.938	-31.812	0.062	-0.035
-449.924	696.591	0.074	0.192
-448.909	-200.000	0.020	0.206
-447.895	-77.916	0.237	-0.081
-446.880	183.113	0.053	0.077
-445.865	519.275	0.113	0.261
-444.851	-176.882	0.239	-0.006
-443.836	-65.356	-0.042	0.017
-442.822	-200.000	0.080	-0.422
-441.807	11.602	-0.116	-0.088
-440.792	242.337	0.034	-0.056
-439.778	-111.473	0.388	0.078
-438.763	570.787	0.063	-0.152
-437.749	-87.502	0.180	0.054
-436.734	568.524	-0.044	0.107
-435.719	665.582	0.098	-0.250
-434.705	96.877	-0.072	-0.081
-433.690	114.124	-0.237	-0.285
-432.676	-200.000	0.026	0.356
-431.661	800.000	0.079	-0.260
-430.646	559.665	-0.158	0.377
-429.632	-200.000	0.026	-0.229
-428.617	101.444	-0.071	-0.082
-427.603	-169.919	0.326	-0.012
-426.588	800.000	0.055	0.153
-425.573	613.399	0.138	-0.342
-424.559	15.588	-0.159	0.123
-423.544	800.000	0.037	-0.126
-422.530	40.167	0.094	-0.084
-421.515	-200.000	0.032	-0.170
-420.500	29.000	0.266	-0.223
-419.486	64.186	0.082	-0.081
-418.471	-72.373	0.177	-0.065
-417.457	-91.322	0.057	-0.016
-416.442	-166.006	0.188	-0.008
-415.428	-13.271	-0.260	-0.167
-414.413	437.876	0.066	0.143
-413.398	306.825	-0.049	0.090
-412.384	-0.194	-0.133	0.094
-411.369	42.066	0.058	0.053
-410.355	2.367	0.095	-0.068
-409.340	-100.168	0.234	0.058
-408.325	-200.000	-0.050	0.294
-407.311	77.598	-0.347	-0.366
-406.296	-200.000	-0.015	-0.240
-405.282	-146.090	0.467	-0.041
-404.267	-83.484	-0.271	-0.086
-403.252	31.570	-0.206	-0.176
-402.238	-200.000	-0.038	0.266
-401.223	-128.177	-0.127	-0.018
-400.209	89.102	0.090	0.099
-399.194	-77.451	0.287	0.098
-398.179	-83.334	-0.223	0.071
-397.165	-25.990	-0.064	0.037
-396.150	209.863	-0.137	0.212
-395.136	-161.478	-0.154	-0.008
-394.121	480.222	0.149	-0.335
-393.106	-53.549	0.196	0.089
-392.092	545.641	-0.076	-0.180
-391.077	40.735	0.171	0.153
-390.063	98.549	-0.275	0.313
-389.048	-145.717	0.338	0.030
-388.033	64.607	-0.266	-0.265
-387.019	-200.000	-0.048	0.240
-386.004	-200.000	-0.020	-0.110
-384.990	218.622	-0.042	0.067
-383.975	-102.737	0.419	0.099
-382.960	-200.000	0.037	-0.215
-381.946	-15.832	0.082	0.052
-380.931	-200.000	-0.008	-0.126
-379.917	-135.464	0.566	-0.067
-378.902	-128.672	-0.360	0.050
-377.888	94.939	-0.139	0.156
-376.873	-200.000	-0.048	-0.254
-375.858	-200.000	0.071	0.324
-374.844	558.660	-0.169	0.404
-373.829	-200.000	0.005	0.203
-372.815	-92.506	-0.391	0.108
-371.800	-200.000	0.007	0.466
-370.785	-200.000	-0.012	0.132
-369.771	-19.725	0.130	-0.079
-368.756	632.095	0.131	-0.327
-367.742	342.089	0.054	0.104
-366.727	-28.565	0.106	0.060
-365.712	120.283	-0.132	0.161
-364.698	260.856	-0.182	0.312
-363.683	70.402	-0.401	0.410
-362.669	800.000	-0.071	-0.287
-361.654	-200.000	0.037	-0.180
-360.639	-13.899	-0.250	-0.160
-359.625	567.195	0.080	-0.192
-358.610	800.000	0.100	-0.344
-357.596	356.129	0.122	0.240
-356.581	3.999	0.258	-0.186
-355.566	800.000	-0.013	0.037
-354.552	48.524	-0.152	-0.141
-353.537	89.388	0.092	-0.101
-352.523	362.920	-0.163	-0.324
-351.508	800.000	-0.110	0.401
-350.493	-65.170	0.193	-0.077
-349.479	614.830	0.052	-0.129
-348.464	-18.258	0.208	0.128
-347.450	-62.299	-0.463	-0.190
-346.435	188.408	-0.185	-0.273
-345.420	-16.942	-0.168	-0.105
-344.406	-200.000	-0.000	0.065
-343.391	63.064	0.163	-0.161
-342.377	-90.521	-0.054	0.015
-341.362	218.637	0.165	0.260
-340.348	129.647	0.145	0.182
-339.333	-120.936	-0.127	-0.021
-338.318	63.239	0.136	0.135
-337.304	85.802	0.116	0.126
-336.289	-85.700	-0.313	0.096
-335.275	800.000	-0.069	-0.208
-334.260	-46.869	-0.210	-0.101
-333.245	-98.312	-0.030	0.008
-332.231	800.000	0.022	0.080
-331.216	-200.000	0.032	-0.178
-330.202	-7.570	-0.195	-0.130
-329.187	513.394	-0.143	-0.328
-328.172	44.425	0.156	0.142
-327.158	111.549	0.123	-0.146
-326.143	87.434	-0.075	-0.082
-325.129	338.283	-0.220	0.422
-324.114	-84.236	0.161	-0.050
-323.099	-30.243	-0.188	-0.105
-322.085	96.809	0.070	-0.079
-321.070	-9.613	-0.171	0.113
-320.056	-200.000	-0.059	-0.367
-319.041	-69.888	0.189	-0.071
-318.026	-200.000	0.042	0.303
-317.012	92.485	-0.174	-0.194
-315.997	17.035	-0.043	0.033
-314.983	-76.213	0.304	-0.106
-313.968	-84.053	-0.123	0.038
-312.953	-105.272	-0.303	-0.068
-311.939	-200.000	0.000	0.109
-310.924	-33.195	-0.098	0.054
-309.910	-55.893	0.373	-0.164
-308.895	310.534	0.137	0.253
-307.880	-200.000	0.022	0.108
-306.866	-94.721	-0.186	0.050
-305.851	-58.277	-0.127	0.055
-304.837	18.247	-0.099	0.078
-303.822	134.664	-0.387	0.495
-302.807	72.630	0.183	0.188
-301.793	-200.000	0.020	0.187
-300.778	-200.000	-0.011	0.303
-299.764	-116.577	-0.162	0.029
-298.749	-200.000	-0.007	-0.308
-297.735	-102.236	0.196	0.046
-296.720	-72.274	0.120	0.044
-295.705	-116.294	-0.067	-0.012
-294.691	-65.192	0.190	-0.076
-293.676	126.107	0.281	0.350
-292.662	-141.176	0.206	0.021
-291.647	-64.182	0.164	0.066
-290.632	470.292	-0.027	-0.059
-289.618	421.253	-0.082	-0.174
-288.603	-35.031	-0.058	-0.031
-287.589	-118.904	0.115	-0.020
-286.574	-75.224	-0.457	0.161
-285.559	50.335	0.094	0.088
-284.545	-14.011	-0.340	0.216
-283.530	149.541	-0.127	0.170
-282.516	19.513	-0.096	0.076
-281.501	5.626	0.305	-0.222
-280.486	-37.178	-0.360	-0.190
-279.472	-31.552	-0.342	-0.189
-278.457	-13.861	-0.225	0.143
-277.443	-63.055	-0.196	0.080
-276.428	93.493	0.244	-0.272
-275.413	800.000	0.071	0.234
-274.399	129.615	0.244	0.307
-273.384	70.411	-0.197	0.200
-272.370	-63.499	0.417	0.169
-271.355	473.455	0.060	0.132
-270.340	-50.150	0.191	0.089
-269.326	-200.000	-0.004	0.234
-268.311	154.227	-0.042	-0.057
-267.297	-99.250	0.207	0.051
-266.282	155.140	0.123	-0.166
-265.267	150.218	0.166	0.222
-264.253	161.065	-0.085	-0.117
-263.238	189.877	-0.187	-0.275
-262.224	-83.669	-0.259	0.081
-261.209	360.353	-0.185	0.364
-260.195	155.488	-0.262	0.355
-259.180	429.377	0.041	-0.087
-258.165	-166.698	-0.159	0.006
-257.151	786.533	-0.069	-0.187
-256.136	800.000	-0.140	0.389
-255.122	-51.082	0.180	0.083
-254.107	34.336	0.060	0.052
-253.092	79.446	0.084	-0.088
-252.078	-7.990	0.090	0.060
-251.063	272.733	-0.114	-0.198
-250.049	-200.000	-0.025	0.133
-249.034	-200.000	0.017	0.085
-248.019	639.067	0.053	-0.132
-247.005	452.284	0.018	0.039
-245.990	-59.535	-0.161	-0.068
-244.976	416.888	0.201	-0.422
-243.961	-132.381	0.136	0.017
-242.946	161.126	0.128	0.177
-241.932	-94.700	0.321	-0.086
-240.917	69.753	-0.258	-0.261
-239.903	-25.643	0.210	-0.122
-238.888	-92.501	0.154	0.043
-237.873	-98.427	0.214	0.054
-236.859	-155.272	-0.290	0.019
-235.844	-6.592	-0.165	0.110
-234.830	800.000	0.073	-0.224
-233.815	11.799	-0.185	0.139
-232.800	-41.367	-0.421	0.213
-231.786	-200.000	0.019	-0.276
-230.771	800.000	-0.089	0.260
-229.757	-116.034	0.110	-0.020
-228.742	201.732	-0.142	-0.215
-227.727	421.606	0.054	0.115
-226.713	800.000	-0.096	0.348
-225.698	800.000	-0.082	0.250
-224.684	-18.493	0.151	0.093
-223.669	800.000	-0.049	0.180
-222.655	362.702	-0.160	0.316
-221.640	-80.089	-0.384	0.126
-220.625	-200.000	-0.042	0.200
-219.611	133.699	0.103	0.130
-218.596	-64.882	0.046	0.018
-217.582	260.277	0.070	0.119
-216.567	770.077	0.126	0.338
-215.552	-200.000	-0.044	0.312
-214.538	20.060	0.278	-0.220
-213.523	184.006	0.156	-0.227
-212.509	800.000	0.056	-0.181
-211.494	3.080	-0.138	0.098
-210.479	-200.000	-0.005	-0.115
-209.465	800.000	-0.091	-0.254
-208.450	82.934	0.131	-0.140
-207.436	39.006	0.445	0.391
-206.421	-200.000	-0.062	-0.306
-205.406	-132.828	-0.307	-0.038
-204.392	-140.508	0.360	-0.037
-203.377	39.535	-0.274	0.241
-202.363	197.361	0.196	0.294
-201.348	74.011	-0.037	-0.038
-200.333	-121.691	-0.222	0.036
-199.319	51.666	-0.090	-0.084
-198.304	69.918	0.373	0.378
-197.290	414.947	0.111	0.231
-196.275	-200.000	-0.034	0.341
-195.260	-200.000	-0.010	0.056
-194.246	-111.266	0.228	-0.046
-193.231	800.000	0.123	0.389
-192.217	-200.000	-0.002	-0.293
-191.202	130.787	0.123	0.155
-190.187	-200.000	0.011	0.112
-189.173	415.253	0.028	-0.059
-188.158	-81.107	0.144	-0.047
-187.144	95.345	0.323	-0.362
-186.129	-93.080	-0.083	0.023
-185.114	134.302	0.155	-0.198
-184.100	-200.000	-0.057	0.314
-183.085	-16.024	-0.163	0.102
-182.071	145.397	-0.112	0.147
-181.056	-200.000	0.015	0.233
-180.042	-53.742	0.187	0.084
-179.027	-57.102	0.386	-0.167
-178.012	209.441	-0.073	-0.113
-176.998	-115.179	0.235	-0.044
-175.983	800.000	0.103	0.392
-174.969	-109.522	-0.190	-0.039
-173.954	-200.000	0.023	-0.195
-172.939	-142.748	0.168	-0.016
-171.925	-92.236	-0.375	-0.104
-170.910	582.537	-0.122	-0.294
-169.896	800.000	-0.087	-0.326
-168.881	64.487	-0.386	-0.381
-167.866	800.000	0.040	0.129
-166.852	-7.098	0.062	-0.041
-165.837	-200.000	-0.010	-0.325
-164.823	157.882	0.252	-0.342
-163.808	-200.000	0.024	-0.161
-162.793	442.408	0.073	-0.157
-161.779	-200.000	0.033	0.159
-160.764	45.323	0.308	0.279
-159.750	411.736	-0.127	-0.265
-158.735	-200.000	0.039	-0.211
-157.720	-8.002	0.201	0.133
-156.706	-31.531	0.330	0.182
-155.691	-85.627	0.063	-0.019
-154.677	-47.212	-0.211	-0.101
-153.662	145.100	-0.186	-0.244
-152.647	-90.631	-0.303	-0.086
-151.633	164.532	0.036	0.049
-150.618	130.448	0.180	0.226
-149.604	-200.000	-0.002	0.025
-148.589	-103.819	-0.314	0.072
-147.574	-200.000	-0.026	0.128
-146.560	-135.593	-0.347	0.040
-145.545	-105.495	-0.193	-0.043
-144.531	-26.833	0.248	-0.142
-143.516	-31.144	0.142	0.078
-142.502	110.955	0.166	-0.196
-141.487	-70.548	0.304	0.113
-140.472	800.000	0.069	0.218
-139.458	-200.000	0.027	-0.182
-138.443	-17.259	-0.210	-0.129
-137.429	-61.154	-0.131	-0.054
-136.414	-200.000	-0.011	-0.122
-135.399	-106.934	0.138	0.030
-134.385	-200.000	0.003	0.286
-133.370	272.941	-0.118	-0.204
-132.356	-200.000	0.028	-0.416
-131.341	800.000	0.046	-0.172
-130.326	-200.000	-0.009	0.119
-129.312	780.606	0.051	0.136
-128.297	-74.572	-0.223	0.078
-127.283	74.976	0.129	-0.133
-126.268	27.712	-0.291	0.240
-125.253	6.904	0.191	0.139
-124.239	160.027	0.174	0.237
-123.224	-200.000	0.015	0.160
-122.210	392.017	-0.199	0.405
-121.195	-200.000	-0.027	0.216
-120.180	800.000	0.101	0.313
-119.166	-66.715	-0.243	0.094
-118.151	-121.096	0.115	0.019
-117.137	125.539	-0.067	-0.083
-116.122	-200.000	-0.073	0.329
-115.107	44.267	0.255	0.229
-114.093	-96.037	-0.151	0.039
-113.078	313.619	-0.045	-0.083
-112.064	-50.036	-0.293	0.136
-111.049	79.675	0.282	0.296
-110.034	-133.430	-0.427	0.052
-109.020	120.003	0.154	-0.187
-108.005	-76.565	0.199	-0.068
-106.991	582.381	0.045	-0.108
-105.976	-200.000	0.000	-0.060
-104.962	800.000	-0.104	-0.378
-103.947	-6.431	-0.190	0.127
-102.932	220.191	-0.104	0.164
-101.918	-96.601	0.179	0.046
-100.903	-93.569	-0.233	-0.063
-99.889	-96.412	-0.178	-0.046
-98.874	-70.300	0.363	-0.135
-97.859	-200.000	0.013	-0.163
-96.845	18.364	0.430	0.335
-95.830	800.000	0.068	0.203
-94.816	173.322	-0.200	-0.282
-93.801	-1.682	-0.254	0.175
-92.786	-74.302	0.117	0.041
-91.772	800.000	0.083	0.270
-90.757	-48.179	-0.192	-0.090
-89.743	800.000	0.063	-0.229
-88.728	800.000	-0.086	-0.286
-87.713	201.396	-0.067	0.102
-86.699	-200.000	0.019	0.159
-85.684	51.662	0.305	0.283
-84.670	-164.868	-0.095	-0.004
-83.655	44.351	0.095	-0.085
-82.640	-115.303	0.044	-0.008
-81.626	-0.845	-0.175	-0.121
-80.611	-169.562	0.096	0.003
-79.597	243.104	-0.088	0.144
-78.582	-79.283	0.297	-0.098
-77.567	432.396	0.073	-0.155
-76.553	-89.456	-0.279	0.080
-75.538	-145.944	0.227	0.020
-74.524	-200.000	-0.007	-0.052
-73.509	800.000	0.105	0.388
-72.494	227.554	0.029	0.046
-71.480	-49.729	-0.272	-0.126
-70.465	259.370	-0.113	0.191
-69.451	66.042	0.170	-0.168
-68.436	-200.000	0.004	-0.073
-67.422	-54.952	0.383	0.168
-66.407	-74.095	0.233	0.082
-65.392	-200.000	-0.018	-0.228
-64.378	209.158	0.115	0.176
-63.363	252.486	-0.070	-0.116
-62.349	-200.000	0.021	-0.100
-61.334	56.438	-1.210	-1.148
-60.319	116.580	0.654	0.782
-59.305	138.126	-0.787	-1.007
-58.290	118.528	1.135	1.367
-57.276	800.000	0.503	1.522
-56.261	-200.000	135.926	629.838
-55.246	344.191	1634.454	3128.464
-54.232	136.294	2778.270	3535.619
-53.217	74.412	2336.396	2396.118
-52.203	25.047	2088.367	1690.849
-51.188	20.754	2009.898	1588.182
-50.173	19.961	1995.445	1569.511
-49.159	37.932	2072.556	1797.574
-48.144	34.702	2082.825	1776.428
-47.130	21.033	2036.681	1611.666
-46.115	19.206	2025.742	1586.142
-45.100	19.150	2022.916	1583.347
-44.086	19.061	2020.766	1580.788
-43.071	19.068	2018.104	1578.704
-42.057	18.997	2015.973	1576.326
-41.042	19.057	2014.117	1575.360
-40.027	19.056	2012.480	1574.005
-39.013	19.172	2010.394	1573.373
-37.998	19.031	2009.025	1570.954
-36.984	19.015	2007.220	1569.331
-35.969	19.119	2005.260	1568.687
-34.954	19.143	2003.383	1567.371
-33.940	19.042	2002.730	1565.883
-32.925	19.122	2000.901	1565.113
-31.911	19.116	1999.191	1563.659
-30.896	19.166	1997.609	1562.818
-29.881	19.114	1996.305	1561.264
-28.867	19.082	1994.365	1559.396
-27.852	19.120	1992.960	1558.573
-26.838	19.207	1990.855	1557.651
-25.823	19.268	1988.729	1556.477
-24.809	19.200	1987.231	1554.633
-23.794	19.163	1985.914	1553.209
-22.779	19.190	1983.521	1551.521
-21.765	19.185	1981.891	1550.133
-20.750	19.241	1980.866	1549.773
-19.736	19.189	1979.299	1548.017
-18.721	19.208	1977.933	1547.065
-17.706	19.192	1975.999	1545.344
-16.692	19.165	1974.674	1544.007
-15.677	19.131	1973.125	1542.429
-14.663	19.072	1972.355	1541.240
-13.648	19.155	1970.495	1540.464
-12.633	19.148	1969.261	1539.374
-11.619	19.151	1967.918	1538.294
-10.604	19.135	1966.168	1536.718
-9.590	19.209	1964.793	1536.244
-8.575	19.160	1963.268	1534.556
-7.560	19.159	1961.853	1533.381
-6.546	19.145	1961.160	1532.649
-5.531	19.091	1959.775	1531.023
-4.517	19.212	1958.424	1530.983
-3.502	19.109	1957.296	1529.130
-2.487	19.129	1955.811	1528.084
-1.473	19.185	1954.907	1527.816
-0.458	19.141	1950.057	1523.574
0.556	17.739	1929.313	1493.266
1.571	13.477	1910.432	1441.487
2.586	9.700	1933.829	1425.671
3.600	8.799	1968.471	1442.966
4.615	8.957	1959.688	1437.818
5.629	7.216	1860.122	1349.822
6.644	3.025	1751.950	1237.524
7.659	0.800	1722.387	1198.909
8.673	0.608	1720.023	1195.641
9.688	0.682	1718.332	1194.938
10.702	0.534	1717.955	1193.403
11.717	0.506	1713.215	1189.789
12.731	0.786	1710.897	1190.275
13.746	4.232	1717.652	1222.062
14.761	10.872	1731.311	1284.271
15.775	15.830	1741.364	1330.918
16.790	17.088	1742.487	1341.612
17.804	16.249	1738.976	1332.170
18.819	15.261	1736.534	1322.392
19.834	14.577	1734.147	1315.061
20.848	14.448	1732.252	1312.495
21.863	14.210	1730.853	1309.449
22.877	14.007	1729.076	1306.387
23.892	13.766	1727.434	1303.138
24.907	13.550	1726.373	1300.534
25.921	13.579	1725.328	1299.852
26.936	13.561	1724.224	1298.768
27.950	13.696	1723.758	1299.357
28.965	13.697	1723.055	1298.720
29.980	13.649	1722.890	1298.110
30.994	13.662	1721.437	1296.996
32.009	13.833	1720.434	1297.465
33.023	13.850	1719.421	1296.724
34.038	13.852	1718.559	1295.974
35.053	13.829	1717.288	1294.722
36.067	13.829	1716.083	1293.699
37.082	13.722	1715.429	1292.251
38.096	13.855	1713.815	1291.957
39.111	13.811	1713.623	1291.361
40.126	13.768	1712.919	1290.377
41.140	13.714	1711.602	1288.849
42.155	13.794	1709.937	1288.103
43.169	13.654	1708.795	1286.043
44.184	13.654	1707.491	1284.950
45.199	13.633	1706.715	1284.091
46.213	13.743	1705.041	1283.568
47.228	13.686	1703.892	1282.150
48.242	13.680	1702.504	1280.947
49.257	13.707	1701.375	1280.187
50.271	13.757	1699.742	1279.230
51.286	13.636	1698.942	1277.588
52.301	13.741	1697.289	1277.038
53.315	13.697	1696.154	1275.737
54.330	13.713	1694.425	1274.442
55.344	13.672	1692.942	1272.903
56.359	13.689	1691.341	1271.717
57.374	13.656	1690.391	1270.635
58.388	13.658	1689.300	1269.713
59.403	13.615	1688.059	1268.346
60.417	13.647	1686.003	1266.928
61.432	13.556	1685.242	1265.551
62.447	13.572	1683.986	1264.620
63.461	13.622	1682.268	1263.594
64.476	13.558	1681.715	1262.581
65.490	13.509	1680.352	1261.076
66.505	13.609	1678.939	1260.664
67.520	13.550	1678.270	1259.597
68.534	13.520	1677.025	1258.327
69.549	13.585	1675.284	1257.401
70.563	13.572	1674.528	1256.628
71.578	13.629	1673.041	1255.828
72.593	13.489	1672.230	1254.046
73.607	13.495	1671.012	1253.067
74.622	13.565	1669.459	1252.325
75.636	13.453	1668.678	1250.784
76.651	13.521	1667.995	1250.672
77.666	13.456	1667.357	1249.593
78.680	13.481	1665.991	1248.650
79.695	13.525	1664.748	1247.938
80.709	13.493	1663.397	1246.576
81.724	13.562	1662.531	1246.335
82.739	13.554	1661.556	1245.430
83.753	13.571	1660.789	1244.872
84.768	13.691	1659.669	1244.826
85.782	13.765	1658.743	1244.575
86.797	13.812	1657.898	1244.185
87.812	13.691	1656.829	1242.366
88.826	13.673	1655.767	1241.323
89.841	13.670	1654.502	1240.242
90.855	13.625	1653.721	1239.211
91.870	13.698	1652.718	1238.896
92.884	13.795	1650.963	1238.193
93.899	13.754	1650.193	1237.201
94.914	13.789	1648.500	1236.084
95.928	13.797	1647.387	1235.196
96.943	13.803	1645.917	1234.033
97.957	13.871	1644.485	1233.356
98.972	13.778	1642.925	1231.382
99.987	13.818	1641.511	1230.516
101.001	13.818	1639.627	1228.989
102.016	13.814	1637.444	1227.218
103.030	13.738	1636.690	1225.981
104.045	13.775	1635.519	1225.271
105.060	13.847	1633.742	1224.364
106.074	13.788	1632.098	1222.586
107.089	13.697	1630.545	1220.644
108.103	13.657	1629.268	1219.287
109.118	13.685	1628.080	1218.492
110.133	13.636	1626.347	1216.730
111.147	13.670	1624.588	1215.554
112.162	13.629	1623.579	1214.395
113.176	13.591	1621.691	1212.593
114.191	13.699	1620.166	1212.140
115.206	13.766	1619.137	1211.749
116.220	13.712	1617.569	1210.074
117.235	13.722	1616.552	1209.283
118.249	13.627	1615.598	1207.768
119.264	13.670	1613.815	1206.637
120.279	13.641	1612.308	1205.196
121.293	13.676	1610.729	1204.166
122.308	13.579	1609.552	1202.471
123.322	13.707	1607.304	1201.615
124.337	13.604	1606.224	1199.957
125.352	13.669	1604.573	1199.089
126.366	13.577	1603.876	1197.793
127.381	13.546	1602.827	1196.679
128.395	13.539	1601.485	1195.524
129.410	13.545	1600.006	1194.359
130.424	13.572	1598.657	1193.435
131.439	13.569	1596.956	1192.043
132.454	13.607	1595.856	1191.385
133.468	13.673	1594.203	1190.522
134.483	13.800	1592.773	1190.259
135.497	13.778	1591.297	1188.894
136.512	13.704	1590.156	1187.404
137.527	13.715	1588.361	1186.041
138.541	13.684	1587.336	1184.946
139.556	13.816	1585.894	1184.706
140.570	13.761	1584.757	1183.361
141.585	13.882	1582.870	1182.707
142.600	13.847	1582.191	1181.846
143.614	13.850	1580.979	1180.858
144.629	13.988	1579.322	1180.503
145.643	14.030	1577.766	1179.533
146.658	13.884	1577.386	1178.107
147.673	13.951	1575.561	1177.110
148.687	13.937	1573.827	1175.616
149.702	13.918	1572.130	1174.105
150.716	13.822	1570.799	1172.335
151.731	13.934	1569.190	1171.818
152.746	13.798	1567.743	1169.677
153.760	13.874	1566.278	1169.013
154.775	13.821	1565.296	1167.806
155.789	13.924	1564.359	1167.729
156.804	14.035	1562.863	1167.287
157.819	14.026	1561.462	1166.071
158.833	13.976	1560.269	1164.730
159.848	13.972	1559.377	1163.932
160.862	14.222	1557.082	1163.862
161.877	14.119	1556.187	1162.371
162.892	14.092	1554.967	1161.167
163.906	14.043	1553.730	1159.803
164.921	13.961	1552.653	1158.325
165.935	13.954	1551.645	1157.421
166.950	13.968	1550.567	1156.614
167.964	14.056	1549.011	1155.960
168.979	14.011	1547.991	1154.784
169.994	14.125	1546.819	1154.601
171.008	14.067	1546.039	1153.513
172.023	14.022	1545.231	1152.496
173.037	14.016	1543.405	1150.991
174.052	14.119	1542.183	1150.690
175.067	14.158	1541.213	1150.130
176.081	14.067	1540.215	1148.659
177.096	14.069	1539.110	1147.745
178.110	14.136	1537.349	1146.790
179.125	14.138	1536.511	1146.082
180.140	14.192	1535.087	1145.290
181.154	14.081	1534.511	1143.996
182.169	14.189	1533.008	1143.517
183.183	14.201	1531.714	1142.532
184.198	14.204	1530.994	1141.915
185.213	14.331	1529.781	1141.778
186.227	14.252	1528.129	1139.905
187.242	14.242	1527.431	1139.215
188.256	14.309	1526.285	1138.715
189.271	14.371	1525.239	1138.259
190.286	14.430	1523.754	1137.453
191.300	14.361	1523.134	1136.420
192.315	14.289	1521.621	1134.701
193.329	14.244	1520.245	1133.265
194.344	14.226	1519.618	1132.573
195.359	14.218	1518.390	1131.505
196.373	14.213	1517.803	1130.935
197.388	14.258	1516.687	1130.309
198.402	14.394	1515.051	1129.907
199.417	14.455	1513.755	1129.259
200.432	14.508	1512.394	1128.502
201.446	14.509	1511.970	1128.090
202.461	14.522	1510.640	1127.089
203.475	14.543	1509.791	1126.494
204.490	14.583	1508.191	1125.475
205.504	14.529	1507.494	1124.489
206.519	14.532	1506.384	1123.582
207.534	14.527	1505.357	1122.683
208.548	14.556	1503.907	1121.697
209.563	14.587	1502.744	1120.936
210.577	14.532	1501.622	1119.629
211.592	14.513	1500.968	1118.915
212.607	14.600	1500.156	1118.795
213.621	14.572	1500.002	1118.396
214.636	14.599	1498.592	1117.423
215.650	14.760	1497.310	1117.447
216.665	14.755	1496.113	1116.424
217.680	14.647	1495.977	1115.503
218.694	14.752	1495.046	1115.406
219.709	14.805	1493.695	1114.657
220.723	14.674	1493.155	1113.283
221.738	14.767	1492.084	1113.001
222.753	14.821	1490.742	1112.261
223.767	14.755	1490.239	1111.350
224.782	14.828	1488.880	1110.725
225.796	14.854	1487.737	1109.947
226.811	14.767	1487.001	1108.719
227.826	14.900	1486.052	1108.796
228.840	14.851	1485.239	1107.768
229.855	14.812	1484.538	1106.890
230.869	14.897	1483.004	1106.206
231.884	14.917	1482.155	1105.611
232.899	14.854	1481.174	1104.362
233.913	14.924	1479.777	1103.685
234.928	14.839	1478.246	1101.890
235.942	14.916	1477.281	1101.581
236.957	14.904	1476.059	1100.489
237.972	14.879	1474.958	1099.409
238.986	14.903	1473.814	1098.618
240.001	14.857	1473.287	1097.821
241.015	15.027	1471.893	1097.805
242.030	14.917	1471.240	1096.496
243.045	14.997	1470.209	1096.155
244.059	14.948	1469.340	1095.091
245.074	15.016	1468.054	1094.482
246.088	15.009	1467.132	1093.652
247.103	15.039	1466.420	1093.221
248.117	15.201	1465.397	1093.413
249.132	15.142	1464.538	1092.291
250.147	15.185	1464.239	1092.251
251.161	15.197	1463.483	1091.671
252.176	15.248	1462.704	1091.326
253.190	15.358	1461.320	1090.911
254.205	15.256	1461.005	1089.917
255.220	15.307	1460.213	1089.565
256.234	15.312	1459.317	1088.829
257.249	15.349	1458.535	1088.389
258.263	15.379	1457.653	1087.831
259.278	15.484	1456.489	1087.543
260.293	15.442	1455.537	1086.464
261.307	15.475	1454.361	1085.705
262.322	15.479	1454.141	1085.472
263.336	15.527	1453.445	1085.164
264.351	15.485	1452.489	1084.082
265.366	15.543	1451.103	1083.330
266.380	15.535	1450.928	1083.047
267.395	15.478	1449.483	1081.506
268.409	15.533	1448.856	1081.301
269.424	15.632	1447.092	1080.526
270.439	15.604	1446.255	1079.621
271.453	15.595	1445.502	1078.904
272.468	15.573	1444.730	1078.093
273.482	15.600	1444.299	1077.851
274.497	15.540	1443.251	1076.592
275.512	15.604	1442.100	1076.046
276.526	15.617	1441.420	1075.525
277.541	15.625	1440.051	1074.460
278.555	15.656	1439.284	1073.993
279.570	15.620	1438.744	1073.265
280.585	15.621	1437.818	1072.483
281.599	15.534	1437.122	1071.315
282.614	15.744	1435.896	1071.645
283.628	15.697	1434.454	1070.175
284.643	15.708	1433.473	1069.416
285.657	15.712	1432.294	1068.468
286.672	15.738	1431.407	1067.877
287.687	15.808	1430.405	1067.477
288.701	15.731	1429.657	1066.335
289.716	15.824	1428.822	1066.207
290.730	15.860	1427.916	1065.667
291.745	15.833	1426.901	1064.642
292.760	15.837	1425.724	1063.698
293.774	15.881	1424.465	1062.941
294.789	15.837	1423.785	1062.064
295.803	15.924	1422.890	1061.850
296.818	15.792	1422.775	1060.836
297.833	16.024	1420.806	1060.739
298.847	15.925	1419.928	1059.363
299.862	15.941	1419.162	1058.803
300.876	15.950	1418.081	1057.957
301.891	15.973	1417.087	1057.266
302.906	16.062	1416.401	1057.216
303.920	16.030	1415.632	1056.349
304.935	16.090	1414.915	1056.100
305.949	16.098	1413.837	1055.250
306.964	16.181	1413.431	1055.372
307.979	16.257	1411.938	1054.637
308.993	16.202	1411.273	1053.708
310.008	16.103	1410.406	1052.346
311.022	16.223	1409.305	1052.178
312.037	16.277	1408.116	1051.537
313.052	16.274	1407.111	1050.677
314.066	16.202	1406.153	1049.420
315.081	16.151	1405.205	1048.302
316.095	16.144	1404.223	1047.430
317.110	16.135	1403.203	1046.526
318.125	16.185	1402.066	1045.892
319.139	16.193	1401.186	1045.191
320.154	16.276	1400.112	1044.815
321.168	16.163	1398.723	1042.988
322.183	16.263	1398.172	1043.103
323.197	16.300	1396.942	1042.316
324.212	16.282	1396.129	1041.511
325.227	16.326	1395.332	1041.092
326.241	16.224	1395.024	1040.143
327.256	16.325	1393.924	1039.850
328.270	16.234	1393.123	1038.603
329.285	16.345	1392.202	1038.507
330.300	16.466	1390.664	1038.013
331.314	16.313	1389.908	1036.416
332.329	16.379	1389.139	1036.155
333.343	16.321	1388.105	1034.934
334.358	16.408	1387.055	1034.598
335.373	16.450	1386.528	1034.368
336.387	16.455	1385.745	1033.726
337.402	16.392	1384.901	1032.616
338.416	16.481	1384.228	1032.567
339.431	16.496	1383.658	1032.143
340.446	16.549	1382.740	1031.688
341.460	16.654	1381.352	1031.201
342.475	16.577	1380.763	1030.204
343.489	16.579	1379.858	1029.445
344.504	16.660	1378.908	1029.139
345.519	16.705	1377.923	1028.589
346.533	16.719	1376.928	1027.841
347.548	16.759	1376.009	1027.302
348.562	16.710	1375.340	1026.418
349.577	16.782	1374.068	1025.812
350.592	16.832	1373.961	1025.948
351.606	16.643	1373.138	1024.095
352.621	16.572	1371.782	1022.566
353.635	16.676	1370.936	1022.471
354.650	16.689	1369.714	1021.552
355.665	16.726	1368.648	1020.888
356.679	16.776	1367.678	1020.375
357.694	16.645	1366.743	1018.795
358.708	16.812	1365.067	1018.460
359.723	16.785	1364.206	1017.567
360.738	16.878	1363.098	1017.209
361.752	16.918	1361.864	1016.440
362.767	16.880	1361.017	1015.490
363.781	16.841	1360.302	1014.631
364.796	16.755	1359.863	1013.697
365.810	16.811	1358.907	1013.234
366.825	17.031	1357.910	1013.711
367.840	17.045	1357.309	1013.259
368.854	17.086	1356.588	1012.874
369.869	16.951	1356.588	1011.979
370.883	17.006	1355.910	1011.715
371.898	17.036	1354.725	1010.919
372.913	17.087	1353.476	1010.202
373.927	17.061	1352.723	1009.397
374.942	17.114	1351.602	1008.784
375.956	17.093	1351.180	1008.255
376.971	17.218	1350.245	1008.209
377.986	17.168	1349.331	1007.140
379.000	17.198	1348.550	1006.649
380.015	17.213	1347.420	1005.801
381.029	17.287	1347.115	1005.924
382.044	17.233	1346.339	1004.939
383.059	17.301	1345.226	1004.416
384.073	17.254	1344.855	1003.778
385.088	17.255	1344.488	1003.415
386.102	17.333	1343.728	1003.224
387.117	17.327	1342.972	1002.533
388.132	17.296	1341.773	1001.367
389.146	17.293	1340.909	1000.619
390.161	17.288	1340.085	999.881
391.175	17.284	1339.340	999.214
392.190	17.344	1338.250	998.664
393.205	17.474	1337.264	998.604
394.219	17.451	1336.602	997.889
395.234	17.465	1335.287	996.901
396.248	17.550	1333.928	996.295
397.263	17.497	1332.510	994.836
398.278	17.416	1331.236	993.327
399.292	17.435	1330.270	992.628
400.307	17.410	1329.736	991.997
401.321	17.388	1328.588	990.920
402.336	17.409	1327.430	990.094
403.350	17.473	1325.919	989.253
404.365	17.384	1325.538	988.364
405.380	17.463	1324.503	987.960
406.394	17.531	1324.030	987.913
407.409	17.564	1322.803	987.106
408.423	17.670	1322.098	987.102
409.438	17.651	1321.224	986.254
410.453	17.636	1320.698	985.687
411.467	17.735	1319.953	985.614
412.482	17.704	1319.608	985.094
413.496	17.642	1318.935	984.146
414.511	17.593	1318.162	983.198
415.526	17.769	1317.360	983.529
416.540	17.743	1316.520	982.663
417.555	17.837	1315.506	982.364
418.569	17.787	1315.396	981.906
419.584	17.829	1314.819	981.632
420.599	17.908	1313.616	981.099
421.613	101.757	1364.469	1491.993
422.628	100.276	1371.829	1492.052
