DTS Sentinel unit serial number:	SN413079Multiplexer serial number:	ORYXHardware model number:	OX4-SRSoftware version number:	ORYX F/W v4.00 Oryx Data Collector v3.7.2.0data status	okinstallation	princeton_trtdifferential loss correction	single-endedforward channel	channel 4reverse channel	N/Adate	2019/09/12time	18:42:18forward acquisition time	15.00reverse acquisition time	0.00gamma	496.2192k internal	0.2307k external	0.2307temperature offset calibration	1.0133default loss term (dB/km)	0.3790temperature slope calibration	1.0000multiplexer offset coefficient	1.0000multiplexer slope coefficient	1.0000fibre end	0.00T internal ref (°C)	33.06T ext. ref 1 (°C)	2.94T ext. ref 2 (°C)	27.57length (m)	temperature (°C)	Stokes	anti-Stokes-747.200	-19.529	-0.194	0.122
-746.185	800.000	-0.242	-0.766
-745.171	800.000	0.060	-0.186
-744.156	160.495	-0.387	-0.549
-743.142	-79.794	1.056	-0.361
-742.127	68.596	-0.630	0.657
-741.112	51.534	-0.319	0.308
-740.098	-113.657	-0.758	0.150
-739.083	-170.994	0.826	0.029
-738.069	-61.129	-0.506	-0.217
-737.054	50.251	0.183	0.176
-736.039	-200.000	0.047	-0.213
-735.025	53.640	-0.432	-0.422
-734.010	-150.022	-0.067	-0.005
-732.996	-200.000	-0.067	0.438
-731.981	-83.790	-0.546	-0.177
-730.966	655.442	0.213	-0.557
-729.952	-200.000	0.007	0.448
-728.937	94.403	-0.310	-0.358
-727.923	-37.819	-0.592	0.320
-726.908	-140.029	0.374	-0.040
-725.894	-87.543	-0.491	0.151
-724.879	-14.324	0.220	0.144
-723.864	-151.321	-0.545	-0.041
-722.850	63.783	0.204	-0.208
-721.835	-89.040	0.961	-0.289
-720.821	-71.304	-0.246	0.094
-719.806	-96.203	-0.650	-0.175
-718.791	-67.859	0.393	-0.156
-717.777	-200.000	0.075	-0.617
-716.762	800.000	-0.237	0.699
-715.748	-56.358	-0.858	-0.387
-714.733	270.827	0.162	-0.289
-713.718	-40.734	-0.872	-0.459
-712.704	800.000	-0.236	0.889
-711.689	-40.971	0.566	0.297
-710.675	-40.846	0.245	-0.129
-709.660	242.954	-0.372	-0.632
-708.645	726.119	0.304	-0.824
-707.631	800.000	0.189	0.602
-706.616	-69.474	0.711	-0.277
-705.602	-126.170	-0.817	0.124
-704.587	-36.639	-0.219	-0.119
-703.572	-134.651	-0.562	-0.069
-702.558	-86.712	0.719	-0.223
-701.543	-125.769	-0.550	0.084
-700.529	365.282	0.322	-0.659
-699.514	-0.814	0.086	0.062
-698.499	-200.000	-0.057	-0.472
-697.485	-152.815	-0.396	0.028
-696.470	-87.027	0.168	-0.052
-695.456	359.532	-0.258	0.523
-694.441	-200.000	0.092	0.722
-693.426	-129.088	-0.924	-0.131
-692.412	-143.327	0.493	0.048
-691.397	-200.000	0.039	-0.339
-690.383	22.372	-0.588	-0.487
-689.368	-49.959	0.095	-0.046
-688.354	89.388	0.457	-0.516
-687.339	118.809	-0.649	0.814
-686.324	-200.000	-0.421	-0.002
-685.310	-60.686	0.316	-0.136
-684.295	-200.000	0.056	0.662
-683.281	-139.048	0.606	-0.067
-682.266	800.000	-0.234	-0.770
-681.251	-9.212	-0.107	0.073
-680.237	800.000	0.053	-0.199
-679.222	-137.495	0.262	0.030
-678.208	378.102	0.276	0.572
-677.193	17.121	0.231	0.186
-676.178	800.000	0.127	-0.362
-675.164	366.858	-0.270	0.553
-674.149	215.136	-0.186	0.299
-673.135	-200.000	-0.185	-1.071
-672.120	-200.000	0.079	0.456
-671.105	316.305	0.136	0.260
-670.091	152.069	-0.234	-0.323
-669.076	-72.355	0.635	-0.238
-668.062	10.640	-0.569	-0.440
-667.047	745.050	0.197	-0.539
-666.032	-34.934	0.610	0.337
-665.018	-79.830	-0.434	0.148
-664.003	-31.008	-0.248	0.142
-662.989	107.580	0.322	-0.388
-661.974	208.286	-0.142	0.225
-660.959	60.730	-0.594	-0.597
-659.945	154.033	0.428	0.595
-658.930	-200.000	0.019	0.828
-657.916	800.000	-0.072	0.281
-656.901	41.303	-0.446	0.409
-655.886	121.097	0.469	-0.591
-654.872	-29.564	-0.693	0.401
-653.857	237.577	-0.043	-0.072
-652.843	-158.107	0.297	0.018
-651.828	252.509	-0.148	0.256
-650.814	-28.799	-0.392	-0.229
-649.799	-200.000	0.160	-1.473
-648.784	354.961	-0.359	-0.723
-647.770	472.506	-0.042	0.095
-646.755	-95.157	-0.595	-0.163
-645.741	800.000	-0.099	-0.363
-644.726	-134.367	-0.245	-0.030
-643.711	13.376	-0.165	0.130
-642.697	-146.425	-0.890	-0.079
-641.682	510.551	0.257	0.605
-640.668	228.526	0.688	-1.136
-639.653	-200.000	0.039	0.478
-638.638	-200.000	0.106	-0.590
-637.624	-157.788	-0.649	0.039
-636.609	-200.000	-0.123	0.884
-635.595	-200.000	0.077	0.595
-634.580	14.350	-0.648	-0.512
-633.565	800.000	-0.125	0.508
-632.551	-20.290	0.202	-0.126
-631.536	67.139	-0.471	-0.486
-630.522	533.893	-0.206	0.494
-629.507	113.373	0.393	0.483
-628.492	255.094	0.235	-0.407
-627.478	-59.149	0.257	0.112
-626.463	-200.000	0.150	1.014
-625.449	-7.036	0.455	-0.313
-624.434	800.000	-0.067	0.216
-623.419	-12.961	-0.336	0.221
-622.405	-89.838	0.416	-0.123
-621.390	-5.896	-0.123	0.085
-620.376	184.855	0.209	-0.314
-619.361	-99.967	0.177	0.045
-618.346	11.340	0.353	0.273
-617.332	-94.916	-0.288	-0.079
-616.317	-124.025	-0.403	-0.064
-615.303	384.443	0.107	-0.223
-614.288	-157.416	0.653	0.040
-613.273	-17.353	-0.417	-0.266
-612.259	-74.177	0.485	0.177
-611.244	800.000	0.281	0.901
-610.230	-200.000	0.161	0.883
-609.215	-21.953	-0.499	-0.307
-608.201	609.778	0.422	1.067
-607.186	800.000	-0.102	0.384
-606.171	-200.000	-0.055	0.427
-605.157	-200.000	0.081	-0.373
-604.142	-76.383	0.294	0.105
-603.128	354.193	0.193	0.387
-602.113	146.572	-0.170	-0.231
-601.098	800.000	0.167	-0.552
-600.084	-19.391	0.248	-0.155
-599.069	-24.372	1.004	0.605
-598.055	800.000	0.250	-0.821
-597.040	-82.233	0.253	0.083
-596.025	368.924	0.268	-0.547
-595.011	-37.359	-0.625	-0.337
-593.996	800.000	-0.097	-0.388
-592.982	-200.000	0.034	0.314
-591.967	-144.077	-0.921	-0.087
-590.952	-54.089	-0.092	0.042
-589.938	218.217	-0.137	0.220
-588.923	129.003	-0.433	0.558
-587.909	-98.301	0.925	-0.240
-586.894	591.325	0.320	-0.797
-585.879	188.921	-0.537	-0.813
-584.865	800.000	0.120	-0.374
-583.850	-200.000	0.029	-0.253
-582.836	6.597	0.614	-0.461
-581.821	280.600	0.294	0.532
-580.806	90.515	0.816	0.923
-579.792	-200.000	0.016	-0.120
-578.777	800.000	-0.176	0.622
-577.763	155.819	0.345	0.480
-576.748	186.778	-0.424	0.638
-575.733	-30.774	-0.726	-0.415
-574.719	7.742	0.330	0.250
-573.704	-147.074	0.277	-0.024
-572.690	-25.818	0.377	0.224
-571.675	7.967	-0.348	-0.264
-570.661	-92.712	0.924	0.261
-569.646	-145.724	0.360	-0.032
-568.631	159.531	0.430	-0.604
-567.617	-76.151	0.587	-0.209
-566.602	800.000	-0.128	-0.524
-565.588	-123.121	-0.430	0.070
-564.573	44.111	0.418	-0.387
-563.558	-53.558	0.453	0.209
-562.544	-56.534	0.454	0.203
-561.529	-4.022	0.214	0.150
-560.515	106.208	-0.385	0.460
-559.500	410.794	0.192	-0.412
-558.485	800.000	0.152	0.506
-557.471	405.149	0.212	-0.451
-556.456	124.364	0.412	-0.523
-555.442	293.988	-0.339	-0.625
-554.427	-200.000	-0.173	1.116
-553.412	96.875	-0.230	0.266
-552.398	800.000	0.036	0.155
-551.383	-37.219	0.613	-0.331
-550.369	-15.060	-0.624	0.403
-549.354	800.000	-0.069	0.271
-548.339	176.542	-0.466	-0.684
-547.325	-42.303	-0.068	-0.035
-546.310	2.869	0.314	-0.230
-545.296	-107.357	0.695	0.154
-544.281	376.513	0.245	0.504
-543.266	50.914	0.647	-0.619
-542.252	800.000	0.283	-0.912
-541.237	-200.000	0.083	0.470
-540.223	-125.811	0.810	0.123
-539.208	-200.000	-0.013	-0.285
-538.193	-200.000	-0.078	-0.639
-537.179	800.000	-0.053	-0.231
-536.164	292.577	0.224	0.411
-535.150	112.663	-0.379	-0.463
-534.135	313.028	-0.264	0.500
-533.121	-118.951	-1.141	0.202
-532.106	800.000	0.142	0.420
-531.091	54.603	0.557	-0.542
-530.077	800.000	-0.048	0.156
-529.062	754.018	-0.329	-0.896
-528.048	38.054	-0.467	0.419
-527.033	128.659	-0.340	0.437
-526.018	315.270	-0.095	-0.181
-525.004	7.692	0.495	-0.374
-523.989	800.000	-0.123	-0.416
-522.975	-172.137	-0.119	-0.004
-521.960	-26.130	-0.268	-0.159
-520.945	-155.191	0.531	0.035
-519.931	291.303	-0.296	0.543
-518.916	-32.198	-0.470	0.265
-517.902	-112.652	-0.832	0.167
-516.887	156.546	0.616	0.857
-515.872	-200.000	0.067	-0.336
-514.858	-200.000	-0.009	0.172
-513.843	38.352	0.462	-0.415
-512.829	141.121	0.309	-0.412
-511.814	566.828	0.306	0.748
-510.799	47.245	0.140	0.131
-509.785	283.799	-0.344	-0.622
-508.770	-200.000	-0.098	0.434
-507.756	-200.000	0.191	-0.897
-506.741	56.357	-0.265	0.259
-505.726	-35.032	-0.430	-0.236
-504.712	183.518	0.220	0.327
-503.697	-13.189	0.739	-0.483
-502.683	162.372	-0.247	0.349
-501.668	-200.000	-0.045	-0.421
-500.653	538.161	0.222	-0.531
-499.639	-90.512	0.234	0.068
-498.624	-194.687	0.926	0.007
-497.610	-93.125	0.184	0.052
-496.595	207.846	-0.255	-0.401
-495.581	-3.733	-0.280	0.196
-494.566	-76.635	-0.613	0.216
-493.551	-50.113	0.706	-0.337
-492.537	233.902	0.055	-0.092
-491.522	285.774	0.170	-0.309
-490.508	-124.426	-1.072	-0.168
-489.493	800.000	0.294	-1.084
-488.478	92.142	-0.252	0.286
-487.464	-123.561	0.807	0.129
-486.449	200.532	0.096	0.148
-485.435	168.917	0.094	-0.135
-484.420	-155.352	0.619	0.040
-483.405	7.647	-0.778	0.586
-482.391	6.199	-0.390	-0.291
-481.376	54.228	-0.424	-0.411
-480.362	74.591	-0.303	-0.321
-479.347	-200.000	0.038	0.204
-478.332	-21.280	1.164	-0.716
-477.318	28.823	-0.448	0.382
-476.303	77.968	0.447	0.480
-475.289	-71.372	0.486	0.183
-474.274	112.201	-0.122	-0.149
-473.259	-138.089	0.491	-0.055
-472.245	300.894	0.232	0.430
-471.230	33.553	0.129	-0.113
-470.216	50.565	-0.409	-0.389
-469.201	-77.971	0.374	-0.130
-468.186	590.810	0.386	0.957
-467.172	20.619	0.325	0.265
-466.157	48.698	-0.588	0.555
-465.143	800.000	-0.058	0.238
-464.128	627.284	-0.306	0.776
-463.113	800.000	0.093	-0.322
-462.099	-200.000	0.032	-0.775
-461.084	-200.000	-0.065	-0.861
-460.070	729.327	0.133	0.357
-459.055	125.900	0.529	0.673
-458.040	-200.000	-0.057	-0.910
-457.026	-200.000	0.061	0.842
-456.011	-65.920	0.794	0.319
-454.997	299.914	0.357	-0.661
-453.982	298.889	-0.184	0.341
-452.968	-119.657	-0.612	-0.106
-451.953	-3.944	-0.823	0.574
-450.938	73.878	-0.124	-0.131
-449.924	22.419	-0.924	-0.759
-448.909	-73.574	0.513	0.188
-447.895	-200.000	-0.189	-1.389
-446.880	-200.000	-0.047	-0.408
-445.865	-32.364	0.187	-0.105
-444.851	0.016	-0.111	-0.080
-443.836	280.408	-0.338	-0.607
-442.822	-187.547	-0.894	-0.012
-441.807	-35.233	-1.008	-0.551
-440.792	46.291	-0.365	-0.340
-439.778	656.178	-0.248	-0.641
-438.763	76.974	-0.382	0.407
-437.749	680.739	0.449	1.175
-436.734	176.487	0.189	0.276
-435.719	-51.564	0.251	-0.118
-434.705	-200.000	0.053	-0.336
-433.690	18.480	0.379	-0.305
-432.676	-56.805	-0.047	0.021
-431.661	-200.000	-0.057	0.504
-430.646	-163.272	-0.332	0.016
-429.632	129.971	-0.582	-0.748
-428.617	259.588	0.116	-0.200
-427.603	-53.178	-0.174	-0.080
-426.588	-31.861	0.373	-0.210
-425.573	33.540	0.294	-0.256
-424.559	476.079	0.207	-0.469
-423.544	388.362	-0.129	0.269
-422.530	-169.981	-0.120	-0.004
-421.515	-49.063	-0.543	-0.261
-420.500	-128.536	-0.155	-0.022
-419.486	-78.362	-0.334	-0.115
-418.471	563.700	-0.331	-0.805
-417.457	93.743	0.158	0.180
-416.442	-200.000	0.061	0.775
-415.428	-82.376	-0.325	0.106
-414.413	98.341	-0.474	-0.548
-413.398	103.973	-0.440	-0.519
-412.384	800.000	-0.190	0.633
-411.369	558.125	0.099	0.240
-410.355	-52.753	-0.359	0.166
-409.340	-88.435	1.279	-0.383
-408.325	-170.709	-0.806	-0.028
-407.311	63.170	-0.264	0.265
-406.296	-147.965	-0.490	0.041
-405.282	260.171	0.235	0.407
-404.267	-121.656	-0.258	0.043
-403.252	37.918	-0.352	-0.314
-402.238	800.000	0.082	0.316
-401.223	-63.352	1.161	0.479
-400.209	800.000	0.095	0.364
-399.194	49.580	-0.210	-0.199
-398.179	-200.000	-0.039	-0.612
-397.165	-96.050	1.112	0.297
-396.150	24.628	0.274	0.228
-395.136	18.239	0.384	0.308
-394.121	96.203	-0.413	-0.473
-393.106	-20.907	0.437	-0.268
-392.092	-200.000	0.187	-0.842
-391.077	153.735	0.390	-0.536
-390.063	433.420	0.201	-0.438
-389.048	51.484	0.211	0.201
-388.033	-137.204	-0.206	-0.023
-387.019	-200.000	0.021	-0.338
-386.004	-200.000	-0.115	0.730
-384.990	-61.336	0.689	-0.291
-383.975	6.253	-0.145	0.107
-382.960	-144.762	0.547	-0.050
-381.946	800.000	-0.231	-0.722
-380.931	-108.299	1.053	0.228
-379.917	-138.786	0.831	0.091
-378.902	193.651	-0.258	-0.392
-377.888	-200.000	0.042	-0.341
-376.873	-25.388	-0.599	0.355
-375.858	0.754	-0.642	-0.461
-374.844	110.885	-0.443	-0.535
-373.829	-158.310	0.323	-0.019
-372.815	336.140	-0.211	0.410
-371.800	-100.208	0.543	-0.135
-370.785	-21.491	-0.518	-0.317
-369.771	-1.815	0.676	0.476
-368.756	-137.505	0.376	0.043
-367.742	-119.859	-0.500	0.086
-366.727	97.333	-0.630	0.725
-365.712	-174.595	-1.269	0.036
-364.698	1.614	1.040	-0.750
-363.683	548.862	-0.161	-0.386
-362.669	415.472	-0.229	-0.490
-361.654	-200.000	-0.551	-0.000
-360.639	27.058	-0.182	-0.153
-359.625	-134.272	-0.297	0.037
-358.610	-36.919	-0.596	0.320
-357.596	-14.087	-0.465	0.301
-356.581	-177.763	-0.353	-0.009
-355.566	-200.000	-0.029	0.433
-354.552	-7.505	0.234	0.158
-353.537	-9.580	0.254	-0.170
-352.523	114.467	0.582	-0.710
-351.508	34.061	-0.378	0.330
-350.493	164.729	0.237	0.335
-349.479	-100.043	-0.376	-0.094
-348.464	-200.000	-0.057	0.304
-347.450	-112.414	0.256	-0.051
-346.435	-94.423	-0.650	-0.178
-345.420	-200.000	-0.168	0.747
-344.406	49.083	0.256	0.241
-343.391	-153.362	-0.662	0.046
-342.377	358.915	-0.375	0.751
-341.362	-83.908	0.278	-0.089
-340.348	800.000	-0.117	0.500
-339.333	16.785	0.869	0.688
-338.318	185.536	0.090	-0.134
-337.304	-200.000	0.101	0.898
-336.289	-69.241	0.379	0.146
-335.275	100.360	0.341	-0.397
-334.260	800.000	-0.083	0.341
-333.245	-147.793	-0.351	-0.029
-332.231	-200.000	-0.017	0.097
-331.216	-4.243	-0.346	-0.240
-330.202	28.827	-0.818	-0.693
-329.187	-23.298	-0.627	0.377
-328.172	-133.590	0.750	-0.094
-327.158	16.846	-0.138	0.109
-326.143	198.926	-0.574	0.880
-325.129	-134.914	0.244	0.029
-324.114	-34.782	0.415	-0.227
-323.099	-45.986	-0.403	-0.199
-322.085	31.321	-0.070	0.060
-321.070	-76.840	0.526	0.184
-320.056	24.208	0.729	0.602
-319.041	-93.612	0.223	-0.061
-318.026	121.116	-0.652	0.812
-317.012	-102.531	0.242	0.058
-315.997	89.932	0.169	-0.188
-314.983	-200.000	-0.274	-1.205
-313.968	-65.599	-0.722	0.290
-312.953	708.355	-0.106	-0.280
-311.939	-200.000	0.056	0.356
-310.924	179.645	0.520	0.762
-309.910	-59.211	0.390	-0.168
-308.895	22.689	-0.171	-0.140
-307.880	-200.000	-0.068	0.374
-306.866	800.000	-0.218	0.751
-305.851	-105.069	0.551	0.126
-304.837	-21.294	-0.210	-0.128
-303.822	-200.000	0.004	0.324
-302.807	-137.863	-0.473	-0.053
-301.793	742.521	-0.323	-0.869
-300.778	-40.459	0.376	0.195
-299.764	-57.260	0.120	0.053
-298.749	800.000	-0.095	-0.284
-297.735	-106.025	0.168	-0.038
-296.720	-200.000	0.077	0.344
-295.705	124.240	-0.659	0.827
-294.691	35.898	-0.136	0.120
-293.676	-200.000	0.092	-0.493
-292.662	-200.000	-0.020	-0.676
-291.647	704.807	-0.236	-0.622
-290.632	-139.009	0.766	0.083
-289.618	8.026	0.335	0.251
-288.603	-134.801	-0.068	-0.008
-287.589	122.275	-0.509	-0.634
-286.574	-200.000	-0.086	0.465
-285.559	-11.869	-0.275	-0.180
-284.545	-135.246	-0.306	-0.037
-283.530	117.935	0.299	-0.368
-282.516	800.000	-0.148	-0.497
-281.501	186.688	-0.269	-0.400
-280.486	16.835	0.252	-0.199
-279.472	-200.000	0.076	0.517
-278.457	103.532	-0.353	0.414
-277.443	-200.000	0.170	1.028
-276.428	800.000	-0.213	-0.775
-275.413	440.398	-0.177	-0.386
-274.399	-153.120	-1.178	-0.083
-273.384	-200.000	0.080	-0.536
-272.370	-200.000	0.018	0.407
-271.355	732.541	0.296	0.791
-270.340	21.749	0.525	0.427
-269.326	6.969	0.849	0.632
-268.311	89.273	0.232	-0.258
-267.297	-200.000	0.007	0.158
-266.282	-192.560	-0.526	-0.005
-265.267	204.928	-0.311	-0.482
-264.253	800.000	0.249	0.788
-263.238	115.397	0.378	-0.461
-262.224	-200.000	0.087	0.433
-261.209	-200.000	0.125	0.806
-260.195	-81.869	-0.220	0.072
-259.180	-72.936	-0.805	-0.295
-258.165	800.000	-0.092	0.360
-257.151	800.000	0.222	0.744
-256.136	61.871	-0.291	0.289
-255.122	370.255	-0.146	0.295
-254.107	-102.674	0.705	0.168
-253.092	53.278	0.598	0.571
-252.078	-58.699	-0.671	-0.290
-251.063	2.793	0.358	0.259
-250.049	800.000	-0.065	0.197
-249.034	-107.547	-0.134	0.029
-248.019	10.531	0.703	0.534
-247.005	70.430	-0.233	-0.240
-245.990	27.374	-0.733	0.615
-244.976	-200.000	-0.010	0.384
-243.961	-200.000	0.062	-0.732
-242.946	44.628	-0.339	0.311
-241.932	-55.155	0.469	-0.210
-240.917	-34.168	-0.555	0.304
-239.903	-200.000	-0.058	0.711
-238.888	-149.280	-0.603	0.048
-237.873	89.037	0.043	0.047
-236.859	-200.000	0.098	1.069
-235.844	-1.535	0.372	-0.261
-234.830	-18.236	-0.871	-0.543
-233.815	294.378	-0.310	-0.565
-232.800	-75.994	-0.375	0.132
-231.786	49.756	-0.608	-0.571
-230.771	45.023	-0.376	-0.345
-229.757	-200.000	-0.061	0.420
-228.742	-57.074	-0.804	0.353
-227.727	-77.284	-0.710	0.246
-226.713	-7.184	0.186	-0.125
-225.698	800.000	-0.076	-0.217
-224.684	64.080	-0.290	0.291
-223.669	46.181	0.225	-0.208
-222.655	-3.613	-0.119	0.082
-221.640	-200.000	-0.039	0.881
-220.625	-41.287	-0.206	0.106
-219.611	-200.000	0.079	-0.427
-218.596	-63.584	-0.996	-0.407
-217.582	450.732	0.244	0.536
-216.567	-69.340	-0.925	-0.354
-215.552	-65.243	-0.661	-0.265
-214.538	-132.127	1.122	0.145
-213.523	40.563	-0.190	0.170
-212.509	800.000	0.154	-0.468
-211.494	28.251	0.318	0.267
-210.479	-123.724	-0.740	-0.117
-209.465	-181.972	-0.253	0.005
-208.450	-190.419	-0.479	-0.005
-207.436	-121.826	0.339	0.056
-206.421	-200.000	0.035	0.419
-205.406	24.303	0.402	-0.330
-204.392	800.000	0.158	0.579
-203.377	-200.000	0.413	-0.001
-202.363	-140.488	-0.635	0.066
-201.348	-200.000	-0.010	0.281
-200.333	800.000	0.210	-0.679
-199.319	-200.000	-0.044	-0.403
-198.304	187.534	0.796	1.182
-197.290	12.434	0.448	0.344
-196.275	-12.689	0.412	-0.267
-195.260	-200.000	0.011	-0.163
-194.246	-200.000	0.047	-0.208
-193.231	5.522	-0.222	-0.163
-192.217	-115.002	0.477	0.090
-191.202	-82.274	0.695	-0.225
-190.187	348.762	0.150	-0.295
-189.173	-200.000	0.004	0.342
-188.158	364.500	-0.505	1.011
-187.144	71.418	0.543	-0.561
-186.129	53.638	0.758	-0.724
-185.114	597.922	-0.084	0.208
-184.100	38.085	0.446	-0.395
-183.085	87.278	0.674	-0.742
-182.071	-39.332	0.218	0.114
-181.056	800.000	-0.137	-0.455
-180.042	-1.357	0.355	0.249
-179.027	177.081	-0.201	-0.291
-178.012	133.964	-0.750	-0.966
-176.998	57.970	-0.400	0.390
-175.983	373.413	-0.211	0.426
-174.969	179.007	-0.592	-0.861
-173.954	-200.000	0.007	0.798
-172.939	-15.864	0.456	0.288
-171.925	357.764	-0.204	-0.405
-170.910	-126.005	-0.353	-0.053
-169.896	-125.642	0.672	-0.101
-168.881	362.462	0.211	-0.422
-167.866	-128.532	0.689	0.097
-166.852	10.598	-0.576	0.436
-165.837	-75.292	0.890	-0.316
-164.823	153.166	-0.128	-0.174
-163.808	-114.933	0.358	0.068
-162.793	-36.769	0.655	0.349
-161.779	-30.704	-0.586	0.329
-160.764	-43.167	0.589	-0.296
-159.750	-33.682	-0.206	0.113
-158.735	-42.559	0.937	0.474
-157.720	-138.609	-0.806	0.088
-156.706	-200.000	0.079	-0.421
-155.691	-128.788	-0.409	0.057
-154.677	-44.938	0.479	-0.237
-153.662	-101.540	-0.439	0.106
-152.647	-87.834	-0.696	-0.208
-151.633	447.956	0.301	-0.659
-150.618	-189.025	0.130	0.002
-149.604	630.755	0.121	0.305
-148.589	201.134	-0.261	-0.400
-147.574	124.451	-0.550	-0.687
-146.560	-77.706	-0.715	0.246
-145.545	73.525	-0.520	0.541
-144.531	-65.227	-0.358	-0.143
-143.516	-125.417	-0.334	0.051
-142.502	-200.000	-0.120	-0.660
-141.487	71.268	0.279	0.288
-140.472	-139.653	-0.869	-0.092
-139.458	-69.172	0.598	-0.229
-138.443	118.413	-0.364	0.446
-137.429	122.587	-0.490	-0.608
-136.414	-200.000	0.052	-0.663
-135.399	-111.783	-0.728	-0.146
-134.385	-200.000	0.029	-0.741
-133.370	-113.051	-0.410	-0.080
-132.356	800.000	-0.071	0.242
-131.341	-136.177	-0.661	-0.077
-130.326	-200.000	0.048	0.358
-129.312	-179.280	0.408	0.009
-128.297	-200.000	-0.027	-0.439
-127.283	787.448	0.211	0.576
-126.268	-37.917	0.389	-0.205
-125.253	22.789	-0.090	0.073
-124.239	-94.741	-0.219	-0.059
-123.224	-65.217	0.363	0.145
-122.210	-200.000	-0.096	-0.601
-121.195	120.720	0.304	0.375
-120.180	247.969	-0.314	0.526
-119.166	-200.000	-0.088	-0.405
-118.151	800.000	0.125	-0.358
-117.137	152.010	0.345	-0.467
-116.122	23.484	0.188	0.154
-115.107	800.000	0.183	-0.529
-114.093	5.626	0.185	-0.136
-113.078	-137.033	0.120	-0.014
-112.064	-99.826	-0.806	0.200
-111.049	-63.738	0.788	0.320
-110.034	-104.892	0.971	0.221
-109.020	170.193	-0.122	0.174
-108.005	800.000	-0.037	-0.152
-106.991	748.145	-0.300	-0.802
-105.976	187.237	-0.468	0.693
-104.962	22.711	-0.786	0.638
-103.947	-118.585	-0.739	-0.130
-102.932	-200.000	-0.015	0.246
-101.918	-200.000	0.009	0.076
-100.903	-200.000	0.161	-0.786
-99.889	85.943	0.162	-0.177
-98.874	800.000	0.310	1.274
-97.859	-87.899	0.398	-0.119
-96.845	157.816	0.040	0.055
-95.830	-2.115	0.502	-0.349
-94.816	-135.166	0.471	-0.056
-93.801	-89.339	1.223	-0.357
-92.786	-11.604	0.528	0.344
-91.772	-200.000	-0.015	-0.402
-90.757	-160.300	-0.597	-0.032
-89.743	-200.000	0.112	0.590
-88.728	-104.859	-1.082	-0.246
-87.713	573.116	-0.236	-0.569
-86.699	-200.000	-0.034	0.479
-85.684	435.460	0.400	-0.862
-84.670	-200.000	-0.128	-0.749
-83.655	142.321	-0.479	0.629
-82.640	-44.290	-0.482	0.240
-81.626	-200.000	0.063	0.343
-80.611	800.000	-0.053	0.220
-79.597	467.291	0.264	-0.586
-78.582	-150.145	-0.747	0.057
-77.567	373.417	0.137	-0.277
-76.553	-200.000	-0.116	0.683
-75.538	800.000	0.124	0.473
-74.524	-178.832	0.427	-0.010
-73.509	-116.391	-0.677	0.124
-72.494	800.000	0.249	0.786
-71.480	-92.468	-0.465	0.129
-70.465	-66.564	-0.652	0.256
-69.451	-63.817	-0.385	-0.156
-68.436	-117.852	-0.230	0.041
-67.422	-3.959	0.731	0.502
-66.407	800.000	0.062	0.251
-65.392	-65.262	1.209	0.482
-64.378	-88.802	-0.795	0.234
-63.363	-86.237	-0.117	-0.036
-62.349	-76.086	1.260	-0.441
-61.334	143.417	-1.027	-1.354
-60.319	800.000	-0.193	0.572
-59.305	-200.000	-0.138	-0.798
-58.290	-6.283	1.045	0.706
-57.276	-200.000	0.132	1.565
-56.261	-200.000	95.332	570.131
-55.246	637.777	1362.351	3426.707
-54.232	198.174	2536.981	3839.126
-53.217	108.561	2286.340	2702.064
-52.203	39.640	2047.439	1816.970
-51.188	34.887	1962.863	1699.720
-50.173	33.333	1944.666	1670.202
-49.159	49.066	1996.366	1855.582
-48.144	49.471	2014.459	1875.952
-47.130	35.389	1976.267	1715.547
-46.115	33.169	1963.983	1685.062
-45.100	33.032	1963.296	1683.186
-44.086	33.025	1960.368	1680.548
-43.071	32.976	1959.099	1678.954
-42.057	32.875	1955.794	1675.164
-41.042	32.912	1953.550	1673.500
-40.027	33.009	1951.195	1672.273
-39.013	32.712	1951.565	1669.896
-37.998	32.837	1948.494	1668.303
-36.984	33.047	1946.388	1668.296
-35.969	32.942	1945.184	1666.270
-34.954	32.884	1942.874	1663.710
-33.940	33.096	1941.291	1664.154
-32.925	33.118	1939.552	1662.795
-31.911	32.979	1938.978	1661.015
-30.896	33.075	1936.829	1659.950
-29.881	33.162	1934.424	1658.586
-28.867	33.201	1933.073	1657.708
-27.852	32.984	1932.413	1655.174
-26.838	33.069	1929.721	1653.547
-25.823	33.067	1928.053	1652.027
-24.809	33.163	1925.732	1650.813
-23.794	33.163	1923.029	1648.432
-22.779	33.049	1923.291	1647.594
-21.765	33.167	1920.716	1646.352
-20.750	32.926	1919.922	1643.506
-19.736	33.127	1917.101	1642.774
-18.721	33.166	1915.923	1642.042
-17.706	33.122	1914.542	1640.411
-16.692	33.127	1913.344	1639.357
-15.677	33.173	1911.546	1638.152
-14.663	33.003	1910.307	1635.557
-13.648	33.141	1908.778	1635.373
-12.633	33.105	1908.069	1634.390
-11.619	33.117	1906.647	1633.216
-10.604	32.870	1905.710	1630.209
-9.590	33.073	1904.062	1630.489
-8.575	33.157	1901.760	1629.173
-7.560	33.215	1900.524	1628.552
-6.546	33.149	1900.113	1627.571
-5.531	33.185	1897.637	1625.689
-4.517	33.239	1896.273	1624.920
-3.502	32.958	1896.710	1622.819
-2.487	33.084	1894.672	1622.092
-1.473	33.135	1893.790	1621.708
-0.458	33.082	1890.381	1618.274
0.556	33.942	1870.126	1589.414
1.571	29.440	1850.358	1535.122
2.586	25.598	1870.176	1519.049
3.600	24.330	1906.055	1537.133
4.615	23.671	1900.304	1526.701
5.629	18.290	1800.684	1402.566
6.644	8.404	1681.893	1233.907
7.659	3.558	1643.878	1169.261
8.673	2.945	1640.990	1162.460
9.688	2.845	1639.518	1160.564
10.702	3.091	1637.691	1161.021
11.717	2.880	1633.856	1156.611
12.731	3.324	1633.693	1159.741
13.746	9.957	1649.275	1220.974
14.761	19.798	1671.063	1312.014
15.775	24.141	1679.351	1351.441
16.790	25.239	1679.026	1359.382
17.804	25.030	1678.902	1357.580
18.819	25.168	1677.464	1357.338
19.834	25.248	1677.823	1358.118
20.848	25.592	1675.746	1358.914
21.863	25.622	1674.921	1358.351
22.877	25.576	1674.359	1357.426
23.892	25.504	1674.123	1356.573
24.907	25.666	1672.681	1356.507
25.921	25.538	1670.767	1353.867
26.936	25.832	1670.237	1355.533
27.950	25.541	1670.480	1353.416
28.965	25.444	1670.536	1352.617
29.980	25.841	1666.783	1352.434
30.994	25.631	1667.404	1351.242
32.009	25.708	1666.271	1350.782
33.023	25.546	1667.022	1350.061
34.038	25.578	1665.106	1348.631
35.053	25.752	1663.303	1348.351
36.067	25.682	1661.723	1346.429
37.082	25.616	1661.521	1345.651
38.096	25.630	1660.737	1344.997
39.111	25.490	1659.902	1343.158
40.126	25.586	1659.301	1343.270
41.140	25.709	1657.748	1342.812
42.155	25.898	1655.949	1342.647
43.169	25.680	1655.993	1340.936
44.184	25.517	1655.022	1338.817
45.199	25.611	1654.543	1339.012
46.213	25.687	1653.430	1338.556
47.228	25.799	1651.247	1337.507
48.242	25.715	1649.878	1335.655
49.257	25.650	1649.600	1334.832
50.271	25.838	1647.603	1334.485
51.286	25.686	1646.742	1332.548
52.301	25.777	1645.604	1332.177
53.315	25.707	1644.609	1330.738
54.330	25.663	1643.270	1329.215
55.344	25.517	1642.455	1327.358
56.359	25.815	1639.859	1327.341
57.374	25.592	1640.420	1326.036
58.388	25.759	1637.805	1325.029
59.403	25.775	1636.983	1324.370
60.417	25.630	1636.461	1322.763
61.432	25.795	1634.271	1322.088
62.447	25.623	1634.861	1321.180
63.461	25.754	1633.483	1320.912
64.476	25.769	1632.733	1320.302
65.490	25.939	1630.565	1319.672
66.505	25.730	1630.888	1318.290
67.520	25.736	1629.977	1317.478
68.534	25.608	1628.207	1314.994
69.549	25.719	1627.149	1314.837
70.563	25.687	1626.089	1313.633
71.578	25.678	1625.484	1312.959
72.593	25.712	1624.247	1312.094
73.607	25.847	1624.428	1313.108
74.622	25.901	1622.166	1311.554
75.636	25.896	1621.470	1310.838
76.651	25.838	1620.525	1309.537
77.666	25.681	1620.287	1308.087
78.680	25.739	1619.368	1307.649
79.695	25.763	1618.376	1306.909
80.709	25.814	1617.702	1306.618
81.724	25.702	1617.039	1305.154
82.739	26.037	1615.374	1306.125
83.753	25.849	1614.736	1304.133
84.768	25.801	1614.327	1303.341
85.782	25.750	1613.494	1302.182
86.797	25.907	1612.178	1302.138
87.812	25.688	1611.365	1299.787
88.826	25.798	1610.507	1299.772
89.841	25.969	1608.425	1299.206
90.855	25.851	1608.119	1297.993
91.870	25.877	1605.934	1296.308
92.884	25.861	1606.291	1296.363
93.899	26.018	1604.149	1295.651
94.914	25.757	1604.051	1293.581
95.928	25.823	1602.709	1292.856
96.943	25.927	1600.784	1291.931
97.957	25.962	1598.218	1290.000
98.972	25.823	1599.538	1289.955
99.987	25.599	1597.731	1286.779
101.001	25.740	1597.035	1287.112
102.016	25.855	1595.118	1286.278
103.030	25.780	1593.612	1284.415
104.045	25.861	1592.351	1283.859
105.060	25.960	1590.409	1282.887
106.074	26.061	1588.389	1281.863
107.089	25.829	1588.340	1280.057
108.103	26.058	1586.969	1280.468
109.118	25.758	1586.565	1277.901
110.133	26.060	1584.164	1277.994
111.147	25.877	1584.316	1276.706
112.162	25.953	1581.754	1275.065
113.176	25.752	1581.346	1273.201
114.191	25.913	1579.316	1272.589
115.206	25.953	1578.238	1271.893
116.220	25.669	1578.299	1269.829
117.235	25.737	1577.602	1269.632
118.249	25.954	1574.716	1268.724
119.264	25.671	1574.262	1266.255
120.279	26.069	1572.522	1267.541
121.293	25.751	1573.038	1265.607
122.308	25.968	1570.254	1264.780
123.322	25.982	1569.474	1264.140
124.337	25.930	1567.823	1262.331
125.352	26.104	1566.592	1262.446
126.366	25.937	1565.694	1260.442
127.381	26.090	1564.774	1260.663
128.395	25.887	1563.616	1258.198
129.410	26.171	1562.752	1259.377
130.424	25.956	1562.535	1257.586
131.439	25.971	1560.314	1255.794
132.454	26.104	1559.858	1256.243
133.468	25.861	1557.962	1252.915
134.483	26.155	1556.176	1253.409
135.497	25.859	1555.728	1250.883
136.512	25.889	1554.733	1250.180
137.527	26.097	1552.563	1249.763
138.541	26.066	1551.778	1248.809
139.556	25.889	1550.924	1246.786
140.570	26.009	1549.474	1246.338
141.585	25.970	1547.432	1244.317
142.600	26.148	1546.555	1244.731
143.614	26.138	1545.804	1243.944
144.629	26.067	1544.527	1242.318
145.643	26.022	1544.423	1241.815
146.658	26.070	1542.956	1240.855
147.673	26.023	1540.688	1238.601
148.687	25.748	1540.135	1236.156
149.702	25.973	1539.602	1237.165
150.716	26.113	1537.385	1236.232
151.731	25.820	1537.364	1234.097
152.746	26.035	1535.022	1233.581
153.760	26.085	1533.285	1232.417
154.775	26.143	1532.290	1231.902
155.789	26.127	1531.687	1231.204
156.804	26.127	1530.394	1230.055
157.819	26.190	1529.335	1229.520
158.833	26.213	1529.445	1229.659
159.848	26.036	1528.285	1227.411
160.862	25.988	1526.916	1225.880
161.877	25.891	1526.630	1224.882
162.892	26.278	1524.027	1225.309
163.906	26.372	1522.806	1224.856
164.921	26.059	1522.834	1222.646
165.935	26.128	1522.101	1222.418
166.950	26.151	1521.468	1221.959
167.964	26.417	1520.467	1222.846
168.979	26.199	1518.698	1219.844
169.994	26.035	1518.023	1218.083
171.008	26.074	1516.626	1217.120
172.023	26.286	1516.250	1218.142
173.037	26.036	1516.166	1216.281
174.052	26.192	1514.666	1216.017
175.067	26.285	1513.255	1215.402
176.081	26.247	1512.661	1214.563
177.096	25.995	1512.178	1212.371
178.110	26.041	1510.187	1210.979
179.125	25.995	1510.530	1210.837
180.140	26.167	1508.533	1210.284
181.154	26.126	1508.182	1209.620
182.169	26.107	1506.520	1208.054
183.183	26.311	1504.569	1207.747
184.198	26.154	1504.869	1206.826
185.213	26.340	1504.155	1207.390
186.227	26.226	1503.462	1205.971
187.242	26.182	1502.242	1204.591
188.256	26.208	1501.585	1204.130
189.271	26.418	1500.113	1204.243
190.286	26.069	1499.416	1201.254
191.300	26.329	1498.555	1202.187
192.315	26.273	1498.477	1201.643
193.329	26.178	1497.509	1200.130
194.344	26.393	1495.707	1200.006
195.359	26.392	1495.792	1199.961
196.373	26.305	1495.310	1198.894
197.388	26.499	1493.818	1198.873
198.402	26.248	1493.134	1196.556
199.417	26.244	1491.973	1195.492
200.432	26.148	1491.696	1194.531
201.446	26.252	1490.538	1194.186
202.461	26.352	1487.930	1192.655
203.475	26.447	1487.192	1192.577
204.490	26.341	1487.164	1191.752
205.504	26.245	1486.659	1190.611
206.519	26.049	1485.624	1188.384
207.534	26.575	1483.348	1189.915
208.548	26.225	1483.896	1187.948
209.563	26.280	1483.075	1187.547
210.577	26.334	1481.383	1186.444
211.592	26.229	1480.148	1184.663
212.607	26.404	1480.722	1186.167
213.621	26.318	1479.920	1184.856
214.636	26.631	1478.477	1185.640
215.650	26.196	1478.459	1182.674
216.665	26.409	1476.582	1182.459
217.680	26.394	1476.163	1181.920
218.694	26.503	1475.535	1182.029
219.709	26.557	1474.914	1181.782
220.723	26.568	1473.834	1180.878
221.738	26.385	1473.062	1178.964
222.753	26.571	1471.415	1178.753
223.767	26.312	1472.254	1177.634
224.782	26.359	1470.326	1176.296
225.796	26.471	1469.171	1175.992
226.811	26.485	1468.598	1175.523
227.826	26.294	1468.654	1174.221
228.840	26.080	1468.685	1172.749
229.855	26.280	1467.497	1173.000
230.869	26.554	1464.553	1172.317
231.884	26.557	1464.802	1172.427
232.899	26.549	1463.253	1171.038
233.913	26.489	1462.104	1169.622
234.928	26.242	1462.069	1167.899
235.942	26.341	1460.829	1167.443
236.957	26.439	1459.545	1166.941
237.972	26.486	1458.811	1166.558
238.986	26.525	1456.602	1164.937
240.001	26.626	1456.153	1165.124
241.015	26.533	1455.504	1163.905
242.030	26.647	1454.276	1163.554
243.045	26.604	1454.124	1163.053
244.059	26.648	1453.762	1162.943
245.074	26.773	1451.996	1162.227
246.088	26.761	1451.664	1161.780
247.103	26.618	1451.507	1160.635
248.117	26.686	1449.609	1159.453
249.132	26.637	1449.003	1158.552
250.147	26.728	1448.357	1158.512
251.161	26.734	1447.191	1157.521
252.176	26.737	1446.907	1157.209
253.190	26.619	1446.536	1156.056
254.205	26.710	1445.195	1155.462
255.220	26.498	1444.701	1153.610
256.234	26.804	1443.099	1154.182
257.249	26.706	1442.983	1153.361
258.263	26.724	1442.023	1152.606
259.278	26.556	1441.938	1151.368
260.293	26.621	1440.735	1150.718
261.307	26.560	1439.771	1149.461
262.322	26.876	1439.324	1151.005
263.336	26.697	1438.652	1149.231
264.351	26.612	1437.213	1147.440
265.366	26.682	1436.143	1146.926
266.380	26.707	1435.335	1146.337
267.395	26.581	1434.790	1145.005
268.409	26.502	1433.938	1143.724
269.424	26.600	1432.426	1143.038
270.439	26.590	1432.605	1143.016
271.453	26.587	1431.257	1141.819
272.468	26.615	1429.915	1140.828
273.482	26.504	1429.420	1139.631
274.497	26.612	1429.798	1140.508
275.512	26.707	1427.359	1139.061
276.526	26.917	1426.202	1139.356
277.541	26.895	1426.065	1139.009
278.555	26.621	1426.255	1137.339
279.570	26.538	1425.086	1135.786
280.585	26.680	1424.280	1135.932
281.599	26.732	1423.296	1135.376
282.614	26.783	1421.959	1134.524
283.628	27.059	1420.702	1135.145
284.643	26.573	1420.186	1131.596
285.657	26.771	1418.724	1131.572
286.672	26.560	1419.100	1130.453
287.687	26.557	1417.653	1129.179
288.701	26.769	1416.382	1129.387
289.716	26.584	1416.585	1128.301
290.730	26.794	1414.576	1127.904
291.745	26.774	1413.916	1127.152
292.760	26.669	1413.875	1126.369
293.774	26.881	1411.929	1126.037
294.789	26.755	1411.733	1124.998
295.803	26.728	1411.056	1124.191
296.818	26.528	1410.170	1122.145
297.833	26.818	1409.505	1123.315
298.847	26.925	1408.433	1123.023
299.862	26.895	1407.302	1121.836
300.876	26.654	1407.735	1120.593
301.891	26.621	1405.423	1118.444
302.906	26.604	1405.184	1118.050
303.920	26.807	1404.509	1118.671
304.935	26.917	1403.827	1118.706
305.949	26.807	1404.184	1118.211
306.964	26.772	1402.965	1116.927
307.979	26.600	1401.916	1114.932
308.993	26.807	1400.458	1114.948
310.008	26.912	1400.084	1115.198
311.022	26.767	1398.982	1113.329
312.037	27.051	1397.042	1113.429
313.052	26.887	1396.977	1112.272
314.066	26.697	1396.048	1110.274
315.081	26.809	1394.349	1109.506
316.095	26.947	1393.232	1109.366
317.110	26.548	1393.740	1107.229
318.125	26.767	1392.978	1107.864
319.139	26.863	1391.639	1107.290
320.154	26.692	1390.876	1105.542
321.168	27.000	1389.573	1106.286
322.183	26.955	1389.480	1105.838
323.197	26.697	1387.881	1102.896
324.212	26.975	1386.177	1103.136
325.227	26.802	1386.765	1102.457
326.241	26.813	1386.139	1101.924
327.256	27.144	1384.251	1102.333
328.270	26.866	1384.269	1100.564
329.285	27.001	1382.209	1099.646
330.300	26.979	1381.653	1098.973
331.314	26.968	1380.766	1098.109
332.329	26.946	1381.452	1098.424
333.343	26.956	1379.749	1097.031
334.358	27.032	1378.409	1096.325
335.373	26.958	1378.640	1095.970
336.387	26.988	1377.869	1095.438
337.402	26.906	1377.275	1094.371
338.416	26.894	1376.620	1093.685
339.431	27.139	1375.859	1094.462
340.446	26.980	1375.437	1093.071
341.460	26.975	1374.148	1091.916
342.475	27.041	1374.251	1092.299
343.489	26.936	1372.619	1090.275
344.504	27.003	1370.727	1089.077
345.519	27.066	1370.363	1089.073
346.533	27.067	1370.263	1088.904
347.548	26.977	1369.557	1087.706
348.562	26.804	1368.308	1085.581
349.577	27.022	1367.250	1085.951
350.592	27.220	1366.218	1086.215
351.606	26.898	1365.161	1083.355
352.621	27.072	1364.591	1083.846
353.635	27.017	1364.098	1083.033
354.650	26.917	1363.236	1081.656
355.665	26.847	1362.516	1080.569
356.679	26.881	1361.843	1080.146
357.694	26.905	1359.936	1078.679
358.708	26.928	1358.873	1077.879
359.723	26.898	1357.930	1076.854
360.738	27.043	1356.782	1076.708
361.752	26.823	1356.225	1074.867
362.767	27.089	1354.368	1074.879
363.781	26.894	1353.623	1073.039
364.796	26.911	1352.743	1072.342
365.810	26.838	1352.524	1071.643
366.825	27.066	1352.208	1072.647
367.840	26.999	1351.034	1071.227
368.854	26.574	1351.702	1069.147
369.869	27.128	1348.991	1070.177
370.883	27.199	1348.295	1069.945
371.898	26.995	1347.315	1067.874
372.913	26.932	1347.490	1067.548
373.927	26.907	1347.096	1066.993
374.942	26.884	1345.824	1065.755
375.956	26.925	1345.623	1065.747
376.971	26.765	1345.302	1064.453
377.986	27.066	1343.591	1064.772
379.000	27.080	1343.443	1064.641
380.015	27.052	1342.557	1063.681
381.029	26.897	1341.741	1062.034
382.044	26.961	1340.556	1061.378
383.059	26.975	1340.586	1061.390
384.073	26.975	1339.635	1060.545
385.088	27.207	1338.228	1060.689
386.102	27.044	1339.132	1060.356
387.117	27.243	1337.598	1060.213
388.132	27.352	1336.349	1059.762
389.146	27.106	1335.385	1057.472
390.161	27.085	1334.886	1056.860
391.175	27.240	1333.702	1056.731
392.190	26.847	1334.853	1055.266
393.205	26.861	1333.950	1054.540
394.219	27.224	1332.265	1055.220
395.234	26.861	1331.082	1052.082
396.248	27.261	1329.285	1052.888
397.263	26.710	1330.027	1050.188
398.278	27.161	1327.466	1050.683
399.292	26.846	1327.406	1048.720
400.307	26.791	1325.176	1046.551
401.321	27.077	1324.152	1047.297
402.336	27.092	1323.513	1046.783
403.350	26.976	1322.710	1045.387
404.365	26.860	1321.628	1043.773
405.380	26.826	1321.209	1043.156
406.394	27.144	1320.201	1044.092
407.409	26.985	1320.195	1043.083
408.423	26.940	1319.517	1042.195
409.438	27.008	1318.421	1041.628
410.453	27.129	1317.295	1041.339
411.467	26.910	1317.391	1040.073
412.482	26.860	1317.431	1039.722
413.496	26.951	1316.193	1039.175
414.511	26.919	1314.923	1037.896
415.526	27.084	1313.774	1037.841
416.540	27.165	1313.588	1038.063
417.555	26.748	1313.582	1035.589
418.569	26.873	1312.682	1035.498
419.584	26.801	1312.076	1034.515
420.599	26.923	1310.849	1034.156
421.613	142.271	1435.943	1792.850
422.628	138.001	1454.098	1792.975
