DTS Sentinel unit serial number:	SN413079Multiplexer serial number:	ORYXHardware model number:	OX4-SRSoftware version number:	ORYX F/W v4.00 Oryx Data Collector v3.7.2.0data status	okinstallation	princeton_trtdifferential loss correction	single-endedforward channel	channel 4reverse channel	N/Adate	2019/09/16time	14:13:35forward acquisition time	60.00reverse acquisition time	0.00gamma	496.2192k internal	0.2285k external	0.2285temperature offset calibration	0.9936default loss term (dB/km)	0.3790temperature slope calibration	1.0000multiplexer offset coefficient	1.0000multiplexer slope coefficient	1.0000fibre end	0.00T internal ref (°C)	42.25T ext. ref 1 (°C)	14.13T ext. ref 2 (°C)	37.24length (m)	temperature (°C)	Stokes	anti-Stokes-747.200	-31.398	0.213	0.123
-746.185	-200.000	-0.051	0.264
-745.171	286.231	0.232	0.431
-744.156	-51.743	-0.025	0.012
-743.142	800.000	0.040	-0.143
-742.127	-148.168	-0.201	-0.017
-741.112	-102.120	0.049	0.012
-740.098	336.121	-0.165	0.328
-739.083	-200.000	0.022	-0.308
-738.069	-200.000	0.025	0.383
-737.054	800.000	-0.034	-0.137
-736.039	-200.000	-0.016	0.307
-735.025	743.292	-0.059	0.163
-734.010	-111.762	-0.146	0.030
-732.996	-47.047	0.297	-0.149
-731.981	800.000	0.039	-0.113
-730.966	800.000	-0.087	0.390
-729.952	-68.828	-0.169	-0.067
-728.937	-63.188	0.315	-0.133
-727.923	-15.660	-0.067	0.044
-726.908	800.000	-0.053	-0.210
-725.894	15.474	-0.263	-0.212
-724.879	267.267	0.098	0.176
-723.864	331.517	-0.096	0.189
-722.850	800.000	-0.031	-0.095
-721.835	62.691	-0.089	-0.091
-720.821	-41.777	0.165	0.087
-719.806	800.000	-0.022	-0.067
-718.791	-138.894	0.346	0.039
-717.777	459.404	-0.174	0.396
-716.762	800.000	0.150	0.467
-715.748	6.160	0.204	0.155
-714.733	478.444	-0.052	-0.122
-713.718	-39.077	0.210	0.114
-712.704	-140.605	-0.372	0.040
-711.689	-85.975	-0.149	-0.047
-710.675	-200.000	-0.020	-0.153
-709.660	17.744	0.177	0.144
-708.645	24.992	0.172	0.147
-707.631	-62.876	-0.095	0.040
-706.616	-167.430	-0.406	0.017
-705.602	-6.941	-0.155	0.108
-704.587	-200.000	-0.034	0.232
-703.572	-200.000	-0.015	0.069
-702.558	-200.000	0.002	-0.102
-701.543	-91.122	-0.114	-0.034
-700.529	113.004	-0.133	0.165
-699.514	133.925	-0.291	0.386
-698.499	19.847	-0.317	-0.262
-697.485	-32.273	-0.251	-0.144
-696.470	282.962	-0.087	0.161
-695.456	228.656	-0.191	0.319
-694.441	-123.304	0.384	0.063
-693.426	800.000	0.033	-0.101
-692.412	-13.982	0.179	-0.119
-691.397	-36.428	-0.333	-0.184
-690.383	354.074	0.059	0.121
-689.368	-57.033	-0.133	-0.060
-688.354	-120.972	0.280	-0.048
-687.339	122.676	-0.109	-0.139
-686.324	478.732	0.087	0.202
-685.310	-42.984	0.151	-0.079
-684.295	90.275	0.124	-0.143
-683.281	6.662	0.069	0.053
-682.266	16.371	0.176	0.143
-681.251	116.561	0.025	-0.032
-680.237	71.680	0.142	-0.151
-679.222	423.285	-0.035	-0.078
-678.208	-93.417	-0.169	0.048
-677.193	218.966	0.028	-0.045
-676.178	-71.906	0.202	0.077
-675.164	-55.970	-0.285	-0.130
-674.149	-200.000	-0.180	-0.001
-673.135	315.555	-0.211	-0.407
-672.120	101.611	-0.166	0.198
-671.105	-63.430	-0.135	0.057
-670.091	800.000	-0.057	0.208
-669.076	-122.450	-0.212	-0.035
-668.062	57.209	-0.216	-0.216
-667.047	-87.157	-0.128	0.040
-666.032	-200.000	0.049	0.333
-665.018	32.834	-0.328	-0.291
-664.003	34.767	-0.278	-0.249
-662.989	-200.000	-0.014	-0.179
-661.974	-200.000	-0.021	0.192
-660.959	-145.204	-0.344	0.032
-659.945	48.612	-0.333	-0.319
-658.930	800.000	0.074	-0.307
-657.916	-177.406	-0.178	-0.004
-656.901	-85.483	-0.165	0.052
-655.886	398.952	-0.142	0.304
-654.872	-109.580	0.396	0.086
-653.857	7.011	-0.131	0.100
-652.843	-79.934	-0.187	-0.064
-651.828	-114.755	-0.103	-0.020
-650.814	-132.678	-0.116	0.015
-649.799	-96.343	-0.123	-0.033
-648.784	-46.207	-0.072	-0.036
-647.770	-53.343	0.381	0.179
-646.755	-113.391	-0.304	-0.061
-645.741	800.000	0.092	-0.395
-644.726	-53.566	0.065	0.030
-643.711	-112.543	-0.180	-0.037
-642.697	800.000	-0.058	0.211
-641.682	-40.426	-0.274	0.145
-640.668	78.038	-0.192	-0.209
-639.653	-164.274	0.124	-0.006
-638.638	-200.000	0.036	0.285
-637.624	-44.485	-0.157	-0.080
-636.609	-139.393	-0.118	0.013
-635.595	800.000	0.064	0.185
-634.580	-200.000	-0.001	0.091
-633.565	524.196	-0.111	0.267
-632.551	27.158	-0.106	-0.091
-631.536	101.748	-0.194	-0.231
-630.522	677.182	0.062	0.166
-629.507	16.402	0.255	-0.205
-628.492	596.467	-0.107	0.271
-627.478	-155.582	0.183	-0.012
-626.463	141.721	-0.094	0.127
-625.449	160.199	0.091	0.129
-624.434	206.443	0.200	-0.318
-623.419	232.943	0.080	0.135
-622.405	650.034	-0.168	0.439
-621.390	-97.439	-0.100	-0.027
-620.376	-106.730	-0.090	0.020
-619.361	0.390	-0.248	-0.181
-618.346	-200.000	-0.045	-0.284
-617.332	-80.419	-0.305	0.104
-616.317	440.512	-0.117	0.261
-615.303	699.816	-0.056	-0.149
-614.288	114.196	0.037	-0.046
-613.273	-200.000	-0.000	-0.258
-612.259	800.000	-0.024	-0.100
-611.244	-6.563	0.175	-0.122
-610.230	-59.904	0.108	0.047
-609.215	308.747	-0.024	-0.046
-608.201	48.784	0.241	0.231
-607.186	181.027	-0.171	0.257
-606.171	800.000	-0.080	0.249
-605.157	800.000	-0.058	-0.166
-604.142	44.020	-0.216	0.202
-603.128	318.214	-0.216	0.417
-602.113	106.895	0.151	-0.183
-601.098	85.390	0.014	-0.016
-600.084	-200.000	0.026	0.369
-599.069	-200.000	-0.093	-0.000
-598.055	-135.986	0.287	-0.035
-597.040	8.767	-0.068	0.053
-596.025	116.590	0.077	0.097
-595.011	-3.352	-0.080	-0.057
-593.996	800.000	0.047	-0.160
-592.982	583.420	0.109	0.274
-591.967	800.000	0.103	0.309
-590.952	122.761	0.208	-0.265
-589.938	300.508	-0.068	0.128
-588.923	-79.858	0.078	0.027
-587.909	-125.938	-0.040	-0.006
-586.894	111.867	-0.165	-0.204
-585.879	25.224	-0.275	0.233
-584.865	11.879	0.056	-0.044
-583.850	-23.157	0.161	0.099
-582.836	-87.072	0.164	0.051
-581.821	263.117	-0.071	0.125
-580.806	-200.000	-0.009	-0.164
-579.792	800.000	0.026	-0.096
-578.777	-200.000	0.001	0.139
-577.763	-83.325	0.230	0.075
-576.748	-81.677	0.192	0.064
-575.733	-116.966	-0.078	0.015
-574.719	42.725	-0.134	0.124
-573.704	602.362	0.015	-0.039
-572.690	659.603	0.151	0.396
-571.675	-181.826	0.280	-0.005
-570.661	-200.000	-0.006	0.303
-569.646	-8.282	0.168	0.115
-568.631	277.594	0.173	-0.314
-567.617	800.000	0.057	0.232
-566.602	236.559	-0.137	0.231
-565.588	-49.436	-0.230	0.112
-564.573	-200.000	-0.018	-0.144
-563.558	-47.610	0.342	-0.169
-562.544	69.552	-0.229	-0.241
-561.529	-28.018	0.036	-0.021
-560.515	-47.265	-0.119	-0.059
-559.500	-128.414	-0.299	0.043
-558.485	-88.828	-0.195	-0.059
-557.471	5.200	0.110	0.082
-556.456	198.490	0.181	0.282
-555.442	800.000	-0.075	-0.284
-554.427	-34.848	-0.273	-0.152
-553.412	800.000	0.061	0.245
-552.398	-128.302	-0.220	-0.032
-551.383	89.490	-0.189	-0.215
-550.369	6.232	-0.093	-0.070
-549.354	395.997	-0.047	0.100
-548.339	800.000	-0.043	0.126
-547.325	-200.000	-0.012	-0.114
-546.310	-65.017	0.221	0.091
-545.296	-96.248	0.076	0.020
-544.281	82.878	-0.070	-0.078
-543.266	-87.850	0.145	0.044
-542.252	800.000	0.119	0.431
-541.237	-100.424	-0.016	0.004
-540.223	519.027	-0.155	0.370
-539.208	240.485	0.038	-0.064
-538.193	26.461	-0.063	0.054
-537.179	-71.246	-0.197	-0.075
-536.164	406.524	-0.175	-0.376
-535.150	-200.000	0.003	-0.197
-534.135	-112.494	0.081	0.017
-533.121	496.679	0.055	-0.128
-532.106	105.700	-0.070	-0.084
-531.091	800.000	0.100	0.323
-530.077	-117.637	0.270	0.049
-529.062	800.000	-0.085	-0.338
-528.048	225.548	0.071	0.116
-527.033	800.000	0.034	-0.114
-526.018	374.052	0.138	0.286
-525.004	121.266	-0.203	-0.257
-523.989	3.603	0.062	-0.046
-522.975	35.670	0.194	0.173
-521.960	-80.356	0.147	-0.050
-520.945	800.000	-0.099	0.334
-519.931	303.176	-0.172	0.324
-518.916	63.485	-0.262	-0.268
-517.902	-200.000	0.012	-0.072
-516.887	-138.172	0.125	-0.014
-515.872	9.433	-0.060	-0.046
-514.858	220.969	0.063	0.103
-513.843	774.564	0.063	-0.174
-512.829	66.508	-0.140	-0.144
-511.814	-153.029	-0.041	0.003
-510.799	63.432	0.241	-0.246
-509.785	4.490	0.047	-0.035
-508.770	-82.099	-0.040	0.013
-507.756	-123.358	-0.269	0.044
-506.741	38.382	0.121	-0.110
-505.726	213.400	0.184	-0.296
-504.712	735.946	0.078	0.212
-503.697	-200.000	0.009	-0.133
-502.683	389.564	0.102	-0.215
-501.668	-135.237	-0.328	-0.040
-500.653	800.000	0.114	-0.406
-499.639	11.532	-0.343	0.268
-498.624	-168.898	-0.179	0.007
-497.610	800.000	-0.092	-0.263
-496.595	69.632	-0.085	-0.089
-495.581	-35.833	-0.093	0.051
-494.566	5.798	-0.017	0.013
-493.551	76.713	-0.109	0.117
-492.537	35.616	-0.233	-0.208
-491.522	108.972	0.071	0.087
-490.508	-79.297	0.112	-0.039
-489.493	800.000	-0.145	-0.436
-488.478	-200.000	0.005	-0.055
-487.464	-200.000	-0.046	0.341
-486.449	78.026	-0.110	-0.119
-485.435	214.821	0.055	0.088
-484.420	-148.718	0.300	0.025
-483.405	-62.542	0.364	-0.154
-482.391	197.547	0.184	0.285
-481.376	-90.744	0.308	0.090
-480.362	68.576	0.205	-0.214
-479.347	-163.561	0.386	-0.019
-478.332	62.934	-0.047	-0.047
-477.318	-2.612	0.207	0.147
-476.303	-69.433	0.135	0.053
-475.289	47.864	0.086	-0.081
-474.274	800.000	0.075	-0.237
-473.259	-120.113	0.347	-0.060
-472.245	353.885	0.017	-0.033
-471.230	-43.608	-0.188	-0.096
-470.216	559.021	-0.053	0.129
-469.201	-200.000	0.037	-0.194
-468.186	-152.700	0.244	0.018
-467.172	800.000	-0.067	0.211
-466.157	-11.335	-0.131	0.088
-465.143	384.519	0.087	0.181
-464.128	-200.000	-0.061	-0.290
-463.113	800.000	-0.058	-0.217
-462.099	-107.327	0.312	0.070
-461.084	218.844	-0.059	0.095
-460.070	-200.000	-0.044	0.253
-459.055	-7.409	-0.356	0.245
-458.040	-47.253	-0.261	0.129
-457.026	37.195	0.232	0.209
-456.011	-200.000	0.024	-0.275
-454.997	18.035	-0.073	-0.059
-453.982	-200.000	0.019	-0.331
-452.968	4.343	-0.311	-0.231
-451.953	77.890	0.223	-0.242
-450.938	-109.279	-0.105	-0.023
-449.924	189.021	-0.147	-0.223
-448.909	-200.000	-0.031	0.270
-447.895	800.000	0.092	0.342
-446.880	48.521	-0.269	0.255
-445.865	138.650	0.089	0.119
-444.851	800.000	-0.038	-0.114
-443.836	-46.607	-0.219	-0.109
-442.822	446.892	0.079	0.176
-441.807	-67.115	0.098	0.039
-440.792	800.000	-0.040	-0.115
-439.778	-200.000	-0.014	-0.120
-438.763	102.570	-0.167	-0.198
-437.749	-68.736	-0.279	-0.109
-436.734	-38.696	0.263	-0.141
-435.719	-94.379	-0.173	0.048
-434.705	-60.858	0.260	0.112
-433.690	-13.946	0.208	-0.136
-432.676	-200.000	-0.027	0.138
-431.661	77.055	0.164	0.177
-430.646	800.000	-0.072	0.235
-429.632	-135.918	0.072	0.009
-428.617	-29.627	0.033	-0.019
-427.603	-49.340	0.218	0.105
-426.588	800.000	0.086	-0.283
-425.573	-200.000	0.021	0.226
-424.559	-200.000	-0.533	0.001
-423.544	38.566	0.309	-0.279
-422.530	-3.548	-0.226	0.160
-421.515	-179.040	0.424	0.010
-420.500	-200.000	-0.020	0.104
-419.486	-200.000	0.015	0.131
-418.471	756.130	0.053	-0.146
-417.457	55.349	-0.165	-0.162
-416.442	-200.000	0.060	-0.320
-415.428	15.583	0.381	0.304
-414.413	-143.712	0.470	0.045
-413.398	308.677	-0.058	-0.110
-412.384	648.552	-0.006	0.017
-411.369	96.905	-0.104	-0.121
-410.355	635.294	0.057	-0.147
-409.340	-98.128	0.236	-0.062
-408.325	70.226	0.119	-0.125
-407.311	-200.000	-0.006	0.090
-406.296	-5.034	0.248	-0.173
-405.282	-57.715	0.479	-0.212
-404.267	158.476	-0.099	-0.140
-403.252	340.810	-0.108	0.214
-402.238	-23.024	-0.069	0.042
-401.223	646.211	0.080	0.206
-400.209	-200.000	0.003	-0.062
-399.194	408.382	0.125	-0.269
-398.179	19.566	-0.165	0.134
-397.165	-170.642	0.153	0.005
-396.150	-81.595	-0.376	-0.125
-395.136	10.625	0.085	0.066
-394.121	800.000	0.027	0.111
-393.106	248.720	-0.067	-0.115
-392.092	800.000	-0.085	-0.332
-391.077	800.000	-0.014	-0.040
-390.063	17.560	0.113	-0.091
-389.048	-200.000	0.014	-0.404
-388.033	336.550	-0.084	0.166
-387.019	-200.000	0.016	0.179
-386.004	800.000	0.100	-0.420
-384.990	-200.000	-0.030	0.194
-383.975	35.493	0.113	0.101
-382.960	-200.000	-0.085	0.464
-381.946	19.490	0.053	0.043
-380.931	-92.404	-0.308	-0.088
-379.917	400.530	0.070	-0.149
-378.902	-59.056	-0.202	-0.088
-377.888	168.345	-0.108	-0.156
-376.873	-200.000	0.032	0.156
-375.858	179.849	-0.107	0.158
-374.844	116.879	0.164	0.204
-373.829	-48.637	0.196	0.095
-372.815	551.939	0.124	0.300
-371.800	-200.000	0.011	-0.081
-370.785	800.000	-0.026	0.093
-369.771	-146.606	-0.253	0.022
-368.756	-83.620	-0.173	0.056
-367.742	-62.655	0.168	-0.071
-366.727	168.400	-0.089	-0.128
-365.712	7.511	0.042	-0.032
-364.698	9.572	0.171	0.131
-363.683	-113.525	-0.172	-0.034
-362.669	57.957	-0.081	0.081
-361.654	-82.412	0.160	-0.052
-360.639	-60.978	-0.246	0.105
-359.625	-200.000	-0.022	-0.242
-358.610	-56.073	0.084	0.038
-357.596	222.229	-0.034	-0.055
-356.581	24.445	-0.185	-0.155
-355.566	17.647	-0.180	-0.145
-354.552	526.772	-0.064	-0.153
-353.537	292.751	-0.040	0.074
-352.523	-137.137	0.116	0.013
-351.508	140.100	0.068	0.091
-350.493	30.013	0.587	0.506
-349.479	-104.779	-0.309	0.072
-348.464	-200.000	0.031	-0.407
-347.450	800.000	-0.065	0.256
-346.435	373.458	-0.159	0.327
-345.420	345.448	0.113	0.225
-344.406	-87.316	0.268	0.082
-343.391	800.000	0.057	0.199
-342.377	-194.201	-0.123	-0.001
-341.362	586.630	-0.028	0.069
-340.348	800.000	-0.112	-0.446
-339.333	-19.256	0.238	0.149
-338.318	537.960	0.040	0.096
-337.304	-200.000	-0.009	-0.143
-336.289	330.186	-0.089	0.173
-335.275	-99.650	-0.063	0.016
-334.260	-44.291	0.120	-0.061
-333.245	-16.960	-0.176	-0.112
-332.231	12.256	-0.189	0.147
-331.216	-107.971	-0.073	-0.016
-330.202	-25.967	-0.099	-0.059
-329.187	-169.274	0.168	-0.006
-328.172	-200.000	0.018	-0.445
-327.158	693.206	0.112	0.297
-326.143	-104.234	0.095	0.022
-325.129	-124.695	0.187	-0.029
-324.114	-27.072	-0.084	0.049
-323.099	-43.472	0.211	-0.107
-322.085	195.539	0.256	0.394
-321.070	256.707	-0.087	0.151
-320.056	-186.598	-0.157	0.002
-319.041	-140.797	0.134	-0.014
-318.026	-51.737	0.230	-0.108
-317.012	-188.665	0.336	-0.004
-315.997	200.421	-0.013	0.019
-314.983	-60.963	-0.180	-0.077
-313.968	-115.571	-0.280	0.053
-312.953	-87.095	0.058	0.018
-311.939	118.713	-0.102	0.128
-310.924	-9.345	0.373	-0.252
-309.910	-61.804	-0.243	0.103
-308.895	-200.000	0.070	0.348
-307.880	800.000	0.015	0.059
-306.866	-200.000	-0.016	0.084
-305.851	-200.000	0.005	-0.178
-304.837	34.085	0.233	-0.205
-303.822	800.000	0.041	0.178
-302.807	800.000	-0.020	-0.080
-301.793	101.059	-0.163	0.192
-300.778	83.212	-0.306	0.337
-299.764	-156.832	-0.117	-0.007
-298.749	-6.058	0.008	-0.006
-297.735	-200.000	-0.010	-0.102
-296.720	-19.007	-0.233	-0.146
-295.705	-16.633	-0.204	-0.130
-294.691	-145.501	0.285	-0.026
-293.676	-100.620	0.198	-0.049
-292.662	53.250	0.043	-0.041
-291.647	-200.000	-0.048	-0.283
-290.632	-118.491	-0.235	0.042
-289.618	-130.717	-0.381	-0.052
-288.603	15.318	-0.032	0.025
-287.589	12.752	-0.239	0.186
-286.574	157.141	0.051	0.071
-285.559	-23.293	-0.328	-0.199
-284.545	263.896	0.059	0.103
-283.530	-200.000	0.054	0.239
-282.516	321.238	0.071	-0.135
-281.501	-99.754	-0.130	-0.033
-280.486	137.587	-0.289	0.381
-279.472	-151.372	-0.304	-0.023
-278.457	-200.000	0.084	0.411
-277.443	-165.240	0.270	0.012
-276.428	-200.000	0.009	-0.169
-275.413	161.335	0.315	-0.444
-274.399	-200.000	-0.012	-0.152
-273.384	-39.673	0.128	-0.068
-272.370	-136.811	0.254	0.029
-271.355	-200.000	-0.017	-0.193
-270.340	-39.695	-0.118	-0.062
-269.326	93.281	-0.218	0.248
-268.311	-161.664	0.193	-0.010
-267.297	800.000	0.062	0.275
-266.282	410.713	0.100	-0.214
-265.267	82.071	0.081	-0.089
-264.253	-62.871	0.244	0.102
-263.238	54.537	-0.131	-0.127
-262.224	800.000	0.048	-0.139
-261.209	-66.368	0.074	-0.030
-260.195	-200.000	0.068	-0.343
-259.180	-66.673	-0.180	0.072
-258.165	20.579	0.146	-0.119
-257.151	-200.000	-0.001	0.087
-256.136	117.504	0.045	0.056
-255.122	800.000	0.024	0.070
-254.107	-200.000	0.007	-0.205
-253.092	-61.622	0.249	-0.105
-252.078	25.513	0.174	0.145
-251.063	63.713	0.281	0.284
-250.049	575.312	0.071	-0.175
-249.034	-200.000	0.017	-0.473
-248.019	-200.000	0.029	-0.174
-247.005	54.440	0.244	0.236
-245.990	8.133	0.014	-0.011
-244.976	775.708	-0.113	-0.311
-243.961	795.468	0.102	-0.283
-242.946	44.562	0.164	-0.151
-241.932	-49.914	0.224	-0.107
-240.917	563.529	-0.069	0.168
-239.903	-22.047	0.145	-0.089
-238.888	359.155	0.088	0.177
-237.873	269.511	0.044	-0.078
-236.859	148.545	0.325	0.442
-235.844	800.000	0.069	0.306
-234.830	-93.820	-0.101	-0.028
-233.815	84.031	-0.224	0.246
-232.800	201.875	0.089	-0.137
-231.786	13.601	-0.197	0.154
-230.771	-100.725	-0.281	-0.070
-229.757	800.000	0.072	0.222
-228.742	31.937	-0.074	0.064
-227.727	205.548	-0.117	-0.183
-226.713	800.000	0.039	-0.109
-225.698	-81.190	-0.140	0.046
-224.684	-194.668	-0.302	0.002
-223.669	-28.324	-0.148	-0.086
-222.655	-32.977	-0.196	-0.109
-221.640	-79.819	0.317	-0.107
-220.625	-200.000	-0.014	0.174
-219.611	-180.657	0.030	-0.001
-218.596	37.327	-0.096	0.086
-217.582	-146.385	0.276	0.024
-216.567	-88.970	-0.071	0.021
-215.552	-200.000	-0.012	0.237
-214.538	-200.000	-0.017	-0.148
-213.523	-19.259	0.031	-0.020
-212.509	257.381	-0.204	-0.353
-211.494	128.090	-0.050	-0.064
-210.479	800.000	-0.093	0.264
-209.465	800.000	0.129	0.370
-208.450	205.504	-0.082	0.128
-207.436	174.247	-0.343	-0.499
-206.421	80.523	-0.321	-0.347
-205.406	-200.000	-0.048	0.309
-204.392	-82.508	0.345	-0.112
-203.377	-142.935	0.215	-0.021
-202.363	-126.591	-0.492	-0.073
-201.348	-39.549	-0.119	-0.063
-200.333	-200.000	-0.023	-0.119
-199.319	376.447	-0.161	-0.331
-198.304	26.341	0.011	-0.009
-197.290	-54.701	-0.311	0.141
-196.275	-200.000	0.035	-0.264
-195.260	800.000	-0.103	-0.322
-194.246	221.951	-0.294	0.474
-193.231	11.547	-0.168	-0.129
-192.217	-200.000	0.011	-0.098
-191.202	800.000	0.090	0.298
-190.187	335.267	-0.175	-0.341
-189.173	-91.251	-0.232	-0.067
-188.158	-119.064	0.383	-0.067
-187.144	-4.380	-0.053	0.037
-186.129	15.585	-0.197	-0.156
-185.114	273.380	-0.102	0.181
-184.100	140.011	0.201	-0.266
-183.085	-200.000	-0.030	-0.351
-182.071	244.825	0.058	-0.097
-181.056	693.664	0.121	0.320
-180.042	-200.000	-0.045	-0.228
-179.027	800.000	-0.100	-0.369
-178.012	-90.021	0.276	0.081
-176.998	74.844	-0.034	-0.036
-175.983	115.540	0.106	0.130
-174.969	-22.709	0.043	-0.026
-173.954	150.872	-0.137	-0.186
-172.939	25.858	-0.193	0.161
-171.925	-29.737	-0.217	0.124
-170.910	8.773	0.269	0.204
-169.896	226.090	-0.140	-0.228
-168.881	50.200	-0.136	-0.129
-167.866	-200.000	0.000	0.083
-166.852	-70.181	0.253	0.096
-165.837	-128.771	-0.204	0.029
-164.823	-78.876	-0.089	-0.031
-163.808	-74.738	-0.159	0.057
-162.793	16.669	-0.080	-0.064
-161.779	-26.760	0.195	0.115
-160.764	562.914	0.182	0.442
-159.750	800.000	0.088	-0.248
-158.735	-103.960	0.242	-0.057
-157.720	800.000	0.053	0.182
-156.706	78.391	0.039	0.042
-155.691	18.737	0.024	-0.019
-154.677	-125.510	-0.193	0.029
-153.662	40.166	0.156	0.141
-152.647	-200.000	-0.007	-0.125
-151.633	149.022	-0.070	0.095
-150.618	-200.000	0.022	-0.118
-149.604	-90.822	0.115	-0.033
-148.589	-200.000	0.018	0.141
-147.574	-73.285	0.054	0.020
-146.560	-68.056	0.205	-0.080
-145.545	-80.495	-0.223	0.075
-144.531	-200.000	0.017	-0.216
-143.516	782.048	0.072	-0.197
-142.502	-200.000	0.041	0.202
-141.487	-133.178	-0.106	-0.013
-140.472	-71.714	-0.343	0.128
-139.458	79.953	-0.104	0.112
-138.443	647.216	-0.082	-0.210
-137.429	-13.247	0.131	0.085
-136.414	-50.939	0.156	0.073
-135.399	-69.953	-0.127	-0.048
-134.385	800.000	0.058	0.170
-133.370	231.100	0.133	0.218
-132.356	160.675	0.208	-0.290
-131.341	-45.358	0.317	-0.158
-130.326	-160.699	-0.164	0.009
-129.312	369.497	-0.081	-0.164
-128.297	-59.237	0.101	0.044
-127.283	-172.689	-0.108	-0.003
-126.268	65.962	-0.091	-0.093
-125.253	3.650	0.010	-0.007
-124.239	-65.448	-0.109	-0.044
-123.224	-30.231	-0.201	-0.115
-122.210	800.000	0.032	-0.092
-121.195	45.002	-0.271	0.250
-120.180	547.715	0.081	-0.194
-119.166	434.983	0.125	0.272
-118.151	145.854	0.103	-0.138
-117.137	-149.156	-0.168	-0.013
-116.122	800.000	-0.155	0.471
-115.107	52.829	-0.201	0.193
-114.093	-60.139	-0.419	0.179
-113.078	-45.932	-0.455	-0.225
-112.064	800.000	-0.067	-0.191
-111.049	623.899	0.108	0.274
-110.034	-116.733	-0.132	-0.024
-109.020	-200.000	-0.005	0.081
-108.005	126.707	0.197	-0.250
-106.991	120.895	-0.172	0.214
-105.976	-200.000	-0.015	0.345
-104.962	121.123	0.197	0.245
-103.947	-133.525	-0.110	0.014
-102.932	144.624	0.145	0.194
-101.918	-200.000	-0.010	0.115
-100.903	147.119	0.195	-0.263
-99.889	-179.916	0.223	-0.005
-98.874	-127.827	0.157	0.023
-97.859	-200.000	0.028	-0.257
-96.845	-77.688	-0.136	0.047
-95.830	-200.000	0.036	-0.470
-94.816	-167.408	-0.355	0.014
-93.801	800.000	-0.079	0.227
-92.786	-200.000	-0.011	-0.164
-91.772	800.000	0.075	0.326
-90.757	-101.024	-0.244	-0.060
-89.743	-114.274	0.110	0.021
-88.728	-35.373	0.268	-0.146
-87.713	-33.627	0.225	-0.124
-86.699	800.000	0.043	0.164
-85.684	-53.594	0.169	0.077
-84.670	-200.000	-0.001	-0.206
-83.655	-133.706	0.200	0.025
-82.640	156.976	0.258	0.356
-81.626	-50.949	-0.377	-0.177
-80.611	381.716	0.174	-0.357
-79.597	18.541	0.276	-0.221
-78.582	-18.345	0.073	-0.046
-77.567	57.288	-0.046	0.045
-76.553	800.000	-0.023	-0.095
-75.538	-57.582	0.393	0.172
-74.524	-165.618	-0.140	0.006
-73.509	-24.995	0.126	0.075
-72.494	495.788	0.029	0.068
-71.480	-95.423	-0.331	-0.089
-70.465	-11.433	0.292	0.192
-69.451	-200.000	0.054	0.340
-68.436	-170.010	-0.079	0.003
-67.422	747.111	-0.084	-0.226
-66.407	-200.000	0.008	0.099
-65.392	800.000	0.079	0.256
-64.378	120.690	-0.195	0.242
-63.363	-160.394	0.130	-0.007
-62.349	-50.695	-0.334	0.157
-61.334	-10.143	-0.797	-0.529
-60.319	800.000	-0.105	0.354
-59.305	-200.000	-0.063	-0.841
-58.290	66.530	0.528	0.537
-57.276	686.480	0.546	1.425
-56.261	-200.000	76.529	541.353
-55.246	523.888	1342.221	3153.503
-54.232	138.830	2585.930	3395.113
-53.217	110.089	2396.228	2874.220
-52.203	49.506	2131.408	2004.732
-51.188	44.141	2039.406	1868.884
-50.173	42.340	2021.325	1835.775
-49.159	54.923	2058.729	1985.938
-48.144	59.810	2078.968	2050.395
-47.130	45.122	2043.246	1881.155
-46.115	42.306	2032.305	1845.142
-45.100	42.076	2030.011	1840.879
-44.086	42.092	2027.119	1838.323
-43.071	42.120	2024.262	1835.917
-42.057	42.052	2022.386	1833.524
-41.042	42.085	2020.575	1832.112
-40.027	42.124	2018.795	1830.784
-39.013	42.205	2016.271	1829.154
-37.998	42.236	2014.368	1827.640
-36.984	42.091	2013.299	1825.278
-35.969	42.122	2011.537	1823.887
-34.954	42.178	2009.863	1822.805
-33.940	42.187	2007.756	1820.905
-32.925	42.258	2005.966	1819.860
-31.911	42.246	2004.032	1817.920
-30.896	42.308	2002.219	1816.766
-29.881	42.260	2000.829	1814.999
-28.867	42.309	1999.379	1814.054
-27.852	42.264	1997.405	1811.788
-26.838	42.321	1995.505	1810.506
-25.823	42.301	1993.665	1808.581
-24.809	42.345	1991.628	1807.056
-23.794	42.366	1989.919	1805.625
-22.779	42.310	1988.485	1803.746
-21.765	42.279	1986.937	1801.992
-20.750	42.257	1985.556	1800.469
-19.736	42.241	1983.714	1798.589
-18.721	42.261	1982.257	1797.373
-17.706	42.242	1980.514	1795.552
-16.692	42.351	1978.011	1794.186
-15.677	42.263	1976.642	1792.089
-14.663	42.238	1975.324	1790.601
-13.648	42.230	1974.235	1789.466
-12.633	42.261	1972.991	1788.546
-11.619	42.255	1971.473	1787.050
-10.604	42.170	1970.448	1785.291
-9.590	42.245	1968.560	1784.176
-8.575	42.305	1966.913	1783.143
-7.560	42.246	1966.122	1781.830
-6.546	42.255	1964.635	1780.494
-5.531	42.362	1962.817	1779.725
-4.517	42.318	1961.891	1778.427
-3.502	42.243	1960.965	1776.847
-2.487	42.254	1959.841	1775.859
-1.473	42.269	1958.869	1775.043
-0.458	42.318	1954.493	1771.435
0.556	39.536	1934.858	1742.936
1.571	34.973	1912.425	1682.562
2.586	30.087	1931.779	1655.909
3.600	28.343	1968.495	1671.333
4.615	27.308	1964.783	1658.607
5.629	23.678	1869.474	1546.460
6.644	17.853	1754.024	1403.084
7.659	14.608	1714.523	1345.248
8.673	14.244	1710.703	1339.202
9.688	14.200	1709.421	1337.726
10.702	14.106	1708.450	1336.095
11.717	13.970	1704.990	1332.175
12.731	14.274	1704.745	1334.305
13.746	18.093	1713.195	1371.498
14.761	21.029	1717.911	1398.735
15.775	19.178	1711.506	1378.592
16.790	17.052	1705.469	1356.636
17.804	15.891	1701.771	1344.310
18.819	14.876	1698.308	1333.365
19.834	14.207	1695.658	1325.834
20.848	13.781	1694.031	1321.052
21.863	13.403	1692.472	1316.712
22.877	13.185	1690.637	1313.442
23.892	13.020	1688.839	1310.614
24.907	12.867	1688.047	1308.670
25.921	12.760	1687.368	1307.178
26.936	12.781	1686.039	1306.198
27.950	12.839	1685.006	1305.741
28.965	12.917	1684.558	1305.901
29.980	12.910	1684.143	1305.405
30.994	13.019	1682.677	1305.019
32.009	13.092	1681.399	1304.488
33.023	13.099	1680.593	1303.799
34.038	13.042	1680.144	1302.888
35.053	13.095	1679.210	1302.468
36.067	13.074	1677.451	1300.824
37.082	13.072	1675.905	1299.490
38.096	13.073	1675.231	1298.858
39.111	13.044	1674.687	1298.096
40.126	13.085	1673.830	1297.641
41.140	13.065	1672.670	1296.468
42.155	13.030	1670.895	1294.705
43.169	12.854	1669.909	1292.442
44.184	12.914	1668.299	1291.556
45.199	12.790	1667.335	1289.727
46.213	12.834	1666.213	1289.088
47.228	12.862	1665.180	1288.387
48.242	12.876	1664.454	1287.822
49.257	12.948	1662.621	1286.852
50.271	12.982	1661.674	1286.271
51.286	12.991	1660.444	1285.281
52.301	12.932	1659.175	1283.720
53.315	12.979	1657.824	1282.927
54.330	12.986	1656.498	1281.845
55.344	12.896	1654.498	1279.482
56.359	12.890	1652.907	1278.097
57.374	12.845	1651.800	1276.779
58.388	12.852	1651.045	1276.130
59.403	12.832	1649.359	1274.560
60.417	12.773	1648.377	1273.235
61.432	12.762	1647.494	1272.357
62.447	12.752	1646.075	1271.071
63.461	12.836	1644.216	1270.171
64.476	12.755	1643.398	1268.803
65.490	12.783	1642.278	1268.038
66.505	12.782	1641.347	1267.198
67.520	12.750	1640.153	1265.925
68.534	12.723	1639.832	1265.351
69.549	12.714	1638.437	1264.094
70.563	12.788	1636.706	1263.218
71.578	12.797	1635.337	1262.114
72.593	12.840	1634.640	1261.800
73.607	12.713	1633.889	1260.132
74.622	12.739	1632.183	1258.907
75.636	12.664	1631.842	1257.957
76.651	12.682	1630.666	1257.075
77.666	12.731	1629.511	1256.451
78.680	12.715	1628.664	1255.562
79.695	12.753	1628.084	1255.291
80.709	12.639	1627.330	1253.733
81.724	12.741	1626.248	1253.564
82.739	12.771	1625.626	1253.206
83.753	12.785	1624.567	1252.381
84.768	12.894	1623.250	1252.085
85.782	12.980	1622.881	1252.341
86.797	12.963	1622.479	1251.788
87.812	13.065	1621.057	1251.356
88.826	13.022	1619.799	1249.952
89.841	12.933	1618.921	1248.489
90.855	12.948	1617.866	1247.674
91.870	12.991	1616.930	1247.167
92.884	12.930	1615.889	1245.795
93.899	12.976	1615.244	1245.536
94.914	13.037	1613.383	1244.448
95.928	13.010	1612.560	1243.505
96.943	13.047	1610.995	1242.461
97.957	13.024	1609.552	1241.065
98.972	13.009	1607.828	1239.512
99.987	13.033	1605.908	1238.103
101.001	13.107	1604.569	1237.520
102.016	13.031	1603.199	1235.782
103.030	12.995	1602.321	1234.729
104.045	12.920	1601.209	1233.201
105.060	13.137	1599.233	1233.193
106.074	13.061	1597.451	1231.138
107.089	12.926	1596.561	1229.338
108.103	12.863	1594.955	1227.525
109.118	12.747	1593.647	1225.549
110.133	12.787	1592.336	1224.728
111.147	12.795	1590.893	1223.569
112.162	12.838	1589.666	1222.833
113.176	12.810	1588.141	1221.345
114.191	12.923	1586.255	1220.626
115.206	12.927	1585.583	1220.031
116.220	12.882	1584.486	1218.744
117.235	12.877	1582.980	1217.442
118.249	13.004	1581.683	1217.274
119.264	12.923	1580.143	1215.386
120.279	12.858	1578.901	1213.844
121.293	12.828	1577.793	1212.660
122.308	12.842	1576.340	1211.538
123.322	12.851	1574.609	1210.171
124.337	12.739	1573.495	1208.386
125.352	12.798	1571.983	1207.549
126.366	12.763	1570.768	1206.256
127.381	12.826	1569.948	1205.977
128.395	12.777	1568.840	1204.660
129.410	12.717	1567.495	1203.084
130.424	12.861	1565.427	1202.443
131.439	12.850	1564.591	1201.608
132.454	12.926	1563.040	1200.868
133.468	12.897	1562.077	1199.812
134.483	12.991	1560.470	1199.155
135.497	12.942	1559.070	1197.618
136.512	12.879	1557.971	1196.209
137.527	13.010	1556.401	1195.846
138.541	12.970	1555.097	1194.448
139.556	13.014	1553.927	1193.766
140.570	13.066	1552.255	1192.747
141.585	13.093	1551.325	1192.122
142.600	13.119	1550.151	1191.303
143.614	13.103	1548.898	1190.121
144.629	13.219	1547.748	1189.963
145.643	13.252	1546.155	1188.871
146.658	13.267	1545.153	1188.103
147.673	13.129	1543.827	1185.989
148.687	13.164	1542.082	1184.799
149.702	13.135	1540.387	1183.183
150.716	13.135	1538.567	1181.681
151.731	13.096	1537.421	1180.413
152.746	13.029	1536.607	1179.204
153.760	13.098	1534.761	1178.180
154.775	13.164	1533.607	1177.658
155.789	13.144	1532.798	1176.791
156.804	13.200	1531.178	1175.841
157.819	13.232	1529.940	1175.014
158.833	13.227	1528.815	1174.010
159.848	13.225	1527.741	1173.065
160.862	13.265	1526.703	1172.450
161.877	13.320	1525.040	1171.459
162.892	13.216	1524.467	1170.180
163.906	13.176	1523.212	1168.828
164.921	13.183	1521.623	1167.555
165.935	13.158	1520.792	1166.641
166.950	13.220	1519.614	1166.071
167.964	13.263	1518.120	1165.120
168.979	13.227	1517.114	1163.993
169.994	13.226	1516.185	1163.170
171.008	13.112	1515.520	1161.754
172.023	13.266	1514.230	1161.750
173.037	13.309	1512.903	1160.926
174.052	13.298	1511.737	1159.853
175.067	13.365	1510.690	1159.419
176.081	13.348	1509.367	1158.180
177.096	13.271	1507.982	1156.479
178.110	13.281	1506.462	1155.281
179.125	13.180	1506.036	1154.143
180.140	13.283	1504.506	1153.587
181.154	13.294	1503.866	1153.072
182.169	13.308	1502.823	1152.264
183.183	13.319	1501.551	1151.269
184.198	13.416	1500.469	1151.013
185.213	13.426	1499.513	1150.243
186.227	13.498	1498.086	1149.548
187.242	13.426	1497.713	1148.663
188.256	13.545	1496.110	1148.155
189.271	13.564	1495.085	1147.400
190.286	13.677	1493.793	1147.085
191.300	13.509	1492.958	1145.182
192.315	13.443	1491.630	1143.605
193.329	13.283	1490.644	1141.646
194.344	13.347	1489.342	1140.989
195.359	13.263	1488.220	1139.450
196.373	13.408	1487.251	1139.605
197.388	13.491	1486.087	1139.184
198.402	13.546	1485.452	1138.973
199.417	13.620	1484.212	1138.426
200.432	13.705	1482.966	1137.954
201.446	13.626	1482.118	1136.664
202.461	13.777	1480.597	1136.429
203.475	13.697	1479.900	1135.249
204.490	13.832	1478.589	1135.064
205.504	13.729	1477.611	1133.511
206.519	13.735	1476.511	1132.607
207.534	13.743	1475.051	1131.437
208.548	13.710	1474.344	1130.573
209.563	13.820	1472.476	1129.793
210.577	13.816	1471.712	1129.077
211.592	13.685	1471.229	1127.715
212.607	13.807	1470.317	1127.745
213.621	13.796	1469.913	1127.263
214.636	13.789	1469.247	1126.602
215.650	13.810	1467.787	1125.524
216.665	13.884	1466.644	1125.052
217.680	13.936	1466.107	1124.890
218.694	13.832	1465.779	1123.840
219.709	13.891	1464.553	1123.195
220.723	13.905	1463.626	1122.482
221.738	13.945	1462.929	1122.118
222.753	13.947	1461.412	1120.871
223.767	13.919	1460.285	1119.715
224.782	13.973	1459.752	1119.570
225.796	14.032	1458.801	1119.142
226.811	13.995	1457.823	1118.040
227.826	14.061	1457.090	1117.825
228.840	14.043	1456.290	1116.994
229.855	14.087	1455.231	1116.377
230.869	14.012	1454.394	1115.132
231.884	14.002	1453.352	1114.169
232.899	13.975	1452.221	1113.019
233.913	14.069	1450.892	1112.530
234.928	13.960	1450.046	1111.058
235.942	13.931	1448.442	1109.534
236.957	13.955	1447.317	1108.735
237.972	14.029	1445.707	1107.896
238.986	13.985	1444.928	1106.907
240.001	14.030	1444.130	1106.500
241.015	14.077	1443.038	1105.875
242.030	14.151	1441.780	1105.305
243.045	14.073	1441.049	1104.129
244.059	14.109	1440.303	1103.701
245.074	14.237	1438.928	1103.398
246.088	14.151	1438.605	1102.486
247.103	14.306	1437.460	1102.532
248.117	14.217	1437.019	1101.512
249.132	14.284	1436.514	1101.471
250.147	14.341	1435.374	1100.874
251.161	14.443	1434.766	1100.980
252.176	14.509	1434.066	1100.782
253.190	14.517	1433.401	1100.230
254.205	14.607	1432.584	1100.100
255.220	14.596	1431.716	1099.262
256.234	14.563	1430.689	1098.160
257.249	14.584	1429.737	1097.470
258.263	14.576	1429.099	1096.831
259.278	14.558	1428.325	1096.019
260.293	14.541	1427.698	1095.328
261.307	14.603	1426.511	1094.729
262.322	14.603	1425.797	1094.085
263.336	14.781	1424.503	1094.164
264.351	14.703	1423.519	1092.799
265.366	14.777	1422.592	1092.474
266.380	14.856	1421.730	1092.234
267.395	14.790	1420.832	1091.012
268.409	14.798	1420.020	1090.343
269.424	14.744	1419.272	1089.326
270.439	14.771	1417.894	1088.346
271.453	14.829	1417.054	1087.983
272.468	14.799	1416.163	1087.003
273.482	14.769	1415.709	1086.366
274.497	14.748	1414.586	1085.271
275.512	14.760	1414.039	1084.832
276.526	14.783	1412.796	1083.936
277.541	14.743	1412.123	1083.065
278.555	14.859	1410.666	1082.599
279.570	14.924	1410.177	1082.547
280.585	14.818	1409.188	1081.006
281.599	14.897	1408.321	1080.759
282.614	14.987	1407.291	1080.451
283.628	14.853	1406.491	1078.880
284.643	14.902	1405.157	1078.074
285.657	14.898	1404.121	1077.160
286.672	14.898	1402.904	1076.130
287.687	15.023	1402.256	1076.343
288.701	14.998	1401.157	1075.246
289.716	14.917	1400.742	1074.311
290.730	15.046	1399.800	1074.321
291.745	14.960	1398.921	1073.000
292.760	14.946	1397.587	1071.790
293.774	15.009	1396.823	1071.516
294.789	15.024	1395.551	1070.538
295.803	15.138	1394.765	1070.572
296.818	15.180	1393.935	1070.110
297.833	15.071	1392.936	1068.552
298.847	15.062	1391.886	1067.590
299.862	15.079	1391.045	1066.964
300.876	15.104	1390.233	1066.402
301.891	15.130	1389.128	1065.623
302.906	15.186	1388.592	1065.477
303.920	15.224	1387.790	1065.010
304.935	15.290	1386.977	1064.712
305.949	15.392	1386.291	1064.739
306.964	15.385	1385.084	1063.672
307.979	15.330	1384.382	1062.687
308.993	15.322	1383.336	1061.743
310.008	15.409	1382.447	1061.513
311.022	15.356	1381.598	1060.436
312.037	15.389	1380.537	1059.736
313.052	15.327	1379.665	1058.578
314.066	15.424	1378.472	1058.181
315.081	15.365	1377.204	1056.747
316.095	15.192	1376.662	1055.149
317.110	15.242	1375.583	1054.543
318.125	15.378	1374.495	1054.467
319.139	15.259	1373.876	1053.152
320.154	15.367	1372.450	1052.646
321.168	15.344	1371.379	1051.586
322.183	15.321	1370.627	1050.768
323.197	15.350	1369.748	1050.187
324.212	15.209	1369.303	1048.872
325.227	15.361	1368.319	1048.974
326.241	15.465	1367.141	1048.629
327.256	15.437	1366.681	1048.005
328.270	15.378	1365.694	1046.787
329.285	15.458	1364.279	1046.112
330.300	15.539	1363.144	1045.650
331.314	15.434	1362.619	1044.505
332.329	15.465	1361.859	1044.021
333.343	15.512	1360.838	1043.440
334.358	15.497	1360.169	1042.741
335.373	15.537	1359.371	1042.283
336.387	15.502	1358.488	1041.297
337.402	15.619	1357.150	1040.906
338.416	15.607	1357.145	1040.735
339.431	15.593	1356.324	1039.925
340.446	15.721	1355.069	1039.660
341.460	15.722	1354.521	1039.158
342.475	15.745	1354.027	1038.829
343.489	15.733	1352.876	1037.781
344.504	15.765	1351.947	1037.172
345.519	15.890	1350.746	1036.929
346.533	15.877	1349.723	1035.970
347.548	15.845	1349.143	1035.235
348.562	15.856	1348.430	1034.666
349.577	15.998	1347.539	1034.766
350.592	15.866	1347.017	1033.460
351.606	15.887	1345.929	1032.664
352.621	15.859	1344.329	1031.170
353.635	15.805	1343.543	1030.151
354.650	15.889	1342.884	1030.066
355.665	15.809	1342.138	1028.914
356.679	15.863	1340.898	1028.201
357.694	15.925	1339.128	1027.132
358.708	15.837	1338.647	1026.132
359.723	15.948	1337.688	1025.987
360.738	15.966	1336.503	1025.095
361.752	15.933	1335.605	1024.115
362.767	15.961	1334.819	1023.594
363.781	16.035	1333.388	1022.854
364.796	15.999	1333.037	1022.277
365.810	16.027	1332.699	1022.096
366.825	16.058	1331.473	1021.250
367.840	16.122	1330.843	1021.064
368.854	16.140	1330.520	1020.839
369.869	16.294	1329.463	1020.867
370.883	16.351	1328.882	1020.677
371.898	16.254	1327.954	1019.288
372.913	16.173	1327.116	1018.065
373.927	16.118	1326.604	1017.251
374.942	16.218	1325.734	1017.092
375.956	16.215	1325.174	1016.557
376.971	16.377	1323.798	1016.385
377.986	16.349	1322.985	1015.506
379.000	16.280	1322.381	1014.536
380.015	16.341	1321.578	1014.197
381.029	16.455	1320.942	1014.303
382.044	16.430	1319.897	1013.259
383.059	16.514	1318.974	1012.968
384.073	16.397	1318.911	1012.125
385.088	16.468	1318.256	1011.956
386.102	16.540	1317.142	1011.444
387.117	16.491	1316.610	1010.653
388.132	16.475	1315.737	1009.801
389.146	16.555	1315.004	1009.624
390.161	16.431	1314.359	1008.300
391.175	16.400	1313.370	1007.268
392.190	16.364	1312.823	1006.545
393.205	16.435	1311.999	1006.244
394.219	16.542	1311.015	1006.041
395.234	16.506	1309.463	1004.542
396.248	16.541	1308.170	1003.672
397.263	16.518	1306.936	1002.501
398.278	16.499	1305.790	1001.422
399.292	16.561	1304.430	1000.654
400.307	16.511	1303.427	999.501
401.321	16.509	1302.433	998.636
402.336	16.481	1301.422	997.614
403.350	16.548	1300.138	996.933
404.365	16.489	1299.138	995.731
405.380	16.575	1298.439	995.611
406.394	16.599	1297.752	995.138
407.409	16.654	1296.982	994.782
408.423	16.576	1296.376	993.776
409.438	16.807	1295.675	994.503
410.453	16.807	1294.984	993.885
411.467	16.779	1294.333	993.134
412.482	16.891	1293.692	993.212
413.496	16.845	1293.096	992.398
414.511	16.816	1292.710	991.841
415.526	16.882	1291.665	991.339
416.540	16.957	1290.797	991.022
417.555	16.998	1289.912	990.495
418.569	16.965	1289.946	990.243
419.584	16.906	1289.687	989.611
420.599	16.895	1288.858	988.820
421.613	74.928	1320.155	1347.029
422.628	74.135	1324.697	1347.152
