DTS Sentinel unit serial number:	SN413079Multiplexer serial number:	ORYXHardware model number:	OX4-SRSoftware version number:	ORYX F/W v4.00 Oryx Data Collector v3.7.2.0data status	okinstallation	princeton_trtdifferential loss correction	single-endedforward channel	channel 4reverse channel	N/Adate	2019/09/11time	21:15:10forward acquisition time	60.00reverse acquisition time	0.00gamma	496.2192k internal	0.2305k external	0.2305temperature offset calibration	1.0065default loss term (dB/km)	0.3790temperature slope calibration	1.0000multiplexer offset coefficient	1.0000multiplexer slope coefficient	1.0000fibre end	0.00T internal ref (°C)	36.34T ext. ref 1 (°C)	1.57T ext. ref 2 (°C)	30.49length (m)	temperature (°C)	Stokes	anti-Stokes-747.200	84.425	0.202	0.224
-746.185	459.542	-0.128	0.290
-745.171	244.845	0.052	0.089
-744.156	-112.439	-0.370	0.075
-743.142	800.000	0.031	-0.136
-742.127	222.693	0.033	-0.054
-741.112	-163.110	-0.553	0.027
-740.098	-19.785	-0.356	0.224
-739.083	800.000	0.055	0.182
-738.069	355.094	0.190	0.384
-737.054	31.691	-0.160	-0.140
-736.039	107.394	0.255	-0.309
-735.025	113.236	-0.205	0.253
-734.010	-6.802	0.093	-0.064
-732.996	46.940	-0.213	-0.201
-731.981	-128.774	0.075	0.011
-730.966	800.000	-0.016	-0.064
-729.952	199.459	-0.218	-0.339
-728.937	800.000	-0.038	0.121
-727.923	800.000	-0.073	-0.285
-726.908	800.000	0.100	-0.441
-725.894	308.776	0.121	-0.230
-724.879	-119.555	-0.263	0.046
-723.864	27.533	-0.362	-0.309
-722.850	-129.748	-0.133	-0.019
-721.835	181.110	-0.083	-0.124
-720.821	104.255	0.011	-0.013
-719.806	-34.414	0.249	0.139
-718.791	-155.381	0.182	-0.012
-717.777	-31.238	0.250	0.143
-716.762	-146.554	-0.446	-0.039
-715.748	182.893	-0.201	-0.302
-714.733	-98.965	-0.427	-0.110
-713.718	-128.255	-0.206	0.030
-712.704	170.580	-0.294	0.429
-711.689	-200.000	-0.004	0.225
-710.675	265.744	0.008	-0.014
-709.660	-93.862	0.473	0.132
-708.645	257.142	-0.078	-0.137
-707.631	-200.000	-0.002	-0.092
-706.616	-200.000	-0.029	-0.283
-705.602	-98.099	-0.075	0.020
-704.587	72.352	0.147	0.155
-703.572	-87.879	0.380	0.116
-702.558	147.438	0.105	0.143
-701.543	800.000	-0.045	-0.148
-700.529	358.836	0.106	0.215
-699.514	124.284	0.160	-0.204
-698.499	74.508	0.094	0.101
-697.485	-23.507	0.050	-0.030
-696.470	-200.000	0.009	-0.089
-695.456	135.489	-0.149	-0.197
-694.441	220.670	0.048	0.078
-693.426	-95.373	0.200	-0.055
-692.412	800.000	-0.061	0.272
-691.397	-200.000	-0.011	-0.220
-690.383	-45.737	-0.158	-0.079
-689.368	173.389	0.127	-0.187
-688.354	-200.000	0.001	0.145
-687.339	-33.662	-0.171	0.096
-686.324	-44.460	0.156	-0.079
-685.310	-10.898	-0.147	0.099
-684.295	120.034	-0.112	-0.141
-683.281	18.912	0.201	-0.163
-682.266	518.517	-0.039	0.093
-681.251	21.304	0.188	-0.155
-680.237	223.131	0.198	0.324
-679.222	99.531	0.070	0.082
-678.208	-200.000	0.042	0.249
-677.193	800.000	0.069	-0.245
-676.178	71.320	0.234	0.247
-675.164	768.473	-0.034	-0.094
-674.149	152.270	-0.212	-0.293
-673.135	800.000	-0.040	0.172
-672.120	800.000	-0.035	0.131
-671.105	-181.983	0.082	-0.002
-670.091	-200.000	0.012	-0.104
-669.076	23.379	0.233	-0.194
-668.062	-200.000	-0.084	-0.378
-667.047	119.382	-0.079	-0.099
-666.032	31.960	0.181	0.158
-665.018	610.950	0.116	0.295
-664.003	-83.269	-0.189	-0.062
-662.989	-200.000	-0.088	0.000
-661.974	800.000	0.057	-0.228
-660.959	-200.000	-0.009	-0.153
-659.945	102.090	-0.026	-0.031
-658.930	800.000	-0.021	-0.075
-657.916	800.000	0.021	-0.077
-656.901	65.027	-0.018	-0.018
-655.886	800.000	-0.061	-0.203
-654.872	-92.330	0.232	0.066
-653.857	-7.615	-0.246	0.169
-652.843	-179.516	0.299	-0.007
-651.828	227.991	0.080	-0.133
-650.814	-200.000	-0.020	0.181
-649.799	800.000	-0.033	-0.147
-648.784	-200.000	-0.020	0.169
-647.770	524.646	-0.085	-0.204
-646.755	-8.011	-0.571	-0.391
-645.741	183.721	-0.041	-0.062
-644.726	238.099	0.071	-0.120
-643.711	120.964	-0.160	-0.201
-642.697	-122.224	0.246	-0.041
-641.682	-200.000	0.004	0.030
-640.668	82.446	0.194	-0.214
-639.653	263.651	-0.096	-0.169
-638.638	-38.601	-0.258	-0.138
-637.624	185.220	0.136	0.204
-636.609	0.393	-0.257	0.186
-635.595	243.030	-0.235	0.399
-634.580	-33.800	0.162	-0.091
-633.565	-200.000	0.019	-0.549
-632.551	-74.345	0.163	0.060
-631.536	58.005	-0.258	0.256
-630.522	-33.763	0.091	0.051
-629.507	158.217	-0.092	0.129
-628.492	-200.000	0.024	0.196
-627.478	-159.526	-0.537	-0.030
-626.463	-8.857	-0.296	-0.201
-625.449	-139.742	0.346	0.037
-624.434	33.098	0.091	-0.080
-623.419	290.361	-0.070	0.129
-622.405	-129.037	-0.294	0.042
-621.390	-70.648	0.152	-0.058
-620.376	41.201	0.147	0.135
-619.361	29.975	0.052	0.045
-618.346	800.000	-0.076	-0.282
-617.332	-33.588	0.277	0.155
-616.317	-126.338	-0.352	0.053
-615.303	159.925	0.172	-0.242
-614.288	-99.709	0.216	-0.055
-613.273	-200.000	-0.023	-0.203
-612.259	-127.292	-0.238	0.035
-611.244	-200.000	-0.018	0.229
-610.230	367.450	0.036	0.073
-609.215	-200.000	-0.011	-0.300
-608.201	331.763	0.107	-0.210
-607.186	202.834	0.222	-0.347
-606.171	-141.981	-0.067	0.007
-605.157	18.697	-0.181	-0.147
-604.142	-200.000	0.034	-0.488
-603.128	-200.000	0.040	-0.237
-602.113	-123.592	-0.244	0.039
-601.098	800.000	0.145	0.505
-600.084	-200.000	-0.056	0.266
-599.069	-34.664	-0.088	0.049
-598.055	-141.879	0.244	-0.025
-597.040	40.511	-0.099	0.091
-596.025	195.624	0.047	-0.073
-595.011	-157.385	-0.185	0.011
-593.996	-149.037	0.117	0.010
-592.982	565.742	-0.143	0.351
-591.967	55.457	-0.104	0.102
-590.952	-200.000	0.090	-0.000
-589.938	-200.000	-0.050	0.239
-588.923	193.693	-0.037	-0.057
-587.909	-20.075	-0.061	0.038
-586.894	-200.000	0.005	0.028
-585.879	800.000	0.018	0.058
-584.865	-200.000	0.010	0.134
-583.850	800.000	0.036	-0.145
-582.836	-13.604	-0.166	-0.109
-581.821	-114.467	-0.226	-0.044
-580.806	-118.508	-0.273	0.049
-579.792	-200.000	0.006	-0.188
-578.777	40.581	0.071	0.065
-577.763	-10.128	-0.211	-0.142
-576.748	-89.940	0.169	-0.050
-575.733	257.088	-0.022	0.039
-574.719	494.209	0.066	-0.153
-573.704	-200.000	-0.062	-0.388
-572.690	800.000	-0.131	0.442
-571.675	2.745	-0.040	0.030
-570.661	-128.682	0.348	-0.050
-569.646	-200.000	-0.020	-0.138
-568.631	-200.000	0.020	0.112
-567.617	189.962	0.164	0.249
-566.602	602.945	0.016	0.039
-565.588	-35.181	-0.243	-0.134
-564.573	555.887	-0.126	-0.307
-563.558	800.000	-0.028	0.110
-562.544	800.000	-0.050	-0.177
-561.529	301.178	-0.091	-0.170
-560.515	-53.623	-0.335	0.155
-559.500	59.244	-0.105	0.105
-558.485	725.687	-0.097	-0.260
-557.471	800.000	0.104	-0.346
-556.456	202.111	-0.218	-0.339
-555.442	10.321	0.153	0.118
-554.427	-42.185	0.222	0.115
-553.412	-119.511	-0.241	0.042
-552.398	-79.827	0.192	0.065
-551.383	-80.947	-0.240	-0.080
-550.369	14.524	0.045	0.036
-549.354	-200.000	-0.020	-0.180
-548.339	183.995	0.229	0.343
-547.325	33.812	-0.134	-0.117
-546.310	800.000	0.039	-0.162
-545.296	340.023	-0.158	-0.312
-544.281	-200.000	0.018	-0.142
-543.266	-47.080	0.202	0.100
-542.252	-200.000	0.017	0.483
-541.237	202.774	-0.019	0.030
-540.223	14.374	0.302	0.238
-539.208	73.116	0.141	0.149
-538.193	630.255	0.164	-0.419
-537.179	800.000	-0.058	-0.246
-536.164	-57.475	-0.174	-0.077
-535.150	800.000	0.089	-0.272
-534.135	800.000	0.064	0.188
-533.121	-7.862	0.333	-0.227
-532.106	-19.605	-0.177	-0.111
-531.091	166.602	-0.062	0.089
-530.077	-52.403	-0.134	0.062
-529.062	743.783	-0.038	-0.103
-528.048	104.238	-0.136	-0.162
-527.033	-8.256	0.384	-0.261
-526.018	274.818	-0.029	-0.051
-525.004	-7.223	-0.279	0.191
-523.989	-141.927	0.233	0.023
-522.975	-183.662	-0.191	0.003
-521.960	100.204	-0.201	0.235
-520.945	-124.268	-0.047	0.007
-519.931	-145.058	-0.376	0.035
-518.916	-200.000	0.003	0.079
-517.902	-116.756	-0.178	0.033
-516.887	121.168	-0.259	0.325
-515.872	-68.456	-0.275	0.107
-514.858	-200.000	0.012	-0.150
-513.843	636.711	-0.013	-0.034
-512.829	291.878	0.231	-0.424
-511.814	-37.047	0.170	-0.092
-510.799	-66.216	0.286	0.115
-509.785	11.826	0.123	0.096
-508.770	800.000	-0.046	0.164
-507.756	800.000	0.105	-0.306
-506.741	-200.000	0.014	-0.145
-505.726	-25.752	0.189	0.113
-504.712	-26.804	-0.197	0.116
-503.697	-80.723	0.119	0.040
-502.683	2.007	0.090	-0.066
-501.668	-78.895	-0.239	0.082
-500.653	-52.932	0.140	0.065
-499.639	31.448	-0.199	0.172
-498.624	-120.845	-0.377	-0.064
-497.610	-85.038	-0.183	-0.058
-496.595	-200.000	-0.057	-0.303
-495.581	-200.000	0.000	0.248
-494.566	2.173	-0.114	-0.083
-493.551	272.326	-0.106	-0.189
-492.537	275.804	0.105	0.188
-491.522	800.000	-0.011	0.043
-490.508	14.961	-0.136	-0.107
-489.493	216.459	0.112	-0.180
-488.478	38.759	0.143	0.129
-487.464	-104.320	0.088	-0.021
-486.449	235.368	0.180	0.299
-485.435	34.235	0.123	-0.108
-484.420	-147.872	-0.192	-0.016
-483.405	309.054	0.077	0.146
-482.391	799.242	0.142	0.395
-481.376	-200.000	-0.003	-0.142
-480.362	759.117	-0.042	0.115
-479.347	-88.102	0.332	0.100
-478.332	-29.324	-0.287	0.165
-477.318	-200.000	0.020	-0.182
-476.303	-79.625	-0.360	0.122
-475.289	72.984	-0.081	-0.085
-474.274	800.000	-0.048	-0.197
-473.259	-117.823	0.225	-0.041
-472.245	-23.170	0.203	0.123
-471.230	-26.190	0.116	0.069
-470.216	-68.947	0.103	0.040
-469.201	-200.000	-0.071	-0.391
-468.186	-92.241	0.314	0.089
-467.172	-200.000	0.059	-0.333
-466.157	73.644	-0.188	0.198
-465.143	268.337	-0.194	0.342
-464.128	-200.000	0.015	0.083
-463.113	-200.000	-0.013	-0.075
-462.099	-142.801	0.314	-0.031
-461.084	-53.400	-0.403	0.186
-460.070	-175.585	0.145	-0.004
-459.055	-200.000	0.008	-0.136
-458.040	-67.564	-0.173	-0.068
-457.026	107.859	-0.115	-0.138
-456.011	800.000	-0.060	-0.214
-454.997	-21.019	-0.162	-0.100
-453.982	158.871	0.071	0.100
-452.968	-159.478	0.285	-0.016
-451.953	-116.523	-0.269	0.050
-450.938	800.000	0.101	0.339
-449.924	-200.000	0.023	0.270
-448.909	-64.481	0.151	0.062
-447.895	-54.833	-0.325	0.148
-446.880	33.535	-0.140	-0.122
-445.865	545.085	-0.049	0.117
-444.851	-200.000	0.045	0.280
-443.836	-200.000	0.027	-0.289
-442.822	-200.000	-0.106	0.527
-441.807	-13.255	-0.233	0.152
-440.792	-65.010	0.371	-0.151
-439.778	-18.709	0.169	-0.106
-438.763	-50.302	0.039	-0.018
-437.749	-12.705	0.069	-0.045
-436.734	-124.606	0.320	0.050
-435.719	418.105	0.090	0.193
-434.705	703.069	-0.101	-0.269
-433.690	-106.878	0.221	0.049
-432.676	4.127	-0.229	0.168
-431.661	72.321	-0.185	0.194
-430.646	-26.973	-0.161	0.094
-429.632	-89.555	0.068	0.020
-428.617	205.442	-0.100	0.157
-427.603	-168.707	-0.299	-0.011
-426.588	137.529	-0.091	0.120
-425.573	-128.253	-0.116	-0.017
-424.559	502.896	-0.112	0.260
-423.544	-200.000	0.001	-0.238
-422.530	252.763	0.130	-0.223
-421.515	-136.114	-0.311	0.037
-420.500	-180.475	-0.193	0.004
-419.486	299.167	0.035	-0.066
-418.471	-74.548	0.176	-0.064
-417.457	5.558	-0.063	0.047
-416.442	356.233	-0.113	-0.227
-415.428	-62.266	-0.154	0.065
-414.413	-115.960	-0.199	-0.037
-413.398	-200.000	0.118	-0.558
-412.384	36.156	-0.173	0.153
-411.369	241.010	0.109	-0.182
-410.355	800.000	-0.024	0.073
-409.340	800.000	0.116	0.377
-408.325	-186.399	-0.359	-0.005
-407.311	-48.352	0.149	-0.072
-406.296	26.100	0.171	0.143
-405.282	352.210	-0.130	0.258
-404.267	-44.872	0.255	-0.127
-403.252	-69.390	0.284	0.110
-402.238	-200.000	-0.010	0.366
-401.223	-71.532	0.058	0.022
-400.209	-194.083	0.142	-0.001
-399.194	-200.000	-0.055	0.404
-398.179	800.000	0.089	-0.311
-397.165	-66.621	-0.172	-0.068
-396.150	-200.000	-0.000	-0.202
-395.136	800.000	0.049	0.150
-394.121	-4.692	0.124	0.086
-393.106	-125.412	-0.113	-0.017
-392.092	-136.799	0.339	-0.039
-391.077	58.784	0.120	0.119
-390.063	-124.841	-0.338	-0.052
-389.048	-40.431	-0.191	-0.100
-388.033	-128.635	-0.315	0.045
-387.019	2.652	-0.024	-0.017
-386.004	-76.222	0.239	0.085
-384.990	-200.000	-0.006	0.228
-383.975	-157.128	0.179	-0.011
-382.960	800.000	0.079	-0.231
-381.946	328.788	-0.105	0.202
-380.931	-67.119	0.146	-0.058
-379.917	-121.487	-0.015	0.003
-378.902	-109.950	0.300	0.063
-377.888	800.000	0.068	0.245
-376.873	-55.394	-0.186	0.084
-375.858	-78.159	-0.214	0.074
-374.844	513.311	0.138	0.323
-373.829	-24.831	-0.283	0.168
-372.815	-117.028	0.140	-0.026
-371.800	-119.921	-0.198	0.034
-370.785	356.085	0.049	-0.097
-369.771	-88.915	0.350	-0.104
-368.756	-200.000	-0.010	0.064
-367.742	-55.856	-0.423	-0.190
-366.727	-176.711	0.184	-0.005
-365.712	154.910	-0.103	0.142
-364.698	185.914	-0.195	-0.291
-363.683	-95.826	0.136	0.036
-362.669	-131.433	-0.283	0.038
-361.654	109.568	-0.060	0.072
-360.639	800.000	0.049	0.191
-359.625	555.729	0.088	-0.212
-358.610	197.257	-0.067	-0.103
-357.596	-200.000	0.062	-0.299
-356.581	200.067	0.110	-0.170
-355.566	800.000	-0.006	0.017
-354.552	528.184	-0.124	-0.292
-353.537	800.000	-0.073	-0.314
-352.523	4.595	0.310	0.228
-351.508	800.000	-0.070	0.226
-350.493	-122.351	-0.169	-0.028
-349.479	155.885	-0.165	-0.227
-348.464	-65.770	0.070	-0.028
-347.450	284.127	-0.062	-0.112
-346.435	-131.875	-0.192	-0.025
-345.420	388.822	-0.070	-0.144
-344.406	-200.000	-0.040	0.414
-343.391	-141.157	-0.129	-0.013
-342.377	-49.291	0.151	-0.072
-341.362	-60.496	-0.144	0.061
-340.348	-20.860	0.303	0.186
-339.333	-33.067	0.265	0.148
-338.318	202.098	-0.110	0.170
-337.304	-200.000	-0.012	-0.089
-336.289	-200.000	0.055	0.444
-335.275	-112.963	0.429	0.085
-334.260	800.000	-0.071	-0.305
-333.245	-123.053	0.159	-0.026
-332.231	74.560	0.040	-0.042
-331.216	171.563	-0.120	-0.172
-330.202	-107.182	0.228	0.050
-329.187	58.420	0.235	-0.231
-328.172	-200.000	0.033	0.388
-327.158	132.903	-0.210	0.271
-326.143	87.872	0.103	-0.114
-325.129	36.678	-0.287	-0.253
-324.114	28.538	-0.185	-0.157
-323.099	800.000	0.040	0.132
-322.085	233.289	0.140	-0.230
-321.070	-68.361	0.215	-0.084
-320.056	-200.000	0.015	-0.077
-319.041	-26.683	0.302	0.177
-318.026	247.435	0.073	0.123
-317.012	-200.000	-0.034	0.244
-315.997	800.000	0.054	-0.167
-314.983	-168.771	0.090	-0.003
-313.968	-100.165	-0.173	0.043
-312.953	466.112	0.026	-0.059
-311.939	-200.000	-0.005	0.169
-310.924	-50.439	0.109	0.051
-309.910	155.959	0.085	-0.117
-308.895	-104.494	-0.256	0.059
-307.880	148.880	0.090	0.122
-306.866	495.251	0.122	-0.280
-305.851	312.825	-0.069	-0.130
-304.837	325.880	0.080	0.154
-303.822	-133.391	0.067	0.008
-302.807	-200.000	-0.022	0.164
-301.793	494.815	0.035	0.081
-300.778	293.074	-0.036	0.066
-299.764	-6.972	0.207	-0.141
-298.749	-98.213	0.104	0.027
-297.735	-200.000	0.020	0.163
-296.720	225.803	0.097	-0.158
-295.705	-200.000	-0.044	-0.245
-294.691	-200.000	0.008	-0.142
-293.676	-122.039	0.444	-0.073
-292.662	-36.494	0.144	0.078
-291.647	94.370	0.181	0.206
-290.632	130.524	-0.262	-0.336
-289.618	-35.762	0.132	0.071
-288.603	800.000	0.056	-0.156
-287.589	8.404	0.143	0.108
-286.574	6.731	-0.182	-0.135
-285.559	-200.000	-0.006	-0.124
-284.545	-160.764	-0.258	0.014
-283.530	195.695	0.213	-0.323
-282.516	348.339	-0.117	0.230
-281.501	-134.658	0.266	0.032
-280.486	12.949	0.067	-0.052
-279.472	-79.581	0.218	-0.073
-278.457	-200.000	-0.039	-0.424
-277.443	800.000	-0.051	-0.160
-276.428	-103.322	0.119	-0.028
-275.413	-200.000	0.011	0.198
-274.399	-92.580	-0.167	0.047
-273.384	-38.596	0.035	0.019
-272.370	-200.000	-0.067	-0.306
-271.355	220.964	-0.163	-0.262
-270.340	800.000	0.168	0.477
-269.326	-164.515	-0.397	-0.018
-268.311	-37.252	-0.026	0.014
-267.297	145.313	0.063	-0.084
-266.282	-172.797	0.252	0.008
-265.267	248.874	0.129	-0.218
-264.253	-141.982	0.106	0.011
-263.238	-111.962	0.147	0.030
-262.224	39.021	0.261	-0.233
-261.209	3.985	-0.185	0.135
-260.195	30.732	0.111	0.095
-259.180	800.000	0.037	-0.136
-258.165	70.909	-0.141	0.145
-257.151	-61.336	0.191	0.080
-256.136	-52.786	0.126	0.058
-255.122	123.173	0.244	0.306
-254.107	29.339	0.216	0.183
-253.092	800.000	-0.048	0.160
-252.078	133.674	-0.143	0.184
-251.063	3.343	-0.128	-0.093
-250.049	-40.750	0.083	-0.043
-249.034	-168.542	0.270	0.010
-248.019	-200.000	0.012	0.387
-247.005	150.021	0.129	0.174
-245.990	145.335	0.134	-0.179
-244.976	-40.801	0.142	0.074
-243.961	306.222	0.126	-0.234
-242.946	-14.094	-0.157	0.101
-241.932	-83.397	0.397	0.127
-240.917	-105.904	0.083	0.019
-239.903	-37.791	0.300	0.159
-238.888	-120.052	0.330	0.056
-237.873	800.000	0.062	0.181
-236.859	-151.554	0.116	-0.009
-235.844	270.506	0.124	-0.217
-234.830	-200.000	-0.029	-0.395
-233.815	800.000	0.073	0.212
-232.800	57.860	0.166	-0.162
-231.786	-74.671	0.113	-0.040
-230.771	-138.101	-0.225	0.025
-229.757	-48.632	-0.067	-0.032
-228.742	800.000	0.030	0.123
-227.727	208.907	-0.147	-0.229
-226.713	-27.723	0.331	-0.191
-225.698	-200.000	-0.216	0.000
-224.684	201.498	0.043	0.065
-223.669	-137.433	0.177	0.020
-222.655	-152.463	-0.271	-0.019
-221.640	800.000	-0.142	-0.561
-220.625	81.023	-0.086	0.093
-219.611	-76.929	-0.246	-0.086
-218.596	272.791	0.046	-0.080
-217.582	156.822	-0.049	-0.068
-216.567	491.428	-0.009	0.021
-215.552	198.031	-0.161	0.245
-214.538	-23.795	0.034	0.020
-213.523	58.350	0.145	-0.142
-212.509	-93.041	-0.343	0.095
-211.494	295.901	-0.108	0.197
-210.479	86.485	-0.161	0.177
-209.465	253.313	-0.319	0.544
-208.450	-200.000	0.022	0.106
-207.436	78.702	-0.123	-0.131
-206.421	800.000	0.069	0.268
-205.406	-120.775	0.282	0.047
-204.392	800.000	-0.039	-0.132
-203.377	195.932	0.082	-0.125
-202.363	512.204	-0.120	-0.280
-201.348	-52.779	0.226	0.104
-200.333	13.352	0.221	-0.170
-199.319	-39.950	0.179	-0.093
-198.304	-200.000	0.061	0.534
-197.290	303.057	0.019	0.036
-196.275	-200.000	-0.014	-0.176
-195.260	800.000	0.047	-0.168
-194.246	343.282	0.048	-0.094
-193.231	-114.197	-0.250	0.048
-192.217	800.000	-0.107	0.323
-191.202	-200.000	0.009	-0.058
-190.187	-200.000	-0.023	-0.318
-189.173	554.857	-0.037	0.089
-188.158	4.138	-0.179	-0.130
-187.144	-11.417	0.307	0.201
-186.129	-200.000	-0.061	0.269
-185.114	-200.000	-0.020	-0.175
-184.100	-87.982	-0.426	0.127
-183.085	-200.000	-0.018	0.265
-182.071	-200.000	0.003	0.035
-181.056	117.523	-0.247	-0.302
-180.042	376.086	0.140	0.285
-179.027	800.000	0.060	0.252
-178.012	79.460	0.096	0.103
-176.998	61.169	0.246	0.243
-175.983	66.083	0.117	0.118
-174.969	-28.694	-0.198	-0.113
-173.954	217.309	-0.161	-0.255
-172.939	-163.621	0.183	0.009
-171.925	209.455	-0.165	0.258
-170.910	-197.036	0.229	-0.001
-169.896	-54.487	-0.150	-0.068
-168.881	420.700	-0.115	-0.245
-167.866	60.829	0.074	-0.073
-166.852	-79.719	0.104	-0.035
-165.837	-200.000	-0.000	-0.075
-164.823	215.340	-0.093	0.147
-163.808	800.000	0.035	0.110
-162.793	176.179	0.040	0.058
-161.779	-182.276	-0.210	0.004
-160.764	201.719	-0.171	-0.262
-159.750	-200.000	-0.012	-0.097
-158.735	-46.293	-0.145	0.071
-157.720	-200.000	-0.021	0.200
-156.706	82.057	0.172	0.185
-155.691	723.569	0.093	-0.248
-154.677	-71.990	-0.121	-0.045
-153.662	-59.753	0.206	-0.088
-152.647	252.292	0.064	-0.108
-151.633	38.830	0.111	-0.098
-150.618	-137.780	0.280	-0.031
-149.604	-99.146	-0.056	0.014
-148.589	-132.397	0.157	-0.020
-147.574	415.641	0.042	-0.090
-146.560	31.767	-0.080	-0.068
-145.545	-77.309	-0.319	0.110
-144.531	800.000	-0.016	-0.048
-143.516	800.000	-0.033	-0.106
-142.502	800.000	0.036	0.105
-141.487	94.205	-0.069	-0.078
-140.472	-107.764	0.237	-0.051
-139.458	-107.780	0.309	-0.067
-138.443	167.323	-0.055	0.077
-137.429	147.275	0.116	0.156
-136.414	82.225	-0.174	0.188
-135.399	-200.000	0.012	0.075
-134.385	120.385	-0.152	-0.188
-133.370	800.000	0.040	0.138
-132.356	34.910	-0.311	-0.271
-131.341	68.289	0.365	-0.372
-130.326	-200.000	-0.010	0.126
-129.312	-152.362	0.269	-0.019
-128.297	95.534	-0.145	0.165
-127.283	270.640	-0.140	0.244
-126.268	-200.000	-0.044	0.269
-125.253	-127.790	0.086	0.012
-124.239	155.003	-0.157	0.214
-123.224	-58.412	0.389	0.168
-122.210	-25.441	-0.184	-0.108
-121.195	-32.192	0.071	-0.040
-120.180	-26.798	-0.064	0.037
-119.166	361.560	-0.085	-0.169
-118.151	-37.282	-0.198	-0.105
-117.137	-121.150	-0.309	-0.051
-116.122	51.614	-0.017	-0.016
-115.107	186.759	0.126	0.187
-114.093	109.213	0.025	0.029
-113.078	230.369	-0.051	-0.083
-112.064	-200.000	-0.029	0.331
-111.049	388.491	0.048	0.098
-110.034	30.141	0.112	-0.095
-109.020	538.479	0.022	0.052
-108.005	-200.000	0.001	-0.225
-106.991	-138.529	0.088	-0.010
-105.976	800.000	0.054	-0.175
-104.962	88.060	-0.119	-0.131
-103.947	-200.000	-0.045	-0.230
-102.932	800.000	0.020	0.058
-101.918	-128.252	0.295	0.042
-100.903	-200.000	0.005	0.029
-99.889	249.181	0.074	0.125
-98.874	-55.339	0.173	-0.077
-97.859	40.018	-0.128	0.114
-96.845	-200.000	0.036	-0.204
-95.830	-200.000	0.038	-0.188
-94.816	-103.743	0.128	0.030
-93.801	800.000	-0.049	-0.144
-92.786	159.350	0.089	-0.123
-91.772	71.066	0.147	-0.151
-90.757	-10.174	-0.254	-0.167
-89.743	-200.000	0.091	0.000
-88.728	-81.222	0.219	0.072
-87.713	-126.172	0.070	-0.010
-86.699	-146.462	0.137	-0.012
-85.684	-1.336	0.320	-0.224
-84.670	276.113	-0.009	0.017
-83.655	-200.000	-0.032	-0.252
-82.640	-108.192	-0.212	0.046
-81.626	-200.000	0.042	0.228
-80.611	800.000	0.053	-0.166
-79.597	69.840	0.028	-0.029
-78.582	-200.000	-0.055	-0.266
-77.567	122.474	-0.106	0.131
-76.553	328.969	0.097	-0.185
-75.538	326.423	0.052	-0.099
-74.524	800.000	0.068	-0.218
-73.509	-16.710	-0.338	0.212
-72.494	-27.096	-0.171	-0.099
-71.480	208.316	0.073	-0.112
-70.465	-173.043	-0.123	0.004
-69.451	95.641	0.206	-0.233
-68.436	206.731	-0.080	0.124
-67.422	-125.431	-0.107	0.016
-66.407	88.821	-0.177	-0.196
-65.392	34.065	0.269	0.232
-64.378	-171.564	-0.308	0.010
-63.363	800.000	-0.058	0.233
-62.349	-200.000	-0.005	0.126
-61.334	154.601	-0.666	-0.907
-60.319	-61.385	0.390	0.163
-59.305	-200.000	-0.033	-0.665
-58.290	313.645	0.432	0.805
-57.276	800.000	0.441	1.685
-56.261	-200.000	91.345	546.158
-55.246	537.069	1360.807	3202.255
-54.232	151.725	2579.281	3482.609
-53.217	107.857	2324.394	2743.459
-52.203	43.279	2073.535	1876.071
-51.188	38.203	1985.016	1750.574
-50.173	36.518	1966.424	1719.138
-49.159	51.204	2015.507	1894.568
-48.144	54.199	2035.669	1940.413
-47.130	38.875	1993.313	1763.658
-46.115	36.342	1982.159	1731.044
-45.100	36.344	1979.065	1728.285
-44.086	36.405	1976.574	1726.591
-43.071	36.351	1973.615	1723.454
-42.057	36.190	1972.037	1720.571
-41.042	36.182	1970.818	1719.365
-40.027	36.237	1968.742	1717.976
-39.013	36.253	1966.203	1715.840
-37.998	36.190	1965.227	1714.353
-36.984	36.308	1962.776	1713.202
-35.969	36.294	1960.666	1711.165
-34.954	36.309	1958.886	1709.677
-33.940	36.363	1957.999	1709.317
-32.925	36.331	1956.623	1707.762
-31.911	36.430	1954.116	1706.382
-30.896	36.398	1952.549	1704.659
-29.881	36.401	1951.184	1703.430
-28.867	36.418	1949.839	1702.340
-27.852	36.444	1947.924	1700.823
-26.838	36.513	1945.567	1699.303
-25.823	36.334	1944.364	1696.619
-24.809	36.372	1942.698	1695.431
-23.794	36.323	1940.733	1693.217
-22.779	36.322	1939.365	1691.944
-21.765	36.283	1937.294	1689.733
-20.750	36.298	1935.650	1688.365
-19.736	36.383	1934.273	1687.840
-18.721	36.417	1932.622	1686.629
-17.706	36.398	1930.912	1684.900
-16.692	36.334	1929.180	1682.760
-15.677	36.351	1928.255	1682.036
-14.663	36.392	1926.732	1680.999
-13.648	36.379	1924.943	1679.261
-12.633	36.407	1923.894	1678.520
-11.619	36.384	1922.490	1677.033
-10.604	36.334	1920.890	1675.138
-9.590	36.286	1920.114	1673.972
-8.575	36.293	1918.365	1672.442
-7.560	36.261	1917.352	1671.215
-6.546	36.387	1915.675	1670.783
-5.531	36.341	1913.973	1668.831
-4.517	36.333	1913.297	1668.104
-3.502	36.383	1912.024	1667.364
-2.487	36.314	1910.868	1665.695
-1.473	36.279	1910.577	1665.073
-0.458	36.285	1906.144	1661.194
0.556	35.947	1886.680	1633.127
1.571	31.628	1866.467	1579.151
2.586	27.581	1886.956	1561.745
3.600	26.366	1923.627	1581.335
4.615	25.911	1919.226	1573.609
5.629	19.716	1817.409	1438.604
6.644	8.419	1692.467	1251.547
7.659	2.213	1651.668	1173.710
8.673	1.635	1648.486	1166.917
9.688	1.668	1646.432	1165.611
10.702	1.537	1644.960	1163.466
11.717	1.420	1641.770	1160.213
12.731	1.894	1641.006	1163.184
13.746	8.997	1657.878	1229.644
14.761	19.778	1682.064	1330.886
15.775	24.939	1691.496	1378.064
16.790	25.775	1692.318	1385.040
17.804	25.831	1692.228	1385.275
18.819	25.913	1691.016	1384.789
19.834	26.099	1689.863	1385.153
20.848	26.316	1689.413	1386.328
21.863	26.291	1688.583	1385.332
22.877	26.299	1688.154	1384.916
23.892	26.278	1686.974	1383.670
24.907	26.325	1686.397	1383.431
25.921	26.294	1685.193	1382.083
26.936	26.372	1683.677	1381.312
27.950	26.306	1683.175	1380.277
28.965	26.258	1682.589	1379.304
29.980	26.329	1681.403	1378.755
30.994	26.304	1679.767	1377.098
32.009	26.335	1678.516	1376.192
33.023	26.304	1677.988	1375.400
34.038	26.317	1677.340	1374.843
35.053	26.395	1675.698	1373.967
36.067	26.285	1675.320	1372.701
37.082	26.317	1674.073	1371.806
38.096	26.310	1673.234	1370.944
39.111	26.291	1672.248	1369.868
40.126	26.363	1671.272	1369.489
41.140	26.321	1670.708	1368.591
42.155	26.290	1669.775	1367.467
43.169	26.207	1668.679	1365.821
44.184	26.332	1667.300	1365.519
45.199	26.250	1666.795	1364.368
46.213	26.209	1665.633	1362.982
47.228	26.285	1664.261	1362.317
48.242	26.267	1663.160	1361.153
49.257	26.304	1661.760	1360.168
50.271	26.363	1660.524	1359.479
51.286	26.306	1659.778	1358.322
52.301	26.286	1658.194	1356.757
53.315	26.213	1657.627	1355.624
54.330	26.270	1655.770	1354.408
55.344	26.273	1654.683	1353.423
56.359	26.262	1653.039	1351.875
57.374	26.329	1651.876	1351.311
58.388	26.274	1651.537	1350.497
59.403	26.374	1649.977	1349.850
60.417	26.375	1648.978	1348.922
61.432	26.340	1647.972	1347.717
62.447	26.275	1646.858	1346.201
63.461	26.356	1646.207	1346.155
64.476	26.364	1644.393	1344.612
65.490	26.312	1644.221	1343.968
66.505	26.367	1642.928	1343.198
67.520	26.395	1641.688	1342.278
68.534	26.399	1640.815	1341.475
69.549	26.322	1639.779	1339.939
70.563	26.332	1638.474	1338.826
71.578	26.353	1637.845	1338.344
72.593	26.372	1637.375	1337.988
73.607	26.316	1636.076	1336.392
74.622	26.368	1634.464	1335.339
75.636	26.333	1633.527	1334.197
76.651	26.336	1632.996	1333.666
77.666	26.431	1631.993	1333.434
78.680	26.350	1631.794	1332.553
79.695	26.359	1630.722	1331.625
80.709	26.352	1629.566	1330.514
81.724	26.382	1628.875	1330.051
82.739	26.359	1627.928	1328.992
83.753	26.358	1627.229	1328.301
84.768	26.379	1625.916	1327.264
85.782	26.373	1625.053	1326.393
86.797	26.342	1624.141	1325.307
87.812	26.324	1623.689	1324.686
88.826	26.408	1622.046	1323.847
89.841	26.353	1621.307	1322.727
90.855	26.313	1620.933	1322.013
91.870	26.363	1619.650	1321.214
92.884	26.438	1618.186	1320.448
93.899	26.461	1616.956	1319.498
94.914	26.429	1615.819	1318.216
95.928	26.346	1615.387	1317.142
96.943	26.352	1613.649	1315.657
97.957	26.417	1612.495	1315.069
98.972	26.375	1611.208	1313.600
99.987	26.443	1609.584	1312.652
101.001	26.386	1608.599	1311.317
102.016	26.380	1606.975	1309.838
103.030	26.333	1605.747	1308.379
104.045	26.297	1605.216	1307.571
105.060	26.283	1603.586	1306.026
106.074	26.302	1602.204	1304.918
107.089	26.364	1601.102	1304.354
108.103	26.436	1599.972	1303.841
109.118	26.495	1598.784	1303.178
110.133	26.450	1597.673	1301.836
111.147	26.428	1596.593	1300.683
112.162	26.454	1595.424	1299.803
113.176	26.408	1594.348	1298.482
114.191	26.457	1593.308	1297.868
115.206	26.471	1591.848	1296.662
116.220	26.442	1590.618	1295.344
117.235	26.415	1589.880	1294.429
118.249	26.407	1588.939	1293.492
119.264	26.342	1587.836	1292.020
120.279	26.379	1586.826	1291.342
121.293	26.409	1585.406	1290.289
122.308	26.445	1584.512	1289.701
123.322	26.495	1583.099	1288.793
124.337	26.481	1581.682	1287.428
125.352	26.432	1581.275	1286.632
126.366	26.413	1580.779	1285.981
127.381	26.551	1579.110	1285.488
128.395	26.467	1578.542	1284.319
129.410	26.523	1576.917	1283.278
130.424	26.502	1575.845	1282.142
131.439	26.510	1574.562	1281.043
132.454	26.514	1573.517	1280.111
133.468	26.476	1572.397	1278.818
134.483	26.548	1570.695	1277.828
135.497	26.532	1569.913	1276.967
136.512	26.595	1568.494	1276.141
137.527	26.543	1567.368	1274.750
138.541	26.553	1566.435	1273.944
139.556	26.498	1565.365	1272.577
140.570	26.524	1564.032	1271.562
141.585	26.542	1562.839	1270.605
142.600	26.463	1562.222	1269.440
143.614	26.492	1560.962	1268.505
144.629	26.478	1559.723	1267.287
145.643	26.522	1558.408	1266.414
146.658	26.504	1557.069	1265.086
147.673	26.484	1555.475	1263.543
148.687	26.401	1555.331	1262.736
149.702	26.429	1554.150	1261.858
150.716	26.505	1552.190	1260.684
151.731	26.469	1551.245	1259.553
152.746	26.483	1550.769	1259.153
153.760	26.538	1549.089	1258.061
154.775	26.503	1548.269	1257.042
155.789	26.490	1547.438	1256.162
156.804	26.559	1546.340	1255.640
157.819	26.572	1545.002	1254.532
158.833	26.494	1544.324	1253.332
159.848	26.516	1543.357	1252.586
160.862	26.612	1541.803	1251.877
161.877	26.645	1540.909	1251.269
162.892	26.671	1539.866	1250.495
163.906	26.636	1539.152	1249.560
164.921	26.600	1538.261	1248.482
165.935	26.510	1537.885	1247.443
166.950	26.660	1536.623	1247.340
167.964	26.658	1535.447	1246.264
168.979	26.585	1534.748	1245.084
169.994	26.598	1534.139	1244.571
171.008	26.689	1533.116	1244.256
172.023	26.665	1532.227	1243.261
173.037	26.612	1531.146	1241.909
174.052	26.579	1529.443	1240.193
175.067	26.609	1529.003	1239.929
176.081	26.678	1527.826	1239.337
177.096	26.723	1527.060	1238.911
178.110	26.650	1525.901	1237.366
179.125	26.639	1525.061	1236.496
180.140	26.686	1524.189	1236.002
181.154	26.736	1523.306	1235.520
182.169	26.631	1523.045	1234.482
183.183	26.683	1521.721	1233.655
184.198	26.681	1520.632	1232.647
185.213	26.746	1519.518	1232.078
186.227	26.735	1518.854	1231.354
187.242	26.729	1518.192	1230.666
188.256	26.784	1517.122	1230.067
189.271	26.734	1516.737	1229.303
190.286	26.766	1515.593	1228.490
191.300	26.861	1514.169	1227.866
192.315	26.782	1513.683	1226.827
193.329	26.821	1512.931	1226.374
194.344	26.767	1511.840	1225.015
195.359	26.797	1511.228	1224.617
196.373	26.794	1510.174	1223.632
197.388	26.741	1509.580	1222.689
198.402	26.716	1508.671	1221.674
199.417	26.613	1507.658	1220.049
200.432	26.651	1506.740	1219.460
201.446	26.641	1506.437	1219.034
202.461	26.736	1505.199	1218.566
203.475	26.788	1504.381	1218.147
204.490	26.743	1503.793	1217.260
205.504	26.744	1502.415	1216.039
206.519	26.740	1501.681	1215.312
207.534	26.771	1501.173	1215.006
208.548	26.782	1500.186	1214.167
209.563	26.690	1499.593	1212.964
210.577	26.820	1498.105	1212.521
211.592	26.827	1497.523	1211.994
212.607	26.790	1496.844	1211.089
213.621	26.775	1496.604	1210.690
214.636	26.900	1495.371	1210.415
215.650	26.890	1494.342	1209.410
216.665	26.902	1493.622	1208.802
217.680	26.891	1493.108	1208.207
218.694	26.844	1492.319	1207.145
219.709	26.928	1491.123	1206.630
220.723	26.859	1490.427	1205.501
221.738	26.895	1489.852	1205.170
222.753	26.878	1488.523	1203.872
223.767	26.781	1487.870	1202.596
224.782	26.783	1487.147	1201.919
225.796	26.890	1486.360	1201.888
226.811	27.030	1485.310	1201.854
227.826	27.014	1484.658	1201.117
228.840	26.856	1484.110	1199.523
229.855	26.850	1483.715	1199.057
230.869	26.841	1482.773	1198.130
231.884	26.957	1481.506	1197.770
232.899	26.874	1480.649	1196.422
233.913	26.890	1479.345	1195.368
234.928	26.861	1478.518	1194.398
235.942	26.944	1477.645	1194.139
236.957	26.950	1476.719	1193.323
237.972	27.064	1475.365	1192.869
238.986	26.970	1474.479	1191.432
240.001	26.945	1473.765	1190.588
241.015	27.033	1472.512	1190.044
242.030	27.121	1471.800	1189.937
243.045	27.182	1470.595	1189.263
244.059	27.137	1469.813	1188.226
245.074	27.166	1468.732	1187.438
246.088	27.243	1468.124	1187.341
247.103	27.159	1467.645	1186.307
248.117	27.067	1467.171	1185.215
249.132	27.164	1466.138	1184.909
250.147	27.158	1465.496	1184.246
251.161	27.110	1465.082	1183.494
252.176	27.141	1464.503	1183.121
253.190	27.247	1463.468	1182.872
254.205	27.239	1462.431	1181.877
255.220	27.188	1462.087	1181.165
256.234	27.284	1460.424	1180.338
257.249	27.176	1460.052	1179.233
258.263	27.239	1459.672	1179.227
259.278	27.285	1458.456	1178.443
260.293	27.204	1457.752	1177.241
261.307	27.248	1456.497	1176.414
262.322	27.235	1456.239	1176.014
263.336	27.364	1455.440	1176.099
264.351	27.287	1454.472	1174.714
265.366	27.307	1453.849	1174.235
266.380	27.309	1452.919	1173.396
267.395	27.235	1452.269	1172.291
268.409	27.376	1451.103	1172.149
269.424	27.303	1449.963	1170.658
270.439	27.275	1449.256	1169.806
271.453	27.290	1448.065	1168.834
272.468	27.366	1447.648	1168.884
273.482	27.272	1447.208	1167.823
274.497	27.250	1445.900	1166.519
275.512	27.183	1445.328	1165.524
276.526	27.298	1444.633	1165.597
277.541	27.377	1444.124	1165.588
278.555	27.363	1443.154	1164.614
279.570	27.402	1442.417	1164.165
280.585	27.448	1441.361	1163.506
281.599	27.404	1440.636	1162.537
282.614	27.417	1440.068	1162.062
283.628	27.454	1438.504	1160.932
284.643	27.362	1438.207	1160.004
285.657	27.487	1436.891	1159.632
286.672	27.388	1436.314	1158.433
287.687	27.441	1435.466	1157.983
288.701	27.405	1434.514	1156.883
289.716	27.398	1434.070	1156.378
290.730	27.512	1433.349	1156.418
291.745	27.593	1432.049	1155.786
292.760	27.508	1431.554	1154.744
293.774	27.502	1430.719	1153.929
294.789	27.573	1429.228	1153.074
295.803	27.656	1428.821	1153.170
296.818	27.519	1428.129	1151.645
297.833	27.550	1427.062	1150.872
298.847	27.537	1426.758	1150.445
299.862	27.606	1425.465	1149.738
300.876	27.588	1425.228	1149.327
301.891	27.700	1423.735	1148.733
302.906	27.570	1423.075	1147.278
303.920	27.592	1423.036	1147.286
304.935	27.598	1422.619	1146.886
305.949	27.729	1421.507	1146.709
306.964	27.623	1420.652	1145.249
307.979	27.639	1419.406	1144.244
308.993	27.669	1418.961	1143.978
310.008	27.705	1417.911	1143.254
311.022	27.719	1416.891	1142.415
312.037	27.669	1416.116	1141.377
313.052	27.659	1415.362	1140.603
314.066	27.705	1414.502	1140.099
315.081	27.775	1413.386	1139.534
316.095	27.794	1412.433	1138.784
317.110	27.718	1411.475	1137.440
318.125	27.744	1410.432	1136.657
319.139	27.808	1410.145	1136.725
320.154	27.759	1409.145	1135.517
321.168	27.762	1408.173	1134.653
322.183	27.771	1407.479	1134.049
323.197	27.737	1406.517	1132.961
324.212	27.788	1405.728	1132.540
325.227	27.759	1404.966	1131.647
326.241	27.841	1403.988	1131.264
327.256	27.877	1403.218	1130.771
328.270	27.848	1402.453	1129.873
329.285	27.814	1401.706	1128.963
330.300	27.888	1401.098	1128.830
331.314	27.908	1400.263	1128.178
332.329	27.968	1399.418	1127.769
333.343	27.903	1398.691	1126.683
334.358	27.902	1398.068	1126.076
335.373	27.910	1397.476	1125.551
336.387	27.995	1396.719	1125.360
337.402	28.020	1396.054	1124.883
338.416	27.968	1395.579	1124.077
339.431	28.079	1395.261	1124.407
340.446	28.045	1394.553	1123.523
341.460	28.090	1393.236	1122.644
342.475	28.041	1392.677	1121.789
343.489	28.077	1391.626	1121.069
344.504	28.125	1390.207	1120.118
345.519	28.073	1389.675	1119.272
346.533	28.102	1388.399	1118.320
347.548	28.150	1387.788	1118.025
348.562	28.246	1387.144	1117.993
349.577	28.133	1386.419	1116.621
350.592	28.171	1385.799	1116.256
351.606	28.097	1384.903	1114.980
352.621	28.019	1383.962	1113.654
353.635	28.113	1383.055	1113.392
354.650	28.162	1382.190	1112.896
355.665	28.183	1381.374	1112.270
356.679	28.220	1380.232	1111.476
357.694	28.166	1379.333	1110.327
358.708	28.201	1378.353	1109.654
359.723	28.260	1377.282	1109.052
360.738	28.147	1376.366	1107.531
361.752	28.204	1375.026	1106.700
362.767	28.198	1374.106	1105.820
363.781	28.282	1373.183	1105.490
364.796	28.206	1372.938	1104.734
365.810	28.379	1372.063	1104.975
366.825	28.322	1371.176	1103.824
367.840	28.304	1370.332	1102.939
368.854	28.391	1369.661	1102.820
369.869	28.379	1369.368	1102.418
370.883	28.390	1368.617	1101.782
371.898	28.365	1368.315	1101.287
372.913	28.381	1367.333	1100.499
373.927	28.368	1366.476	1099.635
374.942	28.338	1365.938	1098.923
375.956	28.417	1364.961	1098.514
376.971	28.412	1364.317	1097.870
377.986	28.362	1363.828	1097.075
379.000	28.422	1362.936	1096.621
380.015	28.527	1361.431	1095.943
381.029	28.480	1361.063	1095.267
382.044	28.499	1360.603	1094.915
383.059	28.437	1359.895	1093.876
384.073	28.507	1359.341	1093.754
385.088	28.618	1358.607	1093.728
386.102	28.538	1358.284	1092.896
387.117	28.565	1357.229	1092.107
388.132	28.600	1356.665	1091.766
389.146	28.549	1356.223	1091.010
390.161	28.503	1355.457	1090.025
391.175	28.562	1354.592	1089.580
392.190	28.597	1354.178	1089.360
393.205	28.637	1353.324	1088.813
394.219	28.660	1352.462	1088.161
395.234	28.649	1351.468	1087.202
396.248	28.712	1350.213	1086.467
397.263	28.655	1349.461	1085.431
398.278	28.560	1348.627	1084.101
399.292	28.638	1347.632	1083.666
400.307	28.735	1346.496	1083.228
401.321	28.619	1346.044	1082.083
402.336	28.816	1344.295	1081.743
403.350	28.643	1343.555	1080.031
404.365	28.591	1343.222	1079.366
405.380	28.782	1342.174	1079.551
406.394	28.707	1341.222	1078.245
407.409	28.847	1340.638	1078.501
408.423	28.888	1339.589	1077.807
409.438	28.951	1338.892	1077.518
410.453	28.876	1338.642	1076.781
411.467	28.850	1337.960	1075.989
412.482	28.870	1337.307	1075.485
413.496	28.856	1336.739	1074.852
414.511	28.793	1336.247	1073.989
415.526	28.894	1335.474	1073.864
416.540	28.841	1334.809	1072.927
417.555	28.763	1334.245	1071.919
418.569	28.917	1333.130	1071.830
419.584	29.015	1333.011	1072.207
420.599	28.898	1332.637	1071.132
421.613	91.819	1344.692	1434.566
422.628	91.518	1346.429	1434.678
