DTS Sentinel unit serial number:	SN413079Multiplexer serial number:	ORYXHardware model number:	OX4-SRSoftware version number:	ORYX F/W v4.00 Oryx Data Collector v3.7.2.0data status	okinstallation	princeton_trtdifferential loss correction	single-endedforward channel	channel 4reverse channel	N/Adate	2019/09/16time	07:21:35forward acquisition time	60.00reverse acquisition time	0.00gamma	496.2192k internal	0.2320k external	0.2320temperature offset calibration	0.9981default loss term (dB/km)	0.3790temperature slope calibration	1.0000multiplexer offset coefficient	1.0000multiplexer slope coefficient	1.0000fibre end	0.00T internal ref (°C)	27.44T ext. ref 1 (°C)	11.59T ext. ref 2 (°C)	22.87length (m)	temperature (°C)	Stokes	anti-Stokes-747.200	78.351	-0.139	-0.150
-746.185	-79.796	-0.271	-0.092
-745.171	660.307	-0.050	-0.130
-744.156	51.090	-0.274	0.263
-743.142	2.981	-0.050	-0.036
-742.127	-72.238	0.095	-0.036
-741.112	-70.203	-0.192	0.074
-740.098	-79.768	-0.098	0.033
-739.083	-42.878	-0.150	0.077
-738.069	120.915	-0.059	0.074
-737.054	-87.515	-0.460	-0.141
-736.039	-111.619	-0.215	-0.044
-735.025	-35.832	-0.122	-0.067
-734.010	800.000	0.102	-0.335
-732.996	-41.341	-0.182	-0.095
-731.981	-200.000	-0.012	0.254
-730.966	523.972	-0.075	-0.178
-729.952	552.784	0.108	-0.261
-728.937	-91.608	-0.420	-0.121
-727.923	-200.000	0.006	-0.056
-726.908	-6.750	0.019	-0.013
-725.894	151.487	-0.187	-0.257
-724.879	-82.363	-0.209	-0.069
-723.864	304.635	0.105	0.198
-722.850	-38.909	-0.214	0.114
-721.835	800.000	-0.050	-0.190
-720.821	65.858	-0.293	-0.300
-719.806	68.064	0.129	-0.133
-718.791	736.349	-0.114	-0.308
-717.777	-168.586	0.266	-0.010
-716.762	-200.000	0.007	0.222
-715.748	-36.595	-0.095	0.051
-714.733	309.049	0.166	-0.313
-713.718	287.653	-0.172	0.315
-712.704	35.450	0.106	0.094
-711.689	-200.000	0.015	-0.148
-710.675	-72.080	-0.281	-0.106
-709.660	-200.000	-0.012	-0.274
-708.645	-200.000	-0.032	-0.335
-707.631	121.495	0.156	-0.197
-706.616	-98.197	0.122	-0.032
-705.602	-64.129	-0.105	-0.043
-704.587	18.729	0.235	-0.190
-703.572	800.000	-0.047	-0.173
-702.558	156.495	0.258	0.359
-701.543	-126.808	0.095	0.014
-700.529	170.542	-0.072	0.105
-699.514	91.564	-0.123	-0.139
-698.499	-200.000	-0.025	0.118
-697.485	462.889	0.054	0.121
-696.470	-24.711	-0.051	-0.031
-695.456	-20.418	-0.268	-0.167
-694.441	-200.000	-0.003	0.205
-693.426	180.788	-0.127	-0.188
-692.412	662.600	0.111	0.288
-691.397	-200.000	0.036	0.176
-690.383	655.850	-0.063	-0.163
-689.368	419.416	0.074	-0.160
-688.354	-168.706	0.152	0.006
-687.339	-200.000	0.014	0.245
-686.324	12.048	-0.388	0.301
-685.310	-104.088	0.191	-0.045
-684.295	-1.757	-0.213	0.151
-683.281	-36.122	-0.098	0.053
-682.266	-200.000	-0.026	-0.276
-681.251	-200.000	0.026	-0.279
-680.237	173.794	-0.187	0.272
-679.222	-200.000	-0.011	0.108
-678.208	695.991	-0.092	0.245
-677.193	53.624	-0.044	-0.042
-676.178	675.024	-0.065	-0.170
-675.164	228.468	-0.121	-0.199
-674.149	162.984	0.123	-0.174
-673.135	-57.094	-0.254	-0.113
-672.120	132.139	0.178	0.231
-671.105	-200.000	0.029	-0.287
-670.091	61.132	0.086	0.087
-669.076	130.765	0.091	-0.118
-668.062	25.015	-0.318	0.266
-667.047	308.834	-0.117	0.220
-666.032	-15.238	0.247	-0.160
-665.018	60.471	0.205	-0.205
-664.003	-200.000	-0.015	-0.067
-662.989	-54.013	-0.328	0.150
-661.974	316.883	-0.087	-0.165
-660.959	176.506	-0.030	-0.044
-659.945	317.163	0.095	-0.182
-658.930	90.996	-0.069	-0.078
-657.916	-200.000	-0.078	-0.418
-656.901	-200.000	0.089	-0.460
-655.886	461.381	0.070	0.158
-654.872	151.237	0.052	0.072
-653.857	213.362	-0.090	-0.144
-652.843	203.485	0.084	-0.130
-651.828	85.759	0.178	-0.197
-650.814	-11.140	-0.058	-0.039
-649.799	-200.000	0.047	-0.260
-648.784	-57.806	0.085	0.037
-647.770	-3.840	-0.114	-0.080
-646.755	-87.755	0.281	-0.085
-645.741	-160.516	-0.366	0.020
-644.726	130.592	0.156	0.202
-643.711	-109.749	-0.230	-0.049
-642.697	-194.699	0.096	-0.001
-641.682	-66.340	0.135	0.054
-640.668	-200.000	-0.019	0.250
-639.653	-122.843	0.317	0.051
-638.638	293.801	-0.130	0.239
-637.624	-100.276	-0.297	-0.074
-636.609	-53.769	-0.138	-0.063
-635.595	-109.198	0.041	0.009
-634.580	736.878	0.054	-0.146
-633.565	182.036	-0.174	-0.258
-632.551	-200.000	0.009	0.091
-631.536	-200.000	-0.045	-0.293
-630.522	-200.000	0.011	-0.215
-629.507	43.529	0.083	-0.076
-628.492	-133.615	-0.187	-0.024
-627.478	268.365	0.099	-0.175
-626.463	-108.650	-0.478	0.103
-625.449	-84.688	-0.097	-0.031
-624.434	-200.000	0.000	-0.045
-623.419	-200.000	-0.046	0.277
-622.405	-200.000	0.013	-0.073
-621.390	799.011	0.047	0.130
-620.376	-69.654	0.058	-0.022
-619.361	-61.767	0.133	-0.056
-618.346	-76.987	-0.300	-0.106
-617.332	44.918	-0.177	-0.164
-616.317	-154.513	-0.084	-0.006
-615.303	800.000	0.105	0.336
-614.288	-84.288	0.229	-0.073
-613.273	-200.000	-0.016	0.299
-612.259	290.845	0.096	-0.176
-611.244	-174.107	-0.191	-0.006
-610.230	96.271	0.050	0.057
-609.215	20.350	-0.237	-0.193
-608.201	717.003	0.045	0.121
-607.186	800.000	-0.061	0.241
-606.171	242.851	0.104	0.174
-605.157	34.422	-0.097	0.085
-604.142	263.634	0.085	-0.149
-603.128	121.168	0.144	0.180
-602.113	270.901	-0.151	0.267
-601.098	200.449	-0.152	-0.236
-600.084	-51.282	-0.080	0.038
-599.069	-98.147	-0.102	0.026
-598.055	800.000	0.058	0.169
-597.040	-18.257	0.213	-0.134
-596.025	-94.097	0.268	0.074
-595.011	45.010	-0.136	-0.126
-593.996	-200.000	0.009	-0.084
-592.982	-51.982	-0.364	0.170
-591.967	27.671	0.182	-0.154
-590.952	172.004	0.084	0.122
-589.938	113.251	-0.168	0.205
-588.923	800.000	-0.068	-0.235
-587.909	36.756	0.237	-0.210
-586.894	76.978	-0.202	-0.216
-585.879	-91.841	0.481	-0.137
-584.865	-142.187	-0.252	0.025
-583.850	2.462	0.350	-0.254
-582.836	-66.662	0.086	-0.034
-581.821	5.765	0.137	0.102
-580.806	-109.209	-0.302	-0.064
-579.792	599.615	0.051	-0.127
-578.777	586.014	-0.112	-0.278
-577.763	-12.854	0.179	-0.117
-576.748	121.242	0.145	-0.181
-575.733	-68.045	-0.019	-0.008
-574.719	30.324	-0.166	0.142
-573.704	58.556	-0.114	0.112
-572.690	-43.679	0.052	-0.026
-571.675	-98.110	0.118	0.031
-570.661	-128.164	-0.335	0.048
-569.646	-132.915	0.203	0.026
-568.631	27.674	-0.090	-0.076
-567.617	-44.563	0.203	-0.102
-566.602	800.000	-0.056	-0.162
-565.588	224.720	0.068	0.110
-564.573	353.937	0.094	0.187
-563.558	43.742	0.153	-0.141
-562.544	178.612	-0.120	-0.176
-561.529	-25.914	0.105	-0.062
-560.515	-69.186	-0.064	-0.025
-559.500	-200.000	0.010	-0.428
-558.485	692.579	0.089	-0.233
-557.471	800.000	0.046	-0.195
-556.456	14.501	0.174	-0.137
-555.442	514.834	-0.070	0.165
-554.427	-200.000	-0.024	0.254
-553.412	800.000	-0.102	-0.285
-552.398	-200.000	-0.029	0.197
-551.383	352.940	0.134	0.266
-550.369	800.000	-0.094	-0.278
-549.354	501.935	0.074	-0.172
-548.339	-200.000	-0.049	0.259
-547.325	-200.000	0.003	0.058
-546.310	10.856	0.129	0.099
-545.296	344.986	0.020	-0.039
-544.281	7.676	0.204	0.153
-543.266	-185.476	-0.444	0.007
-542.252	-200.000	0.003	-0.044
-541.237	-200.000	-0.013	0.223
-540.223	-159.670	0.200	-0.011
-539.208	125.364	0.076	-0.096
-538.193	-200.000	0.008	0.050
-537.179	201.171	-0.262	-0.404
-536.164	-108.223	-0.085	-0.019
-535.150	-120.414	0.168	0.029
-534.135	1.130	0.133	0.096
-533.121	53.511	-0.095	-0.092
-532.106	-193.968	0.140	-0.001
-531.091	-88.046	-0.144	0.043
-530.077	358.903	0.081	-0.163
-529.062	105.979	0.166	-0.197
-528.048	-106.294	0.506	-0.114
-527.033	-200.000	0.002	-0.148
-526.018	86.821	0.214	0.237
-525.004	123.701	-0.268	-0.338
-523.989	292.436	0.087	-0.159
-522.975	-59.750	-0.355	0.152
-521.960	-28.177	0.109	0.063
-520.945	-34.471	-0.163	0.089
-519.931	198.815	-0.209	-0.320
-518.916	-88.584	-0.120	-0.036
-517.902	20.512	0.198	0.161
-516.887	-136.848	-0.373	-0.043
-515.872	-200.000	0.012	-0.232
-514.858	-100.181	-0.375	-0.094
-513.843	-130.464	-0.096	0.013
-512.829	-200.000	-0.026	-0.350
-511.814	-63.639	0.170	0.070
-510.799	-200.000	-0.015	0.171
-509.785	-49.390	0.100	-0.048
-508.770	-135.964	-0.127	0.015
-507.756	25.334	0.125	0.104
-506.741	800.000	-0.100	-0.330
-505.726	-2.816	0.429	-0.300
-504.712	-15.505	-0.171	0.110
-503.697	-43.223	0.277	0.141
-502.683	-200.000	-0.001	0.279
-501.668	800.000	0.130	-0.423
-500.653	-124.091	0.132	0.021
-499.639	154.702	-0.228	-0.313
-498.624	-200.000	0.013	-0.198
-497.610	-116.376	-0.274	-0.051
-496.595	-200.000	-0.037	-0.426
-495.581	800.000	0.020	0.082
-494.566	315.113	0.076	0.143
-493.551	-151.478	-0.062	-0.005
-492.537	800.000	0.031	-0.124
-491.522	-90.646	-0.412	-0.119
-490.508	701.179	-0.099	0.261
-489.493	282.138	-0.123	0.221
-488.478	-39.247	-0.077	-0.040
-487.464	446.466	-0.075	-0.166
-486.449	800.000	-0.038	0.165
-485.435	-1.700	0.041	0.029
-484.420	252.961	0.149	-0.254
-483.405	44.033	0.057	-0.052
-482.391	331.863	-0.208	0.402
-481.376	800.000	-0.081	-0.240
-480.362	-200.000	-0.011	-0.278
-479.347	538.187	0.122	-0.291
-478.332	-200.000	-0.041	0.183
-477.318	800.000	-0.074	-0.205
-476.303	-18.123	0.098	-0.062
-475.289	141.849	-0.209	-0.277
-474.274	-32.642	-0.223	-0.124
-473.259	-112.901	0.377	0.075
-472.245	-116.588	-0.192	0.035
-471.230	105.524	0.126	0.149
-470.216	-145.359	0.223	0.020
-469.201	-43.681	0.118	0.060
-468.186	104.168	0.141	-0.166
-467.172	-200.000	-0.044	0.275
-466.157	116.715	-0.144	-0.176
-465.143	712.215	0.084	0.224
-464.128	491.889	-0.031	-0.070
-463.113	800.000	0.060	-0.183
-462.099	-200.000	0.013	-0.258
-461.084	-34.578	0.351	0.192
-460.070	-81.841	-0.211	0.069
-459.055	-92.022	0.099	-0.028
-458.040	-200.000	-0.010	0.168
-457.026	73.757	0.125	-0.131
-456.011	120.700	-0.079	-0.098
-454.997	-118.309	0.265	-0.047
-453.982	-34.276	-0.280	-0.154
-452.968	29.579	0.265	0.225
-451.953	411.046	0.189	0.401
-450.938	-71.776	-0.084	0.031
-449.924	159.754	0.135	-0.188
-448.909	-200.000	0.117	0.639
-447.895	-71.408	0.250	-0.094
-446.880	-31.698	-0.304	0.171
-445.865	91.500	-0.090	-0.101
-444.851	-169.077	0.108	0.004
-443.836	800.000	-0.053	-0.147
-442.822	-12.179	-0.154	0.101
-441.807	252.527	0.076	0.129
-440.792	-200.000	0.017	0.319
-439.778	-125.315	-0.125	0.019
-438.763	-200.000	-0.020	0.189
-437.749	373.666	0.152	0.308
-436.734	459.199	-0.108	-0.240
-435.719	-200.000	-0.007	-0.172
-434.705	242.200	-0.042	-0.071
-433.690	-200.000	-0.004	-0.202
-432.676	-170.927	-0.009	0.000
-431.661	357.340	-0.062	0.123
-430.646	455.908	-0.158	0.350
-429.632	-200.000	0.027	0.352
-428.617	-200.000	0.010	-0.102
-427.603	95.775	-0.278	0.317
-426.588	-91.542	0.109	0.031
-425.573	158.185	-0.140	-0.193
-424.559	-200.000	-0.023	-0.137
-423.544	779.291	-0.129	-0.351
-422.530	-146.770	0.227	0.020
-421.515	-167.623	-0.116	-0.005
-420.500	265.862	-0.150	-0.261
-419.486	11.607	0.028	-0.021
-418.471	10.725	-0.095	0.072
-417.457	-58.972	0.295	-0.127
-416.442	-40.833	-0.055	0.028
-415.428	87.682	0.124	0.137
-414.413	32.573	-0.319	-0.275
-413.398	-6.736	-0.211	0.144
-412.384	800.000	-0.011	0.040
-411.369	800.000	-0.037	0.146
-410.355	11.695	-0.141	-0.108
-409.340	8.541	-0.172	-0.129
-408.325	-88.578	-0.146	-0.043
-407.311	-29.943	0.096	-0.055
-406.296	-113.021	0.105	0.021
-405.282	-124.433	0.171	0.027
-404.267	29.345	0.081	-0.069
-403.252	-73.849	-0.115	-0.042
-402.238	800.000	0.031	0.125
-401.223	75.151	-0.204	0.214
-400.209	13.781	0.150	-0.116
-399.194	49.207	0.056	0.053
-398.179	-40.628	-0.266	0.138
-397.165	303.847	-0.158	0.292
-396.150	-200.000	0.003	0.283
-395.136	-200.000	-0.017	-0.155
-394.121	-131.159	0.124	0.016
-393.106	470.973	-0.005	-0.011
-392.092	-200.000	-0.018	0.249
-391.077	-48.280	0.138	-0.066
-390.063	132.463	0.061	-0.078
-389.048	-7.062	-0.116	-0.079
-388.033	-200.000	0.001	-0.204
-387.019	355.774	0.140	-0.278
-386.004	-100.430	-0.103	0.026
-384.990	-200.000	0.006	0.267
-383.975	6.756	-0.041	0.031
-382.960	437.833	0.077	0.168
-381.946	122.411	-0.166	0.207
-380.931	800.000	0.095	0.296
-379.917	154.456	-0.188	0.258
-378.902	-165.562	0.322	-0.014
-377.888	-200.000	-0.038	-0.335
-376.873	800.000	-0.038	0.150
-375.858	2.838	0.358	-0.259
-374.844	132.657	-0.051	-0.065
-373.829	603.577	-0.062	-0.154
-372.815	-67.439	0.122	-0.048
-371.800	58.448	0.238	-0.233
-370.785	19.265	-0.084	-0.067
-369.771	-132.243	-0.353	0.046
-368.756	48.508	-0.159	-0.149
-367.742	23.238	0.168	0.138
-366.727	-200.000	-0.035	0.198
-365.712	-110.023	-0.048	0.010
-364.698	-128.527	0.188	0.027
-363.683	43.119	-0.097	0.089
-362.669	-97.955	-0.428	0.110
-361.654	-46.007	-0.317	0.156
-360.639	746.763	0.097	0.261
-359.625	-85.326	-0.162	0.050
-358.610	557.869	0.098	-0.235
-357.596	800.000	-0.096	-0.372
-356.581	-200.000	-0.056	-0.293
-355.566	-200.000	0.023	0.471
-354.552	-72.553	0.380	-0.140
-353.537	-200.000	0.028	0.269
-352.523	73.435	0.103	-0.107
-351.508	-105.871	0.156	0.035
-350.493	-200.000	0.021	0.156
-349.479	-1.084	0.195	-0.137
-348.464	-61.232	0.397	0.167
-347.450	125.451	0.063	0.079
-346.435	800.000	-0.076	0.313
-345.420	260.228	-0.172	-0.296
-344.406	290.347	0.129	-0.234
-343.391	147.380	-0.120	0.161
-342.377	-68.029	-0.205	-0.080
-341.362	376.761	0.151	0.307
-340.348	188.067	0.084	-0.126
-339.333	-200.000	0.029	0.179
-338.318	167.626	0.141	0.199
-337.304	-200.000	0.037	0.192
-336.289	800.000	0.094	-0.266
-335.275	-69.649	0.126	0.048
-334.260	151.011	-0.177	0.240
-333.245	-88.634	0.431	-0.128
-332.231	800.000	-0.033	-0.110
-331.216	253.052	-0.064	0.109
-330.202	-125.027	-0.603	0.092
-329.187	130.857	-0.090	0.115
-328.172	356.984	0.063	-0.125
-327.158	800.000	0.091	-0.382
-326.143	89.046	-0.254	0.281
-325.129	-41.845	0.174	0.089
-324.114	-16.431	0.194	0.122
-323.099	-200.000	-0.023	0.190
-322.085	-107.179	-0.370	-0.081
-321.070	800.000	-0.091	-0.276
-320.056	-76.779	-0.070	0.024
-319.041	-178.220	0.298	0.007
-318.026	3.464	0.240	-0.174
-317.012	-184.729	-0.141	0.002
-315.997	-200.000	-0.050	0.284
-314.983	88.547	-0.078	0.086
-313.968	216.936	0.014	0.021
-312.953	63.503	-0.266	-0.265
-311.939	-126.470	0.228	-0.034
-310.924	45.915	0.087	0.080
-309.910	82.568	-0.263	-0.284
-308.895	-84.439	-0.271	-0.085
-307.880	-200.000	-0.029	0.404
-306.866	-9.065	0.201	0.134
-305.851	11.154	-0.330	0.251
-304.837	-106.184	-0.113	0.025
-303.822	-200.000	-0.015	0.132
-302.807	-200.000	0.035	0.229
-301.793	146.481	0.048	0.064
-300.778	141.669	-0.180	0.237
-299.764	800.000	-0.062	0.223
-298.749	-183.464	0.156	0.003
-297.735	-36.823	0.057	-0.030
-296.720	20.479	0.137	-0.110
-295.705	-48.033	0.184	0.089
-294.691	-200.000	0.008	0.102
-293.676	435.769	-0.208	-0.449
-292.662	-37.555	-0.100	-0.053
-291.647	145.088	-0.181	0.241
-290.632	7.584	-0.126	0.094
-289.618	800.000	-0.049	0.139
-288.603	46.851	0.150	-0.138
-287.589	759.925	-0.066	0.179
-286.574	-145.547	-0.499	-0.044
-285.559	24.880	-0.277	-0.228
-284.545	-81.787	0.335	0.109
-283.530	-71.730	0.422	0.156
-282.516	104.738	0.048	0.056
-281.501	-200.000	0.024	-0.144
-280.486	800.000	0.050	0.159
-279.472	183.053	-0.043	0.064
-278.457	357.568	-0.137	0.272
-277.443	-200.000	0.010	-0.062
-276.428	-150.804	0.071	-0.005
-275.413	140.739	-0.026	0.034
-274.399	-22.615	-0.128	-0.077
-273.384	800.000	-0.139	0.420
-272.370	249.825	0.137	-0.231
-271.355	-200.000	0.021	-0.118
-270.340	-111.287	-0.061	0.012
-269.326	222.858	-0.144	-0.231
-268.311	43.081	-0.309	-0.280
-267.297	243.404	-0.121	0.201
-266.282	38.951	0.187	0.165
-265.267	41.753	0.326	0.293
-264.253	702.157	-0.059	-0.154
-263.238	-64.020	-0.129	0.052
-262.224	-200.000	0.002	0.034
-261.209	-200.000	-0.041	0.399
-260.195	-200.000	0.005	0.486
-259.180	-80.017	-0.278	0.092
-258.165	-16.845	-0.199	-0.125
-257.151	34.845	-0.205	-0.178
-256.136	-97.212	0.432	-0.112
-255.122	20.217	0.306	-0.245
-254.107	-31.132	-0.243	-0.136
-253.092	-150.731	0.078	0.006
-252.078	-112.503	0.056	0.011
-251.063	61.845	0.207	-0.204
-250.049	800.000	0.093	0.335
-249.034	-53.250	0.388	0.176
-248.019	118.555	0.087	0.107
-247.005	-68.169	-0.388	-0.150
-245.990	-116.934	0.394	0.071
-244.976	33.780	0.264	0.228
-243.961	302.589	0.085	-0.157
-242.946	-200.000	-0.001	0.201
-241.932	-149.901	0.044	-0.003
-240.917	-71.041	0.356	0.133
-239.903	-106.115	-0.113	0.025
-238.888	-55.186	-0.330	0.147
-237.873	271.172	0.140	-0.245
-236.859	16.855	-0.321	-0.252
-235.844	114.973	-0.090	-0.109
-234.830	-8.702	-0.145	0.097
-233.815	800.000	-0.085	-0.290
-232.800	66.224	-0.105	-0.105
-231.786	-200.000	0.038	0.208
-230.771	-90.098	-0.176	0.051
-229.757	32.986	0.101	-0.087
-228.742	-114.281	0.180	-0.034
-227.727	18.830	-0.077	0.061
-226.713	43.475	-0.206	-0.186
-225.698	-72.034	0.118	-0.043
-224.684	474.338	0.119	0.267
-223.669	-200.000	-0.056	-0.447
-222.655	800.000	-0.030	-0.117
-221.640	-200.000	-0.013	0.079
-220.625	-124.672	-0.094	-0.014
-219.611	-145.618	0.359	-0.032
-218.596	-161.926	0.198	0.010
-217.582	-156.952	-0.225	-0.014
-216.567	-200.000	-0.025	-0.423
-215.552	298.306	0.251	-0.458
-214.538	140.135	0.142	0.186
-213.523	51.992	-0.059	0.056
-212.509	160.929	0.222	0.308
-211.494	-131.408	-0.157	-0.021
-210.479	-97.424	0.216	-0.056
-209.465	-200.000	0.047	0.361
-208.450	350.557	0.096	-0.188
-207.436	-123.006	0.156	0.025
-206.421	-177.252	-0.109	-0.003
-205.406	283.415	0.057	0.101
-204.392	-124.830	-0.222	-0.034
-203.377	-110.319	0.021	0.004
-202.363	130.599	-0.142	0.181
-201.348	420.793	0.046	0.097
-200.333	-30.782	0.355	0.199
-199.319	800.000	-0.097	0.363
-198.304	91.198	0.182	0.202
-197.290	147.005	-0.110	-0.146
-196.275	-200.000	-0.044	-0.408
-195.260	-109.948	-0.185	0.038
-194.246	-22.769	0.142	-0.085
-193.231	78.061	0.166	-0.176
-192.217	-53.323	0.331	-0.150
-191.202	-73.867	-0.319	-0.115
-190.187	235.793	-0.045	-0.073
-189.173	-200.000	0.053	-0.383
-188.158	701.875	-0.033	-0.087
-187.144	-10.974	-0.047	-0.031
-186.129	-50.196	0.249	0.117
-185.114	-200.000	-0.032	0.209
-184.100	1.565	-0.237	0.169
-183.085	-39.129	-0.364	-0.190
-182.071	-200.000	-0.009	0.144
-181.056	-200.000	0.022	0.122
-180.042	-25.191	0.306	0.179
-179.027	-200.000	-0.004	0.144
-178.012	7.496	-0.261	0.193
-176.998	170.555	0.305	0.432
-175.983	155.087	0.094	0.128
-174.969	800.000	-0.052	0.165
-173.954	800.000	0.058	-0.246
-172.939	-129.079	0.309	0.043
-171.925	-75.479	0.301	0.106
-170.910	-165.526	0.148	0.006
-169.896	65.141	0.103	-0.103
-168.881	38.729	-0.149	-0.131
-167.866	-26.867	0.487	-0.281
-166.852	-104.954	0.321	0.073
-165.837	800.000	-0.058	0.235
-164.823	-35.516	-0.133	-0.071
-163.808	134.729	-0.161	-0.207
-162.793	-200.000	-0.099	0.436
-161.779	-200.000	-0.003	-0.200
-160.764	38.169	-0.261	0.230
-159.750	-27.480	0.110	-0.063
-158.735	139.690	-0.191	-0.248
-157.720	-69.624	0.270	0.102
-156.706	66.234	0.270	-0.271
-155.691	-65.014	-0.119	-0.047
-154.677	-27.231	0.251	0.144
-153.662	-62.108	-0.059	-0.024
-152.647	24.236	-0.143	-0.117
-151.633	-147.728	-0.145	0.012
-150.618	17.350	0.168	-0.132
-149.604	117.690	0.170	-0.206
-148.589	-6.261	-0.211	-0.142
-147.574	-200.000	0.013	-0.195
-146.560	120.372	0.199	0.244
-145.545	800.000	-0.030	-0.097
-144.531	-85.628	-0.084	-0.026
-143.516	-76.930	-0.149	-0.052
-142.502	800.000	0.049	0.182
-141.487	-114.271	-0.287	0.055
-140.472	-99.480	-0.236	0.059
-139.458	-200.000	0.026	0.192
-138.443	-25.779	-0.332	0.193
-137.429	-113.898	0.110	0.021
-136.414	286.489	-0.168	0.300
-135.399	29.646	0.301	-0.253
-134.385	-200.000	-0.019	-0.370
-133.370	-95.453	-0.346	-0.092
-132.356	-200.000	0.044	0.365
-131.341	125.249	0.091	0.113
-130.326	-200.000	-0.190	0.000
-129.312	-123.522	-0.148	0.023
-128.297	800.000	-0.099	0.313
-127.283	467.712	-0.217	-0.480
-126.268	-33.349	0.348	0.190
-125.253	62.505	-0.219	-0.216
-124.239	-4.326	0.158	0.108
-123.224	-200.000	0.018	0.077
-122.210	415.951	0.183	-0.384
-121.195	-27.459	0.370	-0.212
-120.180	500.811	-0.164	-0.373
-119.166	31.962	0.100	0.085
-118.151	800.000	0.115	0.410
-117.137	-88.765	0.305	0.089
-116.122	-182.713	-0.183	0.003
-115.107	800.000	0.030	-0.087
-114.093	44.710	-0.019	-0.017
-113.078	73.152	0.081	0.084
-112.064	-200.000	0.012	0.189
-111.049	-95.773	0.175	0.046
-110.034	-81.551	0.207	-0.067
-109.020	-200.000	0.005	-0.629
-108.005	108.797	-0.115	-0.136
-106.991	-57.234	0.046	-0.020
-105.976	-101.249	0.152	0.037
-104.962	-21.634	0.213	-0.128
-103.947	79.001	-0.075	-0.079
-102.932	738.889	0.105	0.278
-101.918	145.833	-0.278	-0.368
-100.903	-81.243	0.349	0.114
-99.889	800.000	-0.023	-0.085
-98.874	-200.000	-0.054	0.235
-97.859	-84.760	0.153	-0.047
-96.845	-200.000	-0.076	-0.344
-95.830	-1.603	0.043	0.030
-94.816	134.507	-0.110	0.141
-93.801	-48.774	-0.329	-0.155
-92.786	800.000	-0.082	0.280
-91.772	-133.134	-0.093	0.012
-90.757	-200.000	0.038	-0.434
-89.743	-166.361	0.182	-0.008
-88.728	-200.000	-0.072	0.669
-87.713	263.102	0.134	-0.230
-86.699	-101.051	0.146	0.035
-85.684	-92.855	-0.265	-0.073
-84.670	-200.000	0.058	0.250
-83.655	48.397	-0.153	-0.141
-82.640	-200.000	0.039	0.242
-81.626	146.409	-0.108	-0.143
-80.611	-113.642	-0.472	-0.091
-79.597	231.173	-0.109	-0.176
-78.582	-200.000	0.027	0.330
-77.567	-20.142	0.127	-0.077
-76.553	-1.324	-0.451	-0.314
-75.538	136.190	0.228	0.293
-74.524	43.738	-0.215	0.194
-73.509	545.475	0.115	0.271
-72.494	-98.677	-0.159	-0.040
-71.480	-180.128	-0.115	0.002
-70.465	800.000	-0.143	-0.437
-69.451	-200.000	-0.029	-0.200
-68.436	60.356	-0.119	-0.116
-67.422	753.848	-0.025	0.065
-66.407	-128.312	0.203	0.028
-65.392	-42.879	0.198	-0.099
-64.378	-100.421	0.117	-0.029
-63.363	453.460	-0.185	-0.404
-62.349	-38.054	-0.250	-0.131
-61.334	121.788	-0.761	-0.935
-60.319	61.901	0.774	0.760
-59.305	800.000	-0.217	-0.803
-58.290	135.202	0.750	0.960
-57.276	205.023	0.857	1.310
-56.261	-200.000	112.667	638.838
-55.246	459.734	1509.459	3308.296
-54.232	143.538	2688.364	3524.671
-53.217	93.962	2330.591	2601.580
-52.203	33.894	2078.018	1780.573
-51.188	29.146	1991.835	1663.888
-50.173	27.800	1974.620	1637.377
-49.159	46.283	2032.353	1853.871
-48.144	45.331	2048.458	1859.839
-47.130	29.701	2007.897	1682.093
-46.115	27.456	1997.020	1652.561
-45.100	27.369	1994.236	1649.407
-44.086	27.379	1991.848	1647.459
-43.071	27.302	1989.623	1644.859
-42.057	27.204	1987.254	1641.944
-41.042	27.206	1985.717	1640.628
-40.027	27.329	1983.663	1639.977
-39.013	27.333	1981.713	1638.331
-37.998	27.352	1979.773	1636.836
-36.984	27.361	1978.024	1635.406
-35.969	27.382	1975.562	1633.492
-34.954	27.297	1974.511	1631.794
-33.940	27.305	1973.020	1630.573
-32.925	27.418	1971.113	1629.943
-31.911	27.447	1969.129	1628.501
-30.896	27.451	1967.468	1627.097
-29.881	27.394	1966.938	1626.085
-28.867	27.449	1964.874	1624.799
-27.852	27.499	1962.843	1623.505
-26.838	27.448	1961.501	1621.878
-25.823	27.516	1959.549	1620.799
-24.809	27.508	1957.410	1618.896
-23.794	27.529	1955.636	1617.555
-22.779	27.475	1953.962	1615.624
-21.765	27.484	1952.428	1614.369
-20.750	27.466	1951.102	1613.055
-19.736	27.477	1949.013	1611.357
-18.721	27.492	1947.399	1610.092
-17.706	27.435	1946.146	1608.488
-16.692	27.498	1943.991	1607.200
-15.677	27.416	1942.921	1605.529
-14.663	27.463	1941.339	1604.576
-13.648	27.501	1939.998	1603.739
-12.633	27.538	1938.228	1602.532
-11.619	27.483	1937.461	1601.353
-10.604	27.426	1936.328	1599.852
-9.590	27.491	1934.575	1598.909
-8.575	27.473	1933.273	1597.610
-7.560	27.371	1932.325	1595.872
-6.546	27.496	1930.496	1595.392
-5.531	27.431	1929.665	1594.075
-4.517	27.471	1928.335	1593.262
-3.502	27.423	1927.002	1591.677
-2.487	27.427	1926.227	1591.012
-1.473	27.494	1925.293	1590.759
-0.458	27.645	1919.550	1587.267
0.556	25.736	1900.808	1560.598
1.571	21.840	1882.603	1511.996
2.586	18.278	1905.240	1498.900
3.600	17.540	1941.067	1520.368
4.615	17.477	1936.038	1515.734
5.629	16.282	1843.334	1432.887
6.644	13.454	1739.085	1329.053
7.659	11.751	1708.732	1292.298
8.673	11.641	1705.586	1288.935
9.688	11.595	1704.931	1287.969
10.702	11.582	1703.433	1286.617
11.717	11.523	1699.367	1282.968
12.731	11.689	1697.887	1283.046
13.746	13.808	1701.741	1302.490
14.761	16.570	1707.781	1328.723
15.775	17.784	1708.524	1338.718
16.790	17.403	1706.090	1333.705
17.804	16.362	1702.971	1323.001
18.819	15.246	1699.522	1311.477
19.834	14.696	1696.165	1304.475
20.848	14.223	1695.195	1299.919
21.863	14.045	1693.515	1297.127
22.877	13.807	1691.893	1293.916
23.892	13.566	1690.431	1290.802
24.907	13.402	1690.004	1289.087
25.921	13.449	1688.231	1287.985
26.936	13.421	1687.649	1287.212
27.950	13.486	1686.840	1286.983
28.965	13.484	1686.196	1286.360
29.980	13.561	1685.171	1286.066
30.994	13.604	1684.171	1285.522
32.009	13.652	1682.927	1284.826
33.023	13.642	1682.360	1284.204
34.038	13.724	1681.155	1283.810
35.053	13.722	1679.537	1282.441
36.067	13.647	1678.679	1281.093
37.082	13.626	1677.552	1279.962
38.096	13.637	1676.410	1279.055
39.111	13.604	1675.482	1277.980
40.126	13.667	1674.501	1277.608
41.140	13.626	1673.302	1276.266
42.155	13.550	1671.828	1274.444
43.169	13.452	1670.631	1272.661
44.184	13.430	1669.548	1271.560
45.199	13.395	1668.243	1270.181
46.213	13.431	1666.872	1269.300
47.228	13.383	1665.838	1268.032
48.242	13.466	1664.856	1267.811
49.257	13.522	1663.716	1267.259
50.271	13.529	1662.075	1265.946
51.286	13.563	1661.011	1265.290
52.301	13.537	1659.910	1264.138
53.315	13.490	1658.114	1262.297
54.330	13.480	1657.032	1261.290
55.344	13.465	1655.162	1259.636
56.359	13.455	1654.082	1258.630
57.374	13.409	1653.131	1257.445
58.388	13.478	1651.610	1256.698
59.403	13.406	1650.489	1255.193
60.417	13.356	1649.088	1253.634
61.432	13.369	1648.104	1252.875
62.447	13.439	1646.600	1252.148
63.461	13.317	1645.486	1250.266
64.476	13.330	1644.227	1249.298
65.490	13.299	1643.492	1248.401
66.505	13.297	1642.220	1247.302
67.520	13.304	1641.109	1246.405
68.534	13.285	1640.480	1245.670
69.549	13.321	1638.845	1244.594
70.563	13.302	1638.012	1243.705
71.578	13.310	1636.824	1242.753
72.593	13.378	1635.505	1242.151
73.607	13.235	1634.397	1240.130
74.622	13.210	1633.690	1239.294
75.636	13.237	1632.558	1238.530
76.651	13.225	1631.520	1237.545
77.666	13.233	1630.921	1237.041
78.680	13.217	1630.392	1236.412
79.695	13.224	1628.803	1235.145
80.709	13.280	1627.841	1234.723
81.724	13.363	1627.160	1234.720
82.739	13.338	1626.533	1233.947
83.753	13.473	1625.649	1234.173
84.768	13.488	1624.485	1233.292
85.782	13.503	1623.702	1232.699
86.797	13.560	1622.636	1232.207
87.812	13.665	1621.751	1232.208
88.826	13.512	1620.557	1230.056
89.841	13.491	1619.565	1229.035
90.855	13.509	1618.527	1228.273
91.870	13.543	1617.541	1227.671
92.884	13.539	1616.739	1226.923
93.899	13.553	1615.662	1226.098
94.914	13.645	1614.003	1225.408
95.928	13.660	1612.810	1224.511
96.943	13.646	1611.800	1223.527
97.957	13.745	1609.615	1222.496
98.972	13.549	1608.876	1220.378
99.987	13.496	1607.505	1218.840
101.001	13.562	1605.704	1217.852
102.016	13.613	1604.189	1216.972
103.030	13.530	1602.863	1215.250
104.045	13.655	1601.432	1214.970
105.060	13.648	1599.828	1213.597
106.074	13.532	1598.801	1211.861
107.089	13.477	1596.641	1209.717
108.103	13.377	1595.819	1208.253
109.118	13.348	1594.483	1206.925
110.133	13.375	1592.395	1205.437
111.147	13.428	1590.878	1204.563
112.162	13.313	1590.189	1203.103
113.176	13.394	1588.454	1202.267
114.191	13.426	1587.232	1201.475
115.206	13.441	1586.015	1200.554
116.220	13.426	1584.608	1199.273
117.235	13.453	1583.113	1198.233
118.249	13.378	1582.040	1196.768
119.264	13.444	1580.650	1196.089
120.279	13.381	1579.465	1194.632
121.293	13.343	1578.067	1193.197
122.308	13.390	1576.775	1192.452
123.322	13.329	1575.034	1190.587
124.337	13.365	1573.696	1189.729
125.352	13.366	1572.276	1188.562
126.366	13.365	1571.292	1187.704
127.381	13.278	1570.240	1186.183
128.395	13.360	1568.726	1185.516
129.410	13.418	1567.399	1184.829
130.424	13.360	1566.083	1183.311
131.439	13.424	1564.580	1182.531
132.454	13.369	1563.563	1181.263
133.468	13.451	1562.122	1180.653
134.483	13.463	1560.548	1179.444
135.497	13.439	1558.749	1177.808
136.512	13.515	1557.758	1177.498
137.527	13.541	1555.984	1176.238
138.541	13.541	1554.711	1175.175
139.556	13.539	1553.759	1174.333
140.570	13.599	1552.756	1173.894
141.585	13.566	1550.974	1172.211
142.600	13.663	1549.949	1172.024
143.614	13.593	1548.728	1170.501
144.629	13.732	1547.027	1170.088
145.643	13.694	1545.903	1168.865
146.658	13.749	1544.501	1168.095
147.673	13.762	1542.828	1166.812
148.687	13.617	1541.474	1164.671
149.702	13.671	1539.812	1163.686
150.716	13.727	1537.804	1162.464
151.731	13.526	1537.356	1160.613
152.746	13.674	1535.371	1160.043
153.760	13.612	1534.294	1158.695
154.775	13.706	1532.643	1158.000
155.789	13.667	1531.638	1156.869
156.804	13.840	1529.792	1156.581
157.819	13.853	1528.558	1155.636
158.833	13.794	1527.401	1154.249
159.848	13.780	1527.174	1153.875
160.862	13.853	1525.822	1153.262
161.877	13.875	1524.455	1152.276
162.892	13.852	1523.241	1151.096
163.906	13.730	1521.976	1149.191
164.921	13.682	1520.839	1147.899
165.935	13.766	1519.763	1147.567
166.950	13.740	1518.654	1146.452
167.964	13.783	1517.492	1145.771
168.979	13.827	1516.155	1144.962
169.994	13.760	1515.400	1143.831
171.008	13.750	1514.558	1143.024
172.023	13.803	1513.359	1142.379
173.037	13.891	1511.749	1141.668
174.052	14.012	1510.670	1141.583
175.067	13.926	1510.252	1140.580
176.081	13.952	1508.592	1139.403
177.096	13.829	1507.443	1137.591
178.110	13.796	1506.192	1136.320
179.125	13.805	1505.417	1135.693
180.140	13.866	1504.119	1135.030
181.154	13.856	1502.752	1133.832
182.169	13.882	1501.567	1133.015
183.183	13.926	1500.512	1132.421
184.198	13.894	1499.786	1131.551
185.213	14.023	1498.399	1131.283
186.227	14.065	1497.331	1130.662
187.242	14.046	1496.471	1129.789
188.256	14.067	1494.910	1128.652
189.271	14.023	1494.464	1127.917
190.286	14.189	1493.098	1127.910
191.300	14.060	1492.044	1126.140
192.315	13.919	1490.528	1123.938
193.329	13.936	1489.140	1122.910
194.344	13.847	1488.177	1121.483
195.359	13.965	1486.780	1121.127
196.373	14.007	1486.141	1120.827
197.388	13.942	1485.117	1119.520
198.402	14.083	1484.084	1119.594
199.417	14.122	1482.624	1118.651
200.432	14.225	1481.614	1118.482
201.446	14.205	1480.758	1117.606
202.461	14.217	1480.072	1117.071
203.475	14.259	1478.710	1116.227
204.490	14.360	1477.322	1115.754
205.504	14.335	1476.092	1114.560
206.519	14.259	1475.197	1113.280
207.534	14.319	1474.038	1112.707
208.548	14.259	1472.765	1111.244
209.563	14.251	1472.067	1110.566
210.577	14.252	1470.798	1109.517
211.592	14.280	1469.763	1108.824
212.607	14.333	1468.854	1108.393
213.621	14.390	1468.633	1108.508
214.636	14.420	1467.638	1107.859
215.650	14.335	1466.590	1106.404
216.665	14.438	1465.524	1106.186
217.680	14.386	1464.821	1105.213
218.694	14.467	1463.949	1104.996
219.709	14.471	1462.975	1104.190
220.723	14.528	1461.753	1103.546
221.738	14.579	1460.760	1103.035
222.753	14.540	1459.828	1101.975
223.767	14.508	1458.903	1100.970
224.782	14.512	1457.982	1100.206
225.796	14.574	1457.006	1099.775
226.811	14.629	1455.948	1099.242
227.826	14.667	1455.329	1098.927
228.840	14.584	1454.879	1097.944
229.855	14.533	1453.980	1096.837
230.869	14.542	1452.794	1095.901
231.884	14.524	1451.718	1094.877
232.899	14.510	1450.822	1094.014
233.913	14.534	1449.432	1093.025
234.928	14.536	1448.459	1092.208
235.942	14.486	1447.284	1090.896
236.957	14.548	1445.808	1090.096
237.972	14.607	1444.399	1089.317
238.986	14.522	1443.444	1087.950
240.001	14.570	1442.810	1087.685
241.015	14.513	1441.988	1086.601
242.030	14.669	1440.175	1086.151
243.045	14.647	1439.848	1085.666
244.059	14.576	1439.312	1084.707
245.074	14.627	1438.020	1083.967
246.088	14.694	1437.243	1083.722
247.103	14.766	1436.506	1083.538
248.117	14.772	1435.578	1082.777
249.132	14.855	1434.577	1082.466
250.147	14.850	1434.638	1082.383
251.161	14.914	1433.758	1082.038
252.176	14.976	1432.904	1081.698
253.190	15.110	1432.198	1081.937
254.205	15.040	1431.699	1081.008
255.220	15.212	1429.631	1080.464
256.234	15.184	1429.442	1080.044
257.249	15.096	1429.080	1079.109
258.263	15.169	1427.899	1078.589
259.278	15.220	1426.712	1077.924
260.293	15.127	1426.314	1076.930
261.307	15.231	1425.101	1076.590
262.322	15.190	1424.580	1075.834
263.336	15.222	1423.654	1075.246
264.351	15.190	1422.994	1074.450
265.366	15.232	1421.612	1073.580
266.380	15.394	1420.540	1073.709
267.395	15.339	1419.739	1072.661
268.409	15.327	1418.878	1071.839
269.424	15.358	1417.796	1071.124
270.439	15.188	1416.861	1069.238
271.453	15.310	1415.794	1069.112
272.468	15.346	1414.810	1068.505
273.482	15.320	1414.186	1067.777
274.497	15.328	1412.821	1066.702
275.512	15.363	1412.522	1066.602
276.526	15.273	1411.596	1065.238
277.541	15.306	1410.603	1064.601
278.555	15.289	1409.842	1063.825
279.570	15.298	1409.188	1063.298
280.585	15.400	1407.793	1062.797
281.599	15.373	1407.392	1062.229
282.614	15.455	1406.534	1062.006
283.628	15.464	1404.617	1060.520
284.643	15.375	1404.004	1059.402
285.657	15.513	1402.378	1058.952
286.672	15.461	1401.632	1057.964
287.687	15.469	1400.829	1057.320
288.701	15.467	1400.149	1056.697
289.716	15.504	1398.813	1055.831
290.730	15.529	1398.231	1055.452
291.745	15.541	1397.453	1054.849
292.760	15.511	1396.044	1053.502
293.774	15.507	1395.121	1052.689
294.789	15.598	1394.269	1052.524
295.803	15.594	1393.586	1051.888
296.818	15.693	1392.612	1051.681
297.833	15.569	1391.855	1050.241
298.847	15.702	1390.256	1049.772
299.862	15.667	1389.586	1048.953
300.876	15.692	1388.878	1048.480
301.891	15.616	1387.490	1046.869
302.906	15.610	1387.092	1046.436
303.920	15.747	1386.245	1046.556
304.935	15.724	1385.565	1045.809
305.949	15.804	1384.411	1045.342
306.964	15.836	1383.978	1045.123
307.979	15.857	1382.870	1044.325
308.993	15.907	1382.140	1043.987
310.008	15.882	1380.902	1042.807
311.022	15.868	1379.943	1041.904
312.037	15.942	1378.924	1041.501
313.052	16.015	1378.059	1041.207
314.066	15.932	1377.185	1039.945
315.081	15.817	1375.987	1038.233
316.095	15.797	1375.042	1037.308
317.110	15.906	1373.823	1036.969
318.125	15.836	1372.649	1035.557
319.139	15.937	1371.440	1035.179
320.154	15.918	1371.152	1034.752
321.168	15.858	1369.906	1033.347
322.183	15.883	1369.355	1032.993
323.197	15.875	1368.202	1031.984
324.212	15.971	1367.092	1031.645
325.227	15.931	1366.780	1031.077
326.241	15.941	1365.930	1030.404
327.256	15.966	1364.588	1029.454
328.270	15.930	1364.383	1028.985
329.285	15.960	1363.168	1028.159
330.300	15.941	1362.235	1027.249
331.314	15.893	1361.661	1026.433
332.329	16.041	1360.367	1026.271
333.343	16.030	1359.445	1025.415
334.358	15.973	1359.024	1024.658
335.373	16.087	1357.862	1024.387
336.387	16.084	1356.878	1023.537
337.402	16.137	1356.163	1023.229
338.416	16.187	1355.547	1022.974
339.431	16.133	1355.112	1022.227
340.446	16.181	1354.457	1021.938
341.460	16.252	1353.218	1021.341
342.475	16.306	1352.080	1020.719
343.489	16.349	1351.317	1020.312
344.504	16.351	1350.646	1019.727
345.519	16.328	1349.725	1018.799
346.533	16.359	1348.968	1018.325
347.548	16.424	1347.643	1017.626
348.562	16.477	1346.961	1017.345
349.577	16.513	1346.063	1016.791
350.592	16.413	1345.663	1015.795
351.606	16.425	1344.596	1014.975
352.621	16.435	1343.156	1013.859
353.635	16.350	1342.148	1012.495
354.650	16.359	1341.596	1012.047
355.665	16.442	1340.040	1011.279
356.679	16.450	1339.094	1010.521
357.694	16.514	1338.014	1009.998
358.708	16.555	1336.987	1009.382
359.723	16.386	1336.263	1007.740
360.738	16.498	1335.408	1007.671
361.752	16.489	1334.348	1006.730
362.767	16.596	1332.822	1006.124
363.781	16.585	1331.964	1005.324
364.796	16.580	1331.421	1004.794
365.810	16.649	1330.555	1004.459
366.825	16.646	1330.158	1004.054
367.840	16.715	1329.410	1003.806
368.854	16.786	1328.415	1003.390
369.869	16.714	1328.288	1002.781
370.883	16.767	1327.529	1002.432
371.898	16.630	1326.918	1001.071
372.913	16.741	1326.288	1001.160
373.927	16.787	1324.809	1000.227
374.942	16.803	1324.085	999.691
375.956	16.815	1323.627	999.325
376.971	16.849	1322.472	998.566
377.986	16.761	1321.867	997.504
379.000	16.888	1320.614	997.213
380.015	16.887	1320.262	996.853
381.029	17.042	1319.341	996.985
382.044	16.958	1318.810	995.997
383.059	16.987	1317.831	995.339
384.073	17.079	1317.089	995.230
385.088	16.877	1317.106	993.973
386.102	16.900	1316.137	993.287
387.117	17.022	1315.212	993.216
388.132	16.946	1314.573	992.203
389.146	16.963	1313.774	991.613
390.161	17.000	1312.727	990.951
391.175	17.050	1311.724	990.398
392.190	16.943	1311.039	989.164
393.205	17.043	1310.051	988.915
394.219	17.035	1309.325	988.234
395.234	17.104	1308.137	987.653
396.248	17.082	1307.050	986.613
397.263	17.059	1305.388	985.142
398.278	17.002	1303.810	983.530
399.292	17.037	1302.806	982.890
400.307	16.976	1302.156	981.962
401.321	17.006	1300.838	981.054
402.336	17.061	1299.944	980.607
403.350	17.013	1299.181	979.670
404.365	17.031	1298.045	978.827
405.380	17.130	1297.325	978.774
406.394	17.170	1296.394	978.210
407.409	17.113	1296.340	977.754
408.423	17.148	1295.071	976.915
409.438	17.233	1294.428	976.830
410.453	17.225	1293.918	976.317
411.467	17.336	1293.096	976.245
412.482	17.354	1292.465	975.788
413.496	17.393	1291.499	975.194
414.511	17.583	1290.470	975.416
415.526	17.517	1289.899	974.525
416.540	17.484	1289.596	974.016
417.555	17.394	1289.190	973.112
418.569	17.546	1288.279	973.206
419.584	17.501	1287.892	972.573
420.599	17.463	1287.193	971.739
421.613	97.097	1355.118	1476.868
422.628	95.144	1364.973	1476.941
