DTS Sentinel unit serial number:	SN413079Multiplexer serial number:	ORYXHardware model number:	OX4-SRSoftware version number:	ORYX F/W v4.00 Oryx Data Collector v3.7.2.0data status	okinstallation	princeton_trtdifferential loss correction	single-endedforward channel	channel 4reverse channel	N/Adate	2019/09/14time	00:13:35forward acquisition time	60.00reverse acquisition time	0.00gamma	496.2192k internal	0.2324k external	0.2324temperature offset calibration	1.0132default loss term (dB/km)	0.3790temperature slope calibration	1.0000multiplexer offset coefficient	1.0000multiplexer slope coefficient	1.0000fibre end	0.00T internal ref (°C)	26.50T ext. ref 1 (°C)	3.16T ext. ref 2 (°C)	21.44length (m)	temperature (°C)	Stokes	anti-Stokes-747.200	-126.236	-0.292	-0.044
-746.185	-94.101	-0.314	0.087
-745.171	-30.717	0.188	0.107
-744.156	-200.000	0.031	0.269
-743.142	-40.012	0.218	0.115
-742.127	250.582	0.051	0.088
-741.112	800.000	0.050	-0.168
-740.098	-200.000	0.009	-0.165
-739.083	197.912	0.071	0.110
-738.069	-107.133	0.209	0.047
-737.054	-200.000	0.001	-0.137
-736.039	359.193	-0.092	0.185
-735.025	-200.000	0.016	0.181
-734.010	-113.470	-0.143	-0.028
-732.996	-200.000	0.017	-0.224
-731.981	-88.046	0.302	-0.091
-730.966	800.000	0.018	-0.074
-729.952	800.000	-0.040	0.141
-728.937	-200.000	-0.001	0.020
-727.923	170.001	-0.204	0.294
-726.908	-31.201	-0.250	-0.142
-725.894	-172.830	-0.175	-0.005
-724.879	-73.859	0.128	0.047
-723.864	-100.525	0.304	0.076
-722.850	-200.000	0.052	-0.241
-721.835	-147.071	0.270	0.023
-720.821	104.048	-0.087	-0.103
-719.806	148.133	-0.106	-0.145
-718.791	108.569	0.062	-0.075
-717.777	107.170	-0.234	-0.281
-716.762	-107.638	-0.167	0.037
-715.748	-47.948	-0.131	-0.064
-714.733	-51.704	0.200	0.094
-713.718	-200.000	0.026	0.154
-712.704	-73.785	0.238	-0.087
-711.689	-129.968	0.070	0.010
-710.675	12.867	0.081	-0.063
-709.660	132.131	0.194	-0.251
-708.645	-137.219	-0.154	-0.018
-707.631	-84.584	-0.216	0.069
-706.616	333.184	-0.125	-0.244
-705.602	176.415	0.146	-0.214
-704.587	88.845	-0.245	-0.274
-703.572	800.000	-0.048	0.171
-702.558	442.292	-0.123	0.272
-701.543	144.806	0.139	0.187
-700.529	54.900	-0.201	-0.195
-699.514	-102.177	-0.257	0.062
-698.499	779.124	0.056	0.156
-697.485	800.000	-0.042	-0.158
-696.470	-200.000	-0.007	-0.152
-695.456	25.809	-0.113	-0.095
-694.441	43.735	-0.154	0.142
-693.426	266.454	0.180	-0.317
-692.412	314.202	-0.081	0.154
-691.397	-93.027	0.233	0.065
-690.383	-78.235	-0.060	-0.021
-689.368	-62.604	-0.055	0.023
-688.354	-41.680	-0.379	-0.196
-687.339	-7.821	0.079	-0.054
-686.324	-124.831	-0.271	-0.042
-685.310	-21.384	-0.380	0.234
-684.295	52.375	-0.076	0.073
-683.281	-109.170	0.207	-0.044
-682.266	159.030	-0.144	-0.201
-681.251	-63.653	0.419	-0.173
-680.237	800.000	-0.061	-0.186
-679.222	57.541	0.149	-0.147
-678.208	-200.000	-0.072	-0.414
-677.193	-90.326	0.279	-0.082
-676.178	-58.394	-0.255	0.112
-675.164	-200.000	0.003	0.210
-674.149	387.085	-0.015	0.031
-673.135	-64.519	0.312	0.127
-672.120	-21.244	0.185	0.114
-671.105	800.000	0.078	-0.269
-670.091	55.813	0.049	-0.048
-669.076	13.973	-0.175	-0.137
-668.062	27.310	0.244	0.206
-667.047	429.593	0.065	-0.141
-666.032	-200.000	0.030	-0.145
-665.018	-3.579	-0.191	-0.134
-664.003	98.688	0.136	0.158
-662.989	-1.727	-0.295	0.209
-661.974	153.776	-0.217	0.299
-660.959	3.231	0.126	-0.092
-659.945	-65.243	-0.100	0.041
-658.930	9.343	0.019	0.014
-657.916	-162.628	-0.359	0.018
-656.901	-200.000	-0.052	0.241
-655.886	800.000	-0.046	0.181
-654.872	-200.000	0.028	0.211
-653.857	-32.219	0.054	0.030
-652.843	155.987	-0.104	-0.145
-651.828	-200.000	0.049	-0.227
-650.814	-47.247	-0.239	-0.117
-649.799	-10.829	0.107	0.071
-648.784	152.478	0.029	0.040
-647.770	800.000	-0.018	0.054
-646.755	-12.402	-0.113	-0.074
-645.741	-32.836	-0.148	-0.083
-644.726	-79.099	0.480	-0.164
-643.711	378.104	0.123	-0.254
-642.697	52.913	0.219	0.210
-641.682	-60.314	0.166	-0.071
-640.668	103.447	-0.183	-0.216
-639.653	-52.250	0.125	0.058
-638.638	-100.242	-0.227	-0.057
-637.624	-145.615	-0.259	-0.023
-636.609	271.627	0.067	-0.119
-635.595	-91.276	0.164	-0.047
-634.580	-34.080	0.047	0.026
-633.565	-200.000	-0.043	-0.306
-632.551	92.315	-0.177	0.200
-631.536	235.774	0.083	0.137
-630.522	110.167	0.122	-0.147
-629.507	135.299	-0.170	0.222
-628.492	-57.763	0.238	0.105
-627.478	-200.000	0.143	0.001
-626.463	-200.000	0.033	-0.344
-625.449	240.814	0.019	-0.032
-624.434	-200.000	-0.017	-0.303
-623.419	-200.000	0.002	-0.074
-622.405	-38.298	-0.130	-0.069
-621.390	253.691	-0.128	0.220
-620.376	-150.357	0.140	-0.011
-619.361	800.000	0.066	0.192
-618.346	-200.000	-0.003	-0.161
-617.332	352.558	0.052	-0.105
-616.317	-181.907	-0.171	-0.003
-615.303	115.005	0.145	-0.178
-614.288	226.483	0.187	-0.304
-613.273	-147.084	0.240	0.021
-612.259	335.872	0.025	-0.048
-611.244	-74.722	0.287	-0.104
-610.230	-4.780	-0.231	0.160
-609.215	-14.896	0.177	-0.114
-608.201	800.000	0.047	0.168
-607.186	-84.010	0.107	-0.034
-606.171	-60.553	0.015	0.006
-605.157	744.479	0.134	-0.361
-604.142	320.538	0.084	0.160
-603.128	60.621	0.278	0.276
-602.113	-200.000	0.007	-0.119
-601.098	19.067	-0.327	0.263
-600.084	92.087	-0.343	0.387
-599.069	169.417	-0.044	-0.063
-598.055	-200.000	0.022	0.260
-597.040	5.465	0.132	0.098
-596.025	-13.631	0.060	-0.039
-595.011	-129.624	-0.377	-0.052
-593.996	-5.196	0.155	-0.107
-592.982	-7.027	0.184	0.126
-591.967	-200.000	-0.003	0.058
-590.952	-200.000	0.015	0.287
-589.938	-59.432	0.130	-0.056
-588.923	-137.365	0.241	-0.027
-587.909	99.432	-0.144	-0.167
-586.894	34.892	0.097	-0.085
-585.879	165.956	-0.038	0.054
-584.865	163.948	0.115	0.162
-583.850	-200.000	-0.040	-0.332
-582.836	123.515	0.176	-0.222
-581.821	61.817	-0.239	-0.239
-580.806	800.000	-0.058	-0.247
-579.792	184.217	-0.079	0.117
-578.777	-18.871	0.105	0.066
-577.763	-118.199	-0.296	0.053
-576.748	800.000	0.044	-0.164
-575.733	-58.703	-0.242	0.105
-574.719	-121.061	-0.138	-0.023
-573.704	14.556	-0.408	0.319
-572.690	800.000	-0.089	-0.320
-571.675	34.862	-0.194	-0.170
-570.661	-22.040	0.188	0.114
-569.646	31.815	-0.236	-0.203
-568.631	37.852	-0.099	-0.088
-567.617	-200.000	0.011	0.057
-566.602	-62.851	0.218	-0.090
-565.588	209.240	0.057	0.089
-564.573	-4.246	-0.382	0.265
-563.558	-200.000	-0.033	0.161
-562.544	800.000	0.070	0.228
-561.529	644.764	-0.126	0.322
-560.515	-41.085	-0.136	-0.071
-559.500	-158.038	-0.108	-0.006
-558.485	-18.171	-0.253	-0.159
-557.471	469.905	0.097	0.218
-556.456	104.760	0.086	0.101
-555.442	-27.703	-0.254	-0.148
-554.427	-100.172	0.266	0.066
-553.412	-107.361	-0.145	0.032
-552.398	-145.270	-0.373	-0.034
-551.383	800.000	0.087	-0.268
-550.369	-95.720	-0.145	-0.039
-549.354	-44.451	0.318	0.159
-548.339	60.242	-0.161	0.159
-547.325	134.142	-0.153	0.198
-546.310	-34.121	0.349	0.192
-545.296	29.036	0.207	0.176
-544.281	-200.000	-0.030	-0.274
-543.266	42.149	-0.383	0.348
-542.252	-73.361	0.260	-0.095
-541.237	36.998	0.176	-0.156
-540.223	-65.345	0.167	-0.067
-539.208	800.000	0.110	0.394
-538.193	-102.981	-0.395	-0.094
-537.179	-200.000	0.019	-0.122
-536.164	-104.925	-0.134	0.031
-535.150	45.569	0.209	-0.193
-534.135	-93.710	-0.182	-0.050
-533.121	14.805	0.201	0.157
-532.106	-200.000	0.022	-0.210
-531.091	800.000	0.064	-0.269
-530.077	38.904	-0.127	-0.114
-529.062	25.648	0.264	0.220
-528.048	-200.000	0.035	-0.408
-527.033	31.112	0.195	-0.168
-526.018	186.949	0.139	-0.208
-525.004	-91.773	-0.180	-0.051
-523.989	584.778	-0.088	0.217
-522.975	-112.160	0.251	-0.051
-521.960	-119.672	0.097	0.017
-520.945	-200.000	-0.050	-0.301
-519.931	800.000	-0.087	-0.288
-518.916	106.554	0.161	0.191
-517.902	315.276	0.140	-0.263
-516.887	11.047	-0.302	-0.231
-515.872	-140.681	0.100	-0.010
-514.858	110.305	-0.086	0.104
-513.843	125.761	0.237	-0.299
-512.829	-200.000	-0.046	-0.226
-511.814	-115.816	-0.162	-0.030
-510.799	-9.384	0.244	0.163
-509.785	-113.873	0.537	0.104
-508.770	-93.520	0.223	-0.062
-507.756	-200.000	-0.001	-0.136
-506.741	569.665	-0.036	-0.087
-505.726	293.786	0.077	0.141
-504.712	590.283	0.151	-0.373
-503.697	-155.984	0.184	0.012
-502.683	2.163	-0.094	-0.068
-501.668	-58.745	0.325	-0.141
-500.653	-59.705	-0.274	-0.117
-499.639	-200.000	0.063	0.432
-498.624	-200.000	-0.034	0.249
-497.610	-200.000	-0.021	0.235
-496.595	-85.563	0.442	0.138
-495.581	29.756	0.213	0.182
-494.566	80.914	-0.233	-0.252
-493.551	-126.993	-0.208	0.031
-492.537	-31.356	0.152	0.086
-491.522	391.870	-0.023	0.049
-490.508	37.260	0.191	0.169
-489.493	-144.827	-0.403	0.037
-488.478	53.168	-0.295	-0.283
-487.464	165.802	0.226	0.319
-486.449	-169.785	0.140	0.005
-485.435	27.789	-0.123	0.103
-484.420	-158.909	0.162	-0.009
-483.405	-48.972	-0.242	0.116
-482.391	338.116	0.076	-0.148
-481.376	-155.089	-0.045	-0.003
-480.362	184.805	-0.071	0.106
-479.347	-32.386	-0.211	0.117
-478.332	800.000	-0.050	0.143
-477.318	737.766	0.098	-0.261
-476.303	-76.810	0.345	0.121
-475.289	-38.054	0.221	-0.117
-474.274	-68.297	0.101	0.039
-473.259	-200.000	-0.032	0.236
-472.245	284.312	-0.073	0.131
-471.230	-200.000	0.044	-0.209
-470.216	-39.363	0.263	-0.138
-469.201	-90.875	0.244	0.070
-468.186	-161.638	-0.079	-0.004
-467.172	-75.345	0.109	-0.039
-466.157	-200.000	-0.022	0.106
-465.143	-177.748	0.308	-0.007
-464.128	-200.000	-0.018	-0.272
-463.113	-163.715	-0.341	-0.016
-462.099	800.000	-0.111	0.311
-461.084	800.000	-0.123	0.413
-460.070	367.902	0.150	0.303
-459.055	-200.000	-0.016	-0.187
-458.040	15.226	0.081	0.064
-457.026	-53.025	-0.083	0.038
-456.011	800.000	0.118	-0.378
-454.997	375.930	-0.199	-0.405
-453.982	-107.478	0.392	0.086
-452.968	-98.540	0.101	0.026
-451.953	800.000	0.088	0.286
-450.938	-5.288	-0.313	0.214
-449.924	141.322	0.088	0.116
-448.909	800.000	-0.106	0.446
-447.895	-200.000	-0.012	0.116
-446.880	-5.769	0.206	0.141
-445.865	-31.695	0.143	-0.080
-444.851	-91.511	-0.333	-0.095
-443.836	800.000	-0.087	-0.253
-442.822	-104.611	0.278	0.064
-441.807	-92.802	0.269	-0.075
-440.792	-15.344	0.074	0.047
-439.778	-53.296	0.199	0.091
-438.763	516.126	-0.183	-0.428
-437.749	800.000	-0.095	-0.269
-436.734	235.909	-0.038	0.063
-435.719	169.992	0.208	-0.296
-434.705	-144.888	0.234	0.021
-433.690	41.664	-0.131	-0.119
-432.676	252.162	0.009	-0.015
-431.661	85.996	-0.092	0.101
-430.646	800.000	-0.044	0.133
-429.632	212.587	0.153	-0.240
-428.617	-17.152	0.092	0.058
-427.603	319.905	0.108	0.205
-426.588	219.029	-0.067	-0.106
-425.573	-68.716	0.085	0.033
-424.559	-200.000	0.018	-0.088
-423.544	300.285	-0.097	0.178
-422.530	124.405	0.157	0.196
-421.515	-143.413	-0.114	-0.011
-420.500	-121.110	0.166	0.028
-419.486	-161.548	-0.032	0.002
-418.471	5.436	-0.156	0.115
-417.457	-76.544	-0.125	0.044
-416.442	-200.000	-0.064	-0.301
-415.428	-116.609	0.341	0.063
-414.413	2.819	0.335	-0.242
-413.398	800.000	0.076	-0.273
-412.384	-22.747	-0.299	0.180
-411.369	-97.478	-0.128	0.033
-410.355	-200.000	-0.017	-0.186
-409.340	-107.692	-0.104	-0.023
-408.325	-200.000	0.017	0.217
-407.311	-112.204	0.073	-0.015
-406.296	-200.000	-0.009	-0.094
-405.282	1.134	-0.225	0.161
-404.267	119.698	0.040	-0.049
-403.252	290.511	-0.146	0.264
-402.238	25.543	-0.187	0.155
-401.223	-136.635	-0.350	0.040
-400.209	9.804	-0.105	-0.080
-399.194	533.675	-0.070	0.165
-398.179	262.841	-0.023	-0.039
-397.165	-14.516	0.352	0.225
-396.150	-27.051	0.090	0.052
-395.136	800.000	-0.077	-0.276
-394.121	-111.069	-0.131	0.027
-393.106	169.340	-0.135	-0.191
-392.092	-54.810	0.155	-0.070
-391.077	-200.000	0.005	-0.122
-390.063	117.410	0.197	0.242
-389.048	-140.496	-0.129	0.013
-388.033	111.444	-0.173	-0.207
-387.019	37.753	0.219	-0.194
-386.004	-144.667	0.430	-0.039
-384.990	54.093	0.109	0.104
-383.975	-113.928	0.397	-0.077
-382.960	-27.421	0.251	0.146
-381.946	-33.364	-0.136	0.075
-380.931	44.329	0.151	-0.138
-379.917	-13.612	-0.180	0.116
-378.902	32.919	0.226	-0.194
-377.888	-14.127	0.057	0.036
-376.873	-110.487	-0.363	-0.075
-375.858	-130.476	0.311	-0.042
-374.844	130.685	-0.060	0.076
-373.829	177.619	-0.085	-0.123
-372.815	-185.193	0.421	0.007
-371.800	324.553	-0.083	-0.157
-370.785	-56.122	0.223	-0.099
-369.771	-200.000	-0.398	-0.001
-368.756	212.423	0.050	-0.078
-367.742	3.890	-0.068	-0.049
-366.727	-200.000	-0.244	-0.001
-365.712	164.881	0.167	0.234
-364.698	370.342	-0.065	0.130
-363.683	-94.298	-0.372	-0.101
-362.669	280.383	0.112	0.199
-361.654	-89.088	-0.427	0.126
-360.639	-200.000	-0.002	-0.057
-359.625	128.756	-0.160	-0.203
-358.610	229.601	-0.022	-0.035
-357.596	623.655	-0.062	0.155
-356.581	191.349	-0.086	-0.129
-355.566	-126.784	0.276	0.040
-354.552	-14.611	0.270	0.173
-353.537	-79.543	-0.455	0.153
-352.523	800.000	-0.080	-0.253
-351.508	-200.000	0.062	-0.283
-350.493	61.760	-0.081	-0.080
-349.479	-200.000	-0.017	-0.122
-348.464	-200.000	0.013	-0.067
-347.450	-200.000	0.017	-0.076
-346.435	129.103	-0.248	-0.315
-345.420	166.901	-0.039	0.056
-344.406	712.171	-0.223	0.587
-343.391	-129.673	0.166	0.023
-342.377	800.000	-0.016	-0.069
-341.362	195.512	-0.125	0.188
-340.348	13.499	0.148	0.114
-339.333	462.149	0.031	-0.068
-338.318	81.916	0.030	0.033
-337.304	22.292	0.072	-0.058
-336.289	-23.536	-0.159	0.095
-335.275	115.377	0.089	0.108
-334.260	593.489	0.038	-0.092
-333.245	67.892	-0.187	0.190
-332.231	-105.831	-0.370	-0.083
-331.216	-62.022	-0.053	0.022
-330.202	95.941	0.218	-0.247
-329.187	-149.951	-0.172	0.013
-328.172	-200.000	-0.082	-0.386
-327.158	557.890	-0.096	0.229
-326.143	25.820	0.074	-0.061
-325.129	739.286	0.032	0.084
-324.114	71.863	0.221	0.228
-323.099	-7.864	0.205	0.137
-322.085	-200.000	0.039	0.220
-321.070	-58.513	0.176	0.076
-320.056	554.090	0.101	0.241
-319.041	59.106	0.322	0.315
-318.026	800.000	-0.091	-0.339
-317.012	-200.000	-0.006	0.112
-315.997	800.000	0.006	0.024
-314.983	800.000	-0.116	-0.399
-313.968	-109.105	0.281	0.059
-312.953	-23.788	-0.034	-0.020
-311.939	-146.030	-0.181	-0.016
-310.924	800.000	-0.060	0.207
-309.910	-113.585	-0.105	-0.020
-308.895	30.308	-0.094	-0.080
-307.880	800.000	-0.047	-0.167
-306.866	-28.151	-0.254	0.146
-305.851	-33.327	0.098	-0.054
-304.837	-70.364	-0.254	0.096
-303.822	46.507	0.043	-0.040
-302.807	265.936	0.127	0.219
-301.793	-49.351	-0.139	0.066
-300.778	-200.000	-0.026	-0.124
-299.764	-67.736	-0.189	0.074
-298.749	332.049	0.083	-0.160
-297.735	23.946	0.139	0.114
-296.720	537.893	-0.157	0.369
-295.705	-27.048	-0.176	0.102
-294.691	800.000	-0.065	0.258
-293.676	800.000	-0.113	-0.327
-292.662	-174.697	-0.085	-0.002
-291.647	137.681	0.207	0.269
-290.632	237.824	-0.172	-0.282
-289.618	-155.556	0.193	-0.012
-288.603	800.000	0.127	0.389
-287.589	-192.070	0.296	-0.003
-286.574	-63.177	0.225	0.092
-285.559	384.870	-0.189	0.387
-284.545	202.028	-0.065	-0.100
-283.530	80.684	-0.184	0.197
-282.516	-9.141	0.144	0.096
-281.501	105.708	0.079	-0.093
-280.486	60.899	0.037	0.036
-279.472	-200.000	0.045	0.233
-278.457	73.850	-0.106	0.110
-277.443	-193.567	-0.228	-0.002
-276.428	-137.137	0.133	-0.015
-275.413	-86.188	-0.125	-0.038
-274.399	45.714	-0.185	-0.169
-273.384	29.806	0.130	-0.110
-272.370	196.310	-0.197	-0.298
-271.355	800.000	0.102	-0.367
-270.340	206.998	0.134	0.207
-269.326	750.346	-0.137	0.366
-268.311	-73.246	-0.290	-0.105
-267.297	11.564	-0.055	-0.042
-266.282	-200.000	0.044	0.231
-265.267	-71.475	-0.066	-0.024
-264.253	-200.000	-0.057	0.278
-263.238	322.102	-0.059	0.111
-262.224	-188.922	0.162	-0.002
-261.209	71.048	-0.148	-0.151
-260.195	22.387	0.105	-0.085
-259.180	39.320	0.153	-0.136
-258.165	-162.216	-0.096	-0.005
-257.151	-40.037	0.120	0.062
-256.136	800.000	0.078	0.291
-255.122	800.000	-0.086	-0.259
-254.107	-70.086	-0.182	0.068
-253.092	94.164	0.141	0.158
-252.078	431.026	0.158	-0.339
-251.063	800.000	0.063	0.185
-250.049	-200.000	0.033	-0.406
-249.034	-123.488	-0.138	-0.022
-248.019	800.000	-0.019	0.067
-247.005	-183.178	-0.254	0.004
-245.990	533.618	0.260	-0.611
-244.976	-149.707	-0.360	-0.028
-243.961	86.796	0.230	-0.252
-242.946	-200.000	0.036	0.218
-241.932	74.960	-0.137	-0.142
-240.917	17.315	-0.110	-0.086
-239.903	320.789	0.090	0.169
-238.888	800.000	-0.040	0.165
-237.873	-200.000	-0.006	0.059
-236.859	28.832	-0.163	-0.137
-235.844	19.015	0.297	-0.236
-234.830	378.402	-0.108	-0.220
-233.815	399.282	-0.039	-0.081
-232.800	-200.000	-0.018	-0.118
-231.786	800.000	0.040	0.132
-230.771	-124.377	0.082	0.013
-229.757	-98.466	-0.249	0.063
-228.742	367.927	-0.152	-0.303
-227.727	34.013	0.127	-0.110
-226.713	78.434	0.127	0.134
-225.698	-60.966	0.422	-0.177
-224.684	-117.305	-0.058	0.010
-223.669	-63.812	-0.387	-0.157
-222.655	-52.587	-0.138	-0.063
-221.640	142.081	0.082	-0.108
-220.625	22.167	0.237	-0.192
-219.611	-48.722	-0.314	-0.149
-218.596	-8.804	0.306	-0.203
-217.582	-82.379	-0.213	0.068
-216.567	-61.133	0.218	0.091
-215.552	-6.573	0.223	0.150
-214.538	233.325	-0.249	0.405
-213.523	392.080	-0.044	-0.091
-212.509	-60.528	0.058	-0.024
-211.494	-13.157	-0.383	-0.246
-210.479	557.849	0.044	0.105
-209.465	-120.637	-0.058	0.010
-208.450	197.980	0.153	-0.231
-207.436	-123.511	-0.301	0.047
-206.421	-200.000	-0.038	0.377
-205.406	-52.866	-0.303	0.138
-204.392	-200.000	-0.001	0.028
-203.377	4.683	-0.172	0.125
-202.363	800.000	0.015	0.043
-201.348	4.056	0.146	-0.106
-200.333	391.353	-0.091	-0.187
-199.319	-142.483	-0.377	-0.037
-198.304	14.381	-0.357	0.275
-197.290	-200.000	-0.020	-0.133
-196.275	52.542	-0.167	0.157
-195.260	18.699	0.230	-0.182
-194.246	376.498	0.144	0.291
-193.231	-200.000	0.024	0.407
-192.217	328.529	-0.237	0.450
-191.202	-200.000	0.002	-0.075
-190.187	-88.736	-0.268	0.079
-189.173	-200.000	-0.005	0.168
-188.158	-123.848	0.128	-0.020
-187.144	99.205	0.048	-0.055
-186.129	-85.306	0.178	-0.055
-185.114	-104.536	-0.203	0.046
-184.100	-200.000	-0.021	0.241
-183.085	-200.000	0.025	0.175
-182.071	-200.000	0.002	-0.127
-181.056	76.078	-0.159	-0.166
-180.042	184.379	-0.120	-0.176
-179.027	52.873	-0.202	0.191
-178.012	-200.000	-0.003	0.025
-176.998	-71.758	0.486	-0.179
-175.983	170.808	-0.108	0.153
-174.969	-35.051	0.216	-0.116
-173.954	-61.675	-0.111	-0.046
-172.939	-102.723	0.239	0.056
-171.925	-78.894	-0.148	-0.050
-170.910	-5.269	0.116	0.079
-169.896	506.773	0.036	-0.083
-168.881	-200.000	-0.002	-0.016
-167.866	157.700	0.070	0.095
-166.852	417.275	0.096	0.203
-165.837	-200.000	-0.027	-0.153
-164.823	-125.699	-0.291	-0.043
-163.808	-78.135	0.241	-0.082
-162.793	-12.873	-0.061	0.039
-161.779	84.451	-0.165	-0.178
-160.764	-114.136	0.246	-0.047
-159.750	11.026	0.260	0.196
-158.735	3.146	-0.141	0.101
-157.720	-200.000	0.027	-0.186
-156.706	-3.374	-0.040	-0.028
-155.691	104.954	-0.066	0.077
-154.677	105.299	-0.193	0.225
-153.662	356.210	-0.076	-0.149
-152.647	231.390	0.041	-0.067
-151.633	-107.037	-0.202	0.044
-150.618	-13.867	-0.167	-0.106
-149.604	-5.625	0.203	0.138
-148.589	-200.000	-0.031	-0.173
-147.574	229.422	-0.200	0.322
-146.560	49.572	0.104	-0.096
-145.545	-130.710	0.407	-0.054
-144.531	800.000	-0.015	-0.060
-143.516	-112.552	0.137	0.027
-142.502	329.264	-0.138	0.261
-141.487	99.452	0.199	-0.227
-140.472	0.807	0.266	0.188
-139.458	21.888	0.015	-0.012
-138.443	800.000	0.056	0.184
-137.429	381.265	-0.055	0.111
-136.414	-200.000	-0.020	-0.435
-135.399	-200.000	-0.013	0.173
-134.385	800.000	-0.029	-0.081
-133.370	249.095	-0.027	0.044
-132.356	-88.523	0.195	-0.057
-131.341	44.074	0.056	-0.050
-130.326	-200.000	0.058	0.397
-129.312	-21.786	0.159	-0.095
-128.297	188.682	-0.231	0.340
-127.283	-94.927	-0.135	-0.036
-126.268	-133.260	0.137	0.017
-125.253	-32.122	0.125	-0.069
-124.239	215.943	-0.206	0.323
-123.224	194.369	-0.020	-0.029
-122.210	-31.738	-0.061	-0.034
-121.195	800.000	0.057	0.218
-120.180	10.627	-0.171	0.129
-119.166	38.478	0.095	0.084
-118.151	-94.903	-0.385	-0.103
-117.137	-112.952	-0.296	0.058
-116.122	-98.170	-0.137	0.035
-115.107	-200.000	-0.049	-0.265
-114.093	-109.870	0.212	-0.044
-113.078	746.437	-0.081	-0.216
-112.064	-132.891	-0.278	-0.035
-111.049	-125.321	0.167	-0.025
-110.034	-79.656	-0.138	-0.046
-109.020	-104.005	0.149	-0.034
-108.005	37.888	0.290	0.253
-106.991	140.612	0.102	-0.133
-105.976	-200.000	-0.003	0.374
-104.962	-56.815	-0.085	-0.037
-103.947	-88.647	0.282	0.083
-102.932	112.044	-0.239	-0.284
-101.918	-200.000	0.003	0.078
-100.903	-64.170	0.034	-0.014
-99.889	97.436	0.267	0.302
-98.874	217.863	-0.107	-0.167
-97.859	425.791	0.028	0.059
-96.845	800.000	-0.127	-0.450
-95.830	-32.958	0.054	0.029
-94.816	-73.408	-0.141	-0.051
-93.801	800.000	0.066	0.209
-92.786	66.042	-0.330	0.330
-91.772	-70.448	0.263	-0.098
-90.757	261.921	0.060	0.102
-89.743	248.668	0.084	0.141
-88.728	758.564	0.134	-0.358
-87.713	7.865	-0.142	-0.104
-86.699	315.611	-0.094	-0.174
-85.684	-34.169	0.281	-0.152
-84.670	384.730	-0.102	-0.207
-83.655	66.814	-0.227	0.227
-82.640	-121.227	0.559	-0.092
-81.626	-28.734	0.328	0.186
-80.611	69.610	0.152	0.154
-79.597	800.000	-0.108	-0.295
-78.582	-91.259	0.037	0.010
-77.567	-70.567	-0.134	0.050
-76.553	-32.838	-0.059	0.032
-75.538	-200.000	0.002	0.205
-74.524	-19.931	0.027	0.017
-73.509	-105.379	0.435	-0.097
-72.494	753.864	-0.144	0.383
-71.480	119.442	0.114	-0.139
-70.465	12.196	0.090	0.068
-69.451	22.917	-0.033	-0.027
-68.436	84.086	-0.141	0.151
-67.422	-200.000	0.068	-0.298
-66.407	-137.603	0.254	-0.028
-65.392	-3.075	-0.296	0.203
-64.378	3.540	-0.104	-0.074
-63.363	-108.476	0.137	-0.029
-62.349	-36.869	0.170	0.090
-61.334	130.833	-0.806	-1.016
-60.319	48.386	0.621	0.571
-59.305	623.312	-0.516	-1.277
-58.290	217.176	0.706	1.105
-57.276	800.000	0.426	1.401
-56.261	-200.000	116.498	646.956
-55.246	498.077	1536.153	3475.315
-54.232	173.057	2713.474	3841.746
-53.217	95.565	2322.526	2602.800
-52.203	33.015	2066.946	1759.476
-51.188	28.392	1983.386	1646.844
-50.173	26.983	1966.540	1620.223
-49.159	43.811	2026.898	1823.094
-48.144	42.861	2042.037	1828.017
-47.130	28.716	2000.175	1663.457
-46.115	26.597	1989.801	1635.645
-45.100	26.526	1986.593	1632.302
-44.086	26.484	1984.382	1630.040
-43.071	26.390	1981.895	1627.084
-42.057	26.383	1979.809	1625.244
-41.042	26.365	1978.134	1623.647
-40.027	26.396	1975.972	1622.087
-39.013	26.421	1974.168	1620.766
-37.998	26.375	1972.728	1619.109
-36.984	26.394	1970.920	1617.731
-35.969	26.369	1968.847	1615.740
-34.954	26.484	1966.763	1614.994
-33.940	26.402	1965.955	1613.534
-32.925	26.504	1964.032	1612.800
-31.911	26.519	1962.502	1611.614
-30.896	26.550	1960.570	1610.236
-29.881	26.608	1959.054	1609.443
-28.867	26.630	1957.539	1608.326
-27.852	26.582	1955.538	1606.197
-26.838	26.545	1953.975	1604.522
-25.823	26.565	1952.302	1603.265
-24.809	26.538	1950.463	1601.445
-23.794	26.450	1949.330	1599.673
-22.779	26.571	1946.680	1598.505
-21.765	26.526	1945.172	1596.809
-20.750	26.579	1943.485	1595.824
-19.736	26.458	1942.821	1594.154
-18.721	26.552	1940.212	1592.778
-17.706	26.529	1938.865	1591.407
-16.692	26.597	1936.842	1590.279
-15.677	26.460	1935.942	1588.269
-14.663	26.496	1934.017	1586.943
-13.648	26.489	1933.101	1586.072
-12.633	26.493	1931.744	1584.930
-11.619	26.505	1930.726	1584.139
-10.604	26.517	1929.123	1582.861
-9.590	26.490	1927.866	1581.531
-8.575	26.529	1926.410	1580.612
-7.560	26.528	1925.153	1579.512
-6.546	26.465	1924.000	1577.952
-5.531	26.521	1922.572	1577.211
-4.517	26.551	1921.195	1576.275
-3.502	26.518	1920.052	1574.989
-2.487	26.540	1919.161	1574.387
-1.473	26.472	1918.320	1573.043
-0.458	26.607	1913.216	1569.968
0.556	27.314	1893.705	1542.052
1.571	23.036	1875.426	1491.039
2.586	19.292	1898.003	1476.839
3.600	18.348	1934.192	1496.616
4.615	17.973	1926.989	1487.643
5.629	13.729	1825.856	1374.348
6.644	6.512	1713.172	1233.128
7.659	3.393	1680.199	1185.326
8.673	3.101	1677.622	1181.160
9.688	3.211	1675.875	1180.670
10.702	3.144	1675.310	1179.651
11.717	3.205	1671.406	1177.263
12.731	3.556	1670.593	1179.276
13.746	8.491	1681.962	1225.088
14.761	16.168	1698.693	1296.383
15.775	20.116	1705.528	1331.879
16.790	20.282	1705.264	1332.830
17.804	19.421	1701.712	1323.339
18.819	18.417	1698.255	1312.843
19.834	17.827	1695.993	1306.458
20.848	17.661	1694.913	1304.240
21.863	17.518	1693.880	1302.235
22.877	17.320	1692.472	1299.527
23.892	17.052	1691.207	1296.398
24.907	17.034	1689.649	1294.947
25.921	17.094	1688.380	1294.320
26.936	17.105	1686.949	1293.188
27.950	17.058	1686.378	1292.282
28.965	17.029	1686.345	1291.919
29.980	17.083	1685.933	1291.900
30.994	17.257	1684.452	1291.977
32.009	17.407	1682.754	1291.694
33.023	17.357	1682.523	1291.022
34.038	17.432	1681.557	1290.738
35.053	17.270	1680.581	1288.651
36.067	17.298	1678.749	1287.345
37.082	17.216	1677.942	1285.986
38.096	17.255	1676.925	1285.393
39.111	17.156	1676.217	1283.984
40.126	17.290	1675.484	1284.321
41.140	17.273	1674.947	1283.665
42.155	17.057	1673.058	1280.480
43.169	16.919	1671.210	1277.913
44.184	16.841	1669.559	1275.949
45.199	16.815	1668.940	1275.166
46.213	16.847	1667.425	1274.132
47.228	16.903	1666.680	1273.873
48.242	17.069	1665.014	1273.735
49.257	17.151	1664.597	1273.918
50.271	17.233	1663.437	1273.533
51.286	17.152	1662.414	1272.029
52.301	17.118	1660.636	1270.300
53.315	17.230	1659.212	1269.936
54.330	17.100	1657.711	1267.708
55.344	17.102	1655.880	1266.206
56.359	16.967	1654.514	1264.046
57.374	16.955	1653.891	1263.369
58.388	16.995	1652.441	1262.447
59.403	16.842	1651.326	1260.343
60.417	16.894	1649.293	1259.066
61.432	16.890	1648.060	1257.983
62.447	16.767	1647.497	1256.534
63.461	16.706	1646.823	1255.455
64.476	16.708	1645.126	1254.063
65.490	16.730	1644.066	1253.307
66.505	16.582	1642.914	1251.225
67.520	16.692	1641.984	1251.220
68.534	16.682	1641.359	1250.560
69.549	16.711	1639.804	1249.478
70.563	16.692	1638.356	1248.123
71.578	16.733	1637.118	1247.372
72.593	16.674	1635.922	1245.919
73.607	16.549	1635.177	1244.321
74.622	16.607	1634.007	1243.741
75.636	16.561	1633.102	1242.608
76.651	16.546	1632.410	1241.860
77.666	16.589	1631.650	1241.486
78.680	16.672	1630.602	1241.189
79.695	16.636	1629.724	1240.146
80.709	16.694	1629.193	1240.059
81.724	16.790	1628.491	1240.116
82.739	16.892	1627.549	1240.035
83.753	16.974	1626.476	1239.707
84.768	16.974	1625.572	1238.913
85.782	17.074	1625.726	1239.648
86.797	17.221	1624.489	1239.666
87.812	17.181	1623.198	1238.281
88.826	17.192	1621.777	1237.170
89.841	17.081	1620.800	1235.505
90.855	17.162	1619.727	1235.169
91.870	17.203	1618.902	1234.727
92.884	17.337	1617.972	1234.880
93.899	17.389	1616.861	1234.298
94.914	17.272	1615.842	1232.566
95.928	17.322	1614.200	1231.563
96.943	17.351	1613.152	1230.870
97.957	17.314	1611.719	1229.398
98.972	17.182	1610.905	1227.717
99.987	17.229	1608.968	1226.469
101.001	17.257	1607.322	1225.304
102.016	17.266	1605.369	1223.773
103.030	17.237	1604.181	1222.554
104.045	17.297	1603.017	1221.989
105.060	17.272	1601.831	1220.799
106.074	17.187	1600.696	1219.210
107.089	17.035	1598.592	1216.417
108.103	16.836	1597.303	1213.901
109.118	16.763	1595.816	1212.137
110.133	16.606	1594.409	1209.839
111.147	16.793	1592.284	1209.458
112.162	16.750	1591.387	1208.359
113.176	16.784	1590.072	1207.497
114.191	16.757	1589.175	1206.519
115.206	16.830	1587.914	1205.974
116.220	16.813	1586.635	1204.776
117.235	16.944	1584.864	1204.254
118.249	16.868	1583.791	1202.793
119.264	16.812	1582.443	1201.263
120.279	16.688	1581.485	1199.552
121.293	16.713	1579.137	1197.846
122.308	16.675	1577.686	1196.366
123.322	16.617	1576.102	1194.650
124.337	16.602	1574.516	1193.237
125.352	16.503	1573.805	1191.898
126.366	16.640	1572.425	1191.713
127.381	16.552	1571.137	1190.007
128.395	16.649	1569.992	1189.718
129.410	16.535	1568.610	1187.768
130.424	16.573	1567.504	1187.092
131.439	16.631	1566.643	1186.737
132.454	16.802	1564.731	1186.385
133.468	16.815	1563.990	1185.811
134.483	16.757	1562.552	1184.210
135.497	16.894	1560.924	1183.824
136.512	16.756	1559.983	1182.048
137.527	16.951	1557.963	1181.768
138.541	17.028	1556.566	1181.136
139.556	16.921	1555.572	1179.540
140.570	16.869	1554.477	1178.244
141.585	17.024	1552.994	1178.090
142.600	17.102	1552.072	1177.826
143.614	17.171	1550.956	1177.353
144.629	17.178	1550.123	1176.664
145.643	17.345	1548.198	1176.257
146.658	17.314	1547.159	1175.144
147.673	17.291	1545.571	1173.675
148.687	17.192	1543.731	1171.497
149.702	17.057	1542.691	1169.672
150.716	17.103	1540.382	1168.135
151.731	16.956	1539.352	1166.238
152.746	16.964	1538.210	1165.325
153.760	16.901	1536.980	1163.859
154.775	17.034	1535.422	1163.486
155.789	17.036	1534.317	1162.562
156.804	17.160	1532.966	1162.280
157.819	17.217	1531.743	1161.639
158.833	17.158	1531.023	1160.594
159.848	17.259	1529.950	1160.365
160.862	17.421	1528.552	1160.302
161.877	17.398	1527.549	1159.282
162.892	17.307	1525.822	1157.256
163.906	17.059	1524.588	1154.530
164.921	17.028	1523.011	1153.022
165.935	17.042	1522.261	1152.449
166.950	17.045	1520.962	1151.382
167.964	17.190	1519.922	1151.472
168.979	17.224	1518.883	1150.815
169.994	17.160	1517.876	1149.515
171.008	17.144	1516.524	1148.285
172.023	17.108	1515.644	1147.272
173.037	17.122	1514.872	1146.682
174.052	17.345	1513.809	1147.277
175.067	17.426	1512.268	1146.554
176.081	17.340	1511.108	1144.994
177.096	17.147	1509.230	1142.176
178.110	17.075	1508.212	1140.820
179.125	17.089	1507.530	1140.297
180.140	17.129	1506.340	1139.567
181.154	17.179	1505.521	1139.182
182.169	17.363	1504.362	1139.434
183.183	17.323	1503.087	1138.101
184.198	17.487	1502.285	1138.491
185.213	17.435	1501.579	1137.507
186.227	17.395	1501.138	1136.804
187.242	17.387	1499.987	1135.774
188.256	17.460	1498.266	1134.863
189.271	17.576	1497.292	1134.798
190.286	17.616	1496.250	1134.171
191.300	17.523	1495.353	1132.774
192.315	17.368	1493.484	1130.224
193.329	17.001	1492.162	1126.686
194.344	17.042	1490.853	1125.871
195.359	17.194	1489.618	1125.850
196.373	17.212	1488.869	1125.304
197.388	17.277	1488.788	1125.571
198.402	17.436	1487.259	1125.366
199.417	17.468	1486.586	1124.973
200.432	17.600	1485.743	1125.102
201.446	17.748	1484.368	1124.941
202.461	17.903	1483.473	1125.184
203.475	17.877	1483.123	1124.646
204.490	17.893	1482.056	1123.842
205.504	17.810	1480.913	1122.335
206.519	17.720	1479.362	1120.468
207.534	17.707	1477.985	1119.238
208.548	17.618	1477.137	1117.911
209.563	17.576	1476.113	1116.765
210.577	17.712	1474.953	1116.681
211.592	17.597	1474.270	1115.307
212.607	17.685	1473.295	1115.049
213.621	17.767	1473.121	1115.355
214.636	17.873	1472.115	1115.190
215.650	17.720	1471.313	1113.480
216.665	17.780	1470.166	1112.906
217.680	17.904	1469.082	1112.797
218.694	17.966	1468.505	1112.664
219.709	17.999	1467.664	1112.143
220.723	18.028	1466.912	1111.666
221.738	17.950	1465.885	1110.282
222.753	17.889	1465.227	1109.291
223.767	17.960	1463.856	1108.615
224.782	17.936	1462.885	1107.622
225.796	18.026	1462.008	1107.446
226.811	18.117	1461.397	1107.473
227.826	18.000	1461.028	1106.340
228.840	18.049	1460.060	1105.828
229.855	18.093	1457.983	1104.437
230.869	17.930	1457.155	1102.661
231.884	17.840	1456.712	1101.648
232.899	17.872	1455.742	1101.024
233.913	17.898	1453.979	1099.760
234.928	17.827	1452.574	1098.142
235.942	17.865	1451.302	1097.328
236.957	17.918	1450.000	1096.589
237.972	17.819	1448.894	1095.019
238.986	17.746	1447.951	1093.741
240.001	17.693	1447.302	1092.815
241.015	17.797	1446.135	1092.504
242.030	17.819	1444.940	1091.645
243.045	17.933	1443.847	1091.450
244.059	17.926	1443.260	1090.864
245.074	17.967	1442.664	1090.581
246.088	17.981	1441.808	1089.925
247.103	18.065	1440.683	1089.512
248.117	18.145	1440.241	1089.592
249.132	18.252	1439.339	1089.494
250.147	18.291	1439.291	1089.607
251.161	18.428	1439.035	1090.190
252.176	18.700	1437.433	1090.610
253.190	18.656	1437.255	1090.101
254.205	18.674	1436.378	1089.454
255.220	18.761	1435.481	1089.226
256.234	18.710	1435.017	1088.453
257.249	18.742	1434.136	1087.893
258.263	18.752	1433.477	1087.357
259.278	18.725	1432.249	1086.159
260.293	18.740	1431.260	1085.412
261.307	18.705	1430.391	1084.434
262.322	18.778	1429.854	1084.391
263.336	18.894	1428.861	1084.272
264.351	18.818	1428.122	1083.139
265.366	18.896	1427.290	1082.904
266.380	18.935	1426.338	1082.328
267.395	18.899	1425.029	1081.016
268.409	18.935	1424.047	1080.400
269.424	18.841	1423.476	1079.283
270.439	18.772	1422.363	1077.910
271.453	18.758	1421.138	1076.800
272.468	18.746	1420.337	1076.022
273.482	18.654	1419.466	1074.688
274.497	18.669	1418.506	1073.962
275.512	18.771	1417.493	1073.734
276.526	18.653	1416.724	1072.323
277.541	18.693	1415.540	1071.578
278.555	18.757	1414.445	1071.056
279.570	18.785	1413.677	1070.556
280.585	18.781	1413.036	1069.948
281.599	18.930	1412.356	1070.267
282.614	19.119	1410.829	1070.191
283.628	18.953	1410.218	1068.604
284.643	18.817	1408.965	1066.710
285.657	18.822	1407.918	1065.857
286.672	18.846	1406.726	1065.010
287.687	18.856	1406.385	1064.716
288.701	18.860	1405.361	1063.870
289.716	18.940	1404.363	1063.518
290.730	18.855	1403.953	1062.588
291.745	18.862	1402.836	1061.692
292.760	18.893	1401.892	1061.072
293.774	18.905	1400.773	1060.207
294.789	19.051	1399.755	1060.245
295.803	19.043	1399.551	1059.945
296.818	19.056	1398.667	1059.264
297.833	19.076	1396.989	1058.020
298.847	18.916	1396.076	1056.253
299.862	18.930	1395.453	1055.774
300.876	18.976	1394.471	1055.218
301.891	18.934	1393.383	1054.045
302.906	19.053	1392.574	1054.067
303.920	19.064	1391.983	1053.595
304.935	19.233	1391.251	1053.984
305.949	19.325	1390.567	1053.936
306.964	19.400	1389.823	1053.734
307.979	19.453	1388.889	1053.255
308.993	19.350	1388.018	1051.877
310.008	19.285	1387.048	1050.653
311.022	19.318	1385.586	1049.650
312.037	19.444	1384.801	1049.732
313.052	19.323	1384.172	1048.424
314.066	19.261	1382.989	1047.061
315.081	19.296	1381.668	1046.181
316.095	19.124	1380.492	1044.151
317.110	19.071	1379.493	1042.987
318.125	18.980	1378.370	1041.495
319.139	19.146	1377.045	1041.403
320.154	19.091	1376.383	1040.477
321.168	19.091	1375.707	1039.874
322.183	19.131	1374.988	1039.481
323.197	19.120	1374.020	1038.591
324.212	19.196	1372.678	1037.941
325.227	19.181	1371.926	1037.190
326.241	19.210	1371.041	1036.606
327.256	19.283	1369.956	1036.131
328.270	19.195	1369.648	1035.280
329.285	19.223	1368.528	1034.509
330.300	19.208	1367.623	1033.642
331.314	19.178	1366.893	1032.821
332.329	19.194	1365.760	1031.971
333.343	19.198	1365.101	1031.404
334.358	19.282	1364.493	1031.356
335.373	19.310	1363.874	1030.966
336.387	19.443	1362.660	1030.750
337.402	19.510	1361.773	1030.389
338.416	19.461	1361.433	1029.743
339.431	19.474	1360.929	1029.350
340.446	19.552	1359.962	1028.993
341.460	19.570	1359.129	1028.378
342.475	19.669	1358.261	1028.220
343.489	19.846	1357.549	1028.643
344.504	19.898	1356.419	1028.007
345.519	19.867	1355.352	1026.924
346.533	19.809	1354.824	1026.083
347.548	19.845	1354.441	1025.920
348.562	20.058	1353.262	1026.198
349.577	20.008	1352.096	1024.927
350.592	19.923	1351.412	1023.815
351.606	19.818	1350.435	1022.365
352.621	19.709	1349.127	1020.639
353.635	19.586	1348.065	1019.017
354.650	19.544	1347.165	1017.998
355.665	19.574	1346.107	1017.288
356.679	19.562	1344.794	1016.133
357.694	19.652	1343.766	1015.798
358.708	19.784	1342.692	1015.673
359.723	19.807	1341.845	1015.075
360.738	19.750	1341.551	1014.429
361.752	19.829	1340.115	1013.715
362.767	19.775	1338.538	1012.119
363.781	19.808	1338.042	1011.843
364.796	19.818	1337.384	1011.315
365.810	19.855	1336.834	1011.028
366.825	20.025	1336.111	1011.387
367.840	20.140	1335.688	1011.645
368.854	20.167	1335.107	1011.275
369.869	20.255	1334.581	1011.300
370.883	20.267	1333.798	1010.686
371.898	20.279	1332.505	1009.689
372.913	20.127	1331.964	1008.306
373.927	20.040	1331.213	1007.137
374.942	20.129	1330.266	1006.852
375.956	20.219	1329.633	1006.807
376.971	20.328	1328.641	1006.598
377.986	20.188	1327.737	1005.012
379.000	20.162	1327.258	1004.413
380.015	20.296	1326.879	1004.810
381.029	20.343	1326.033	1004.355
382.044	20.492	1324.881	1004.250
383.059	20.571	1324.271	1004.155
384.073	20.432	1323.812	1002.921
385.088	20.380	1323.195	1002.059
386.102	20.358	1322.574	1001.378
387.117	20.547	1321.159	1001.303
388.132	20.436	1320.567	1000.126
389.146	20.274	1319.909	998.610
390.161	20.191	1318.910	997.289
391.175	20.279	1317.948	996.980
392.190	20.208	1317.206	995.922
393.205	20.309	1315.951	995.462
394.219	20.398	1315.251	995.355
395.234	20.454	1314.120	994.734
396.248	20.380	1312.799	993.223
397.263	20.398	1311.094	991.944
398.278	20.312	1309.889	990.456
399.292	20.325	1308.857	989.660
400.307	20.199	1307.593	987.902
401.321	20.139	1306.785	986.859
402.336	20.117	1305.871	985.957
403.350	20.118	1304.728	985.015
404.365	20.138	1304.167	984.618
405.380	20.209	1303.159	984.171
406.394	20.304	1302.168	983.877
407.409	20.363	1301.605	983.697
408.423	20.340	1300.848	982.910
409.438	20.480	1300.388	983.267
410.453	20.564	1299.641	983.087
411.467	20.670	1299.094	983.190
412.482	20.767	1298.392	983.118
413.496	20.753	1297.888	982.567
414.511	20.724	1297.456	981.993
415.526	20.956	1295.879	982.017
416.540	20.830	1295.789	981.153
417.555	21.032	1294.977	981.590
418.569	21.017	1294.663	981.178
419.584	20.885	1293.976	979.831
420.599	20.769	1293.418	978.670
421.613	145.638	1435.355	1796.546
422.628	140.701	1455.990	1796.636
