DTS Sentinel unit serial number:	SN413079Multiplexer serial number:	ORYXHardware model number:	OX4-SRSoftware version number:	ORYX F/W v4.00 Oryx Data Collector v3.7.2.0data status	okinstallation	princeton_trtdifferential loss correction	single-endedforward channel	channel 4reverse channel	N/Adate	2019/09/14time	06:37:35forward acquisition time	60.00reverse acquisition time	0.00gamma	496.2192k internal	0.2324k external	0.2324temperature offset calibration	1.0135default loss term (dB/km)	0.3790temperature slope calibration	1.0000multiplexer offset coefficient	1.0000multiplexer slope coefficient	1.0000fibre end	0.00T internal ref (°C)	26.37T ext. ref 1 (°C)	3.41T ext. ref 2 (°C)	20.43length (m)	temperature (°C)	Stokes	anti-Stokes-747.200	-70.381	0.030	0.011
-746.185	-59.810	-0.392	-0.170
-745.171	61.657	0.249	-0.250
-744.156	199.589	0.090	-0.139
-743.142	329.672	-0.059	0.115
-742.127	5.776	-0.304	0.227
-741.112	-105.146	-0.159	-0.037
-740.098	-19.725	-0.154	0.096
-739.083	668.445	0.135	0.353
-738.069	178.511	-0.112	0.165
-737.054	507.280	-0.071	-0.166
-736.039	-103.173	-0.374	0.089
-735.025	-174.690	0.302	0.009
-734.010	151.195	0.074	-0.101
-732.996	-36.522	-0.091	0.049
-731.981	-159.264	-0.387	0.022
-730.966	-69.681	-0.268	-0.104
-729.952	519.924	0.138	-0.326
-728.937	236.646	0.165	-0.275
-727.923	800.000	-0.057	0.228
-726.908	-127.566	-0.458	0.067
-725.894	-66.645	-0.021	0.008
-724.879	-35.559	0.169	0.092
-723.864	-165.997	0.165	0.007
-722.850	800.000	0.058	-0.248
-721.835	187.104	-0.137	0.206
-720.821	-102.542	-0.040	0.010
-719.806	-65.989	-0.140	-0.056
-718.791	199.693	-0.072	-0.112
-717.777	800.000	-0.036	0.127
-716.762	-30.976	-0.267	0.152
-715.748	-200.000	0.048	-0.334
-714.733	237.362	-0.120	0.201
-713.718	-36.272	-0.113	-0.062
-712.704	-50.295	-0.288	-0.137
-711.689	71.261	-0.126	0.131
-710.675	-73.494	0.044	0.016
-709.660	800.000	0.128	-0.371
-708.645	179.829	-0.175	-0.259
-707.631	-163.808	-0.329	0.016
-706.616	-200.000	-0.098	-0.456
-705.602	59.603	0.055	0.055
-704.587	10.907	-0.032	0.025
-703.572	12.088	0.110	0.085
-702.558	-94.527	0.189	-0.052
-701.543	-68.484	0.316	0.124
-700.529	-2.371	-0.107	-0.076
-699.514	-104.994	-0.204	-0.047
-698.499	-135.519	0.218	-0.026
-697.485	-69.223	0.272	-0.105
-696.470	-38.757	-0.070	-0.037
-695.456	48.722	-0.250	-0.237
-694.441	-48.212	-0.195	0.095
-693.426	-154.647	0.031	0.002
-692.412	17.199	0.074	-0.059
-691.397	41.955	0.123	-0.112
-690.383	-200.000	0.026	-0.446
-689.368	91.060	0.182	-0.206
-688.354	-132.444	-0.223	0.029
-687.339	-17.867	-0.064	-0.040
-686.324	-102.046	-0.129	-0.031
-685.310	-200.000	-0.001	-0.180
-684.295	-83.354	-0.269	-0.087
-683.281	800.000	-0.033	0.095
-682.266	-200.000	0.017	-0.127
-681.251	-200.000	-0.012	0.155
-680.237	-59.935	0.141	-0.061
-679.222	-54.867	-0.372	-0.169
-678.208	715.862	0.055	-0.146
-677.193	405.345	0.049	-0.104
-676.178	297.456	0.115	-0.213
-675.164	800.000	-0.074	-0.275
-674.149	-120.344	-0.362	0.062
-673.135	-24.120	-0.218	0.131
-672.120	-200.000	-0.018	-0.221
-671.105	399.637	-0.108	-0.228
-670.091	-189.193	-0.430	-0.005
-669.076	-27.720	0.265	0.155
-668.062	-111.665	-0.361	-0.074
-667.047	19.338	-0.309	0.250
-666.032	496.343	-0.117	0.271
-665.018	-200.000	0.004	-0.040
-664.003	106.815	0.064	0.076
-662.989	72.180	-0.210	0.220
-661.974	-200.000	-0.008	-0.125
-660.959	6.474	-0.126	0.094
-659.945	800.000	-0.034	0.132
-658.930	-22.729	0.040	0.024
-657.916	131.674	-0.082	0.106
-656.901	220.009	-0.052	-0.084
-655.886	22.541	0.177	0.146
-654.872	-12.334	0.172	0.113
-653.857	-30.554	-0.127	-0.072
-652.843	-116.415	0.038	-0.007
-651.828	-200.000	0.013	-0.123
-650.814	-197.536	-0.213	0.001
-649.799	34.977	-0.225	-0.198
-648.784	105.293	-0.163	-0.194
-647.770	-200.000	0.081	-0.544
-646.755	-89.262	-0.182	0.054
-645.741	270.909	0.232	0.412
-644.726	-102.943	-0.191	-0.046
-643.711	584.206	-0.132	-0.327
-642.697	-94.036	0.100	-0.028
-641.682	-132.807	-0.201	0.026
-640.668	-200.000	-0.017	-0.171
-639.653	-200.000	0.013	0.315
-638.638	-200.000	0.015	-0.245
-637.624	800.000	-0.032	-0.089
-636.609	41.329	-0.137	0.125
-635.595	800.000	-0.083	-0.248
-634.580	-97.314	0.430	0.113
-633.565	-127.889	0.077	-0.011
-632.551	24.153	-0.141	-0.117
-631.536	-91.048	-0.154	0.044
-630.522	220.492	-0.125	-0.201
-629.507	-152.684	0.305	0.022
-628.492	-130.443	0.095	0.013
-627.478	-57.058	0.190	-0.084
-626.463	-117.391	0.235	-0.043
-625.449	-200.000	0.306	-0.001
-624.434	-43.133	0.152	0.077
-623.419	-49.468	0.264	-0.127
-622.405	800.000	-0.067	0.199
-621.390	20.665	0.172	-0.140
-620.376	-49.674	0.178	-0.085
-619.361	-83.985	-0.356	0.114
-618.346	-200.000	-0.005	0.192
-617.332	-200.000	0.042	-0.302
-616.317	-200.000	0.010	-0.051
-615.303	15.898	0.038	0.030
-614.288	-22.386	-0.118	-0.072
-613.273	-200.000	-0.007	-0.082
-612.259	581.791	-0.062	-0.151
-611.244	-94.136	-0.234	-0.064
-610.230	183.257	-0.082	0.121
-609.215	340.606	-0.155	0.303
-608.201	-5.287	0.153	0.105
-607.186	67.513	-0.126	0.129
-606.171	317.748	0.008	-0.014
-605.157	-200.000	0.000	0.110
-604.142	-94.616	0.214	0.059
-603.128	365.155	-0.100	0.203
-602.113	106.662	0.284	0.338
-601.098	-103.466	-0.129	-0.030
-600.084	-54.823	-0.423	-0.192
-599.069	-58.552	0.090	-0.039
-598.055	-119.467	-0.048	0.008
-597.040	-20.701	0.056	0.035
-596.025	-94.408	-0.189	0.052
-595.011	439.638	-0.187	-0.409
-593.996	72.793	0.034	0.035
-592.982	-42.997	0.035	0.018
-591.967	-193.886	-0.124	-0.001
-590.952	247.614	0.033	-0.056
-589.938	41.476	0.110	0.100
-588.923	506.415	-0.013	-0.031
-587.909	-200.000	-0.015	-0.118
-586.894	-37.291	-0.059	-0.031
-585.879	777.630	-0.137	0.376
-584.865	-65.495	0.423	-0.171
-583.850	-200.000	0.032	-0.400
-582.836	800.000	-0.032	0.139
-581.821	-164.319	0.167	0.008
-580.806	287.201	-0.075	0.135
-579.792	74.228	0.196	0.207
-578.777	-81.683	0.278	-0.091
-577.763	98.961	-0.227	-0.263
-576.748	18.391	-0.276	0.221
-575.733	-167.329	-0.275	0.011
-574.719	384.980	0.069	0.144
-573.704	-107.708	-0.473	-0.104
-572.690	-146.892	-0.270	0.023
-571.675	558.331	-0.090	0.217
-570.661	-193.366	0.317	-0.003
-569.646	326.275	-0.068	0.131
-568.631	-200.000	0.017	0.312
-567.617	533.991	-0.046	0.109
-566.602	-25.380	0.161	0.096
-565.588	-84.814	-0.179	-0.056
-564.573	348.283	0.040	0.080
-563.558	800.000	0.071	-0.249
-562.544	-19.408	0.200	0.124
-561.529	-46.906	0.207	-0.101
-560.515	-133.731	0.222	0.028
-559.500	-129.998	0.099	-0.014
-558.485	-5.320	-0.174	-0.120
-557.471	-166.473	-0.403	0.017
-556.456	33.729	0.071	-0.062
-555.442	-200.000	-0.018	-0.078
-554.427	800.000	0.038	-0.122
-553.412	30.794	0.215	-0.185
-552.398	55.425	0.189	-0.184
-551.383	53.432	-0.136	0.131
-550.369	-167.393	0.104	0.004
-549.354	-155.547	0.303	-0.020
-548.339	-49.996	0.041	-0.020
-547.325	-8.466	0.218	0.147
-546.310	-200.000	0.006	0.093
-545.296	90.327	0.245	-0.275
-544.281	-200.000	-0.002	0.229
-543.266	76.733	0.068	-0.073
-542.252	800.000	0.094	-0.274
-541.237	800.000	-0.072	0.219
-540.223	100.273	0.151	-0.176
-539.208	-54.884	-0.289	-0.131
-538.193	-101.648	-0.230	-0.056
-537.179	-42.905	0.026	-0.013
-536.164	-200.000	0.065	-0.333
-535.150	-129.650	0.084	0.012
-534.135	-200.000	0.024	-0.186
-533.121	-120.104	0.246	0.042
-532.106	800.000	-0.058	-0.193
-531.091	-34.908	-0.037	-0.020
-530.077	59.484	0.212	-0.209
-529.062	8.781	0.181	-0.137
-528.048	-145.902	-0.318	-0.028
-527.033	431.824	-0.072	-0.156
-526.018	-30.894	-0.079	0.045
-525.004	-200.000	-0.055	0.280
-523.989	65.683	0.036	-0.036
-522.975	9.774	-0.137	0.104
-521.960	622.327	-0.053	0.133
-520.945	287.374	0.257	0.465
-519.931	100.282	0.154	-0.179
-518.916	-121.262	-0.039	0.007
-517.902	112.928	0.039	-0.047
-516.887	7.216	0.098	-0.073
-515.872	-98.517	-0.308	-0.079
-514.858	464.620	-0.137	-0.306
-513.843	167.194	0.137	0.194
-512.829	800.000	-0.065	0.210
-511.814	-200.000	-0.014	-0.267
-510.799	-200.000	0.022	-0.098
-509.785	-38.510	0.234	0.124
-508.770	-120.821	0.118	0.020
-507.756	-13.121	-0.187	0.122
-506.741	178.203	-0.116	-0.169
-505.726	-200.000	-0.004	-0.351
-504.712	-20.042	0.407	-0.251
-503.697	800.000	-0.071	0.270
-502.683	-27.307	0.208	0.121
-501.668	48.916	-0.092	-0.086
-500.653	49.900	-0.112	0.106
-499.639	168.547	-0.123	0.175
-498.624	-21.402	-0.148	0.091
-497.610	800.000	0.088	0.293
-496.595	-50.071	-0.175	0.083
-495.581	800.000	-0.079	0.257
-494.566	-200.000	-0.000	0.368
-493.551	-40.399	0.088	0.046
-492.537	48.708	0.254	0.238
-491.522	-150.000	-0.119	-0.009
-490.508	-142.603	0.130	-0.013
-489.493	321.840	-0.138	-0.262
-488.478	800.000	0.037	-0.140
-487.464	26.628	-0.289	0.242
-486.449	-200.000	-0.003	-0.232
-485.435	800.000	-0.090	-0.272
-484.420	155.651	0.064	0.089
-483.405	-6.565	-0.090	-0.061
-482.391	800.000	-0.066	0.224
-481.376	457.915	0.086	-0.191
-480.362	-200.000	-0.016	0.264
-479.347	-200.000	-0.080	0.401
-478.332	-96.823	0.238	-0.062
-477.318	800.000	0.019	-0.080
-476.303	-54.577	-0.187	-0.085
-475.289	111.341	0.128	0.154
-474.274	130.113	0.108	0.139
-473.259	-50.338	0.081	0.038
-472.245	-200.000	0.021	-0.116
-471.230	510.445	0.147	-0.342
-470.216	13.256	0.185	0.143
-469.201	150.056	0.079	0.108
-468.186	-200.000	-0.079	0.397
-467.172	-172.444	0.319	0.010
-466.157	602.299	-0.101	-0.250
-465.143	-142.973	-0.213	-0.021
-464.128	800.000	0.036	-0.118
-463.113	28.775	0.139	0.118
-462.099	-200.000	-0.004	-0.202
-461.084	164.262	0.189	-0.267
-460.070	-200.000	-0.067	-0.336
-459.055	800.000	-0.104	-0.340
-458.040	-200.000	0.012	0.056
-457.026	512.252	-0.116	0.269
-456.011	4.512	0.174	0.127
-454.997	-200.000	-0.013	-0.130
-453.982	16.061	0.043	0.034
-452.968	-46.656	-0.197	0.097
-451.953	7.040	0.099	0.074
-450.938	306.646	-0.052	0.097
-449.924	-200.000	0.010	-0.279
-448.909	-162.715	0.143	0.007
-447.895	-170.392	0.089	-0.003
-446.880	-200.000	-0.009	0.136
-445.865	319.719	-0.032	-0.060
-444.851	-110.906	-0.066	0.014
-443.836	333.428	0.076	0.147
-442.822	-7.967	-0.113	0.076
-441.807	235.264	-0.153	-0.251
-440.792	-67.980	0.186	-0.072
-439.778	-52.244	0.306	-0.142
-438.763	5.786	0.257	0.190
-437.749	486.378	-0.091	-0.207
-436.734	78.475	0.019	-0.020
-435.719	111.621	-0.018	0.022
-434.705	-62.503	0.055	0.023
-433.690	70.771	-0.205	-0.212
-432.676	137.723	-0.169	-0.221
-431.661	-61.620	0.202	-0.084
-430.646	36.029	-0.213	-0.187
-429.632	-108.076	-0.310	0.067
-428.617	-200.000	-0.022	-0.268
-427.603	149.306	0.109	0.147
-426.588	30.370	0.278	0.237
-425.573	-56.278	0.213	0.095
-424.559	-68.991	-0.087	-0.034
-423.544	135.514	0.149	0.193
-422.530	87.910	-0.054	0.060
-421.515	302.254	0.065	-0.119
-420.500	-200.000	-0.017	0.075
-419.486	-200.000	-0.028	0.136
-418.471	733.790	0.069	0.183
-417.457	94.634	-0.217	-0.246
-416.442	14.927	-0.248	-0.194
-415.428	-127.884	0.187	-0.027
-414.413	800.000	-0.149	0.484
-413.398	-200.000	0.258	-0.001
-412.384	204.057	-0.177	-0.273
-411.369	-200.000	-0.048	-0.297
-410.355	-8.756	0.150	0.100
-409.340	800.000	0.072	-0.198
-408.325	-44.022	0.226	-0.113
-407.311	-79.358	-0.383	0.129
-406.296	-191.508	-0.182	0.002
-405.282	-169.496	0.159	-0.006
-404.267	-168.077	-0.499	-0.019
-403.252	63.770	0.145	0.145
-402.238	-200.000	-0.000	-0.138
-401.223	-144.513	0.445	0.041
-400.209	-200.000	-0.016	-0.206
-399.194	228.985	0.102	-0.165
-398.179	77.075	0.141	-0.149
-397.165	-27.081	0.232	0.135
-396.150	800.000	-0.111	0.462
-395.136	800.000	0.102	-0.433
-394.121	35.878	0.156	-0.137
-393.106	-16.219	0.025	-0.016
-392.092	-200.000	-0.028	-0.134
-391.077	25.076	-0.115	-0.095
-390.063	297.199	0.202	0.369
-389.048	-83.982	-0.476	-0.151
-388.033	269.426	0.137	0.239
-387.019	-200.000	0.007	0.099
-386.004	343.803	-0.088	-0.172
-384.990	63.141	-0.056	0.056
-383.975	141.950	-0.116	-0.154
-382.960	-122.912	-0.143	0.023
-381.946	59.754	-0.088	0.086
-380.931	-145.335	-0.044	0.004
-379.917	38.451	-0.095	0.084
-378.902	-40.238	0.140	-0.072
-377.888	146.396	-0.149	0.199
-376.873	10.849	-0.069	-0.052
-375.858	77.899	0.156	0.165
-374.844	-37.015	0.156	-0.083
-373.829	-125.179	0.119	0.018
-372.815	146.085	-0.128	0.171
-371.800	7.759	-0.257	0.192
-370.785	800.000	0.130	0.411
-369.771	-200.000	-0.012	0.367
-368.756	-3.608	0.186	-0.128
-367.742	26.866	-0.165	-0.138
-366.727	-44.599	0.108	0.054
-365.712	-59.522	0.041	0.018
-364.698	-200.000	0.076	0.335
-363.683	-126.880	0.175	-0.026
-362.669	-200.000	-0.340	-0.000
-361.654	-200.000	0.000	-0.419
-360.639	-145.279	-0.382	0.034
-359.625	-111.804	-0.218	-0.044
-358.610	-129.503	-0.253	0.035
-357.596	-200.000	0.007	0.031
-356.581	800.000	-0.017	0.047
-355.566	12.932	-0.354	0.272
-354.552	177.897	-0.077	0.112
-353.537	-200.000	0.468	-0.002
-352.523	-6.773	0.077	-0.052
-351.508	182.448	0.129	0.189
-350.493	-110.285	-0.072	0.015
-349.479	4.969	0.259	-0.190
-348.464	397.853	-0.041	-0.086
-347.450	-20.714	0.273	-0.166
-346.435	109.146	0.333	0.396
-345.420	633.793	-0.096	0.243
-344.406	-173.839	0.076	-0.002
-343.391	35.229	0.174	0.152
-342.377	-124.030	-0.240	0.037
-341.362	-169.129	-0.154	0.006
-340.348	-44.579	-0.087	-0.043
-339.333	-200.000	-0.010	-0.072
-338.318	-200.000	-0.023	-0.167
-337.304	-200.000	0.262	0.001
-336.289	329.990	-0.176	0.336
-335.275	178.315	0.005	0.007
-334.260	401.126	0.159	-0.332
-333.245	-200.000	-0.022	-0.188
-332.231	-110.865	-0.416	-0.085
-331.216	35.340	-0.187	-0.163
-330.202	51.689	-0.051	0.048
-329.187	-74.814	0.184	0.066
-328.172	-200.000	-0.023	-0.299
-327.158	146.154	-0.161	-0.215
-326.143	-200.000	0.008	0.086
-325.129	317.623	-0.071	0.134
-324.114	574.481	-0.120	0.290
-323.099	-44.130	-0.301	0.150
-322.085	134.784	-0.049	0.063
-321.070	-80.481	0.284	-0.094
-320.056	-40.952	-0.149	0.076
-319.041	0.083	-0.127	0.090
-318.026	-200.000	0.000	-0.150
-317.012	-132.054	0.307	0.040
-315.997	489.771	0.130	0.296
-314.983	51.314	-0.150	-0.141
-313.968	11.172	-0.222	0.169
-312.953	-144.719	-0.091	0.008
-311.939	130.392	-0.114	0.145
-310.924	-200.000	0.005	0.034
-309.910	-114.641	0.367	0.070
-308.895	-200.000	-0.052	0.329
-307.880	-115.762	0.192	-0.036
-306.866	60.390	0.210	0.206
-305.851	-198.093	-0.303	0.002
-304.837	800.000	-0.038	0.134
-303.822	-51.439	0.082	-0.038
-302.807	8.608	0.055	-0.041
-301.793	-86.042	0.240	-0.074
-300.778	-92.288	-0.068	0.019
-299.764	-75.886	0.082	-0.029
-298.749	-63.209	-0.132	0.054
-297.735	-5.984	-0.159	-0.108
-296.720	-200.000	-0.024	0.138
-295.705	-200.000	0.002	0.223
-294.691	-52.567	0.107	-0.049
-293.676	800.000	-0.013	0.046
-292.662	-38.534	-0.191	-0.100
-291.647	-102.109	0.051	0.012
-290.632	-153.578	-0.256	0.018
-289.618	-12.467	-0.078	0.051
-288.603	-174.528	0.075	0.002
-287.589	31.111	0.238	0.203
-286.574	-65.332	0.066	0.026
-285.559	315.183	-0.129	-0.242
-284.545	-73.803	0.172	-0.062
-283.530	8.608	0.149	0.111
-282.516	-45.547	0.314	-0.154
-281.501	-74.196	0.364	-0.131
-280.486	-116.244	0.091	0.017
-279.472	-200.000	-0.008	0.403
-278.457	199.438	-0.087	0.132
-277.443	493.691	-0.088	-0.201
-276.428	557.723	-0.084	0.200
-275.413	180.220	-0.024	0.035
-274.399	33.769	0.336	0.290
-273.384	800.000	0.072	-0.213
-272.370	78.155	0.173	-0.183
-271.355	10.381	-0.206	-0.155
-270.340	-55.195	-0.367	0.164
-269.326	0.934	-0.109	-0.077
-268.311	129.125	-0.176	-0.223
-267.297	800.000	0.051	0.170
-266.282	800.000	0.034	0.145
-265.267	800.000	0.074	-0.256
-264.253	-200.000	0.013	-0.161
-263.238	621.328	0.035	-0.086
-262.224	-47.839	-0.255	0.122
-261.209	-51.219	-0.118	0.055
-260.195	126.597	0.026	-0.033
-259.180	-200.000	-0.020	-0.086
-258.165	-79.172	-0.264	0.089
-257.151	-200.000	-0.342	-0.001
-256.136	-200.000	-0.003	-0.071
-255.122	-67.197	0.252	0.098
-254.107	-99.656	-0.197	-0.049
-253.092	-171.035	-0.255	0.009
-252.078	-27.305	-0.174	0.100
-251.063	-49.264	-0.211	-0.100
-250.049	99.881	-0.091	-0.104
-249.034	76.491	0.113	0.119
-248.019	-106.948	-0.387	-0.085
-247.005	-181.193	-0.165	0.003
-245.990	800.000	-0.080	0.250
-244.976	126.369	0.120	0.150
-243.961	800.000	0.108	-0.313
-242.946	-104.528	-0.272	0.062
-241.932	26.343	0.218	-0.180
-240.917	-120.084	-0.472	-0.080
-239.903	-75.819	0.162	0.057
-238.888	800.000	0.047	-0.176
-237.873	31.041	-0.158	0.134
-236.859	800.000	-0.068	0.232
-235.844	63.056	-0.159	0.158
-234.830	-200.000	-0.045	-0.258
-233.815	294.649	-0.059	-0.107
-232.800	-79.277	-0.246	-0.083
-231.786	619.898	0.090	0.223
-230.771	-27.977	-0.264	-0.151
-229.757	97.847	-0.158	0.180
-228.742	800.000	0.076	0.325
-227.727	728.581	0.102	0.271
-226.713	-137.222	0.201	-0.023
-225.698	19.937	0.126	-0.100
-224.684	-200.000	0.018	-0.257
-223.669	-73.051	0.159	0.058
-222.655	-77.261	0.296	-0.102
-221.640	-200.000	0.015	0.211
-220.625	-42.980	-0.232	0.116
-219.611	171.438	0.246	0.349
-218.596	198.053	0.079	0.119
-217.582	185.239	-0.185	-0.271
-216.567	-200.000	0.028	0.213
-215.552	-164.446	0.070	0.003
-214.538	-200.000	0.047	-0.381
-213.523	-200.000	-0.010	-0.084
-212.509	-96.517	-0.241	0.063
-211.494	-200.000	0.031	-0.265
-210.479	-36.098	0.058	0.031
-209.465	51.403	0.060	-0.056
-208.450	-120.306	-0.285	0.048
-207.436	-200.000	-0.024	-0.175
-206.421	400.529	-0.137	0.283
-205.406	-200.000	-0.030	-0.164
-204.392	368.347	-0.078	-0.155
-203.377	66.730	-0.075	-0.076
-202.363	-31.630	0.156	-0.087
-201.348	-200.000	-0.009	-0.064
-200.333	58.784	0.124	0.121
-199.319	-200.000	0.016	0.384
-198.304	73.857	0.294	-0.304
-197.290	688.098	-0.087	0.226
-196.275	-165.492	0.127	-0.005
-195.260	-200.000	-0.071	-0.313
-194.246	607.991	0.097	-0.239
-193.231	73.751	-0.061	0.063
-192.217	-200.000	-0.019	0.138
-191.202	93.483	0.026	0.029
-190.187	-194.437	0.469	-0.004
-189.173	-6.127	0.251	-0.170
-188.158	-101.676	-0.047	0.011
-187.144	-200.000	0.006	-0.332
-186.129	-122.157	0.324	0.052
-185.114	-1.047	0.188	0.132
-184.100	-200.000	-0.020	-0.091
-183.085	-54.110	-0.091	0.041
-182.071	-200.000	0.026	0.199
-181.056	45.919	-0.095	-0.086
-180.042	800.000	-0.101	-0.301
-179.027	-81.089	0.263	0.086
-178.012	114.289	0.134	-0.161
-176.998	382.451	0.128	0.259
-175.983	-55.620	-0.201	-0.089
-174.969	3.402	0.109	0.079
-173.954	113.372	0.101	0.121
-172.939	-91.930	-0.120	0.034
-171.925	-88.046	-0.153	0.045
-170.910	-200.000	-0.014	0.170
-169.896	-200.000	-0.082	0.417
-168.881	214.005	0.188	-0.294
-167.866	68.715	0.090	-0.092
-166.852	473.317	-0.058	-0.130
-165.837	-21.377	-0.295	0.178
-164.823	-200.000	0.012	-0.128
-163.808	-200.000	-0.004	0.125
-162.793	193.073	-0.067	0.100
-161.779	18.111	0.098	0.077
-160.764	464.993	-0.134	0.296
-159.750	343.430	0.172	-0.333
-158.735	86.333	0.206	-0.224
-157.720	0.057	-0.118	0.083
-156.706	800.000	-0.084	-0.247
-155.691	88.791	0.290	-0.319
-154.677	76.332	-0.181	-0.189
-153.662	778.785	-0.044	0.120
-152.647	-26.663	0.120	-0.069
-151.633	76.913	-0.125	0.131
-150.618	161.034	0.179	0.247
-149.604	292.816	0.222	-0.399
-148.589	-200.000	0.089	-0.389
-147.574	-200.000	0.014	0.228
-146.560	-92.423	0.268	0.074
-145.545	689.387	0.139	0.359
-144.531	-115.534	-0.283	-0.052
-143.516	-3.939	-0.159	0.109
-142.502	88.589	-0.139	-0.152
-141.487	-6.531	0.130	0.087
-140.472	-164.256	-0.211	-0.010
-139.458	800.000	0.038	-0.125
-138.443	-91.940	0.235	-0.066
-137.429	35.554	-0.197	0.170
-136.414	356.242	-0.134	-0.262
-135.399	-200.000	-0.019	-0.248
-134.385	-178.252	-0.357	-0.008
-133.370	800.000	-0.036	-0.155
-132.356	-200.000	0.012	-0.222
-131.341	800.000	-0.133	0.382
-130.326	37.068	0.271	0.236
-129.312	-48.852	0.293	-0.138
-128.297	-94.227	0.288	0.078
-127.283	-200.000	-0.007	-0.196
-126.268	-0.622	0.037	-0.026
-125.253	-125.059	0.229	-0.035
-124.239	-59.765	0.198	-0.083
-123.224	-44.623	-0.106	0.052
-122.210	8.097	0.234	0.173
-121.195	177.026	0.219	0.314
-120.180	22.344	-0.038	-0.031
-119.166	-200.000	-0.011	-0.048
-118.151	157.714	0.082	0.112
-117.137	-200.000	0.026	-0.127
-116.122	-200.000	0.018	0.105
-115.107	106.582	-0.026	-0.030
-114.093	322.208	0.132	-0.248
-113.078	-15.310	-0.188	-0.118
-112.064	-200.000	0.027	-0.286
-111.049	-1.859	-0.247	-0.171
-110.034	-139.096	-0.296	-0.032
-109.020	426.402	0.028	-0.059
-108.005	800.000	-0.079	-0.284
-106.991	-200.000	0.031	-0.160
-105.976	800.000	0.132	0.544
-104.962	166.631	-0.173	0.242
-103.947	157.162	0.126	-0.172
-102.932	571.891	0.079	-0.189
-101.918	800.000	-0.111	0.311
-100.903	800.000	-0.030	-0.094
-99.889	252.840	-0.227	0.381
-98.874	-20.249	0.241	0.146
-97.859	-43.152	-0.190	-0.095
-96.845	-97.164	0.323	0.083
-95.830	81.364	-0.066	0.071
-94.816	192.309	-0.054	0.081
-93.801	420.542	-0.143	0.301
-92.786	800.000	-0.038	0.157
-91.772	-200.000	-0.020	0.222
-90.757	-126.640	0.227	0.033
-89.743	219.188	0.033	0.052
-88.728	-200.000	-0.034	0.212
-87.713	-200.000	-0.025	0.166
-86.699	800.000	0.076	0.247
-85.684	4.753	-0.026	0.019
-84.670	-29.237	-0.147	-0.083
-83.655	667.622	-0.056	0.142
-82.640	-143.104	0.236	0.022
-81.626	-200.000	-0.047	-0.350
-80.611	416.672	0.141	-0.297
-79.597	-15.668	-0.178	-0.112
-78.582	-75.874	0.189	0.066
-77.567	37.993	0.228	0.200
-76.553	130.138	0.031	-0.040
-75.538	-31.520	-0.085	-0.047
-74.524	-153.289	-0.168	0.012
-73.509	108.669	-0.429	0.504
-72.494	-200.000	-0.006	-0.045
-71.480	520.067	0.090	0.207
-70.465	-53.495	-0.285	0.128
-69.451	-158.105	0.359	-0.021
-68.436	-200.000	0.018	-0.086
-67.422	-101.846	-0.109	-0.026
-66.407	800.000	-0.058	0.211
-65.392	215.829	-0.110	0.172
-64.378	190.228	0.170	0.251
-63.363	-80.410	0.166	-0.054
-62.349	-172.050	0.373	-0.012
-61.334	19.609	-1.076	-0.851
-60.319	742.194	0.220	0.582
-59.305	800.000	-0.617	-1.683
-58.290	222.414	0.884	1.399
-57.276	800.000	0.469	1.457
-56.261	-200.000	117.110	637.475
-55.246	476.178	1550.957	3444.348
-54.232	170.195	2732.271	3841.688
-53.217	94.360	2337.357	2608.569
-52.203	32.932	2079.998	1770.273
-51.188	28.157	1995.769	1655.434
-50.173	26.873	1978.311	1629.363
-49.159	43.376	2039.194	1830.695
-48.144	42.361	2054.020	1834.654
-47.130	28.537	2012.298	1672.344
-46.115	26.408	2001.447	1643.928
-45.100	26.385	1998.682	1641.382
-44.086	26.349	1996.387	1639.105
-43.071	26.229	1993.732	1635.774
-42.057	26.226	1992.176	1634.407
-41.042	26.264	1989.597	1632.575
-40.027	26.309	1987.658	1631.320
-39.013	26.268	1986.516	1629.945
-37.998	26.298	1984.487	1628.493
-36.984	26.279	1982.205	1626.386
-35.969	26.286	1980.190	1624.726
-34.954	26.333	1978.614	1623.795
-33.940	26.345	1977.464	1622.891
-32.925	26.355	1975.900	1621.634
-31.911	26.429	1973.927	1620.612
-30.896	26.410	1972.444	1619.160
-29.881	26.437	1970.565	1617.796
-28.867	26.410	1969.265	1616.423
-27.852	26.474	1967.408	1615.410
-26.838	26.426	1965.590	1613.424
-25.823	26.456	1963.760	1612.119
-24.809	26.375	1961.963	1609.862
-23.794	26.379	1960.129	1608.325
-22.779	26.398	1958.390	1607.006
-21.765	26.472	1956.968	1606.437
-20.750	26.411	1955.456	1604.583
-19.736	26.385	1953.687	1602.839
-18.721	26.449	1951.624	1601.654
-17.706	26.392	1950.230	1599.941
-16.692	26.339	1948.715	1598.164
-15.677	26.400	1947.392	1597.552
-14.663	26.386	1945.849	1596.101
-13.648	26.370	1944.870	1595.094
-12.633	26.431	1943.123	1594.137
-11.619	26.362	1941.793	1592.371
-10.604	26.373	1940.776	1591.578
-9.590	26.354	1939.373	1590.192
-8.575	26.364	1937.925	1589.035
-7.560	26.355	1936.919	1588.068
-6.546	26.431	1935.318	1587.357
-5.531	26.359	1934.299	1585.822
-4.517	26.350	1933.125	1584.721
-3.502	26.367	1932.079	1583.953
-2.487	26.285	1931.082	1582.351
-1.473	26.434	1929.590	1582.366
-0.458	26.399	1924.689	1577.980
0.556	27.111	1904.102	1548.616
1.571	22.657	1884.436	1494.819
2.586	18.720	1907.779	1479.350
3.600	17.659	1943.513	1497.603
4.615	17.313	1935.721	1488.442
5.629	13.361	1834.519	1377.655
6.644	6.619	1722.331	1240.421
7.659	3.632	1690.172	1194.074
8.673	3.431	1687.215	1190.332
9.688	3.428	1685.916	1189.285
10.702	3.374	1684.284	1187.614
11.717	3.426	1681.409	1185.881
12.731	3.769	1679.842	1187.305
13.746	8.330	1690.605	1230.005
14.761	15.756	1707.166	1299.519
15.775	19.825	1713.777	1335.925
16.790	20.212	1713.219	1338.361
17.804	19.290	1710.221	1328.791
18.819	18.279	1707.205	1318.548
19.834	17.689	1704.871	1312.092
20.848	17.480	1703.177	1309.064
21.863	17.323	1701.998	1306.833
22.877	17.106	1700.374	1303.803
23.892	16.983	1699.251	1301.888
24.907	16.767	1698.635	1299.642
25.921	16.821	1696.743	1298.491
26.936	16.815	1695.778	1297.589
27.950	16.788	1695.239	1296.855
28.965	16.782	1695.062	1296.559
29.980	16.843	1694.344	1296.366
30.994	16.947	1693.034	1296.045
32.009	17.083	1691.959	1296.141
33.023	17.097	1691.208	1295.557
34.038	17.207	1689.776	1295.185
35.053	17.067	1689.140	1293.516
36.067	17.024	1687.399	1291.744
37.082	16.976	1686.242	1290.378
38.096	16.919	1685.618	1289.351
39.111	17.038	1684.315	1289.148
40.126	17.071	1683.997	1289.042
41.140	17.103	1682.280	1287.856
42.155	16.960	1681.024	1285.692
43.169	16.741	1679.877	1283.043
44.184	16.627	1678.792	1281.237
45.199	16.683	1677.080	1280.245
46.213	16.540	1676.448	1278.569
47.228	16.713	1674.980	1278.636
48.242	16.861	1673.444	1278.467
49.257	16.962	1673.127	1278.873
50.271	16.895	1671.801	1277.243
51.286	16.877	1670.493	1275.998
52.301	16.947	1668.660	1275.007
53.315	16.952	1667.702	1274.199
54.330	16.959	1665.875	1272.750
55.344	16.724	1664.677	1269.955
56.359	16.684	1662.491	1267.879
57.374	16.756	1661.755	1267.740
58.388	16.765	1659.938	1266.314
59.403	16.663	1659.029	1264.741
60.417	16.651	1657.577	1263.439
61.432	16.651	1656.739	1262.683
62.447	16.638	1655.900	1261.834
63.461	16.515	1654.768	1259.946
64.476	16.516	1653.596	1258.950
65.490	16.545	1651.874	1257.746
66.505	16.480	1651.254	1256.681
67.520	16.528	1650.296	1256.189
68.534	16.569	1648.835	1255.274
69.549	16.548	1648.225	1254.539
70.563	16.605	1647.021	1253.937
71.578	16.559	1645.489	1252.319
72.593	16.412	1644.108	1250.074
73.607	16.314	1643.754	1248.965
74.622	16.305	1642.439	1247.790
75.636	16.333	1641.249	1246.979
76.651	16.380	1640.629	1246.750
77.666	16.450	1639.702	1246.452
78.680	16.448	1638.736	1245.587
79.695	16.415	1638.378	1244.961
80.709	16.425	1637.698	1244.410
81.724	16.610	1636.447	1244.711
82.739	16.704	1635.308	1244.424
83.753	16.724	1634.952	1244.195
84.768	16.816	1633.726	1243.826
85.782	16.918	1633.087	1243.978
86.797	16.992	1632.096	1243.655
87.812	17.017	1631.660	1243.395
88.826	16.981	1630.454	1242.105
89.841	16.901	1629.362	1240.575
90.855	16.943	1628.223	1239.903
91.870	16.996	1627.345	1239.513
92.884	17.144	1625.474	1239.061
93.899	17.069	1625.226	1238.215
94.914	17.041	1624.082	1237.030
95.928	17.085	1622.709	1236.192
96.943	17.054	1621.539	1234.965
97.957	17.088	1619.959	1233.900
98.972	16.939	1619.064	1232.030
99.987	16.986	1616.972	1230.668
101.001	16.987	1615.329	1229.314
102.016	17.011	1613.232	1227.783
103.030	17.050	1612.669	1227.528
104.045	17.043	1611.494	1226.480
105.060	16.956	1610.313	1224.843
106.074	16.989	1608.559	1223.637
107.089	16.850	1606.579	1221.019
108.103	16.672	1604.890	1218.346
109.118	16.484	1603.727	1216.007
110.133	16.410	1601.958	1214.026
111.147	16.472	1600.577	1213.319
112.162	16.572	1599.567	1213.162
113.176	16.656	1597.882	1212.374
114.191	16.629	1596.493	1211.024
115.206	16.684	1594.925	1210.122
116.220	16.699	1593.727	1209.209
117.235	16.584	1593.401	1208.031
118.249	16.652	1591.616	1207.056
119.264	16.584	1590.360	1205.512
120.279	16.670	1588.546	1204.648
121.293	16.588	1586.926	1202.729
122.308	16.604	1585.419	1201.593
123.322	16.483	1584.018	1199.568
124.337	16.459	1582.488	1198.134
125.352	16.445	1581.138	1196.903
126.366	16.391	1580.065	1195.603
127.381	16.441	1579.028	1195.067
128.395	16.417	1577.666	1193.762
129.410	16.451	1576.312	1192.871
130.424	16.410	1575.130	1191.581
131.439	16.522	1573.656	1191.150
132.454	16.560	1572.962	1190.788
133.468	16.646	1571.458	1190.146
134.483	16.642	1569.640	1188.635
135.497	16.704	1568.314	1187.964
136.512	16.646	1567.093	1186.529
137.527	16.777	1565.550	1186.170
138.541	16.739	1564.795	1185.228
139.556	16.757	1563.167	1184.017
140.570	16.860	1561.932	1183.697
141.585	16.826	1560.956	1182.614
142.600	16.895	1559.472	1181.866
143.614	17.049	1558.438	1182.052
144.629	17.119	1557.721	1181.886
145.643	17.149	1556.171	1180.816
146.658	17.151	1554.931	1179.784
147.673	17.131	1553.039	1178.107
148.687	16.952	1551.716	1175.759
149.702	16.862	1549.807	1173.584
150.716	16.849	1548.148	1172.132
151.731	16.722	1547.319	1170.528
152.746	16.799	1546.119	1170.047
153.760	16.840	1544.505	1169.004
154.775	16.951	1543.084	1168.588
155.789	16.940	1542.113	1167.675
156.804	16.978	1541.351	1167.254
157.819	17.055	1539.785	1166.493
158.833	16.992	1538.949	1165.329
159.848	17.128	1537.553	1165.098
160.862	17.198	1536.472	1164.655
161.877	17.192	1535.808	1164.013
162.892	17.093	1534.202	1162.015
163.906	16.890	1532.995	1159.606
164.921	16.875	1531.759	1158.465
165.935	16.975	1529.915	1157.653
166.950	16.952	1529.380	1156.985
167.964	16.999	1528.197	1156.315
168.979	16.982	1527.281	1155.400
169.994	16.955	1525.858	1154.035
171.008	17.018	1524.574	1153.393
172.023	16.981	1524.231	1152.779
173.037	17.077	1522.817	1152.259
174.052	17.250	1521.734	1152.508
175.067	17.258	1520.351	1151.414
176.081	17.107	1519.706	1149.803
177.096	17.075	1517.721	1147.983
178.110	16.998	1516.265	1146.264
179.125	16.878	1516.146	1145.260
180.140	16.882	1514.725	1144.114
181.154	17.016	1513.417	1143.926
182.169	17.012	1512.335	1142.977
183.183	17.141	1511.239	1142.920
184.198	17.217	1510.421	1142.713
185.213	17.323	1509.122	1142.335
186.227	17.216	1508.443	1141.007
187.242	17.295	1507.256	1140.537
188.256	17.378	1506.339	1140.296
189.271	17.294	1505.598	1139.073
190.286	17.346	1504.362	1138.385
191.300	17.410	1503.033	1137.703
192.315	17.114	1501.426	1134.413
193.329	16.995	1499.804	1132.289
194.344	16.964	1498.822	1131.244
195.359	17.038	1498.151	1131.128
196.373	17.123	1496.525	1130.371
197.388	17.171	1495.627	1129.912
198.402	17.301	1495.109	1130.283
199.417	17.402	1493.367	1129.537
200.432	17.451	1493.036	1129.508
201.446	17.569	1492.270	1129.614
202.461	17.716	1490.923	1129.470
203.475	17.654	1490.218	1128.426
204.490	17.723	1489.165	1127.985
205.504	17.652	1487.843	1126.411
206.519	17.540	1486.373	1124.464
207.534	17.473	1485.139	1122.986
208.548	17.430	1484.373	1122.021
209.563	17.425	1483.233	1121.032
210.577	17.497	1482.181	1120.609
211.592	17.448	1481.851	1119.940
212.607	17.452	1480.999	1119.223
213.621	17.581	1480.348	1119.477
214.636	17.690	1479.464	1119.426
215.650	17.496	1478.170	1117.075
216.665	17.610	1477.057	1116.881
217.680	17.649	1476.322	1116.482
218.694	17.791	1475.467	1116.667
219.709	17.785	1474.861	1116.071
220.723	17.853	1473.811	1115.621
221.738	17.793	1472.613	1114.224
222.753	17.778	1471.868	1113.464
223.767	17.817	1470.933	1112.911
224.782	17.711	1470.011	1111.429
225.796	17.819	1469.502	1111.644
226.811	17.941	1468.032	1111.232
227.826	18.008	1467.213	1110.946
228.840	17.865	1466.955	1109.724
229.855	17.768	1465.327	1107.763
230.869	17.766	1464.403	1106.954
231.884	17.773	1463.278	1106.055
232.899	17.754	1461.982	1104.850
233.913	17.674	1461.215	1103.654
234.928	17.697	1459.914	1102.724
235.942	17.542	1458.868	1100.834
236.957	17.584	1457.305	1099.830
237.972	17.593	1456.278	1099.014
238.986	17.609	1455.425	1098.378
240.001	17.639	1454.360	1097.671
241.015	17.627	1453.053	1096.511
242.030	17.725	1451.851	1096.138
243.045	17.792	1451.011	1095.832
244.059	17.797	1450.290	1095.224
245.074	17.815	1449.308	1094.502
246.088	17.893	1448.969	1094.646
247.103	17.880	1448.003	1093.741
248.117	17.995	1447.081	1093.684
249.132	17.939	1446.438	1092.742
250.147	18.077	1446.077	1093.256
251.161	18.226	1445.315	1093.534
252.176	18.420	1444.774	1094.265
253.190	18.473	1443.995	1093.922
254.205	18.491	1443.040	1093.214
255.220	18.511	1442.452	1092.799
256.234	18.659	1441.436	1092.874
257.249	18.581	1440.523	1091.589
258.263	18.600	1439.737	1091.017
259.278	18.678	1438.683	1090.617
260.293	18.478	1437.893	1088.652
261.307	18.604	1436.619	1088.393
262.322	18.586	1436.557	1088.134
263.336	18.671	1435.015	1087.408
264.351	18.643	1434.208	1086.526
265.366	18.653	1433.359	1085.847
266.380	18.738	1432.561	1085.687
267.395	18.700	1431.507	1084.547
268.409	18.692	1430.650	1083.756
269.424	18.668	1429.727	1082.809
270.439	18.557	1428.379	1080.993
271.453	18.569	1427.615	1080.390
272.468	18.545	1426.597	1079.374
273.482	18.589	1425.446	1078.686
274.497	18.536	1424.418	1077.477
275.512	18.407	1424.203	1076.409
276.526	18.519	1423.057	1076.154
277.541	18.627	1421.670	1075.685
278.555	18.523	1421.243	1074.613
279.570	18.634	1419.900	1074.200
280.585	18.698	1419.039	1073.857
281.599	18.704	1418.762	1073.589
282.614	18.734	1418.032	1073.128
283.628	18.834	1416.317	1072.359
284.643	18.701	1415.399	1070.737
285.657	18.645	1414.172	1069.369
286.672	18.635	1413.429	1068.649
287.687	18.705	1412.626	1068.383
288.701	18.658	1411.647	1067.256
289.716	18.756	1410.724	1067.072
290.730	18.749	1409.805	1066.238
291.745	18.699	1409.129	1065.325
292.760	18.811	1408.030	1065.093
293.774	18.829	1406.770	1064.154
294.789	18.880	1406.019	1063.811
295.803	18.934	1405.371	1063.557
296.818	18.913	1404.891	1062.975
297.833	18.913	1403.138	1061.551
298.847	18.785	1402.230	1059.981
299.862	18.856	1401.292	1059.614
300.876	18.825	1400.152	1058.468
301.891	18.874	1399.442	1058.139
302.906	18.859	1398.959	1057.591
303.920	19.013	1398.297	1057.942
304.935	19.037	1397.686	1057.535
305.949	19.183	1396.720	1057.609
306.964	19.227	1395.936	1057.191
307.979	19.311	1394.861	1056.799
308.993	19.276	1393.625	1055.554
310.008	19.204	1392.772	1054.374
311.022	19.150	1392.177	1053.501
312.037	19.168	1390.739	1052.424
313.052	19.363	1389.598	1052.658
314.066	19.214	1388.522	1050.840
315.081	19.026	1387.752	1049.024
316.095	18.940	1386.642	1047.568
317.110	18.925	1385.783	1046.730
318.125	18.930	1384.224	1045.491
319.139	18.995	1383.588	1045.316
320.154	19.038	1382.443	1044.619
321.168	18.948	1381.517	1043.279
322.183	19.030	1380.150	1042.654
323.197	19.046	1379.252	1041.976
324.212	19.089	1378.444	1041.535
325.227	19.232	1377.523	1041.614
326.241	19.174	1376.805	1040.630
327.256	19.132	1376.029	1039.695
328.270	19.081	1375.539	1038.924
329.285	19.120	1374.434	1038.236
330.300	19.071	1373.845	1037.403
331.314	19.093	1372.567	1036.479
332.329	19.081	1371.936	1035.835
333.343	19.092	1370.592	1034.797
334.358	19.149	1369.908	1034.533
335.373	19.268	1369.221	1034.635
336.387	19.291	1368.534	1034.163
337.402	19.269	1367.995	1033.533
338.416	19.311	1367.475	1033.300
339.431	19.409	1366.606	1033.140
340.446	19.472	1365.854	1032.858
341.460	19.531	1364.444	1032.052
342.475	19.587	1363.899	1031.883
343.489	19.644	1363.484	1031.818
344.504	19.609	1362.508	1030.780
345.519	19.743	1361.050	1030.381
346.533	19.843	1359.900	1030.017
347.548	19.736	1359.485	1028.977
348.562	19.838	1358.493	1028.737
349.577	19.819	1358.151	1028.276
350.592	19.832	1356.902	1027.319
351.606	19.619	1356.127	1025.377
352.621	19.564	1354.876	1024.014
353.635	19.495	1353.577	1022.532
354.650	19.500	1352.778	1021.867
355.665	19.467	1351.957	1020.959
356.679	19.447	1350.874	1019.934
357.694	19.629	1349.420	1019.822
358.708	19.599	1348.980	1019.220
359.723	19.685	1347.726	1018.688
360.738	19.833	1346.242	1018.348
361.752	19.758	1345.099	1016.952
362.767	19.750	1344.408	1016.296
363.781	19.739	1343.707	1015.608
364.796	19.798	1342.892	1015.250
365.810	19.708	1342.366	1014.234
366.825	19.909	1341.766	1014.867
367.840	19.981	1341.095	1014.696
368.854	20.094	1340.287	1014.653
369.869	20.137	1339.791	1014.442
370.883	20.123	1339.398	1013.970
371.898	20.069	1338.633	1012.987
372.913	20.033	1337.267	1011.655
373.927	19.881	1336.841	1010.355
374.942	20.029	1335.670	1010.244
375.956	20.072	1335.090	1009.969
376.971	20.193	1334.152	1009.871
377.986	20.118	1333.215	1008.638
379.000	20.155	1332.570	1008.275
380.015	20.160	1331.649	1007.521
381.029	20.280	1330.941	1007.589
382.044	20.205	1330.480	1006.719
383.059	20.388	1329.786	1007.162
384.073	20.435	1328.914	1006.686
385.088	20.253	1328.799	1005.459
386.102	20.270	1328.102	1004.937
387.117	20.332	1326.871	1004.279
388.132	20.268	1325.853	1003.048
389.146	20.213	1324.619	1001.709
390.161	20.120	1324.444	1000.950
391.175	20.155	1323.634	1000.448
392.190	20.106	1322.980	999.585
393.205	20.209	1321.730	999.144
394.219	20.240	1320.918	998.622
395.234	20.384	1319.529	998.313
396.248	20.393	1317.714	996.904
397.263	20.270	1316.757	995.383
398.278	20.275	1315.596	994.449
399.292	20.216	1314.438	993.148
400.307	20.208	1312.622	991.642
401.321	20.079	1312.357	990.615
402.336	20.005	1311.536	989.481
403.350	20.026	1310.505	988.737
404.365	20.112	1309.342	988.263
405.380	20.151	1308.329	987.637
406.394	20.303	1307.431	987.734
407.409	20.324	1307.045	987.478
408.423	20.366	1306.034	986.865
409.438	20.452	1305.729	987.034
410.453	20.551	1304.684	986.719
411.467	20.514	1304.526	986.302
412.482	20.615	1303.833	986.262
413.496	20.683	1303.294	986.152
414.511	20.779	1302.163	985.756
415.526	20.605	1301.954	984.523
416.540	20.757	1301.247	984.762
417.555	20.810	1300.354	984.298
418.569	20.893	1299.598	984.110
419.584	20.899	1299.191	983.746
420.599	20.730	1298.947	982.523
421.613	145.535	1435.957	1796.573
422.628	140.773	1455.867	1796.655
