DTS Sentinel unit serial number:	SN413079Multiplexer serial number:	ORYXHardware model number:	OX4-SRSoftware version number:	ORYX F/W v4.00 Oryx Data Collector v3.7.2.0data status	okinstallation	princeton_trtdifferential loss correction	single-endedforward channel	channel 4reverse channel	N/Adate	2019/09/18time	04:25:35forward acquisition time	60.00reverse acquisition time	0.00gamma	496.2192k internal	0.2332k external	0.2332temperature offset calibration	0.9996default loss term (dB/km)	0.3790temperature slope calibration	1.0000multiplexer offset coefficient	1.0000multiplexer slope coefficient	1.0000fibre end	0.00T internal ref (°C)	23.37T ext. ref 1 (°C)	0.18T ext. ref 2 (°C)	17.51length (m)	temperature (°C)	Stokes	anti-Stokes-747.200	-200.000	0.045	0.421
-746.185	134.837	0.271	0.354
-745.171	-200.000	-0.001	-0.014
-744.156	-11.026	-0.450	0.299
-743.142	-105.649	0.262	0.060
-742.127	16.335	-0.120	0.095
-741.112	82.118	0.223	-0.244
-740.098	-79.249	-0.154	-0.052
-739.083	147.151	-0.046	0.062
-738.069	491.912	-0.087	-0.201
-737.054	-200.000	-0.011	0.127
-736.039	44.820	0.226	-0.209
-735.025	789.060	0.013	0.036
-734.010	595.367	-0.060	-0.149
-732.996	-42.650	-0.043	0.022
-731.981	-200.000	0.001	-0.079
-730.966	-200.000	0.020	-0.140
-729.952	-71.606	-0.349	0.131
-728.937	-30.091	-0.216	-0.123
-727.923	139.805	0.043	0.057
-726.908	-200.000	0.000	0.123
-725.894	-200.000	-0.022	-0.329
-724.879	800.000	-0.088	-0.304
-723.864	-111.352	-0.134	-0.028
-722.850	800.000	0.111	-0.389
-721.835	-39.108	0.204	-0.108
-720.821	32.829	-0.051	-0.045
-719.806	-89.899	-0.193	0.057
-718.791	-200.000	-0.008	0.156
-717.777	-128.637	-0.182	-0.026
-716.762	369.474	0.039	0.079
-715.748	-54.550	-0.272	0.124
-714.733	421.935	-0.067	-0.145
-713.718	-154.667	-0.554	0.037
-712.704	-88.069	0.270	-0.082
-711.689	200.495	0.335	-0.517
-710.675	-117.732	0.038	-0.007
-709.660	800.000	0.030	-0.084
-708.645	65.136	0.088	-0.090
-707.631	471.002	-0.091	-0.206
-706.616	-200.000	-0.030	-0.151
-705.602	-119.103	-0.313	-0.055
-704.587	-107.410	-0.284	-0.063
-703.572	-0.601	-0.076	0.054
-702.558	-163.691	-0.122	0.006
-701.543	190.265	0.201	-0.303
-700.529	-47.276	0.103	0.050
-699.514	397.941	-0.107	-0.224
-698.499	-200.000	0.000	0.193
-697.485	-146.493	-0.542	0.047
-696.470	800.000	-0.033	0.136
-695.456	-200.000	-0.047	0.212
-694.441	-74.325	0.252	-0.091
-693.426	800.000	-0.083	-0.231
-692.412	-9.634	0.287	0.192
-691.397	800.000	0.117	0.425
-690.383	800.000	-0.085	-0.251
-689.368	-200.000	-0.006	0.124
-688.354	-77.766	0.144	0.050
-687.339	800.000	0.060	0.213
-686.324	-93.945	-0.103	0.028
-685.310	320.284	-0.111	-0.212
-684.295	800.000	-0.068	0.229
-683.281	-18.692	0.133	0.083
-682.266	800.000	-0.014	0.041
-681.251	800.000	-0.138	-0.405
-680.237	220.646	-0.105	0.168
-679.222	-70.321	0.182	-0.069
-678.208	-181.557	-0.449	-0.009
-677.193	116.590	0.210	-0.259
-676.178	-153.116	0.308	0.022
-675.164	-200.000	0.007	-0.094
-674.149	-93.252	-0.431	-0.120
-673.135	-131.038	-0.411	0.055
-672.120	-62.405	-0.094	0.039
-671.105	-200.000	-0.047	-0.259
-670.091	-200.000	0.031	-0.137
-669.076	152.485	-0.075	-0.103
-668.062	-200.000	-0.051	-0.451
-667.047	-47.527	-0.212	0.104
-666.032	-59.991	-0.155	0.066
-665.018	-109.712	-0.225	0.048
-664.003	-47.180	0.172	-0.084
-662.989	-10.935	-0.316	-0.209
-661.974	-115.537	0.217	0.041
-660.959	284.658	0.132	0.238
-659.945	526.991	-0.145	0.343
-658.930	-200.000	-0.026	0.170
-657.916	223.284	0.180	-0.292
-656.901	-7.889	0.055	-0.037
-655.886	-60.815	-0.359	0.152
-654.872	168.784	0.049	0.070
-653.857	800.000	-0.079	-0.227
-652.843	0.921	-0.255	-0.183
-651.828	6.954	-0.306	-0.228
-650.814	220.775	-0.106	-0.170
-649.799	52.959	0.188	0.181
-648.784	406.989	-0.134	0.284
-647.770	92.343	0.086	-0.097
-646.755	372.009	-0.180	-0.366
-645.741	52.844	-0.142	-0.136
-644.726	-48.166	-0.181	0.087
-643.711	-200.000	-0.029	0.200
-642.697	800.000	-0.075	-0.275
-641.682	-115.693	0.239	-0.045
-640.668	-146.991	0.223	0.019
-639.653	38.083	0.194	-0.173
-638.638	68.343	-0.165	-0.169
-637.624	-188.467	0.143	-0.002
-636.609	800.000	0.086	0.353
-635.595	229.002	-0.107	0.174
-634.580	-118.986	0.177	-0.031
-633.565	-200.000	0.007	0.098
-632.551	-77.001	-0.248	0.087
-631.536	170.305	0.091	0.131
-630.522	-200.000	-0.031	0.189
-629.507	382.756	0.047	0.098
-628.492	800.000	0.078	0.315
-627.478	-4.199	-0.149	0.103
-626.463	-65.427	0.165	0.066
-625.449	-200.000	-0.075	-0.368
-624.434	31.306	0.315	-0.271
-623.419	800.000	0.025	0.092
-622.405	86.299	-0.087	0.096
-621.390	-46.352	-0.271	0.133
-620.376	-163.813	-0.318	0.015
-619.361	143.620	-0.149	-0.198
-618.346	-125.213	0.116	0.018
-617.332	-32.724	0.194	0.108
-616.317	61.294	0.206	-0.204
-615.303	800.000	0.049	0.200
-614.288	-46.973	0.055	0.027
-613.273	77.138	-0.172	0.183
-612.259	-38.606	0.265	-0.140
-611.244	-124.679	-0.234	0.036
-610.230	70.781	-0.122	-0.126
-609.215	320.257	0.056	-0.107
-608.201	1.665	0.138	-0.100
-607.186	-200.000	0.021	-0.323
-606.171	-112.574	-0.232	0.046
-605.157	14.173	-0.189	-0.147
-604.142	-164.638	0.073	0.003
-603.128	800.000	-0.066	-0.284
-602.113	-30.430	0.082	-0.046
-601.098	367.879	-0.202	-0.407
-600.084	-49.412	-0.137	0.066
-599.069	634.957	-0.033	-0.084
-598.055	-28.156	-0.164	-0.095
-597.040	800.000	-0.085	-0.238
-596.025	-200.000	-0.019	-0.101
-595.011	-200.000	0.011	-0.177
-593.996	-200.000	-0.059	-0.311
-592.982	136.872	0.250	-0.326
-591.967	800.000	0.031	-0.096
-590.952	-140.712	0.184	-0.019
-589.938	-113.315	-0.075	-0.015
-588.923	9.354	0.060	-0.046
-587.909	-200.000	-0.016	0.263
-586.894	-200.000	-0.036	0.310
-585.879	-200.000	0.054	0.323
-584.865	-97.629	-0.299	0.077
-583.850	-91.470	-0.430	-0.123
-582.836	235.582	-0.153	0.252
-581.821	-113.964	0.104	0.020
-580.806	-83.879	-0.161	-0.051
-579.792	681.591	0.138	-0.360
-578.777	512.386	-0.096	-0.224
-577.763	98.645	-0.265	0.306
-576.748	238.106	0.175	-0.290
-575.733	68.864	-0.296	-0.304
-574.719	-200.000	-0.019	-0.085
-573.704	-200.000	-0.030	-0.193
-572.690	205.863	0.112	-0.174
-571.675	118.567	-0.088	-0.109
-570.661	-167.490	0.174	0.007
-569.646	-20.449	0.311	0.191
-568.631	155.068	0.266	0.365
-567.617	-143.564	0.122	0.012
-566.602	22.183	-0.182	0.149
-565.588	-142.392	0.182	0.018
-564.573	-28.316	-0.168	0.097
-563.558	-200.000	-0.016	0.165
-562.544	-108.774	0.173	0.037
-561.529	-200.000	0.002	0.066
-560.515	8.589	0.292	0.219
-559.500	-72.206	-0.097	-0.036
-558.485	-200.000	0.019	0.126
-557.471	424.590	0.087	0.188
-556.456	612.127	0.081	0.202
-555.442	-140.078	0.136	0.014
-554.427	2.524	-0.159	0.115
-553.412	136.693	0.249	-0.324
-552.398	-152.319	-0.371	0.027
-551.383	525.846	0.038	-0.089
-550.369	-29.397	-0.091	-0.052
-549.354	-157.187	0.133	0.008
-548.339	369.658	-0.137	0.277
-547.325	-200.000	0.030	0.181
-546.310	-200.000	-0.014	0.293
-545.296	177.678	0.173	0.252
-544.281	-200.000	0.035	0.215
-543.266	-115.011	-0.145	0.028
-542.252	-56.616	-0.331	0.146
-541.237	68.604	0.215	0.220
-540.223	-3.709	-0.209	0.145
-539.208	-147.098	0.116	-0.010
-538.193	-200.000	-0.005	0.038
-537.179	-200.000	-0.027	0.162
-536.164	-5.011	0.367	-0.252
-535.150	335.766	-0.073	-0.141
-534.135	309.955	-0.144	0.269
-533.121	-200.000	0.008	-0.490
-532.106	-200.000	-0.178	0.001
-531.091	-149.996	-0.541	0.042
-530.077	242.708	0.115	0.192
-529.062	178.733	-0.185	-0.269
-528.048	-128.012	0.122	-0.018
-527.033	24.542	-0.278	-0.230
-526.018	-200.000	0.035	0.381
-525.004	-54.529	-0.396	-0.179
-523.989	-132.281	0.293	-0.038
-522.975	-166.992	0.176	0.007
-521.960	-108.301	0.117	0.025
-520.945	-200.000	0.029	0.240
-519.931	-107.754	0.225	-0.049
-518.916	-200.000	-0.044	-0.251
-517.902	-51.076	0.095	0.044
-516.887	-109.782	-0.231	-0.048
-515.872	-200.000	-0.022	0.122
-514.858	-112.798	-0.102	0.020
-513.843	-200.000	0.044	-0.294
-512.829	-54.000	-0.051	-0.023
-511.814	800.000	0.071	-0.261
-510.799	105.696	-0.212	-0.250
-509.785	60.643	-0.254	-0.251
-508.770	-159.551	-0.277	0.015
-507.756	-106.105	0.229	-0.051
-506.741	108.552	0.057	0.067
-505.726	312.457	-0.146	-0.273
-504.712	-124.790	-0.380	-0.059
-503.697	37.774	0.094	-0.083
-502.683	-200.000	-0.031	0.363
-501.668	-8.311	-0.105	-0.070
-500.653	-35.779	-0.281	0.152
-499.639	800.000	0.083	-0.288
-498.624	-93.676	-0.486	-0.134
-497.610	-48.881	0.232	-0.111
-496.595	-172.002	-0.089	0.003
-495.581	408.133	0.150	-0.316
-494.566	-56.507	0.281	0.124
-493.551	-15.088	-0.249	-0.159
-492.537	-133.161	-0.195	-0.025
-491.522	800.000	-0.033	0.128
-490.508	16.618	-0.211	-0.166
-489.493	389.220	-0.159	-0.329
-488.478	-53.140	-0.121	0.055
-487.464	26.440	0.162	-0.135
-486.449	-105.076	-0.383	0.087
-485.435	47.541	0.181	0.168
-484.420	142.825	-0.155	0.205
-483.405	-155.457	-0.265	0.017
-482.391	-57.791	0.062	0.027
-481.376	-200.000	-0.001	-0.134
-480.362	-166.840	-0.252	-0.010
-479.347	-200.000	-0.049	-0.222
-478.332	563.264	0.095	-0.230
-477.318	58.928	-0.049	-0.048
-476.303	-26.380	0.140	-0.082
-475.289	495.320	0.041	-0.094
-474.274	518.493	-0.045	0.105
-473.259	-95.120	0.217	0.058
-472.245	-200.000	-0.033	0.160
-471.230	142.940	0.162	-0.215
-470.216	-50.470	0.112	-0.052
-469.201	-128.147	-0.273	-0.039
-468.186	116.882	0.339	0.415
-467.172	257.861	0.144	0.246
-466.157	-91.232	-0.243	-0.069
-465.143	-30.782	0.246	-0.139
-464.128	-29.613	0.288	-0.164
-463.113	-148.324	-0.134	-0.011
-462.099	-110.474	-0.135	-0.028
-461.084	-76.404	-0.293	0.102
-460.070	-45.647	-0.242	0.119
-459.055	-9.431	-0.190	-0.126
-458.040	-58.942	-0.232	0.100
-457.026	-91.732	0.257	-0.073
-456.011	253.874	0.139	-0.236
-454.997	-66.256	-0.229	-0.091
-453.982	-171.482	0.613	-0.020
-452.968	26.263	0.247	0.205
-451.953	-39.509	-0.303	-0.158
-450.938	-34.531	0.236	0.128
-449.924	280.838	-0.159	0.283
-448.909	778.874	0.057	0.155
-447.895	-34.028	0.049	0.027
-446.880	292.625	-0.082	-0.149
-445.865	-19.232	-0.174	-0.107
-444.851	-93.885	0.088	0.024
-443.836	-73.266	-0.322	-0.117
-442.822	56.768	0.269	-0.261
-441.807	-88.754	0.275	-0.081
-440.792	7.346	-0.080	-0.060
-439.778	327.237	-0.040	-0.077
-438.763	-200.000	-0.015	-0.170
-437.749	-200.000	-0.011	-0.159
-436.734	-200.000	-0.036	0.212
-435.719	70.841	0.120	-0.124
-434.705	-115.197	0.182	0.034
-433.690	88.360	-0.085	-0.094
-432.676	-19.549	0.099	-0.061
-431.661	-183.327	0.225	0.004
-430.646	-145.903	-0.238	-0.021
-429.632	-158.015	-0.133	0.008
-428.617	79.599	0.089	0.095
-427.603	-37.095	-0.214	-0.114
-426.588	-95.933	-0.056	-0.015
-425.573	15.063	0.230	-0.179
-424.559	-200.000	0.006	0.217
-423.544	-16.476	0.258	-0.162
-422.530	40.511	-0.090	-0.081
-421.515	166.551	0.213	0.299
-420.500	-163.176	-0.199	0.009
-419.486	420.923	0.135	0.287
-418.471	-88.573	0.476	-0.141
-417.457	-110.603	0.317	-0.065
-416.442	-17.823	0.033	-0.020
-415.428	7.301	-0.094	0.069
-414.413	27.853	-0.221	-0.185
-413.398	-125.080	-0.363	0.055
-412.384	789.944	0.118	0.322
-411.369	-89.304	0.106	0.031
-410.355	-200.000	0.008	-0.415
-409.340	151.595	0.316	-0.427
-408.325	45.959	-0.143	-0.131
-407.311	-200.000	-0.011	-0.100
-406.296	137.205	0.246	-0.319
-405.282	-98.617	-0.147	0.037
-404.267	-200.000	0.012	0.126
-403.252	435.779	-0.092	-0.199
-402.238	-108.260	-0.174	-0.037
-401.223	-200.000	-0.021	0.102
-400.209	-200.000	0.018	0.363
-399.194	800.000	-0.085	0.338
-398.179	-15.928	-0.330	-0.209
-397.165	163.232	0.081	-0.113
-396.150	-5.831	0.181	0.123
-395.136	33.326	0.067	-0.057
-394.121	-57.056	-0.421	0.184
-393.106	-91.389	0.071	0.020
-392.092	-179.930	0.125	0.003
-391.077	-151.456	-0.126	-0.009
-390.063	800.000	0.063	0.233
-389.048	800.000	-0.009	-0.035
-388.033	44.140	0.171	-0.156
-387.019	-149.062	0.274	0.022
-386.004	-184.765	-0.271	0.004
-384.990	-120.141	0.352	0.060
-383.975	-155.896	0.263	0.017
-382.960	330.717	0.015	-0.029
-381.946	-110.462	-0.320	0.066
-380.931	56.068	0.074	0.071
-379.917	128.027	0.203	0.256
-378.902	-161.936	0.161	0.008
-377.888	-198.209	-0.310	-0.002
-376.873	43.307	-0.171	-0.155
-375.858	-91.818	0.094	0.026
-374.844	162.885	0.091	0.127
-373.829	-52.971	-0.167	0.076
-372.815	-51.172	0.130	0.061
-371.800	19.780	-0.239	0.191
-370.785	211.141	0.058	-0.091
-369.771	-200.000	0.025	0.116
-368.756	84.291	0.112	0.122
-367.742	-54.879	-0.104	-0.046
-366.727	114.317	0.114	0.138
-365.712	179.400	-0.054	-0.079
-364.698	-118.574	-0.380	-0.067
-363.683	-200.000	-0.045	-0.284
-362.669	-45.149	-0.085	0.042
-361.654	-48.967	-0.323	-0.153
-360.639	165.123	-0.132	-0.184
-359.625	-7.343	-0.144	0.096
-358.610	-38.458	0.133	-0.070
-357.596	43.960	0.081	0.073
-356.581	800.000	0.120	0.343
-355.566	57.518	-0.117	0.113
-354.552	-142.845	0.358	-0.035
-353.537	-20.472	-0.144	0.088
-352.523	-200.000	-0.000	0.142
-351.508	-200.000	0.052	0.263
-350.493	-58.986	-0.534	-0.228
-349.479	-74.757	0.181	-0.064
-348.464	-93.360	-0.304	-0.084
-347.450	-24.995	-0.205	0.120
-346.435	50.921	0.054	-0.051
-345.420	800.000	0.095	-0.316
-344.406	315.679	-0.083	0.156
-343.391	186.617	0.138	0.204
-342.377	-159.100	0.197	0.011
-341.362	378.917	0.103	0.210
-340.348	-200.000	-0.065	-0.343
-339.333	-200.000	-0.060	-0.280
-338.318	-200.000	-0.032	-0.502
-337.304	-135.489	0.219	0.026
-336.289	-86.754	-0.352	0.106
-335.275	365.113	0.043	-0.086
-334.260	-147.080	-0.150	-0.013
-333.245	-200.000	0.065	0.298
-332.231	84.822	-0.334	0.362
-331.216	-200.000	-0.001	0.056
-330.202	-74.628	0.117	-0.042
-329.187	517.280	0.195	0.451
-328.172	-46.992	-0.182	-0.088
-327.158	157.794	-0.103	0.141
-326.143	276.013	0.126	-0.222
-325.129	-143.346	0.128	0.012
-324.114	800.000	-0.062	0.211
-323.099	-125.242	-0.088	-0.013
-322.085	-179.463	0.394	-0.009
-321.070	28.070	-0.052	0.044
-320.056	3.984	0.097	-0.070
-319.041	-51.093	-0.279	0.129
-318.026	220.221	0.133	0.212
-317.012	-200.000	-0.010	0.151
-315.997	-3.964	0.112	-0.077
-314.983	20.127	-0.355	-0.283
-313.968	111.922	0.129	0.154
-312.953	-3.795	-0.128	-0.088
-311.939	-40.418	0.164	0.084
-310.924	119.601	0.148	-0.182
-309.910	142.367	0.088	0.116
-308.895	-6.674	0.143	0.096
-307.880	630.021	0.009	0.023
-306.866	800.000	0.067	-0.228
-305.851	440.047	-0.186	0.401
-304.837	800.000	0.052	-0.178
-303.822	28.210	-0.112	-0.093
-302.807	55.165	0.215	0.205
-301.793	-89.354	-0.206	0.060
-300.778	-137.308	0.352	-0.039
-299.764	39.858	-0.151	-0.134
-298.749	-15.847	-0.266	-0.168
-297.735	-200.000	-0.015	-0.069
-296.720	288.131	-0.086	0.154
-295.705	-40.108	0.326	-0.168
-294.691	-130.317	-0.208	0.028
-293.676	-135.846	-0.150	-0.017
-292.662	13.306	-0.237	0.181
-291.647	-200.000	-0.002	-0.161
-290.632	-65.590	-0.405	0.161
-289.618	33.124	-0.209	0.179
-288.603	-200.000	0.026	-0.328
-287.589	800.000	-0.024	-0.105
-286.574	800.000	0.103	-0.379
-285.559	50.700	-0.109	-0.102
-284.545	-200.000	0.008	-0.572
-283.530	-58.844	0.509	0.218
-282.516	-80.954	0.136	0.045
-281.501	263.062	-0.177	0.303
-280.486	-158.566	0.161	0.009
-279.472	-67.348	-0.018	-0.007
-278.457	-60.677	-0.089	-0.037
-277.443	319.939	0.184	0.346
-276.428	160.608	0.089	0.123
-275.413	-103.026	0.175	0.041
-274.399	-87.044	-0.048	-0.015
-273.384	-200.000	-0.069	0.329
-272.370	4.665	0.038	0.027
-271.355	800.000	-0.016	0.055
-270.340	800.000	0.048	-0.182
-269.326	98.840	0.126	-0.144
-268.311	-162.945	-0.214	-0.010
-267.297	118.156	-0.077	0.094
-266.282	143.883	0.010	-0.014
-265.267	-42.260	0.201	0.101
-264.253	-200.000	0.018	0.225
-263.238	-97.394	-0.119	0.030
-262.224	-144.831	0.358	-0.032
-261.209	-125.138	0.365	0.055
-260.195	-45.790	0.156	-0.076
-259.180	-43.674	0.442	0.220
-258.165	-156.051	0.169	-0.011
-257.151	420.671	0.073	-0.155
-256.136	-11.723	-0.139	0.090
-255.122	800.000	0.053	-0.212
-254.107	-61.519	-0.448	-0.186
-253.092	-200.000	0.016	-0.254
-252.078	53.494	0.100	0.095
-251.063	87.245	0.237	0.258
-250.049	800.000	-0.064	-0.182
-249.034	330.121	0.067	-0.127
-248.019	120.026	-0.149	-0.182
-247.005	-37.813	-0.132	-0.069
-245.990	-65.440	-0.405	0.160
-244.976	-200.000	-0.050	0.306
-243.961	341.260	-0.145	-0.280
-242.946	-47.423	-0.223	-0.107
-241.932	112.670	-0.004	0.004
-240.917	-200.000	-0.018	-0.476
-239.903	-161.649	0.153	0.008
-238.888	577.330	0.049	0.119
-237.873	-184.112	0.209	-0.003
-236.859	-200.000	0.005	0.202
-235.844	-114.947	-0.221	-0.041
-234.830	728.859	-0.046	0.120
-233.815	-55.643	0.467	0.206
-232.800	-79.175	-0.190	0.063
-231.786	-64.834	0.267	-0.107
-230.771	179.058	0.267	0.386
-229.757	-160.115	0.318	0.017
-228.742	255.876	0.103	0.174
-227.727	-19.596	0.172	-0.105
-226.713	-109.446	0.294	0.061
-225.698	24.804	-0.076	0.062
-224.684	134.307	-0.050	-0.065
-223.669	-111.444	0.063	0.013
-222.655	-113.483	-0.162	-0.031
-221.640	-200.000	0.018	0.105
-220.625	-15.736	0.364	-0.228
-219.611	-65.571	0.288	-0.114
-218.596	-34.712	-0.160	0.086
-217.582	100.232	-0.115	0.131
-216.567	226.143	0.204	0.326
-215.552	-132.696	-0.133	0.017
-214.538	-200.000	-0.001	-0.170
-213.523	66.254	-0.234	-0.234
-212.509	-133.694	-0.065	-0.008
-211.494	-116.833	0.336	-0.061
-210.479	24.413	-0.147	0.120
-209.465	-137.983	-0.036	0.004
-208.450	-98.018	0.245	0.062
-207.436	-200.000	0.062	0.280
-206.421	195.944	0.112	0.167
-205.406	800.000	-0.086	0.338
-204.392	-200.000	-0.038	-0.269
-203.377	-128.827	0.187	-0.026
-202.363	-56.521	0.212	-0.093
-201.348	800.000	-0.045	0.185
-200.333	-40.519	0.085	0.043
-199.319	74.781	0.236	-0.244
-198.304	216.386	-0.147	0.230
-197.290	20.081	-0.230	0.183
-196.275	-93.790	-0.320	-0.087
-195.260	-40.080	0.091	-0.047
-194.246	-87.621	0.058	0.017
-193.231	123.330	-0.025	0.030
-192.217	7.321	0.153	0.112
-191.202	84.496	0.160	-0.172
-190.187	-200.000	-0.041	-0.289
-189.173	-16.200	0.302	0.189
-188.158	338.086	0.290	0.555
-187.144	-200.000	0.054	0.394
-186.129	77.563	-0.200	-0.210
-185.114	624.037	-0.092	-0.228
-184.100	-49.581	-0.224	-0.105
-183.085	449.732	-0.085	0.185
-182.071	-115.437	0.230	-0.043
-181.056	800.000	0.068	-0.185
-180.042	-200.000	-0.030	-0.183
-179.027	-80.144	0.239	-0.079
-178.012	23.245	0.260	0.210
-176.998	40.971	0.121	0.107
-175.983	328.975	-0.114	0.216
-174.969	258.191	-0.062	0.105
-173.954	-33.885	0.095	-0.051
-172.939	187.679	-0.165	-0.243
-171.925	-43.231	-0.161	0.080
-170.910	-16.106	0.033	0.020
-169.896	714.978	0.071	-0.185
-168.881	263.838	0.116	0.198
-167.866	-14.082	0.104	-0.066
-166.852	800.000	0.026	0.108
-165.837	491.781	-0.107	-0.241
-164.823	-200.000	-0.012	-0.262
-163.808	185.380	0.170	0.248
-162.793	800.000	-0.115	0.330
-161.779	430.531	0.121	-0.257
-160.764	-34.743	-0.298	0.160
-159.750	-71.883	0.338	-0.124
-158.735	389.902	0.112	0.229
-157.720	800.000	-0.104	-0.351
-156.706	76.568	-0.202	0.211
-155.691	-200.000	-0.043	0.455
-154.677	-200.000	-0.005	0.096
-153.662	-200.000	0.003	0.018
-152.647	-136.659	-0.108	0.012
-151.633	800.000	0.091	-0.354
-150.618	218.349	0.109	0.171
-149.604	-137.018	0.118	-0.013
-148.589	-59.492	0.223	-0.094
-147.574	-200.000	0.047	-0.335
-146.560	-37.760	-0.164	-0.086
-145.545	55.892	0.135	0.128
-144.531	-103.644	-0.399	-0.092
-143.516	-152.692	0.190	0.013
-142.502	18.781	-0.248	-0.195
-141.487	-200.000	-0.034	-0.400
-140.472	800.000	0.056	0.238
-139.458	0.377	0.286	0.201
-138.443	-34.916	0.442	0.237
-137.429	-44.843	0.067	0.033
-136.414	136.464	-0.022	0.028
-135.399	-129.660	0.175	-0.024
-134.385	-200.000	-0.049	0.295
-133.370	-31.061	0.220	-0.122
-132.356	156.221	-0.114	-0.155
-131.341	-200.000	-0.042	-0.244
-130.326	-67.317	0.223	-0.086
-129.312	-200.000	0.061	0.334
-128.297	-92.344	-0.097	0.027
-127.283	82.525	0.071	-0.076
-126.268	56.935	0.048	-0.046
-125.253	34.677	0.253	0.217
-124.239	-163.785	-0.548	0.025
-123.224	800.000	-0.165	0.533
-122.210	-200.000	0.001	0.048
-121.195	19.496	0.202	-0.159
-120.180	-36.298	0.081	-0.043
-119.166	713.115	0.099	0.259
-118.151	454.919	0.073	0.160
-117.137	-5.275	-0.154	0.104
-116.122	-30.939	-0.087	0.048
-115.107	-131.539	-0.021	-0.003
-114.093	-77.972	0.400	0.136
-113.078	165.038	-0.261	-0.362
-112.064	800.000	-0.060	0.178
-111.049	293.718	0.127	0.227
-110.034	-62.607	0.080	0.033
-109.020	-200.000	-0.001	-0.088
-108.005	271.961	0.083	0.143
-106.991	48.709	0.237	-0.218
-105.976	-200.000	-0.024	0.151
-104.962	320.751	-0.142	-0.264
-103.947	-27.867	0.231	-0.131
-102.932	-101.882	0.221	0.052
-101.918	261.721	0.069	-0.118
-100.903	-168.864	0.400	0.015
-99.889	800.000	0.080	0.286
-98.874	-200.000	0.010	0.114
-97.859	625.151	0.102	0.252
-96.845	-50.640	0.067	0.031
-95.830	800.000	0.038	-0.107
-94.816	53.566	0.213	0.200
-93.801	-23.925	0.399	0.234
-92.786	-200.000	-0.028	-0.214
-91.772	-10.058	0.326	-0.212
-90.757	291.820	-0.157	-0.280
-89.743	-200.000	-0.017	-0.475
-88.728	-44.056	-0.192	0.095
-87.713	674.379	0.033	0.085
-86.699	196.250	-0.168	0.252
-85.684	-200.000	0.009	0.228
-84.670	-70.324	-0.143	-0.053
-83.655	148.793	-0.161	0.213
-82.640	-53.248	-0.211	-0.095
-81.626	800.000	0.066	0.192
-80.611	800.000	0.023	-0.086
-79.597	234.997	-0.095	-0.153
-78.582	67.922	0.161	-0.161
-77.567	-135.460	0.292	0.034
-76.553	501.105	-0.146	-0.329
-75.538	75.516	0.133	0.137
-74.524	-200.000	0.008	0.216
-73.509	-152.235	0.369	-0.026
-72.494	-56.891	-0.304	0.132
-71.480	181.331	-0.237	0.341
-70.465	18.310	0.351	-0.274
-69.451	434.950	-0.072	0.152
-68.436	-42.478	0.233	-0.117
-67.422	800.000	-0.082	-0.261
-66.407	-200.000	-0.012	0.214
-65.392	-2.853	0.127	0.087
-64.378	-86.056	0.011	0.003
-63.363	-133.785	0.280	-0.034
-62.349	-63.971	0.089	0.036
-61.334	160.467	-0.795	-1.086
-60.319	110.454	0.741	0.872
-59.305	311.626	-0.628	-1.154
-58.290	97.734	1.049	1.181
-57.276	402.686	0.744	1.532
-56.261	-200.000	123.703	640.806
-55.246	408.678	1561.412	3235.896
-54.232	140.810	2731.829	3534.989
-53.217	86.481	2341.853	2528.322
-52.203	29.817	2087.839	1741.309
-51.188	24.977	2003.488	1627.049
-50.173	24.014	1986.200	1604.271
-49.159	41.479	2058.845	1824.381
-48.144	39.965	2071.871	1821.905
-47.130	25.574	2023.283	1648.339
-46.115	23.400	2012.678	1619.785
-45.100	23.281	2009.932	1616.430
-44.086	23.260	2007.201	1613.975
-43.071	23.248	2005.130	1612.132
-42.057	23.144	2003.413	1609.743
-41.042	23.235	2001.236	1608.763
-40.027	23.279	1999.480	1607.680
-39.013	23.282	1997.035	1605.683
-37.998	23.283	1995.547	1604.431
-36.984	23.300	1994.124	1603.379
-35.969	23.286	1992.121	1601.572
-34.954	23.233	1990.367	1599.623
-33.940	23.348	1988.383	1599.002
-32.925	23.370	1986.851	1597.905
-31.911	23.389	1985.607	1597.015
-30.896	23.346	1983.922	1595.203
-29.881	23.317	1983.174	1594.284
-28.867	23.465	1980.913	1593.732
-27.852	23.397	1979.071	1591.573
-26.838	23.413	1977.518	1590.402
-25.823	23.387	1975.596	1588.560
-24.809	23.390	1973.944	1587.201
-23.794	23.421	1972.078	1585.918
-22.779	23.433	1970.175	1584.427
-21.765	23.492	1968.890	1583.858
-20.750	23.408	1967.383	1581.835
-19.736	23.382	1966.018	1580.437
-18.721	23.458	1964.204	1579.599
-17.706	23.386	1962.410	1577.454
-16.692	23.379	1960.945	1576.152
-15.677	23.398	1959.050	1574.730
-14.663	23.405	1957.840	1573.755
-13.648	23.423	1956.554	1572.823
-12.633	23.363	1955.842	1571.656
-11.619	23.365	1954.205	1570.292
-10.604	23.434	1952.651	1569.592
-9.590	23.371	1951.248	1567.849
-8.575	23.355	1950.435	1566.995
-7.560	23.425	1948.469	1565.970
-6.546	23.486	1947.418	1565.601
-5.531	23.397	1946.263	1563.823
-4.517	23.443	1944.661	1562.881
-3.502	23.362	1943.637	1561.279
-2.487	23.373	1942.466	1560.371
-1.473	23.411	1941.366	1559.767
-0.458	23.457	1936.091	1555.869
0.556	21.689	1916.155	1527.388
1.571	17.558	1897.670	1476.778
2.586	13.923	1920.885	1462.751
3.600	13.040	1956.529	1481.836
4.615	13.072	1949.634	1476.771
5.629	10.195	1848.589	1375.683
6.644	3.935	1734.735	1240.760
7.659	0.490	1701.966	1190.077
8.673	0.258	1698.813	1185.947
9.688	0.244	1697.496	1184.814
10.702	0.184	1696.585	1183.595
11.717	0.034	1692.649	1179.570
12.731	0.422	1691.776	1181.896
13.746	5.391	1701.102	1227.390
14.761	12.519	1716.455	1294.647
15.775	16.333	1722.111	1328.866
16.790	16.724	1722.263	1331.937
17.804	15.894	1718.682	1322.536
18.819	14.942	1715.627	1312.602
19.834	14.321	1713.767	1306.192
20.848	14.116	1711.936	1303.076
21.863	13.846	1710.679	1299.888
22.877	13.625	1708.916	1296.704
23.892	13.349	1707.718	1293.524
24.907	13.263	1706.198	1291.583
25.921	13.250	1704.965	1290.440
26.936	13.251	1703.743	1289.405
27.950	13.303	1703.266	1289.335
28.965	13.382	1702.315	1289.121
29.980	13.365	1701.635	1288.353
30.994	13.400	1700.888	1287.947
32.009	13.403	1699.815	1287.049
33.023	13.521	1699.060	1287.281
34.038	13.491	1697.993	1286.119
35.053	13.479	1696.797	1285.010
36.067	13.495	1696.034	1284.444
37.082	13.403	1695.063	1282.880
38.096	13.502	1693.938	1282.681
39.111	13.417	1693.483	1281.567
40.126	13.537	1692.242	1281.439
41.140	13.481	1691.272	1280.160
42.155	13.437	1689.808	1278.603
43.169	13.402	1688.626	1277.325
44.184	13.305	1687.412	1275.542
45.199	13.276	1685.769	1273.963
46.213	13.266	1685.068	1273.241
47.228	13.272	1684.011	1272.376
48.242	13.355	1682.368	1271.660
49.257	13.327	1681.678	1270.814
50.271	13.398	1680.106	1270.055
51.286	13.375	1678.425	1268.498
52.301	13.395	1676.826	1267.332
53.315	13.478	1675.534	1266.880
54.330	13.347	1674.247	1264.789
55.344	13.318	1672.416	1263.076
56.359	13.335	1671.096	1262.095
57.374	13.276	1670.093	1260.774
58.388	13.404	1668.762	1260.637
59.403	13.349	1667.602	1259.226
60.417	13.239	1666.333	1257.325
61.432	13.279	1664.657	1256.249
62.447	13.289	1663.654	1255.461
63.461	13.188	1662.751	1253.897
64.476	13.169	1661.774	1252.912
65.490	13.217	1660.109	1251.902
66.505	13.237	1659.339	1251.367
67.520	13.170	1658.038	1249.769
68.534	13.260	1657.042	1249.585
69.549	13.239	1655.268	1247.980
70.563	13.242	1654.339	1247.189
71.578	13.203	1652.840	1245.658
72.593	13.208	1652.288	1245.171
73.607	13.150	1650.659	1243.395
74.622	13.122	1649.913	1242.510
75.636	13.157	1648.588	1241.663
76.651	13.147	1647.624	1240.757
77.666	13.158	1646.837	1240.135
78.680	13.170	1645.437	1239.061
79.695	13.157	1644.750	1238.337
80.709	13.147	1643.486	1237.203
81.724	13.206	1642.685	1236.930
82.739	13.189	1642.277	1236.383
83.753	13.347	1640.574	1236.179
84.768	13.259	1639.530	1234.623
85.782	13.423	1638.699	1235.111
86.797	13.480	1637.941	1234.858
87.812	13.448	1636.545	1233.455
88.826	13.327	1635.964	1232.008
89.841	13.300	1634.926	1230.912
90.855	13.321	1633.952	1230.231
91.870	13.292	1632.762	1229.009
92.884	13.393	1631.859	1228.972
93.899	13.367	1630.901	1227.948
94.914	13.395	1629.840	1227.245
95.928	13.452	1628.380	1226.463
96.943	13.482	1626.745	1225.343
97.957	13.449	1625.607	1224.132
98.972	13.376	1624.323	1222.521
99.987	13.495	1622.160	1221.662
101.001	13.404	1620.902	1219.938
102.016	13.410	1619.491	1218.809
103.030	13.445	1617.905	1217.766
104.045	13.365	1617.061	1216.432
105.060	13.394	1615.618	1215.456
106.074	13.508	1613.805	1214.822
107.089	13.360	1612.452	1212.611
108.103	13.303	1611.281	1211.206
109.118	13.260	1609.174	1209.196
110.133	13.288	1608.091	1208.482
111.147	13.094	1607.198	1206.289
112.162	13.255	1605.216	1205.870
113.176	13.310	1603.766	1205.068
114.191	13.194	1603.074	1203.602
115.206	13.263	1601.649	1202.928
116.220	13.324	1599.915	1201.964
117.235	13.250	1599.026	1200.650
118.249	13.343	1597.242	1199.880
119.264	13.279	1596.095	1198.445
120.279	13.365	1594.736	1197.944
121.293	13.314	1592.913	1196.099
122.308	13.245	1591.660	1194.551
123.322	13.296	1589.997	1193.570
124.337	13.189	1588.883	1191.857
125.352	13.253	1587.690	1191.316
126.366	13.273	1586.271	1190.290
127.381	13.205	1584.713	1188.527
128.395	13.208	1583.797	1187.755
129.410	13.268	1582.257	1186.925
130.424	13.215	1580.883	1185.411
131.439	13.190	1579.919	1184.404
132.454	13.356	1578.065	1184.095
133.468	13.318	1576.639	1182.650
134.483	13.297	1575.877	1181.821
135.497	13.348	1574.054	1180.719
136.512	13.383	1572.842	1179.952
137.527	13.402	1571.218	1178.763
138.541	13.394	1569.405	1177.245
139.556	13.414	1568.434	1176.554
140.570	13.311	1567.254	1174.830
141.585	13.419	1565.691	1174.323
142.600	13.429	1564.526	1173.416
143.614	13.482	1563.509	1172.923
144.629	13.566	1562.157	1172.402
145.643	13.556	1560.649	1171.092
146.658	13.522	1559.402	1169.818
147.673	13.636	1557.154	1168.827
148.687	13.486	1556.341	1167.059
149.702	13.499	1554.823	1165.912
150.716	13.518	1553.023	1164.592
151.731	13.528	1551.562	1163.459
152.746	13.461	1550.271	1161.920
153.760	13.480	1548.695	1160.771
154.775	13.498	1547.771	1160.101
155.789	13.622	1546.174	1159.672
156.804	13.630	1545.091	1158.806
157.819	13.722	1543.794	1158.375
158.833	13.686	1542.597	1157.123
159.848	13.666	1541.620	1156.149
160.862	13.691	1540.380	1155.290
161.877	13.742	1538.758	1154.326
162.892	13.727	1537.622	1153.267
163.906	13.645	1536.244	1151.566
164.921	13.684	1535.118	1150.890
165.935	13.636	1533.865	1149.517
166.950	13.645	1532.980	1148.816
167.964	13.673	1531.541	1147.827
168.979	13.717	1530.591	1147.316
169.994	13.711	1529.530	1146.381
171.008	13.735	1528.784	1145.884
172.023	13.632	1527.444	1144.067
173.037	13.842	1526.168	1144.456
174.052	13.775	1525.454	1143.358
175.067	13.779	1524.404	1142.497
176.081	13.731	1523.125	1141.112
177.096	13.744	1521.889	1140.174
178.110	13.775	1520.387	1139.157
179.125	13.718	1519.422	1137.943
180.140	13.815	1518.003	1137.444
181.154	13.802	1517.515	1136.889
182.169	13.808	1516.094	1135.764
183.183	13.858	1514.793	1135.031
184.198	13.867	1513.872	1134.306
185.213	13.909	1512.609	1133.544
186.227	13.969	1511.633	1133.118
187.242	13.974	1510.644	1132.311
188.256	13.937	1509.493	1131.097
189.271	13.982	1508.061	1130.235
190.286	14.021	1507.053	1129.642
191.300	13.992	1506.083	1128.617
192.315	13.868	1504.578	1126.547
193.329	13.868	1503.085	1125.334
194.344	13.835	1501.913	1124.129
195.359	13.775	1501.351	1123.201
196.373	13.894	1500.159	1123.017
197.388	13.985	1498.715	1122.453
198.402	13.975	1497.753	1121.565
199.417	13.989	1496.583	1120.687
200.432	14.042	1495.578	1120.189
201.446	14.125	1494.278	1119.679
202.461	14.086	1493.108	1118.435
203.475	14.157	1492.008	1117.990
204.490	14.294	1490.732	1117.857
205.504	14.273	1489.868	1116.969
206.519	14.176	1488.888	1115.486
207.534	14.128	1487.943	1114.359
208.548	14.115	1486.714	1113.248
209.563	14.158	1485.379	1112.443
210.577	14.226	1484.755	1112.330
211.592	14.187	1483.729	1111.205
212.607	14.278	1482.782	1111.001
213.621	14.304	1481.808	1110.345
214.636	14.335	1481.153	1109.965
215.650	14.303	1480.038	1108.814
216.665	14.305	1479.014	1107.967
217.680	14.279	1478.316	1107.170
218.694	14.333	1477.808	1107.052
219.709	14.446	1476.763	1106.924
220.723	14.446	1475.537	1105.905
221.738	14.334	1475.036	1104.690
222.753	14.411	1473.745	1104.134
223.767	14.404	1473.002	1103.430
224.782	14.365	1472.287	1102.544
225.796	14.430	1471.015	1101.920
226.811	14.462	1469.951	1101.237
227.826	14.560	1468.990	1101.065
228.840	14.549	1468.106	1100.236
229.855	14.484	1467.656	1099.374
230.869	14.525	1466.699	1098.831
231.884	14.515	1465.030	1097.415
232.899	14.427	1464.206	1096.121
233.913	14.503	1462.784	1095.459
234.928	14.404	1462.075	1094.179
235.942	14.384	1461.076	1093.203
236.957	14.466	1459.716	1092.626
237.972	14.487	1458.445	1091.717
238.986	14.430	1457.424	1090.482
240.001	14.413	1456.739	1089.765
241.015	14.522	1455.116	1089.168
242.030	14.581	1453.832	1088.492
243.045	14.506	1453.026	1087.306
244.059	14.599	1452.073	1087.105
245.074	14.642	1451.182	1086.618
246.088	14.599	1450.965	1086.081
247.103	14.661	1450.217	1085.825
248.117	14.770	1449.039	1085.557
249.132	14.694	1448.309	1084.421
250.147	14.747	1447.437	1084.014
251.161	14.873	1446.903	1084.335
252.176	14.950	1445.984	1084.050
253.190	14.902	1445.422	1083.224
254.205	15.006	1444.297	1082.955
255.220	15.036	1443.288	1082.300
256.234	14.932	1442.653	1081.056
257.249	14.924	1442.102	1080.497
258.263	15.050	1441.184	1080.523
259.278	14.972	1440.108	1079.121
260.293	14.995	1438.592	1078.033
261.307	15.025	1438.216	1077.852
262.322	15.026	1437.734	1077.400
263.336	15.126	1436.843	1077.284
264.351	15.078	1435.798	1076.095
265.366	15.116	1435.015	1075.657
266.380	15.220	1433.654	1075.208
267.395	15.160	1432.782	1074.076
268.409	15.138	1432.224	1073.418
269.424	15.139	1430.509	1072.049
270.439	15.168	1429.939	1071.707
271.453	15.186	1429.176	1071.161
272.468	15.136	1428.104	1069.941
273.482	15.299	1427.219	1070.220
274.497	15.178	1426.343	1068.700
275.512	15.193	1425.722	1068.234
276.526	15.206	1424.642	1067.414
277.541	15.220	1423.605	1066.630
278.555	15.129	1422.776	1065.339
279.570	15.260	1421.884	1065.410
280.585	15.220	1421.065	1064.450
281.599	15.333	1420.138	1064.378
282.614	15.391	1418.943	1063.752
283.628	15.362	1417.708	1062.547
284.643	15.329	1416.803	1061.567
285.657	15.323	1415.991	1060.828
286.672	15.294	1415.010	1059.818
287.687	15.395	1414.005	1059.610
288.701	15.444	1413.285	1059.286
289.716	15.373	1412.243	1057.958
290.730	15.503	1411.686	1058.272
291.745	15.463	1410.485	1057.026
292.760	15.452	1409.108	1055.826
293.774	15.472	1407.990	1055.026
294.789	15.468	1407.426	1054.485
295.803	15.519	1406.897	1054.315
296.818	15.543	1405.892	1053.617
297.833	15.504	1404.786	1052.448
298.847	15.475	1403.967	1051.562
299.862	15.504	1402.978	1050.912
300.876	15.487	1401.765	1049.804
301.891	15.532	1401.369	1049.695
302.906	15.527	1400.094	1048.615
303.920	15.683	1399.109	1048.755
304.935	15.687	1398.634	1048.333
305.949	15.667	1397.583	1047.329
306.964	15.737	1396.710	1047.016
307.979	15.858	1395.522	1046.789
308.993	15.834	1394.460	1045.748
310.008	15.790	1394.200	1045.185
311.022	15.765	1393.145	1044.150
312.037	15.841	1391.980	1043.653
313.052	15.874	1390.875	1042.939
314.066	15.886	1389.988	1042.253
315.081	15.770	1389.036	1040.730
316.095	15.808	1388.227	1040.270
317.110	15.715	1387.166	1038.808
318.125	15.904	1385.950	1038.973
319.139	15.851	1385.061	1037.886
320.154	15.822	1383.982	1036.806
321.168	15.851	1382.987	1036.147
322.183	15.832	1382.104	1035.276
323.197	15.838	1381.427	1034.717
324.212	15.878	1380.834	1034.425
325.227	15.881	1379.666	1033.478
326.241	15.873	1379.011	1032.847
327.256	15.944	1378.198	1032.579
328.270	15.953	1376.894	1031.566
329.285	15.960	1376.306	1031.080
330.300	16.005	1375.291	1030.503
331.314	16.006	1373.970	1029.430
332.329	15.895	1373.484	1028.295
333.343	15.977	1372.512	1027.974
334.358	16.064	1371.515	1027.667
335.373	16.032	1370.838	1026.876
336.387	16.100	1370.083	1026.632
337.402	16.037	1369.514	1025.730
338.416	16.149	1368.553	1025.604
339.431	16.097	1368.228	1024.956
340.446	16.078	1367.776	1024.408
341.460	16.131	1366.726	1023.853
342.475	16.216	1365.317	1023.222
343.489	16.218	1364.585	1022.595
344.504	16.152	1363.639	1021.398
345.519	16.257	1362.847	1021.350
346.533	16.243	1361.783	1020.375
347.548	16.277	1360.963	1019.877
348.562	16.351	1360.089	1019.578
349.577	16.368	1359.240	1018.951
350.592	16.461	1357.967	1018.471
351.606	16.304	1357.748	1017.268
352.621	16.268	1356.608	1016.110
353.635	16.285	1355.135	1015.019
354.650	16.321	1354.437	1014.622
355.665	16.443	1353.118	1014.275
356.679	16.352	1352.333	1013.054
357.694	16.364	1351.529	1012.433
358.708	16.308	1350.251	1011.048
359.723	16.485	1348.775	1010.912
360.738	16.447	1347.959	1009.987
361.752	16.493	1347.200	1009.600
362.767	16.477	1346.186	1008.660
363.781	16.511	1345.231	1008.057
364.796	16.433	1344.465	1006.930
365.810	16.539	1343.802	1006.972
366.825	16.666	1342.533	1006.686
367.840	16.616	1342.262	1006.099
368.854	16.608	1341.944	1005.725
369.869	16.655	1341.415	1005.519
370.883	16.643	1340.402	1004.601
371.898	16.686	1339.741	1004.270
372.913	16.753	1338.301	1003.500
373.927	16.744	1337.508	1002.762
374.942	16.599	1337.089	1001.500
375.956	16.729	1336.147	1001.476
376.971	16.630	1335.922	1000.633
377.986	16.733	1334.666	1000.212
379.000	16.791	1333.610	999.671
380.015	16.777	1332.945	999.002
381.029	16.883	1331.747	998.643
382.044	16.881	1331.121	998.071
383.059	16.931	1330.693	997.958
384.073	16.975	1329.586	997.299
385.088	16.858	1329.816	996.694
386.102	16.842	1328.828	995.773
387.117	17.031	1327.820	996.035
388.132	16.939	1327.164	994.916
389.146	16.902	1326.236	993.917
390.161	16.916	1325.443	993.317
391.175	16.984	1324.636	993.020
392.190	16.867	1323.777	991.603
393.205	16.943	1322.878	991.290
394.219	17.017	1322.126	991.068
395.234	16.979	1320.893	989.838
396.248	17.078	1319.385	989.198
397.263	16.893	1318.528	987.390
398.278	17.151	1316.439	987.235
399.292	17.051	1315.658	985.981
400.307	17.025	1314.838	985.132
401.321	16.976	1313.362	983.652
402.336	17.054	1312.448	983.334
403.350	17.072	1311.508	982.645
404.365	16.978	1311.091	981.700
405.380	17.101	1309.941	981.466
406.394	17.110	1308.972	980.706
407.409	17.138	1308.370	980.330
408.423	17.122	1307.592	979.565
409.438	17.221	1307.182	979.744
410.453	17.257	1306.244	979.162
411.467	17.350	1305.415	978.986
412.482	17.243	1305.109	978.054
413.496	17.303	1304.605	977.936
414.511	17.308	1303.664	977.172
415.526	17.382	1302.951	976.978
416.540	17.418	1302.056	976.425
417.555	17.480	1301.346	976.163
418.569	17.413	1300.750	975.246
419.584	17.539	1299.917	975.260
420.599	17.449	1299.671	974.473
421.613	99.792	1361.121	1487.757
422.628	98.021	1369.983	1487.837
