DTS Sentinel unit serial number:	SN413079Multiplexer serial number:	ORYXHardware model number:	OX4-SRSoftware version number:	ORYX F/W v4.00 Oryx Data Collector v3.7.2.0data status	okinstallation	princeton_trtdifferential loss correction	single-endedforward channel	channel 4reverse channel	N/Adate	2019/09/12time	18:43:19forward acquisition time	15.00reverse acquisition time	0.00gamma	496.2192k internal	0.2307k external	0.2307temperature offset calibration	1.0133default loss term (dB/km)	0.3790temperature slope calibration	1.0000multiplexer offset coefficient	1.0000multiplexer slope coefficient	1.0000fibre end	0.00T internal ref (°C)	33.00T ext. ref 1 (°C)	2.96T ext. ref 2 (°C)	27.56length (m)	temperature (°C)	Stokes	anti-Stokes-747.200	800.000	-0.135	-0.471
-746.185	-147.107	0.261	-0.023
-745.171	27.694	0.286	-0.245
-744.156	124.338	-0.215	0.274
-743.142	-200.000	-0.018	-0.398
-742.127	32.211	-0.562	0.493
-741.112	63.443	0.276	0.282
-740.098	168.049	-0.129	-0.187
-739.083	704.546	-0.210	0.563
-738.069	598.179	0.372	0.938
-737.054	41.230	0.442	-0.406
-736.039	-81.192	-0.326	-0.110
-735.025	7.053	-0.386	0.293
-734.010	-189.401	-0.689	0.008
-732.996	-141.252	0.736	-0.076
-731.981	62.243	0.194	0.197
-730.966	483.757	0.324	0.750
-729.952	-104.214	0.466	-0.110
-728.937	800.000	-0.197	-0.828
-727.923	-114.770	-0.454	0.088
-726.908	-83.315	-0.691	-0.225
-725.894	437.054	0.261	0.578
-724.879	-200.000	0.023	-0.131
-723.864	800.000	-0.121	-0.427
-722.850	-61.035	0.466	-0.200
-721.835	609.869	-0.182	0.463
-720.821	354.929	-0.203	0.411
-719.806	691.005	-0.328	-0.873
-718.791	-102.499	-0.416	0.101
-717.777	791.398	0.233	-0.652
-716.762	-200.000	0.071	0.493
-715.748	-200.000	0.048	-0.394
-714.733	-200.000	-0.073	-0.430
-713.718	-33.736	0.315	-0.177
-712.704	-154.082	-0.532	-0.037
-711.689	-51.858	-0.107	0.050
-710.675	413.384	-0.165	-0.356
-709.660	0.721	0.433	-0.315
-708.645	800.000	0.102	0.325
-707.631	-31.904	0.294	0.167
-706.616	-0.403	0.122	0.088
-705.602	-144.089	0.660	0.063
-704.587	185.143	0.347	0.523
-703.572	-193.320	-0.554	-0.005
-702.558	64.480	0.572	0.586
-701.543	-88.636	-0.500	0.151
-700.529	-152.663	0.278	-0.020
-699.514	-59.949	-0.385	-0.167
-698.499	-62.877	0.712	-0.299
-697.485	800.000	0.116	-0.475
-696.470	-200.000	-0.016	-0.875
-695.456	-91.719	0.713	-0.206
-694.441	-200.000	0.000	-0.081
-693.426	696.328	-0.144	0.385
-692.412	-154.354	0.390	-0.027
-691.397	82.438	0.310	0.342
-690.383	-73.025	-0.776	0.289
-689.368	74.333	0.165	0.176
-688.354	-200.000	0.029	-0.186
-687.339	-95.173	0.150	0.041
-686.324	-77.733	-0.526	0.184
-685.310	-153.909	-0.770	0.053
-684.295	371.482	-0.372	-0.765
-683.281	-119.399	-0.916	0.162
-682.266	-115.766	0.426	0.081
-681.251	-200.000	-0.047	-0.373
-680.237	-200.000	-0.151	0.680
-679.222	-200.000	-0.095	-0.647
-678.208	16.703	-0.373	0.299
-677.193	304.650	-0.449	0.845
-676.178	180.854	-0.462	0.688
-675.164	158.122	0.401	-0.564
-674.149	54.345	0.654	0.638
-673.135	-75.556	0.452	0.163
-672.120	-49.737	-0.571	0.275
-671.105	255.223	-0.212	-0.368
-670.091	669.080	-0.219	-0.574
-669.076	-200.000	-0.107	0.864
-668.062	800.000	-0.167	-0.549
-667.047	-101.376	-0.717	-0.177
-666.032	-118.696	-0.435	0.078
-665.018	-200.000	0.002	0.016
-664.003	-50.704	0.435	-0.208
-662.989	-79.903	-0.951	0.324
-661.974	-117.939	-0.842	0.153
-660.959	-163.294	-0.410	0.020
-659.945	-194.606	0.555	-0.004
-658.930	-146.134	0.837	0.075
-657.916	800.000	0.324	1.006
-656.901	428.159	0.345	0.756
-655.886	-14.454	-0.391	0.255
-654.872	30.885	0.740	0.642
-653.857	207.375	-0.126	-0.199
-652.843	-141.096	-0.389	0.040
-651.828	800.000	0.246	-0.693
-650.814	-200.000	0.004	-0.520
-649.799	-47.634	0.490	-0.241
-648.784	-50.250	0.273	-0.131
-647.770	-6.975	-0.518	0.356
-646.755	-11.678	-0.451	-0.300
-645.741	37.327	0.402	-0.361
-644.726	-83.627	0.325	0.105
-643.711	262.828	-0.163	-0.286
-642.697	59.063	0.714	-0.711
-641.682	-7.485	-0.183	0.126
-640.668	-80.521	-0.085	-0.029
-639.653	-23.628	-1.021	0.620
-638.638	157.368	-0.087	0.122
-637.624	158.078	0.461	0.647
-636.609	-70.377	-0.408	-0.157
-635.595	243.785	0.165	-0.280
-634.580	84.961	0.249	-0.276
-633.565	-200.000	0.056	-0.851
-632.551	237.860	-0.251	-0.422
-631.536	-27.391	0.225	-0.133
-630.522	668.830	0.246	0.645
-629.507	-26.452	0.336	-0.199
-628.492	12.372	-0.458	-0.357
-627.478	-20.536	-0.107	-0.067
-626.463	-49.597	-0.326	-0.157
-625.449	-200.000	-0.102	0.509
-624.434	-55.822	0.453	0.205
-623.419	-133.542	0.357	-0.045
-622.405	-80.707	-0.489	-0.165
-621.390	32.979	0.631	-0.554
-620.376	-140.508	-0.741	0.078
-619.361	-136.878	-0.478	0.056
-618.346	72.317	0.321	-0.338
-617.332	503.927	-0.274	0.640
-616.317	-42.966	-0.312	0.160
-615.303	-45.427	-0.153	0.077
-614.288	550.398	-0.312	0.757
-613.273	77.303	0.311	-0.334
-612.259	25.930	0.449	-0.379
-611.244	-94.722	-0.530	-0.146
-610.230	-76.064	0.489	0.175
-609.215	3.906	0.114	0.084
-608.201	800.000	-0.231	-0.660
-607.186	800.000	-0.253	-0.739
-606.171	-87.526	-0.977	-0.299
-605.157	-200.000	0.028	-0.175
-604.142	-128.118	-0.639	-0.092
-603.128	800.000	-0.157	-0.680
-602.113	679.435	-0.246	-0.648
-601.098	-129.158	-0.226	0.032
-600.084	-95.589	1.057	-0.286
-599.069	149.633	-0.586	0.803
-598.055	800.000	0.002	0.009
-597.040	545.400	-0.157	0.380
-596.025	-200.000	0.117	-0.614
-595.011	117.153	-0.316	0.392
-593.996	-200.000	0.074	-0.346
-592.982	-97.834	0.184	-0.048
-591.967	384.101	0.318	-0.662
-590.952	75.867	-0.322	-0.344
-589.938	-182.297	-0.820	0.015
-588.923	39.371	0.428	-0.387
-587.909	-90.621	0.380	0.111
-586.894	-200.000	0.050	-0.523
-585.879	45.833	-0.571	0.534
-584.865	-200.000	-0.023	-0.908
-583.850	323.195	0.387	-0.745
-582.836	154.234	-0.214	0.297
-581.821	-109.454	0.236	-0.050
-580.806	-193.457	-0.547	-0.005
-579.792	28.744	-0.188	-0.161
-578.777	-64.092	-0.610	-0.251
-577.763	-79.891	0.219	-0.074
-576.748	-200.000	-0.397	0.000
-575.733	58.913	-0.463	0.460
-574.719	235.568	0.218	0.365
-573.704	-41.630	-0.238	0.124
-572.690	-200.000	0.155	-1.040
-571.675	800.000	-0.159	0.543
-570.661	800.000	0.053	-0.210
-569.646	-79.459	1.059	0.362
-568.631	129.518	-0.401	0.518
-567.617	-169.224	-0.936	-0.035
-566.602	30.510	0.916	0.791
-565.588	-54.437	-0.467	-0.214
-564.573	-200.000	0.001	-0.720
-563.558	-200.000	0.019	-0.407
-562.544	-35.815	-0.388	0.212
-561.529	-61.055	0.117	-0.050
-560.515	307.489	0.220	-0.414
-559.500	514.055	-0.239	0.563
-558.485	-7.365	-0.429	-0.293
-557.471	800.000	-0.196	0.552
-556.456	104.121	0.455	0.540
-555.442	178.833	0.435	0.642
-554.427	-124.755	-0.036	0.006
-553.412	24.429	0.352	0.293
-552.398	36.950	0.532	-0.475
-551.383	-130.707	-0.586	0.080
-550.369	-37.526	-0.443	0.238
-549.354	141.834	0.305	0.409
-548.339	-63.378	-0.161	-0.067
-547.325	123.538	0.432	-0.547
-546.310	-75.536	-0.143	0.051
-545.296	-13.456	0.405	-0.265
-544.281	52.126	0.278	-0.268
-543.266	800.000	0.180	0.520
-542.252	800.000	-0.142	0.577
-541.237	-76.806	0.456	-0.161
-540.223	-5.218	-0.322	-0.223
-539.208	-200.000	-0.004	0.338
-538.193	80.984	0.582	0.634
-537.179	333.557	0.282	-0.551
-536.164	184.857	0.128	-0.192
-535.150	174.550	0.062	0.091
-534.135	-162.067	-0.320	0.016
-533.121	743.656	-0.159	0.432
-532.106	800.000	0.262	-0.818
-531.091	-101.051	-0.675	-0.167
-530.077	-200.000	0.001	-0.325
-529.062	-45.810	0.386	0.192
-528.048	-136.992	0.975	0.113
-527.033	-200.000	-0.040	-0.208
-526.018	129.201	0.137	-0.176
-525.004	-1.623	0.841	-0.598
-523.989	-2.811	-0.531	0.375
-522.975	90.154	-0.379	0.427
-521.960	-200.000	-0.016	0.411
-520.945	-200.000	-0.065	-0.609
-519.931	-200.000	-0.005	0.070
-518.916	163.057	-0.612	-0.866
-517.902	-79.675	-0.129	-0.044
-516.887	70.047	0.678	0.706
-515.872	-200.000	0.002	0.149
-514.858	38.317	0.384	0.344
-513.843	-143.803	0.614	-0.058
-512.829	-200.000	-0.060	-0.748
-511.814	-67.389	-0.066	-0.026
-510.799	473.751	0.320	-0.727
-509.785	-69.651	-0.309	-0.119
-508.770	372.518	0.508	-1.039
-507.756	-70.439	0.766	-0.293
-506.741	-128.900	0.081	0.012
-505.726	-22.536	-0.646	0.394
-504.712	-200.000	-0.034	-0.986
-503.697	-125.417	-0.351	-0.054
-502.683	800.000	-0.039	0.151
-501.668	-99.567	-1.323	-0.335
-500.653	-115.368	0.712	0.135
-499.639	-94.030	-0.297	0.082
-498.624	-200.000	0.128	-0.663
-497.610	537.402	-0.100	-0.239
-496.595	-189.984	-0.888	-0.010
-495.581	43.092	0.675	-0.620
-494.566	38.414	-0.052	0.047
-493.551	9.582	0.450	0.343
-492.537	-41.205	0.332	-0.172
-491.522	-200.000	0.088	-0.644
-490.508	261.625	0.388	-0.677
-489.493	227.329	-0.268	-0.439
-488.478	-200.000	0.114	0.527
-487.464	81.439	0.582	-0.634
-486.449	-126.941	-0.815	0.121
-485.435	35.316	-0.671	-0.593
-484.420	-79.284	-0.192	0.065
-483.405	251.342	0.443	-0.759
-482.391	800.000	0.105	-0.432
-481.376	-200.000	-0.044	0.657
-480.362	-192.092	0.445	0.004
-479.347	-0.787	-0.053	-0.038
-478.332	-200.000	-0.073	0.993
-477.318	109.669	0.277	-0.334
-476.303	-55.370	0.442	-0.200
-475.289	-117.899	-0.383	-0.069
-474.274	548.198	0.120	0.289
-473.259	-200.000	0.035	-0.796
-472.245	-114.313	-0.560	0.108
-471.230	-41.979	0.323	-0.167
-470.216	528.017	-0.209	-0.496
-469.201	-93.131	0.581	0.163
-468.186	99.720	0.298	0.347
-467.172	97.354	-0.308	-0.355
-466.157	-40.972	-0.185	-0.096
-465.143	-150.094	-0.736	-0.057
-464.128	-142.330	1.018	0.101
-463.113	-0.209	-0.141	0.101
-462.099	-152.647	0.518	-0.037
-461.084	-200.000	-0.045	0.881
-460.070	-200.000	-0.018	-0.816
-459.055	155.362	-0.451	0.625
-458.040	144.928	-0.194	-0.261
-457.026	-187.712	-0.244	0.003
-456.011	268.855	0.345	0.608
-454.997	62.778	0.464	0.467
-453.982	800.000	-0.254	-0.996
-452.968	-200.000	-0.130	-0.755
-451.953	224.978	0.138	0.225
-450.938	133.205	-0.245	-0.318
-449.924	-102.407	-0.419	-0.101
-448.909	-200.000	0.011	-0.102
-447.895	-48.436	-0.738	-0.357
-446.880	-112.370	0.150	0.030
-445.865	281.080	0.335	0.603
-444.851	-200.000	0.021	0.278
-443.836	-58.503	0.287	0.125
-442.822	-42.782	0.280	0.143
-441.807	470.345	-0.229	0.517
-440.792	-19.140	0.838	0.523
-439.778	-38.788	0.305	-0.161
-438.763	-116.873	0.271	0.050
-437.749	19.473	0.229	-0.185
-436.734	-62.027	0.352	0.148
-435.719	-179.048	-0.184	-0.004
-434.705	800.000	-0.169	-0.601
-433.690	-26.979	-0.513	-0.301
-432.676	-93.980	-1.792	0.494
-431.661	-110.684	-0.503	0.104
-430.646	-135.138	-0.194	0.023
-429.632	-54.964	-0.190	0.086
-428.617	-111.868	0.393	0.080
-427.603	-200.000	0.087	0.891
-426.588	-48.024	-0.198	-0.096
-425.573	-200.000	0.109	1.007
-424.559	310.809	-0.188	0.354
-423.544	800.000	0.344	1.272
-422.530	782.719	-0.242	0.666
-421.515	179.974	0.155	-0.228
-420.500	73.609	0.242	0.255
-419.486	-97.075	0.423	-0.111
-418.471	-83.293	0.465	-0.150
-417.457	438.199	-0.074	0.162
-416.442	-200.000	-0.002	-0.013
-415.428	381.431	-0.667	1.374
-414.413	-200.000	0.027	-0.330
-413.398	199.639	0.305	-0.469
-412.384	800.000	-0.149	0.444
-411.369	117.959	0.239	0.296
-410.355	176.139	0.189	0.276
-409.340	81.730	-0.867	0.942
-408.325	-149.039	0.955	-0.077
-407.311	-69.094	-0.718	0.277
-406.296	-200.000	-0.035	-0.501
-405.282	-58.748	-0.550	0.239
-404.267	147.285	0.466	0.630
-403.252	-200.000	0.150	0.944
-402.238	189.414	-0.356	0.535
-401.223	800.000	-0.125	0.474
-400.209	172.319	0.404	0.583
-399.194	-200.000	0.079	0.944
-398.179	273.335	0.161	0.286
-397.165	-1.484	0.101	0.072
-396.150	291.538	0.194	-0.354
-395.136	531.628	-0.367	0.870
-394.121	232.956	-0.126	0.207
-393.106	566.978	-0.104	0.252
-392.092	-99.168	0.744	-0.189
-391.077	-77.740	0.635	0.220
-390.063	-63.995	-0.856	0.351
-389.048	73.805	-0.458	-0.481
-388.033	-64.427	-0.326	0.133
-387.019	41.009	0.378	0.342
-386.004	-200.000	0.025	0.359
-384.990	642.627	-0.263	0.672
-383.975	56.979	-0.368	0.360
-382.960	-66.547	-0.311	-0.124
-381.946	-80.553	-0.712	-0.238
-380.931	-200.000	-0.011	0.391
-379.917	800.000	0.237	-0.758
-378.902	-200.000	-0.003	0.307
-377.888	51.213	0.336	0.319
-376.873	441.737	-0.133	0.293
-375.858	-83.346	-0.288	0.093
-374.844	-103.758	-0.530	-0.124
-373.829	-66.727	0.690	0.274
-372.815	-32.866	0.546	-0.304
-371.800	52.529	-0.695	-0.665
-370.785	-200.000	-0.014	0.794
-369.771	247.120	-0.061	0.103
-368.756	191.449	-0.183	-0.276
-367.742	-13.475	-0.748	0.486
-366.727	-108.206	-0.661	0.143
-365.712	-200.000	-0.110	-0.697
-364.698	-51.748	0.846	0.395
-363.683	-14.933	-0.386	-0.248
-362.669	-66.997	0.727	-0.288
-361.654	-133.193	0.488	-0.062
-360.639	24.486	-0.494	-0.409
-359.625	-28.630	0.500	0.288
-358.610	800.000	0.095	0.272
-357.596	-152.624	0.812	-0.058
-356.581	257.183	0.333	-0.574
-355.566	692.653	0.144	0.377
-354.552	-84.061	0.182	0.058
-353.537	800.000	-0.029	-0.094
-352.523	800.000	-0.091	-0.312
-351.508	-49.706	-0.365	-0.174
-350.493	686.328	0.216	-0.566
-349.479	26.166	0.164	-0.137
-348.464	166.146	0.181	0.257
-347.450	-133.786	0.748	-0.093
-346.435	168.993	0.150	0.214
-345.420	-171.397	1.034	-0.035
-344.406	-78.968	-0.809	0.275
-343.391	-77.350	-0.673	0.234
-342.377	192.357	-0.395	-0.596
-341.362	720.816	-0.154	-0.410
-340.348	-89.327	0.050	-0.015
-339.333	-44.210	-0.122	0.061
-338.318	-200.000	0.092	0.798
-337.304	134.464	0.214	-0.278
-336.289	115.017	-0.317	-0.388
-335.275	9.062	-0.569	-0.430
-334.260	-120.270	0.328	-0.056
-333.245	-35.310	-0.024	0.013
-332.231	-200.000	-0.029	-0.287
-331.216	-200.000	-0.040	-0.783
-330.202	8.236	-0.309	0.232
-329.187	-45.968	-0.335	-0.165
-328.172	-86.635	-0.865	-0.265
-327.158	-200.000	0.052	-0.234
-326.143	43.520	-0.274	0.251
-325.129	77.186	-0.491	0.522
-324.114	-20.757	0.545	0.335
-323.099	-177.192	0.138	0.003
-322.085	547.885	0.195	-0.467
-321.070	1.987	0.200	0.145
-320.056	-200.000	-0.069	-0.558
-319.041	-16.400	0.127	0.081
-318.026	-200.000	0.015	0.302
-317.012	-200.000	-0.044	-0.836
-315.997	-32.707	0.968	-0.539
-314.983	-1.991	0.109	-0.077
-313.968	27.792	0.335	-0.282
-312.953	291.945	-0.232	-0.423
-311.939	328.495	0.258	0.495
-310.924	132.278	-0.541	-0.697
-309.910	800.000	0.101	0.284
-308.895	-37.422	0.985	-0.526
-307.880	-36.913	0.829	-0.444
-306.866	-200.000	-0.048	0.433
-305.851	-45.737	-0.851	0.421
-304.837	289.851	-0.151	0.275
-303.822	800.000	-0.139	-0.497
-302.807	571.580	-0.156	0.380
-301.793	-73.794	-0.289	0.105
-300.778	225.473	-0.426	0.690
-299.764	52.001	0.204	-0.195
-298.749	553.347	0.184	0.443
-297.735	87.328	0.780	0.863
-296.720	24.157	-0.322	-0.266
-295.705	302.524	-0.110	0.203
-294.691	41.575	-0.571	-0.517
-293.676	-174.614	0.222	0.006
-292.662	104.365	0.041	0.048
-291.647	0.326	-0.184	0.131
-290.632	146.019	0.362	-0.485
-289.618	172.209	-0.490	-0.704
-288.603	800.000	-0.137	0.547
-287.589	-162.752	-0.886	-0.043
-286.574	-53.567	-0.721	-0.329
-285.559	-171.529	0.546	0.018
-284.545	-63.658	-0.543	-0.223
-283.530	30.803	-0.647	-0.553
-282.516	51.095	0.678	-0.642
-281.501	-8.727	0.461	0.309
-280.486	-200.000	-0.069	0.765
-279.472	-9.633	0.786	0.523
-278.457	39.225	0.642	0.574
-277.443	-11.022	0.189	0.124
-276.428	-136.255	-1.005	-0.117
-275.413	-122.400	0.794	-0.129
-274.399	25.254	-0.372	0.309
-273.384	508.950	-0.195	0.453
-272.370	-75.756	0.094	0.033
-271.355	24.783	-0.229	0.189
-270.340	350.433	0.167	-0.329
-269.326	800.000	0.148	0.517
-268.311	800.000	-0.139	0.505
-267.297	103.903	-0.552	-0.647
-266.282	-12.522	0.521	0.340
-265.267	800.000	-0.106	0.413
-264.253	503.840	-0.265	-0.613
-263.238	-200.000	0.112	-0.707
-262.224	68.958	0.264	-0.271
-261.209	-136.402	-0.282	-0.033
-260.195	-50.814	-0.176	-0.083
-259.180	-68.829	0.309	0.119
-258.165	-152.605	0.746	0.053
-257.151	26.669	0.537	0.448
-256.136	12.804	-0.729	0.562
-255.122	547.375	-0.226	-0.540
-254.107	-200.000	0.006	0.028
-253.092	-99.169	0.564	0.142
-252.078	800.000	0.203	0.831
-251.063	30.898	0.402	-0.343
-250.049	58.771	0.186	0.182
-249.034	-102.655	-0.694	-0.165
-248.019	36.755	0.357	-0.314
-247.005	800.000	-0.082	0.279
-245.990	-80.083	0.826	0.276
-244.976	409.452	-0.106	-0.225
-243.961	800.000	0.187	0.684
-242.946	403.420	-0.289	0.607
-241.932	800.000	-0.190	0.610
-240.917	4.615	0.223	0.163
-239.903	800.000	-0.276	0.911
-238.888	444.449	-0.225	-0.493
-237.873	135.404	0.719	-0.933
-236.859	482.001	0.238	0.538
-235.844	741.429	0.145	-0.389
-234.830	371.115	-0.360	0.729
-233.815	800.000	0.232	0.769
-232.800	800.000	-0.123	-0.478
-231.786	-29.964	0.616	0.350
-230.771	70.821	0.277	-0.285
-229.757	25.185	-0.543	-0.449
-228.742	78.880	0.198	-0.211
-227.727	168.280	0.207	-0.293
-226.713	-149.553	-0.496	-0.039
-225.698	-114.099	0.908	0.175
-224.684	-200.000	-0.036	0.442
-223.669	800.000	0.158	0.657
-222.655	-63.768	-0.823	-0.336
-221.640	323.948	-0.234	-0.445
-220.625	100.432	0.201	0.232
-219.611	-55.545	0.805	0.359
-218.596	60.107	0.248	0.244
-217.582	191.466	-0.316	-0.474
-216.567	-47.596	-0.121	0.058
-215.552	800.000	-0.191	-0.545
-214.538	800.000	0.193	-0.535
-213.523	95.009	-0.157	0.178
-212.509	-69.980	-0.514	-0.195
-211.494	-135.431	0.480	-0.057
-210.479	-114.783	0.849	-0.161
-209.465	-98.301	-0.764	0.195
-208.450	-61.482	-0.038	0.016
-207.436	211.837	0.701	-1.099
-206.421	519.468	-0.165	-0.384
-205.406	78.121	-0.287	-0.304
-204.392	306.995	0.166	-0.307
-203.377	-35.934	0.623	-0.335
-202.363	3.870	0.276	-0.200
-201.348	-9.527	-0.704	-0.467
-200.333	66.649	-0.456	0.462
-199.319	-200.000	-0.032	-0.161
-198.304	800.000	-0.224	0.698
-197.290	227.732	-0.201	-0.326
-196.275	-144.417	0.222	-0.020
-195.260	307.834	0.268	0.498
-194.246	-200.000	-0.017	-0.325
-193.231	-192.227	0.305	-0.003
-192.217	245.764	0.239	-0.400
-191.202	-105.692	-0.480	0.108
-190.187	130.756	-0.080	-0.102
-189.173	-200.000	0.129	0.974
-188.158	-19.836	-0.164	-0.101
-187.144	-57.686	0.749	0.326
-186.129	638.474	0.144	-0.365
-185.114	800.000	0.175	0.737
-184.100	800.000	0.159	-0.613
-183.085	215.407	0.175	0.276
-182.071	-200.000	0.066	0.468
-181.056	134.848	-0.080	-0.104
-180.042	23.814	-0.471	-0.386
-179.027	281.229	0.247	0.440
-178.012	-39.758	-0.857	-0.446
-176.998	169.689	0.078	0.110
-175.983	-17.118	-0.163	-0.102
-174.969	-43.993	-0.680	-0.340
-173.954	334.279	0.206	0.396
-172.939	-1.799	0.522	0.366
-171.925	159.733	-0.454	-0.628
-170.910	-46.080	-0.568	0.278
-169.896	296.048	-0.656	-1.195
-168.881	240.106	-0.466	-0.772
-167.866	143.636	-0.562	0.744
-166.852	249.175	0.305	0.514
-165.837	800.000	-0.120	-0.521
-164.823	303.820	-0.160	-0.294
-163.808	480.671	-0.226	-0.509
-162.793	-200.000	0.121	0.593
-161.779	-164.030	0.491	0.023
-160.764	185.605	-0.419	0.619
-159.750	-200.000	-0.007	-0.169
-158.735	163.482	-0.277	-0.387
-157.720	-87.071	0.292	0.088
-156.706	-82.977	0.336	-0.108
-155.691	202.262	0.360	-0.553
-154.677	-126.537	0.414	0.061
-153.662	-11.400	1.034	0.676
-152.647	800.000	-0.413	1.461
-151.633	192.749	0.564	0.847
-150.618	315.382	0.253	0.473
-149.604	-41.364	0.407	0.208
-148.589	-132.612	0.287	0.037
-147.574	-103.198	-0.933	-0.219
-146.560	127.333	-0.303	0.383
-145.545	-200.000	0.073	-0.377
-144.531	-72.137	0.749	0.276
-143.516	619.417	-0.205	0.512
-142.502	285.303	0.430	0.769
-141.487	128.390	-0.403	0.510
-140.472	7.373	-0.444	0.329
-139.458	-11.786	-0.265	0.173
-138.443	800.000	-0.042	0.182
-137.429	30.479	-0.504	-0.428
-136.414	-71.914	-0.243	-0.090
-135.399	129.214	0.694	0.880
-134.385	-25.113	-0.385	-0.227
-133.370	519.413	0.060	0.140
-132.356	-200.000	-0.095	-0.564
-131.341	-52.721	-0.463	0.212
-130.326	-142.831	-0.679	-0.066
-129.312	53.193	0.090	-0.085
-128.297	-200.000	0.090	-0.488
-127.283	324.032	-0.186	0.353
-126.268	-158.226	-0.278	-0.016
-125.253	72.764	0.506	0.524
-124.239	800.000	-0.249	-0.840
-123.224	-16.641	0.237	-0.149
-122.210	-1.024	0.363	-0.255
-121.195	53.300	-0.280	0.266
-120.180	29.995	0.727	0.615
-119.166	-140.457	1.034	0.107
-118.151	800.000	0.258	0.708
-117.137	9.199	0.642	-0.482
-116.122	-200.000	0.033	0.372
-115.107	106.628	-0.157	0.185
-114.093	16.445	0.580	-0.454
-113.078	91.580	0.594	0.663
-112.064	37.475	0.749	-0.659
-111.049	-94.906	0.672	0.180
-110.034	800.000	-0.410	1.163
-109.020	-200.000	0.073	1.272
-108.005	-126.456	-0.561	0.083
-106.991	-25.028	-0.769	0.452
-105.976	144.162	0.133	-0.176
-104.962	-13.141	-0.551	-0.355
-103.947	-200.000	-0.028	-0.399
-102.932	-90.699	0.146	0.042
-101.918	-8.169	0.443	0.296
-100.903	800.000	-0.220	0.761
-99.889	346.443	0.400	-0.781
-98.874	325.988	-0.195	0.370
-97.859	182.341	0.221	0.322
-96.845	-11.772	-0.506	0.329
-95.830	-200.000	-0.698	0.001
-94.816	-122.966	0.759	-0.121
-93.801	167.910	-0.055	-0.077
-92.786	219.823	0.110	-0.175
-91.772	-29.968	0.539	0.304
-90.757	-92.630	-0.129	0.036
-89.743	-12.624	0.391	0.253
-88.728	312.403	0.540	1.005
-87.713	800.000	-0.076	-0.218
-86.699	79.917	0.441	0.470
-85.684	-57.710	-0.120	-0.052
-84.670	-200.000	-0.072	0.665
-83.655	-104.887	1.033	-0.235
-82.640	192.271	-0.335	-0.500
-81.626	-159.008	0.661	-0.037
-80.611	-124.757	-0.286	0.044
-79.597	800.000	-0.128	0.549
-78.582	-200.000	0.031	0.550
-77.567	-119.794	0.427	0.073
-76.553	80.805	-0.308	-0.329
-75.538	800.000	-0.052	0.200
-74.524	-147.959	0.555	0.046
-73.509	-95.881	0.645	-0.170
-72.494	-200.000	0.043	-0.210
-71.480	1.096	-0.200	-0.142
-70.465	309.858	0.285	-0.528
-69.451	44.664	-0.380	-0.346
-68.436	21.420	-0.515	0.415
-67.422	-173.296	-0.675	0.020
-66.407	-86.828	-0.330	-0.100
-65.392	782.883	0.230	0.624
-64.378	-32.508	0.244	-0.135
-63.363	-177.384	1.045	0.025
-62.349	509.251	0.127	0.293
-61.334	75.921	-1.359	-1.423
-60.319	-34.462	0.634	-0.344
-59.305	-54.613	-1.020	-0.457
-58.290	24.747	1.438	1.179
-57.276	-200.000	0.166	1.067
-56.261	-200.000	96.459	576.560
-55.246	636.178	1366.701	3434.429
-54.232	197.862	2538.739	3839.183
-53.217	108.220	2283.816	2696.001
-52.203	39.494	2046.988	1815.265
-51.188	34.860	1962.653	1699.342
-50.173	33.363	1944.617	1670.459
-49.159	48.999	1997.347	1855.937
-48.144	49.662	2014.476	1877.709
-47.130	35.378	1976.404	1715.610
-46.115	33.121	1966.195	1686.568
-45.100	32.992	1963.558	1683.092
-44.086	33.080	1960.179	1680.910
-43.071	32.732	1958.493	1676.301
-42.057	32.950	1954.528	1674.781
-41.042	32.742	1954.611	1672.936
-40.027	32.817	1952.369	1671.615
-39.013	32.989	1949.148	1670.310
-37.998	32.870	1949.108	1669.158
-36.984	32.804	1948.025	1667.584
-35.969	32.984	1944.740	1666.292
-34.954	33.114	1943.000	1665.886
-33.940	32.753	1941.780	1661.588
-32.925	32.974	1940.162	1662.085
-31.911	33.143	1938.331	1661.934
-30.896	33.160	1936.561	1660.498
-29.881	32.911	1936.464	1658.168
-28.867	33.282	1933.513	1658.827
-27.852	33.063	1932.126	1655.653
-26.838	33.053	1930.474	1654.086
-25.823	33.004	1928.541	1651.935
-24.809	33.136	1925.743	1650.622
-23.794	33.006	1925.149	1648.916
-22.779	33.010	1922.794	1646.863
-21.765	32.925	1922.391	1645.718
-20.750	33.090	1919.550	1644.654
-19.736	32.807	1919.269	1641.881
-18.721	32.995	1916.805	1641.346
-17.706	32.846	1916.050	1639.340
-16.692	33.258	1912.088	1639.458
-15.677	32.853	1912.422	1636.163
-14.663	33.195	1909.653	1636.697
-13.648	32.907	1910.116	1634.535
-12.633	33.078	1907.692	1633.871
-11.619	32.869	1908.052	1632.310
-10.604	33.031	1905.032	1631.057
-9.590	32.936	1904.119	1629.395
-8.575	33.088	1903.121	1629.785
-7.560	33.117	1901.521	1628.602
-6.546	33.101	1900.749	1627.738
-5.531	32.898	1900.499	1625.704
-4.517	33.188	1896.993	1625.140
-3.502	33.039	1895.663	1622.650
-2.487	33.005	1895.268	1621.958
-1.473	33.052	1895.488	1622.487
-0.458	32.880	1890.690	1616.842
0.556	34.156	1869.652	1590.922
1.571	29.570	1851.654	1537.397
2.586	25.517	1870.867	1519.041
3.600	24.238	1906.487	1536.801
4.615	23.613	1901.067	1526.925
5.629	18.308	1800.115	1402.373
6.644	8.376	1681.548	1233.529
7.659	3.575	1642.429	1168.441
8.673	2.977	1640.669	1162.564
9.688	3.002	1639.238	1161.632
10.702	2.975	1638.452	1160.771
11.717	2.887	1633.993	1156.845
12.731	3.477	1633.492	1160.833
13.746	9.711	1650.116	1219.830
14.761	19.791	1670.324	1311.480
15.775	24.448	1676.931	1351.920
16.790	25.041	1679.174	1358.100
17.804	25.098	1678.881	1358.174
18.819	25.274	1677.535	1358.296
19.834	25.275	1677.234	1357.942
20.848	25.575	1677.087	1359.969
21.863	25.613	1675.272	1358.670
22.877	25.564	1674.318	1357.400
23.892	25.558	1672.832	1356.032
24.907	25.499	1672.899	1355.524
25.921	25.554	1671.650	1354.808
26.936	25.430	1671.036	1353.254
27.950	25.601	1669.657	1353.301
28.965	25.640	1669.510	1353.357
29.980	25.354	1668.788	1350.505
30.994	25.669	1667.366	1351.597
32.009	25.614	1664.713	1348.914
33.023	25.585	1665.315	1349.068
34.038	25.641	1664.146	1348.418
35.053	25.543	1662.679	1346.380
36.067	25.727	1662.593	1347.567
37.082	25.756	1661.268	1346.593
38.096	25.535	1660.917	1344.538
39.111	25.412	1660.698	1343.319
40.126	25.446	1659.801	1342.728
41.140	25.603	1658.881	1343.038
42.155	25.518	1656.874	1340.659
43.169	25.670	1655.415	1340.494
44.184	25.548	1654.978	1339.111
45.199	25.485	1655.032	1338.570
46.213	25.675	1653.639	1338.737
47.228	25.697	1651.535	1337.079
48.242	25.484	1651.232	1335.130
49.257	25.657	1648.724	1334.273
50.271	25.527	1648.387	1332.917
51.286	25.570	1647.156	1332.120
52.301	25.495	1646.456	1330.879
53.315	25.488	1644.789	1329.366
54.330	25.599	1643.274	1328.840
55.344	25.500	1642.532	1327.395
56.359	25.480	1640.404	1325.405
57.374	25.499	1640.024	1325.124
58.388	25.589	1639.266	1325.057
59.403	25.627	1638.200	1324.361
60.417	25.530	1637.152	1322.679
61.432	25.448	1636.435	1321.380
62.447	25.586	1634.040	1320.342
63.461	25.423	1633.844	1318.872
64.476	25.576	1632.227	1318.569
65.490	25.524	1632.424	1318.231
66.505	25.600	1630.954	1317.486
67.520	25.818	1629.254	1317.588
68.534	25.703	1627.878	1315.522
69.549	25.867	1627.344	1316.169
70.563	25.777	1625.681	1314.055
71.578	25.513	1625.462	1311.834
72.593	25.609	1623.957	1311.203
73.607	25.712	1622.850	1310.946
74.622	25.782	1622.845	1311.330
75.636	25.532	1621.876	1308.615
76.651	25.573	1621.438	1308.446
77.666	25.853	1620.450	1309.567
78.680	25.489	1620.427	1306.785
79.695	25.706	1618.893	1307.009
80.709	25.755	1617.348	1306.004
81.724	25.565	1617.622	1304.729
82.739	25.717	1615.893	1304.319
83.753	25.715	1614.956	1303.432
84.768	25.605	1614.547	1302.190
85.782	25.567	1612.845	1300.433
86.797	25.740	1611.711	1300.652
87.812	25.744	1611.028	1300.015
88.826	25.850	1610.008	1299.837
89.841	25.415	1610.902	1297.305
90.855	25.536	1608.823	1296.385
91.870	25.406	1608.273	1294.894
92.884	25.714	1606.421	1295.502
93.899	25.647	1605.391	1294.076
94.914	25.803	1604.150	1294.087
95.928	25.841	1602.222	1292.686
96.943	25.981	1599.568	1291.437
97.957	25.767	1600.384	1290.448
98.972	25.444	1599.509	1287.311
99.987	25.548	1598.609	1287.220
101.001	25.583	1596.564	1285.706
102.016	25.747	1594.566	1285.160
103.030	25.733	1592.367	1283.171
104.045	25.921	1591.408	1283.625
105.060	25.862	1590.382	1282.264
106.074	25.561	1590.312	1279.952
107.089	25.655	1589.169	1279.586
108.103	25.660	1587.106	1277.849
109.118	25.628	1585.622	1276.310
110.133	25.844	1584.177	1276.565
111.147	25.743	1583.060	1274.835
112.162	25.690	1582.885	1274.212
113.176	25.919	1580.766	1274.008
114.191	25.834	1579.060	1271.923
115.206	25.843	1578.020	1271.033
116.220	25.836	1577.712	1270.624
117.235	25.689	1577.232	1269.089
118.249	25.673	1575.370	1267.365
119.264	25.702	1573.703	1266.119
120.279	25.478	1574.162	1264.796
121.293	25.817	1571.137	1264.633
122.308	25.622	1570.901	1262.967
123.322	25.694	1569.537	1262.265
124.337	25.854	1568.142	1262.148
125.352	25.856	1566.506	1260.735
126.366	25.954	1564.939	1260.044
127.381	25.912	1564.544	1259.327
128.395	25.918	1563.619	1258.509
129.410	25.843	1562.670	1257.111
130.424	25.752	1561.631	1255.533
131.439	25.951	1559.857	1255.378
132.454	25.891	1559.148	1254.279
133.468	25.846	1557.683	1252.678
134.483	25.895	1556.187	1251.703
135.497	25.854	1554.970	1250.328
136.512	25.953	1554.090	1250.199
137.527	26.050	1552.636	1249.588
138.541	25.842	1551.658	1247.254
139.556	25.880	1550.221	1246.248
140.570	26.036	1548.992	1246.228
141.585	25.849	1547.876	1243.930
142.600	25.825	1546.700	1242.709
143.614	25.830	1545.830	1241.937
144.629	26.069	1544.484	1242.387
145.643	25.944	1543.678	1240.772
146.658	25.825	1542.346	1238.773
147.673	25.806	1540.787	1237.276
148.687	25.922	1540.561	1237.785
149.702	25.869	1539.643	1236.574
150.716	25.882	1537.859	1235.121
151.731	26.096	1535.308	1234.424
152.746	25.827	1535.626	1232.732
153.760	25.855	1533.882	1231.414
154.775	26.079	1531.851	1231.208
155.789	26.064	1531.430	1230.654
156.804	25.974	1529.917	1228.715
157.819	25.910	1528.631	1227.139
158.833	25.947	1529.260	1227.789
159.848	25.993	1527.686	1226.726
160.862	25.992	1527.113	1226.154
161.877	25.947	1525.537	1224.473
162.892	26.277	1523.550	1225.005
163.906	25.910	1523.726	1222.553
164.921	26.032	1522.687	1222.436
165.935	26.123	1521.658	1222.119
166.950	25.940	1521.178	1220.389
167.964	26.081	1519.897	1220.206
168.979	26.070	1517.384	1218.003
169.994	25.927	1517.617	1217.118
171.008	26.031	1517.347	1217.494
172.023	25.979	1516.101	1216.038
173.037	26.145	1514.507	1215.772
174.052	25.896	1513.800	1213.421
175.067	26.016	1512.648	1213.197
176.081	26.120	1512.042	1213.302
177.096	26.180	1511.566	1213.218
178.110	25.983	1510.017	1210.544
179.125	25.749	1509.831	1208.713
180.140	26.049	1507.686	1208.900
181.154	26.045	1506.479	1207.801
182.169	26.108	1506.157	1207.856
183.183	25.996	1504.795	1205.907
184.198	26.005	1504.141	1205.340
185.213	26.069	1503.331	1205.010
186.227	26.237	1503.177	1205.905
187.242	26.203	1501.737	1204.410
188.256	26.365	1501.026	1204.816
189.271	26.158	1499.857	1202.389
190.286	25.925	1499.272	1200.266
191.300	26.050	1497.432	1199.517
192.315	25.987	1498.514	1199.858
193.329	26.026	1496.769	1198.618
194.344	26.255	1496.247	1199.611
195.359	26.243	1495.003	1198.426
196.373	26.156	1494.364	1197.230
197.388	26.185	1492.888	1196.134
198.402	26.072	1491.767	1194.383
199.417	26.213	1490.730	1194.380
200.432	26.241	1489.871	1193.772
201.446	26.088	1489.171	1192.094
202.461	26.110	1488.765	1191.812
203.475	26.275	1486.889	1191.292
204.490	26.144	1486.410	1189.938
205.504	26.163	1486.063	1189.683
206.519	26.185	1484.856	1188.756
207.534	26.021	1484.535	1187.309
208.548	25.937	1484.227	1186.410
209.563	25.952	1483.775	1186.037
210.577	26.046	1481.854	1185.015
211.592	26.148	1479.772	1183.918
212.607	26.146	1480.413	1184.314
213.621	26.072	1479.662	1183.119
214.636	26.043	1479.576	1182.759
215.650	26.174	1477.665	1181.980
216.665	26.311	1476.204	1181.605
217.680	26.360	1475.475	1181.239
218.694	26.203	1475.417	1180.063
219.709	26.393	1473.816	1179.914
220.723	26.178	1472.939	1177.706
221.738	26.129	1472.412	1176.859
222.753	26.031	1472.496	1176.183
223.767	26.179	1470.265	1175.265
224.782	26.142	1470.261	1174.912
225.796	26.090	1470.302	1174.503
226.811	26.419	1468.023	1174.716
227.826	26.349	1467.710	1173.912
228.840	26.381	1467.184	1173.596
229.855	26.302	1465.893	1171.946
230.869	26.251	1464.051	1170.034
231.884	26.423	1464.536	1171.437
232.899	26.404	1463.027	1170.000
233.913	26.164	1461.850	1167.407
234.928	26.294	1461.232	1167.649
235.942	26.269	1460.382	1166.702
236.957	26.339	1459.680	1166.489
237.972	26.186	1458.132	1164.165
238.986	26.274	1457.142	1163.842
240.001	26.421	1455.612	1163.462
241.015	26.277	1456.131	1162.844
242.030	26.441	1453.851	1161.978
243.045	26.336	1453.875	1161.216
244.059	26.375	1451.951	1159.830
245.074	26.521	1450.413	1159.433
246.088	26.394	1451.065	1159.035
247.103	26.402	1450.701	1158.691
248.117	26.520	1449.753	1158.593
249.132	26.495	1448.191	1157.080
250.147	26.461	1447.908	1156.534
251.161	26.670	1446.439	1156.594
252.176	26.653	1446.669	1156.566
253.190	26.406	1445.142	1153.666
254.205	26.459	1444.741	1153.582
255.220	26.288	1444.574	1152.254
256.234	26.734	1443.134	1153.845
257.249	26.387	1442.583	1151.096
258.263	26.488	1441.438	1150.723
259.278	26.686	1439.736	1150.519
260.293	26.558	1440.830	1150.481
261.307	26.551	1439.749	1149.466
262.322	26.431	1438.785	1147.838
263.336	26.284	1438.641	1146.689
264.351	26.566	1437.047	1147.101
265.366	26.600	1435.992	1146.373
266.380	26.491	1435.146	1144.909
267.395	26.587	1433.191	1143.853
268.409	26.703	1432.769	1144.146
269.424	26.743	1431.334	1143.150
270.439	26.688	1430.982	1142.426
271.453	26.715	1430.928	1142.452
272.468	26.456	1430.007	1139.982
273.482	26.507	1429.262	1139.607
274.497	26.508	1428.446	1138.862
275.512	26.459	1427.052	1137.342
276.526	26.416	1425.953	1136.093
277.541	26.565	1425.514	1136.580
278.555	26.757	1424.125	1136.578
279.570	26.641	1424.137	1135.760
280.585	26.496	1422.705	1133.606
281.599	26.641	1422.187	1134.000
282.614	26.951	1420.537	1134.524
283.628	26.297	1421.167	1130.838
284.643	26.335	1419.810	1129.891
285.657	26.644	1418.385	1130.586
286.672	26.597	1418.800	1130.525
287.687	26.555	1417.012	1128.741
288.701	26.838	1415.420	1129.136
289.716	26.742	1415.410	1128.428
290.730	26.539	1414.830	1126.605
291.745	26.679	1413.895	1126.630
292.760	26.557	1413.046	1125.095
293.774	26.833	1411.172	1125.217
294.789	26.653	1410.728	1123.648
295.803	26.645	1410.237	1123.105
296.818	26.797	1408.972	1122.943
297.833	26.741	1408.233	1121.902
298.847	26.588	1407.635	1120.383
299.862	26.602	1406.990	1119.858
300.876	26.809	1404.874	1119.352
301.891	26.645	1405.575	1118.799
302.906	26.738	1403.854	1117.905
303.920	26.861	1403.967	1118.654
304.935	26.571	1403.417	1116.327
305.949	26.703	1402.671	1116.451
306.964	26.660	1401.859	1115.436
307.979	26.649	1400.728	1114.375
308.993	26.612	1399.756	1113.275
310.008	26.741	1399.032	1113.393
311.022	26.647	1397.825	1111.755
312.037	26.567	1398.238	1111.496
313.052	26.819	1395.966	1111.135
314.066	26.830	1394.887	1110.244
315.081	26.632	1393.332	1107.695
316.095	26.565	1393.461	1107.293
317.110	26.704	1392.929	1107.621
318.125	26.701	1392.178	1106.907
319.139	26.706	1391.387	1106.211
320.154	26.848	1389.397	1105.394
321.168	26.824	1388.143	1104.158
322.183	26.681	1388.538	1103.502
323.197	26.729	1387.042	1102.509
324.212	26.636	1387.456	1102.170
325.227	26.740	1386.497	1101.944
326.241	26.663	1384.780	1100.017
327.256	26.839	1383.456	1099.933
328.270	26.807	1383.528	1099.702
329.285	26.719	1382.673	1098.391
330.300	26.683	1382.222	1097.715
331.314	26.618	1381.487	1096.642
332.329	26.774	1380.883	1097.008
333.343	26.820	1379.624	1096.188
334.358	26.729	1378.516	1094.664
335.373	26.856	1377.392	1094.442
336.387	26.670	1377.044	1092.943
337.402	26.589	1376.716	1092.102
338.416	26.765	1375.108	1091.788
339.431	26.946	1374.858	1092.580
340.446	26.929	1373.705	1091.466
341.460	26.694	1373.640	1089.907
342.475	26.789	1372.185	1089.225
343.489	26.801	1371.722	1088.830
344.504	27.092	1370.232	1089.302
345.519	26.708	1369.622	1086.413
346.533	26.921	1369.211	1087.268
347.548	26.913	1368.082	1086.231
348.562	26.950	1366.662	1085.225
349.577	26.838	1366.407	1084.259
350.592	26.790	1366.743	1084.141
351.606	26.802	1365.121	1082.831
352.621	26.901	1363.655	1082.164
353.635	26.987	1363.345	1082.335
354.650	27.088	1361.352	1081.256
355.665	26.873	1361.348	1079.882
356.679	26.796	1359.704	1078.023
357.694	26.735	1358.787	1076.839
358.708	26.743	1358.042	1076.197
359.723	27.158	1356.553	1077.384
360.738	26.704	1355.902	1074.084
361.752	26.878	1354.506	1073.909
362.767	26.953	1354.035	1073.886
363.781	26.859	1352.134	1071.726
364.796	26.821	1353.278	1072.315
365.810	27.064	1351.344	1072.120
366.825	26.872	1350.454	1070.190
367.840	26.858	1350.847	1070.322
368.854	26.885	1349.442	1069.275
369.869	27.017	1348.433	1069.156
370.883	26.759	1348.449	1067.557
371.898	26.989	1347.000	1067.670
372.913	26.850	1345.982	1065.951
373.927	26.780	1346.456	1065.819
374.942	26.710	1344.888	1064.074
375.956	26.834	1344.637	1064.504
376.971	26.842	1343.460	1063.530
377.986	27.094	1342.700	1064.310
379.000	27.003	1341.061	1062.386
380.015	27.089	1341.173	1062.881
381.029	26.957	1340.245	1061.281
382.044	27.043	1338.690	1060.459
383.059	27.097	1338.164	1060.261
384.073	26.854	1338.455	1058.981
385.088	26.722	1338.970	1058.525
386.102	26.953	1337.339	1058.489
387.117	26.730	1337.079	1056.887
388.132	26.594	1336.706	1055.708
389.146	26.959	1335.790	1057.015
390.161	26.873	1334.752	1055.597
391.175	26.860	1333.413	1054.370
392.190	27.080	1332.590	1054.907
393.205	26.916	1332.040	1053.426
394.219	26.875	1331.672	1052.805
395.234	26.810	1330.614	1051.497
396.248	26.907	1329.768	1051.298
397.263	26.967	1327.675	1049.898
398.278	26.939	1326.369	1048.608
399.292	26.836	1326.477	1048.008
400.307	26.891	1325.987	1047.843
401.321	27.150	1323.346	1047.157
402.336	26.877	1323.321	1045.469
403.350	27.049	1322.295	1045.556
404.365	26.772	1321.694	1043.397
405.380	26.690	1321.112	1042.370
406.394	27.051	1319.277	1042.908
407.409	26.905	1319.063	1041.805
408.423	26.924	1318.034	1041.007
409.438	27.006	1317.133	1040.678
410.453	27.041	1316.934	1040.627
411.467	26.962	1316.505	1039.742
412.482	26.852	1315.191	1037.987
413.496	27.006	1314.950	1038.586
414.511	26.827	1315.258	1037.710
415.526	26.905	1313.338	1036.548
416.540	26.801	1313.095	1035.672
417.555	26.782	1312.777	1035.221
418.569	26.912	1311.627	1034.964
419.584	26.934	1310.663	1034.239
420.599	27.137	1310.184	1034.924
421.613	142.478	1435.225	1793.149
422.628	138.177	1453.433	1793.213
