DTS Sentinel unit serial number:	SN413079Multiplexer serial number:	ORYXHardware model number:	OX4-SRSoftware version number:	ORYX F/W v4.00 Oryx Data Collector v3.7.2.0data status	okinstallation	princeton_trtdifferential loss correction	single-endedforward channel	channel 4reverse channel	N/Adate	2019/09/15time	05:05:34forward acquisition time	60.00reverse acquisition time	0.00gamma	496.2192k internal	0.2311k external	0.2311temperature offset calibration	1.0041default loss term (dB/km)	0.3790temperature slope calibration	1.0000multiplexer offset coefficient	1.0000multiplexer slope coefficient	1.0000fibre end	0.00T internal ref (°C)	30.66T ext. ref 1 (°C)	4.82T ext. ref 2 (°C)	25.20length (m)	temperature (°C)	Stokes	anti-Stokes-747.200	257.744	-0.089	-0.155
-746.185	381.344	-0.134	0.280
-745.171	800.000	0.084	-0.254
-744.156	-95.648	-0.308	0.084
-743.142	-200.000	-0.023	0.365
-742.127	274.006	0.088	0.157
-741.112	-115.818	0.128	-0.024
-740.098	800.000	-0.052	-0.150
-739.083	226.182	0.190	-0.313
-738.069	-157.598	-0.492	0.030
-737.054	414.880	0.170	0.367
-736.039	-56.644	-0.411	-0.185
-735.025	-48.971	0.169	-0.082
-734.010	19.512	-0.093	-0.076
-732.996	-156.922	0.058	-0.004
-731.981	666.570	-0.012	0.033
-730.966	-107.225	0.416	-0.093
-729.952	533.789	-0.027	0.066
-728.937	800.000	0.117	0.445
-727.923	-40.373	-0.235	0.124
-726.908	-153.754	0.259	0.018
-725.894	-57.606	0.214	-0.095
-724.879	-87.764	-0.350	-0.107
-723.864	-200.000	-0.006	-0.077
-722.850	196.597	-0.167	0.258
-721.835	-66.657	-0.130	0.052
-720.821	209.022	0.041	-0.066
-719.806	-21.430	0.008	0.005
-718.791	-200.000	0.021	-0.219
-717.777	-167.180	0.208	-0.009
-716.762	-200.000	0.020	-0.099
-715.748	-140.777	0.075	-0.008
-714.733	295.793	-0.060	-0.111
-713.718	60.350	0.192	0.192
-712.704	-51.292	0.065	0.031
-711.689	-129.701	0.243	-0.034
-710.675	-48.663	0.208	0.101
-709.660	47.424	0.347	-0.328
-708.645	39.052	0.029	-0.026
-707.631	72.358	-0.061	0.065
-706.616	-3.683	0.101	0.071
-705.602	-86.615	-0.108	-0.034
-704.587	-160.423	0.211	-0.011
-703.572	-2.962	0.003	0.002
-702.558	800.000	-0.081	-0.247
-701.543	-200.000	-0.016	-0.424
-700.529	36.997	0.225	0.202
-699.514	37.191	-0.228	0.204
-698.499	-67.580	0.239	-0.095
-697.485	56.162	0.126	0.124
-696.470	0.893	0.158	-0.115
-695.456	-17.975	0.178	0.113
-694.441	10.000	0.121	-0.093
-693.426	800.000	0.159	0.510
-692.412	-17.972	-0.303	-0.193
-691.397	800.000	-0.122	0.396
-690.383	800.000	0.050	0.141
-689.368	800.000	0.035	-0.101
-688.354	-200.000	-0.035	0.159
-687.339	800.000	-0.036	-0.108
-686.324	800.000	-0.112	0.470
-685.310	-68.980	-0.249	0.097
-684.295	-176.040	-0.380	0.010
-683.281	800.000	0.015	0.049
-682.266	-150.339	0.242	0.019
-681.251	-167.896	0.165	0.007
-680.237	-191.751	0.188	0.002
-679.222	-26.379	-0.349	-0.207
-678.208	-200.000	-0.046	-0.297
-677.193	162.065	0.080	-0.113
-676.178	-10.154	-0.072	-0.049
-675.164	-155.275	-0.374	0.025
-674.149	-85.107	0.068	0.022
-673.135	-200.000	-0.093	0.522
-672.120	-160.574	0.361	0.020
-671.105	26.486	0.271	-0.229
-670.091	283.871	0.117	-0.212
-669.076	-124.164	-0.263	-0.042
-668.062	800.000	-0.046	-0.156
-667.047	67.587	-0.094	0.097
-666.032	-200.000	0.001	0.189
-665.018	-50.373	0.369	-0.177
-664.003	16.473	-0.075	-0.060
-662.989	-49.922	-0.271	-0.130
-661.974	-200.000	0.002	0.069
-660.959	-39.431	0.145	-0.077
-659.945	-200.000	0.002	0.223
-658.930	-5.602	0.325	-0.225
-657.916	-163.648	0.524	0.025
-656.901	-98.713	-0.119	-0.031
-655.886	800.000	-0.068	-0.204
-654.872	800.000	-0.072	0.254
-653.857	227.183	0.130	-0.214
-652.843	-40.178	0.226	0.119
-651.828	8.020	-0.170	-0.129
-650.814	800.000	0.080	0.268
-649.799	-121.488	0.348	0.058
-648.784	-55.133	0.166	0.075
-647.770	-70.358	-0.455	0.175
-646.755	-191.969	-0.049	0.000
-645.741	-80.621	0.246	0.083
-644.726	20.554	-0.102	-0.083
-643.711	-86.559	-0.156	0.048
-642.697	-200.000	-0.026	0.179
-641.682	55.779	-0.275	-0.269
-640.668	-170.172	-0.272	-0.010
-639.653	-160.962	-0.440	0.023
-638.638	-200.000	0.033	0.244
-637.624	-54.475	-0.067	0.031
-636.609	162.381	0.047	-0.067
-635.595	-30.900	0.178	0.102
-634.580	-37.929	0.178	-0.096
-633.565	59.867	0.018	-0.018
-632.551	188.834	0.177	-0.268
-631.536	-143.273	0.355	-0.034
-630.522	336.909	0.047	0.093
-629.507	-141.186	-0.474	-0.049
-628.492	263.708	-0.186	0.328
-627.478	-100.190	-0.091	0.023
-626.463	375.449	0.154	0.317
-625.449	-200.000	0.020	0.223
-624.434	-43.639	0.152	-0.077
-623.419	-135.041	0.219	-0.027
-622.405	107.555	-0.124	-0.150
-621.390	-27.464	0.157	-0.092
-620.376	-92.554	-0.354	-0.100
-619.361	2.048	-0.206	-0.150
-618.346	142.163	0.058	0.078
-617.332	-200.000	-0.018	0.165
-616.317	-196.361	-0.080	-0.001
-615.303	-99.134	0.252	0.064
-614.288	-40.531	0.445	-0.233
-613.273	-157.378	-0.172	0.010
-612.259	-55.339	0.367	-0.166
-611.244	800.000	-0.116	-0.445
-610.230	106.283	0.170	-0.204
-609.215	-100.426	-0.291	-0.073
-608.201	291.290	0.035	0.065
-607.186	-5.551	0.087	-0.061
-606.171	-38.134	0.163	-0.088
-605.157	800.000	0.048	-0.207
-604.142	-59.411	0.293	-0.127
-603.128	493.697	-0.130	-0.301
-602.113	226.848	-0.199	0.326
-601.098	319.741	-0.018	-0.035
-600.084	-166.369	0.343	0.015
-599.069	-174.963	-0.138	-0.004
-598.055	84.284	0.134	0.148
-597.040	-200.000	-0.017	-0.215
-596.025	-78.865	-0.341	0.117
-595.011	27.647	0.269	0.228
-593.996	800.000	0.097	-0.273
-592.982	-200.000	-0.038	-0.564
-591.967	1.867	-0.184	0.134
-590.952	307.631	0.192	0.361
-589.938	46.958	-0.099	-0.093
-588.923	31.761	0.068	0.059
-587.909	62.647	0.074	0.074
-586.894	-169.774	0.124	-0.004
-585.879	70.594	0.253	0.264
-584.865	248.404	-0.100	0.171
-583.850	-113.984	-0.181	0.035
-582.836	-125.707	0.103	-0.016
-581.821	23.365	-0.211	0.175
-580.806	90.739	-0.113	0.128
-579.792	-200.000	-0.004	-0.176
-578.777	97.993	-0.033	0.038
-577.763	219.393	-0.098	-0.157
-576.748	154.316	-0.040	0.056
-575.733	66.952	-0.151	-0.155
-574.719	-200.000	0.061	-0.291
-573.704	-200.000	0.017	-0.201
-572.690	-23.363	0.135	0.082
-571.675	-135.847	-0.261	-0.031
-570.661	71.477	0.127	0.133
-569.646	387.295	-0.064	0.133
-568.631	800.000	0.069	-0.285
-567.617	213.933	-0.186	0.297
-566.602	-158.087	-0.186	-0.011
-565.588	-200.000	0.025	0.425
-564.573	-65.024	0.211	0.086
-563.558	432.561	0.089	-0.194
-562.544	-24.618	-0.314	0.188
-561.529	-91.179	-0.172	0.050
-560.515	-22.908	-0.097	0.059
-559.500	-200.000	0.021	-0.095
-558.485	800.000	-0.019	-0.076
-557.471	800.000	-0.028	0.081
-556.456	-79.819	0.124	0.042
-555.442	109.678	-0.024	0.029
-554.427	23.351	0.100	0.083
-553.412	18.293	-0.228	-0.183
-552.398	507.084	0.064	-0.150
-551.383	63.501	0.438	0.442
-550.369	-82.315	0.387	-0.127
-549.354	-200.000	0.020	0.195
-548.339	15.039	0.330	-0.260
-547.325	800.000	0.041	0.138
-546.310	-126.279	0.389	0.058
-545.296	63.785	0.208	-0.210
-544.281	-200.000	-0.036	-0.169
-543.266	56.222	-0.165	-0.162
-542.252	198.627	-0.039	0.061
-541.237	-179.394	0.199	-0.004
-540.223	-69.648	-0.166	-0.064
-539.208	-155.438	-0.162	0.011
-538.193	-200.000	-0.035	-0.182
-537.179	-200.000	-0.015	0.144
-536.164	-187.267	-0.254	-0.003
-535.150	-200.000	-0.007	-0.127
-534.135	449.678	-0.099	-0.220
-533.121	-200.000	-0.046	-0.257
-532.106	-200.000	0.005	0.084
-531.091	-112.499	0.210	-0.042
-530.077	800.000	0.068	-0.253
-529.062	55.187	0.078	-0.076
-528.048	-200.000	-0.053	0.298
-527.033	198.560	-0.084	0.129
-526.018	-52.358	-0.331	-0.154
-525.004	-40.323	0.189	-0.099
-523.989	146.230	-0.092	0.125
-522.975	382.060	-0.087	-0.180
-521.960	800.000	-0.088	-0.243
-520.945	36.466	0.142	0.126
-519.931	-80.924	-0.096	0.032
-518.916	800.000	-0.031	-0.088
-517.902	-9.974	0.184	0.123
-516.887	-200.000	-0.074	0.355
-515.872	36.949	-0.191	-0.170
-514.858	800.000	0.032	0.138
-513.843	-105.114	0.363	0.084
-512.829	-14.869	-0.088	-0.057
-511.814	-95.177	-0.163	-0.044
-510.799	800.000	0.012	0.047
-509.785	35.143	0.058	-0.051
-508.770	39.060	-0.270	0.243
-507.756	800.000	0.048	-0.150
-506.741	-200.000	-0.050	0.316
-505.726	-123.038	0.331	0.053
-504.712	-13.929	0.012	0.008
-503.697	51.273	-0.123	0.117
-502.683	463.068	-0.068	-0.153
-501.668	-200.000	-0.035	-0.228
-500.653	-200.000	0.020	-0.323
-499.639	-200.000	-0.029	-0.190
-498.624	-104.342	-0.320	-0.075
-497.610	-200.000	0.006	0.076
-496.595	24.149	0.142	0.118
-495.581	800.000	0.074	-0.220
-494.566	14.897	-0.289	0.227
-493.551	109.579	0.153	-0.184
-492.537	-83.186	-0.118	0.038
-491.522	-159.064	0.275	-0.016
-490.508	145.929	0.104	-0.140
-489.493	-54.131	-0.208	-0.095
-488.478	-138.479	-0.307	-0.034
-487.464	800.000	0.047	0.176
-486.449	38.242	-0.181	0.162
-485.435	-29.566	-0.241	0.138
-484.420	519.844	-0.050	0.117
-483.405	215.722	-0.040	0.063
-482.391	800.000	0.063	-0.237
-481.376	61.437	0.191	-0.191
-480.362	800.000	0.061	0.260
-479.347	-11.340	-0.226	-0.149
-478.332	32.266	-0.210	0.182
-477.318	47.184	-0.283	-0.265
-476.303	273.582	-0.103	-0.182
-475.289	12.017	0.095	-0.074
-474.274	-135.604	-0.167	-0.020
-473.259	495.325	-0.057	0.131
-472.245	-67.879	-0.420	-0.165
-471.230	156.560	-0.086	0.120
-470.216	171.355	0.174	-0.251
-469.201	-99.095	-0.088	0.022
-468.186	-28.962	0.313	-0.180
-467.172	69.478	0.117	-0.121
-466.157	-200.000	0.025	-0.305
-465.143	14.215	-0.187	-0.147
-464.128	-200.000	0.010	0.081
-463.113	-200.000	-0.030	0.348
-462.099	-200.000	0.003	-0.268
-461.084	800.000	-0.072	-0.287
-460.070	-67.681	0.040	-0.016
-459.055	56.339	0.092	-0.090
-458.040	-200.000	0.002	-0.019
-457.026	2.774	0.123	-0.089
-456.011	800.000	0.104	-0.413
-454.997	41.158	0.162	0.147
-453.982	800.000	0.013	-0.042
-452.968	116.133	0.202	-0.248
-451.953	-113.653	-0.135	0.026
-450.938	-106.308	-0.258	0.058
-449.924	237.182	-0.024	-0.040
-448.909	-12.537	-0.143	0.094
-447.895	-63.390	-0.080	-0.033
-446.880	800.000	-0.052	-0.148
-445.865	-200.000	-0.017	-0.191
-444.851	148.853	-0.095	0.129
-443.836	-66.481	0.430	0.171
-442.822	-26.693	0.261	0.153
-441.807	32.967	-0.166	0.144
-440.792	10.131	0.082	0.063
-439.778	-200.000	0.005	-0.056
-438.763	-51.619	0.084	0.039
-437.749	521.883	-0.105	0.247
-436.734	132.387	0.172	0.223
-435.719	-200.000	-0.034	-0.241
-434.705	-62.229	-0.091	0.038
-433.690	-120.603	0.379	-0.064
-432.676	151.512	0.146	-0.199
-431.661	347.864	-0.079	0.156
-430.646	-200.000	-0.034	0.233
-429.632	800.000	0.062	0.213
-428.617	-200.000	0.048	0.221
-427.603	-108.461	0.391	0.084
-426.588	-200.000	0.001	-0.139
-425.573	-95.838	0.284	0.076
-424.559	-200.000	-0.058	0.274
-423.544	31.870	0.056	-0.048
-422.530	-200.000	0.039	0.180
-421.515	-107.122	-0.236	0.052
-420.500	-95.146	0.182	0.049
-419.486	1.326	-0.366	0.264
-418.471	8.588	-0.149	0.112
-417.457	316.512	0.107	-0.202
-416.442	451.142	0.046	0.102
-415.428	219.535	-0.130	-0.208
-414.413	423.445	-0.142	-0.307
-413.398	482.583	-0.081	0.184
-412.384	800.000	0.059	0.215
-411.369	-157.258	-0.585	0.035
-410.355	-98.508	0.084	0.022
-409.340	118.502	0.385	0.476
-408.325	584.284	-0.044	-0.109
-407.311	-15.167	-0.095	-0.061
-406.296	-200.000	0.184	0.000
-405.282	340.661	-0.064	-0.126
-404.267	-18.304	-0.286	0.179
-403.252	-200.000	-0.023	0.110
-402.238	15.655	-0.098	-0.077
-401.223	1.389	0.451	-0.325
-400.209	110.225	-0.393	-0.473
-399.194	-98.393	-0.165	-0.042
-398.179	-66.835	-0.254	-0.100
-397.165	800.000	-0.056	0.227
-396.150	-53.650	-0.279	-0.128
-395.136	222.032	0.262	0.422
-394.121	33.515	0.153	-0.133
-393.106	47.848	-0.058	-0.054
-392.092	48.619	0.229	0.215
-391.077	202.986	-0.182	0.281
-390.063	93.376	0.199	0.225
-389.048	219.011	0.196	-0.314
-388.033	800.000	0.070	-0.273
-387.019	397.952	0.150	0.315
-386.004	231.732	0.121	-0.199
-384.990	-102.902	0.221	0.053
-383.975	77.414	-0.156	0.166
-382.960	-200.000	-0.023	-0.341
-381.946	-123.969	0.177	-0.028
-380.931	540.189	0.071	0.170
-379.917	59.977	-0.483	-0.478
-378.902	3.155	-0.253	-0.184
-377.888	193.816	-0.242	0.367
-376.873	-6.803	0.388	-0.264
-375.858	796.368	-0.039	0.108
-374.844	-39.529	0.168	0.088
-373.829	739.435	-0.070	0.188
-372.815	-169.456	0.258	-0.009
-371.800	115.733	-0.039	0.047
-370.785	-5.472	-0.329	0.226
-369.771	-200.000	-0.015	0.282
-368.756	673.407	0.065	0.168
-367.742	122.907	0.153	-0.192
-366.727	800.000	-0.013	0.046
-365.712	-77.951	-0.024	-0.008
-364.698	-9.347	-0.154	-0.103
-363.683	138.159	0.233	0.305
-362.669	800.000	0.095	-0.354
-361.654	-200.000	-0.014	-0.153
-360.639	248.724	-0.047	-0.080
-359.625	-23.656	-0.167	-0.100
-358.610	-200.000	-0.004	-0.205
-357.596	-200.000	-0.000	-0.158
-356.581	186.379	0.298	-0.444
-355.566	-25.831	-0.083	-0.049
-354.552	-200.000	0.028	0.191
-353.537	800.000	-0.055	0.155
-352.523	-154.670	-0.385	-0.026
-351.508	41.447	0.113	0.103
-350.493	-184.338	0.102	0.002
-349.479	-200.000	-0.025	0.237
-348.464	20.387	0.113	0.091
-347.450	622.775	-0.071	0.180
-346.435	-174.035	0.231	-0.007
-345.420	282.235	0.108	0.194
-344.406	-109.396	-0.094	-0.020
-343.391	23.202	-0.184	-0.151
-342.377	44.094	-0.273	-0.250
-341.362	-200.000	-0.010	-0.144
-340.348	800.000	0.060	0.204
-339.333	338.352	0.181	0.352
-338.318	-200.000	-0.037	0.181
-337.304	800.000	0.079	0.247
-336.289	-129.441	0.458	0.063
-335.275	661.217	-0.068	-0.175
-334.260	-38.824	0.185	0.098
-333.245	-200.000	0.014	0.081
-332.231	132.826	0.080	0.103
-331.216	-70.807	-0.206	-0.077
-330.202	-64.608	0.149	0.060
-329.187	-42.770	-0.219	0.111
-328.172	84.954	0.123	0.134
-327.158	-130.749	-0.337	0.045
-326.143	-200.000	0.005	-0.060
-325.129	723.120	-0.079	0.210
-324.114	-97.590	0.094	0.024
-323.099	-2.760	0.235	0.164
-322.085	-102.937	0.066	-0.016
-321.070	800.000	0.050	-0.142
-320.056	230.057	-0.119	0.195
-319.041	91.117	0.090	0.101
-318.026	-174.798	-0.078	-0.002
-317.012	-200.000	-0.011	-0.129
-315.997	-200.000	0.102	0.468
-314.983	472.783	-0.092	0.207
-313.968	57.044	-0.065	0.063
-312.953	-3.177	-0.154	-0.107
-311.939	-200.000	-0.039	-0.331
-310.924	-200.000	-0.009	-0.039
-309.910	166.646	0.110	-0.156
-308.895	-200.000	0.041	0.211
-307.880	800.000	-0.040	-0.146
-306.866	267.142	-0.018	0.031
-305.851	-44.638	-0.308	0.154
-304.837	-200.000	-0.000	-0.045
-303.822	-173.856	0.069	-0.002
-302.807	779.328	-0.179	0.487
-301.793	143.632	-0.108	0.143
-300.778	-90.967	-0.158	-0.045
-299.764	-200.000	-0.005	-0.036
-298.749	800.000	-0.058	-0.211
-297.735	64.762	0.269	-0.271
-296.720	-28.339	-0.190	0.109
-295.705	-69.088	0.297	-0.114
-294.691	-85.433	0.254	0.079
-293.676	-200.000	-0.051	0.232
-292.662	-200.000	0.071	-0.388
-291.647	83.161	0.241	0.262
-290.632	800.000	0.064	0.180
-289.618	-200.000	0.019	-0.149
-288.603	800.000	0.053	-0.206
-287.589	-92.104	-0.512	-0.144
-286.574	138.065	0.063	-0.082
-285.559	-80.657	0.118	-0.039
-284.545	-200.000	0.029	0.419
-283.530	-104.624	-0.417	0.096
-282.516	5.367	-0.157	0.115
-281.501	68.213	-0.254	-0.259
-280.486	73.276	0.208	0.217
-279.472	-54.403	-0.375	-0.170
-278.457	177.855	-0.151	0.220
-277.443	9.719	-0.098	0.074
-276.428	-124.581	-0.086	-0.013
-275.413	46.098	0.285	-0.263
-274.399	800.000	-0.066	0.260
-273.384	-75.983	-0.295	-0.104
-272.370	-40.000	0.168	0.087
-271.355	-30.753	-0.159	-0.089
-270.340	344.944	0.076	0.150
-269.326	-133.955	-0.203	0.025
-268.311	-91.700	0.224	-0.063
-267.297	61.101	-0.203	0.201
-266.282	19.492	0.168	-0.134
-265.267	-200.000	-0.036	0.209
-264.253	37.476	0.115	-0.101
-263.238	96.024	0.236	-0.268
-262.224	355.359	-0.099	0.197
-261.209	530.542	0.044	-0.103
-260.195	800.000	0.054	-0.161
-259.180	-104.160	0.169	-0.039
-258.165	-75.162	0.198	-0.070
-257.151	-0.922	-0.115	-0.081
-256.136	-29.056	0.246	0.140
-255.122	800.000	-0.048	0.186
-254.107	-200.000	0.019	-0.093
-253.092	-78.056	0.216	0.074
-252.078	12.790	0.339	-0.261
-251.063	-200.000	0.099	-0.513
-250.049	-9.115	0.200	0.133
-249.034	-114.705	-0.230	0.044
-248.019	-200.000	-0.027	-0.359
-247.005	-110.026	0.240	-0.050
-245.990	-200.000	0.016	0.123
-244.976	-10.741	-0.248	0.164
-243.961	310.467	-0.014	-0.025
-242.946	-200.000	0.036	0.242
-241.932	-154.145	0.157	-0.011
-240.917	-200.000	0.020	0.129
-239.903	437.694	0.074	0.160
-238.888	506.364	0.081	-0.187
-237.873	207.138	0.277	-0.431
-236.859	-200.000	0.025	-0.125
-235.844	287.279	-0.138	-0.248
-234.830	-85.607	-0.257	0.080
-233.815	15.336	0.237	-0.185
-232.800	-137.344	-0.136	-0.015
-231.786	-5.754	-0.154	-0.105
-230.771	-166.177	0.208	0.009
-229.757	676.434	0.083	-0.214
-228.742	-200.000	0.004	-0.143
-227.727	-200.000	0.019	-0.117
-226.713	48.751	-0.341	-0.318
-225.698	800.000	-0.087	-0.281
-224.684	205.141	0.081	-0.125
-223.669	457.736	-0.112	0.247
-222.655	800.000	0.058	0.231
-221.640	-147.566	0.215	0.018
-220.625	-200.000	-0.029	0.247
-219.611	2.223	-0.207	0.148
-218.596	-200.000	-0.004	-0.045
-217.582	45.754	0.052	-0.048
-216.567	-96.579	-0.160	-0.042
-215.552	0.172	-0.096	0.068
-214.538	-200.000	-0.009	-0.245
-213.523	-200.000	-0.014	-0.140
-212.509	-200.000	-0.055	-0.347
-211.494	-116.532	-0.242	-0.044
-210.479	-63.810	0.159	-0.065
-209.465	-21.050	-0.283	-0.172
-208.450	-154.661	0.284	-0.019
-207.436	-70.533	-0.092	0.034
-206.421	800.000	0.066	0.278
-205.406	-200.000	-0.019	0.149
-204.392	-104.704	-0.328	0.075
-203.377	-200.000	0.001	-0.014
-202.363	800.000	0.081	-0.289
-201.348	634.126	0.109	0.275
-200.333	184.962	-0.169	-0.250
-199.319	49.285	-0.038	0.035
-198.304	-105.471	-0.320	-0.072
-197.290	800.000	0.042	0.124
-196.275	-153.042	-0.198	0.014
-195.260	-53.176	0.083	-0.038
-194.246	800.000	0.022	0.084
-193.231	-166.071	-0.090	0.004
-192.217	-76.859	0.067	-0.023
-191.202	-116.373	0.368	0.068
-190.187	28.264	0.121	0.102
-189.173	-64.254	-0.236	-0.096
-188.158	-35.047	0.317	-0.172
-187.144	-92.189	0.070	-0.020
-186.129	-200.000	-0.019	0.121
-185.114	649.317	0.129	-0.329
-184.100	367.689	0.117	-0.234
-183.085	-200.000	0.003	0.318
-182.071	97.389	0.040	0.046
-181.056	-200.000	0.020	0.192
-180.042	-124.509	0.070	-0.011
-179.027	-79.931	0.097	-0.033
-178.012	-49.427	0.152	-0.072
-176.998	-200.000	-0.019	0.165
-175.983	-200.000	-0.018	0.144
-174.969	-5.323	-0.244	0.167
-173.954	94.292	0.154	0.174
-172.939	720.091	-0.040	0.106
-171.925	19.276	-0.093	-0.074
-170.910	-200.000	-0.006	-0.116
-169.896	442.815	0.071	0.154
-168.881	-135.583	0.179	-0.021
-167.866	-152.003	0.328	0.024
-166.852	188.978	-0.066	-0.098
-165.837	430.688	0.068	0.146
-164.823	67.125	-0.038	-0.038
-163.808	15.991	0.156	-0.122
-162.793	294.030	0.094	0.170
-161.779	800.000	-0.072	-0.263
-160.764	-200.000	0.002	0.153
-159.750	-200.000	-0.028	0.197
-158.735	-102.233	0.103	-0.025
-157.720	-81.949	-0.192	-0.062
-156.706	80.921	0.028	0.029
-155.691	-200.000	0.002	0.366
-154.677	-200.000	0.006	-0.052
-153.662	800.000	-0.102	0.294
-152.647	376.890	0.084	0.169
-151.633	-36.142	-0.147	0.079
-150.618	-200.000	0.078	0.407
-149.604	281.261	-0.013	0.023
-148.589	317.246	-0.101	0.189
-147.574	-27.620	-0.317	0.183
-146.560	-103.500	0.258	0.060
-145.545	800.000	0.073	-0.242
-144.531	-12.523	-0.104	0.067
-143.516	-200.000	0.019	-0.112
-142.502	29.354	0.063	-0.053
-141.487	800.000	0.029	0.117
-140.472	-54.533	-0.226	-0.101
-139.458	-18.954	-0.264	-0.163
-138.443	276.499	0.045	0.079
-137.429	-111.552	-0.293	-0.059
-136.414	-26.622	0.105	-0.061
-135.399	800.000	0.039	-0.163
-134.385	206.156	0.199	0.307
-133.370	-170.797	0.203	-0.007
-132.356	-41.050	0.209	0.107
-131.341	800.000	-0.045	-0.154
-130.326	-134.799	0.208	0.025
-129.312	47.985	0.092	0.085
-128.297	-200.000	0.041	-0.342
-127.283	671.369	0.019	-0.049
-126.268	-166.408	-0.177	0.007
-125.253	800.000	0.059	-0.179
-124.239	151.134	-0.160	-0.216
-123.224	-82.123	0.210	0.068
-122.210	496.826	-0.151	0.344
-121.195	-200.000	0.003	0.049
-120.180	-80.899	0.326	0.107
-119.166	-7.155	0.055	0.037
-118.151	-55.253	-0.258	-0.115
-117.137	481.963	-0.093	-0.209
-116.122	-107.203	0.294	-0.064
-115.107	-200.000	0.008	-0.079
-114.093	-162.368	0.317	-0.016
-113.078	-146.621	-0.266	0.023
-112.064	-115.880	0.200	0.037
-111.049	-77.814	-0.058	-0.020
-110.034	-125.433	0.173	0.026
-109.020	2.136	0.125	-0.089
-108.005	-53.246	0.319	-0.145
-106.991	193.009	0.150	-0.224
-105.976	247.583	0.088	0.147
-104.962	-200.000	-0.036	-0.221
-103.947	-112.900	0.074	-0.015
-102.932	343.276	-0.142	-0.276
-101.918	-45.331	0.143	-0.070
-100.903	-200.000	-0.017	-0.136
-99.889	132.083	0.216	-0.275
-98.874	53.649	0.195	0.185
-97.859	-163.281	0.371	0.018
-96.845	308.793	-0.083	-0.154
-95.830	-111.674	0.112	0.022
-94.816	-127.917	-0.230	-0.033
-93.801	97.434	0.137	0.156
-92.786	-33.461	0.364	0.199
-91.772	393.482	0.038	-0.078
-90.757	156.731	-0.087	-0.119
-89.743	-13.991	0.312	0.200
-88.728	-7.114	0.040	0.027
-87.713	-200.000	-0.014	-0.450
-86.699	-200.000	0.011	0.050
-85.684	4.629	-0.075	0.054
-84.670	-154.850	0.420	0.027
-83.655	-115.110	0.210	-0.039
-82.640	-200.000	0.023	-0.114
-81.626	739.952	0.057	0.152
-80.611	-85.699	0.096	0.030
-79.597	297.593	0.136	-0.248
-78.582	-77.299	-0.332	-0.114
-77.567	-200.000	0.020	0.136
-76.553	186.311	0.191	-0.281
-75.538	-200.000	-0.009	-0.218
-74.524	7.997	0.362	0.268
-73.509	800.000	-0.046	-0.134
-72.494	141.014	0.205	-0.268
-71.480	1.212	-0.071	-0.050
-70.465	-200.000	-0.000	-0.173
-69.451	-130.630	-0.299	-0.040
-68.436	685.696	0.104	-0.268
-67.422	0.517	0.169	0.120
-66.407	-30.806	-0.197	-0.110
-65.392	-169.484	0.343	0.012
-64.378	-200.000	-0.052	0.236
-63.363	-55.957	-0.195	0.086
-62.349	308.782	0.150	0.277
-61.334	248.738	-0.498	-0.834
-60.319	526.923	0.239	0.557
-59.305	-200.000	-0.130	-1.076
-58.290	187.697	0.692	1.021
-57.276	520.987	0.751	1.740
-56.261	-200.000	103.159	586.843
-55.246	540.720	1435.029	3376.791
-54.232	183.549	2631.368	3843.459
-53.217	104.817	2313.998	2695.212
-52.203	37.045	2066.122	1806.326
-51.188	32.167	1980.656	1687.851
-50.173	30.815	1962.320	1660.110
-49.159	46.049	2016.408	1844.015
-48.144	46.898	2034.897	1868.543
-47.130	32.912	1993.311	1705.094
-46.115	30.604	1983.363	1675.748
-45.100	30.566	1979.949	1672.449
-44.086	30.472	1977.724	1669.665
-43.071	30.481	1975.403	1667.715
-42.057	30.441	1973.406	1665.611
-41.042	30.515	1971.205	1664.348
-40.027	30.458	1969.305	1662.164
-39.013	30.569	1967.168	1661.285
-37.998	30.602	1965.234	1659.883
-36.984	30.595	1963.457	1658.254
-35.969	30.599	1961.292	1656.399
-34.954	30.624	1959.680	1655.195
-33.940	30.647	1958.213	1654.090
-32.925	30.649	1957.061	1653.070
-31.911	30.633	1954.985	1651.105
-30.896	30.623	1953.301	1649.529
-29.881	30.742	1951.826	1649.279
-28.867	30.676	1950.541	1647.544
-27.852	30.707	1948.672	1646.171
-26.838	30.676	1947.020	1644.439
-25.823	30.693	1944.672	1642.536
-24.809	30.660	1943.377	1641.087
-23.794	30.686	1941.637	1639.782
-22.779	30.668	1939.493	1637.751
-21.765	30.671	1938.510	1636.883
-20.750	30.665	1936.631	1635.178
-19.736	30.657	1934.709	1633.415
-18.721	30.717	1933.293	1632.687
-17.706	30.729	1931.898	1631.549
-16.692	30.752	1929.807	1629.917
-15.677	30.626	1929.026	1628.090
-14.663	30.679	1927.084	1626.850
-13.648	30.779	1925.364	1626.203
-12.633	30.631	1925.076	1624.602
-11.619	30.746	1922.821	1623.642
-10.604	30.698	1921.683	1622.193
-9.590	30.628	1920.488	1620.518
-8.575	30.591	1919.522	1619.315
-7.560	30.648	1917.737	1618.241
-6.546	30.628	1916.848	1617.248
-5.531	30.656	1914.945	1615.821
-4.517	30.638	1914.108	1614.897
-3.502	30.608	1912.686	1613.374
-2.487	30.626	1911.774	1612.699
-1.473	30.626	1911.229	1612.175
-0.458	30.673	1906.573	1608.586
0.556	29.920	1886.311	1580.954
1.571	25.693	1868.343	1529.913
2.586	21.785	1890.769	1514.447
3.600	20.875	1926.171	1534.657
4.615	20.354	1920.804	1525.664
5.629	15.972	1821.167	1409.808
6.644	8.475	1706.583	1261.991
7.659	5.103	1672.426	1210.497
8.673	4.866	1669.470	1206.420
9.688	4.875	1668.034	1205.340
10.702	4.820	1666.751	1203.881
11.717	4.719	1663.897	1200.937
12.731	5.160	1662.610	1203.298
13.746	10.083	1674.350	1249.829
14.761	16.925	1688.799	1313.685
15.775	19.161	1691.600	1333.079
16.790	18.562	1688.669	1326.022
17.804	17.499	1685.361	1315.097
18.819	16.491	1681.897	1304.500
19.834	15.831	1679.921	1297.764
20.848	15.579	1677.881	1294.135
21.863	15.363	1676.646	1291.404
22.877	15.044	1675.090	1287.636
23.892	14.834	1673.651	1284.804
24.907	14.784	1672.437	1283.378
25.921	14.650	1671.762	1281.712
26.936	14.645	1670.920	1280.920
27.950	14.762	1669.765	1280.818
28.965	14.765	1669.361	1280.419
29.980	14.852	1668.686	1280.449
30.994	14.863	1667.647	1279.627
32.009	14.994	1666.449	1279.594
33.023	15.148	1665.397	1279.853
34.038	15.117	1664.244	1278.611
35.053	15.128	1663.317	1277.874
36.067	14.901	1662.055	1275.061
37.082	14.916	1661.032	1274.277
38.096	14.993	1659.638	1273.681
39.111	14.980	1658.868	1272.875
40.126	14.948	1658.639	1272.344
41.140	14.960	1657.452	1271.418
42.155	14.862	1655.636	1269.166
43.169	14.776	1654.169	1267.276
44.184	14.709	1653.160	1265.880
45.199	14.632	1651.767	1264.118
46.213	14.670	1650.550	1263.365
47.228	14.704	1649.746	1262.892
48.242	14.790	1648.460	1262.450
49.257	14.914	1647.454	1262.499
50.271	14.897	1645.954	1261.112
51.286	14.831	1644.929	1259.720
52.301	14.835	1643.758	1258.742
53.315	14.887	1642.134	1257.780
54.330	14.887	1640.582	1256.476
55.344	14.764	1639.206	1254.391
56.359	14.783	1637.303	1252.964
57.374	14.814	1636.653	1252.588
58.388	14.879	1635.426	1252.026
59.403	14.749	1634.010	1249.858
60.417	14.675	1633.130	1248.522
61.432	14.673	1632.174	1247.661
62.447	14.646	1630.950	1246.415
63.461	14.633	1629.779	1245.311
64.476	14.597	1628.420	1243.897
65.490	14.538	1627.754	1242.838
66.505	14.602	1625.987	1241.852
67.520	14.578	1625.070	1240.867
68.534	14.580	1624.149	1240.066
69.549	14.601	1623.402	1239.545
70.563	14.691	1621.287	1238.487
71.578	14.640	1620.746	1237.586
72.593	14.520	1619.850	1235.902
73.607	14.598	1618.450	1235.303
74.622	14.509	1617.654	1233.925
75.636	14.483	1616.403	1232.670
76.651	14.548	1615.794	1232.576
77.666	14.445	1615.152	1231.218
78.680	14.506	1614.308	1230.919
79.695	14.557	1612.996	1230.187
80.709	14.590	1612.219	1229.724
81.724	14.606	1611.804	1229.417
82.739	14.653	1610.761	1228.857
83.753	14.697	1609.881	1228.406
84.768	14.790	1609.160	1228.431
85.782	14.796	1608.457	1227.825
86.797	14.934	1607.105	1227.702
87.812	14.972	1606.104	1227.104
88.826	14.903	1604.793	1225.491
89.841	14.893	1603.534	1224.346
90.855	14.870	1602.756	1223.479
91.870	14.814	1601.877	1222.289
92.884	14.970	1600.725	1222.439
93.899	14.966	1599.372	1221.273
94.914	14.889	1598.369	1219.833
95.928	15.008	1597.025	1219.567
96.943	15.051	1596.292	1219.213
97.957	15.062	1594.203	1217.592
98.972	14.979	1593.293	1216.181
99.987	14.911	1591.714	1214.379
101.001	14.924	1589.924	1212.997
102.016	14.951	1588.677	1212.133
103.030	14.984	1587.220	1211.154
104.045	14.980	1585.798	1209.936
105.060	14.990	1584.414	1208.842
106.074	14.982	1583.000	1207.601
107.089	14.744	1581.338	1204.508
108.103	14.739	1579.507	1202.973
109.118	14.592	1578.403	1200.969
110.133	14.591	1576.749	1199.593
111.147	14.650	1575.889	1199.255
112.162	14.651	1574.268	1197.925
113.176	14.657	1572.900	1196.822
114.191	14.728	1571.274	1195.989
115.206	14.729	1570.313	1195.156
116.220	14.726	1568.592	1193.721
117.235	14.689	1567.588	1192.583
118.249	14.688	1566.379	1191.552
119.264	14.668	1564.870	1190.160
120.279	14.754	1563.102	1189.317
121.293	14.735	1561.693	1188.011
122.308	14.625	1560.465	1186.186
123.322	14.630	1558.622	1184.718
124.337	14.517	1558.116	1183.424
125.352	14.551	1556.347	1182.216
126.366	14.575	1555.503	1181.640
127.381	14.583	1554.155	1180.566
128.395	14.559	1553.193	1179.564
129.410	14.634	1551.508	1178.707
130.424	14.626	1550.140	1177.507
131.439	14.585	1549.274	1176.457
132.454	14.701	1547.196	1175.598
133.468	14.688	1546.195	1174.642
134.483	14.740	1544.840	1173.872
135.497	14.688	1543.870	1172.664
136.512	14.754	1542.196	1171.749
137.527	14.717	1541.044	1170.516
138.541	14.656	1540.530	1169.590
139.556	14.841	1538.165	1168.987
140.570	14.862	1537.042	1168.176
141.585	14.929	1535.796	1167.596
142.600	14.994	1534.813	1167.198
143.614	15.051	1533.544	1166.525
144.629	15.080	1532.441	1165.786
145.643	15.100	1531.105	1164.807
146.658	15.126	1529.620	1163.752
147.673	15.065	1528.093	1162.065
148.687	15.009	1527.040	1160.771
149.702	15.056	1524.622	1159.160
150.716	14.883	1523.461	1156.978
151.731	14.895	1522.231	1156.025
152.746	14.874	1521.000	1154.842
153.760	14.936	1519.201	1153.802
154.775	14.874	1518.107	1152.441
155.789	14.985	1516.960	1152.230
156.804	15.024	1515.369	1151.192
157.819	15.066	1514.630	1150.817
158.833	15.007	1513.907	1149.759
159.848	15.051	1512.580	1148.951
160.862	15.119	1511.462	1148.466
161.877	15.263	1509.928	1148.188
162.892	15.065	1508.774	1145.851
163.906	15.026	1507.669	1144.643
164.921	15.003	1506.215	1143.283
165.935	14.985	1505.126	1142.232
166.950	14.971	1504.629	1141.659
167.964	14.943	1503.738	1140.692
168.979	15.030	1502.626	1140.337
169.994	15.122	1500.994	1139.625
171.008	15.011	1500.606	1138.474
172.023	15.137	1499.056	1138.056
173.037	15.116	1498.052	1137.044
174.052	15.154	1497.318	1136.650
175.067	15.199	1496.151	1135.964
176.081	15.140	1494.891	1134.513
177.096	14.991	1493.795	1132.568
178.110	15.020	1491.900	1131.228
179.125	15.054	1490.631	1130.394
180.140	15.053	1490.197	1129.962
181.154	15.044	1489.459	1129.236
182.169	15.206	1488.046	1129.158
183.183	15.146	1486.660	1127.604
184.198	15.267	1485.556	1127.481
185.213	15.296	1484.517	1126.785
186.227	15.253	1483.459	1125.594
187.242	15.272	1482.137	1124.620
188.256	15.387	1481.246	1124.620
189.271	15.366	1480.291	1123.652
190.286	15.540	1479.002	1123.741
191.300	15.501	1477.735	1122.412
192.315	15.227	1476.724	1119.717
193.329	14.968	1475.855	1117.228
194.344	15.010	1474.383	1116.295
195.359	15.035	1473.302	1115.543
196.373	15.171	1472.685	1115.883
197.388	15.275	1471.505	1115.587
198.402	15.333	1470.263	1114.933
199.417	15.377	1469.799	1114.776
200.432	15.544	1468.410	1114.728
201.446	15.560	1467.185	1113.807
202.461	15.651	1466.264	1113.610
203.475	15.633	1465.243	1112.618
204.490	15.677	1464.603	1112.324
205.504	15.692	1463.142	1111.215
206.519	15.593	1462.112	1109.681
207.534	15.480	1461.148	1108.109
208.548	15.487	1459.597	1106.879
209.563	15.520	1458.815	1106.405
210.577	15.586	1457.710	1105.906
211.592	15.564	1456.977	1105.101
212.607	15.540	1456.403	1104.411
213.621	15.703	1455.473	1104.683
214.636	15.652	1454.676	1103.641
215.650	15.743	1453.306	1103.104
216.665	15.648	1453.069	1102.203
217.680	15.634	1452.491	1101.574
218.694	15.712	1451.403	1101.166
219.709	15.846	1450.523	1101.278
220.723	15.885	1449.400	1100.579
221.738	15.879	1448.165	1099.507
222.753	15.825	1447.603	1098.627
223.767	15.824	1446.548	1097.725
224.782	15.853	1445.701	1097.173
225.796	15.902	1444.953	1096.829
226.811	15.900	1443.880	1095.904
227.826	15.950	1442.892	1095.380
228.840	15.916	1442.315	1094.625
229.855	15.931	1441.029	1093.652
230.869	15.914	1439.601	1092.362
231.884	15.830	1439.153	1091.377
232.899	15.838	1438.080	1090.520
233.913	15.821	1436.570	1089.168
234.928	15.724	1435.726	1087.808
235.942	15.830	1434.012	1087.096
236.957	15.770	1433.241	1086.026
237.972	15.689	1432.138	1084.574
238.986	15.767	1430.815	1083.980
240.001	15.775	1430.092	1083.388
241.015	15.862	1429.080	1083.085
242.030	15.937	1427.921	1082.590
243.045	15.794	1427.122	1080.968
244.059	15.918	1426.394	1081.123
245.074	15.876	1425.636	1080.181
246.088	15.909	1424.660	1079.553
247.103	15.987	1423.767	1079.282
248.117	16.136	1423.132	1079.663
249.132	16.110	1422.461	1078.889
250.147	16.130	1421.922	1078.515
251.161	16.292	1421.394	1079.052
252.176	16.347	1420.765	1078.835
253.190	16.432	1419.769	1078.523
254.205	16.446	1418.572	1077.604
255.220	16.461	1418.381	1077.460
256.234	16.531	1417.330	1077.012
257.249	16.420	1416.903	1075.889
258.263	16.413	1415.865	1074.960
259.278	16.526	1414.852	1074.816
260.293	16.544	1413.732	1073.985
261.307	16.489	1413.295	1073.203
262.322	16.551	1412.523	1072.916
263.336	16.562	1411.864	1072.391
264.351	16.695	1410.264	1071.928
265.366	16.684	1409.519	1071.197
266.380	16.716	1408.593	1070.595
267.395	16.693	1407.666	1069.652
268.409	16.620	1407.162	1068.714
269.424	16.659	1405.876	1067.891
270.439	16.549	1405.013	1066.444
271.453	16.609	1404.425	1066.283
272.468	16.673	1402.912	1065.445
273.482	16.647	1402.285	1064.706
274.497	16.574	1401.065	1063.230
275.512	16.629	1400.132	1062.774
276.526	16.656	1399.398	1062.290
277.541	16.578	1398.776	1061.238
278.555	16.567	1398.125	1060.581
279.570	16.669	1396.914	1060.207
280.585	16.654	1396.217	1059.488
281.599	16.822	1395.205	1059.677
282.614	16.892	1393.991	1059.102
283.628	16.849	1392.827	1057.854
284.643	16.751	1392.059	1056.562
285.657	16.726	1390.976	1055.493
286.672	16.781	1389.923	1054.943
287.687	16.741	1389.550	1054.316
288.701	16.777	1388.110	1053.355
289.716	16.787	1387.739	1053.045
290.730	16.773	1386.938	1052.252
291.745	16.814	1385.649	1051.442
292.760	16.960	1384.259	1051.194
293.774	16.825	1383.591	1049.762
294.789	16.879	1383.020	1049.568
295.803	16.909	1382.340	1049.145
296.818	17.024	1381.078	1048.807
297.833	16.889	1380.467	1047.412
298.847	16.892	1379.099	1046.301
299.862	16.930	1378.020	1045.622
300.876	16.862	1377.395	1044.639
301.891	16.928	1376.309	1044.127
302.906	17.025	1375.577	1044.076
303.920	17.023	1375.130	1043.636
304.935	17.194	1374.171	1043.864
305.949	17.171	1373.538	1043.149
306.964	17.203	1372.725	1042.638
307.979	17.216	1371.597	1041.771
308.993	17.110	1371.073	1040.630
310.008	17.173	1370.130	1040.206
311.022	17.141	1368.885	1038.972
312.037	17.210	1368.040	1038.664
313.052	17.275	1366.996	1038.173
314.066	17.190	1365.808	1036.662
315.081	17.240	1364.612	1035.968
316.095	17.098	1363.481	1034.153
317.110	16.966	1362.486	1032.503
318.125	17.124	1361.413	1032.558
319.139	17.103	1360.905	1031.957
320.154	17.095	1359.687	1030.889
321.168	17.103	1358.745	1030.131
322.183	17.124	1358.105	1029.682
323.197	17.065	1357.146	1028.510
324.212	17.138	1356.278	1028.202
325.227	17.150	1355.852	1027.860
326.241	17.296	1354.297	1027.474
327.256	17.258	1353.881	1026.836
328.270	17.286	1352.992	1026.244
329.285	17.298	1351.777	1025.303
330.300	17.193	1351.194	1024.134
331.314	17.195	1350.062	1023.196
332.329	17.105	1349.672	1022.272
333.343	17.221	1348.270	1021.815
334.358	17.300	1347.110	1021.322
335.373	17.236	1347.173	1020.893
336.387	17.478	1345.865	1021.266
337.402	17.422	1344.917	1020.122
338.416	17.499	1344.155	1019.914
339.431	17.430	1344.028	1019.312
340.446	17.483	1343.325	1019.006
341.460	17.632	1342.186	1018.943
342.475	17.631	1341.097	1018.022
343.489	17.644	1340.708	1017.713
344.504	17.697	1339.418	1016.957
345.519	17.669	1338.702	1016.157
346.533	17.731	1337.990	1015.898
347.548	17.715	1337.360	1015.233
348.562	17.820	1336.303	1014.964
349.577	17.814	1335.820	1014.475
350.592	17.772	1334.493	1013.126
351.606	17.753	1333.690	1012.314
352.621	17.623	1332.678	1010.688
353.635	17.652	1331.387	1009.792
354.650	17.677	1330.404	1009.103
355.665	17.676	1329.792	1008.545
356.679	17.667	1328.323	1007.287
357.694	17.755	1327.198	1006.867
358.708	17.675	1326.314	1005.630
359.723	17.774	1325.346	1005.391
360.738	17.705	1324.831	1004.510
361.752	17.838	1323.244	1003.999
362.767	17.854	1322.048	1003.096
363.781	17.827	1321.478	1002.418
364.796	17.807	1320.543	1001.501
365.810	17.803	1320.189	1001.118
366.825	17.909	1319.631	1001.228
367.840	17.977	1319.195	1001.207
368.854	18.081	1317.905	1000.748
369.869	18.093	1317.829	1000.674
370.883	18.150	1317.131	1000.391
371.898	18.194	1316.140	999.803
372.913	18.089	1315.063	998.287
373.927	18.041	1313.956	997.079
374.942	18.077	1313.212	996.635
375.956	18.123	1312.575	996.327
376.971	18.139	1312.202	996.053
377.986	18.089	1311.243	994.944
379.000	18.158	1310.215	994.480
380.015	18.205	1309.573	994.177
381.029	18.342	1308.930	994.394
382.044	18.207	1308.349	993.084
383.059	18.273	1307.857	993.006
384.073	18.295	1306.448	991.972
385.088	18.211	1306.515	991.451
386.102	18.324	1305.810	991.483
387.117	18.342	1304.688	990.647
388.132	18.340	1303.829	989.892
389.146	18.306	1302.685	988.740
390.161	18.263	1301.999	987.885
391.175	18.174	1301.120	986.621
392.190	18.242	1300.730	986.626
393.205	18.337	1299.412	986.089
394.219	18.302	1298.753	985.300
395.234	18.382	1297.408	984.652
396.248	18.415	1295.913	983.620
397.263	18.321	1294.494	981.914
398.278	18.338	1293.353	981.059
399.292	18.275	1292.530	979.991
400.307	18.270	1291.449	979.052
401.321	18.248	1290.321	977.987
402.336	18.246	1289.087	976.952
403.350	18.285	1288.214	976.425
404.365	18.193	1287.827	975.522
405.380	18.278	1286.896	975.218
406.394	18.314	1286.182	974.795
407.409	18.431	1285.478	974.843
408.423	18.411	1284.945	974.235
409.438	18.553	1283.575	973.915
410.453	18.526	1283.136	973.344
411.467	18.643	1282.501	973.443
412.482	18.721	1281.850	973.304
413.496	18.739	1281.516	973.067
414.511	18.693	1280.741	972.131
415.526	18.773	1279.725	971.724
416.540	18.722	1278.844	970.684
417.555	18.834	1278.294	970.812
418.569	18.865	1277.615	970.388
419.584	18.850	1277.223	969.915
420.599	18.835	1276.817	969.440
421.613	141.203	1432.534	1796.500
422.628	135.891	1455.173	1796.567
