DTS Sentinel unit serial number:	SN413079Multiplexer serial number:	ORYXHardware model number:	OX4-SRSoftware version number:	ORYX F/W v4.00 Oryx Data Collector v3.7.2.0data status	okinstallation	princeton_trtdifferential loss correction	single-endedforward channel	channel 4reverse channel	N/Adate	2019/09/15time	17:29:35forward acquisition time	60.00reverse acquisition time	0.00gamma	496.2192k internal	0.2275k external	0.2275temperature offset calibration	0.9922default loss term (dB/km)	0.3790temperature slope calibration	1.0000multiplexer offset coefficient	1.0000multiplexer slope coefficient	1.0000fibre end	0.00T internal ref (°C)	44.81T ext. ref 1 (°C)	6.14T ext. ref 2 (°C)	40.58length (m)	temperature (°C)	Stokes	anti-Stokes-747.200	46.231	-0.104	0.100
-746.185	-101.200	-0.055	0.014
-745.171	711.327	-0.105	-0.288
-744.156	-104.727	-0.146	0.035
-743.142	-116.576	0.201	-0.038
-742.127	133.555	-0.044	0.059
-741.112	463.072	-0.095	-0.218
-740.098	-200.000	-0.025	0.561
-739.083	800.000	0.068	0.300
-738.069	532.701	-0.063	0.153
-737.054	-53.202	0.276	-0.130
-736.039	-200.000	-0.040	-0.343
-735.025	-151.410	0.184	-0.014
-734.010	369.190	-0.061	-0.128
-732.996	597.161	-0.124	-0.316
-731.981	-200.000	-0.001	-0.081
-730.966	17.646	-0.116	-0.095
-729.952	15.638	-0.074	0.060
-728.937	-72.602	0.191	0.073
-727.923	-132.889	0.177	-0.023
-726.908	800.000	0.126	-0.359
-725.894	-200.000	-0.038	-0.306
-724.879	15.402	0.142	-0.115
-723.864	10.658	-0.036	0.029
-722.850	-200.000	0.043	0.221
-721.835	-200.000	-0.001	0.174
-720.821	5.478	-0.261	0.199
-719.806	435.290	0.106	0.238
-718.791	800.000	-0.094	-0.378
-717.777	-54.391	0.062	-0.029
-716.762	-130.119	-0.095	0.013
-715.748	91.143	0.068	0.079
-714.733	-83.289	0.054	-0.018
-713.718	56.409	-0.074	-0.074
-712.704	612.333	-0.135	-0.347
-711.689	-108.449	0.008	0.002
-710.675	-200.000	0.002	-0.028
-709.660	-84.161	0.269	0.088
-708.645	800.000	0.078	0.255
-707.631	-200.000	0.038	-0.352
-706.616	9.634	-0.213	-0.166
-705.602	105.765	0.152	-0.185
-704.587	-60.686	0.287	0.125
-703.572	-108.668	0.222	0.049
-702.558	-200.000	-0.020	-0.182
-701.543	-96.263	-0.045	-0.012
-700.529	-200.000	-0.006	-0.358
-699.514	-82.603	-0.162	-0.054
-698.499	800.000	0.080	-0.328
-697.485	380.849	0.221	-0.467
-696.470	-80.552	0.382	-0.131
-695.456	800.000	-0.063	-0.278
-694.441	356.532	-0.112	0.229
-693.426	25.379	0.202	0.173
-692.412	40.039	0.060	-0.055
-691.397	237.774	-0.126	0.215
-690.383	-77.990	0.300	-0.106
-689.368	-78.637	0.183	0.064
-688.354	-101.926	-0.089	-0.022
-687.339	-200.000	0.078	-0.359
-686.324	535.525	0.054	-0.132
-685.310	56.581	-0.115	0.116
-684.295	50.649	-0.054	-0.052
-683.281	-12.150	-0.160	0.108
-682.266	425.956	-0.075	0.166
-681.251	-200.000	-0.022	0.181
-680.237	-98.974	0.368	0.096
-679.222	173.229	-0.185	0.274
-678.208	160.098	-0.169	0.242
-677.193	70.512	-0.040	-0.043
-676.178	133.364	-0.118	-0.157
-675.164	-133.789	-0.177	-0.023
-674.149	800.000	-0.065	-0.254
-673.135	2.852	-0.055	-0.041
-672.120	-173.499	0.048	0.001
-671.105	9.758	-0.134	0.105
-670.091	158.246	0.020	-0.029
-669.076	16.926	-0.049	-0.040
-668.062	119.343	-0.037	-0.047
-667.047	-16.619	-0.030	0.020
-666.032	465.820	0.104	-0.239
-665.018	46.584	0.147	0.140
-664.003	318.125	-0.072	-0.140
-662.989	135.718	0.121	0.162
-661.974	-179.732	0.397	-0.009
-660.959	800.000	0.053	-0.170
-659.945	-200.000	-0.018	-0.153
-658.930	-123.620	-0.138	0.023
-657.916	-75.480	0.049	-0.018
-656.901	4.567	-0.262	-0.198
-655.886	-27.485	-0.152	-0.091
-654.872	-200.000	0.044	0.412
-653.857	200.637	-0.188	0.298
-652.843	135.734	-0.065	0.086
-651.828	477.731	0.140	-0.327
-650.814	203.090	0.125	0.198
-649.799	-42.717	-0.031	0.016
-648.784	206.206	-0.133	-0.212
-647.770	235.975	-0.114	0.194
-646.755	6.717	-0.052	0.040
-645.741	640.013	-0.151	-0.395
-644.726	277.148	-0.117	0.213
-643.711	25.163	-0.210	0.179
-642.697	28.944	0.276	-0.240
-641.682	785.446	0.128	0.361
-640.668	709.027	-0.017	-0.047
-639.653	-156.131	-0.304	0.020
-638.638	327.638	-0.089	-0.175
-637.624	-104.308	-0.165	0.039
-636.609	-109.167	0.327	0.071
-635.595	800.000	0.080	0.246
-634.580	-21.519	-0.202	0.127
-633.565	-33.462	0.247	-0.140
-632.551	443.108	-0.072	-0.162
-631.536	-7.842	0.099	0.068
-630.522	-168.908	0.551	0.021
-629.507	-200.000	0.011	-0.387
-628.492	-90.404	-0.233	0.069
-627.478	96.611	-0.160	-0.188
-626.463	-104.796	0.131	-0.031
-625.449	-170.302	-0.324	0.012
-624.434	-48.163	0.091	0.045
-623.419	-25.162	-0.041	0.025
-622.405	-138.300	-0.134	-0.015
-621.390	166.528	-0.169	0.245
-620.376	-110.411	-0.107	-0.023
-619.361	-97.714	0.210	0.056
-618.346	261.098	-0.141	0.251
-617.332	155.003	-0.084	0.119
-616.317	126.229	0.125	0.163
-615.303	-182.247	0.189	0.004
-614.288	-113.957	0.271	-0.054
-613.273	-117.949	0.250	-0.046
-612.259	-131.015	0.304	-0.042
-611.244	765.819	0.110	0.306
-610.230	104.652	-0.177	-0.214
-609.215	-64.582	-0.316	-0.132
-608.201	-143.682	-0.222	-0.022
-607.186	18.984	0.079	0.065
-606.171	-4.674	0.173	-0.122
-605.157	196.912	-0.178	-0.278
-604.142	172.148	-0.148	-0.219
-603.128	-133.360	0.255	-0.033
-602.113	9.925	0.098	-0.076
-601.098	-200.000	0.057	0.310
-600.084	97.537	-0.157	-0.184
-599.069	-75.045	-0.099	-0.036
-598.055	-179.826	-0.277	-0.006
-597.040	-76.814	-0.303	0.109
-596.025	148.271	-0.135	-0.186
-595.011	-200.000	0.009	0.092
-593.996	67.405	0.027	0.028
-592.982	-129.064	0.060	0.009
-591.967	-166.116	0.269	-0.012
-590.952	800.000	0.066	0.190
-589.938	5.582	0.090	-0.068
-588.923	-75.479	0.014	0.005
-587.909	-128.382	-0.204	-0.030
-586.894	-117.744	0.209	0.038
-585.879	-92.011	-0.133	-0.038
-584.865	-43.867	-0.148	-0.077
-583.850	207.213	0.234	0.374
-582.836	-200.000	0.053	0.303
-581.821	42.162	0.149	0.139
-580.806	-62.319	-0.155	-0.066
-579.792	46.111	0.088	-0.084
-578.777	274.074	0.090	0.164
-577.763	-200.000	-0.006	-0.063
-576.748	-29.639	-0.247	0.144
-575.733	-200.000	0.017	-0.225
-574.719	-166.428	0.129	0.006
-573.704	603.054	0.016	0.042
-572.690	139.395	0.153	0.207
-571.675	1.963	-0.137	0.101
-570.661	-55.759	-0.186	0.085
-569.646	130.850	0.121	0.160
-568.631	800.000	-0.020	0.073
-567.617	72.889	-0.050	-0.054
-566.602	-89.655	-0.408	-0.123
-565.588	-111.559	-0.213	-0.044
-564.573	-200.000	0.001	-0.310
-563.558	27.674	-0.250	-0.216
-562.544	-60.406	0.324	-0.141
-561.529	800.000	-0.011	-0.049
-560.515	-27.628	0.264	-0.157
-559.500	108.028	0.173	-0.211
-558.485	-4.051	-0.110	0.078
-557.471	-26.017	0.247	0.149
-556.456	-200.000	0.011	0.063
-555.442	67.720	-0.049	-0.051
-554.427	-79.098	0.093	-0.032
-553.412	800.000	0.132	0.450
-552.398	-89.890	0.165	-0.049
-551.383	15.073	0.154	-0.124
-550.369	-175.701	-0.094	0.003
-549.354	9.983	-0.138	0.107
-548.339	-125.926	0.139	0.021
-547.325	-85.509	-0.160	-0.051
-546.310	-42.655	-0.361	-0.188
-545.296	89.440	0.052	0.060
-544.281	143.380	-0.235	0.320
-543.266	800.000	0.043	0.123
-542.252	125.736	-0.125	0.162
-541.237	-200.000	0.069	0.324
-540.223	-85.728	0.186	0.059
-539.208	-122.335	0.241	0.040
-538.193	-144.142	0.049	-0.005
-537.179	-200.000	-0.011	-0.153
-536.164	-182.564	-0.122	0.002
-535.150	356.804	0.072	0.146
-534.135	-135.206	-0.058	0.007
-533.121	171.627	0.165	-0.242
-532.106	-200.000	-0.018	-0.141
-531.091	649.753	0.095	0.250
-530.077	-9.085	0.024	-0.017
-529.062	-62.904	0.290	-0.122
-528.048	307.031	-0.112	-0.213
-527.033	-200.000	0.021	-0.282
-526.018	43.482	0.073	0.068
-525.004	800.000	0.105	-0.367
-523.989	28.244	0.085	-0.074
-522.975	474.206	-0.127	0.293
-521.960	-200.000	-0.008	-0.047
-520.945	246.786	-0.138	-0.237
-519.931	701.601	-0.034	0.092
-518.916	-137.123	0.528	0.062
-517.902	-200.000	-0.005	0.038
-516.887	174.044	0.154	-0.228
-515.872	-43.865	0.189	-0.097
-514.858	-140.455	0.173	0.018
-513.843	4.446	0.121	0.091
-512.829	-106.896	0.154	-0.035
-511.814	12.392	0.300	-0.236
-510.799	-27.288	0.200	0.119
-509.785	-0.904	-0.270	0.196
-508.770	-81.255	0.088	-0.030
-507.756	-37.896	-0.059	0.032
-506.741	92.328	0.159	-0.183
-505.726	-47.105	0.017	-0.009
-504.712	40.915	-0.129	0.119
-503.697	-74.251	-0.105	0.039
-502.683	532.133	0.118	-0.285
-501.668	-200.000	0.061	-0.544
-500.653	342.699	0.195	-0.390
-499.639	-94.121	-0.240	0.067
-498.624	143.151	-0.110	0.149
-497.610	21.964	0.270	0.225
-496.595	132.425	-0.110	0.144
-495.581	-200.000	0.075	-0.376
-494.566	-52.619	-0.275	0.130
-493.551	29.656	0.081	-0.071
-492.537	126.311	-0.197	-0.255
-491.522	-3.880	-0.096	0.068
-490.508	-200.000	0.034	-0.186
-489.493	-53.440	-0.154	-0.072
-488.478	-83.421	0.012	-0.004
-487.464	92.125	0.253	0.290
-486.449	79.134	-0.109	-0.120
-485.435	-15.855	-0.114	-0.074
-484.420	800.000	-0.030	-0.109
-483.405	389.606	-0.065	0.138
-482.391	-143.206	0.142	-0.014
-481.376	-200.000	0.027	-0.380
-480.362	-74.778	-0.023	-0.008
-479.347	-200.000	-0.006	-0.116
-478.332	-200.000	0.005	-0.267
-477.318	30.734	-0.127	0.111
-476.303	453.387	0.100	-0.225
-475.289	-123.542	0.362	0.059
-474.274	-48.721	0.198	-0.097
-473.259	-40.200	-0.409	-0.217
-472.245	120.516	-0.192	0.244
-471.230	800.000	0.062	-0.243
-470.216	-200.000	-0.014	0.123
-469.201	-200.000	0.039	0.241
-468.186	46.207	-0.089	-0.084
-467.172	76.591	0.107	-0.116
-466.157	-200.000	-0.030	0.226
-465.143	-200.000	0.051	0.361
-464.128	15.224	-0.322	0.257
-463.113	321.908	0.086	0.166
-462.099	411.576	-0.138	-0.299
-461.084	800.000	0.023	-0.072
-460.070	-43.388	0.308	0.159
-459.055	-162.827	0.168	-0.008
-458.040	261.686	-0.088	0.155
-457.026	-39.887	0.211	0.112
-456.011	1.963	-0.236	0.173
-454.997	800.000	-0.013	0.047
-453.982	-63.094	0.151	0.064
-452.968	68.937	-0.076	0.080
-451.953	-97.171	0.107	0.029
-450.938	-42.257	-0.496	-0.258
-449.924	538.974	-0.113	-0.274
-448.909	572.833	-0.091	-0.226
-447.895	211.662	-0.080	0.129
-446.880	97.736	0.202	0.236
-445.865	-163.152	-0.339	0.017
-444.851	335.627	0.102	0.201
-443.836	-4.560	-0.149	0.105
-442.822	-166.457	0.264	0.011
-441.807	213.848	-0.112	0.181
-440.792	-6.361	0.357	0.248
-439.778	181.935	0.243	0.364
-438.763	-200.000	0.063	-0.337
-437.749	-200.000	-0.003	-0.161
-436.734	-200.000	-0.003	0.162
-435.719	800.000	0.064	0.247
-434.705	-61.567	0.070	-0.030
-433.690	556.988	-0.105	-0.257
-432.676	100.468	-0.096	-0.114
-431.661	246.896	-0.154	0.264
-430.646	800.000	-0.047	-0.165
-429.632	-77.253	0.306	0.108
-428.617	67.925	-0.256	-0.267
-427.603	-199.421	0.172	-0.001
-426.588	-92.111	-0.107	0.031
-425.573	43.573	0.235	0.219
-424.559	800.000	-0.050	-0.197
-423.544	-56.542	0.079	0.035
-422.530	383.287	0.136	0.285
-421.515	-124.723	0.205	0.032
-420.500	-57.395	-0.231	0.103
-419.486	18.680	-0.244	-0.199
-418.471	-61.130	0.367	0.158
-417.457	135.222	-0.073	-0.097
-416.442	-103.171	0.239	-0.057
-415.428	-92.756	-0.309	-0.088
-414.413	183.443	-0.177	0.266
-413.398	-99.418	-0.408	-0.105
-412.384	-41.834	0.300	0.157
-411.369	-200.000	-0.025	-0.201
-410.355	-55.102	-0.239	0.109
-409.340	-64.230	0.028	0.012
-408.325	-156.768	0.117	-0.007
-407.311	-2.448	0.333	0.238
-406.296	297.017	-0.223	0.417
-405.282	800.000	0.063	0.186
-404.267	-170.197	0.113	-0.004
-403.252	-74.806	-0.180	0.066
-402.238	118.554	-0.132	0.166
-401.223	-43.692	-0.153	0.079
-400.209	233.100	-0.070	0.118
-399.194	-137.628	0.262	-0.030
-398.179	456.313	-0.120	-0.272
-397.165	75.091	-0.172	0.184
-396.150	383.893	-0.133	0.280
-395.136	444.183	0.052	-0.116
-394.121	-200.000	0.025	-0.187
-393.106	253.106	-0.179	-0.310
-392.092	-200.000	0.003	0.201
-391.077	214.137	-0.191	-0.308
-390.063	-1.079	0.191	-0.137
-389.048	-72.012	0.172	0.065
-388.033	-23.961	-0.289	-0.176
-387.019	-114.571	-0.419	0.082
-386.004	37.022	0.206	0.185
-384.990	505.991	-0.142	0.334
-383.975	392.863	0.111	0.234
-382.960	-18.500	0.171	-0.109
-381.946	48.184	-0.138	0.131
-380.931	261.680	0.093	0.163
-379.917	-61.194	0.232	0.100
-378.902	-87.520	0.069	0.021
-377.888	-94.292	0.123	0.034
-376.873	-200.000	0.037	-0.309
-375.858	268.684	0.096	0.172
-374.844	800.000	0.051	-0.188
-373.829	256.480	0.092	-0.161
-372.815	-167.348	-0.159	0.006
-371.800	-200.000	-0.061	-0.326
-370.785	46.360	0.214	0.202
-369.771	-134.791	0.113	-0.014
-368.756	800.000	0.063	-0.274
-367.742	-27.576	-0.245	-0.145
-366.727	88.158	0.122	0.138
-365.712	-91.147	0.265	-0.077
-364.698	134.328	0.168	-0.221
-363.683	1.813	-0.165	0.121
-362.669	126.448	-0.258	-0.332
-361.654	-16.264	0.088	-0.057
-360.639	98.755	0.034	0.040
-359.625	-7.650	0.104	-0.071
-358.610	414.461	-0.130	-0.281
-357.596	-85.245	-0.204	-0.065
-356.581	-116.411	-0.211	0.040
-355.566	-31.831	-0.145	-0.082
-354.552	-200.000	0.067	0.508
-353.537	-35.512	0.362	-0.200
-352.523	-68.131	-0.499	0.198
-351.508	70.641	0.130	0.137
-350.493	23.337	0.288	-0.240
-349.479	51.891	0.066	-0.064
-348.464	28.241	0.100	0.085
-347.450	-200.000	-0.068	-0.367
-346.435	458.196	0.125	0.283
-345.420	-60.709	-0.112	0.048
-344.406	-200.000	0.006	-0.135
-343.391	-66.060	0.095	0.038
-342.377	800.000	-0.053	-0.168
-341.362	40.813	0.102	0.093
-340.348	-60.270	-0.027	-0.012
-339.333	-148.047	-0.270	-0.023
-338.318	800.000	-0.047	-0.152
-337.304	-135.099	-0.343	0.042
-336.289	-200.000	0.014	-0.191
-335.275	-93.689	-0.209	-0.059
-334.260	-117.531	-0.298	0.055
-333.245	91.265	-0.057	-0.065
-332.231	15.160	-0.191	0.152
-331.216	476.429	0.031	0.072
-330.202	-14.766	0.064	-0.042
-329.187	-200.000	-0.039	-0.460
-328.172	653.918	0.013	0.033
-327.158	86.526	0.147	0.164
-326.143	-110.310	-0.252	0.053
-325.129	2.027	-0.347	-0.254
-324.114	-200.000	0.017	0.240
-323.099	-200.000	-0.009	0.137
-322.085	-105.832	-0.282	0.065
-321.070	-124.386	-0.141	-0.022
-320.056	800.000	0.094	0.415
-319.041	-38.016	0.293	0.158
-318.026	800.000	-0.071	-0.216
-317.012	18.563	0.387	0.314
-315.997	-82.839	0.191	0.063
-314.983	-131.467	0.348	-0.047
-313.968	-200.000	-0.050	-0.528
-312.953	332.398	0.040	-0.078
-311.939	82.453	-0.156	0.171
-310.924	279.098	0.070	-0.126
-309.910	800.000	0.063	-0.206
-308.895	-160.674	-0.191	0.010
-307.880	-34.873	0.124	0.069
-306.866	-71.083	-0.144	0.055
-305.851	-200.000	0.039	-0.369
-304.837	348.756	0.126	0.253
-303.822	42.582	0.217	0.200
-302.807	296.162	0.204	-0.379
-301.793	-87.267	-0.384	0.118
-300.778	396.680	0.060	-0.128
-299.764	743.262	0.134	0.364
-298.749	-200.000	0.011	-0.163
-297.735	800.000	0.060	0.190
-296.720	-117.510	-0.104	-0.019
-295.705	-200.000	-0.050	0.271
-294.691	354.486	0.097	0.195
-293.676	-200.000	-0.001	-0.117
-292.662	800.000	-0.021	0.083
-291.647	-15.603	0.067	-0.044
-290.632	271.270	-0.132	-0.235
-289.618	74.207	0.131	0.139
-288.603	-143.238	0.343	0.033
-287.589	137.983	0.137	-0.181
-286.574	440.853	0.070	0.154
-285.559	-200.000	0.046	-0.234
-284.545	800.000	0.139	-0.468
-283.530	800.000	0.053	-0.188
-282.516	-39.302	-0.104	0.055
-281.501	132.452	-0.339	0.443
-280.486	107.841	0.198	0.239
-279.472	800.000	0.008	-0.031
-278.457	29.078	-0.046	-0.040
-277.443	-173.860	0.061	0.002
-276.428	-200.000	-0.023	0.104
-275.413	-200.000	-0.023	0.250
-274.399	170.088	0.294	0.426
-273.384	-84.177	-0.395	-0.127
-272.370	-69.213	0.364	-0.142
-271.355	-15.473	-0.195	-0.126
-270.340	-110.047	-0.127	0.027
-269.326	-200.000	0.375	0.001
-268.311	-69.270	0.189	0.073
-267.297	-200.000	-0.001	-0.138
-266.282	42.764	0.254	-0.234
-265.267	-200.000	0.058	-0.371
-264.253	-17.465	-0.212	-0.135
-263.238	-200.000	-0.011	0.095
-262.224	-180.599	0.203	0.004
-261.209	87.121	-0.150	0.168
-260.195	-57.482	-0.156	-0.069
-259.180	32.962	-0.101	-0.088
-258.165	-150.058	-0.182	-0.014
-257.151	800.000	-0.120	-0.426
-256.136	-55.397	0.041	0.019
-255.122	49.196	0.010	-0.010
-254.107	558.296	-0.047	0.116
-253.092	92.303	0.084	-0.096
-252.078	733.636	0.045	0.121
-251.063	217.372	0.122	-0.197
-250.049	-11.186	-0.191	-0.128
-249.034	-182.592	-0.163	0.003
-248.019	-122.657	0.325	-0.053
-247.005	-200.000	0.055	0.388
-245.990	-22.699	-0.199	-0.122
-244.976	120.045	0.178	-0.224
-243.961	93.165	0.123	0.141
-242.946	144.467	0.138	0.186
-241.932	800.000	0.068	-0.220
-240.917	-19.201	-0.249	0.156
-239.903	7.498	-0.191	-0.144
-238.888	-98.869	-0.232	-0.060
-237.873	-28.356	-0.364	-0.213
-236.859	-52.485	0.521	0.244
-235.844	-58.101	0.259	0.114
-234.830	-88.557	-0.046	-0.014
-233.815	-63.575	-0.258	-0.107
-232.800	2.810	0.225	0.165
-231.786	-200.000	0.046	-0.237
-230.771	760.692	0.086	-0.235
-229.757	-105.560	0.049	-0.011
-228.742	52.656	0.243	0.234
-227.727	53.136	0.046	-0.044
-226.713	-70.760	-0.039	0.015
-225.698	50.814	0.364	0.348
-224.684	-31.661	-0.250	0.142
-223.669	-95.273	-0.265	-0.072
-222.655	46.051	0.223	-0.208
-221.640	-200.000	-0.050	-0.242
-220.625	-200.000	0.028	0.177
-219.611	-135.289	0.181	0.022
-218.596	-27.021	-0.154	0.091
-217.582	-200.000	0.006	-0.486
-216.567	-84.411	0.168	-0.054
-215.552	75.282	-0.213	-0.227
-214.538	434.276	0.090	0.198
-213.523	179.917	0.012	-0.018
-212.509	-200.000	-0.006	0.099
-211.494	-64.350	-0.174	0.071
-210.479	-33.402	0.313	-0.175
-209.465	84.613	-0.115	-0.127
-208.450	-200.000	-0.021	0.180
-207.436	-86.559	-0.447	0.138
-206.421	800.000	0.063	0.192
-205.406	-3.309	0.233	0.164
-204.392	339.308	-0.112	-0.221
-203.377	-85.390	-0.230	-0.072
-202.363	-200.000	0.020	0.204
-201.348	-200.000	-0.026	-0.176
-200.333	800.000	0.061	-0.210
-199.319	-105.921	-0.212	-0.048
-198.304	264.440	0.067	-0.119
-197.290	102.282	0.196	0.232
-196.275	131.415	-0.127	-0.164
-195.260	800.000	-0.035	0.106
-194.246	5.967	0.202	0.151
-193.231	-136.504	-0.157	0.018
-192.217	-54.334	-0.214	0.098
-191.202	-122.110	0.241	-0.040
-190.187	-105.325	0.180	0.041
-189.173	-200.000	-0.003	-0.082
-188.158	143.039	-0.240	0.322
-187.144	-65.172	-0.247	0.100
-186.129	135.793	-0.072	-0.095
-185.114	-109.779	0.278	0.059
-184.100	-200.000	-0.058	0.287
-183.085	14.360	-0.123	-0.097
-182.071	408.325	0.110	0.235
-181.056	800.000	0.097	0.339
-180.042	800.000	-0.104	-0.386
-179.027	129.646	0.134	0.173
-178.012	-40.898	0.113	-0.059
-176.998	-200.000	0.012	0.232
-175.983	-71.645	-0.326	-0.123
-174.969	-47.825	-0.225	0.110
-173.954	31.780	-0.259	0.225
-172.939	-200.000	0.022	-0.190
-171.925	-48.142	-0.443	-0.216
-170.910	-17.821	-0.201	-0.127
-169.896	-65.731	-0.071	-0.029
-168.881	-200.000	-0.011	-0.327
-167.866	-200.000	-0.023	0.151
-166.852	-200.000	0.000	-0.164
-165.837	-200.000	0.038	-0.209
-164.823	-50.348	-0.062	0.029
-163.808	301.058	0.095	-0.176
-162.793	-83.795	-0.271	-0.087
-161.779	-21.147	-0.319	0.197
-160.764	788.943	0.055	-0.153
-159.750	8.516	0.308	0.233
-158.735	8.260	0.141	-0.107
-157.720	-200.000	0.025	-0.232
-156.706	729.999	0.047	0.126
-155.691	606.922	0.084	0.211
-154.677	18.484	-0.116	0.094
-153.662	-200.000	-0.040	0.248
-152.647	-200.000	-0.015	0.413
-151.633	800.000	0.020	0.057
-150.618	9.820	0.319	-0.244
-149.604	588.602	-0.177	0.440
-148.589	246.859	-0.073	-0.125
-147.574	-200.000	-0.016	-0.290
-146.560	-200.000	0.047	-0.278
-145.545	281.363	0.185	-0.334
-144.531	211.958	0.056	-0.089
-143.516	-200.000	-0.067	0.307
-142.502	19.967	0.050	0.041
-141.487	-46.174	0.078	0.039
-140.472	-200.000	-0.009	0.354
-139.458	362.041	-0.049	0.099
-138.443	55.879	-0.313	0.305
-137.429	-86.388	-0.315	0.097
-136.414	-99.284	0.199	-0.051
-135.399	411.134	-0.094	-0.201
-134.385	196.699	0.119	0.183
-133.370	800.000	0.041	0.128
-132.356	229.977	-0.136	-0.224
-131.341	-200.000	-0.018	-0.090
-130.326	22.839	0.200	0.165
-129.312	101.169	-0.191	0.224
-128.297	-101.458	-0.249	0.061
-127.283	10.754	-0.320	0.246
-126.268	-91.283	0.157	0.045
-125.253	51.323	0.296	-0.283
-124.239	-32.684	-0.318	0.178
-123.224	13.006	-0.031	-0.024
-122.210	138.700	0.124	-0.164
-121.195	800.000	-0.118	0.331
-120.180	-58.683	-0.170	0.074
-119.166	698.985	-0.008	-0.022
-118.151	-200.000	-0.022	0.274
-117.137	-175.375	0.216	-0.006
-116.122	-4.309	0.235	-0.164
-115.107	-105.357	-0.331	0.076
-114.093	-1.121	0.069	-0.049
-113.078	-200.000	0.028	0.178
-112.064	260.193	0.108	-0.188
-111.049	-200.000	-0.073	-0.363
-110.034	-131.897	-0.245	-0.032
-109.020	397.345	0.007	-0.016
-108.005	41.801	-0.107	-0.098
-106.991	-62.219	0.174	-0.073
-105.976	-106.825	0.233	-0.052
-104.962	97.136	-0.241	0.278
-103.947	800.000	0.103	-0.366
-102.932	52.570	-0.213	0.204
-101.918	-174.256	0.178	0.005
-100.903	-145.198	0.102	0.009
-99.889	187.151	-0.071	-0.106
-98.874	-200.000	0.010	-0.075
-97.859	-98.448	0.315	0.081
-96.845	-51.653	0.113	0.053
-95.830	-60.132	0.093	0.040
-94.816	177.608	0.195	0.286
-93.801	-200.000	-0.037	-0.224
-92.786	670.439	0.170	0.442
-91.772	-44.803	-0.019	0.010
-90.757	-76.327	-0.147	0.052
-89.743	800.000	0.038	0.139
-88.728	48.430	-0.195	0.184
-87.713	381.379	0.075	-0.155
-86.699	156.323	0.149	-0.206
-85.684	669.808	0.089	-0.230
-84.670	73.402	0.202	0.213
-83.655	-200.000	-0.223	0.001
-82.640	67.132	-0.098	-0.101
-81.626	800.000	-0.086	-0.325
-80.611	-200.000	-0.046	-0.258
-79.597	8.186	-0.129	0.097
-78.582	-128.075	0.109	0.016
-77.567	111.091	-0.279	0.338
-76.553	89.521	-0.173	-0.194
-75.538	-71.669	-0.323	-0.121
-74.524	161.713	-0.141	-0.198
-73.509	144.275	-0.164	-0.220
-72.494	-200.000	0.266	-0.001
-71.480	58.450	0.164	-0.162
-70.465	-200.000	0.078	-0.364
-69.451	-98.895	0.303	0.077
-68.436	800.000	0.052	-0.217
-67.422	-200.000	0.007	0.427
-66.407	58.428	-0.259	0.256
-65.392	262.401	0.058	0.102
-64.378	-200.000	-0.015	-0.293
-63.363	800.000	-0.064	0.280
-62.349	-17.578	0.349	0.220
-61.334	121.103	-0.654	-0.817
-60.319	464.290	0.035	0.079
-59.305	-200.000	-0.113	-0.762
-58.290	65.150	0.596	0.605
-57.276	535.565	0.565	1.345
-56.261	-200.000	70.012	517.405
-55.246	562.585	1255.726	3050.450
-54.232	132.881	2516.738	3261.316
-53.217	108.424	2390.662	2864.412
-52.203	52.412	2132.602	2042.878
-51.188	46.866	2038.125	1901.403
-50.173	45.079	2018.242	1866.453
-49.159	56.174	2051.850	1999.808
-48.144	62.384	2072.374	2076.844
-47.130	47.743	2038.281	1909.319
-46.115	44.934	2026.925	1872.856
-45.100	44.871	2024.094	1869.587
-44.086	44.680	2022.673	1866.453
-43.071	44.749	2019.125	1863.730
-42.057	44.719	2017.123	1861.540
-41.042	44.737	2015.189	1859.838
-40.027	44.725	2013.440	1858.047
-39.013	44.758	2011.762	1856.719
-37.998	44.838	2009.397	1855.190
-36.984	44.796	2007.347	1852.848
-35.969	44.812	2005.808	1851.494
-34.954	44.796	2003.820	1849.443
-33.940	44.827	2002.287	1848.238
-32.925	44.844	2000.450	1846.620
-31.911	44.835	1999.440	1845.536
-30.896	44.807	1997.569	1843.478
-29.881	44.811	1995.826	1841.834
-28.867	44.857	1994.269	1840.739
-27.852	44.874	1991.951	1838.684
-26.838	44.807	1990.367	1836.547
-25.823	44.829	1988.244	1834.706
-24.809	44.816	1986.065	1832.506
-23.794	44.890	1984.674	1831.816
-22.779	44.773	1983.092	1829.231
-21.765	44.810	1981.263	1827.811
-20.750	44.836	1979.566	1826.399
-19.736	44.940	1977.563	1825.409
-18.721	44.885	1976.064	1823.463
-17.706	44.850	1975.113	1822.200
-16.692	44.815	1972.834	1819.715
-15.677	44.770	1971.638	1818.136
-14.663	44.821	1970.074	1817.080
-13.648	44.761	1969.120	1815.593
-12.633	44.905	1967.434	1815.250
-11.619	44.824	1966.401	1813.500
-10.604	44.750	1965.663	1812.092
-9.590	44.773	1963.899	1810.594
-8.575	44.758	1962.077	1808.715
-7.560	44.821	1961.122	1808.319
-6.546	44.760	1959.561	1806.270
-5.531	44.828	1958.370	1805.696
-4.517	44.764	1957.078	1803.872
-3.502	44.815	1956.134	1803.379
-2.487	44.933	1953.944	1802.330
-1.473	44.787	1952.953	1800.056
-0.458	44.935	1948.969	1797.617
0.556	42.415	1930.260	1774.754
1.571	38.018	1908.300	1715.854
2.586	32.258	1925.157	1679.581
3.600	29.651	1960.013	1686.087
4.615	28.160	1955.817	1668.734
5.629	22.075	1853.612	1528.620
6.644	12.275	1728.231	1345.182
7.659	6.844	1684.658	1267.668
8.673	6.247	1680.526	1259.667
9.688	6.264	1679.363	1258.825
10.702	6.152	1677.091	1256.115
11.717	5.887	1674.846	1252.210
12.731	6.453	1674.610	1256.431
13.746	12.277	1689.365	1314.131
14.761	18.607	1701.565	1374.376
15.775	18.555	1698.815	1371.617
16.790	16.815	1693.832	1353.582
17.804	15.680	1689.624	1341.051
18.819	14.641	1686.549	1330.221
19.834	13.886	1684.527	1322.497
20.848	13.517	1682.881	1318.152
21.863	13.222	1681.423	1314.547
22.877	13.042	1679.451	1311.457
23.892	12.791	1678.252	1308.413
24.907	12.702	1677.180	1306.752
25.921	12.742	1676.025	1306.052
26.936	12.739	1675.129	1305.213
27.950	12.746	1674.147	1304.392
28.965	12.733	1673.750	1303.863
29.980	12.922	1672.714	1304.435
30.994	12.940	1671.737	1303.702
32.009	13.000	1670.002	1302.706
33.023	13.065	1669.392	1302.627
34.038	13.033	1668.657	1301.691
35.053	13.005	1667.638	1300.554
36.067	12.982	1666.119	1299.079
37.082	12.971	1665.021	1298.020
38.096	12.943	1663.665	1296.623
39.111	13.032	1662.903	1296.613
40.126	13.000	1662.805	1296.174
41.140	13.029	1661.827	1295.524
42.155	12.889	1660.219	1293.055
43.169	12.772	1658.885	1290.988
44.184	12.730	1657.328	1289.338
45.199	12.679	1656.473	1288.152
46.213	12.752	1655.343	1287.733
47.228	12.804	1654.126	1287.078
48.242	12.845	1652.894	1286.329
49.257	12.956	1652.039	1286.415
50.271	12.889	1650.774	1284.789
51.286	12.874	1649.368	1283.470
52.301	12.861	1648.003	1282.193
53.315	12.936	1646.882	1281.785
54.330	12.860	1645.532	1280.034
55.344	12.790	1643.707	1277.955
56.359	12.802	1642.275	1276.826
57.374	12.773	1641.168	1275.626
58.388	12.832	1640.090	1275.131
59.403	12.806	1638.518	1273.600
60.417	12.661	1637.658	1271.696
61.432	12.741	1636.179	1271.055
62.447	12.756	1634.746	1269.941
63.461	12.680	1633.763	1268.483
64.476	12.619	1633.104	1267.389
65.490	12.592	1631.754	1266.022
66.505	12.585	1630.442	1264.836
67.520	12.621	1629.827	1264.521
68.534	12.612	1629.076	1263.763
69.549	12.660	1627.834	1263.055
70.563	12.671	1626.542	1262.022
71.578	12.642	1625.585	1260.947
72.593	12.642	1624.230	1259.785
73.607	12.587	1623.589	1258.753
74.622	12.598	1622.384	1257.794
75.636	12.517	1621.692	1256.525
76.651	12.491	1621.039	1255.712
77.666	12.463	1619.683	1254.336
78.680	12.620	1618.669	1254.634
79.695	12.589	1617.965	1253.741
80.709	12.549	1617.660	1253.092
81.724	12.630	1616.445	1252.652
82.739	12.725	1615.610	1252.618
83.753	12.768	1614.604	1252.053
84.768	12.743	1614.119	1251.378
85.782	12.881	1613.463	1251.804
86.797	12.886	1612.635	1251.094
87.812	12.967	1611.543	1250.752
88.826	12.907	1610.579	1249.433
89.841	12.793	1609.410	1247.556
90.855	12.869	1608.193	1247.075
91.870	12.858	1607.103	1246.035
92.884	12.960	1606.055	1245.888
93.899	12.897	1605.183	1244.620
94.914	12.965	1603.302	1243.564
95.928	13.010	1602.587	1243.238
96.943	12.982	1601.725	1242.252
97.957	12.965	1599.885	1240.587
98.972	12.967	1598.259	1239.234
99.987	12.961	1596.616	1237.805
101.001	12.987	1594.933	1236.581
102.016	12.939	1593.240	1234.803
103.030	12.869	1592.588	1233.662
104.045	12.913	1591.125	1232.752
105.060	12.871	1589.478	1231.051
106.074	12.924	1588.102	1230.274
107.089	12.866	1586.453	1228.456
108.103	12.767	1585.351	1226.753
109.118	12.707	1583.798	1224.998
110.133	12.691	1582.435	1223.718
111.147	12.575	1581.816	1222.269
112.162	12.700	1580.089	1221.755
113.176	12.750	1578.116	1220.489
114.191	12.831	1576.784	1219.949
115.206	12.864	1575.806	1219.331
116.220	12.783	1574.572	1217.666
117.235	12.779	1573.369	1216.603
118.249	12.747	1572.155	1215.315
119.264	12.737	1571.162	1214.369
120.279	12.720	1569.800	1213.084
121.293	12.713	1568.009	1211.540
122.308	12.776	1566.683	1210.870
123.322	12.756	1564.980	1209.300
124.337	12.683	1563.643	1207.624
125.352	12.585	1562.819	1206.167
126.366	12.691	1561.249	1205.621
127.381	12.727	1559.748	1204.620
128.395	12.610	1559.467	1203.440
129.410	12.711	1557.977	1202.920
130.424	12.763	1556.486	1202.041
131.439	12.752	1555.312	1200.949
132.454	12.757	1554.469	1200.232
133.468	12.843	1552.850	1199.499
134.483	12.920	1551.124	1198.621
135.497	12.851	1549.712	1196.921
136.512	12.946	1548.642	1196.679
137.527	12.893	1547.443	1195.267
138.541	13.031	1545.676	1194.796
139.556	12.979	1544.335	1193.276
140.570	13.026	1543.010	1192.483
141.585	12.985	1541.689	1191.063
142.600	13.057	1540.679	1190.696
143.614	13.048	1539.565	1189.660
144.629	13.093	1538.161	1188.801
145.643	13.133	1537.142	1188.194
146.658	13.152	1535.972	1187.323
147.673	13.088	1534.216	1185.400
148.687	13.081	1532.667	1184.045
149.702	13.073	1531.168	1182.722
150.716	13.014	1529.387	1180.824
151.731	12.982	1528.153	1179.538
152.746	12.967	1527.207	1178.598
153.760	12.974	1525.611	1177.314
154.775	12.949	1524.370	1176.067
155.789	12.997	1523.137	1175.353
156.804	13.076	1521.912	1174.870
157.819	13.090	1520.301	1173.622
158.833	13.090	1519.181	1172.652
159.848	13.164	1518.362	1172.442
160.862	13.228	1517.031	1171.763
161.877	13.217	1515.931	1170.736
162.892	13.252	1514.312	1169.627
163.906	13.046	1513.089	1167.123
164.921	12.952	1512.301	1165.745
165.935	13.104	1510.424	1165.269
166.950	12.997	1509.810	1163.936
167.964	13.106	1508.389	1163.509
168.979	13.124	1507.945	1163.188
169.994	13.095	1506.611	1161.851
171.008	13.154	1505.490	1161.302
172.023	13.139	1504.248	1160.136
173.037	13.210	1502.943	1159.524
174.052	13.303	1501.655	1159.079
175.067	13.255	1501.211	1158.294
176.081	13.182	1499.972	1156.729
177.096	13.225	1498.283	1155.623
178.110	13.222	1496.766	1154.329
179.125	13.178	1495.870	1153.229
180.140	13.172	1495.028	1152.438
181.154	13.217	1493.953	1151.824
182.169	13.171	1493.030	1150.690
183.183	13.271	1491.758	1150.299
184.198	13.273	1490.490	1149.232
185.213	13.424	1489.591	1149.487
186.227	13.401	1488.403	1148.310
187.242	13.336	1487.797	1147.293
188.256	13.387	1486.432	1146.487
189.271	13.457	1485.705	1146.312
190.286	13.448	1484.426	1145.162
191.300	13.460	1483.004	1144.050
192.315	13.271	1481.647	1141.594
193.329	13.197	1480.660	1140.221
194.344	13.106	1479.542	1138.629
195.359	13.149	1478.512	1138.034
196.373	13.301	1477.380	1138.112
197.388	13.427	1476.526	1138.220
198.402	13.406	1475.397	1137.103
199.417	13.493	1474.471	1136.885
200.432	13.609	1473.337	1136.705
201.446	13.622	1472.436	1136.002
202.461	13.619	1471.554	1135.199
203.475	13.693	1470.190	1134.554
204.490	13.699	1469.393	1133.880
205.504	13.696	1467.999	1132.682
206.519	13.563	1466.799	1130.748
207.534	13.628	1465.704	1130.243
208.548	13.520	1464.182	1128.236
209.563	13.566	1463.804	1128.156
210.577	13.580	1462.422	1127.088
211.592	13.527	1461.765	1126.122
212.607	13.636	1461.028	1126.196
213.621	13.640	1460.913	1126.037
214.636	13.730	1459.318	1125.315
215.650	13.725	1458.419	1124.489
216.665	13.717	1457.142	1123.350
217.680	13.744	1456.660	1123.063
218.694	13.834	1455.704	1122.837
219.709	13.839	1454.763	1122.044
220.723	13.983	1453.476	1121.924
221.738	13.861	1452.744	1120.437
222.753	13.858	1451.924	1119.685
223.767	13.846	1451.052	1118.835
224.782	13.827	1449.892	1117.711
225.796	13.900	1448.931	1117.360
226.811	13.933	1448.004	1116.771
227.826	13.934	1447.540	1116.323
228.840	13.918	1446.210	1115.086
229.855	13.897	1445.438	1114.252
230.869	13.919	1444.591	1113.648
231.884	13.926	1443.516	1112.769
232.899	13.898	1442.519	1111.715
233.913	13.899	1441.561	1110.884
234.928	13.834	1440.045	1109.184
235.942	13.839	1438.544	1107.965
236.957	13.807	1437.383	1106.761
237.972	13.791	1436.230	1105.666
238.986	13.783	1434.968	1104.541
240.001	13.868	1434.128	1104.365
241.015	13.893	1433.310	1103.805
242.030	13.857	1432.572	1102.899
243.045	13.978	1431.086	1102.459
244.059	14.012	1430.277	1101.964
245.074	14.099	1429.284	1101.674
246.088	14.068	1428.867	1101.053
247.103	14.056	1427.873	1100.111
248.117	14.072	1427.361	1099.727
249.132	14.179	1426.347	1099.557
250.147	14.191	1425.856	1099.159
251.161	14.214	1425.826	1099.186
252.176	14.363	1424.755	1099.247
253.190	14.401	1423.770	1098.644
254.205	14.405	1422.925	1097.918
255.220	14.429	1422.314	1097.508
256.234	14.458	1421.498	1096.970
257.249	14.454	1420.635	1096.186
258.263	14.510	1419.685	1095.722
259.278	14.566	1418.856	1095.351
260.293	14.610	1417.819	1094.740
261.307	14.548	1417.510	1094.003
262.322	14.644	1416.727	1093.929
263.336	14.650	1415.441	1092.879
264.351	14.704	1414.597	1092.487
265.366	14.565	1413.529	1090.652
266.380	14.657	1412.857	1090.642
267.395	14.753	1411.918	1090.443
268.409	14.777	1410.517	1089.426
269.424	14.641	1409.869	1087.938
270.439	14.659	1408.582	1086.969
271.453	14.693	1407.546	1086.291
272.468	14.607	1406.904	1085.143
273.482	14.579	1406.450	1084.516
274.497	14.532	1405.629	1083.477
275.512	14.670	1404.577	1083.471
276.526	14.654	1403.697	1082.587
277.541	14.682	1402.459	1081.720
278.555	14.698	1401.746	1081.176
279.570	14.645	1401.204	1080.323
280.585	14.691	1400.154	1079.713
281.599	14.732	1399.243	1079.184
282.614	14.749	1398.311	1078.474
283.628	14.819	1397.329	1078.078
284.643	14.690	1395.986	1076.110
285.657	14.735	1394.856	1075.439
286.672	14.732	1394.064	1074.710
287.687	14.765	1393.043	1074.043
288.701	14.713	1392.435	1073.142
289.716	14.791	1391.478	1072.812
290.730	14.786	1391.065	1072.368
291.745	14.794	1389.824	1071.364
292.760	14.875	1388.864	1071.049
293.774	14.849	1387.848	1070.005
294.789	14.907	1386.794	1069.466
295.803	15.000	1385.674	1069.105
296.818	15.042	1385.077	1068.817
297.833	14.888	1384.410	1067.228
298.847	14.874	1383.604	1066.423
299.862	15.001	1382.349	1066.168
300.876	15.007	1380.979	1065.057
301.891	15.012	1380.353	1064.508
302.906	15.000	1380.066	1064.118
303.920	15.115	1378.855	1063.818
304.935	15.097	1378.009	1062.957
305.949	15.135	1377.393	1062.634
306.964	15.175	1377.011	1062.496
307.979	15.158	1375.931	1061.461
308.993	15.216	1374.900	1060.938
310.008	15.084	1373.793	1059.156
311.022	15.205	1372.988	1059.208
312.037	15.271	1371.218	1058.161
313.052	15.266	1371.063	1057.920
314.066	15.172	1370.262	1056.612
315.081	15.257	1368.598	1055.776
316.095	15.192	1367.539	1054.455
317.110	14.995	1367.050	1052.746
318.125	15.065	1366.235	1052.462
319.139	15.176	1364.613	1051.819
320.154	15.237	1363.482	1051.236
321.168	15.196	1362.882	1050.423
322.183	15.149	1361.823	1049.219
323.197	15.280	1360.860	1049.208
324.212	15.197	1360.078	1047.991
325.227	15.256	1359.295	1047.662
326.241	15.321	1357.845	1046.856
327.256	15.264	1357.275	1045.972
328.270	15.298	1356.565	1045.544
329.285	15.342	1355.740	1045.091
330.300	15.310	1354.971	1044.205
331.314	15.311	1353.787	1043.206
332.329	15.240	1353.235	1042.245
333.343	15.287	1352.137	1041.601
334.358	15.388	1351.513	1041.652
335.373	15.356	1350.759	1040.786
336.387	15.467	1349.887	1040.710
337.402	15.553	1348.648	1040.195
338.416	15.570	1348.042	1039.738
339.431	15.545	1347.651	1039.191
340.446	15.553	1347.109	1038.733
341.460	15.501	1346.510	1037.855
342.475	15.583	1345.283	1037.321
343.489	15.659	1344.418	1037.031
344.504	15.753	1343.340	1036.693
345.519	15.691	1342.609	1035.649
346.533	15.693	1341.759	1034.915
347.548	15.699	1341.413	1034.595
348.562	15.762	1340.223	1033.971
349.577	15.882	1339.082	1033.740
350.592	15.814	1338.273	1032.604
351.606	15.685	1337.465	1031.098
352.621	15.687	1335.895	1029.809
353.635	15.655	1335.424	1029.159
354.650	15.597	1334.343	1027.879
355.665	15.667	1333.643	1027.678
356.679	15.645	1332.480	1026.555
357.694	15.748	1331.398	1026.262
358.708	15.760	1330.137	1025.270
359.723	15.829	1328.983	1024.709
360.738	15.821	1328.096	1023.886
361.752	15.755	1327.565	1022.985
362.767	15.940	1325.993	1022.809
363.781	15.809	1325.237	1021.338
364.796	15.883	1324.716	1021.298
365.810	15.878	1323.340	1020.117
366.825	15.976	1323.028	1020.381
367.840	16.055	1322.336	1020.230
368.854	15.980	1321.462	1019.012
369.869	16.168	1320.987	1019.696
370.883	16.158	1320.352	1019.056
371.898	16.166	1319.704	1018.513
372.913	16.149	1319.205	1017.933
373.927	16.062	1318.082	1016.450
374.942	16.076	1317.143	1015.720
375.956	16.104	1316.729	1015.485
376.971	16.173	1315.678	1014.998
377.986	16.143	1314.988	1014.196
379.000	16.167	1313.884	1013.399
380.015	16.211	1313.382	1013.182
381.029	16.266	1312.581	1012.806
382.044	16.333	1311.774	1012.494
383.059	16.377	1310.916	1012.008
384.073	16.371	1310.564	1011.610
385.088	16.332	1309.869	1010.750
386.102	16.313	1309.252	1010.072
387.117	16.397	1308.235	1009.700
388.132	16.411	1307.499	1009.126
389.146	16.319	1306.508	1007.724
390.161	16.321	1305.510	1006.879
391.175	16.346	1304.986	1006.533
392.190	16.339	1304.540	1006.060
393.205	16.372	1303.434	1005.314
394.219	16.387	1302.762	1004.792
395.234	16.431	1301.355	1003.883
396.248	16.467	1300.011	1002.970
397.263	16.337	1298.916	1001.264
398.278	16.359	1297.402	1000.138
399.292	16.374	1296.026	999.081
400.307	16.364	1294.789	997.978
401.321	16.340	1293.925	997.082
402.336	16.268	1293.217	996.026
403.350	16.291	1292.204	995.292
404.365	16.230	1291.502	994.303
405.380	16.310	1290.671	994.045
406.394	16.342	1289.774	993.456
407.409	16.472	1289.028	993.555
408.423	16.487	1288.166	992.894
409.438	16.527	1287.629	992.627
410.453	16.579	1286.942	992.313
411.467	16.624	1286.107	991.845
412.482	16.696	1285.895	992.017
413.496	16.705	1285.103	991.367
414.511	16.758	1283.963	990.713
415.526	16.795	1283.261	990.298
416.540	16.780	1282.782	989.755
417.555	16.884	1281.973	989.648
418.569	16.862	1281.413	989.005
419.584	16.825	1281.216	988.550
420.599	16.831	1280.534	987.967
421.613	55.964	1283.053	1213.177
422.628	55.951	1283.428	1213.353
