DTS Sentinel unit serial number:	SN413079Multiplexer serial number:	ORYXHardware model number:	OX4-SRSoftware version number:	ORYX F/W v4.00 Oryx Data Collector v3.7.2.0data status	okinstallation	princeton_trtdifferential loss correction	single-endedforward channel	channel 4reverse channel	N/Adate	2019/09/16time	03:49:35forward acquisition time	60.00reverse acquisition time	0.00gamma	496.2192k internal	0.2321k external	0.2321temperature offset calibration	0.9975default loss term (dB/km)	0.3790temperature slope calibration	1.0000multiplexer offset coefficient	1.0000multiplexer slope coefficient	1.0000fibre end	0.00T internal ref (°C)	27.55T ext. ref 1 (°C)	10.66T ext. ref 2 (°C)	21.63length (m)	temperature (°C)	Stokes	anti-Stokes-747.200	67.318	0.167	0.172
-746.185	224.461	0.068	0.111
-745.171	59.274	-0.033	0.033
-744.156	146.170	0.040	0.054
-743.142	123.866	-0.185	-0.235
-742.127	-200.000	0.020	0.136
-741.112	800.000	-0.052	0.164
-740.098	-116.838	-0.016	0.003
-739.083	-179.571	-0.267	0.006
-738.069	-200.000	-0.020	0.356
-737.054	-55.709	-0.349	0.158
-736.039	305.849	-0.199	0.374
-735.025	-38.209	0.438	0.235
-734.010	-101.152	-0.314	-0.078
-732.996	800.000	-0.035	-0.100
-731.981	10.672	0.183	-0.141
-730.966	-200.000	-0.010	-0.135
-729.952	10.605	-0.239	0.184
-728.937	-3.638	-0.048	-0.034
-727.923	31.855	0.107	-0.093
-726.908	399.201	0.122	-0.258
-725.894	356.294	-0.084	0.170
-724.879	-200.000	0.041	-0.222
-723.864	-51.794	0.398	0.187
-722.850	-17.706	0.205	-0.130
-721.835	-92.266	-0.170	-0.049
-720.821	96.631	0.125	0.145
-719.806	728.445	0.110	-0.298
-718.791	-122.390	0.079	-0.013
-717.777	-200.000	-0.007	-0.162
-716.762	-58.854	-0.101	-0.044
-715.748	-200.000	-0.021	-0.273
-714.733	-87.335	-0.062	-0.019
-713.718	-68.807	-0.150	0.059
-712.704	-185.736	-0.384	-0.006
-711.689	43.335	0.124	0.114
-710.675	-79.307	-0.013	-0.004
-709.660	-200.000	0.041	0.199
-708.645	-200.000	-0.035	-0.164
-707.631	-200.000	-0.029	-0.340
-706.616	-116.576	-0.247	0.046
-705.602	-177.239	-0.133	-0.003
-704.587	344.420	-0.121	-0.239
-703.572	-200.000	0.002	0.204
-702.558	58.581	0.130	-0.129
-701.543	-37.233	-0.157	0.085
-700.529	186.038	0.061	-0.091
-699.514	-71.508	0.100	-0.038
-698.499	105.717	0.105	-0.125
-697.485	44.940	-0.321	-0.298
-696.470	73.870	-0.230	0.243
-695.456	-64.324	0.163	-0.067
-694.441	64.523	-0.224	-0.227
-693.426	-28.688	0.200	0.116
-692.412	-83.341	-0.357	-0.116
-691.397	-70.922	-0.224	0.085
-690.383	148.076	-0.074	-0.100
-689.368	800.000	0.073	0.277
-688.354	41.192	0.075	0.068
-687.339	27.467	0.107	-0.091
-686.324	14.048	-0.284	-0.223
-685.310	351.907	0.144	0.287
-684.295	800.000	0.140	-0.613
-683.281	-200.000	0.013	-0.216
-682.266	-73.759	-0.145	-0.053
-681.251	244.043	0.074	0.126
-680.237	-200.000	0.066	-0.374
-679.222	-200.000	0.040	-0.240
-678.208	-68.400	0.182	0.071
-677.193	-200.000	0.024	0.134
-676.178	-200.000	-0.070	0.339
-675.164	270.108	0.059	0.105
-674.149	800.000	-0.118	0.379
-673.135	351.520	0.148	0.296
-672.120	440.876	0.122	-0.269
-671.105	-91.519	0.250	-0.072
-670.091	-200.000	0.006	0.139
-669.076	47.256	0.019	-0.018
-668.062	27.123	-0.274	-0.232
-667.047	-34.558	0.306	-0.169
-666.032	358.958	-0.198	-0.398
-665.018	-94.519	0.238	0.065
-664.003	11.481	-0.423	-0.327
-662.989	-3.674	-0.150	0.105
-661.974	-200.000	-0.036	-0.196
-660.959	95.819	-0.165	0.190
-659.945	800.000	-0.083	0.276
-658.930	-30.986	0.177	-0.101
-657.916	-89.364	-0.323	0.096
-656.901	-83.979	-0.272	0.087
-655.886	-80.703	0.224	-0.075
-654.872	800.000	-0.095	-0.372
-653.857	800.000	0.049	-0.145
-652.843	602.950	-0.060	-0.150
-651.828	219.723	0.077	-0.124
-650.814	-200.000	0.016	0.128
-649.799	-200.000	0.046	-0.358
-648.784	-188.405	-0.463	0.006
-647.770	86.079	0.210	-0.233
-646.755	-69.256	0.071	-0.027
-645.741	20.315	0.033	-0.027
-644.726	-58.243	0.116	0.051
-643.711	-103.795	-0.191	-0.045
-642.697	-127.898	0.370	-0.054
-641.682	-117.765	-0.213	0.038
-640.668	198.658	0.024	-0.037
-639.653	148.792	-0.128	0.174
-638.638	-153.643	-0.249	-0.017
-637.624	-200.000	0.033	0.203
-636.609	-27.682	-0.301	-0.176
-635.595	-200.000	-0.007	0.169
-634.580	-31.870	-0.185	0.105
-633.565	-46.241	-0.525	0.260
-632.551	-200.000	-0.001	-0.170
-631.536	-200.000	-0.008	-0.076
-630.522	74.066	-0.413	-0.436
-629.507	172.644	0.009	-0.013
-628.492	-200.000	0.019	-0.164
-627.478	-200.000	0.001	-0.217
-626.463	-170.996	-0.037	-0.001
-625.449	-85.232	0.265	0.083
-624.434	5.389	0.101	-0.075
-623.419	-200.000	0.020	0.129
-622.405	-174.612	-0.256	-0.007
-621.390	345.340	-0.331	-0.654
-620.376	345.623	0.064	-0.127
-619.361	10.463	-0.122	0.094
-618.346	491.851	0.133	0.305
-617.332	-68.614	0.293	-0.114
-616.317	35.666	0.192	-0.170
-615.303	-200.000	0.024	-0.175
-614.288	190.280	0.065	0.099
-613.273	109.109	0.238	0.286
-612.259	-151.801	0.095	-0.007
-611.244	-83.893	0.294	0.094
-610.230	-200.000	0.022	-0.198
-609.215	68.464	0.091	-0.094
-608.201	-118.323	0.199	0.036
-607.186	-56.759	-0.337	0.150
-606.171	174.384	-0.162	-0.236
-605.157	800.000	0.059	0.171
-604.142	-15.525	-0.204	-0.131
-603.128	-104.373	-0.272	0.063
-602.113	-30.028	0.178	-0.102
-601.098	161.046	-0.061	-0.086
-600.084	177.677	0.174	-0.255
-599.069	-200.000	0.011	-0.147
-598.055	800.000	0.054	0.219
-597.040	-85.836	0.091	0.028
-596.025	-135.068	0.200	0.024
-595.011	45.505	0.126	-0.117
-593.996	-200.000	-0.008	-0.235
-592.982	-86.243	0.219	-0.068
-591.967	447.214	0.154	-0.340
-590.952	109.011	-0.200	0.240
-589.938	-200.000	-0.048	-0.263
-588.923	-176.730	-0.322	0.008
-587.909	144.657	-0.240	0.322
-586.894	-81.083	-0.136	0.045
-585.879	-200.000	0.003	-0.035
-584.865	-72.079	0.255	-0.095
-583.850	-200.000	-0.012	0.222
-582.836	800.000	-0.085	-0.286
-581.821	-177.563	0.269	0.007
-580.806	-8.376	-0.071	0.048
-579.792	800.000	0.122	-0.401
-578.777	573.066	-0.056	0.137
-577.763	-1.017	-0.301	-0.214
-576.748	79.340	0.165	0.177
-575.733	61.321	0.295	0.295
-574.719	46.369	-0.140	0.130
-573.704	496.187	0.044	0.102
-572.690	395.129	-0.109	-0.228
-571.675	54.791	-0.259	0.251
-570.661	-132.379	0.285	0.037
-569.646	-89.519	-0.484	0.143
-568.631	-108.939	-0.161	-0.035
-567.617	-139.574	0.248	0.027
-566.602	-200.000	0.058	-0.259
-565.588	-105.046	-0.374	0.086
-564.573	86.324	0.201	-0.222
-563.558	-38.706	0.216	0.115
-562.544	-45.291	-0.231	0.115
-561.529	-79.943	0.223	0.075
-560.515	-92.450	-0.113	0.032
-559.500	-200.000	0.015	0.351
-558.485	-92.891	0.424	-0.119
-557.471	67.587	-0.200	-0.205
-556.456	800.000	0.023	0.082
-555.442	574.928	-0.070	0.171
-554.427	70.303	0.157	-0.163
-553.412	-200.000	0.054	-0.290
-552.398	-92.861	0.314	0.088
-551.383	407.450	0.183	0.389
-550.369	-101.717	-0.431	0.105
-549.354	-61.730	0.270	0.113
-548.339	152.676	-0.143	-0.196
-547.325	-61.154	0.250	-0.106
-546.310	-196.108	-0.078	0.001
-545.296	-76.244	-0.092	0.033
-544.281	-148.512	0.214	-0.018
-543.266	53.648	-0.017	-0.016
-542.252	-17.645	-0.164	0.104
-541.237	-16.492	-0.468	0.297
-540.223	-1.031	-0.196	-0.139
-539.208	22.443	-0.211	0.173
-538.193	-148.586	-0.132	0.011
-537.179	-200.000	0.031	-0.182
-536.164	350.661	-0.182	0.361
-535.150	25.392	0.179	0.149
-534.135	-200.000	-0.031	-0.188
-533.121	63.042	0.265	0.266
-532.106	549.786	-0.162	0.389
-531.091	-200.000	0.004	-0.120
-530.077	800.000	-0.085	-0.352
-529.062	430.935	0.082	-0.177
-528.048	127.331	-0.314	0.399
-527.033	-104.258	0.323	0.075
-526.018	-200.000	0.179	-0.001
-525.004	-104.032	0.288	0.067
-523.989	-84.845	-0.091	-0.029
-522.975	-200.000	-0.049	-0.262
-521.960	-200.000	-0.007	0.332
-520.945	51.560	-0.082	-0.078
-519.931	-91.359	-0.241	-0.069
-518.916	800.000	0.086	0.308
-517.902	244.358	-0.048	0.080
-516.887	-28.937	-0.402	0.231
-515.872	45.310	-0.118	-0.109
-514.858	-119.438	0.155	-0.027
-513.843	-200.000	0.042	-0.335
-512.829	144.192	0.137	-0.183
-511.814	611.935	0.103	-0.258
-510.799	-39.700	-0.205	0.108
-509.785	-200.000	0.007	0.198
-508.770	-200.000	-0.007	0.145
-507.756	-200.000	0.014	-0.487
-506.741	296.341	-0.048	-0.088
-505.726	61.581	-0.059	-0.059
-504.712	56.348	-0.029	-0.029
-503.697	-22.317	-0.200	-0.121
-502.683	800.000	0.074	-0.221
-501.668	800.000	0.030	0.104
-500.653	76.139	0.246	-0.261
-499.639	-84.206	-0.080	-0.025
-498.624	433.370	0.018	0.039
-497.610	85.262	0.362	0.398
-496.595	-21.730	0.574	-0.350
-495.581	14.831	-0.309	0.242
-494.566	-200.000	0.002	-0.040
-493.551	219.632	-0.087	-0.139
-492.537	-100.388	0.340	0.084
-491.522	-190.769	0.088	-0.001
-490.508	-26.263	0.295	0.173
-489.493	-200.000	-0.002	0.052
-488.478	-200.000	-0.023	-0.178
-487.464	329.724	-0.109	-0.211
-486.449	-200.000	-0.004	-0.313
-485.435	-44.385	0.085	-0.043
-484.420	-160.445	-0.308	-0.017
-483.405	-168.494	0.327	-0.012
-482.391	-82.356	0.235	-0.076
-481.376	-200.000	-0.002	0.061
-480.362	-156.406	-0.063	-0.004
-479.347	66.715	0.069	0.070
-478.332	39.232	-0.347	-0.311
-477.318	-62.081	0.097	0.041
-476.303	800.000	-0.078	0.278
-475.289	-125.906	-0.283	0.043
-474.274	-200.000	-0.012	0.392
-473.259	131.982	-0.032	-0.042
-472.245	49.321	0.137	-0.129
-471.230	-79.804	0.175	-0.059
-470.216	800.000	0.079	-0.295
-469.201	52.595	0.351	-0.335
-468.186	74.657	0.061	0.064
-467.172	176.909	0.088	-0.128
-466.157	432.961	-0.123	0.267
-465.143	199.082	0.054	0.083
-464.128	800.000	0.066	-0.212
-463.113	-192.740	-0.053	-0.000
-462.099	-200.000	0.043	0.613
-461.084	-88.770	0.320	-0.095
-460.070	283.500	-0.173	0.311
-459.055	41.628	0.188	-0.171
-458.040	211.756	0.112	0.176
-457.026	440.983	-0.060	-0.132
-456.011	66.717	0.201	-0.204
-454.997	418.045	-0.129	-0.276
-453.982	-200.000	-0.108	-0.491
-452.968	-200.000	0.002	0.076
-451.953	-2.057	0.187	0.131
-450.938	-21.043	0.312	-0.191
-449.924	-122.728	-0.237	0.038
-448.909	605.881	0.120	0.298
-447.895	536.940	0.051	0.121
-446.880	-0.872	-0.093	-0.066
-445.865	18.147	-0.186	0.148
-444.851	-160.147	0.240	0.013
-443.836	-133.891	0.228	0.028
-442.822	213.330	0.031	0.048
-441.807	326.176	0.098	-0.188
-440.792	-61.201	0.054	0.023
-439.778	-3.497	0.240	-0.167
-438.763	125.247	0.087	-0.109
-437.749	-131.106	-0.109	-0.014
-436.734	-71.738	0.131	0.049
-435.719	251.071	0.080	0.136
-434.705	340.702	0.104	0.202
-433.690	-121.297	-0.267	0.045
-432.676	-200.000	-0.009	0.179
-431.661	-126.502	0.004	-0.001
-430.646	-200.000	-0.023	0.237
-429.632	145.909	-0.145	-0.194
-428.617	294.789	-0.046	0.084
-427.603	0.335	-0.299	-0.213
-426.588	-142.693	-0.212	0.021
-425.573	-115.621	0.217	-0.041
-424.559	-95.664	0.324	-0.087
-423.544	-81.866	-0.411	-0.134
-422.530	-119.276	-0.099	-0.017
-421.515	74.041	0.316	0.331
-420.500	522.056	-0.045	-0.105
-419.486	800.000	0.060	0.212
-418.471	-21.194	0.239	-0.146
-417.457	-44.287	-0.384	0.192
-416.442	800.000	-0.094	0.349
-415.428	683.122	-0.085	0.220
-414.413	-98.361	-0.297	0.076
-413.398	92.291	0.120	0.135
-412.384	335.066	-0.161	-0.312
-411.369	800.000	-0.025	-0.079
-410.355	-200.000	-0.023	0.194
-409.340	-200.000	0.006	-0.260
-408.325	15.540	0.122	0.095
-407.311	133.998	-0.051	0.066
-406.296	28.357	-0.223	0.188
-405.282	-179.549	0.207	-0.005
-404.267	322.021	-0.050	-0.095
-403.252	-36.480	0.202	-0.108
-402.238	-200.000	0.018	-0.154
-401.223	128.990	0.280	0.357
-400.209	-168.630	0.291	-0.011
-399.194	131.874	-0.054	-0.070
-398.179	167.028	0.146	0.207
-397.165	17.493	-0.152	-0.121
-396.150	-36.517	-0.077	-0.041
-395.136	142.654	-0.200	0.265
-394.121	800.000	-0.039	0.117
-393.106	0.754	0.331	-0.236
-392.092	-131.120	0.175	-0.023
-391.077	380.122	0.034	0.069
-390.063	-200.000	-0.003	0.022
-389.048	-80.310	-0.179	0.060
-388.033	800.000	0.108	0.344
-387.019	800.000	0.033	0.095
-386.004	-123.362	-0.372	0.059
-384.990	-134.743	0.140	-0.017
-383.975	403.774	-0.083	0.175
-382.960	-42.085	0.317	-0.162
-381.946	523.788	0.090	0.211
-380.931	-131.473	0.367	-0.048
-379.917	29.629	-0.252	0.213
-378.902	241.301	0.124	-0.207
-377.888	7.878	-0.192	-0.144
-376.873	514.425	0.026	0.059
-375.858	-56.730	0.179	-0.079
-374.844	-200.000	-0.024	-0.243
-373.829	-14.223	0.149	0.096
-372.815	95.601	-0.122	-0.139
-371.800	28.757	-0.064	0.054
-370.785	409.958	-0.224	0.472
-369.771	92.044	-0.071	0.079
-368.756	39.248	-0.095	-0.084
-367.742	800.000	0.045	-0.168
-366.727	-35.733	-0.228	-0.123
-365.712	453.653	0.180	-0.398
-364.698	4.875	-0.263	-0.192
-363.683	270.533	0.151	-0.264
-362.669	-67.091	0.118	-0.046
-361.654	800.000	-0.035	-0.120
-360.639	-161.921	0.322	0.016
-359.625	-200.000	-0.042	0.218
-358.610	-71.978	-0.128	-0.047
-357.596	800.000	-0.105	0.289
-356.581	-91.292	-0.273	0.078
-355.566	53.769	0.159	-0.152
-354.552	-200.000	-0.001	0.094
-353.537	800.000	-0.068	0.230
-352.523	-200.000	0.006	-0.100
-351.508	-127.788	-0.120	0.017
-350.493	-90.084	-0.088	0.026
-349.479	-38.373	-0.091	-0.048
-348.464	-200.000	0.063	-0.346
-347.450	-7.518	0.213	0.144
-346.435	-42.861	0.434	0.220
-345.420	384.309	-0.078	0.159
-344.406	-192.737	-0.236	0.002
-343.391	156.785	-0.139	-0.191
-342.377	41.321	0.069	0.062
-341.362	-200.000	0.026	-0.276
-340.348	-76.044	-0.096	0.034
-339.333	68.691	-0.197	0.201
-338.318	-37.582	0.192	0.102
-337.304	46.022	-0.049	0.045
-336.289	-200.000	-0.001	-0.115
-335.275	-110.538	0.156	-0.032
-334.260	-200.000	-0.012	-0.088
-333.245	-55.798	-0.161	0.071
-332.231	-118.819	-0.128	-0.022
-331.216	-22.481	0.109	-0.066
-330.202	-200.000	0.052	0.311
-329.187	105.602	-0.145	0.171
-328.172	-14.665	-0.169	0.108
-327.158	800.000	0.070	-0.287
-326.143	59.573	-0.064	0.062
-325.129	-156.510	-0.089	-0.006
-324.114	-62.336	-0.450	-0.186
-323.099	-67.372	-0.064	-0.025
-322.085	-184.253	-0.303	0.005
-321.070	33.000	-0.184	0.159
-320.056	-30.336	0.129	0.073
-319.041	6.041	0.252	-0.185
-318.026	-173.111	-0.362	-0.011
-317.012	-106.351	0.210	-0.047
-315.997	114.582	-0.221	0.268
-314.983	-200.000	0.058	0.281
-313.968	284.141	-0.075	-0.134
-312.953	-46.270	0.299	0.146
-311.939	-1.732	-0.180	-0.126
-310.924	-200.000	-0.024	0.241
-309.910	-200.000	0.056	-0.277
-308.895	44.633	0.151	-0.138
-307.880	101.544	0.046	-0.053
-306.866	169.252	0.160	0.226
-305.851	-94.640	-0.397	0.107
-304.837	-104.682	-0.193	-0.044
-303.822	800.000	-0.110	-0.408
-302.807	-137.780	-0.286	-0.032
-301.793	247.932	-0.085	-0.142
-300.778	61.341	0.167	-0.165
-299.764	-103.899	0.073	0.017
-298.749	-86.241	-0.171	0.052
-297.735	65.613	0.128	-0.129
-296.720	-32.977	-0.183	0.101
-295.705	800.000	-0.070	0.217
-294.691	-161.308	-0.007	-0.000
-293.676	-150.962	0.382	-0.029
-292.662	43.037	-0.218	-0.198
-291.647	-114.696	-0.184	-0.035
-290.632	-200.000	-0.006	-0.316
-289.618	252.968	-0.110	-0.186
-288.603	136.853	-0.041	-0.053
-287.589	-78.970	0.111	-0.037
-286.574	-200.000	-0.030	0.255
-285.559	44.845	-0.195	-0.178
-284.545	759.519	-0.104	-0.279
-283.530	-60.945	-0.297	-0.125
-282.516	23.821	0.250	0.205
-281.501	-33.522	0.328	-0.180
-280.486	-62.423	-0.162	-0.067
-279.472	-97.981	-0.076	-0.019
-278.457	249.423	-0.123	-0.208
-277.443	54.245	-0.067	-0.064
-276.428	-200.000	-0.040	0.332
-275.413	161.337	-0.153	0.212
-274.399	-127.846	-0.412	0.059
-273.384	-80.371	0.182	-0.060
-272.370	90.172	0.224	-0.249
-271.355	-102.255	0.061	0.015
-270.340	-126.430	-0.131	0.019
-269.326	-25.524	0.204	0.119
-268.311	-174.794	0.192	-0.005
-267.297	800.000	0.049	0.138
-266.282	-125.305	0.294	-0.045
-265.267	-74.966	-0.254	0.090
-264.253	-200.000	-0.012	-0.248
-263.238	-69.942	0.388	-0.147
-262.224	594.278	0.032	0.079
-261.209	-126.998	0.133	-0.019
-260.195	800.000	0.055	0.192
-259.180	-200.000	-0.001	0.044
-258.165	151.563	0.180	0.243
-257.151	-200.000	-0.015	-0.198
-256.136	434.973	0.069	-0.148
-255.122	-44.476	0.121	0.060
-254.107	-58.793	0.200	-0.086
-253.092	-10.436	0.220	0.144
-252.078	7.270	0.032	0.024
-251.063	-33.187	0.295	-0.162
-250.049	-123.712	-0.303	-0.048
-249.034	-200.000	-0.016	0.079
-248.019	-58.324	-0.164	-0.071
-247.005	-80.031	0.197	0.065
-245.990	-75.433	0.149	-0.053
-244.976	15.659	0.140	-0.109
-243.961	800.000	-0.022	0.095
-242.946	-122.870	-0.317	-0.051
-241.932	-73.601	-0.098	0.035
-240.917	-122.400	0.098	-0.016
-239.903	800.000	0.024	0.101
-238.888	134.016	0.240	-0.308
-237.873	-36.618	-0.092	0.049
-236.859	-78.292	-0.156	0.053
-235.844	262.562	-0.082	0.141
-234.830	-150.430	-0.104	0.008
-233.815	-36.076	0.283	0.151
-232.800	134.209	0.110	-0.141
-231.786	-200.000	-0.048	0.320
-230.771	800.000	0.064	0.253
-229.757	421.348	0.114	-0.241
-228.742	117.452	0.259	-0.316
-227.727	-114.702	0.443	0.084
-226.713	597.954	-0.115	0.283
-225.698	592.472	0.067	-0.164
-224.684	-25.883	-0.230	0.134
-223.669	-155.160	-0.194	0.013
-222.655	-50.225	-0.193	0.090
-221.640	-200.000	-0.019	0.335
-220.625	83.186	-0.110	0.118
-219.611	748.635	0.060	-0.160
-218.596	-62.341	0.201	0.083
-217.582	-200.000	-0.002	0.056
-216.567	122.581	-0.104	0.128
-215.552	47.458	0.164	-0.151
-214.538	420.630	0.086	-0.183
-213.523	-32.899	0.210	-0.115
-212.509	110.705	-0.148	0.176
-211.494	-200.000	-0.045	0.244
-210.479	-19.573	-0.270	0.166
-209.465	51.752	-0.079	0.074
-208.450	-136.047	0.174	0.020
-207.436	96.256	0.115	0.130
-206.421	800.000	-0.051	-0.142
-205.406	-200.000	0.006	-0.361
-204.392	-147.363	-0.255	0.021
-203.377	-110.640	0.058	-0.012
-202.363	-31.477	0.131	-0.073
-201.348	117.773	-0.053	-0.065
-200.333	-200.000	-0.005	0.329
-199.319	-182.434	-0.238	-0.004
-198.304	-94.491	0.376	0.101
-197.290	175.165	-0.137	-0.197
-196.275	151.476	0.075	0.101
-195.260	-188.125	-0.109	-0.001
-194.246	86.654	0.030	-0.032
-193.231	800.000	0.017	-0.055
-192.217	-72.244	-0.427	-0.157
-191.202	214.731	0.093	-0.145
-190.187	525.798	-0.058	0.135
-189.173	276.744	-0.088	0.155
-188.158	-200.000	-0.010	-0.306
-187.144	71.790	-0.139	-0.143
-186.129	-98.819	-0.098	-0.025
-185.114	169.888	0.115	0.163
-184.100	-121.353	-0.175	0.029
-183.085	-160.419	-0.125	0.007
-182.071	-200.000	-0.027	0.471
-181.056	-200.000	0.000	-0.215
-180.042	-200.000	-0.018	0.376
-179.027	159.698	0.161	0.222
-178.012	188.590	-0.161	0.238
-176.998	-117.279	0.402	-0.072
-175.983	472.438	-0.146	-0.326
-174.969	219.455	0.053	-0.084
-173.954	-93.078	0.556	-0.153
-172.939	-51.641	-0.219	-0.101
-171.925	-161.842	0.188	-0.009
-170.910	297.416	0.122	-0.222
-169.896	-200.000	-0.020	0.228
-168.881	-132.795	-0.436	0.055
-167.866	-3.868	0.275	-0.188
-166.852	-124.406	0.370	-0.057
-165.837	-176.716	-0.179	-0.005
-164.823	-200.000	-0.036	-0.177
-163.808	800.000	0.073	-0.275
-162.793	430.695	-0.031	-0.066
-161.779	68.156	-0.212	0.215
-160.764	-64.233	0.077	0.031
-159.750	96.126	0.101	0.114
-158.735	-21.421	-0.232	0.140
-157.720	35.181	-0.317	0.275
-156.706	-200.000	0.006	0.419
-155.691	-200.000	-0.011	0.376
-154.677	-63.617	-0.183	-0.074
-153.662	17.577	-0.066	0.052
-152.647	-191.434	0.361	-0.004
-151.633	800.000	-0.004	-0.012
-150.618	-200.000	-0.055	0.325
-149.604	-200.000	0.131	0.000
-148.589	-117.417	0.204	-0.037
-147.574	800.000	0.033	-0.118
-146.560	41.599	0.105	-0.094
-145.545	-111.060	-0.360	-0.073
-144.531	800.000	-0.076	0.282
-143.516	-37.437	-0.192	0.101
-142.502	331.528	0.057	0.109
-141.487	-131.046	-0.086	-0.011
-140.472	-200.000	0.022	0.170
-139.458	-15.761	0.100	0.063
-138.443	391.475	0.035	0.073
-137.429	48.238	0.149	-0.138
-136.414	800.000	0.081	0.238
-135.399	260.138	-0.113	-0.193
-134.385	-200.000	0.039	-0.332
-133.370	97.658	0.216	0.245
-132.356	-75.933	-0.140	-0.049
-131.341	150.442	-0.046	-0.061
-130.326	23.446	-0.250	0.203
-129.312	-58.294	-0.274	-0.118
-128.297	-30.317	-0.076	0.042
-127.283	-143.435	-0.246	0.023
-126.268	209.058	-0.241	0.372
-125.253	-85.908	0.063	-0.019
-124.239	-200.000	-0.008	-0.121
-123.224	168.871	0.201	0.283
-122.210	-94.493	0.198	-0.053
-121.195	-182.844	-0.296	0.005
-120.180	360.853	0.081	0.160
-119.166	800.000	0.055	0.199
-118.151	-70.141	0.093	0.035
-117.137	46.870	-0.377	-0.345
-116.122	-123.298	-0.035	-0.006
-115.107	46.351	0.128	-0.117
-114.093	-101.237	-0.111	0.027
-113.078	-28.873	0.253	0.143
-112.064	23.288	0.315	0.255
-111.049	-146.998	0.134	-0.011
-110.034	-43.723	-0.365	0.181
-109.020	-79.482	-0.289	-0.096
-108.005	-200.000	0.010	0.240
-106.991	-58.672	0.275	-0.117
-105.976	-169.154	-0.175	-0.006
-104.962	202.900	-0.158	0.240
-103.947	7.286	-0.242	-0.178
-102.932	313.926	0.222	-0.412
-101.918	-27.667	-0.218	0.125
-100.903	800.000	0.013	-0.040
-99.889	37.418	-0.094	0.082
-98.874	-68.289	-0.099	0.038
-97.859	251.970	0.145	0.243
-96.845	661.939	0.152	-0.386
-95.830	-12.272	-0.242	-0.156
-94.816	-200.000	-0.019	0.210
-93.801	-200.000	-0.028	0.167
-92.786	-55.554	-0.340	0.150
-91.772	114.409	0.148	0.178
-90.757	-156.978	0.176	0.011
-89.743	800.000	-0.050	-0.190
-88.728	-54.154	0.313	-0.140
-87.713	-153.023	-0.054	-0.004
-86.699	-99.542	0.607	-0.150
-85.684	-200.000	-0.003	-0.225
-84.670	-32.966	0.170	0.093
-83.655	472.892	-0.151	0.336
-82.640	800.000	0.032	-0.129
-81.626	-55.367	-0.260	0.115
-80.611	218.137	-0.085	-0.134
-79.597	-10.771	-0.247	0.161
-78.582	313.676	-0.012	-0.022
-77.567	35.456	-0.233	0.201
-76.553	-91.291	-0.262	0.074
-75.538	254.910	0.021	-0.035
-74.524	-200.000	0.006	-0.193
-73.509	150.978	-0.144	-0.193
-72.494	-48.203	0.207	0.099
-71.480	-79.675	0.222	0.074
-70.465	800.000	0.069	0.204
-69.451	174.036	-0.097	0.138
-68.436	-37.946	-0.282	-0.148
-67.422	-118.405	0.228	0.040
-66.407	-70.405	0.330	0.123
-65.392	-92.241	-0.223	0.062
-64.378	-200.000	0.064	-0.308
-63.363	11.513	-0.033	-0.025
-62.349	35.715	-0.284	0.245
-61.334	92.745	-0.901	-1.001
-60.319	379.179	0.508	1.023
-59.305	800.000	-0.235	-0.872
-58.290	285.313	0.723	1.282
-57.276	800.000	0.428	1.432
-56.261	-200.000	112.989	650.244
-55.246	472.637	1504.481	3334.876
-54.232	144.674	2681.106	3525.117
-53.217	94.929	2323.589	2601.925
-52.203	34.110	2072.406	1777.055
-51.188	29.326	1986.952	1660.751
-50.173	27.874	1970.062	1633.589
-49.159	46.603	2027.992	1852.014
-48.144	45.570	2043.908	1857.111
-47.130	29.894	2003.409	1679.395
-46.115	27.627	1993.107	1650.199
-45.100	27.597	1989.865	1647.179
-44.086	27.469	1988.026	1644.438
-43.071	27.364	1985.523	1641.354
-42.057	27.343	1983.030	1639.042
-41.042	27.357	1981.421	1637.768
-40.027	27.471	1979.553	1637.181
-39.013	27.427	1977.447	1634.983
-37.998	27.484	1975.712	1633.996
-36.984	27.546	1973.916	1632.996
-35.969	27.471	1971.989	1630.669
-34.954	27.461	1970.466	1629.254
-33.940	27.508	1969.018	1628.411
-32.925	27.498	1967.355	1626.888
-31.911	27.521	1965.634	1625.605
-30.896	27.529	1963.973	1624.233
-29.881	27.541	1962.744	1623.264
-28.867	27.478	1961.293	1621.439
-27.852	27.556	1959.410	1620.509
-26.838	27.595	1957.267	1619.017
-25.823	27.628	1955.692	1617.945
-24.809	27.602	1953.700	1616.002
-23.794	27.605	1951.716	1614.322
-22.779	27.609	1950.063	1612.928
-21.765	27.641	1948.888	1612.176
-20.750	27.511	1947.025	1609.422
-19.736	27.566	1945.318	1608.433
-18.721	27.584	1943.768	1607.242
-17.706	27.548	1942.178	1605.549
-16.692	27.655	1940.238	1604.827
-15.677	27.674	1938.774	1603.715
-14.663	27.602	1937.661	1602.103
-13.648	27.528	1936.666	1600.565
-12.633	27.618	1935.349	1600.199
-11.619	27.511	1933.843	1597.952
-10.604	27.594	1932.261	1597.311
-9.590	27.566	1930.573	1595.603
-8.575	27.522	1929.443	1594.227
-7.560	27.524	1928.281	1593.217
-6.546	27.549	1926.808	1592.156
-5.531	27.575	1925.606	1591.326
-4.517	27.527	1924.678	1590.077
-3.502	27.547	1923.745	1589.419
-2.487	27.592	1921.899	1588.224
-1.473	27.643	1921.470	1588.245
-0.458	27.610	1916.499	1583.790
0.556	25.578	1896.123	1555.630
1.571	21.368	1877.608	1504.156
2.586	17.513	1900.780	1488.935
3.600	16.639	1935.891	1508.526
4.615	16.542	1930.840	1503.588
5.629	15.311	1838.416	1421.063
6.644	12.619	1733.838	1318.565
7.659	10.891	1703.498	1281.769
8.673	10.689	1701.255	1278.375
9.688	10.723	1699.054	1276.874
10.702	10.622	1697.992	1275.170
11.717	10.627	1694.273	1272.302
12.731	10.733	1692.993	1272.062
13.746	12.773	1696.884	1290.870
14.761	15.946	1702.906	1320.251
15.775	17.545	1704.979	1334.280
16.790	17.285	1703.074	1330.637
17.804	16.196	1699.860	1319.491
18.819	15.209	1696.543	1309.097
19.834	14.583	1693.488	1301.740
20.848	14.134	1692.395	1297.280
21.863	13.958	1690.209	1294.116
22.877	13.653	1689.310	1290.941
23.892	13.501	1687.650	1288.374
24.907	13.401	1686.749	1286.798
25.921	13.401	1685.179	1285.488
26.936	13.338	1684.049	1284.023
27.950	13.469	1683.542	1284.540
28.965	13.446	1683.324	1284.080
29.980	13.509	1682.118	1283.532
30.994	13.546	1681.202	1283.006
32.009	13.560	1679.759	1281.902
33.023	13.668	1679.113	1282.128
34.038	13.596	1678.257	1280.804
35.053	13.683	1676.663	1280.148
36.067	13.537	1676.212	1278.566
37.082	13.640	1674.212	1277.719
38.096	13.561	1673.424	1276.397
39.111	13.637	1672.643	1276.273
40.126	13.616	1671.671	1275.257
41.140	13.593	1670.398	1273.995
42.155	13.466	1669.654	1272.336
43.169	13.347	1667.857	1269.945
44.184	13.398	1666.549	1269.224
45.199	13.391	1665.627	1268.358
46.213	13.333	1664.241	1266.748
47.228	13.341	1663.238	1265.934
48.242	13.377	1661.759	1264.967
49.257	13.380	1660.724	1264.095
50.271	13.460	1659.573	1263.719
51.286	13.403	1658.723	1262.520
52.301	13.412	1656.937	1261.122
53.315	13.364	1655.967	1259.903
54.330	13.405	1653.845	1258.493
55.344	13.452	1651.902	1257.253
56.359	13.368	1650.705	1255.600
57.374	13.413	1649.729	1255.082
58.388	13.396	1648.283	1253.741
59.403	13.311	1647.358	1252.289
60.417	13.289	1645.714	1250.760
61.432	13.343	1644.192	1249.902
62.447	13.224	1643.888	1248.661
63.461	13.231	1642.243	1247.351
64.476	13.255	1641.708	1247.021
65.490	13.149	1640.896	1245.490
66.505	13.181	1638.866	1244.077
67.520	13.252	1637.689	1243.611
68.534	13.286	1637.103	1243.309
69.549	13.252	1636.305	1242.337
70.563	13.241	1634.781	1240.992
71.578	13.270	1633.494	1240.122
72.593	13.360	1632.125	1239.646
73.607	13.146	1631.635	1237.560
74.622	13.236	1629.763	1236.706
75.636	13.247	1629.570	1236.536
76.651	13.145	1628.617	1234.939
77.666	13.106	1628.219	1234.233
78.680	13.187	1626.831	1233.675
79.695	13.128	1626.149	1232.609
80.709	13.212	1624.871	1232.163
81.724	13.269	1624.432	1232.146
82.739	13.238	1623.256	1230.912
83.753	13.310	1623.050	1231.182
84.768	13.373	1621.601	1230.440
85.782	13.457	1620.863	1230.395
86.797	13.471	1620.194	1229.883
87.812	13.529	1618.882	1229.208
88.826	13.524	1617.547	1228.051
89.841	13.450	1616.571	1226.650
90.855	13.376	1615.622	1225.280
91.870	13.369	1614.634	1224.364
92.884	13.440	1613.767	1224.130
93.899	13.556	1612.074	1223.594
94.914	13.427	1611.258	1221.909
95.928	13.524	1610.095	1221.635
96.943	13.537	1608.764	1220.615
97.957	13.539	1606.713	1218.968
98.972	13.463	1605.455	1217.348
99.987	13.476	1603.818	1216.088
101.001	13.504	1602.091	1214.877
102.016	13.486	1600.549	1213.471
103.030	13.480	1598.884	1212.057
104.045	13.501	1598.181	1211.567
105.060	13.484	1596.933	1210.392
106.074	13.437	1595.096	1208.549
107.089	13.389	1593.530	1206.905
108.103	13.326	1591.779	1205.011
109.118	13.284	1590.759	1203.832
110.133	13.197	1589.445	1202.098
111.147	13.273	1588.091	1201.516
112.162	13.316	1586.676	1200.657
113.176	13.322	1584.881	1199.235
114.191	13.356	1583.569	1198.383
115.206	13.309	1582.763	1197.322
116.220	13.318	1581.077	1196.010
117.235	13.323	1579.503	1194.745
118.249	13.400	1578.488	1194.426
119.264	13.327	1577.314	1192.908
120.279	13.335	1575.826	1191.733
121.293	13.293	1574.070	1190.002
122.308	13.285	1572.867	1188.930
123.322	13.255	1571.177	1187.332
124.337	13.304	1569.649	1186.425
125.352	13.214	1568.582	1184.863
126.366	13.251	1566.908	1183.764
127.381	13.264	1566.165	1183.189
128.395	13.210	1565.392	1182.111
129.410	13.253	1563.755	1181.076
130.424	13.314	1562.347	1180.346
131.439	13.290	1560.825	1178.921
132.454	13.367	1559.628	1178.463
133.468	13.419	1558.083	1177.560
134.483	13.428	1556.599	1176.399
135.497	13.524	1554.939	1175.718
136.512	13.356	1553.778	1173.544
137.527	13.389	1552.746	1172.900
138.541	13.399	1551.084	1171.612
139.556	13.388	1549.696	1170.378
140.570	13.445	1548.587	1169.844
141.585	13.524	1546.708	1168.876
142.600	13.567	1545.901	1168.463
143.614	13.619	1544.374	1167.578
144.629	13.588	1543.383	1166.502
145.643	13.676	1541.933	1165.925
146.658	13.672	1540.888	1165.003
147.673	13.725	1539.071	1163.899
148.687	13.518	1537.812	1161.394
149.702	13.560	1535.829	1160.088
150.716	13.600	1533.711	1158.660
151.731	13.519	1532.549	1157.119
152.746	13.529	1531.661	1156.412
153.760	13.549	1530.081	1155.256
154.775	13.497	1529.001	1153.977
155.789	13.611	1527.776	1153.746
156.804	13.724	1526.510	1153.473
157.819	13.691	1525.335	1152.255
158.833	13.647	1524.377	1151.125
159.848	13.783	1522.896	1150.847
160.862	13.791	1521.815	1149.979
161.877	13.802	1520.668	1149.092
162.892	13.792	1519.507	1148.038
163.906	13.686	1518.291	1146.290
164.921	13.716	1516.962	1145.393
165.935	13.604	1516.013	1143.802
166.950	13.676	1514.938	1143.384
167.964	13.667	1513.255	1141.948
168.979	13.785	1512.512	1142.102
169.994	13.694	1511.436	1140.563
171.008	13.662	1510.577	1139.590
172.023	13.763	1509.455	1139.339
173.037	13.805	1507.963	1138.398
174.052	13.766	1506.934	1137.253
175.067	13.767	1506.387	1136.747
176.081	13.774	1505.221	1135.817
177.096	13.720	1503.626	1134.145
178.110	13.725	1502.203	1133.006
179.125	13.784	1500.987	1132.392
180.140	13.741	1500.151	1131.367
181.154	13.821	1498.356	1130.457
182.169	13.814	1497.510	1129.669
183.183	13.867	1496.707	1129.326
184.198	13.930	1495.240	1128.547
185.213	13.912	1494.445	1127.725
186.227	13.983	1493.377	1127.297
187.242	14.020	1492.210	1126.569
188.256	13.983	1491.268	1125.510
189.271	14.049	1490.115	1124.983
190.286	14.160	1488.824	1124.662
191.300	13.993	1488.139	1122.916
192.315	13.850	1486.634	1120.718
193.329	13.763	1485.493	1119.167
194.344	13.808	1483.919	1118.186
195.359	13.748	1483.230	1117.168
196.373	13.799	1482.080	1116.543
197.388	13.925	1481.028	1116.499
198.402	13.956	1480.443	1116.165
199.417	14.110	1479.071	1116.072
200.432	14.089	1478.181	1115.154
201.446	14.174	1477.154	1114.852
202.461	14.271	1476.329	1114.782
203.475	14.322	1474.682	1113.781
204.490	14.211	1473.970	1112.402
205.504	14.243	1472.881	1111.697
206.519	14.270	1470.955	1110.321
207.534	14.190	1470.333	1109.221
208.548	14.112	1469.270	1107.804
209.563	14.121	1468.313	1107.046
210.577	14.097	1466.985	1105.785
211.592	14.189	1465.976	1105.540
212.607	14.204	1465.335	1105.057
213.621	14.284	1465.269	1105.438
214.636	14.374	1463.944	1104.936
215.650	14.294	1463.124	1103.691
216.665	14.232	1461.811	1102.190
217.680	14.317	1461.010	1102.055
218.694	14.452	1460.415	1102.401
219.709	14.376	1459.480	1101.096
220.723	14.452	1458.319	1100.623
221.738	14.345	1457.729	1099.373
222.753	14.423	1456.413	1098.803
223.767	14.425	1455.459	1097.996
224.782	14.430	1454.722	1097.377
225.796	14.532	1453.306	1096.884
226.811	14.445	1452.636	1095.706
227.826	14.517	1452.123	1095.698
228.840	14.537	1450.742	1094.687
229.855	14.494	1450.187	1093.893
230.869	14.366	1449.185	1092.198
231.884	14.485	1447.868	1091.886
232.899	14.522	1446.628	1091.103
233.913	14.456	1445.455	1089.690
234.928	14.498	1443.955	1088.734
235.942	14.458	1443.192	1087.803
236.957	14.476	1442.094	1086.997
237.972	14.400	1440.643	1085.308
238.986	14.526	1439.732	1085.347
240.001	14.587	1438.287	1084.560
241.015	14.493	1437.349	1083.143
242.030	14.464	1437.240	1082.779
243.045	14.566	1435.841	1082.290
244.059	14.578	1434.881	1081.547
245.074	14.587	1434.130	1080.944
246.088	14.575	1433.610	1080.378
247.103	14.584	1432.559	1079.552
248.117	14.755	1431.910	1080.069
249.132	14.738	1430.687	1078.945
250.147	14.735	1430.542	1078.718
251.161	14.932	1429.394	1079.029
252.176	15.036	1428.619	1079.022
253.190	15.014	1428.008	1078.319
254.205	15.054	1427.440	1078.053
255.220	14.970	1426.760	1076.901
256.234	15.090	1425.578	1076.692
257.249	15.050	1425.215	1076.059
258.263	15.202	1423.682	1075.786
259.278	15.106	1423.015	1074.569
260.293	15.102	1421.974	1073.666
261.307	15.082	1421.496	1073.079
262.322	15.091	1420.798	1072.516
263.336	15.155	1419.744	1072.032
264.351	15.183	1418.628	1071.276
265.366	15.200	1417.327	1070.310
266.380	15.273	1416.960	1070.401
267.395	15.326	1415.508	1069.550
268.409	15.268	1415.114	1068.784
269.424	15.178	1414.314	1067.512
270.439	15.234	1412.747	1066.591
271.453	15.229	1411.784	1065.740
272.468	15.229	1410.965	1065.029
273.482	15.147	1410.166	1063.806
274.497	15.342	1409.122	1064.165
275.512	15.229	1408.070	1062.558
276.526	15.209	1407.424	1061.849
277.541	15.182	1406.503	1060.889
278.555	15.251	1405.532	1060.502
279.570	15.280	1404.719	1059.977
280.585	15.283	1403.794	1059.208
281.599	15.377	1403.011	1059.116
282.614	15.394	1402.084	1058.426
283.628	15.374	1401.075	1057.443
284.643	15.267	1399.969	1055.842
285.657	15.390	1398.699	1055.569
286.672	15.406	1397.837	1054.921
287.687	15.387	1397.296	1054.302
288.701	15.373	1395.908	1053.073
289.716	15.413	1395.374	1052.830
290.730	15.422	1394.648	1052.245
291.745	15.487	1393.164	1051.439
292.760	15.467	1392.320	1050.582
293.774	15.522	1391.334	1050.089
294.789	15.589	1390.042	1049.442
295.803	15.567	1389.803	1049.032
296.818	15.611	1388.415	1048.161
297.833	15.597	1387.566	1047.341
298.847	15.503	1386.928	1046.183
299.862	15.504	1385.921	1045.340
300.876	15.450	1385.244	1044.401
301.891	15.514	1384.077	1043.821
302.906	15.639	1383.586	1044.135
303.920	15.721	1382.514	1043.746
304.935	15.734	1381.792	1043.189
305.949	15.760	1381.011	1042.670
306.964	15.804	1380.226	1042.256
307.979	15.885	1379.449	1042.076
308.993	15.812	1378.451	1040.779
310.008	15.821	1377.319	1039.891
311.022	15.784	1376.543	1038.984
312.037	15.791	1375.665	1038.270
313.052	15.835	1374.476	1037.556
314.066	15.891	1373.282	1036.904
315.081	15.784	1372.354	1035.456
316.095	15.762	1370.904	1034.136
317.110	15.783	1370.152	1033.603
318.125	15.780	1369.504	1033.006
319.139	15.815	1368.175	1032.126
320.154	15.792	1367.118	1031.098
321.168	15.798	1366.397	1030.500
322.183	15.769	1365.806	1029.782
323.197	15.899	1364.708	1029.662
324.212	15.856	1363.597	1028.466
325.227	15.837	1362.999	1027.810
326.241	15.881	1361.834	1027.110
327.256	15.855	1361.171	1026.360
328.270	15.907	1360.499	1026.081
329.285	15.909	1359.494	1025.240
330.300	15.873	1358.703	1024.336
331.314	15.950	1357.777	1024.013
332.329	15.927	1356.737	1022.999
333.343	15.912	1355.947	1022.225
334.358	15.936	1355.270	1021.766
335.373	15.973	1354.448	1021.280
336.387	16.136	1353.536	1021.491
337.402	16.074	1352.475	1020.224
338.416	16.151	1351.833	1020.117
339.431	16.180	1351.470	1019.924
340.446	16.123	1350.951	1019.103
341.460	16.163	1349.729	1018.330
342.475	16.331	1348.454	1018.290
343.489	16.241	1348.011	1017.324
344.504	16.300	1347.042	1016.859
345.519	16.363	1346.125	1016.454
346.533	16.314	1345.236	1015.397
347.548	16.351	1344.285	1014.811
348.562	16.506	1343.417	1014.997
349.577	16.442	1342.824	1014.075
350.592	16.359	1342.042	1012.901
351.606	16.290	1340.828	1011.483
352.621	16.286	1340.291	1010.963
353.635	16.306	1338.865	1009.916
354.650	16.248	1337.997	1008.826
355.665	16.265	1336.822	1007.952
356.679	16.309	1335.838	1007.381
357.694	16.323	1334.921	1006.685
358.708	16.325	1334.029	1005.939
359.723	16.403	1333.066	1005.583
360.738	16.423	1331.534	1004.462
361.752	16.452	1331.092	1004.208
362.767	16.436	1329.731	1002.999
363.781	16.458	1328.936	1002.443
364.796	16.345	1328.697	1001.499
365.810	16.427	1327.862	1001.268
366.825	16.587	1326.796	1001.324
367.840	16.578	1326.101	1000.657
368.854	16.598	1325.103	999.938
369.869	16.699	1324.779	1000.197
370.883	16.685	1324.594	999.886
371.898	16.738	1322.893	998.831
372.913	16.649	1322.729	998.090
373.927	16.705	1321.494	997.399
374.942	16.637	1320.687	996.302
375.956	16.716	1320.124	996.254
376.971	16.736	1319.389	995.730
377.986	16.729	1318.355	994.822
379.000	16.752	1317.387	994.134
380.015	16.814	1316.524	993.758
381.029	16.869	1315.814	993.459
382.044	16.956	1315.089	993.331
383.059	16.868	1314.427	992.232
384.073	16.898	1313.736	991.795
385.088	16.949	1313.248	991.640
386.102	16.806	1313.345	990.790
387.117	17.005	1311.960	990.820
388.132	17.081	1310.652	990.184
389.146	16.961	1310.120	988.996
390.161	16.885	1309.505	988.002
391.175	16.900	1308.697	987.390
392.190	16.832	1307.568	986.059
393.205	16.987	1306.818	986.305
394.219	16.992	1305.850	985.515
395.234	17.045	1304.444	984.674
396.248	17.068	1303.127	983.729
397.263	16.979	1301.950	982.240
398.278	17.138	1300.506	981.982
399.292	16.949	1299.872	980.323
400.307	16.829	1298.734	978.685
401.321	16.980	1297.836	978.794
402.336	16.915	1296.915	977.634
403.350	16.983	1295.466	976.850
404.365	16.992	1294.769	976.288
405.380	16.981	1294.029	975.584
406.394	17.072	1293.324	975.486
407.409	17.091	1292.029	974.535
408.423	17.062	1291.600	973.956
409.438	17.201	1291.160	974.336
410.453	17.242	1290.248	973.798
411.467	17.377	1289.553	973.960
412.482	17.340	1289.145	973.354
413.496	17.413	1288.420	973.138
414.511	17.316	1287.849	972.065
415.526	17.457	1287.120	972.235
416.540	17.347	1286.303	970.900
417.555	17.410	1285.667	970.694
418.569	17.406	1284.875	969.992
419.584	17.416	1284.427	969.621
420.599	17.442	1283.738	969.162
421.613	97.030	1355.622	1477.289
422.628	94.968	1366.060	1477.397
