DTS Sentinel unit serial number:	SN413079Multiplexer serial number:	ORYXHardware model number:	OX4-SRSoftware version number:	ORYX F/W v4.00 Oryx Data Collector v3.7.2.0data status	okinstallation	princeton_trtdifferential loss correction	single-endedforward channel	channel 4reverse channel	N/Adate	2019/09/14time	23:37:35forward acquisition time	60.00reverse acquisition time	0.00gamma	496.2192k internal	0.2306k external	0.2306temperature offset calibration	1.0053default loss term (dB/km)	0.3790temperature slope calibration	1.0000multiplexer offset coefficient	1.0000multiplexer slope coefficient	1.0000fibre end	0.00T internal ref (°C)	32.31T ext. ref 1 (°C)	4.64T ext. ref 2 (°C)	27.31length (m)	temperature (°C)	Stokes	anti-Stokes-747.200	-101.132	0.394	0.098
-746.185	-186.511	-0.445	0.006
-745.171	-33.920	-0.261	-0.146
-744.156	-33.476	-0.504	0.283
-743.142	226.096	0.230	-0.380
-742.127	270.139	0.046	0.082
-741.112	-0.604	-0.330	0.238
-740.098	154.474	0.112	0.156
-739.083	331.379	0.055	0.107
-738.069	-102.868	-0.262	0.063
-737.054	79.184	0.147	-0.160
-736.039	-22.467	-0.150	-0.092
-735.025	103.120	0.227	0.270
-734.010	86.443	0.270	-0.303
-732.996	20.001	-0.274	-0.225
-731.981	-200.000	-0.029	0.187
-730.966	193.478	-0.130	0.200
-729.952	-200.000	-0.034	-0.278
-728.937	138.914	-0.092	-0.122
-727.923	648.835	-0.027	-0.069
-726.908	496.574	-0.063	-0.148
-725.894	-200.000	0.002	0.259
-724.879	-200.000	0.016	0.239
-723.864	-72.281	0.099	-0.037
-722.850	800.000	-0.036	0.141
-721.835	44.839	0.062	0.058
-720.821	-171.882	-0.367	-0.012
-719.806	-88.207	-0.174	-0.053
-718.791	800.000	-0.061	0.261
-717.777	207.514	0.107	0.169
-716.762	31.045	0.291	-0.253
-715.748	-192.942	-0.364	0.003
-714.733	800.000	-0.130	0.514
-713.718	-85.126	0.196	-0.062
-712.704	-187.761	-0.223	0.003
-711.689	-62.557	-0.040	0.017
-710.675	173.910	0.127	-0.186
-709.660	51.710	-0.101	-0.097
-708.645	-137.991	-0.071	-0.008
-707.631	189.246	-0.142	-0.217
-706.616	-143.975	0.073	0.007
-705.602	-137.221	0.135	0.016
-704.587	53.110	-0.283	-0.276
-703.572	-23.654	0.158	0.096
-702.558	157.095	0.124	-0.174
-701.543	800.000	-0.096	-0.320
-700.529	629.191	0.144	-0.368
-699.514	21.948	0.041	-0.034
-698.499	-129.314	0.135	-0.019
-697.485	541.906	0.083	-0.202
-696.470	334.254	0.044	0.087
-695.456	-2.020	-0.138	-0.099
-694.441	-25.122	-0.309	0.186
-693.426	-29.190	-0.230	-0.134
-692.412	53.786	0.102	-0.099
-691.397	230.585	-0.299	-0.497
-690.383	-48.471	-0.200	-0.098
-689.368	73.071	-0.256	0.272
-688.354	-64.161	0.283	-0.117
-687.339	122.371	0.161	-0.204
-686.324	800.000	-0.059	-0.212
-685.310	-5.045	0.221	-0.154
-684.295	-76.270	-0.155	-0.055
-683.281	-200.000	0.012	0.165
-682.266	209.092	0.050	0.079
-681.251	10.101	0.039	0.030
-680.237	-143.624	-0.103	-0.010
-679.222	-200.000	-0.038	0.247
-678.208	800.000	-0.098	0.296
-677.193	-88.602	0.371	-0.112
-676.178	-140.720	-0.025	0.003
-675.164	-190.941	-0.091	-0.001
-674.149	-200.000	0.048	0.315
-673.135	117.963	0.261	-0.326
-672.120	-200.000	0.037	0.215
-671.105	18.385	-0.145	0.118
-670.091	-108.628	0.166	0.036
-669.076	549.949	-0.114	0.278
-668.062	179.329	-0.132	0.196
-667.047	110.927	0.186	-0.227
-666.032	229.499	-0.233	-0.386
-665.018	-200.000	-0.015	-0.138
-664.003	-10.570	0.207	-0.139
-662.989	-2.418	0.268	-0.191
-661.974	-134.276	-0.113	-0.014
-660.959	196.570	-0.073	0.112
-659.945	-200.000	0.036	0.210
-658.930	-12.175	-0.282	0.187
-657.916	-200.000	0.043	-0.195
-656.901	-200.000	0.043	-0.247
-655.886	-200.000	0.067	-0.312
-654.872	-200.000	0.009	0.091
-653.857	-200.000	0.007	-0.125
-652.843	128.113	-0.214	-0.276
-651.828	-200.000	-0.009	-0.182
-650.814	800.000	0.026	-0.099
-649.799	-137.392	-0.162	0.019
-648.784	-26.340	-0.214	-0.127
-647.770	-102.654	0.091	0.022
-646.755	800.000	-0.053	0.156
-645.741	-45.892	-0.114	-0.057
-644.726	-69.505	0.395	0.153
-643.711	-143.264	0.160	0.016
-642.697	-101.330	-0.099	0.024
-641.682	-200.000	0.057	-0.492
-640.668	309.072	0.155	-0.293
-639.653	-2.510	-0.094	-0.067
-638.638	-86.162	-0.222	0.069
-637.624	-65.446	-0.128	-0.052
-636.609	-1.973	-0.089	-0.063
-635.595	33.910	-0.172	0.151
-634.580	-30.202	-0.172	-0.099
-633.565	138.025	0.235	0.311
-632.551	183.489	0.043	0.064
-631.536	-63.265	0.074	0.031
-630.522	-68.366	0.251	-0.099
-629.507	-42.325	0.082	0.043
-628.492	-200.000	-0.038	-0.386
-627.478	-200.000	0.026	-0.128
-626.463	-65.804	0.082	-0.033
-625.449	50.368	0.300	0.287
-624.434	-114.806	-0.418	-0.081
-623.419	-108.528	0.155	-0.034
-622.405	-135.132	-0.220	-0.027
-621.390	-39.209	-0.094	-0.050
-620.376	762.954	-0.094	-0.258
-619.361	99.399	0.029	0.033
-618.346	57.042	-0.190	0.187
-617.332	-158.245	-0.050	0.003
-616.317	-200.000	0.002	-0.009
-615.303	196.654	-0.063	0.097
-614.288	-200.000	-0.048	0.254
-613.273	-33.142	-0.101	-0.057
-612.259	-200.000	0.001	0.289
-611.244	230.641	0.150	0.248
-610.230	-48.291	-0.530	-0.259
-609.215	-183.943	-0.140	0.002
-608.201	297.526	0.018	-0.034
-607.186	96.315	0.014	0.016
-606.171	-100.403	-0.240	0.060
-605.157	-200.000	-0.031	0.413
-604.142	22.828	-0.096	-0.080
-603.128	-52.219	0.199	-0.093
-602.113	9.927	0.247	-0.190
-601.098	46.115	0.127	-0.119
-600.084	66.018	-0.404	-0.415
-599.069	42.367	0.105	0.097
-598.055	236.988	-0.151	0.253
-597.040	71.420	-0.209	0.220
-596.025	-16.317	0.189	-0.121
-595.011	286.395	0.100	0.182
-593.996	33.230	0.170	-0.149
-592.982	62.477	-0.120	-0.122
-591.967	131.310	0.011	0.015
-590.952	-62.152	0.173	0.073
-589.938	319.453	-0.076	0.146
-588.923	705.768	-0.076	-0.203
-587.909	-120.826	0.284	-0.048
-586.894	-200.000	-0.031	0.345
-585.879	-63.691	-0.100	-0.041
-584.865	79.261	0.060	0.065
-583.850	33.602	0.282	-0.248
-582.836	-119.914	-0.155	0.027
-581.821	44.581	0.142	-0.132
-580.806	-143.699	-0.146	-0.014
-579.792	-200.000	-0.018	-0.198
-578.777	800.000	0.054	0.187
-577.763	-31.806	-0.128	0.072
-576.748	-58.492	-0.238	0.105
-575.733	-67.657	-0.345	-0.137
-574.719	-128.773	-0.216	0.031
-573.704	449.541	-0.142	-0.316
-572.690	800.000	0.084	-0.365
-571.675	-87.168	0.121	-0.037
-570.661	-122.417	-0.162	0.027
-569.646	83.454	-0.230	0.253
-568.631	-200.000	0.042	0.309
-567.617	460.852	-0.069	-0.156
-566.602	-170.610	0.419	0.015
-565.588	57.796	0.326	0.322
-564.573	800.000	0.059	0.220
-563.558	117.549	0.152	-0.189
-562.544	-4.541	-0.199	0.139
-561.529	89.893	0.096	0.108
-560.515	172.629	0.268	0.390
-559.500	-200.000	-0.019	0.092
-558.485	14.887	0.183	-0.144
-557.471	800.000	0.031	0.128
-556.456	800.000	0.006	0.020
-555.442	-85.342	-0.059	-0.019
-554.427	297.399	0.090	-0.166
-553.412	-161.779	-0.160	-0.008
-552.398	-30.920	0.014	0.008
-551.383	-40.249	0.493	0.259
-550.369	-200.000	0.023	-0.109
-549.354	-200.000	0.001	-0.062
-548.339	800.000	0.130	0.515
-547.325	-149.694	0.320	0.025
-546.310	-33.412	-0.420	-0.234
-545.296	-200.000	0.000	0.275
-544.281	-21.796	-0.104	-0.064
-543.266	-54.109	0.202	-0.093
-542.252	-108.313	-0.249	-0.054
-541.237	428.969	0.026	0.058
-540.223	24.828	-0.475	-0.397
-539.208	353.801	0.096	-0.193
-538.193	389.471	-0.032	-0.066
-537.179	-200.000	0.078	-0.388
-536.164	93.819	0.115	0.131
-535.150	-141.380	0.041	-0.004
-534.135	-67.909	-0.012	0.005
-533.121	-200.000	0.012	0.104
-532.106	19.037	-0.335	0.271
-531.091	-101.671	-0.129	0.032
-530.077	-126.732	0.121	0.018
-529.062	105.557	-0.169	0.202
-528.048	-170.751	0.325	0.011
-527.033	456.025	0.145	0.325
-526.018	-200.000	-0.015	0.174
-525.004	-56.897	-0.304	0.135
-523.989	65.204	0.090	-0.092
-522.975	250.071	0.035	-0.060
-521.960	102.568	-0.115	-0.136
-520.945	-174.998	0.203	-0.006
-519.931	-200.000	0.049	0.249
-518.916	-80.877	-0.221	-0.074
-517.902	638.975	0.085	-0.217
-516.887	-10.749	-0.348	-0.232
-515.872	-39.340	0.233	0.123
-514.858	-200.000	0.016	0.128
-513.843	50.254	0.168	-0.160
-512.829	117.080	0.289	-0.358
-511.814	-103.411	0.351	-0.083
-510.799	418.793	0.063	0.136
-509.785	800.000	-0.117	-0.338
-508.770	-200.000	0.009	-0.195
-507.756	99.002	-0.269	-0.313
-506.741	118.675	-0.175	-0.218
-505.726	-85.853	-0.112	-0.035
-504.712	54.887	-0.239	-0.233
-503.697	30.595	-0.224	-0.193
-502.683	-200.000	-0.028	0.241
-501.668	-77.762	-0.268	-0.093
-500.653	467.479	-0.105	-0.236
-499.639	-66.227	-0.201	-0.081
-498.624	99.743	0.078	0.091
-497.610	-14.396	0.124	0.081
-496.595	-200.000	0.013	0.428
-495.581	-200.000	-0.260	0.001
-494.566	260.721	-0.028	0.049
-493.551	70.104	-0.206	-0.214
-492.537	-15.205	0.183	-0.118
-491.522	800.000	0.038	0.146
-490.508	-82.883	-0.440	0.143
-489.493	-146.232	0.359	-0.032
-488.478	-80.051	0.510	-0.172
-487.464	37.471	-0.177	0.158
-486.449	-200.000	-0.035	0.211
-485.435	-200.000	0.033	0.192
-484.420	596.009	-0.072	0.178
-483.405	-43.037	0.230	0.117
-482.391	800.000	0.028	-0.118
-481.376	-144.735	0.148	0.014
-480.362	800.000	-0.021	-0.063
-479.347	281.638	0.117	0.211
-478.332	-200.000	-0.001	-0.018
-477.318	-70.852	0.196	0.074
-476.303	-18.419	-0.333	0.209
-475.289	-200.000	-0.074	-0.525
-474.274	529.860	0.023	0.055
-473.259	800.000	0.035	0.114
-472.245	67.585	-0.107	-0.110
-471.230	238.934	-0.076	0.127
-470.216	-200.000	0.014	-0.266
-469.201	-200.000	0.006	-0.174
-468.186	302.949	0.052	0.096
-467.172	-77.929	-0.120	0.042
-466.157	800.000	-0.069	0.220
-465.143	-200.000	-0.086	0.643
-464.128	-200.000	0.034	0.185
-463.113	-70.438	0.094	-0.036
-462.099	498.454	-0.053	-0.122
-461.084	53.334	0.096	-0.093
-460.070	152.494	-0.166	0.229
-459.055	-54.447	0.358	0.163
-458.040	-145.792	-0.158	0.014
-457.026	-64.448	0.056	-0.023
-456.011	-35.760	-0.216	-0.118
-454.997	171.150	-0.080	0.116
-453.982	-160.469	0.087	-0.005
-452.968	-160.072	-0.146	0.008
-451.953	-200.000	-0.007	0.267
-450.938	-106.349	-0.251	-0.057
-449.924	30.308	0.025	0.022
-448.909	-154.046	-0.226	-0.015
-447.895	20.707	0.361	0.294
-446.880	223.938	0.066	0.108
-445.865	-200.000	0.055	0.261
-444.851	126.411	-0.070	-0.089
-443.836	20.057	0.132	0.107
-442.822	305.155	-0.120	0.225
-441.807	-200.000	0.017	-0.247
-440.792	-200.000	-0.008	-0.075
-439.778	-144.032	0.136	0.013
-438.763	-33.608	0.139	0.077
-437.749	62.582	-0.103	0.103
-436.734	-200.000	-0.017	0.240
-435.719	15.474	0.168	0.133
-434.705	-200.000	0.025	-0.196
-433.690	17.720	0.127	0.102
-432.676	-79.298	0.110	0.038
-431.661	65.827	-0.201	0.205
-430.646	131.899	0.052	-0.067
-429.632	77.065	0.039	0.042
-428.617	800.000	-0.081	-0.325
-427.603	-200.000	-0.002	-0.275
-426.588	224.176	-0.247	-0.400
-425.573	-132.714	-0.379	0.049
-424.559	70.977	-0.150	0.156
-423.544	50.688	-0.190	-0.180
-422.530	800.000	-0.041	0.158
-421.515	33.306	-0.208	0.181
-420.500	-19.660	-0.144	0.089
-419.486	132.774	-0.127	-0.165
-418.471	199.194	-0.100	-0.154
-417.457	31.244	-0.053	0.045
-416.442	-115.628	-0.294	-0.055
-415.428	-49.823	0.121	-0.058
-414.413	170.183	-0.099	0.142
-413.398	-200.000	-0.007	0.131
-412.384	274.087	-0.066	-0.118
-411.369	128.143	0.210	-0.268
-410.355	-200.000	-0.033	-0.243
-409.340	80.404	0.137	0.148
-408.325	-200.000	-0.080	0.397
-407.311	800.000	0.099	0.414
-406.296	-200.000	0.024	0.174
-405.282	-200.000	-0.002	-0.046
-404.267	-63.645	0.052	0.022
-403.252	-122.811	0.139	0.022
-402.238	74.987	-0.094	-0.099
-401.223	153.107	0.124	-0.170
-400.209	-200.000	0.011	0.049
-399.194	-85.610	0.291	0.091
-398.179	503.635	0.157	-0.364
-397.165	-42.482	-0.133	-0.068
-396.150	284.808	-0.075	-0.135
-395.136	243.560	-0.069	0.116
-394.121	136.269	-0.024	-0.032
-393.106	-200.000	-0.007	-0.189
-392.092	-39.534	-0.201	-0.106
-391.077	196.919	-0.037	0.057
-390.063	275.479	0.147	0.262
-389.048	800.000	0.105	0.331
-388.033	694.992	0.137	0.361
-387.019	-171.710	0.263	0.009
-386.004	-200.000	0.001	-0.375
-384.990	-200.000	0.017	-0.145
-383.975	1.757	-0.261	-0.188
-382.960	-145.017	0.080	-0.007
-381.946	800.000	-0.004	0.011
-380.931	284.101	-0.066	-0.119
-379.917	-199.013	0.246	0.001
-378.902	-63.138	-0.592	0.245
-377.888	-11.011	-0.217	0.144
-376.873	258.123	-0.129	-0.222
-375.858	-118.781	-0.151	-0.027
-374.844	-100.851	-0.168	-0.041
-373.829	-200.000	0.010	0.124
-372.815	-20.641	0.276	-0.170
-371.800	-22.115	-0.294	0.179
-370.785	106.439	0.061	0.073
-369.771	-36.450	-0.075	0.041
-368.756	-131.186	-0.218	-0.029
-367.742	-16.077	0.485	0.309
-366.727	800.000	-0.055	-0.206
-365.712	-200.000	-0.120	0.000
-364.698	362.014	0.090	-0.181
-363.683	76.254	0.043	0.046
-362.669	-200.000	-0.025	-0.270
-361.654	-200.000	0.002	-0.024
-360.639	-110.545	-0.326	-0.068
-359.625	-173.370	-0.151	-0.005
-358.610	505.687	-0.064	0.150
-357.596	379.540	-0.182	0.374
-356.581	-200.000	0.003	0.140
-355.566	381.568	0.183	-0.377
-354.552	-200.000	0.007	-0.114
-353.537	115.816	0.132	0.162
-352.523	-74.218	-0.284	0.103
-351.508	675.605	-0.163	0.424
-350.493	-54.316	-0.205	-0.093
-349.479	173.212	-0.172	-0.249
-348.464	30.523	-0.207	0.178
-347.450	-76.929	-0.125	-0.044
-346.435	106.380	0.221	0.263
-345.420	10.122	0.334	0.254
-344.406	-82.216	0.161	0.053
-343.391	-57.636	-0.074	-0.032
-342.377	-49.392	-0.263	0.126
-341.362	800.000	0.060	-0.258
-340.348	587.646	-0.028	0.068
-339.333	238.230	-0.138	-0.230
-338.318	96.428	-0.002	-0.002
-337.304	112.277	0.075	-0.091
-336.289	-200.000	0.003	0.159
-335.275	-91.523	0.042	-0.012
-334.260	478.130	-0.152	-0.344
-333.245	0.530	0.244	-0.174
-332.231	53.415	0.214	0.205
-331.216	800.000	0.037	-0.151
-330.202	132.474	-0.201	0.260
-329.187	-175.872	-0.317	0.008
-328.172	-32.430	-0.263	0.147
-327.158	134.435	0.064	0.083
-326.143	223.040	0.136	-0.219
-325.129	-102.682	0.213	-0.051
-324.114	-200.000	0.011	0.149
-323.099	224.659	-0.069	0.112
-322.085	-200.000	0.021	-0.448
-321.070	-6.657	0.322	0.220
-320.056	-199.565	-0.216	-0.001
-319.041	-54.062	-0.154	-0.070
-318.026	527.064	-0.124	-0.291
-317.012	-9.487	-0.151	-0.101
-315.997	-94.488	0.255	0.070
-314.983	57.929	-0.091	0.089
-313.968	383.125	0.107	0.219
-312.953	-36.365	0.121	-0.065
-311.939	-85.446	-0.282	-0.088
-310.924	-19.555	0.219	-0.136
-309.910	413.076	-0.124	0.264
-308.895	800.000	-0.080	0.307
-307.880	-200.000	-0.062	0.418
-306.866	-200.000	-0.049	0.238
-305.851	-164.401	-0.132	-0.006
-304.837	-200.000	-0.019	-0.137
-303.822	-111.514	-0.169	-0.034
-302.807	-124.687	0.233	0.036
-301.793	-200.000	-0.033	0.179
-300.778	478.424	0.123	-0.277
-299.764	-125.878	0.342	0.052
-298.749	595.219	-0.050	0.124
-297.735	-200.000	0.055	-0.257
-296.720	504.368	0.148	-0.341
-295.705	336.586	0.054	-0.105
-294.691	-144.699	-0.127	-0.012
-293.676	-200.000	0.052	-0.376
-292.662	37.112	-0.153	-0.135
-291.647	-110.314	-0.180	0.037
-290.632	-200.000	-0.017	-0.247
-289.618	-200.000	0.009	0.117
-288.603	-98.270	-0.076	0.020
-287.589	463.752	-0.205	0.457
-286.574	800.000	-0.023	-0.099
-285.559	-20.575	0.234	0.144
-284.545	506.790	-0.023	0.053
-283.530	-148.507	0.542	0.044
-282.516	409.938	0.106	-0.225
-281.501	691.865	-0.090	-0.235
-280.486	47.329	-0.055	0.051
-279.472	71.559	0.139	-0.144
-278.457	-111.662	0.285	0.058
-277.443	-32.277	0.219	-0.122
-276.428	-200.000	-0.004	-0.059
-275.413	800.000	0.075	0.254
-274.399	-6.264	-0.130	-0.089
-273.384	-120.747	0.542	0.091
-272.370	-10.774	0.376	-0.248
-271.355	-200.000	-0.038	0.458
-270.340	-114.130	-0.107	-0.021
-269.326	-200.000	-0.022	-0.231
-268.311	-200.000	-0.090	0.408
-267.297	-139.940	0.056	-0.006
-266.282	303.483	0.222	-0.411
-265.267	-200.000	0.025	-0.325
-264.253	-200.000	-0.012	0.141
-263.238	-15.885	0.200	-0.127
-262.224	289.650	-0.088	-0.160
-261.209	443.840	-0.146	-0.319
-260.195	-153.146	-0.115	0.008
-259.180	116.212	-0.114	0.139
-258.165	146.281	-0.261	0.350
-257.151	-17.952	0.286	0.179
-256.136	-42.405	0.375	0.191
-255.122	-80.174	-0.122	0.041
-254.107	-200.000	0.028	-0.243
-253.092	-200.000	0.038	0.190
-252.078	86.514	-0.145	-0.160
-251.063	-200.000	0.027	-0.225
-250.049	-3.848	0.341	0.236
-249.034	39.375	0.039	0.035
-248.019	115.474	0.108	0.132
-247.005	-95.591	0.167	-0.045
-245.990	239.957	0.041	-0.067
-244.976	651.776	-0.149	-0.380
-243.961	127.858	0.097	-0.123
-242.946	-72.802	0.189	-0.069
-241.932	58.702	-0.042	0.041
-240.917	-100.463	-0.041	0.010
-239.903	-113.408	-0.357	-0.070
-238.888	135.809	-0.249	0.324
-237.873	-200.000	0.037	0.214
-236.859	130.594	-0.161	0.206
-235.844	274.736	0.193	-0.341
-234.830	-80.594	-0.110	-0.037
-233.815	-200.000	-0.009	-0.526
-232.800	-200.000	0.005	-0.113
-231.786	-84.383	-0.259	0.082
-230.771	166.296	-0.194	-0.274
-229.757	169.693	0.256	0.364
-228.742	108.036	-0.139	-0.165
-227.727	-41.510	0.337	0.173
-226.713	91.972	-0.111	0.124
-225.698	-77.010	-0.194	0.068
-224.684	40.792	-0.211	-0.190
-223.669	-200.000	0.018	-0.419
-222.655	-73.515	-0.240	-0.087
-221.640	-73.717	-0.455	-0.165
-220.625	-21.957	-0.107	-0.065
-219.611	26.581	0.177	0.148
-218.596	-200.000	-0.046	-0.236
-217.582	-200.000	-0.019	-0.273
-216.567	-200.000	0.031	0.138
-215.552	-43.564	0.476	-0.239
-214.538	-94.407	-0.013	0.003
-213.523	-141.355	-0.229	0.023
-212.509	51.744	-0.286	0.271
-211.494	-174.044	-0.259	-0.008
-210.479	5.112	0.163	-0.119
-209.465	-60.797	0.268	-0.113
-208.450	800.000	0.119	-0.364
-207.436	-200.000	-0.042	-0.204
-206.421	-31.810	-0.155	-0.086
-205.406	-200.000	0.006	0.059
-204.392	800.000	0.120	0.349
-203.377	-175.004	0.235	-0.007
-202.363	13.660	0.246	-0.190
-201.348	573.890	-0.075	0.182
-200.333	-200.000	-0.024	0.205
-199.319	39.786	-0.333	0.297
-198.304	-148.273	0.319	-0.026
-197.290	778.899	-0.030	0.082
-196.275	-162.565	0.246	-0.012
-195.260	132.030	-0.082	0.105
-194.246	72.617	0.146	-0.152
-193.231	-19.066	-0.068	0.042
-192.217	289.348	0.018	0.033
-191.202	-48.221	-0.041	-0.020
-190.187	-56.593	0.328	0.145
-189.173	85.496	-0.089	-0.098
-188.158	3.523	-0.193	0.140
-187.144	66.796	0.066	-0.067
-186.129	8.910	0.159	-0.119
-185.114	61.271	0.162	0.160
-184.100	376.019	0.124	0.253
-183.085	25.020	0.133	0.110
-182.071	-200.000	0.039	0.351
-181.056	266.559	0.232	-0.404
-180.042	800.000	-0.077	0.287
-179.027	-200.000	0.037	-0.295
-178.012	213.724	0.062	-0.098
-176.998	-13.679	0.090	-0.058
-175.983	33.060	0.207	0.178
-174.969	21.598	0.091	-0.074
-173.954	33.947	-0.106	-0.092
-172.939	15.649	0.125	0.098
-171.925	412.542	0.042	0.089
-170.910	-71.580	-0.242	-0.090
-169.896	-38.225	0.146	0.077
-168.881	-181.729	-0.108	-0.002
-167.866	-41.521	0.209	-0.107
-166.852	-186.137	0.092	-0.001
-165.837	-173.713	0.078	0.002
-164.823	-28.396	0.012	0.007
-163.808	18.698	0.336	-0.268
-162.793	-200.000	-0.039	0.267
-161.779	-181.646	0.166	0.003
-160.764	360.372	-0.040	0.079
-159.750	22.656	-0.098	0.080
-158.735	-69.708	0.354	-0.134
-157.720	-61.704	0.210	-0.087
-156.706	147.752	-0.091	0.122
-155.691	740.221	0.058	-0.153
-154.677	-106.688	0.287	0.063
-153.662	-2.964	0.402	-0.279
-152.647	800.000	0.079	-0.294
-151.633	-24.984	0.049	-0.029
-150.618	332.490	-0.179	0.344
-149.604	-154.188	0.293	0.020
-148.589	-62.064	-0.164	-0.068
-147.574	294.669	-0.132	-0.241
-146.560	-200.000	0.061	0.460
-145.545	77.201	0.166	0.175
-144.531	-61.996	0.256	0.106
-143.516	0.641	0.175	0.125
-142.502	-200.000	0.003	0.083
-141.487	720.458	-0.125	-0.329
-140.472	-32.443	0.305	0.169
-139.458	260.753	0.196	0.336
-138.443	-78.028	0.038	0.013
-137.429	-37.842	-0.072	0.038
-136.414	-30.190	-0.321	-0.181
-135.399	-61.868	0.151	-0.063
-134.385	50.923	-0.146	-0.137
-133.370	-121.368	-0.265	0.044
-132.356	192.590	0.076	-0.114
-131.341	800.000	0.092	0.265
-130.326	36.771	-0.154	0.135
-129.312	-200.000	0.040	-0.194
-128.297	-2.643	-0.215	-0.149
-127.283	800.000	-0.079	-0.325
-126.268	-74.030	0.014	-0.005
-125.253	-93.769	0.120	-0.033
-124.239	42.141	-0.095	-0.085
-123.224	55.307	0.224	0.215
-122.210	422.161	-0.094	0.199
-121.195	-114.751	0.249	-0.047
-120.180	-70.855	0.158	-0.059
-119.166	181.729	0.131	-0.191
-118.151	800.000	0.056	0.226
-117.137	158.635	0.040	-0.055
-116.122	-9.688	-0.197	0.131
-115.107	130.070	0.090	0.114
-114.093	-107.004	-0.150	-0.033
-113.078	22.498	-0.035	-0.029
-112.064	216.154	-0.121	-0.191
-111.049	30.539	0.127	0.108
-110.034	224.262	-0.108	0.172
-109.020	33.412	-0.126	0.109
-108.005	800.000	0.019	-0.077
-106.991	129.277	-0.144	-0.183
-105.976	395.657	0.160	0.332
-104.962	-32.302	0.130	0.072
-103.947	-87.362	-0.050	-0.015
-102.932	226.593	-0.087	0.141
-101.918	-3.142	0.208	0.144
-100.903	-98.569	-0.218	0.055
-99.889	-77.699	0.544	-0.187
-98.874	291.817	0.129	-0.234
-97.859	-200.000	-0.036	-0.208
-96.845	800.000	0.032	-0.097
-95.830	247.510	0.148	-0.248
-94.816	28.589	0.117	0.098
-93.801	-153.829	0.350	-0.024
-92.786	44.431	-0.045	0.041
-91.772	44.102	-0.134	-0.122
-90.757	153.040	-0.187	0.254
-89.743	85.179	-0.154	0.168
-88.728	-151.749	0.384	0.028
-87.713	-109.803	-0.397	-0.083
-86.699	800.000	0.012	0.053
-85.684	-75.184	-0.230	-0.082
-84.670	617.369	0.061	0.151
-83.655	800.000	0.063	-0.238
-82.640	800.000	-0.035	0.128
-81.626	222.153	0.164	0.262
-80.611	277.176	0.194	-0.342
-79.597	-68.517	-0.116	0.045
-78.582	-200.000	-0.043	-0.342
-77.567	120.059	0.103	0.127
-76.553	-136.730	0.307	-0.035
-75.538	8.222	-0.087	0.065
-74.524	-51.140	0.222	0.103
-73.509	685.009	-0.119	0.308
-72.494	59.042	0.306	0.298
-71.480	-34.456	0.344	-0.187
-70.465	-123.348	0.126	0.020
-69.451	92.122	0.102	-0.114
-68.436	-120.943	0.236	0.039
-67.422	-169.678	-0.261	-0.009
-66.407	2.301	-0.240	-0.172
-65.392	7.736	0.232	0.172
-64.378	68.599	-0.047	0.048
-63.363	418.364	0.048	0.101
-62.349	-164.426	-0.244	0.011
-61.334	104.441	-0.649	-0.757
-60.319	-19.192	0.640	0.394
-59.305	-200.000	-0.195	-1.528
-58.290	180.316	0.659	0.958
-57.276	-200.000	0.396	1.875
-56.261	-200.000	94.581	585.843
-55.246	653.783	1367.581	3473.575
-54.232	195.850	2550.622	3841.009
-53.217	110.569	2300.853	2738.723
-52.203	38.960	2064.304	1826.245
-51.188	34.015	1979.700	1707.073
-50.173	32.463	1961.311	1677.336
-49.159	47.101	2010.202	1851.514
-48.144	48.514	2027.712	1880.321
-47.130	34.668	1990.477	1721.987
-46.115	32.277	1980.320	1691.645
-45.100	32.308	1977.204	1689.194
-44.086	32.130	1974.804	1685.482
-43.071	32.111	1972.078	1682.918
-42.057	32.127	1969.655	1680.928
-41.042	32.106	1967.993	1679.253
-40.027	32.246	1965.676	1678.456
-39.013	32.223	1963.588	1676.404
-37.998	32.304	1961.914	1675.632
-36.984	32.262	1960.568	1674.039
-35.969	32.225	1958.666	1672.018
-34.954	32.295	1956.620	1670.831
-33.940	32.266	1955.842	1669.839
-32.925	32.351	1953.684	1668.684
-31.911	32.359	1951.845	1667.121
-30.896	32.362	1950.099	1665.593
-29.881	32.321	1949.102	1664.310
-28.867	32.330	1947.619	1663.059
-27.852	32.329	1945.751	1661.391
-26.838	32.341	1943.454	1659.465
-25.823	32.278	1941.931	1657.549
-24.809	32.323	1940.360	1656.538
-23.794	32.334	1938.303	1654.810
-22.779	32.340	1936.316	1653.096
-21.765	32.337	1934.670	1651.602
-20.750	32.340	1932.957	1650.099
-19.736	32.276	1931.924	1648.594
-18.721	32.358	1929.874	1647.497
-17.706	32.304	1928.359	1645.668
-16.692	32.270	1926.836	1644.006
-15.677	32.280	1925.445	1642.839
-14.663	32.295	1923.812	1641.507
-13.648	32.359	1922.841	1641.177
-12.633	32.361	1921.578	1640.053
-11.619	32.311	1920.663	1638.767
-10.604	32.329	1918.755	1637.232
-9.590	32.334	1917.211	1635.889
-8.575	32.390	1915.584	1634.924
-7.560	32.365	1914.181	1633.446
-6.546	32.358	1913.242	1632.518
-5.531	32.350	1912.153	1631.455
-4.517	32.395	1910.789	1630.614
-3.502	32.331	1910.047	1629.363
-2.487	32.377	1908.498	1628.381
-1.473	32.318	1907.921	1627.314
-0.458	32.457	1902.987	1624.235
0.556	31.930	1883.468	1597.034
1.571	27.749	1864.426	1545.416
2.586	23.769	1886.673	1529.537
3.600	22.802	1922.646	1550.075
4.615	22.233	1916.902	1540.318
5.629	17.186	1816.416	1417.442
6.644	8.743	1700.121	1260.375
7.659	4.990	1663.750	1204.353
8.673	4.688	1660.975	1199.911
9.688	4.601	1659.313	1197.937
10.702	4.636	1657.778	1196.988
11.717	4.634	1654.733	1194.672
12.731	5.025	1654.176	1197.166
13.746	10.460	1666.555	1247.958
14.761	17.647	1681.917	1314.999
15.775	19.668	1684.110	1332.197
16.790	18.807	1681.086	1323.056
17.804	17.738	1677.927	1312.230
18.819	16.727	1674.576	1301.725
19.834	16.110	1672.053	1294.914
20.848	15.901	1670.522	1292.010
21.863	15.614	1669.077	1288.580
22.877	15.381	1667.759	1285.660
23.892	15.164	1666.387	1282.826
24.907	15.162	1664.906	1281.559
25.921	15.090	1664.304	1280.430
26.936	15.063	1663.215	1279.270
27.950	15.173	1662.128	1279.166
28.965	15.133	1661.948	1278.612
29.980	15.222	1660.801	1278.292
30.994	15.375	1659.643	1278.449
32.009	15.426	1658.785	1278.065
33.023	15.444	1658.327	1277.734
34.038	15.443	1657.442	1276.933
35.053	15.369	1656.296	1275.373
36.067	15.259	1655.235	1273.614
37.082	15.323	1653.428	1272.592
38.096	15.272	1652.829	1271.634
39.111	15.326	1651.430	1270.854
40.126	15.385	1651.494	1271.234
41.140	15.348	1650.341	1269.960
42.155	15.124	1648.749	1266.927
43.169	15.113	1647.297	1265.613
44.184	15.054	1646.443	1264.405
45.199	14.977	1645.445	1262.938
46.213	14.957	1644.277	1261.779
47.228	15.020	1642.869	1261.066
48.242	15.048	1641.980	1260.485
49.257	15.159	1640.682	1260.207
50.271	15.197	1639.483	1259.461
51.286	15.229	1637.886	1258.363
52.301	15.236	1637.131	1257.728
53.315	15.166	1635.816	1256.079
54.330	15.098	1634.150	1254.179
55.344	15.110	1632.726	1253.068
56.359	14.958	1631.667	1251.007
57.374	15.069	1630.051	1250.485
58.388	15.095	1628.921	1249.698
59.403	15.048	1627.380	1248.057
60.417	14.947	1626.186	1246.281
61.432	14.950	1625.161	1245.402
62.447	14.957	1624.055	1244.499
63.461	14.890	1622.639	1242.803
64.476	14.867	1621.608	1241.737
65.490	14.833	1620.658	1240.645
66.505	14.841	1619.388	1239.622
67.520	14.866	1618.576	1239.076
68.534	14.911	1617.311	1238.336
69.549	14.848	1616.353	1237.023
70.563	14.969	1614.825	1236.640
71.578	14.932	1613.551	1235.281
72.593	14.863	1612.710	1234.016
73.607	14.788	1611.612	1232.516
74.622	14.760	1610.872	1231.635
75.636	14.707	1609.959	1230.434
76.651	14.806	1608.701	1230.099
77.666	14.727	1608.187	1229.014
78.680	14.888	1607.266	1229.381
79.695	14.857	1606.089	1228.146
80.709	14.849	1605.321	1227.394
81.724	14.891	1604.898	1227.267
82.739	15.059	1603.531	1227.344
83.753	15.011	1602.749	1226.288
84.768	15.045	1602.230	1226.032
85.782	15.163	1601.666	1226.356
86.797	15.180	1600.508	1225.487
87.812	15.278	1599.590	1225.392
88.826	15.199	1598.306	1223.716
89.841	15.154	1597.075	1222.345
90.855	15.125	1596.195	1221.348
91.870	15.139	1595.260	1220.627
92.884	15.156	1594.486	1220.053
93.899	15.269	1593.395	1219.929
94.914	15.321	1592.030	1219.155
95.928	15.317	1591.012	1218.241
96.943	15.313	1589.838	1217.206
97.957	15.423	1587.952	1216.448
98.972	15.301	1586.490	1214.339
99.987	15.225	1585.430	1212.867
101.001	15.239	1583.478	1211.371
102.016	15.204	1582.065	1209.930
103.030	15.192	1581.049	1208.956
104.045	15.283	1579.627	1208.421
105.060	15.219	1578.215	1206.768
106.074	15.149	1577.160	1205.353
107.089	15.047	1575.392	1203.163
108.103	14.927	1574.077	1201.189
109.118	14.884	1572.765	1199.775
110.133	14.916	1570.851	1198.439
111.147	14.891	1569.548	1197.156
112.162	14.932	1568.144	1196.278
113.176	14.911	1567.357	1195.416
114.191	15.015	1565.769	1194.846
115.206	15.049	1564.741	1194.194
116.220	15.116	1563.181	1193.375
117.235	15.071	1561.635	1191.774
118.249	15.018	1560.810	1190.658
119.264	15.034	1559.091	1189.360
120.279	14.923	1558.138	1187.737
121.293	14.934	1556.521	1186.480
122.308	14.941	1555.105	1185.342
123.322	14.921	1553.631	1183.974
124.337	14.891	1552.373	1182.693
125.352	14.830	1550.770	1180.943
126.366	14.852	1550.081	1180.466
127.381	14.842	1548.609	1179.169
128.395	14.940	1547.201	1178.687
129.410	14.811	1546.502	1177.140
130.424	14.858	1544.730	1176.016
131.439	14.929	1543.379	1175.384
132.454	14.846	1542.453	1173.993
133.468	14.964	1540.769	1173.434
134.483	15.010	1539.294	1172.524
135.497	15.014	1538.066	1171.516
136.512	14.956	1537.202	1170.350
137.527	15.195	1535.065	1170.289
138.541	15.112	1534.274	1169.006
139.556	15.148	1532.909	1168.112
140.570	15.095	1531.508	1166.568
141.585	15.196	1530.454	1166.366
142.600	15.243	1529.295	1165.709
143.614	15.270	1528.276	1165.012
144.629	15.345	1526.890	1164.374
145.643	15.352	1525.803	1163.493
146.658	15.401	1524.003	1162.357
147.673	15.445	1522.506	1161.418
148.687	15.380	1521.209	1159.877
149.702	15.179	1519.780	1157.293
150.716	15.286	1517.822	1156.441
151.731	15.239	1516.738	1155.185
152.746	15.278	1515.020	1154.046
153.760	15.186	1513.992	1152.526
154.775	15.206	1512.780	1151.641
155.789	15.217	1511.887	1150.933
156.804	15.369	1510.108	1150.518
157.819	15.394	1509.142	1149.851
158.833	15.416	1508.080	1149.094
159.848	15.377	1506.942	1147.860
160.862	15.425	1506.274	1147.573
161.877	15.470	1504.710	1146.592
162.892	15.447	1503.392	1145.326
163.906	15.305	1502.732	1143.751
164.921	15.232	1500.970	1141.817
165.935	15.286	1500.247	1141.533
166.950	15.290	1499.103	1140.587
167.964	15.385	1497.936	1140.243
168.979	15.348	1497.066	1139.229
169.994	15.437	1495.930	1138.867
171.008	15.323	1494.949	1137.250
172.023	15.395	1493.997	1136.908
173.037	15.416	1492.460	1135.782
174.052	15.622	1491.608	1136.427
175.067	15.458	1491.117	1134.842
176.081	15.502	1489.707	1133.966
177.096	15.370	1488.223	1131.851
178.110	15.361	1486.286	1130.212
179.125	15.336	1486.024	1129.749
180.140	15.457	1484.608	1129.384
181.154	15.393	1483.955	1128.359
182.169	15.434	1482.882	1127.718
183.183	15.539	1481.589	1127.339
184.198	15.505	1480.740	1126.366
185.213	15.629	1479.276	1125.980
186.227	15.651	1478.206	1125.214
187.242	15.586	1477.252	1123.953
188.256	15.594	1476.668	1123.466
189.271	15.656	1474.828	1122.381
190.286	15.757	1474.286	1122.539
191.300	15.751	1472.963	1121.396
192.315	15.561	1471.636	1119.016
193.329	15.401	1469.924	1116.552
194.344	15.331	1469.069	1115.337
195.359	15.373	1468.443	1115.047
196.373	15.504	1467.601	1115.180
197.388	15.565	1466.315	1114.508
198.402	15.641	1465.268	1114.113
199.417	15.721	1464.299	1113.807
200.432	15.780	1463.459	1113.462
201.446	15.887	1462.348	1113.224
202.461	16.017	1461.306	1113.196
203.475	16.041	1460.431	1112.586
204.490	16.078	1459.308	1111.880
205.504	16.018	1457.662	1110.131
206.519	15.874	1457.375	1108.863
207.534	15.941	1455.588	1107.850
208.548	15.859	1454.427	1106.328
209.563	15.761	1453.643	1104.988
210.577	15.789	1452.954	1104.551
211.592	15.906	1451.706	1104.270
212.607	15.851	1451.225	1103.446
213.621	16.004	1450.617	1103.893
214.636	15.957	1449.739	1102.818
215.650	16.022	1448.603	1102.281
216.665	16.023	1447.907	1101.661
217.680	16.096	1446.920	1101.291
218.694	16.078	1446.550	1100.794
219.709	16.115	1445.893	1100.437
220.723	16.173	1444.531	1099.679
221.738	16.196	1443.537	1098.973
222.753	16.093	1442.583	1097.482
223.767	16.114	1441.579	1096.759
224.782	16.049	1440.939	1095.748
225.796	16.197	1439.955	1095.869
226.811	16.295	1438.860	1095.572
227.826	16.247	1438.804	1095.121
228.840	16.247	1437.645	1094.140
229.855	16.156	1436.678	1092.717
230.869	16.108	1435.597	1091.491
231.884	16.205	1434.313	1091.047
232.899	16.201	1432.910	1089.858
233.913	16.162	1431.682	1088.575
234.928	16.125	1430.871	1087.625
235.942	16.077	1429.715	1086.334
236.957	16.098	1428.384	1085.364
237.972	16.058	1427.415	1084.274
238.986	16.210	1425.896	1084.004
240.001	16.089	1425.201	1082.601
241.015	16.165	1424.057	1082.125
242.030	16.144	1423.080	1081.151
243.045	16.135	1422.126	1080.275
244.059	16.267	1421.363	1080.445
245.074	16.295	1420.496	1079.869
246.088	16.282	1419.709	1079.091
247.103	16.264	1419.484	1078.712
248.117	16.290	1418.750	1078.221
249.132	16.424	1417.564	1078.079
250.147	16.441	1417.261	1077.861
251.161	16.570	1416.045	1077.661
252.176	16.715	1415.642	1078.185
253.190	16.779	1415.188	1078.151
254.205	16.728	1414.508	1077.214
255.220	16.803	1413.242	1076.634
256.234	16.897	1412.034	1076.213
257.249	16.869	1411.255	1075.346
258.263	16.826	1410.861	1074.679
259.278	16.882	1409.747	1074.089
260.293	16.845	1408.993	1073.184
261.307	16.861	1408.265	1072.639
262.322	16.885	1407.773	1072.318
263.336	16.932	1406.993	1071.928
264.351	17.029	1405.558	1071.353
265.366	17.018	1404.667	1070.507
266.380	17.103	1403.502	1070.061
267.395	16.991	1402.924	1068.818
268.409	17.078	1401.718	1068.352
269.424	16.906	1400.995	1066.626
270.439	16.846	1400.366	1065.677
271.453	16.988	1399.246	1065.619
272.468	16.874	1398.314	1064.100
273.482	16.925	1397.512	1063.715
274.497	16.930	1396.529	1062.909
275.512	16.892	1395.434	1061.741
276.526	16.921	1394.836	1061.375
277.541	17.005	1393.555	1060.831
278.555	17.008	1393.052	1060.370
279.570	17.033	1391.834	1059.504
280.585	17.051	1391.104	1058.968
281.599	17.126	1390.273	1058.712
282.614	17.240	1389.847	1059.006
283.628	17.089	1388.496	1056.943
284.643	16.988	1387.559	1055.504
285.657	17.064	1386.290	1054.916
286.672	17.019	1385.351	1053.829
287.687	17.096	1384.548	1053.604
288.701	17.126	1383.144	1052.629
289.716	17.040	1382.802	1051.744
290.730	17.150	1381.778	1051.551
291.745	17.091	1380.529	1050.147
292.760	17.139	1379.852	1049.834
293.774	17.199	1378.787	1049.301
294.789	17.194	1377.934	1048.527
295.803	17.332	1377.007	1048.581
296.818	17.344	1376.485	1048.161
297.833	17.264	1375.230	1046.622
298.847	17.196	1374.237	1045.356
299.862	17.163	1373.653	1044.614
300.876	17.319	1372.533	1044.628
301.891	17.335	1371.268	1043.674
302.906	17.272	1370.758	1042.806
303.920	17.324	1370.213	1042.616
304.935	17.414	1369.739	1042.721
305.949	17.480	1368.575	1042.145
306.964	17.530	1368.285	1042.136
307.979	17.650	1367.000	1041.801
308.993	17.609	1366.259	1040.890
310.008	17.478	1364.854	1038.927
311.022	17.521	1364.192	1038.596
312.037	17.512	1363.110	1037.629
313.052	17.674	1362.180	1037.815
314.066	17.612	1361.112	1036.530
315.081	17.491	1360.311	1035.090
316.095	17.404	1359.452	1033.820
317.110	17.454	1357.848	1032.809
318.125	17.436	1357.147	1032.078
319.139	17.467	1356.325	1031.551
320.154	17.416	1355.453	1030.483
321.168	17.438	1354.315	1029.664
322.183	17.480	1353.258	1029.024
323.197	17.532	1351.952	1028.252
324.212	17.513	1351.489	1027.695
325.227	17.486	1350.420	1026.626
326.241	17.536	1349.402	1026.065
327.256	17.589	1348.739	1025.786
328.270	17.592	1347.992	1025.144
329.285	17.579	1347.043	1024.255
330.300	17.543	1346.147	1023.266
331.314	17.584	1345.175	1022.684
332.329	17.612	1344.042	1021.903
333.343	17.551	1343.671	1021.161
334.358	17.572	1342.662	1020.430
335.373	17.619	1342.233	1020.295
336.387	17.735	1341.355	1020.235
337.402	17.815	1340.317	1019.834
338.416	17.732	1339.634	1018.726
339.431	17.687	1339.336	1018.137
340.446	17.841	1338.572	1018.388
341.460	17.788	1337.549	1017.205
342.475	17.887	1336.348	1016.789
343.489	18.015	1335.761	1017.017
344.504	18.040	1334.812	1016.353
345.519	17.918	1334.336	1015.174
346.533	18.122	1332.667	1015.028
347.548	18.173	1331.719	1014.516
348.562	18.062	1331.100	1013.296
349.577	18.172	1330.331	1013.270
350.592	18.041	1329.834	1012.028
351.606	18.008	1328.766	1010.932
352.621	17.895	1327.582	1009.276
353.635	17.979	1326.409	1008.791
354.650	17.798	1325.900	1007.243
355.665	17.850	1324.515	1006.407
356.679	17.975	1323.574	1006.344
357.694	17.928	1322.908	1005.469
358.708	18.108	1321.335	1005.245
359.723	18.052	1320.223	1003.978
360.738	18.093	1319.618	1003.672
361.752	18.032	1318.598	1002.451
362.767	18.203	1317.473	1002.509
363.781	18.130	1316.625	1001.347
364.796	18.115	1316.291	1000.916
365.810	18.118	1315.225	1000.032
366.825	18.266	1314.833	1000.510
367.840	18.283	1314.393	1000.188
368.854	18.310	1313.513	999.590
369.869	18.402	1313.071	999.700
370.883	18.499	1311.828	999.231
371.898	18.465	1311.111	998.396
372.913	18.468	1310.403	997.789
373.927	18.409	1309.653	996.786
374.942	18.450	1308.420	995.999
375.956	18.467	1307.939	995.641
376.971	18.514	1307.207	995.271
377.986	18.442	1306.637	994.328
379.000	18.408	1305.766	993.384
380.015	18.473	1304.958	993.057
381.029	18.498	1304.151	992.501
382.044	18.595	1303.056	992.135
383.059	18.696	1302.661	992.332
384.073	18.708	1302.060	991.856
385.088	18.673	1301.524	991.160
386.102	18.564	1301.018	990.057
387.117	18.619	1300.300	989.742
388.132	18.661	1299.120	988.998
389.146	18.570	1298.426	987.854
390.161	18.580	1297.309	986.974
391.175	18.611	1296.627	986.548
392.190	18.552	1295.702	985.421
393.205	18.603	1295.029	985.115
394.219	18.610	1294.043	984.315
395.234	18.723	1292.379	983.611
396.248	18.686	1291.597	982.713
397.263	18.590	1290.247	981.054
398.278	18.605	1288.545	979.758
399.292	18.567	1287.703	978.814
400.307	18.540	1287.155	978.157
401.321	18.532	1285.707	976.924
402.336	18.566	1284.352	976.003
403.350	18.632	1283.785	975.862
404.365	18.596	1282.648	974.702
405.380	18.677	1281.879	974.494
406.394	18.632	1281.368	973.762
407.409	18.640	1280.867	973.345
408.423	18.696	1280.085	972.976
409.438	18.822	1279.165	972.908
410.453	18.869	1278.429	972.527
411.467	19.023	1277.685	972.746
412.482	18.942	1277.651	972.178
413.496	19.053	1277.074	972.280
414.511	19.053	1276.335	971.631
415.526	19.000	1275.491	970.604
416.540	19.132	1274.485	970.497
417.555	19.143	1273.477	969.703
418.569	19.090	1273.465	969.308
419.584	19.192	1273.017	969.456
420.599	19.113	1272.364	968.428
421.613	140.605	1431.518	1793.622
422.628	135.192	1454.680	1793.735
