DTS Sentinel unit serial number:	SN413079Multiplexer serial number:	ORYXHardware model number:	OX4-SRSoftware version number:	ORYX F/W v4.00 Oryx Data Collector v3.7.2.0data status	okinstallation	princeton_trtdifferential loss correction	single-endedforward channel	channel 4reverse channel	N/Adate	2019/09/15time	09:29:34forward acquisition time	60.00reverse acquisition time	0.00gamma	496.2192k internal	0.2299k external	0.2299temperature offset calibration	1.0018default loss term (dB/km)	0.3790temperature slope calibration	1.0000multiplexer offset coefficient	1.0000multiplexer slope coefficient	1.0000fibre end	0.00T internal ref (°C)	33.72T ext. ref 1 (°C)	4.96T ext. ref 2 (°C)	30.18length (m)	temperature (°C)	Stokes	anti-Stokes-747.200	-200.000	0.008	0.068
-746.185	-132.262	-0.201	0.027
-745.171	-7.225	0.172	-0.119
-744.156	-69.497	-0.213	-0.083
-743.142	-52.143	0.102	-0.048
-742.127	12.644	0.248	-0.196
-741.112	282.897	0.045	0.082
-740.098	-15.321	-0.272	0.177
-739.083	-200.000	0.023	0.181
-738.069	8.641	-0.221	0.170
-737.054	224.031	0.082	0.136
-736.039	-200.000	-0.003	-0.103
-735.025	20.052	0.211	0.173
-734.010	-83.186	0.104	0.034
-732.996	-4.443	-0.293	0.207
-731.981	176.811	0.131	-0.194
-730.966	-146.020	-0.445	-0.040
-729.952	-117.397	-0.297	0.055
-728.937	0.762	0.164	0.120
-727.923	337.500	0.082	-0.162
-726.908	-200.000	0.012	-0.071
-725.894	380.247	-0.045	0.095
-724.879	113.948	-0.183	0.227
-723.864	83.959	-0.050	-0.055
-722.850	-69.922	-0.123	0.048
-721.835	-72.023	0.259	-0.098
-720.821	800.000	0.115	-0.504
-719.806	-61.119	-0.076	0.033
-718.791	58.185	-0.143	0.143
-717.777	79.008	-0.193	-0.211
-716.762	-120.961	0.062	0.011
-715.748	-200.000	0.030	0.192
-714.733	73.795	-0.199	0.213
-713.718	800.000	0.092	-0.394
-712.704	-83.977	0.553	0.179
-711.689	305.730	0.056	-0.106
-710.675	-82.609	-0.115	0.038
-709.660	20.498	0.126	0.103
-708.645	187.840	-0.163	0.248
-707.631	-155.977	0.222	0.014
-706.616	305.969	-0.101	-0.191
-705.602	260.399	-0.101	-0.178
-704.587	-127.582	0.377	-0.056
-703.572	-0.872	0.031	-0.023
-702.558	43.248	0.238	-0.221
-701.543	-21.343	0.322	0.200
-700.529	-200.000	-0.001	0.098
-699.514	-200.000	-0.075	0.394
-698.499	264.149	-0.191	-0.338
-697.485	34.211	0.120	-0.107
-696.470	-81.413	-0.384	-0.129
-695.456	-20.260	-0.082	-0.052
-694.441	-19.210	-0.178	-0.113
-693.426	-59.697	0.041	-0.018
-692.412	-116.511	-0.169	-0.032
-691.397	-58.975	0.218	0.096
-690.383	274.861	-0.116	-0.209
-689.368	-200.000	-0.085	-0.403
-688.354	-91.770	-0.202	0.058
-687.339	800.000	0.053	0.178
-686.324	-55.048	0.279	-0.128
-685.310	449.583	0.048	-0.108
-684.295	-118.040	-0.303	0.055
-683.281	617.815	-0.085	-0.217
-682.266	800.000	0.090	-0.334
-681.251	-91.830	0.035	-0.010
-680.237	190.154	0.253	0.386
-679.222	88.800	0.123	-0.139
-678.208	800.000	0.088	-0.375
-677.193	36.625	-0.047	-0.042
-676.178	318.112	0.152	-0.294
-675.164	-200.000	-0.031	-0.185
-674.149	-200.000	0.004	0.122
-673.135	800.000	0.086	-0.353
-672.120	111.268	0.204	0.250
-671.105	-200.000	0.020	0.150
-670.091	-38.715	-0.020	-0.011
-669.076	113.491	0.022	-0.027
-668.062	-200.000	-0.066	0.337
-667.047	-178.551	0.119	0.003
-666.032	340.375	-0.032	-0.063
-665.018	47.000	0.227	-0.215
-664.003	-47.188	-0.134	0.067
-662.989	-200.000	-0.036	0.312
-661.974	10.142	0.114	-0.088
-660.959	800.000	-0.055	-0.180
-659.945	78.690	-0.347	-0.378
-658.930	800.000	0.091	-0.266
-657.916	28.278	0.092	0.079
-656.901	-159.500	0.162	0.009
-655.886	524.246	-0.053	-0.127
-654.872	-200.000	-0.005	0.237
-653.857	-200.000	-0.008	0.120
-652.843	-23.036	0.398	-0.244
-651.828	-135.362	0.495	-0.060
-650.814	-200.000	-0.007	-0.170
-649.799	-80.935	-0.087	-0.029
-648.784	-45.865	0.095	-0.048
-647.770	5.403	-0.225	0.169
-646.755	773.288	0.187	0.519
-645.741	-106.465	-0.133	0.030
-644.726	-66.699	0.080	-0.032
-643.711	-181.277	0.320	0.006
-642.697	182.684	0.117	0.175
-641.682	67.806	-0.134	-0.139
-640.668	-72.922	0.102	0.038
-639.653	90.751	-0.183	-0.208
-638.638	-71.436	0.445	-0.169
-637.624	7.971	-0.280	-0.214
-636.609	-200.000	-0.046	0.209
-635.595	-88.273	0.215	-0.065
-634.580	800.000	-0.033	-0.146
-633.565	-150.661	-0.240	-0.019
-632.551	-81.909	0.382	-0.127
-631.536	276.927	0.091	-0.165
-630.522	99.497	0.124	-0.146
-629.507	-68.747	0.173	0.068
-628.492	-67.141	-0.185	-0.074
-627.478	308.880	0.015	-0.029
-626.463	18.601	-0.110	0.089
-625.449	-16.482	-0.313	-0.202
-624.434	-200.000	-0.022	0.162
-623.419	-30.111	0.095	-0.055
-622.405	-123.652	0.182	0.029
-621.390	142.691	0.074	0.100
-620.376	-59.055	-0.260	0.114
-619.361	-125.035	0.359	-0.056
-618.346	23.366	0.287	0.239
-617.332	-200.000	-0.040	0.427
-616.317	800.000	-0.121	0.492
-615.303	-200.000	-0.002	0.267
-614.288	278.220	0.127	-0.229
-613.273	-200.000	0.393	-0.002
-612.259	800.000	0.045	-0.163
-611.244	-200.000	-0.025	-0.199
-610.230	-0.464	0.086	-0.062
-609.215	53.513	-0.073	0.071
-608.201	800.000	-0.035	-0.113
-607.186	331.237	0.074	-0.145
-606.171	-44.291	0.416	-0.211
-605.157	-122.872	-0.328	-0.054
-604.142	369.742	-0.129	-0.266
-603.128	16.097	0.164	-0.131
-602.113	154.274	0.194	0.270
-601.098	-29.036	-0.061	0.035
-600.084	800.000	0.020	-0.059
-599.069	800.000	0.104	-0.371
-598.055	-87.667	-0.309	0.095
-597.040	22.411	-0.296	-0.246
-596.025	-124.700	-0.150	-0.024
-595.011	150.519	-0.089	-0.123
-593.996	73.831	0.238	-0.254
-592.982	-200.000	-0.022	0.113
-591.967	657.276	0.059	0.153
-590.952	-61.331	0.121	0.051
-589.938	158.188	-0.140	-0.197
-588.923	800.000	0.040	-0.115
-587.909	800.000	0.076	-0.279
-586.894	-167.950	0.382	0.015
-585.879	800.000	-0.043	-0.132
-584.865	0.946	0.174	-0.126
-583.850	140.212	-0.129	0.172
-582.836	221.227	-0.073	0.119
-581.821	-37.605	0.239	-0.129
-580.806	93.763	0.127	-0.146
-579.792	-83.808	-0.294	0.095
-578.777	294.960	-0.077	0.143
-577.763	-152.485	-0.171	0.012
-576.748	126.627	-0.073	0.094
-575.733	239.811	-0.078	0.132
-574.719	800.000	0.063	0.181
-573.704	49.481	-0.332	-0.316
-572.690	-74.565	0.177	0.065
-571.675	800.000	-0.051	0.177
-570.661	-200.000	-0.025	-0.110
-569.646	-140.256	-0.180	0.019
-568.631	281.996	0.071	0.129
-567.617	-169.818	0.564	0.021
-566.602	-159.523	-0.133	-0.008
-565.588	800.000	-0.146	0.499
-564.573	274.836	-0.111	0.199
-563.558	-15.601	-0.230	-0.149
-562.544	47.296	0.216	-0.203
-561.529	-89.301	-0.170	0.051
-560.515	7.172	0.147	0.111
-559.500	-200.000	-0.025	0.304
-558.485	-41.171	-0.163	-0.085
-557.471	275.623	-0.126	-0.226
-556.456	800.000	-0.092	-0.279
-555.442	-77.722	0.130	0.045
-554.427	-92.708	0.268	0.076
-553.412	800.000	0.087	0.299
-552.398	800.000	0.047	0.178
-551.383	800.000	0.057	-0.192
-550.369	12.546	0.209	-0.164
-549.354	-60.462	-0.312	0.134
-548.339	-86.932	0.225	0.070
-547.325	526.219	-0.086	0.205
-546.310	800.000	0.002	-0.010
-545.296	7.023	0.077	-0.058
-544.281	-95.656	-0.231	0.062
-543.266	-74.953	0.181	0.065
-542.252	-200.000	-0.036	0.366
-541.237	287.564	0.101	0.184
-540.223	-200.000	0.001	-0.013
-539.208	193.952	0.107	-0.164
-538.193	-79.430	-0.250	-0.085
-537.179	-121.269	0.544	0.092
-536.164	-200.000	0.037	-0.197
-535.150	800.000	0.068	0.248
-534.135	-147.986	0.101	-0.009
-533.121	269.994	-0.122	0.217
-532.106	-28.991	-0.136	0.079
-531.091	800.000	0.062	0.229
-530.077	-200.000	0.050	-0.245
-529.062	-106.645	-0.228	0.051
-528.048	54.643	0.225	-0.220
-527.033	251.570	0.174	-0.299
-526.018	-80.409	0.398	0.135
-525.004	-200.000	-0.022	-0.123
-523.989	-200.000	-0.262	-0.000
-522.975	41.505	-0.139	0.128
-521.960	-200.000	-0.006	-0.263
-520.945	431.167	-0.102	-0.224
-519.931	-26.776	0.158	0.094
-518.916	800.000	0.032	0.108
-517.902	-64.267	-0.224	0.092
-516.887	800.000	0.094	-0.314
-515.872	-200.000	-0.044	-0.247
-514.858	127.951	0.097	-0.125
-513.843	-200.000	0.003	-0.312
-512.829	-179.765	0.203	0.004
-511.814	285.217	-0.055	0.101
-510.799	114.648	0.145	0.178
-509.785	11.805	0.127	-0.098
-508.770	-200.000	-0.001	0.092
-507.756	-156.906	0.520	0.032
-506.741	-200.000	-0.001	-0.090
-505.726	48.814	0.158	-0.150
-504.712	108.757	0.158	-0.191
-503.697	224.969	0.173	0.283
-502.683	-150.781	-0.226	-0.017
-501.668	597.825	-0.075	-0.189
-500.653	800.000	-0.083	-0.259
-499.639	-49.845	-0.390	0.187
-498.624	292.267	0.020	0.036
-497.610	16.162	-0.095	-0.076
-496.595	800.000	0.065	0.211
-495.581	-47.136	-0.047	0.023
-494.566	462.652	0.021	0.048
-493.551	-121.877	0.057	0.010
-492.537	242.337	-0.206	0.348
-491.522	-200.000	0.005	-0.306
-490.508	306.070	0.045	-0.085
-489.493	-63.483	0.177	0.074
-488.478	-192.074	0.033	-0.000
-487.464	-69.681	-0.243	0.094
-486.449	-152.335	0.106	0.008
-485.435	-200.000	-0.015	-0.149
-484.420	-200.000	0.027	0.230
-483.405	-200.000	-0.005	-0.191
-482.391	91.857	-0.128	0.145
-481.376	-200.000	0.045	-0.239
-480.362	-200.000	-0.019	0.188
-479.347	141.430	-0.234	0.312
-478.332	234.757	0.146	-0.243
-477.318	99.868	-0.202	-0.236
-476.303	260.207	0.029	0.051
-475.289	-36.628	-0.185	-0.100
-474.274	-200.000	0.025	0.249
-473.259	262.092	0.087	0.153
-472.245	536.856	-0.133	0.318
-471.230	800.000	-0.086	0.348
-470.216	800.000	0.049	0.183
-469.201	-44.012	-0.254	-0.129
-468.186	-200.000	0.003	0.125
-467.172	-15.927	-0.148	0.095
-466.157	-200.000	0.019	0.124
-465.143	139.098	-0.077	-0.102
-464.128	-15.867	-0.245	0.157
-463.113	180.641	0.204	-0.302
-462.099	703.962	-0.100	-0.266
-461.084	-200.000	0.059	0.282
-460.070	-181.208	-0.194	-0.004
-459.055	-200.000	-0.047	0.225
-458.040	236.838	-0.161	0.269
-457.026	126.833	-0.063	-0.080
-456.011	77.427	0.160	-0.172
-454.997	144.177	-0.053	0.071
-453.982	206.299	-0.019	-0.030
-452.968	-120.710	-0.206	0.035
-451.953	-86.664	0.183	-0.056
-450.938	-200.000	-0.060	0.386
-449.924	-200.000	-0.014	0.198
-448.909	403.588	0.096	-0.203
-447.895	239.368	0.161	-0.270
-446.880	-160.835	0.129	0.007
-445.865	-91.688	-0.282	0.081
-444.851	475.381	0.038	0.087
-443.836	85.902	-0.052	0.058
-442.822	-200.000	-0.002	-0.058
-441.807	800.000	0.116	0.350
-440.792	25.524	0.127	-0.107
-439.778	-45.522	-0.189	0.094
-438.763	800.000	-0.132	-0.438
-437.749	-200.000	0.028	-0.235
-436.734	800.000	0.004	0.015
-435.719	800.000	0.034	-0.113
-434.705	-97.874	-0.058	0.015
-433.690	-118.007	-0.239	-0.043
-432.676	252.594	0.071	-0.122
-431.661	-17.666	-0.093	0.059
-430.646	368.584	-0.099	0.203
-429.632	-126.713	0.167	0.025
-428.617	-48.369	-0.282	0.137
-427.603	-74.376	0.324	0.118
-426.588	-79.001	-0.523	0.179
-425.573	800.000	-0.020	0.077
-424.559	24.839	-0.060	0.050
-423.544	-200.000	0.005	0.181
-422.530	-132.370	-0.053	-0.007
-421.515	-90.093	-0.137	0.040
-420.500	-26.827	-0.110	0.065
-419.486	67.748	-0.178	0.184
-418.471	-91.276	-0.187	-0.054
-417.457	171.357	0.177	-0.256
-416.442	11.491	0.135	0.104
-415.428	74.990	0.048	0.051
-414.413	-126.805	0.372	0.055
-413.398	-84.992	0.165	0.052
-412.384	376.458	0.020	-0.040
-411.369	-66.180	0.120	0.048
-410.355	-157.152	-0.193	-0.012
-409.340	-200.000	-0.001	-0.212
-408.325	-200.000	-0.035	0.186
-407.311	-123.154	-0.456	0.074
-406.296	48.762	-0.216	0.204
-405.282	800.000	0.036	-0.144
-404.267	-152.158	0.218	-0.016
-403.252	-85.388	-0.302	-0.095
-402.238	33.202	-0.134	-0.117
-401.223	248.726	-0.016	-0.027
-400.209	168.191	-0.009	0.013
-399.194	-200.000	-0.004	0.187
-398.179	-166.761	-0.073	0.003
-397.165	800.000	-0.076	-0.295
-396.150	-15.760	0.199	-0.128
-395.136	-200.000	0.025	0.363
-394.121	-24.913	0.080	-0.048
-393.106	-200.000	-0.035	0.213
-392.092	800.000	-0.069	0.256
-391.077	-75.286	0.170	-0.061
-390.063	395.109	0.056	-0.118
-389.048	-68.952	-0.054	-0.021
-388.033	-35.630	0.101	0.055
-387.019	-148.636	0.134	-0.011
-386.004	124.107	-0.103	0.131
-384.990	-158.292	0.134	-0.008
-383.975	-8.861	0.127	-0.085
-382.960	-133.221	0.232	-0.030
-381.946	-48.829	0.207	0.100
-380.931	27.953	-0.281	-0.239
-379.917	-169.297	-0.022	0.001
-378.902	72.583	0.166	-0.175
-377.888	-129.830	-0.262	0.036
-376.873	-200.000	0.135	-0.603
-375.858	41.884	-0.116	0.106
-374.844	-200.000	-0.031	-0.180
-373.829	5.832	-0.104	0.078
-372.815	234.848	0.085	-0.140
-371.800	800.000	0.043	-0.181
-370.785	566.408	0.033	0.081
-369.771	-164.352	-0.282	-0.013
-368.756	132.418	0.063	0.081
-367.742	-200.000	-0.024	0.195
-366.727	-145.117	-0.418	0.038
-365.712	-200.000	0.014	-0.406
-364.698	-100.518	-0.158	0.039
-363.683	-12.862	-0.078	-0.051
-362.669	-138.612	-0.312	-0.034
-361.654	16.493	-0.098	0.078
-360.639	109.696	0.160	0.193
-359.625	154.252	0.100	-0.139
-358.610	-200.000	-0.031	-0.409
-357.596	271.163	-0.028	-0.049
-356.581	434.018	0.088	-0.192
-355.566	572.110	0.101	-0.248
-354.552	93.671	0.020	0.023
-353.537	104.209	0.187	-0.221
-352.523	-61.657	0.181	0.076
-351.508	45.392	0.155	-0.144
-350.493	-200.000	-0.022	-0.152
-349.479	151.487	0.044	-0.061
-348.464	800.000	0.071	-0.219
-347.450	-174.570	0.107	-0.003
-346.435	17.935	0.130	0.104
-345.420	177.032	0.136	0.199
-344.406	-200.000	0.032	0.148
-343.391	-13.695	0.125	0.082
-342.377	800.000	0.112	0.416
-341.362	-47.272	0.030	-0.015
-340.348	-200.000	0.055	-0.282
-339.333	206.416	0.097	-0.152
-338.318	-173.455	-0.454	0.014
-337.304	800.000	-0.028	0.120
-336.289	-200.000	0.028	0.251
-335.275	1.447	0.409	0.296
-334.260	-200.000	-0.030	0.252
-333.245	-128.977	0.263	-0.037
-332.231	-115.728	0.133	-0.025
-331.216	50.019	-0.208	-0.197
-330.202	90.691	-0.351	-0.394
-329.187	-39.591	-0.143	0.075
-328.172	-82.002	-0.090	-0.029
-327.158	800.000	0.103	-0.285
-326.143	795.759	0.059	-0.163
-325.129	-130.676	0.239	-0.032
-324.114	-200.000	0.019	-0.149
-323.099	-200.000	-0.013	0.130
-322.085	-99.107	-0.265	0.067
-321.070	105.747	0.236	0.280
-320.056	-29.479	-0.139	-0.080
-319.041	0.518	0.057	-0.041
-318.026	-200.000	0.015	-0.320
-317.012	800.000	0.040	0.147
-315.997	-195.222	-0.075	0.001
-314.983	-67.319	0.181	0.072
-313.968	-29.213	0.115	0.066
-312.953	782.007	-0.042	0.115
-311.939	-84.950	-0.050	-0.016
-310.924	-139.891	-0.178	-0.019
-309.910	269.404	-0.129	-0.226
-308.895	719.753	0.097	-0.259
-307.880	-45.726	0.112	0.056
-306.866	614.685	0.112	-0.283
-305.851	800.000	0.074	0.254
-304.837	-140.839	-0.093	-0.010
-303.822	48.494	-0.206	0.194
-302.807	-138.348	0.425	-0.047
-301.793	-53.173	0.059	0.027
-300.778	-102.438	-0.142	0.034
-299.764	96.894	-0.240	0.276
-298.749	85.534	-0.178	0.196
-297.735	19.603	-0.039	0.032
-296.720	70.121	-0.236	0.245
-295.705	800.000	0.019	0.062
-294.691	101.054	-0.236	0.275
-293.676	-200.000	-0.025	-0.302
-292.662	-105.974	0.113	0.026
-291.647	330.925	0.030	-0.057
-290.632	800.000	0.023	0.095
-289.618	-109.692	0.091	-0.019
-288.603	489.528	-0.029	0.066
-287.589	-200.000	-0.034	-0.383
-286.574	-193.818	-0.046	-0.000
-285.559	-105.960	-0.128	0.029
-284.545	-200.000	0.032	0.521
-283.530	383.202	-0.047	0.097
-282.516	140.856	0.175	-0.232
-281.501	-200.000	0.014	0.228
-280.486	-200.000	-0.005	0.082
-279.472	-31.365	-0.231	-0.130
-278.457	30.580	-0.059	0.051
-277.443	-114.347	0.368	0.071
-276.428	-99.682	-0.385	-0.097
-275.413	-200.000	0.025	0.574
-274.399	-111.653	0.370	0.075
-273.384	-83.690	0.042	0.013
-272.370	33.484	-0.113	-0.098
-271.355	71.125	0.379	-0.393
-270.340	-117.346	-0.139	-0.025
-269.326	161.730	-0.035	0.049
-268.311	97.672	-0.064	-0.074
-267.297	-105.502	0.224	0.051
-266.282	800.000	0.035	-0.126
-265.267	-75.868	-0.049	-0.018
-264.253	441.986	0.049	0.108
-263.238	-56.886	0.031	0.014
-262.224	800.000	0.037	-0.105
-261.209	402.708	0.074	-0.155
-260.195	-200.000	0.026	0.115
-259.180	-23.718	0.090	-0.054
-258.165	90.123	-0.132	0.148
-257.151	11.517	-0.290	0.223
-256.136	44.616	-0.152	0.140
-255.122	-200.000	-0.263	0.001
-254.107	-149.610	0.221	-0.017
-253.092	37.841	-0.091	0.081
-252.078	-22.025	-0.223	0.135
-251.063	279.226	-0.106	-0.189
-250.049	216.292	0.146	0.233
-249.034	6.014	-0.291	0.216
-248.019	-130.321	-0.216	-0.029
-247.005	-76.699	0.246	-0.086
-245.990	-99.092	0.043	0.011
-244.976	-200.000	-0.022	0.326
-243.961	-200.000	0.046	0.361
-242.946	123.150	0.143	-0.180
-241.932	225.244	-0.049	0.080
-240.917	15.924	-0.128	0.101
-239.903	425.760	-0.081	0.174
-238.888	461.798	0.101	-0.225
-237.873	-26.340	0.307	-0.180
-236.859	90.105	-0.166	0.186
-235.844	30.351	0.198	0.169
-234.830	-143.463	0.104	0.010
-233.815	-142.382	-0.189	-0.019
-232.800	10.507	0.017	0.013
-231.786	-80.082	0.203	-0.068
-230.771	439.714	0.148	-0.323
-229.757	-51.366	-0.155	0.073
-228.742	-200.000	0.083	-0.473
-227.727	-200.000	-0.013	0.346
-226.713	77.824	-0.156	-0.166
-225.698	465.875	0.088	-0.198
-224.684	-26.019	0.176	-0.103
-223.669	800.000	0.113	0.359
-222.655	350.217	0.172	-0.340
-221.640	788.318	-0.214	0.586
-220.625	-165.088	0.091	-0.004
-219.611	-119.804	0.318	0.055
-218.596	-200.000	-0.014	-0.372
-217.582	-200.000	-0.028	-0.144
-216.567	5.309	-0.254	-0.187
-215.552	712.381	-0.053	-0.141
-214.538	800.000	-0.036	-0.135
-213.523	-200.000	0.003	-0.112
-212.509	-51.136	-0.093	0.043
-211.494	-106.352	-0.123	0.027
-210.479	800.000	0.027	0.113
-209.465	-200.000	0.016	0.354
-208.450	89.466	-0.253	-0.282
-207.436	335.486	-0.142	-0.276
-206.421	176.876	-0.028	0.041
-205.406	-53.294	0.138	0.063
-204.392	44.636	-0.175	0.161
-203.377	17.766	-0.130	-0.103
-202.363	-0.338	0.110	-0.078
-201.348	453.885	0.060	0.133
-200.333	345.305	0.062	0.122
-199.319	-136.460	-0.383	-0.044
-198.304	-200.000	0.011	0.313
-197.290	604.654	-0.142	-0.352
-196.275	-21.618	0.277	-0.168
-195.260	-154.915	-0.085	-0.006
-194.246	-16.211	0.165	0.105
-193.231	-71.833	-0.119	-0.044
-192.217	43.325	0.052	-0.047
-191.202	380.013	0.055	-0.113
-190.187	274.249	-0.133	-0.235
-189.173	800.000	-0.060	-0.199
-188.158	800.000	0.064	0.214
-187.144	32.035	-0.074	-0.064
-186.129	800.000	0.029	-0.095
-185.114	16.800	0.418	-0.330
-184.100	800.000	0.046	-0.173
-183.085	-53.102	-0.456	-0.209
-182.071	-114.797	-0.234	0.045
-181.056	799.559	-0.053	0.145
-180.042	-82.764	-0.241	-0.078
-179.027	-49.480	0.099	-0.047
-178.012	-86.662	0.250	-0.077
-176.998	105.758	-0.169	0.200
-175.983	-117.217	-0.430	-0.078
-174.969	-200.000	-0.020	0.210
-173.954	-42.832	0.321	-0.163
-172.939	55.687	0.241	-0.233
-171.925	-91.941	-0.296	0.084
-170.910	-101.280	0.292	0.071
-169.896	-19.520	0.350	-0.216
-168.881	-200.000	-0.013	-0.104
-167.866	-118.148	-0.482	0.086
-166.852	381.001	-0.078	-0.160
-165.837	70.535	0.182	0.188
-164.823	-83.137	0.047	-0.015
-163.808	260.177	0.187	0.323
-162.793	150.648	-0.053	0.072
-161.779	-2.577	0.178	-0.124
-160.764	411.384	-0.019	0.039
-159.750	250.022	0.227	0.384
-158.735	241.756	0.136	-0.227
-157.720	800.000	0.017	0.068
-156.706	-200.000	-0.086	0.424
-155.691	800.000	0.056	-0.223
-154.677	9.599	0.229	-0.173
-153.662	-189.301	-0.279	-0.003
-152.647	404.794	-0.089	-0.187
-151.633	262.784	-0.094	-0.163
-150.618	680.239	0.050	-0.129
-149.604	-24.576	0.161	-0.095
-148.589	-88.371	0.151	0.045
-147.574	-25.753	0.140	-0.082
-146.560	53.801	-0.062	-0.059
-145.545	270.043	-0.060	-0.105
-144.531	-22.418	0.504	-0.304
-143.516	-200.000	0.000	0.368
-142.502	-58.357	0.216	0.093
-141.487	-200.000	-0.001	0.058
-140.472	117.873	0.065	0.080
-139.458	-127.154	0.182	0.027
-138.443	-112.636	-0.189	-0.038
-137.429	-26.094	0.262	-0.153
-136.414	435.449	-0.025	-0.053
-135.399	3.742	0.154	0.112
-134.385	373.866	-0.052	0.105
-133.370	-56.586	0.233	0.103
-132.356	109.126	-0.126	-0.150
-131.341	546.550	0.066	0.158
-130.326	-89.652	-0.267	-0.078
-129.312	-200.000	0.014	0.186
-128.297	402.946	-0.042	0.087
-127.283	-73.161	0.127	-0.046
-126.268	68.881	-0.071	0.073
-125.253	108.079	-0.191	0.227
-124.239	215.445	0.141	-0.223
-123.224	-200.000	0.009	-0.218
-122.210	-200.000	0.003	0.148
-121.195	-128.232	0.267	0.038
-120.180	-135.200	-0.066	-0.008
-119.166	323.076	0.045	0.086
-118.151	53.388	0.190	0.181
-117.137	237.554	0.073	-0.120
-116.122	-37.219	-0.091	-0.048
-115.107	4.846	-0.086	-0.063
-114.093	37.670	0.166	0.147
-113.078	-63.758	-0.301	-0.123
-112.064	118.845	-0.126	0.155
-111.049	-200.000	-0.041	0.322
-110.034	-15.693	0.162	0.103
-109.020	30.723	0.038	-0.032
-108.005	186.669	0.109	0.161
-106.991	386.511	0.072	0.149
-105.976	-200.000	-0.006	-0.233
-104.962	520.163	-0.117	0.272
-103.947	-56.757	0.239	0.105
-102.932	16.559	-0.138	0.108
-101.918	-37.764	0.146	0.077
-100.903	493.546	0.211	0.482
-99.889	-127.422	0.487	-0.070
-98.874	-35.133	0.214	-0.116
-97.859	205.995	-0.246	-0.381
-96.845	142.713	0.039	-0.052
-95.830	177.351	-0.198	-0.287
-94.816	-111.087	0.103	-0.021
-93.801	206.275	0.057	0.088
-92.786	216.839	0.289	-0.457
-91.772	-200.000	-0.043	-0.203
-90.757	-77.917	0.366	0.126
-89.743	-200.000	0.013	0.065
-88.728	-26.020	0.081	-0.048
-87.713	12.473	0.201	-0.154
-86.699	14.119	0.248	-0.192
-85.684	157.123	0.127	-0.174
-84.670	-200.000	0.016	0.382
-83.655	-156.362	-0.430	0.027
-82.640	800.000	-0.023	-0.080
-81.626	33.028	-0.300	0.258
-80.611	-84.530	0.216	-0.068
-79.597	89.337	-0.024	-0.026
-78.582	-154.362	0.293	-0.020
-77.567	-12.837	0.224	0.145
-76.553	-50.722	0.221	-0.103
-75.538	469.948	0.093	0.208
-74.524	-109.637	0.133	0.028
-73.509	-65.060	-0.253	-0.101
-72.494	-200.000	0.017	0.358
-71.480	800.000	-0.052	0.215
-70.465	22.891	0.152	-0.124
-69.451	-62.778	0.292	0.120
-68.436	-200.000	0.025	-0.225
-67.422	-99.346	0.240	-0.060
-66.407	159.368	0.056	-0.078
-65.392	68.219	0.302	0.307
-64.378	135.913	0.191	-0.247
-63.363	92.555	-0.072	0.081
-62.349	271.713	0.149	0.262
-61.334	43.216	-0.758	-0.688
-60.319	-106.022	0.594	0.133
-59.305	-200.000	-0.143	-1.224
-58.290	96.872	0.836	0.952
-57.276	800.000	0.589	1.725
-56.261	-200.000	98.328	580.024
-55.246	609.508	1415.463	3511.023
-54.232	181.006	2630.998	3839.509
-53.217	109.835	2346.043	2794.427
-52.203	40.281	2090.941	1868.146
-51.188	35.339	2003.313	1744.970
-50.173	33.766	1985.244	1714.961
-49.159	48.619	2038.189	1897.051
-48.144	51.277	2056.557	1938.414
-47.130	36.246	2014.011	1762.299
-46.115	33.730	2002.786	1729.511
-45.100	33.604	2000.118	1725.988
-44.086	33.544	1997.552	1723.161
-43.071	33.490	1995.201	1720.581
-42.057	33.462	1992.928	1718.294
-41.042	33.497	1990.487	1716.437
-40.027	33.547	1988.743	1715.322
-39.013	33.534	1986.840	1713.497
-37.998	33.576	1985.040	1712.247
-36.984	33.579	1982.993	1710.443
-35.969	33.643	1980.988	1709.223
-34.954	33.661	1979.039	1707.639
-33.940	33.718	1977.426	1706.693
-32.925	33.745	1975.695	1705.369
-31.911	33.715	1974.243	1703.778
-30.896	33.671	1972.607	1701.903
-29.881	33.663	1971.273	1700.619
-28.867	33.772	1969.467	1699.964
-27.852	33.774	1967.340	1698.081
-26.838	33.819	1965.311	1696.666
-25.823	33.767	1963.863	1694.882
-24.809	33.731	1962.277	1693.125
-23.794	33.699	1960.835	1691.534
-22.779	33.788	1958.258	1690.031
-21.765	33.764	1956.956	1688.627
-20.750	33.690	1955.494	1686.639
-19.736	33.723	1954.062	1685.631
-18.721	33.794	1952.104	1684.504
-17.706	33.722	1950.790	1682.665
-16.692	33.796	1948.864	1681.596
-15.677	33.722	1947.620	1679.795
-14.663	33.781	1945.822	1678.700
-13.648	33.809	1944.957	1678.136
-12.633	33.797	1943.763	1676.938
-11.619	33.788	1941.835	1675.130
-10.604	33.742	1941.026	1673.952
-9.590	33.684	1939.367	1671.944
-8.575	33.719	1937.760	1670.807
-7.560	33.805	1936.428	1670.344
-6.546	33.710	1935.747	1668.853
-5.531	33.788	1934.277	1668.212
-4.517	33.712	1933.522	1666.822
-3.502	33.747	1931.963	1665.725
-2.487	33.728	1930.515	1664.237
-1.473	33.743	1929.683	1663.591
-0.458	33.812	1925.422	1660.456
0.556	32.831	1905.686	1634.460
1.571	28.899	1886.282	1583.888
2.586	25.010	1909.437	1569.194
3.600	23.986	1945.827	1589.817
4.615	23.126	1940.500	1577.654
5.629	17.949	1839.414	1451.460
6.644	9.386	1720.564	1289.200
7.659	5.294	1683.763	1229.369
8.673	5.096	1680.129	1225.050
9.688	4.938	1678.896	1222.809
10.702	4.915	1677.302	1221.353
11.717	4.882	1674.483	1218.934
12.731	5.324	1673.744	1221.746
13.746	11.033	1687.750	1276.762
14.761	17.969	1702.554	1342.552
15.775	19.307	1703.220	1353.470
16.790	18.209	1699.112	1341.478
17.804	17.133	1695.650	1330.204
18.819	16.088	1692.134	1319.155
19.834	15.520	1689.612	1312.640
20.848	15.145	1688.100	1308.416
21.863	14.997	1686.300	1305.749
22.877	14.612	1685.289	1301.846
23.892	14.470	1683.899	1299.556
24.907	14.359	1682.703	1297.647
25.921	14.324	1681.690	1296.479
26.936	14.312	1680.709	1295.515
27.950	14.380	1679.542	1295.035
28.965	14.524	1678.813	1295.473
29.980	14.454	1678.609	1294.656
30.994	14.545	1677.806	1294.629
32.009	14.646	1676.255	1294.101
33.023	14.730	1674.925	1293.611
34.038	14.670	1674.350	1292.590
35.053	14.631	1672.919	1291.068
36.067	14.569	1672.002	1289.767
37.082	14.487	1670.902	1288.174
38.096	14.588	1669.382	1287.667
39.111	14.596	1668.872	1287.215
40.126	14.581	1668.299	1286.550
41.140	14.572	1667.033	1285.389
42.155	14.426	1665.884	1283.262
43.169	14.304	1664.518	1281.156
44.184	14.303	1662.990	1279.861
45.199	14.259	1662.105	1278.728
46.213	14.387	1659.893	1277.900
47.228	14.312	1659.287	1276.742
48.242	14.414	1658.433	1276.755
49.257	14.496	1657.356	1276.443
50.271	14.447	1656.579	1275.351
51.286	14.453	1655.152	1274.190
52.301	14.540	1653.310	1273.323
53.315	14.418	1652.251	1271.463
54.330	14.510	1650.505	1270.710
55.344	14.347	1648.630	1267.907
56.359	14.333	1647.653	1266.939
57.374	14.347	1646.119	1265.753
58.388	14.328	1645.399	1264.943
59.403	14.289	1644.384	1263.761
60.417	14.355	1642.306	1262.547
61.432	14.288	1641.461	1261.278
62.447	14.345	1640.194	1260.626
63.461	14.224	1638.711	1258.463
64.476	14.206	1637.783	1257.501
65.490	14.212	1636.905	1256.757
66.505	14.177	1635.739	1255.489
67.520	14.178	1634.947	1254.773
68.534	14.178	1634.083	1254.001
69.549	14.241	1632.929	1253.482
70.563	14.268	1631.469	1252.450
71.578	14.279	1630.077	1251.354
72.593	14.180	1629.285	1249.891
73.607	14.157	1628.218	1248.791
74.622	14.135	1626.870	1247.480
75.636	13.993	1626.485	1246.010
76.651	14.123	1625.275	1245.951
77.666	14.090	1624.641	1245.105
78.680	14.102	1624.033	1244.618
79.695	14.142	1622.865	1243.914
80.709	14.152	1621.748	1243.019
81.724	14.222	1620.921	1242.803
82.739	14.297	1619.929	1242.493
83.753	14.353	1618.970	1242.063
84.768	14.450	1618.560	1242.359
85.782	14.480	1618.070	1242.097
86.797	14.531	1616.808	1241.398
87.812	14.571	1615.614	1240.671
88.826	14.480	1614.560	1239.076
89.841	14.413	1613.554	1237.696
90.855	14.355	1612.684	1236.490
91.870	14.479	1611.063	1236.057
92.884	14.465	1610.779	1235.624
93.899	14.572	1609.266	1235.149
94.914	14.537	1608.142	1233.916
95.928	14.586	1606.979	1233.278
96.943	14.606	1605.855	1232.455
97.957	14.618	1604.184	1231.146
98.972	14.490	1602.911	1229.119
99.987	14.559	1600.941	1228.009
101.001	14.518	1599.848	1226.758
102.016	14.534	1597.918	1225.292
103.030	14.516	1596.862	1224.239
104.045	14.503	1595.860	1223.264
105.060	14.578	1593.871	1222.179
106.074	14.480	1593.174	1220.820
107.089	14.468	1591.390	1219.259
108.103	14.298	1589.669	1216.593
109.118	14.218	1588.604	1215.083
110.133	14.244	1586.794	1213.783
111.147	14.252	1585.610	1212.826
112.162	14.321	1583.954	1211.957
113.176	14.330	1582.363	1210.696
114.191	14.350	1581.601	1210.151
115.206	14.368	1580.208	1209.109
116.220	14.377	1579.206	1208.298
117.235	14.353	1577.338	1206.590
118.249	14.351	1576.406	1205.757
119.264	14.315	1575.400	1204.617
120.279	14.240	1573.881	1202.813
121.293	14.245	1571.888	1201.214
122.308	14.224	1570.996	1200.281
123.322	14.205	1569.265	1198.712
124.337	14.234	1567.428	1197.408
125.352	14.225	1566.245	1196.336
126.366	14.163	1565.723	1195.387
127.381	14.174	1564.170	1194.174
128.395	14.230	1562.833	1193.448
129.410	14.285	1561.417	1192.659
130.424	14.306	1559.876	1191.521
131.439	14.238	1559.109	1190.345
132.454	14.210	1557.747	1188.999
133.468	14.341	1556.112	1188.585
134.483	14.383	1554.891	1187.847
135.497	14.403	1553.763	1187.023
136.512	14.402	1552.191	1185.706
137.527	14.460	1550.781	1184.941
138.541	14.477	1549.421	1183.913
139.556	14.438	1548.085	1182.513
140.570	14.592	1546.670	1182.419
141.585	14.488	1545.807	1180.920
142.600	14.567	1544.647	1180.484
143.614	14.632	1543.507	1179.972
144.629	14.699	1542.440	1179.526
145.643	14.759	1540.637	1178.462
146.658	14.682	1539.545	1176.983
147.673	14.719	1537.997	1175.953
148.687	14.667	1536.667	1174.464
149.702	14.586	1534.975	1172.504
150.716	14.633	1533.190	1171.365
151.731	14.545	1532.429	1170.061
152.746	14.544	1530.836	1168.734
153.760	14.558	1529.420	1167.651
154.775	14.491	1528.441	1166.330
155.789	14.594	1527.335	1166.102
156.804	14.642	1525.986	1165.302
157.819	14.666	1524.691	1164.379
158.833	14.737	1523.440	1163.818
159.848	14.728	1522.532	1162.959
160.862	14.811	1521.359	1162.531
161.877	14.803	1520.502	1161.722
162.892	14.689	1519.164	1159.805
163.906	14.592	1517.715	1157.923
164.921	14.603	1516.310	1156.824
165.935	14.588	1515.576	1156.058
166.950	14.577	1514.568	1155.111
167.964	14.663	1513.176	1154.543
168.979	14.705	1512.192	1153.982
169.994	14.714	1510.779	1152.860
171.008	14.716	1510.145	1152.287
172.023	14.624	1509.009	1150.688
173.037	14.800	1507.562	1150.690
174.052	14.777	1506.505	1149.626
175.067	14.832	1505.654	1149.254
176.081	14.899	1504.222	1148.515
177.096	14.729	1502.875	1146.220
178.110	14.649	1501.642	1144.630
179.125	14.672	1500.810	1144.056
180.140	14.700	1499.697	1143.298
181.154	14.689	1498.390	1142.123
182.169	14.708	1497.066	1141.143
183.183	14.848	1495.808	1141.041
184.198	14.861	1495.079	1140.470
185.213	14.890	1493.654	1139.478
186.227	14.904	1492.773	1138.805
187.242	14.925	1491.894	1138.175
188.256	14.978	1490.945	1137.707
189.271	15.030	1489.466	1136.831
190.286	15.120	1488.194	1136.370
191.300	15.032	1487.343	1135.027
192.315	14.820	1486.259	1132.664
193.329	14.705	1484.791	1130.661
194.344	14.676	1483.574	1129.440
195.359	14.716	1482.539	1128.822
196.373	14.870	1481.656	1129.091
197.388	14.886	1480.954	1128.561
198.402	14.973	1479.553	1127.985
199.417	15.068	1478.708	1127.883
200.432	15.157	1477.579	1127.518
201.446	15.192	1477.047	1127.250
202.461	15.276	1475.522	1126.550
203.475	15.268	1474.348	1125.499
204.490	15.327	1473.857	1125.420
205.504	15.139	1472.986	1123.395
206.519	15.154	1471.465	1122.236
207.534	15.149	1470.166	1121.111
208.548	15.060	1469.251	1119.717
209.563	15.139	1467.798	1119.043
210.577	15.251	1466.293	1118.543
211.592	15.166	1465.878	1117.561
212.607	15.225	1465.549	1117.604
213.621	15.428	1464.308	1117.909
214.636	15.328	1463.543	1116.564
215.650	15.248	1462.763	1115.336
216.665	15.378	1461.244	1114.945
217.680	15.301	1460.433	1113.713
218.694	15.383	1459.975	1113.812
219.709	15.418	1459.036	1113.228
220.723	15.378	1458.241	1112.256
221.738	15.373	1456.893	1111.097
222.753	15.340	1456.801	1110.714
223.767	15.410	1455.032	1109.729
224.782	15.466	1454.114	1109.301
225.796	15.506	1453.165	1108.740
226.811	15.430	1452.787	1107.849
227.826	15.568	1451.778	1107.897
228.840	15.494	1450.751	1106.525
229.855	15.497	1450.030	1105.897
230.869	15.476	1449.018	1104.888
231.884	15.504	1447.500	1103.816
232.899	15.416	1446.668	1102.508
233.913	15.437	1445.620	1101.748
234.928	15.383	1444.102	1100.139
235.942	15.346	1443.044	1098.998
236.957	15.383	1441.797	1098.190
237.972	15.311	1440.727	1096.811
238.986	15.334	1439.770	1096.135
240.001	15.363	1439.081	1095.700
241.015	15.453	1437.247	1094.796
242.030	15.445	1436.291	1093.917
243.045	15.478	1435.441	1093.390
244.059	15.552	1434.726	1093.230
245.074	15.649	1433.939	1093.162
246.088	15.508	1433.379	1091.720
247.103	15.579	1432.234	1091.217
248.117	15.720	1431.455	1091.438
249.132	15.728	1430.798	1090.895
250.147	15.776	1430.199	1090.649
251.161	15.860	1429.695	1090.715
252.176	15.977	1429.212	1091.011
253.190	16.062	1428.184	1090.677
254.205	15.998	1427.136	1089.367
255.220	16.224	1425.750	1089.671
256.234	16.125	1425.514	1088.758
257.249	16.053	1424.798	1087.646
258.263	16.034	1424.151	1086.933
259.278	16.143	1422.958	1086.632
260.293	16.151	1421.744	1085.661
261.307	16.108	1421.230	1084.895
262.322	16.265	1420.110	1084.954
263.336	16.247	1419.674	1084.406
264.351	16.240	1418.400	1083.297
265.366	16.326	1417.601	1083.136
266.380	16.251	1416.788	1081.941
267.395	16.290	1415.766	1081.313
268.409	16.280	1414.572	1080.246
269.424	16.204	1413.963	1079.197
270.439	16.266	1412.840	1078.643
271.453	16.266	1411.640	1077.628
272.468	16.278	1410.537	1076.769
273.482	16.179	1410.195	1075.782
274.497	16.169	1409.460	1075.061
275.512	16.204	1408.288	1074.297
276.526	16.261	1407.136	1073.683
277.541	16.186	1406.541	1072.656
278.555	16.234	1405.944	1072.410
279.570	16.292	1405.070	1072.020
280.585	16.325	1404.036	1071.341
281.599	16.424	1403.237	1071.269
282.614	16.503	1402.441	1071.064
283.628	16.475	1401.027	1069.716
284.643	16.458	1399.971	1068.703
285.657	16.328	1399.001	1067.051
286.672	16.327	1398.118	1066.274
287.687	16.347	1397.576	1065.891
288.701	16.448	1396.182	1065.370
289.716	16.379	1395.169	1064.073
290.730	16.301	1394.601	1063.054
291.745	16.455	1393.284	1062.923
292.760	16.419	1392.512	1062.011
293.774	16.471	1391.370	1061.375
294.789	16.525	1390.306	1060.809
295.803	16.528	1389.927	1060.445
296.818	16.658	1388.659	1060.199
297.833	16.605	1388.033	1059.295
298.847	16.557	1386.622	1057.823
299.862	16.450	1386.214	1056.749
300.876	16.553	1385.137	1056.475
301.891	16.552	1384.078	1055.571
302.906	16.541	1383.621	1055.058
303.920	16.692	1382.620	1055.144
304.935	16.639	1381.754	1054.057
305.949	16.739	1381.027	1054.038
306.964	16.829	1380.424	1054.039
307.979	16.927	1379.082	1053.531
308.993	16.861	1378.268	1052.407
310.008	16.802	1377.499	1051.361
311.022	16.786	1376.749	1050.597
312.037	16.778	1375.800	1049.732
313.052	16.865	1374.802	1049.415
314.066	16.830	1373.932	1048.437
315.081	16.786	1372.448	1046.944
316.095	16.756	1371.322	1045.804
317.110	16.707	1370.320	1044.645
318.125	16.641	1369.814	1043.765
319.139	16.734	1368.606	1043.325
320.154	16.794	1367.232	1042.551
321.168	16.716	1366.720	1041.589
322.183	16.726	1365.875	1040.915
323.197	16.804	1364.794	1040.475
324.212	16.758	1363.845	1039.383
325.227	16.793	1363.057	1038.904
326.241	16.817	1362.116	1038.240
327.256	16.813	1360.786	1037.109
328.270	16.796	1360.256	1036.512
329.285	16.959	1359.468	1036.812
330.300	16.918	1358.386	1035.645
331.314	16.911	1357.601	1034.913
332.329	16.911	1356.515	1033.996
333.343	16.884	1356.197	1033.497
334.358	16.885	1355.263	1032.696
335.373	16.962	1354.184	1032.254
336.387	17.036	1353.407	1032.023
337.402	17.060	1352.914	1031.697
338.416	17.030	1352.754	1031.306
339.431	17.040	1351.784	1030.532
340.446	17.086	1350.865	1030.018
341.460	17.086	1350.174	1029.404
342.475	17.193	1349.030	1029.086
343.489	17.297	1347.651	1028.575
344.504	17.315	1346.827	1027.960
345.519	17.350	1346.214	1027.616
346.533	17.295	1345.161	1026.390
347.548	17.423	1344.417	1026.502
348.562	17.371	1343.641	1025.505
349.577	17.488	1343.077	1025.688
350.592	17.366	1341.832	1023.915
351.606	17.310	1340.796	1022.695
352.621	17.165	1340.394	1021.428
353.635	17.217	1338.667	1020.332
354.650	17.199	1337.954	1019.593
355.665	17.235	1336.668	1018.738
356.679	17.195	1335.939	1017.851
357.694	17.253	1335.233	1017.572
358.708	17.373	1333.666	1017.005
359.723	17.365	1332.753	1016.171
360.738	17.393	1331.831	1015.541
361.752	17.446	1331.027	1015.157
362.767	17.421	1329.812	1013.993
363.781	17.431	1328.898	1013.264
364.796	17.493	1327.748	1012.664
365.810	17.464	1327.295	1012.062
366.825	17.574	1326.578	1012.080
367.840	17.627	1325.986	1011.849
368.854	17.649	1325.333	1011.393
369.869	17.710	1324.903	1011.336
370.883	17.761	1324.113	1010.946
371.898	17.736	1323.427	1010.185
372.913	17.698	1322.288	1009.000
373.927	17.663	1321.253	1007.916
374.942	17.698	1320.459	1007.430
375.956	17.700	1319.997	1006.997
376.971	17.749	1319.100	1006.512
377.986	17.665	1318.446	1005.430
379.000	17.744	1317.395	1005.004
380.015	17.817	1316.793	1004.889
381.029	17.859	1315.874	1004.346
382.044	17.940	1315.241	1004.247
383.059	17.894	1314.423	1003.265
384.073	17.891	1313.923	1002.778
385.088	17.878	1313.243	1002.091
386.102	17.874	1313.001	1001.795
387.117	17.863	1311.955	1000.846
388.132	17.956	1310.743	1000.377
389.146	17.788	1310.167	998.863
390.161	17.804	1309.148	998.090
391.175	17.787	1308.366	997.310
392.190	17.792	1307.705	996.747
393.205	17.802	1306.984	996.165
394.219	18.049	1305.577	996.446
395.234	17.950	1304.554	994.998
396.248	18.116	1302.800	994.542
397.263	17.912	1301.661	992.400
398.278	17.912	1300.421	991.367
399.292	17.982	1299.373	990.882
400.307	17.916	1298.376	989.655
401.321	17.834	1297.517	988.436
402.336	17.841	1296.578	987.676
403.350	17.923	1295.284	987.076
404.365	17.885	1294.221	985.956
405.380	17.930	1293.275	985.408
406.394	17.964	1292.689	985.075
407.409	18.023	1292.000	984.800
408.423	18.127	1291.184	984.693
409.438	18.193	1290.575	984.515
410.453	18.190	1290.008	983.982
411.467	18.206	1289.045	983.249
412.482	18.310	1288.397	983.265
413.496	18.252	1288.081	982.606
414.511	18.264	1287.319	982.008
415.526	18.391	1286.977	982.385
416.540	18.411	1286.303	981.902
417.555	18.400	1285.317	981.001
418.569	18.452	1284.669	980.715
419.584	18.392	1284.084	979.837
420.599	18.523	1283.390	979.968
421.613	138.102	1431.204	1792.068
422.628	133.128	1452.723	1792.178
