DTS Sentinel unit serial number:	SN413079Multiplexer serial number:	ORYXHardware model number:	OX4-SRSoftware version number:	ORYX F/W v4.00 Oryx Data Collector v3.7.2.0data status	okinstallation	princeton_trtdifferential loss correction	single-endedforward channel	channel 4reverse channel	N/Adate	2019/09/16time	21:09:35forward acquisition time	60.00reverse acquisition time	0.00gamma	496.2192k internal	0.2312k external	0.2312temperature offset calibration	0.9966default loss term (dB/km)	0.3790temperature slope calibration	1.0000multiplexer offset coefficient	1.0000multiplexer slope coefficient	1.0000fibre end	0.00T internal ref (°C)	31.81T ext. ref 1 (°C)	0.05T ext. ref 2 (°C)	25.45length (m)	temperature (°C)	Stokes	anti-Stokes-747.200	195.057	-0.240	0.370
-746.185	-66.382	-0.392	0.158
-745.171	-96.298	-0.171	-0.046
-744.156	-38.332	0.076	0.041
-743.142	-200.000	0.044	0.228
-742.127	-82.700	-0.394	-0.129
-741.112	-200.000	-0.023	-0.107
-740.098	-200.000	0.024	-0.328
-739.083	-200.000	0.001	0.011
-738.069	14.771	-0.322	-0.255
-737.054	-200.000	-0.001	-0.170
-736.039	-200.000	-0.006	-0.028
-735.025	-100.613	0.412	0.103
-734.010	114.303	0.030	-0.038
-732.996	-104.209	-0.099	-0.023
-731.981	553.525	-0.143	-0.349
-730.966	-63.316	-0.148	0.062
-729.952	46.684	-0.227	0.214
-728.937	-134.009	-0.375	0.047
-727.923	-200.000	0.002	-0.043
-726.908	-48.296	0.269	0.131
-725.894	-200.000	0.022	-0.206
-724.879	-200.000	-0.058	0.272
-723.864	-200.000	-0.050	0.486
-722.850	-200.000	-0.064	0.407
-721.835	-82.675	0.161	0.053
-720.821	800.000	-0.054	0.189
-719.806	46.427	-0.176	-0.165
-718.791	224.413	-0.075	0.123
-717.777	150.059	0.178	-0.245
-716.762	13.745	0.166	-0.131
-715.748	-200.000	0.018	0.184
-714.733	34.811	-0.037	-0.033
-713.718	-101.391	-0.046	-0.011
-712.704	-200.000	-0.011	-0.104
-711.689	690.521	-0.161	-0.427
-710.675	-29.409	-0.034	0.020
-709.660	-200.000	-0.041	-0.254
-708.645	-115.716	-0.350	-0.066
-707.631	-200.000	0.299	-0.001
-706.616	621.984	0.042	0.108
-705.602	-129.400	0.178	-0.025
-704.587	800.000	-0.112	0.471
-703.572	515.691	-0.119	0.283
-702.558	-179.729	0.293	-0.006
-701.543	-75.304	0.091	-0.033
-700.529	-82.664	0.166	-0.054
-699.514	-41.410	-0.059	0.031
-698.499	-85.605	0.243	-0.077
-697.485	412.225	-0.049	-0.104
-696.470	8.523	0.064	-0.049
-695.456	686.897	0.107	-0.284
-694.441	138.756	0.107	-0.143
-693.426	-200.000	0.022	0.147
-692.412	-50.285	-0.209	0.100
-691.397	395.448	0.089	0.188
-690.383	176.335	0.016	-0.023
-689.368	-94.667	0.185	0.051
-688.354	-20.851	0.240	-0.149
-687.339	-173.825	-0.216	-0.006
-686.324	-168.399	0.125	0.005
-685.310	800.000	0.026	0.101
-684.295	153.904	-0.117	0.163
-683.281	629.107	-0.074	-0.188
-682.266	-108.813	0.087	-0.019
-681.251	-121.765	0.035	-0.006
-680.237	-200.000	0.025	-0.124
-679.222	-200.000	0.026	-0.303
-678.208	-126.134	-0.160	0.024
-677.193	-97.160	0.104	0.028
-676.178	-24.532	-0.080	-0.048
-675.164	38.301	-0.309	-0.279
-674.149	156.174	0.108	0.151
-673.135	-31.784	-0.181	-0.103
-672.120	800.000	-0.019	0.065
-671.105	-15.263	-0.260	-0.168
-670.091	320.632	0.065	-0.124
-669.076	109.701	0.112	0.136
-668.062	-106.426	-0.161	0.036
-667.047	-143.431	0.220	-0.021
-666.032	-74.497	0.237	0.086
-665.018	-66.277	0.030	-0.012
-664.003	549.976	-0.116	-0.282
-662.989	-50.162	0.192	0.092
-661.974	404.018	-0.038	0.080
-660.959	-200.000	0.003	-0.493
-659.945	-200.000	0.008	-0.078
-658.930	496.201	0.054	-0.126
-657.916	800.000	0.012	-0.050
-656.901	48.389	0.231	-0.219
-655.886	-200.000	0.087	-0.430
-654.872	-19.855	-0.260	0.163
-653.857	71.308	0.084	-0.088
-652.843	346.542	-0.175	0.348
-651.828	-200.000	0.000	0.156
-650.814	-164.785	-0.113	-0.005
-649.799	-25.602	-0.134	0.080
-648.784	-41.308	-0.197	-0.103
-647.770	261.478	-0.171	0.300
-646.755	800.000	0.083	-0.256
-645.741	-162.457	0.213	0.011
-644.726	122.675	0.255	-0.323
-643.711	-95.399	-0.058	0.016
-642.697	-200.000	-0.007	0.261
-641.682	800.000	0.094	0.314
-640.668	-75.075	-0.234	-0.084
-639.653	125.009	-0.203	-0.258
-638.638	-164.618	-0.307	-0.014
-637.624	-95.417	-0.027	-0.007
-636.609	-91.972	0.130	0.037
-635.595	356.620	0.144	-0.290
-634.580	26.496	-0.207	-0.175
-633.565	-73.070	-0.311	0.115
-632.551	65.346	-0.231	-0.236
-631.536	80.159	-0.152	-0.165
-630.522	-148.121	0.246	-0.021
-629.507	-40.537	0.122	0.064
-628.492	-93.775	-0.179	0.050
-627.478	79.763	0.062	-0.068
-626.463	-200.000	-0.059	0.318
-625.449	-130.848	0.117	0.016
-624.434	-200.000	0.012	-0.137
-623.419	-59.913	0.091	-0.039
-622.405	-200.000	-0.020	-0.219
-621.390	-163.126	-0.363	-0.018
-620.376	168.286	-0.077	0.111
-619.361	-106.299	0.201	-0.045
-618.346	98.632	-0.225	-0.262
-617.332	-200.000	-0.035	-0.414
-616.317	121.405	0.207	-0.260
-615.303	-200.000	0.025	0.298
-614.288	-190.231	-0.563	0.006
-613.273	-200.000	-0.013	0.071
-612.259	59.206	-0.103	0.102
-611.244	-200.000	-0.028	-0.150
-610.230	65.622	-0.234	-0.239
-609.215	-14.827	0.080	-0.052
-608.201	231.732	-0.105	-0.174
-607.186	-200.000	-0.024	-0.150
-606.171	101.234	-0.221	0.260
-605.157	-97.679	-0.173	0.045
-604.142	-137.506	-0.143	-0.016
-603.128	-67.878	-0.231	0.091
-602.113	-39.845	0.457	-0.241
-601.098	-4.801	-0.231	-0.160
-600.084	-200.000	0.061	-0.304
-599.069	334.760	-0.039	0.077
-598.055	169.047	0.184	0.265
-597.040	702.164	-0.099	-0.263
-596.025	-165.659	0.165	-0.007
-595.011	151.094	0.102	-0.140
-593.996	-116.505	-0.215	-0.040
-592.982	480.749	-0.111	-0.253
-591.967	536.620	0.114	-0.273
-590.952	-72.637	0.270	-0.100
-589.938	-144.151	0.279	-0.026
-588.923	230.462	-0.077	-0.128
-587.909	704.986	0.100	0.265
-586.894	-79.765	-0.086	0.029
-585.879	-200.000	-0.032	-0.275
-584.865	-101.957	0.179	-0.044
-583.850	-60.127	-0.276	0.119
-582.836	-35.227	0.328	0.180
-581.821	-200.000	0.001	-0.142
-580.806	87.620	0.090	-0.100
-579.792	-200.000	-0.039	-0.295
-578.777	-83.747	-0.060	0.019
-577.763	800.000	0.099	0.319
-576.748	24.256	0.148	-0.124
-575.733	-149.497	-0.121	0.010
-574.719	-134.313	-0.330	-0.041
-573.704	141.704	-0.048	-0.064
-572.690	670.709	-0.030	-0.078
-571.675	-200.000	0.008	-0.074
-570.661	-62.208	0.103	-0.043
-569.646	439.385	0.090	0.197
-568.631	-57.047	0.159	0.071
-567.617	-200.000	-0.023	-0.176
-566.602	78.430	-0.235	0.253
-565.588	18.695	0.274	-0.221
-564.573	-86.793	0.390	-0.120
-563.558	-55.953	0.261	0.117
-562.544	94.572	-0.178	0.204
-561.529	-200.000	0.006	0.292
-560.515	-136.999	0.407	-0.047
-559.500	-200.000	0.030	-0.263
-558.485	171.017	-0.226	0.326
-557.471	-101.892	0.373	-0.091
-556.456	-53.497	0.236	0.109
-555.442	-44.552	0.187	-0.094
-554.427	294.995	-0.079	-0.145
-553.412	561.433	-0.064	-0.157
-552.398	-57.511	-0.235	0.104
-551.383	-133.108	0.330	-0.042
-550.369	113.091	-0.191	-0.233
-549.354	481.855	-0.064	-0.147
-548.339	-8.627	0.146	-0.098
-547.325	40.093	-0.025	-0.022
-546.310	800.000	-0.042	0.125
-545.296	-200.000	-0.007	-0.140
-544.281	127.275	-0.205	0.262
-543.266	3.127	-0.135	0.099
-542.252	-43.987	0.419	0.212
-541.237	-147.773	0.265	-0.022
-540.223	115.000	0.116	-0.143
-539.208	-167.420	-0.177	0.007
-538.193	308.055	-0.060	0.112
-537.179	203.581	-0.173	0.269
-536.164	-55.008	-0.382	0.173
-535.150	-200.000	-0.015	0.197
-534.135	71.756	0.070	-0.073
-533.121	-200.000	-0.002	0.011
-532.106	-145.958	0.116	0.010
-531.091	-200.000	-0.007	-0.282
-530.077	-64.329	0.200	0.082
-529.062	-46.425	-0.064	-0.032
-528.048	383.336	-0.027	0.056
-527.033	-100.436	-0.215	-0.054
-526.018	-40.279	-0.377	0.197
-525.004	663.085	0.126	0.326
-523.989	151.619	-0.141	-0.193
-522.975	-200.000	-0.027	0.150
-521.960	-200.000	0.006	0.145
-520.945	-165.908	-0.288	-0.012
-519.931	452.172	0.087	0.194
-518.916	413.454	-0.164	0.351
-517.902	-65.651	0.198	0.080
-516.887	-107.878	0.184	-0.040
-515.872	-0.163	-0.421	0.301
-514.858	800.000	0.009	0.032
-513.843	800.000	0.047	-0.171
-512.829	108.724	0.155	-0.187
-511.814	800.000	0.104	-0.400
-510.799	800.000	0.059	-0.187
-509.785	-16.617	-0.093	0.059
-508.770	556.588	-0.077	0.186
-507.756	800.000	0.065	0.220
-506.741	-100.849	0.141	0.035
-505.726	660.403	-0.109	-0.282
-504.712	378.823	-0.063	-0.130
-503.697	-114.306	0.216	0.042
-502.683	42.029	0.120	0.110
-501.668	-200.000	-0.001	-0.029
-500.653	-99.890	-0.226	-0.057
-499.639	41.888	-0.108	-0.098
-498.624	800.000	0.076	-0.257
-497.610	-57.875	-0.378	0.166
-496.595	-65.957	-0.231	-0.093
-495.581	178.432	0.237	0.347
-494.566	12.946	0.218	-0.169
-493.551	-41.139	-0.295	-0.153
-492.537	327.636	0.088	-0.170
-491.522	-63.275	0.202	0.084
-490.508	-43.601	0.347	-0.176
-489.493	204.160	0.053	-0.083
-488.478	-181.068	0.293	-0.006
-487.464	-111.161	0.268	-0.055
-486.449	-70.903	-0.373	-0.141
-485.435	-66.116	0.506	0.203
-484.420	105.323	-0.135	-0.160
-483.405	380.645	-0.089	-0.184
-482.391	378.618	0.149	-0.307
-481.376	436.202	-0.093	0.203
-480.362	-83.421	-0.118	-0.038
-479.347	147.368	0.114	-0.155
-478.332	-200.000	-0.002	0.044
-477.318	238.784	0.058	-0.096
-476.303	122.177	0.060	-0.076
-475.289	-117.912	-0.266	0.048
-474.274	-200.000	-0.043	0.276
-473.259	-54.645	-0.261	-0.119
-472.245	-124.945	-0.098	0.015
-471.230	-182.098	-0.053	0.001
-470.216	-71.605	-0.079	-0.030
-469.201	-66.598	0.098	0.039
-468.186	-85.283	-0.076	0.024
-467.172	129.109	-0.239	0.306
-466.157	47.470	-0.072	0.067
-465.143	-38.523	-0.279	0.148
-464.128	47.174	-0.157	-0.147
-463.113	526.091	0.062	-0.146
-462.099	-92.048	0.453	-0.129
-461.084	-112.516	-0.444	-0.089
-460.070	361.614	-0.118	-0.238
-459.055	-98.757	0.131	-0.033
-458.040	-89.721	0.248	-0.073
-457.026	181.383	0.037	0.055
-456.011	129.699	0.172	0.221
-454.997	-116.265	0.083	-0.015
-453.982	800.000	0.075	-0.260
-452.968	174.653	-0.305	-0.442
-451.953	-35.249	-0.045	-0.025
-450.938	-200.000	-0.035	0.321
-449.924	800.000	0.078	-0.232
-448.909	795.874	0.105	-0.289
-447.895	-161.771	0.184	0.009
-446.880	-56.182	0.134	0.060
-445.865	-35.026	-0.074	0.041
-444.851	-24.474	0.248	-0.148
-443.836	-64.797	0.061	0.025
-442.822	46.621	-0.227	0.211
-441.807	-200.000	0.039	0.196
-440.792	-105.770	0.096	0.022
-439.778	-200.000	0.030	-0.205
-438.763	-57.677	0.061	0.027
-437.749	304.727	0.108	0.201
-436.734	-200.000	-0.002	0.244
-435.719	-103.670	0.064	-0.015
-434.705	206.208	-0.014	0.022
-433.690	-200.000	-0.007	-0.181
-432.676	181.084	-0.113	-0.166
-431.661	-87.294	-0.089	0.027
-430.646	-165.210	-0.302	-0.013
-429.632	-170.525	-0.241	-0.008
-428.617	-7.316	0.288	-0.196
-427.603	-92.490	0.235	0.066
-426.588	-43.165	0.038	-0.019
-425.573	-9.412	-0.225	0.150
-424.559	-200.000	-0.022	0.151
-423.544	135.441	0.238	0.311
-422.530	289.170	-0.097	-0.176
-421.515	515.064	-0.176	-0.413
-420.500	-109.799	-0.210	0.044
-419.486	68.967	-0.062	-0.063
-418.471	-170.785	0.380	-0.013
-417.457	-97.045	0.407	-0.107
-416.442	-49.114	0.171	-0.082
-415.428	242.691	-0.173	-0.291
-414.413	26.684	-0.043	0.036
-413.398	-173.933	-0.209	-0.006
-412.384	-97.366	0.706	0.184
-411.369	404.548	0.066	-0.138
-410.355	-72.523	0.216	-0.080
-409.340	3.113	-0.117	-0.085
-408.325	800.000	-0.074	0.260
-407.311	-158.424	-0.084	-0.005
-406.296	-200.000	-0.010	0.134
-405.282	-200.000	0.000	-0.107
-404.267	502.382	-0.036	-0.084
-403.252	-28.170	-0.020	0.011
-402.238	430.768	0.065	-0.140
-401.223	55.808	0.072	0.069
-400.209	-200.000	-0.051	0.254
-399.194	-118.886	-0.165	0.029
-398.179	-55.490	-0.176	0.079
-397.165	-21.829	-0.139	-0.084
-396.150	72.536	-0.205	-0.214
-395.136	-111.790	0.165	-0.033
-394.121	78.405	0.286	0.305
-393.106	800.000	-0.080	0.303
-392.092	92.593	-0.093	0.105
-391.077	800.000	-0.043	-0.180
-390.063	598.785	-0.135	0.334
-389.048	-76.516	0.487	0.171
-388.033	233.090	-0.086	-0.142
-387.019	-110.135	0.050	0.010
-386.004	-200.000	-0.002	0.402
-384.990	-200.000	-0.002	-0.009
-383.975	-20.270	-0.100	0.062
-382.960	-120.297	0.222	0.038
-381.946	99.820	0.323	0.375
-380.931	75.384	0.074	0.078
-379.917	-60.515	-0.289	0.123
-378.902	172.726	-0.057	-0.083
-377.888	13.352	-0.020	-0.015
-376.873	-72.072	0.204	0.076
-375.858	-16.800	-0.232	0.147
-374.844	-200.000	-0.005	0.301
-373.829	-110.734	0.166	0.034
-372.815	299.437	0.119	-0.220
-371.800	56.464	-0.065	-0.064
-370.785	0.680	0.163	0.116
-369.771	143.407	0.062	-0.083
-368.756	119.603	0.149	0.185
-367.742	193.716	-0.056	0.085
-366.727	242.387	0.142	-0.238
-365.712	9.800	0.098	0.074
-364.698	79.723	-0.105	-0.113
-363.683	709.748	0.048	-0.126
-362.669	32.379	0.049	0.042
-361.654	63.554	-0.215	-0.216
-360.639	-152.002	0.121	0.009
-359.625	-58.709	-0.327	-0.142
-358.610	88.923	0.228	0.254
-357.596	-113.473	0.333	-0.065
-356.581	800.000	-0.032	0.110
-355.566	62.016	0.013	-0.013
-354.552	599.335	0.036	-0.089
-353.537	70.292	-0.221	0.228
-352.523	-121.519	-0.213	0.035
-351.508	83.308	0.231	-0.252
-350.493	88.885	-0.049	-0.055
-349.479	288.477	-0.057	-0.104
-348.464	203.510	0.178	0.276
-347.450	222.602	0.145	-0.233
-346.435	-200.000	-0.042	-0.000
-345.420	779.304	-0.012	-0.032
-344.406	-26.925	-0.172	0.100
-343.391	72.918	0.329	0.343
-342.377	-84.862	0.075	0.023
-341.362	69.634	-0.277	0.285
-340.348	107.784	0.123	0.147
-339.333	800.000	0.197	0.638
-338.318	156.861	-0.100	-0.138
-337.304	-200.000	0.025	-0.129
-336.289	23.352	-0.100	0.082
-335.275	491.522	-0.031	0.072
-334.260	-75.956	0.289	-0.102
-333.245	131.427	-0.067	0.086
-332.231	800.000	-0.069	0.272
-331.216	-200.000	0.004	-0.027
-330.202	-174.083	0.136	-0.004
-329.187	-52.610	-0.009	-0.004
-328.172	91.081	-0.201	0.225
-327.158	175.772	0.058	0.083
-326.143	-200.000	0.009	0.437
-325.129	94.210	0.240	-0.272
-324.114	364.445	0.112	0.225
-323.099	65.155	-0.182	-0.183
-322.085	-44.993	-0.285	0.142
-321.070	800.000	-0.029	0.114
-320.056	-17.699	0.115	-0.072
-319.041	148.712	0.174	0.234
-318.026	172.534	-0.200	-0.287
-317.012	-93.767	0.106	-0.029
-315.997	-86.043	0.127	-0.039
-314.983	52.851	0.069	-0.066
-313.968	46.078	-0.156	0.144
-312.953	-89.431	-0.293	-0.086
-311.939	-192.999	0.211	-0.002
-310.924	-178.008	0.333	-0.008
-309.910	-60.123	-0.061	0.026
-308.895	-200.000	0.030	0.375
-307.880	-59.633	-0.382	0.163
-306.866	-200.000	-0.033	-0.157
-305.851	272.037	0.048	-0.085
-304.837	367.876	-0.067	0.135
-303.822	66.274	0.124	0.125
-302.807	-112.355	0.109	-0.022
-301.793	197.784	0.183	-0.278
-300.778	-129.510	-0.114	-0.016
-299.764	-200.000	0.028	-0.341
-298.749	-42.107	0.271	0.138
-297.735	800.000	-0.121	0.362
-296.720	177.891	-0.174	-0.253
-295.705	110.900	-0.093	-0.112
-294.691	-200.000	0.039	-0.217
-293.676	-200.000	-0.029	-0.245
-292.662	474.761	0.093	-0.210
-291.647	121.340	0.183	0.228
-290.632	151.351	0.103	-0.140
-289.618	-200.000	-0.012	0.383
-288.603	-98.397	0.192	-0.049
-287.589	491.646	0.198	0.453
-286.574	-93.907	-0.247	0.068
-285.559	-200.000	-0.016	-0.140
-284.545	-57.389	-0.123	0.054
-283.530	-200.000	0.081	0.421
-282.516	-200.000	-0.012	0.061
-281.501	346.718	0.039	-0.076
-280.486	21.288	0.234	0.189
-279.472	-136.917	-0.225	0.026
-278.457	2.845	0.080	0.058
-277.443	-116.787	-0.089	0.016
-276.428	-3.011	0.090	-0.063
-275.413	131.057	-0.150	0.192
-274.399	-53.165	0.094	0.043
-273.384	145.838	0.138	0.184
-272.370	-58.212	-0.155	-0.067
-271.355	187.830	0.154	-0.229
-270.340	-77.705	0.394	0.136
-269.326	-200.000	-0.007	-0.197
-268.311	-86.546	0.209	-0.064
-267.297	42.074	-0.142	-0.128
-266.282	135.241	-0.101	-0.131
-265.267	-101.232	0.114	0.028
-264.253	-200.000	0.073	-0.482
-263.238	205.714	-0.179	0.277
-262.224	-200.000	0.054	-0.240
-261.209	114.872	-0.243	-0.295
-260.195	21.048	-0.259	0.209
-259.180	800.000	-0.093	-0.278
-258.165	-59.421	0.106	-0.045
-257.151	-200.000	0.021	-0.136
-256.136	-5.593	-0.098	-0.067
-255.122	-71.791	0.099	0.037
-254.107	31.466	0.046	-0.040
-253.092	-200.000	-0.085	0.435
-252.078	421.101	-0.081	-0.173
-251.063	-176.037	0.173	-0.005
-250.049	245.336	-0.132	-0.222
-249.034	292.049	-0.009	-0.016
-248.019	542.000	0.083	-0.198
-247.005	14.547	-0.054	-0.042
-245.990	-171.006	0.235	0.008
-244.976	-30.702	0.146	0.082
-243.961	-71.215	-0.189	-0.070
-242.946	-78.999	0.468	0.159
-241.932	-160.601	0.188	-0.010
-240.917	-86.323	0.119	0.037
-239.903	327.432	0.099	0.189
-238.888	-76.909	0.135	0.047
-237.873	-200.000	0.023	-0.325
-236.859	-200.000	-0.011	0.049
-235.844	-136.919	0.194	-0.022
-234.830	-122.917	-0.213	-0.034
-233.815	182.557	-0.049	-0.072
-232.800	443.995	0.100	0.218
-231.786	-200.000	0.057	-0.595
-230.771	310.780	-0.117	-0.218
-229.757	-200.000	-0.004	0.052
-228.742	226.346	0.161	0.260
-227.727	800.000	-0.135	0.495
-226.713	-68.518	0.062	-0.024
-225.698	-14.231	-0.188	0.120
-224.684	27.177	-0.218	0.182
-223.669	-200.000	-0.030	0.202
-222.655	263.254	-0.037	0.064
-221.640	130.642	-0.046	-0.059
-220.625	-138.711	-0.391	0.042
-219.611	296.639	-0.069	-0.126
-218.596	800.000	-0.066	-0.196
-217.582	126.430	0.124	-0.157
-216.567	125.319	-0.025	0.031
-215.552	-200.000	-0.002	0.022
-214.538	-67.422	-0.171	0.067
-213.523	-165.059	0.164	0.007
-212.509	-134.077	-0.355	0.044
-211.494	15.345	-0.399	0.311
-210.479	-94.657	-0.179	-0.048
-209.465	-19.523	-0.335	0.206
-208.450	-200.000	-0.005	-0.366
-207.436	-200.000	-0.000	0.134
-206.421	54.475	-0.046	0.044
-205.406	-200.000	0.056	-0.274
-204.392	-64.349	0.053	-0.021
-203.377	7.277	-0.282	0.209
-202.363	70.405	-0.153	0.158
-201.348	-200.000	-0.018	0.130
-200.333	174.756	0.093	0.134
-199.319	-200.000	0.044	-0.338
-198.304	-75.955	0.062	-0.022
-197.290	-200.000	0.028	-0.468
-196.275	-119.139	0.453	-0.079
-195.260	-200.000	-0.022	-0.209
-194.246	-139.219	0.235	-0.025
-193.231	-67.247	0.048	-0.019
-192.217	-154.778	-0.329	-0.022
-191.202	800.000	0.116	0.322
-190.187	340.360	-0.032	-0.062
-189.173	-200.000	0.001	-0.074
-188.158	800.000	-0.154	0.462
-187.144	751.446	0.104	0.278
-186.129	776.245	-0.112	-0.305
-185.114	-200.000	0.007	0.166
-184.100	315.917	-0.225	0.421
-183.085	-200.000	-0.005	0.076
-182.071	-52.145	0.267	0.123
-181.056	-200.000	0.006	0.227
-180.042	58.381	0.072	-0.070
-179.027	-47.943	-0.146	-0.070
-178.012	-116.386	0.113	0.021
-176.998	-136.204	-0.121	0.014
-175.983	-35.143	-0.289	0.156
-174.969	-200.000	-0.052	-0.256
-173.954	-180.074	-0.171	0.004
-172.939	167.613	-0.085	0.120
-171.925	-92.047	0.264	0.074
-170.910	-200.000	0.030	0.203
-169.896	376.221	-0.064	-0.130
-168.881	137.912	0.253	-0.329
-167.866	80.827	0.191	-0.205
-166.852	58.003	-0.009	0.008
-165.837	293.695	-0.115	0.209
-164.823	24.162	-0.175	-0.144
-163.808	-142.075	-0.363	0.036
-162.793	184.696	0.260	-0.383
-161.779	-54.267	0.294	0.132
-160.764	400.204	0.176	0.366
-159.750	-118.673	-0.190	-0.033
-158.735	-110.425	-0.200	-0.041
-157.720	222.853	-0.286	0.458
-156.706	526.229	-0.122	-0.285
-155.691	104.582	0.306	-0.357
-154.677	318.986	0.128	-0.240
-153.662	-14.834	-0.204	0.130
-152.647	104.865	-0.098	-0.115
-151.633	417.026	-0.118	0.251
-150.618	460.178	0.184	0.407
-149.604	-120.807	0.191	0.032
-148.589	-200.000	-0.009	0.152
-147.574	-200.000	0.009	0.178
-146.560	-140.558	0.513	0.053
-145.545	-200.000	0.016	0.118
-144.531	213.276	-0.188	0.295
-143.516	-5.072	0.242	0.165
-142.502	800.000	0.036	0.106
-141.487	-39.144	0.315	-0.164
-140.472	-48.142	0.166	-0.080
-139.458	-69.801	-0.280	-0.106
-138.443	-53.709	0.195	0.088
-137.429	-54.390	0.151	-0.068
-136.414	561.957	-0.143	0.343
-135.399	-200.000	-0.035	-0.447
-134.385	800.000	-0.160	-0.462
-133.370	800.000	-0.043	0.173
-132.356	285.240	-0.128	-0.229
-131.341	82.277	0.148	-0.159
-130.326	800.000	0.077	0.244
-129.312	-67.798	-0.088	0.034
-128.297	16.989	-0.095	-0.074
-127.283	79.826	0.105	-0.111
-126.268	-200.000	-0.005	0.088
-125.253	380.209	-0.076	-0.154
-124.239	-63.067	-0.138	-0.056
-123.224	-200.000	-0.003	-0.142
-122.210	344.187	0.159	-0.309
-121.195	-84.542	0.176	-0.055
-120.180	-125.333	-0.169	-0.026
-119.166	-200.000	-0.049	0.273
-118.151	37.323	0.181	0.159
-117.137	-19.978	0.118	-0.072
-116.122	164.890	-0.125	-0.175
-115.107	408.382	0.045	-0.095
-114.093	264.900	0.144	-0.249
-113.078	18.039	-0.114	-0.090
-112.064	800.000	0.096	0.348
-111.049	140.197	0.390	-0.509
-110.034	-28.457	-0.103	-0.059
-109.020	-94.224	0.458	0.124
-108.005	-150.590	0.123	0.009
-106.991	-162.512	-0.217	-0.011
-105.976	-79.110	0.347	0.117
-104.962	139.336	0.149	0.194
-103.947	-200.000	-0.010	-0.285
-102.932	-200.000	-0.049	-0.315
-101.918	800.000	-0.073	0.281
-100.903	57.574	-0.224	-0.217
-99.889	28.957	-0.100	0.084
-98.874	-57.512	0.527	0.229
-97.859	298.226	-0.080	0.145
-96.845	187.549	-0.154	-0.228
-95.830	-45.289	0.243	0.119
-94.816	39.855	0.086	-0.076
-93.801	-53.459	-0.047	0.021
-92.786	53.470	0.194	0.184
-91.772	800.000	0.050	0.174
-90.757	120.769	0.311	-0.383
-89.743	-47.637	-0.122	-0.059
-88.728	458.366	0.089	0.195
-87.713	7.059	0.383	0.283
-86.699	-50.148	-0.201	-0.094
-85.684	-23.443	-0.219	0.130
-84.670	197.378	0.096	-0.145
-83.655	-129.638	-0.109	-0.015
-82.640	-76.624	0.211	-0.073
-81.626	-31.666	-0.253	0.141
-80.611	258.235	0.080	0.136
-79.597	139.308	0.118	0.154
-78.582	800.000	0.061	-0.183
-77.567	420.334	-0.154	-0.326
-76.553	-200.000	-0.041	0.222
-75.538	-57.196	0.405	-0.176
-74.524	-200.000	-0.046	-0.215
-73.509	-148.991	-0.130	0.010
-72.494	94.343	-0.207	-0.233
-71.480	800.000	-0.074	0.223
-70.465	73.438	0.231	0.239
-69.451	-97.910	-0.294	-0.075
-68.436	800.000	0.120	-0.403
-67.422	17.860	-0.214	-0.169
-66.407	91.027	0.118	-0.131
-65.392	181.847	-0.075	0.109
-64.378	-123.840	-0.664	0.104
-63.363	157.298	0.126	-0.172
-62.349	-19.931	-0.266	0.162
-61.334	172.502	-0.732	-1.040
-60.319	208.266	0.196	0.303
-59.305	154.595	-0.576	-0.782
-58.290	629.882	0.386	0.965
-57.276	800.000	0.568	1.932
-56.261	-200.000	97.017	593.687
-55.246	535.839	1381.493	3237.693
-54.232	159.179	2555.775	3509.991
-53.217	102.878	2296.659	2655.996
-52.203	38.406	2058.630	1811.738
-51.188	33.522	1973.430	1693.187
-50.173	31.963	1955.139	1663.622
-49.159	46.908	2005.213	1840.770
-48.144	48.339	2023.865	1870.687
-47.130	34.107	1986.049	1709.000
-46.115	31.862	1975.125	1679.453
-45.100	31.763	1972.428	1676.206
-44.086	31.642	1970.034	1673.022
-43.071	31.608	1967.474	1670.484
-42.057	31.620	1964.990	1668.414
-41.042	31.741	1963.280	1667.970
-40.027	31.733	1961.026	1665.916
-39.013	31.727	1959.275	1664.313
-37.998	31.765	1957.432	1663.021
-36.984	31.732	1955.981	1661.432
-35.969	31.728	1954.000	1659.640
-34.954	31.762	1952.381	1658.502
-33.940	31.758	1950.637	1656.924
-32.925	31.855	1948.661	1656.029
-31.911	31.762	1947.560	1654.213
-30.896	31.787	1945.573	1652.678
-29.881	31.863	1944.058	1651.992
-28.867	31.834	1942.848	1650.648
-27.852	31.821	1941.041	1648.929
-26.838	31.802	1938.904	1646.887
-25.823	31.835	1937.254	1645.702
-24.809	31.881	1934.895	1644.038
-23.794	31.814	1933.688	1642.360
-22.779	31.779	1931.927	1640.492
-21.765	31.811	1931.009	1639.935
-20.750	31.837	1928.758	1638.178
-19.736	31.826	1927.022	1636.545
-18.721	31.822	1925.460	1635.120
-17.706	31.784	1924.226	1633.676
-16.692	31.845	1922.591	1632.752
-15.677	31.780	1920.951	1630.729
-14.663	31.861	1919.401	1630.050
-13.648	31.946	1917.695	1629.277
-12.633	31.822	1916.669	1627.264
-11.619	31.829	1915.447	1626.225
-10.604	31.864	1913.889	1625.138
-9.590	31.851	1912.753	1623.999
-8.575	31.888	1911.314	1623.032
-7.560	31.805	1910.272	1621.369
-6.546	31.881	1908.361	1620.340
-5.531	31.905	1907.150	1619.449
-4.517	31.775	1906.506	1617.720
-3.502	31.798	1905.186	1616.731
-2.487	31.832	1903.642	1615.647
-1.473	31.794	1903.195	1614.877
-0.458	31.823	1898.270	1610.882
0.556	29.506	1878.552	1582.089
1.571	25.037	1858.688	1527.231
2.586	21.033	1880.407	1510.346
3.600	19.963	1915.890	1529.259
4.615	19.714	1911.078	1523.094
5.629	15.348	1811.276	1406.886
6.644	6.087	1691.126	1240.612
7.659	0.612	1652.188	1169.627
8.673	0.151	1648.569	1163.394
9.688	0.114	1646.997	1161.902
10.702	0.062	1645.977	1160.677
11.717	-0.117	1643.145	1157.199
12.731	0.518	1642.586	1161.590
13.746	7.160	1657.224	1223.283
14.761	15.600	1673.070	1300.448
15.775	17.832	1675.405	1319.429
16.790	17.021	1672.173	1310.502
17.804	15.797	1669.271	1298.669
18.819	14.810	1666.041	1288.438
19.834	14.319	1663.246	1282.385
20.848	14.047	1662.061	1279.262
21.863	13.723	1660.361	1275.346
22.877	13.491	1658.823	1272.273
23.892	13.205	1657.166	1268.694
24.907	13.145	1656.426	1267.553
25.921	13.155	1655.107	1266.507
26.936	13.171	1654.040	1265.702
27.950	13.143	1653.217	1264.747
28.965	13.216	1652.579	1264.703
29.980	13.295	1652.043	1264.789
30.994	13.213	1651.718	1263.800
32.009	13.363	1650.215	1263.685
33.023	13.387	1649.362	1263.101
34.038	13.415	1648.220	1262.330
35.053	13.451	1647.277	1261.773
36.067	13.338	1646.590	1260.270
37.082	13.368	1645.004	1259.170
38.096	13.342	1644.311	1258.336
39.111	13.359	1643.444	1257.691
40.126	13.355	1642.737	1257.008
41.140	13.343	1641.926	1256.186
42.155	13.385	1639.810	1254.771
43.169	13.125	1639.045	1252.101
44.184	13.130	1638.454	1251.581
45.199	13.155	1636.938	1250.503
46.213	13.142	1635.787	1249.410
47.228	13.208	1634.336	1248.692
48.242	13.193	1633.156	1247.567
49.257	13.212	1632.449	1247.059
50.271	13.201	1631.406	1246.072
51.286	13.288	1629.882	1245.449
52.301	13.317	1628.034	1244.150
53.315	13.244	1627.132	1242.800
54.330	13.229	1626.025	1241.728
55.344	13.252	1623.550	1239.903
56.359	13.225	1621.996	1238.402
57.374	13.189	1621.258	1237.459
58.388	13.190	1620.095	1236.474
59.403	13.220	1618.345	1235.253
60.417	13.109	1617.753	1233.863
61.432	13.069	1616.465	1232.474
62.447	13.115	1614.947	1231.543
63.461	13.076	1613.802	1230.274
64.476	13.014	1612.988	1229.085
65.490	12.982	1611.933	1227.936
66.505	12.977	1610.420	1226.636
67.520	13.038	1609.205	1226.050
68.534	13.030	1608.424	1225.292
69.549	13.107	1607.165	1224.796
70.563	13.121	1606.079	1223.959
71.578	13.157	1604.614	1222.999
72.593	12.984	1604.006	1221.148
73.607	12.966	1602.423	1219.706
74.622	13.007	1601.276	1219.024
75.636	13.016	1600.335	1218.271
76.651	13.002	1599.577	1217.478
77.666	12.983	1598.920	1216.732
78.680	12.993	1597.574	1215.677
79.695	12.951	1597.043	1214.854
80.709	12.998	1596.204	1214.454
81.724	13.104	1595.113	1214.298
82.739	13.018	1594.324	1212.953
83.753	13.121	1593.067	1212.646
84.768	13.188	1591.863	1212.116
85.782	13.292	1591.415	1212.430
86.797	13.241	1590.728	1211.425
87.812	13.279	1589.258	1210.481
88.826	13.267	1588.055	1209.366
89.841	13.191	1586.757	1207.717
90.855	13.227	1585.721	1207.080
91.870	13.217	1585.046	1206.387
92.884	13.264	1584.154	1205.946
93.899	13.246	1582.778	1204.658
94.914	13.406	1581.606	1204.830
95.928	13.356	1580.377	1203.420
96.943	13.325	1579.189	1202.183
97.957	13.339	1577.892	1201.194
98.972	13.319	1576.366	1199.776
99.987	13.289	1574.832	1198.286
101.001	13.316	1573.361	1197.260
102.016	13.317	1572.018	1196.140
103.030	13.261	1570.471	1194.448
104.045	13.270	1569.675	1193.806
105.060	13.313	1568.044	1192.769
106.074	13.336	1566.208	1191.431
107.089	13.279	1565.017	1190.011
108.103	13.132	1563.754	1187.886
109.118	13.135	1562.307	1186.707
110.133	13.114	1560.922	1185.398
111.147	13.051	1559.971	1184.117
112.162	13.065	1558.229	1182.794
113.176	13.082	1557.196	1182.022
114.191	13.228	1555.638	1181.780
115.206	13.194	1553.999	1180.186
116.220	13.204	1553.092	1179.464
117.235	13.190	1552.102	1178.509
118.249	13.186	1550.853	1177.427
119.264	13.128	1549.712	1176.049
120.279	13.181	1548.220	1175.190
121.293	13.085	1546.625	1173.193
122.308	13.176	1545.202	1172.652
123.322	13.189	1543.397	1171.271
124.337	13.090	1542.186	1169.546
125.352	13.185	1540.801	1169.067
126.366	13.103	1539.749	1167.583
127.381	13.164	1538.542	1166.998
128.395	13.143	1537.683	1166.097
129.410	13.089	1536.816	1164.951
130.424	13.162	1535.357	1164.260
131.439	13.154	1534.102	1163.149
132.454	13.210	1532.490	1162.218
133.468	13.280	1530.764	1161.295
134.483	13.310	1529.369	1160.345
135.497	13.283	1528.479	1159.380
136.512	13.202	1527.099	1157.664
137.527	13.268	1525.580	1156.867
138.541	13.305	1524.140	1155.934
139.556	13.285	1522.694	1154.594
140.570	13.286	1521.885	1153.887
141.585	13.373	1520.231	1153.135
142.600	13.417	1519.254	1152.601
143.614	13.416	1517.687	1151.302
144.629	13.418	1516.982	1150.679
145.643	13.505	1515.304	1149.912
146.658	13.523	1514.199	1149.090
147.673	13.519	1512.758	1147.871
148.687	13.466	1511.004	1146.073
149.702	13.439	1509.830	1144.893
150.716	13.404	1508.057	1143.202
151.731	13.359	1507.104	1142.073
152.746	13.323	1505.887	1140.801
153.760	13.445	1503.761	1139.925
154.775	13.450	1502.894	1139.204
155.789	13.474	1502.084	1138.658
156.804	13.433	1500.589	1137.141
157.819	13.484	1499.217	1136.347
158.833	13.479	1498.352	1135.559
159.848	13.490	1497.153	1134.625
160.862	13.622	1496.076	1134.613
161.877	13.589	1494.345	1132.976
162.892	13.614	1493.437	1132.358
163.906	13.448	1492.192	1130.181
164.921	13.608	1490.441	1129.846
165.935	13.516	1489.770	1128.607
166.950	13.592	1488.788	1128.282
167.964	13.589	1487.804	1127.413
168.979	13.521	1486.670	1125.995
169.994	13.602	1485.652	1125.672
171.008	13.544	1484.561	1124.353
172.023	13.516	1483.855	1123.527
173.037	13.687	1481.915	1123.116
174.052	13.638	1480.976	1121.979
175.067	13.773	1480.144	1122.160
176.081	13.687	1478.884	1120.522
177.096	13.695	1477.594	1119.501
178.110	13.565	1476.490	1117.692
179.125	13.665	1475.223	1117.304
180.140	13.583	1474.285	1115.940
181.154	13.683	1473.455	1115.890
182.169	13.581	1472.407	1114.311
183.183	13.744	1470.684	1114.006
184.198	13.743	1469.466	1112.977
185.213	13.733	1469.099	1112.531
186.227	13.765	1468.012	1111.824
187.242	13.804	1466.475	1110.826
188.256	13.710	1465.848	1109.622
189.271	13.914	1464.507	1109.872
190.286	13.823	1463.746	1108.589
191.300	13.844	1462.460	1107.657
192.315	13.763	1461.368	1106.189
193.329	13.677	1459.942	1104.442
194.344	13.647	1458.911	1103.367
195.359	13.692	1457.724	1102.667
196.373	13.775	1456.919	1102.514
197.388	13.756	1456.092	1101.664
198.402	13.862	1454.890	1101.363
199.417	14.026	1453.377	1101.203
200.432	14.020	1452.376	1100.308
201.446	14.113	1451.295	1100.009
202.461	14.100	1450.367	1099.121
203.475	14.042	1449.680	1098.117
204.490	14.099	1448.155	1097.244
205.504	14.125	1447.446	1096.782
206.519	14.034	1446.091	1095.056
207.534	14.107	1444.735	1094.412
208.548	13.998	1443.880	1092.956
209.563	14.034	1442.825	1092.295
210.577	14.063	1442.059	1091.805
211.592	13.958	1441.475	1090.582
212.607	14.100	1440.325	1090.542
213.621	14.194	1439.313	1090.296
214.636	14.207	1438.571	1089.723
215.650	14.132	1437.830	1088.574
216.665	14.149	1436.988	1087.954
217.680	14.105	1436.072	1086.877
218.694	14.259	1435.161	1087.094
219.709	14.322	1434.230	1086.704
220.723	14.238	1433.402	1085.433
221.738	14.197	1432.970	1084.742
222.753	14.215	1431.944	1083.989
223.767	14.254	1430.451	1083.020
224.782	14.306	1429.249	1082.351
225.796	14.341	1428.727	1082.084
226.811	14.373	1427.716	1081.432
227.826	14.439	1426.968	1081.199
228.840	14.380	1426.293	1080.206
229.855	14.403	1425.442	1079.618
230.869	14.414	1424.176	1078.636
231.884	14.407	1422.947	1077.563
232.899	14.316	1422.454	1076.505
233.913	14.359	1421.147	1075.700
234.928	14.300	1419.785	1074.191
235.942	14.285	1418.687	1073.166
236.957	14.240	1417.933	1072.212
237.972	14.283	1416.457	1071.276
238.986	14.344	1415.163	1070.595
240.001	14.409	1414.203	1070.197
241.015	14.366	1413.477	1069.272
242.030	14.455	1412.045	1068.669
243.045	14.475	1411.298	1068.132
244.059	14.515	1409.988	1067.304
245.074	14.452	1409.584	1066.504
246.088	14.553	1408.392	1066.153
247.103	14.522	1408.035	1065.590
248.117	14.567	1407.047	1065.032
249.132	14.629	1406.040	1064.570
250.147	14.648	1405.725	1064.362
251.161	14.605	1405.761	1064.018
252.176	14.744	1404.476	1063.836
253.190	14.866	1403.698	1063.929
254.205	14.944	1402.806	1063.658
255.220	14.861	1401.880	1062.334
256.234	14.960	1401.263	1062.399
257.249	14.989	1400.417	1061.848
258.263	14.880	1399.755	1060.560
259.278	14.848	1398.708	1059.472
260.293	14.932	1397.559	1059.039
261.307	14.970	1397.097	1058.839
262.322	15.033	1396.105	1058.389
263.336	15.042	1395.656	1058.015
264.351	15.083	1394.141	1057.032
265.366	15.089	1393.392	1056.404
266.380	15.164	1392.471	1056.085
267.395	15.211	1391.448	1055.517
268.409	15.179	1390.743	1054.684
269.424	15.081	1390.002	1053.415
270.439	14.964	1389.183	1051.963
271.453	15.106	1387.855	1051.755
272.468	15.177	1386.723	1051.249
273.482	15.145	1386.379	1050.696
274.497	15.115	1385.585	1049.816
275.512	15.008	1384.220	1048.015
276.526	15.100	1383.603	1048.032
277.541	15.183	1382.782	1047.836
278.555	15.095	1381.704	1046.378
279.570	15.161	1380.716	1045.946
280.585	15.189	1379.703	1045.262
281.599	15.154	1379.606	1044.877
282.614	15.302	1378.584	1044.937
283.628	15.244	1377.249	1043.467
284.643	15.170	1376.568	1042.398
285.657	15.309	1375.234	1042.160
286.672	15.170	1374.599	1040.728
287.687	15.238	1373.516	1040.233
288.701	15.333	1371.997	1039.585
289.716	15.366	1371.271	1039.146
290.730	15.217	1371.157	1038.041
291.745	15.226	1370.218	1037.294
292.760	15.301	1368.907	1036.677
293.774	15.388	1367.795	1036.277
294.789	15.339	1366.660	1035.023
295.803	15.396	1365.993	1034.780
296.818	15.506	1365.405	1034.921
297.833	15.422	1364.710	1033.782
298.847	15.454	1363.108	1032.678
299.862	15.415	1362.106	1031.589
300.876	15.409	1361.299	1030.846
301.891	15.489	1360.037	1030.293
302.906	15.526	1359.871	1030.299
303.920	15.599	1358.777	1029.828
304.935	15.586	1358.174	1029.198
305.949	15.623	1357.673	1028.960
306.964	15.701	1356.665	1028.582
307.979	15.660	1355.646	1027.463
308.993	15.629	1354.977	1026.680
310.008	15.608	1354.210	1025.879
311.022	15.712	1352.873	1025.408
312.037	15.724	1351.778	1024.558
313.052	15.706	1350.651	1023.507
314.066	15.755	1349.843	1023.098
315.081	15.726	1348.946	1022.157
316.095	15.768	1347.684	1021.360
317.110	15.637	1346.659	1019.699
318.125	15.652	1345.582	1018.888
319.139	15.747	1344.697	1018.699
320.154	15.759	1343.810	1018.012
321.168	15.730	1343.075	1017.192
322.183	15.644	1342.112	1015.851
323.197	15.633	1341.242	1015.037
324.212	15.855	1340.041	1015.378
325.227	15.767	1339.788	1014.566
326.241	15.800	1338.458	1013.667
327.256	15.751	1337.838	1012.813
328.270	15.849	1336.754	1012.489
329.285	15.719	1336.269	1011.254
330.300	15.813	1335.244	1010.950
331.314	15.832	1334.187	1010.179
332.329	15.795	1333.443	1009.299
333.343	15.788	1332.907	1008.765
334.358	15.842	1331.819	1008.174
335.373	15.841	1331.128	1007.555
336.387	15.871	1330.304	1007.023
337.402	15.930	1329.130	1006.401
338.416	15.884	1328.773	1005.762
339.431	16.016	1328.108	1005.960
340.446	16.055	1327.650	1005.757
341.460	16.013	1326.742	1004.731
342.475	16.062	1325.616	1004.078
343.489	16.174	1324.893	1004.108
344.504	16.160	1323.653	1002.998
345.519	16.204	1322.762	1002.493
346.533	16.258	1322.117	1002.242
347.548	16.165	1321.239	1000.935
348.562	16.259	1320.458	1000.808
349.577	16.293	1319.756	1000.391
350.592	16.222	1319.235	999.489
351.606	16.265	1317.705	998.493
352.621	16.209	1316.595	997.232
353.635	16.218	1315.575	996.428
354.650	16.180	1314.888	995.595
355.665	16.281	1313.841	995.310
356.679	16.103	1312.764	993.354
357.694	16.181	1311.808	993.001
358.708	16.230	1310.971	992.571
359.723	16.232	1309.573	991.436
360.738	16.317	1308.646	991.144
361.752	16.399	1307.386	990.585
362.767	16.378	1306.677	989.837
363.781	16.361	1305.923	989.078
364.796	16.206	1305.551	987.800
365.810	16.439	1304.235	988.078
366.825	16.417	1303.807	987.542
367.840	16.488	1303.028	987.275
368.854	16.593	1301.906	986.954
369.869	16.622	1301.793	986.945
370.883	16.586	1301.384	986.340
371.898	16.634	1299.925	985.428
372.913	16.561	1299.477	984.574
373.927	16.498	1298.881	983.673
374.942	16.619	1297.796	983.466
375.956	16.649	1297.014	982.957
376.971	16.609	1295.856	981.765
377.986	16.665	1294.944	981.311
379.000	16.726	1294.438	981.193
380.015	16.688	1294.139	980.662
381.029	16.644	1293.362	979.729
382.044	16.725	1292.844	979.717
383.059	16.745	1291.922	979.049
384.073	16.873	1290.973	978.982
385.088	16.825	1290.777	978.468
386.102	16.727	1289.708	977.007
387.117	16.822	1288.996	976.930
388.132	16.712	1288.481	975.819
389.146	16.745	1287.577	975.240
390.161	16.876	1286.244	974.896
391.175	16.806	1285.915	974.159
392.190	16.723	1284.988	972.894
393.205	16.772	1284.080	972.400
394.219	16.911	1283.474	972.652
395.234	16.883	1282.133	971.390
396.248	16.905	1280.789	970.410
397.263	16.900	1279.558	969.363
398.278	16.841	1278.074	967.819
399.292	16.845	1277.110	967.022
400.307	16.848	1276.107	966.197
401.321	16.808	1275.271	965.250
402.336	16.842	1274.088	964.464
403.350	16.803	1273.346	963.593
404.365	16.817	1272.616	963.033
405.380	16.850	1271.545	962.330
406.394	16.920	1270.775	962.059
407.409	16.924	1270.079	961.465
408.423	16.907	1269.547	960.881
409.438	17.030	1269.160	961.202
410.453	17.114	1268.055	960.754
411.467	17.031	1267.528	959.802
412.482	17.075	1267.046	959.600
413.496	17.161	1266.111	959.292
414.511	17.304	1265.019	959.189
415.526	17.240	1264.306	958.203
416.540	17.236	1263.866	957.760
417.555	17.357	1263.061	957.748
418.569	17.285	1262.645	956.939
419.584	17.315	1262.318	956.780
420.599	17.281	1261.445	955.842
421.613	94.297	1348.785	1462.000
422.628	91.809	1361.471	1462.097
