DTS Sentinel unit serial number:	SN413079Multiplexer serial number:	ORYXHardware model number:	OX4-SRSoftware version number:	ORYX F/W v4.00 Oryx Data Collector v3.7.2.0data status	okinstallation	princeton_trtdifferential loss correction	single-endedforward channel	channel 4reverse channel	N/Adate	2019/09/12time	22:29:35forward acquisition time	60.00reverse acquisition time	0.00gamma	496.2192k internal	0.2315k external	0.2315temperature offset calibration	1.0177default loss term (dB/km)	0.3790temperature slope calibration	1.0000multiplexer offset coefficient	1.0000multiplexer slope coefficient	1.0000fibre end	0.00T internal ref (°C)	29.70T ext. ref 1 (°C)	3.73T ext. ref 2 (°C)	24.29length (m)	temperature (°C)	Stokes	anti-Stokes-747.200	-200.000	-0.026	0.143
-746.185	-35.719	-0.370	0.203
-745.171	800.000	0.019	0.072
-744.156	-34.389	-0.187	0.104
-743.142	800.000	0.025	0.071
-742.127	-4.980	-0.093	0.065
-741.112	20.833	0.312	0.256
-740.098	-102.822	-0.449	0.108
-739.083	-144.833	0.347	-0.032
-738.069	-63.138	-0.341	0.142
-737.054	361.370	0.162	0.330
-736.039	87.309	-0.137	0.154
-735.025	41.969	-0.049	0.045
-734.010	793.674	-0.012	0.033
-732.996	106.085	-0.162	-0.195
-731.981	-111.495	-0.339	0.070
-730.966	800.000	-0.033	-0.107
-729.952	171.520	-0.114	-0.166
-728.937	136.523	-0.228	0.301
-727.923	456.329	-0.113	-0.254
-726.908	0.350	-0.140	0.101
-725.894	-103.865	0.081	-0.019
-724.879	113.129	-0.206	-0.253
-723.864	292.232	0.196	0.362
-722.850	-50.959	-0.132	-0.063
-721.835	-200.000	0.007	-0.180
-720.821	-78.923	0.203	0.070
-719.806	800.000	-0.079	-0.268
-718.791	-32.319	-0.218	0.123
-717.777	13.943	-0.078	-0.061
-716.762	140.393	0.153	-0.205
-715.748	-200.000	-0.007	0.040
-714.733	-184.170	-0.166	0.003
-713.718	317.645	-0.055	-0.105
-712.704	-8.395	0.244	-0.166
-711.689	-78.066	0.075	-0.026
-710.675	7.422	0.200	0.151
-709.660	-40.764	-0.075	0.039
-708.645	-24.949	0.137	-0.082
-707.631	-24.676	-0.186	-0.112
-706.616	167.686	-0.091	0.130
-705.602	-200.000	-0.024	-0.156
-704.587	-200.000	0.053	-0.252
-703.572	-121.257	-0.174	-0.029
-702.558	-57.609	0.034	0.015
-701.543	-103.088	-0.195	0.047
-700.529	800.000	0.025	0.103
-699.514	-85.719	0.273	0.086
-698.499	43.595	0.126	-0.116
-697.485	-200.000	-0.002	-0.101
-696.470	-102.020	-0.123	0.030
-695.456	-88.664	0.308	0.093
-694.441	-110.762	0.046	-0.010
-693.426	800.000	0.090	-0.322
-692.412	-200.000	0.001	0.104
-691.397	-24.544	0.136	0.082
-690.383	-136.444	-0.364	-0.043
-689.368	33.102	-0.256	-0.224
-688.354	723.766	0.021	0.058
-687.339	290.955	0.148	-0.272
-686.324	76.881	0.128	0.137
-685.310	-45.395	0.208	-0.104
-684.295	-42.069	0.201	0.104
-683.281	107.337	-0.009	0.011
-682.266	-200.000	0.001	0.012
-681.251	-200.000	-0.020	0.217
-680.237	762.760	0.133	0.364
-679.222	-176.223	-0.353	-0.009
-678.208	95.323	0.072	0.083
-677.193	800.000	-0.056	-0.201
-676.178	276.242	0.095	0.171
-675.164	-123.312	0.185	0.030
-674.149	-88.446	0.285	-0.086
-673.135	233.241	-0.067	0.111
-672.120	-123.238	0.213	-0.034
-671.105	800.000	0.068	0.286
-670.091	369.047	-0.137	-0.280
-669.076	-62.086	0.408	-0.172
-668.062	-200.000	0.064	0.306
-667.047	49.112	0.287	-0.272
-666.032	83.696	0.053	-0.059
-665.018	-38.808	0.223	-0.119
-664.003	800.000	0.039	-0.133
-662.989	-121.245	-0.252	-0.042
-661.974	-80.125	0.339	-0.115
-660.959	-200.000	0.054	0.316
-659.945	243.699	-0.150	-0.254
-658.930	-26.396	-0.051	0.030
-657.916	46.163	-0.091	0.085
-656.901	-200.000	-0.027	0.198
-655.886	83.723	0.135	-0.149
-654.872	-200.000	0.047	-0.213
-653.857	-47.567	-0.083	0.040
-652.843	-200.000	0.041	0.255
-651.828	-130.998	-0.294	-0.040
-650.814	325.222	0.061	0.117
-649.799	54.197	0.049	-0.048
-648.784	-200.000	0.010	-0.190
-647.770	-200.000	-0.018	-0.457
-646.755	61.468	0.145	-0.146
-645.741	-53.677	-0.009	-0.004
-644.726	-8.942	-0.119	0.080
-643.711	-45.103	0.223	0.112
-642.697	-200.000	0.009	-0.528
-641.682	-200.000	0.052	-0.328
-640.668	23.860	-0.074	0.061
-639.653	248.372	0.138	0.235
-638.638	231.421	0.020	-0.034
-637.624	-84.650	0.061	-0.019
-636.609	-112.175	0.264	0.054
-635.595	6.475	-0.068	-0.051
-634.580	-42.932	-0.124	-0.064
-633.565	51.436	0.064	0.061
-632.551	-73.648	0.358	0.131
-631.536	-128.949	0.262	-0.037
-630.522	301.880	0.123	-0.229
-629.507	-143.214	-0.168	0.016
-628.492	-200.000	0.050	0.251
-627.478	-132.667	-0.109	0.014
-626.463	-60.632	-0.094	0.040
-625.449	-108.392	-0.066	-0.014
-624.434	2.716	0.232	-0.170
-623.419	-200.000	-0.003	0.302
-622.405	-105.207	0.194	0.045
-621.390	-48.024	0.186	-0.091
-620.376	177.016	-0.177	-0.260
-619.361	320.037	-0.095	-0.183
-618.346	-125.715	0.412	-0.063
-617.332	-200.000	-0.012	0.338
-616.317	800.000	0.049	-0.175
-615.303	-200.000	0.004	-0.384
-614.288	322.612	-0.057	-0.109
-613.273	-99.239	0.178	0.045
-612.259	-200.000	-0.061	-0.392
-611.244	-122.326	-0.194	0.032
-610.230	-102.531	0.190	-0.046
-609.215	800.000	-0.029	-0.101
-608.201	-68.116	0.408	-0.160
-607.186	124.941	0.020	-0.025
-606.171	393.016	-0.099	0.208
-605.157	381.952	-0.126	-0.261
-604.142	209.415	0.084	0.132
-603.128	269.724	-0.147	-0.260
-602.113	-24.817	0.163	-0.098
-601.098	800.000	-0.060	-0.247
-600.084	317.058	-0.125	0.238
-599.069	-56.567	-0.127	-0.057
-598.055	11.496	-0.108	0.083
-597.040	800.000	0.073	-0.306
-596.025	24.589	0.106	-0.089
-595.011	800.000	-0.066	0.219
-593.996	-91.708	-0.416	0.119
-592.982	30.991	0.146	0.126
-591.967	800.000	0.010	0.039
-590.952	-103.737	0.065	-0.015
-589.938	181.627	-0.054	-0.080
-588.923	124.361	-0.160	-0.203
-587.909	181.370	0.070	0.103
-586.894	-57.028	-0.402	0.179
-585.879	559.904	-0.103	0.251
-584.865	71.397	0.166	-0.174
-583.850	-109.093	0.053	0.011
-582.836	-89.961	0.233	0.068
-581.821	391.036	-0.112	-0.233
-580.806	800.000	-0.147	-0.445
-579.792	-21.632	-0.215	-0.132
-578.777	-66.414	-0.125	0.050
-577.763	-200.000	-0.014	0.074
-576.748	391.410	-0.092	0.193
-575.733	190.809	-0.323	0.488
-574.719	275.169	-0.015	-0.027
-573.704	-200.000	0.018	0.146
-572.690	157.351	0.258	-0.359
-571.675	67.668	0.119	0.123
-570.661	-0.692	0.319	-0.228
-569.646	800.000	-0.051	0.162
-568.631	-152.236	0.294	-0.021
-567.617	38.919	0.131	0.118
-566.602	373.885	-0.032	0.065
-565.588	-51.227	0.091	0.043
-564.573	365.037	0.050	-0.102
-563.558	24.756	-0.100	-0.083
-562.544	326.463	-0.110	-0.212
-561.529	-3.981	-0.167	-0.117
-560.515	-92.261	-0.140	0.040
-559.500	-200.000	-0.013	0.087
-558.485	240.495	0.160	0.268
-557.471	2.789	-0.142	0.103
-556.456	161.056	-0.188	0.264
-555.442	-53.431	-0.090	0.041
-554.427	-151.803	-0.329	0.024
-553.412	-200.000	-0.182	0.000
-552.398	-200.000	-0.023	-0.329
-551.383	61.828	-0.114	-0.114
-550.369	-180.076	0.054	0.001
-549.354	-128.392	-0.375	-0.054
-548.339	285.506	-0.098	-0.177
-547.325	-94.842	0.171	-0.047
-546.310	-114.428	-0.075	-0.015
-545.296	-200.000	0.032	0.298
-544.281	800.000	-0.098	-0.346
-543.266	97.647	-0.088	0.102
-542.252	-131.142	-0.344	-0.046
-541.237	800.000	0.066	0.255
-540.223	92.527	-0.115	0.130
-539.208	-200.000	-0.006	-0.461
-538.193	-200.000	0.005	-0.137
-537.179	177.377	0.119	0.174
-536.164	-200.000	0.013	-0.070
-535.150	-55.696	0.214	0.096
-534.135	285.485	-0.087	0.158
-533.121	-0.616	0.185	-0.132
-532.106	-97.469	-0.266	0.070
-531.091	-200.000	0.048	0.323
-530.077	-55.535	0.287	0.129
-529.062	800.000	0.047	-0.149
-528.048	-154.352	0.118	0.008
-527.033	22.200	-0.129	-0.106
-526.018	-97.700	0.150	0.039
-525.004	-127.971	-0.465	0.067
-523.989	-1.992	0.214	-0.151
-522.975	184.833	-0.248	-0.369
-521.960	-150.346	-0.427	0.033
-520.945	-21.976	-0.074	0.045
-519.931	-200.000	-0.011	-0.059
-518.916	-83.072	0.270	-0.087
-517.902	-22.881	-0.264	-0.160
-516.887	132.367	-0.127	-0.164
-515.872	-200.000	-0.093	0.617
-514.858	251.265	0.080	0.136
-513.843	116.855	0.059	0.073
-512.829	-34.540	0.308	0.169
-511.814	-34.781	0.174	-0.095
-510.799	-200.000	-0.001	-0.101
-509.785	800.000	0.022	0.094
-508.770	7.400	0.187	0.140
-507.756	21.298	0.288	-0.235
-506.741	-92.485	-0.205	0.058
-505.726	-200.000	0.071	0.349
-504.712	82.795	0.078	0.085
-503.697	800.000	0.021	0.066
-502.683	800.000	0.092	0.402
-501.668	-90.328	0.173	-0.051
-500.653	376.214	0.122	0.250
-499.639	122.295	0.111	-0.140
-498.624	800.000	-0.064	-0.190
-497.610	63.870	-0.052	-0.052
-496.595	-58.583	-0.183	-0.080
-495.581	800.000	0.066	-0.195
-494.566	800.000	0.069	0.214
-493.551	-200.000	0.029	0.312
-492.537	80.903	0.036	0.038
-491.522	20.208	0.199	-0.161
-490.508	-130.537	-0.359	0.049
-489.493	308.642	0.085	0.160
-488.478	800.000	0.130	0.403
-487.464	114.059	0.272	-0.332
-486.449	-124.835	-0.368	-0.057
-485.435	-102.780	-0.176	0.042
-484.420	351.934	0.063	0.125
-483.405	617.758	-0.072	-0.180
-482.391	-161.046	-0.167	0.009
-481.376	-7.572	0.231	-0.157
-480.362	-200.000	0.001	0.101
-479.347	-137.833	-0.171	-0.019
-478.332	366.495	0.036	-0.072
-477.318	93.645	0.082	0.093
-476.303	-126.639	0.234	-0.035
-475.289	734.299	0.011	-0.029
-474.274	-200.000	0.029	-0.189
-473.259	-37.347	-0.222	0.119
-472.245	116.645	-0.309	0.380
-471.230	182.042	-0.182	-0.269
-470.216	-200.000	-0.019	-0.255
-469.201	800.000	-0.022	0.075
-468.186	-57.869	-0.350	-0.153
-467.172	-200.000	-0.026	-0.324
-466.157	133.648	-0.011	-0.014
-465.143	-200.000	-0.002	0.128
-464.128	26.015	-0.149	0.125
-463.113	97.461	-0.058	0.066
-462.099	-200.000	0.023	-0.341
-461.084	146.357	0.028	-0.038
-460.070	-88.734	0.060	0.018
-459.055	-200.000	0.030	-0.257
-458.040	-159.725	-0.046	-0.003
-457.026	28.388	0.182	-0.154
-456.011	-200.000	0.000	0.223
-454.997	800.000	0.062	0.202
-453.982	-32.282	0.266	-0.149
-452.968	108.885	0.075	-0.090
-451.953	-70.188	-0.328	0.125
-450.938	-66.920	0.074	0.029
-449.924	-126.918	-0.224	-0.033
-448.909	452.917	-0.031	-0.068
-447.895	588.795	0.058	-0.144
-446.880	-200.000	0.034	0.175
-445.865	317.071	0.085	0.162
-444.851	310.647	0.116	-0.217
-443.836	-28.101	0.315	0.182
-442.822	-91.365	-0.272	0.078
-441.807	-31.814	-0.035	-0.020
-440.792	-200.000	0.024	0.443
-439.778	-141.971	-0.161	-0.016
-438.763	-200.000	-0.008	-0.323
-437.749	-105.569	-0.059	0.014
-436.734	-200.000	0.015	-0.067
-435.719	50.956	0.126	-0.119
-434.705	-56.433	-0.034	0.015
-433.690	-200.000	-0.038	-0.228
-432.676	-128.488	-0.151	0.021
-431.661	-200.000	-0.005	-0.086
-430.646	-200.000	0.055	0.305
-429.632	-63.749	0.137	-0.056
-428.617	-9.794	-0.178	0.119
-427.603	-105.818	0.296	0.067
-426.588	216.040	-0.156	0.249
-425.573	-200.000	-0.001	-0.166
-424.559	68.739	0.151	-0.155
-423.544	326.203	0.056	-0.106
-422.530	800.000	-0.058	-0.174
-421.515	-109.879	-0.350	-0.073
-420.500	-153.696	0.270	-0.019
-419.486	35.763	0.264	0.232
-418.471	28.179	0.262	-0.221
-417.457	-65.396	0.258	0.104
-416.442	-62.001	-0.035	0.015
-415.428	331.426	-0.132	-0.255
-414.413	173.799	-0.065	0.094
-413.398	164.742	0.335	0.473
-412.384	-121.796	0.247	-0.041
-411.369	-102.843	-0.182	-0.043
-410.355	40.391	0.210	0.189
-409.340	159.029	0.160	0.222
-408.325	261.113	0.078	-0.135
-407.311	-68.706	-0.183	-0.071
-406.296	420.706	0.070	0.150
-405.282	-43.220	0.152	0.077
-404.267	63.294	-0.061	-0.062
-403.252	-6.737	-0.163	0.111
-402.238	-96.665	0.062	-0.016
-401.223	-63.346	-0.087	-0.036
-400.209	-100.707	-0.340	0.084
-399.194	-200.000	0.008	-0.042
-398.179	118.037	-0.072	-0.089
-397.165	166.888	0.151	-0.214
-396.150	457.609	-0.111	-0.247
-395.136	92.333	0.157	0.177
-394.121	-172.456	-0.128	-0.004
-393.106	13.758	-0.108	0.084
-392.092	-82.387	-0.297	0.096
-391.077	14.004	-0.147	-0.114
-390.063	800.000	0.074	-0.229
-389.048	-0.392	0.168	0.119
-388.033	-200.000	0.043	-0.209
-387.019	263.896	-0.058	0.101
-386.004	311.786	-0.026	-0.049
-384.990	-88.590	-0.293	0.087
-383.975	15.459	-0.271	-0.213
-382.960	370.978	-0.106	0.215
-381.946	800.000	-0.048	0.176
-380.931	-194.382	-0.129	-0.001
-379.917	-200.000	0.027	0.226
-378.902	-60.399	0.416	0.177
-377.888	94.379	-0.154	-0.174
-376.873	-53.304	-0.265	0.121
-375.858	-124.073	0.119	0.019
-374.844	800.000	0.042	-0.182
-373.829	800.000	0.160	0.450
-372.815	-200.000	-0.010	0.266
-371.800	66.724	-0.180	0.182
-370.785	-74.191	0.286	0.103
-369.771	176.081	-0.161	-0.234
-368.756	-67.279	0.233	-0.091
-367.742	15.829	-0.038	0.030
-366.727	-6.597	-0.189	0.129
-365.712	-14.149	-0.235	-0.151
-364.698	800.000	-0.035	-0.117
-363.683	30.271	-0.130	0.111
-362.669	-39.847	0.107	-0.056
-361.654	-130.956	0.080	0.011
-360.639	-81.456	0.428	-0.140
-359.625	800.000	0.120	0.452
-358.610	-65.339	0.064	0.026
-357.596	-44.290	0.312	-0.156
-356.581	-173.515	-0.247	0.007
-355.566	15.607	-0.322	0.252
-354.552	800.000	0.107	0.355
-353.537	-107.878	-0.299	0.065
-352.523	-124.919	-0.045	-0.007
-351.508	-62.281	-0.133	-0.055
-350.493	-56.878	-0.151	-0.067
-349.479	-200.000	0.320	-0.001
-348.464	-200.000	-0.001	-0.080
-347.450	-194.227	0.233	0.002
-346.435	-16.089	-0.397	-0.252
-345.420	800.000	-0.049	0.137
-344.406	-35.132	0.224	0.121
-343.391	-37.829	-0.052	-0.027
-342.377	-200.000	-0.011	-0.076
-341.362	-110.722	0.215	0.044
-340.348	252.832	0.114	-0.194
-339.333	39.348	-0.184	0.164
-338.318	-24.610	0.279	-0.165
-337.304	-89.492	-0.065	0.019
-336.289	-200.000	0.001	0.102
-335.275	-87.354	0.256	0.077
-334.260	239.263	-0.017	0.028
-333.245	-82.217	0.212	0.069
-332.231	21.088	0.106	-0.086
-331.216	-172.183	0.129	0.004
-330.202	203.165	0.279	-0.431
-329.187	385.623	-0.111	0.228
-328.172	-136.179	0.365	-0.043
-327.158	-157.525	-0.377	0.023
-326.143	-200.000	0.020	-0.262
-325.129	-135.481	-0.070	0.008
-324.114	-200.000	-0.049	0.231
-323.099	6.994	0.272	-0.202
-322.085	-110.095	0.078	0.016
-321.070	92.811	0.140	0.157
-320.056	311.390	0.059	0.111
-319.041	11.546	-0.351	-0.268
-318.026	-126.967	0.334	0.049
-317.012	-80.771	-0.248	-0.082
-315.997	159.980	0.051	0.071
-314.983	800.000	0.095	0.273
-313.968	329.617	0.031	0.060
-312.953	611.779	0.099	0.247
-311.939	-156.367	-0.136	-0.008
-310.924	198.201	0.212	0.322
-309.910	769.408	-0.040	-0.108
-308.895	800.000	0.087	0.322
-307.880	5.887	-0.233	-0.172
-306.866	204.607	-0.219	-0.338
-305.851	800.000	0.012	0.034
-304.837	460.578	0.049	-0.108
-303.822	-200.000	-0.005	-0.322
-302.807	-200.000	0.003	0.016
-301.793	-141.297	-0.406	0.041
-300.778	-51.233	0.327	0.152
-299.764	-54.786	-0.399	-0.180
-298.749	87.424	0.078	-0.086
-297.735	51.428	0.141	0.133
-296.720	-168.513	-0.305	-0.012
-295.705	-121.249	0.169	-0.028
-294.691	342.115	-0.049	-0.095
-293.676	679.848	0.072	-0.186
-292.662	-45.868	0.202	-0.099
-291.647	85.322	-0.113	-0.123
-290.632	-0.993	0.172	0.121
-289.618	800.000	-0.120	0.432
-288.603	-200.000	-0.012	0.103
-287.589	-200.000	0.006	0.031
-286.574	-32.053	0.125	-0.070
-285.559	-10.608	-0.302	0.199
-284.545	-113.305	0.050	-0.010
-283.530	344.273	-0.079	-0.154
-282.516	394.294	0.053	0.111
-281.501	-52.517	0.069	-0.032
-280.486	194.270	-0.099	0.149
-279.472	-62.711	0.177	0.073
-278.457	-200.000	-0.009	-0.393
-277.443	184.321	-0.129	-0.190
-276.428	800.000	-0.050	-0.190
-275.413	132.779	0.136	0.174
-274.399	-200.000	-0.024	0.254
-273.384	-21.615	-0.158	0.096
-272.370	-18.275	0.171	-0.107
-271.355	-44.407	0.226	-0.113
-270.340	-81.095	-0.297	0.098
-269.326	55.810	0.283	-0.273
-268.311	-36.681	0.105	-0.056
-267.297	-83.302	-0.280	-0.089
-266.282	12.663	0.142	0.109
-265.267	374.064	0.064	0.130
-264.253	800.000	-0.028	0.085
-263.238	-145.861	-0.092	-0.008
-262.224	-200.000	-0.022	-0.132
-261.209	234.634	-0.096	0.158
-260.195	-167.272	0.080	0.003
-259.180	-133.420	0.216	0.027
-258.165	-99.630	-0.259	-0.065
-257.151	-153.808	-0.253	0.017
-256.136	-179.359	-0.144	-0.003
-255.122	-200.000	0.035	0.162
-254.107	-24.875	0.221	-0.131
-253.092	-200.000	0.188	0.000
-252.078	-200.000	-0.022	0.278
-251.063	-51.232	0.031	-0.014
-250.049	-86.988	0.205	-0.062
-249.034	-200.000	0.022	-0.272
-248.019	67.345	-0.075	-0.076
-247.005	42.418	0.019	-0.017
-245.990	-27.789	0.142	-0.082
-244.976	-137.516	-0.324	-0.036
-243.961	-110.543	0.158	0.032
-242.946	-102.791	-0.170	-0.040
-241.932	-179.730	0.299	-0.006
-240.917	-64.526	-0.194	-0.078
-239.903	-129.262	-0.329	-0.045
-238.888	-200.000	-0.059	0.348
-237.873	292.433	0.036	0.065
-236.859	800.000	-0.045	-0.162
-235.844	46.730	-0.055	0.050
-234.830	-200.000	0.034	0.297
-233.815	-12.427	-0.168	-0.109
-232.800	-200.000	0.012	0.247
-231.786	-71.091	0.412	-0.154
-230.771	-32.614	-0.371	0.205
-229.757	-18.735	0.262	0.162
-228.742	188.850	-0.044	-0.066
-227.727	-95.412	0.198	0.053
-226.713	800.000	-0.034	0.104
-225.698	9.947	-0.137	0.103
-224.684	-200.000	-0.057	-0.342
-223.669	-179.198	0.059	0.001
-222.655	389.336	0.158	-0.325
-221.640	800.000	-0.075	-0.214
-220.625	-78.477	0.267	-0.091
-219.611	-57.201	0.020	0.009
-218.596	-84.062	-0.018	-0.006
-217.582	3.406	0.010	-0.007
-216.567	-200.000	0.000	-0.127
-215.552	-153.003	-0.261	0.018
-214.538	-78.807	0.240	0.081
-213.523	-139.141	0.185	0.020
-212.509	-112.117	0.211	-0.042
-211.494	213.550	-0.049	0.078
-210.479	-68.080	0.200	-0.077
-209.465	-144.788	0.381	0.035
-208.450	-87.423	-0.080	-0.024
-207.436	52.732	-0.217	0.205
-206.421	115.852	-0.216	0.262
-205.406	-200.000	0.002	-0.092
-204.392	-200.000	0.019	-0.094
-203.377	800.000	-0.088	-0.273
-202.363	800.000	0.115	-0.350
-201.348	-132.697	-0.175	0.022
-200.333	602.204	-0.103	0.253
-199.319	-55.625	0.097	-0.043
-198.304	-60.263	0.065	0.028
-197.290	3.995	0.125	-0.090
-196.275	56.531	0.249	0.240
-195.260	325.324	-0.072	-0.137
-194.246	-181.951	-0.197	-0.004
-193.231	3.438	-0.097	-0.070
-192.217	-66.477	0.169	0.067
-191.202	-10.252	-0.304	0.200
-190.187	800.000	-0.041	-0.134
-189.173	-130.278	-0.169	-0.023
-188.158	-5.637	0.272	-0.185
-187.144	-200.000	0.020	-0.222
-186.129	-86.280	-0.323	-0.099
-185.114	-4.703	-0.103	-0.071
-184.100	73.632	-0.186	0.194
-183.085	95.801	-0.158	0.179
-182.071	258.598	-0.012	-0.021
-181.056	24.485	0.009	-0.008
-180.042	146.016	0.112	-0.148
-179.027	800.000	-0.089	0.309
-178.012	256.268	-0.050	-0.085
-176.998	-26.675	-0.313	0.182
-175.983	-78.248	-0.191	-0.065
-174.969	-57.544	0.143	0.062
-173.954	125.024	0.116	0.144
-172.939	-200.000	-0.003	0.145
-171.925	26.147	0.073	-0.061
-170.910	-26.083	0.147	0.086
-169.896	-200.000	0.031	-0.375
-168.881	-200.000	0.005	0.319
-167.866	-200.000	0.014	-0.086
-166.852	51.041	-0.196	-0.184
-165.837	403.629	0.183	-0.381
-164.823	-109.454	-0.136	-0.028
-163.808	61.107	-0.195	0.192
-162.793	-129.986	0.159	0.021
-161.779	-198.801	-0.135	0.001
-160.764	-200.000	-0.031	0.202
-159.750	122.595	-0.050	0.062
-158.735	-200.000	0.039	0.201
-157.720	-34.149	0.126	-0.068
-156.706	-85.206	0.018	0.005
-155.691	96.759	-0.104	-0.118
-154.677	-128.607	0.374	-0.052
-153.662	144.618	0.238	0.314
-152.647	-200.000	-0.008	0.762
-151.633	-155.551	-0.270	-0.017
-150.618	-47.017	-0.030	-0.015
-149.604	-200.000	0.072	0.390
-148.589	-16.774	0.158	-0.099
-147.574	265.482	0.042	-0.073
-146.560	-65.051	0.326	0.130
-145.545	-200.000	-0.020	0.203
-144.531	12.650	-0.125	0.095
-143.516	-97.072	0.260	-0.067
-142.502	-151.454	-0.278	0.020
-141.487	-46.974	-0.106	0.051
-140.472	-200.000	0.004	0.030
-139.458	-200.000	0.009	-0.231
-138.443	-138.188	0.100	-0.011
-137.429	-129.288	-0.197	-0.027
-136.414	-39.090	0.163	0.085
-135.399	-76.614	0.268	0.093
-134.385	177.923	-0.048	0.070
-133.370	-200.000	-0.017	0.123
-132.356	140.480	0.035	-0.045
-131.341	-200.000	-0.031	-0.190
-130.326	-4.202	0.181	0.124
-129.312	253.007	0.161	0.272
-128.297	100.648	-0.321	0.369
-127.283	-200.000	-0.035	0.221
-126.268	-13.533	-0.063	-0.040
-125.253	4.473	0.110	0.080
-124.239	-186.297	0.195	0.003
-123.224	-5.504	0.301	0.204
-122.210	-107.225	0.322	-0.070
-121.195	-200.000	0.021	-0.431
-120.180	-55.871	0.081	-0.036
-119.166	800.000	0.032	0.130
-118.151	44.964	-0.169	-0.154
-117.137	57.913	-0.137	-0.132
-116.122	-57.247	-0.232	0.101
-115.107	37.462	0.242	0.212
-114.093	-29.926	-0.128	-0.072
-113.078	114.548	-0.201	0.243
-112.064	648.550	-0.067	-0.168
-111.049	-200.000	0.007	-0.240
-110.034	800.000	0.050	-0.147
-109.020	-97.768	0.167	0.043
-108.005	121.718	0.147	-0.181
-106.991	-65.697	0.256	-0.102
-105.976	450.978	-0.107	0.233
-104.962	-71.419	0.074	0.027
-103.947	-106.630	0.019	0.004
-102.932	-26.401	0.152	-0.088
-101.918	351.554	0.011	-0.021
-100.903	3.471	0.205	0.148
-99.889	-82.421	0.056	-0.018
-98.874	39.955	0.120	0.107
-97.859	-64.084	0.370	0.149
-96.845	-32.490	-0.143	-0.079
-95.830	-123.849	0.245	0.038
-94.816	800.000	0.121	-0.366
-93.801	-77.983	-0.215	0.073
-92.786	-54.435	0.107	0.048
-91.772	61.858	-0.134	0.132
-90.757	-22.805	-0.143	0.085
-89.743	167.873	-0.044	0.062
-88.728	149.552	-0.091	-0.122
-87.713	142.179	0.122	-0.160
-86.699	-132.862	0.120	-0.015
-85.684	-69.240	0.223	-0.085
-84.670	-200.000	-0.022	-0.211
-83.655	-126.393	0.067	0.010
-82.640	-89.930	0.141	0.041
-81.626	123.478	0.191	0.237
-80.611	146.648	-0.086	-0.114
-79.597	116.619	0.174	0.211
-78.582	374.936	0.149	-0.299
-77.567	-94.293	0.246	-0.066
-76.553	-200.000	0.011	0.319
-75.538	790.253	-0.116	-0.314
-74.524	-51.741	-0.044	0.020
-73.509	-200.000	-0.003	0.208
-72.494	-93.586	0.047	0.013
-71.480	-31.610	0.236	0.131
-70.465	238.567	0.070	-0.115
-69.451	618.557	0.066	-0.164
-68.436	227.927	-0.244	0.392
-67.422	-79.856	0.166	-0.055
-66.407	-96.272	-0.279	0.073
-65.392	370.798	0.082	0.163
-64.378	64.172	0.069	-0.068
-63.363	-5.414	-0.243	0.164
-62.349	40.825	0.147	0.131
-61.334	139.669	-0.788	-1.024
-60.319	-55.541	0.686	0.303
-59.305	800.000	-0.310	-1.274
-58.290	300.795	0.581	1.058
-57.276	389.642	0.828	1.692
-56.261	-200.000	107.500	594.170
-55.246	506.214	1479.885	3383.355
-54.232	178.056	2671.339	3843.486
-53.217	101.466	2312.338	2656.938
-52.203	35.985	2063.684	1791.028
-51.188	31.423	1980.461	1677.901
-50.173	30.030	1963.286	1650.874
-49.159	45.270	2020.167	1837.059
-48.144	45.671	2037.347	1856.239
-47.130	31.960	1995.247	1695.015
-46.115	29.736	1984.312	1665.645
-45.100	29.646	1981.474	1662.383
-44.086	29.580	1979.527	1660.093
-43.071	29.499	1977.140	1657.298
-42.057	29.595	1974.659	1656.013
-41.042	29.583	1972.862	1654.333
-40.027	29.636	1970.862	1653.067
-39.013	29.597	1968.815	1650.935
-37.998	29.628	1966.965	1649.592
-36.984	29.608	1965.249	1647.916
-35.969	29.671	1963.129	1646.625
-34.954	29.679	1961.569	1645.327
-33.940	29.672	1960.251	1644.094
-32.925	29.721	1958.483	1642.985
-31.911	29.716	1956.935	1641.576
-30.896	29.750	1954.805	1640.021
-29.881	29.746	1953.728	1639.015
-28.867	29.831	1952.112	1638.354
-27.852	29.745	1950.293	1636.002
-26.838	29.781	1947.827	1634.181
-25.823	29.712	1946.380	1632.291
-24.809	29.794	1944.357	1631.254
-23.794	29.729	1943.282	1629.716
-22.779	29.704	1941.301	1627.775
-21.765	29.623	1939.883	1625.809
-20.750	29.730	1938.111	1625.197
-19.736	29.659	1937.063	1623.631
-18.721	29.703	1935.396	1622.556
-17.706	29.701	1933.345	1620.756
-16.692	29.682	1931.593	1619.050
-15.677	29.722	1929.780	1617.821
-14.663	29.750	1928.602	1617.013
-13.648	29.756	1927.233	1615.851
-12.633	29.751	1925.837	1614.570
-11.619	29.775	1924.464	1613.568
-10.604	29.724	1923.194	1611.994
-9.590	29.648	1922.257	1610.485
-8.575	29.672	1920.986	1609.566
-7.560	29.709	1919.400	1608.491
-6.546	29.751	1917.892	1607.530
-5.531	29.698	1916.890	1606.164
-4.517	29.716	1915.418	1605.022
-3.502	29.688	1914.648	1604.069
-2.487	29.668	1913.665	1603.015
-1.473	29.748	1912.311	1602.506
-0.458	29.728	1907.541	1598.275
0.556	31.315	1887.107	1569.375
1.571	26.915	1868.015	1516.677
2.586	22.793	1890.192	1499.600
3.600	21.578	1924.936	1516.513
4.615	21.154	1918.520	1507.665
5.629	16.544	1819.078	1391.553
6.644	8.201	1703.654	1238.601
7.659	4.018	1668.144	1180.822
8.673	3.687	1664.509	1175.628
9.688	3.738	1662.910	1174.782
10.702	3.832	1661.950	1174.716
11.717	3.682	1658.503	1171.037
12.731	4.122	1657.918	1173.850
13.746	9.901	1670.985	1227.026
14.761	18.634	1690.676	1308.252
15.775	23.320	1698.790	1350.218
16.790	23.983	1698.336	1354.792
17.804	23.340	1695.944	1347.870
18.819	22.590	1693.885	1340.414
19.834	22.190	1691.940	1335.723
20.848	22.079	1690.333	1333.490
21.863	22.081	1690.096	1333.201
22.877	22.054	1688.803	1331.857
23.892	22.000	1687.072	1329.967
24.907	21.793	1686.959	1328.191
25.921	21.755	1685.656	1326.759
26.936	21.704	1684.671	1325.483
27.950	21.744	1683.896	1325.056
28.965	21.772	1682.908	1324.376
29.980	21.893	1682.063	1324.502
30.994	22.033	1681.220	1324.783
32.009	22.107	1680.088	1324.331
33.023	22.178	1680.060	1324.728
34.038	22.179	1678.880	1323.681
35.053	22.124	1677.428	1322.007
36.067	22.120	1675.585	1320.408
37.082	21.928	1675.465	1318.751
38.096	21.918	1674.015	1317.419
39.111	21.966	1673.332	1317.126
40.126	22.119	1672.135	1317.216
41.140	22.070	1671.491	1316.223
42.155	21.757	1669.771	1312.415
43.169	21.503	1668.043	1309.034
44.184	21.381	1666.592	1306.871
45.199	21.378	1665.625	1305.975
46.213	21.427	1665.290	1305.964
47.228	21.692	1663.617	1306.507
48.242	21.898	1662.906	1307.375
49.257	21.865	1662.841	1306.961
50.271	21.881	1661.459	1305.877
51.286	21.880	1659.726	1304.390
52.301	21.851	1658.636	1303.207
53.315	21.844	1657.010	1301.760
54.330	21.793	1655.837	1300.347
55.344	21.630	1653.974	1297.560
56.359	21.501	1652.467	1295.305
57.374	21.517	1651.448	1294.509
58.388	21.470	1650.009	1292.922
59.403	21.399	1648.845	1291.368
60.417	21.259	1647.481	1289.151
61.432	21.354	1645.669	1288.321
62.447	21.196	1645.550	1286.948
63.461	21.191	1644.264	1285.793
64.476	21.094	1643.198	1284.135
65.490	21.063	1641.708	1282.626
66.505	21.012	1640.924	1281.525
67.520	21.015	1639.766	1280.531
68.534	21.129	1638.711	1280.427
69.549	21.123	1637.231	1279.114
70.563	21.135	1635.832	1278.000
71.578	20.909	1635.111	1275.668
72.593	20.842	1634.099	1274.279
73.607	20.794	1633.033	1272.979
74.622	20.691	1631.734	1271.104
75.636	20.810	1630.754	1271.098
76.651	20.862	1630.858	1271.443
77.666	20.957	1629.158	1270.695
78.680	21.084	1628.249	1270.804
79.695	21.001	1627.990	1269.881
80.709	21.052	1626.918	1269.303
81.724	21.211	1626.577	1270.087
82.739	21.426	1625.501	1270.694
83.753	21.463	1625.057	1270.500
84.768	21.585	1624.749	1271.033
85.782	21.796	1624.384	1272.171
86.797	21.963	1623.733	1272.755
87.812	22.059	1622.944	1272.725
88.826	22.109	1621.345	1271.719
89.841	21.934	1620.528	1269.699
90.855	21.922	1619.791	1268.923
91.870	22.037	1618.364	1268.520
92.884	22.121	1617.775	1268.558
93.899	22.126	1617.026	1267.890
94.914	22.258	1615.810	1267.781
95.928	22.303	1614.461	1266.928
96.943	22.241	1612.893	1265.145
97.957	22.258	1611.367	1263.953
98.972	22.187	1609.561	1261.920
99.987	21.971	1608.936	1259.764
101.001	22.115	1607.149	1259.285
102.016	22.084	1605.705	1257.819
103.030	21.995	1604.896	1256.443
104.045	22.125	1603.326	1256.028
105.060	22.070	1601.728	1254.274
106.074	21.904	1600.239	1251.812
107.089	21.697	1598.127	1248.577
108.103	21.223	1596.770	1244.031
109.118	21.141	1594.582	1241.632
110.133	21.067	1592.999	1239.760
111.147	20.950	1591.926	1237.983
112.162	21.028	1590.620	1237.413
113.176	21.175	1589.227	1237.261
114.191	21.125	1588.585	1236.299
115.206	21.287	1587.142	1236.216
116.220	21.267	1585.945	1235.031
117.235	21.237	1584.825	1233.840
118.249	21.243	1583.576	1232.795
119.264	21.217	1581.570	1230.941
120.279	21.019	1580.273	1228.430
121.293	21.018	1578.593	1227.012
122.308	20.981	1577.441	1225.748
123.322	20.805	1575.965	1223.255
124.337	20.740	1574.256	1221.360
125.352	20.604	1573.390	1219.628
126.366	20.580	1572.269	1218.482
127.381	20.520	1571.753	1217.555
128.395	20.697	1569.859	1217.220
129.410	20.609	1568.408	1215.374
130.424	20.535	1567.470	1214.023
131.439	20.578	1566.473	1213.442
132.454	20.778	1565.535	1214.002
133.468	21.007	1564.310	1214.541
134.483	21.030	1563.133	1213.680
135.497	21.242	1561.420	1213.716
136.512	21.155	1560.650	1212.406
137.527	21.258	1559.329	1211.988
138.541	21.186	1558.554	1210.778
139.556	21.268	1556.807	1209.879
140.570	21.351	1556.260	1209.923
141.585	21.481	1554.864	1209.629
142.600	21.660	1553.516	1209.711
143.614	21.798	1553.274	1210.369
144.629	21.916	1552.480	1210.454
145.643	22.058	1550.778	1210.003
146.658	22.064	1550.298	1209.557
147.673	22.022	1548.313	1207.614
148.687	21.764	1546.490	1204.318
149.702	21.567	1545.230	1201.877
150.716	21.469	1543.316	1199.605
151.731	21.250	1542.161	1197.101
152.746	21.143	1540.851	1195.245
153.760	21.102	1539.886	1194.115
154.775	21.188	1538.980	1193.893
155.789	21.411	1537.475	1194.139
156.804	21.469	1536.989	1194.057
157.819	21.606	1535.829	1193.982
158.833	21.589	1534.980	1193.101
159.848	21.730	1533.927	1193.133
160.862	21.895	1533.023	1193.449
161.877	22.002	1531.446	1192.845
162.892	21.734	1530.453	1190.148
163.906	21.327	1528.629	1185.859
164.921	21.176	1527.103	1183.547
165.935	21.051	1525.691	1181.500
166.950	21.113	1525.185	1181.426
167.964	21.273	1524.238	1181.671
168.979	21.416	1523.141	1181.684
169.994	21.347	1522.386	1180.525
171.008	21.305	1521.182	1179.204
172.023	21.273	1519.766	1177.786
173.037	21.281	1519.165	1177.268
174.052	21.614	1518.327	1178.759
175.067	21.744	1517.675	1179.023
176.081	21.686	1515.754	1177.033
177.096	21.180	1514.159	1172.298
178.110	21.006	1512.975	1170.108
179.125	21.105	1511.626	1169.628
180.140	21.169	1510.733	1169.259
181.154	21.399	1510.292	1170.357
182.169	21.499	1509.781	1170.526
183.183	21.624	1508.692	1170.415
184.198	21.687	1507.803	1170.042
185.213	21.837	1506.982	1170.298
186.227	21.874	1505.860	1169.575
187.242	21.880	1505.009	1168.845
188.256	21.909	1503.980	1168.141
189.271	22.012	1503.339	1168.222
190.286	22.103	1502.707	1168.231
191.300	22.043	1501.508	1166.800
192.315	21.659	1500.195	1163.124
193.329	21.322	1498.342	1159.352
194.344	21.258	1497.121	1157.881
195.359	21.399	1496.272	1158.056
196.373	21.296	1495.247	1156.474
197.388	21.330	1494.137	1155.740
198.402	21.324	1493.167	1154.847
199.417	21.575	1492.736	1156.071
200.432	21.980	1492.600	1158.535
201.446	22.174	1492.003	1159.253
202.461	22.210	1491.390	1158.908
203.475	22.325	1490.272	1158.698
204.490	22.338	1488.902	1157.615
205.504	22.130	1488.213	1155.603
206.519	21.821	1486.296	1151.989
207.534	21.673	1485.113	1149.994
208.548	21.625	1483.889	1148.635
209.563	21.503	1482.823	1146.902
210.577	21.485	1482.040	1146.080
211.592	21.527	1481.170	1145.578
212.607	21.577	1480.527	1145.308
213.621	21.853	1479.901	1146.525
214.636	22.003	1479.440	1147.048
215.650	22.040	1477.817	1145.930
216.665	21.917	1477.443	1144.736
217.680	21.975	1476.808	1144.524
218.694	22.219	1476.281	1145.604
219.709	22.261	1476.116	1145.649
220.723	22.376	1474.464	1145.012
221.738	22.197	1473.552	1143.040
222.753	22.229	1473.219	1142.890
223.767	22.081	1471.570	1140.547
224.782	22.046	1470.366	1139.287
225.796	22.195	1469.570	1139.533
226.811	22.330	1469.587	1140.321
227.826	22.388	1469.266	1140.348
228.840	22.125	1467.850	1137.440
229.855	22.016	1466.625	1135.691
230.869	21.837	1465.434	1133.511
231.884	21.946	1463.939	1132.954
232.899	21.874	1463.167	1131.795
233.913	21.646	1462.053	1129.361
234.928	21.524	1460.446	1127.236
235.942	21.540	1459.092	1126.191
236.957	21.518	1457.361	1124.616
237.972	21.333	1456.562	1122.709
238.986	21.326	1455.477	1121.730
240.001	21.437	1454.701	1121.745
241.015	21.308	1454.421	1120.604
242.030	21.431	1452.834	1120.071
243.045	21.553	1451.792	1119.945
244.059	21.704	1451.098	1120.279
245.074	21.850	1450.376	1120.552
246.088	21.954	1449.945	1120.788
247.103	22.018	1449.438	1120.707
248.117	22.132	1448.617	1120.698
249.132	22.205	1448.109	1120.672
250.147	22.399	1447.709	1121.496
251.161	22.665	1448.047	1123.356
252.176	23.010	1447.548	1125.064
253.190	23.146	1446.721	1125.185
254.205	23.090	1445.917	1124.109
255.220	23.244	1444.911	1124.202
256.234	23.291	1444.392	1123.997
257.249	23.246	1444.016	1123.319
258.263	23.287	1442.880	1122.596
259.278	23.180	1441.658	1120.870
260.293	23.130	1440.571	1119.609
261.307	23.249	1439.791	1119.659
262.322	23.250	1439.375	1119.239
263.336	23.293	1438.413	1118.664
264.351	23.251	1437.875	1117.885
265.366	23.280	1436.624	1116.993
266.380	23.296	1436.094	1116.583
267.395	23.389	1434.990	1116.214
268.409	23.228	1434.504	1114.720
269.424	23.110	1433.258	1112.912
270.439	23.054	1431.802	1111.332
271.453	23.015	1430.802	1110.211
272.468	22.951	1430.031	1109.116
273.482	22.897	1428.985	1107.864
274.497	22.701	1428.336	1106.036
275.512	22.536	1427.236	1104.053
276.526	22.661	1425.968	1103.759
277.541	22.716	1424.766	1103.070
278.555	22.516	1424.642	1101.626
279.570	22.591	1424.077	1101.563
280.585	22.837	1422.861	1102.061
281.599	23.243	1422.312	1104.073
282.614	23.368	1421.874	1104.414
283.628	22.951	1421.022	1101.052
284.643	22.759	1419.583	1098.644
285.657	22.801	1417.866	1097.483
286.672	22.737	1417.114	1096.402
287.687	22.767	1416.261	1095.832
288.701	22.768	1415.116	1094.858
289.716	22.874	1414.437	1094.893
290.730	22.837	1414.000	1094.225
291.745	22.836	1412.481	1092.950
292.760	22.891	1411.706	1092.590
293.774	22.857	1410.750	1091.544
294.789	22.862	1410.311	1091.139
295.803	23.039	1409.544	1091.543
296.818	23.213	1409.078	1092.160
297.833	23.097	1407.838	1090.388
298.847	22.817	1406.370	1087.427
299.862	22.804	1405.670	1086.710
300.876	22.855	1404.101	1085.716
301.891	22.779	1403.850	1084.962
302.906	22.869	1403.150	1084.877
303.920	23.120	1402.637	1085.926
304.935	23.298	1402.497	1086.814
305.949	23.284	1401.647	1085.973
306.964	23.432	1401.328	1086.532
307.979	23.562	1400.454	1086.557
308.993	23.432	1399.056	1084.579
310.008	23.235	1397.886	1082.374
311.022	23.310	1396.780	1081.879
312.037	23.448	1395.803	1081.872
313.052	23.492	1395.194	1081.572
314.066	23.367	1393.758	1079.601
315.081	23.049	1392.703	1076.752
316.095	22.918	1390.663	1074.284
317.110	22.555	1389.873	1071.370
318.125	22.573	1388.942	1070.664
319.139	22.589	1388.287	1070.165
320.154	22.601	1387.498	1069.534
321.168	22.728	1386.077	1069.112
322.183	22.723	1384.877	1068.065
323.197	22.533	1384.269	1066.350
324.212	22.719	1383.372	1066.691
325.227	22.819	1382.651	1066.640
326.241	22.960	1381.556	1066.553
327.256	22.942	1381.216	1066.090
328.270	22.825	1380.270	1064.560
329.285	22.772	1379.362	1063.446
330.300	22.827	1378.205	1062.789
331.314	22.730	1377.771	1061.776
332.329	22.795	1376.851	1061.368
333.343	22.724	1376.023	1060.207
334.358	22.721	1375.003	1059.310
335.373	22.905	1374.401	1059.853
336.387	23.162	1374.010	1061.002
337.402	23.207	1373.450	1060.745
338.416	23.350	1373.031	1061.187
339.431	23.315	1372.451	1060.435
340.446	23.448	1372.154	1060.904
341.460	23.476	1371.184	1060.231
342.475	23.716	1370.293	1060.879
343.489	23.794	1370.007	1061.030
344.504	23.932	1368.787	1060.816
345.519	23.974	1368.382	1060.657
346.533	24.001	1367.393	1059.960
347.548	24.050	1366.268	1059.286
348.562	24.084	1365.478	1058.778
349.577	24.199	1364.375	1058.516
350.592	23.913	1363.525	1056.063
351.606	23.567	1362.193	1052.887
352.621	23.268	1361.134	1050.199
353.635	23.243	1359.410	1048.627
354.650	23.086	1358.319	1046.766
355.665	23.134	1357.120	1046.031
356.679	23.097	1356.431	1045.193
357.694	23.177	1355.991	1045.230
358.708	23.326	1355.153	1045.374
359.723	23.434	1353.942	1044.985
360.738	23.536	1353.034	1044.793
361.752	23.538	1352.296	1044.141
362.767	23.575	1350.715	1043.044
363.781	23.498	1350.104	1042.029
364.796	23.488	1349.378	1041.317
365.810	23.570	1348.873	1041.316
366.825	23.900	1348.512	1042.881
367.840	24.018	1348.115	1043.173
368.854	24.174	1347.493	1043.514
369.869	24.316	1347.314	1044.111
370.883	24.308	1346.734	1043.524
371.898	24.126	1346.409	1042.115
372.913	23.979	1344.570	1039.742
373.927	23.951	1343.353	1038.547
374.942	23.937	1342.460	1037.683
375.956	24.100	1341.911	1038.116
376.971	24.300	1341.338	1038.748
377.986	24.099	1340.131	1036.548
379.000	24.113	1339.566	1036.104
380.015	24.208	1338.889	1036.037
381.029	24.384	1338.465	1036.644
382.044	24.412	1337.953	1036.314
383.059	24.490	1337.176	1036.076
384.073	24.400	1336.650	1035.054
385.088	24.428	1335.772	1034.446
386.102	24.435	1334.616	1033.499
387.117	24.487	1334.104	1033.312
388.132	24.241	1333.300	1031.171
389.146	23.828	1331.936	1027.641
390.161	23.719	1331.364	1026.481
391.175	23.777	1330.311	1025.913
392.190	23.745	1329.370	1024.910
393.205	23.802	1328.893	1024.781
394.219	24.130	1327.748	1025.695
395.234	24.435	1327.063	1026.831
396.248	24.237	1325.685	1024.533
397.263	23.946	1324.141	1021.580
398.278	23.931	1322.555	1020.180
399.292	23.732	1321.522	1018.153
400.307	23.714	1320.436	1017.125
401.321	23.717	1319.547	1016.364
402.336	23.728	1318.172	1015.280
403.350	23.474	1317.257	1013.034
404.365	23.429	1316.435	1012.056
405.380	23.683	1315.346	1012.577
406.394	23.738	1315.407	1012.850
407.409	23.800	1314.212	1012.189
408.423	23.927	1314.074	1012.721
409.438	24.153	1313.891	1013.774
410.453	24.417	1313.540	1014.913
411.467	24.460	1312.800	1014.500
412.482	24.513	1312.253	1014.290
413.496	24.634	1311.452	1014.265
414.511	24.648	1310.626	1013.618
415.526	24.814	1310.018	1013.998
416.540	24.791	1309.447	1013.332
417.555	24.964	1309.093	1013.951
418.569	24.961	1308.382	1013.292
419.584	24.882	1307.407	1012.003
420.599	24.668	1306.947	1010.345
421.613	145.781	1436.293	1797.275
422.628	141.274	1455.113	1797.360
