DTS Sentinel unit serial number:	SN413079Multiplexer serial number:	ORYXHardware model number:	OX4-SRSoftware version number:	ORYX F/W v4.00 Oryx Data Collector v3.7.2.0data status	okinstallation	princeton_trtdifferential loss correction	single-endedforward channel	channel 4reverse channel	N/Adate	2019/09/14time	23:33:34forward acquisition time	60.00reverse acquisition time	0.00gamma	496.2192k internal	0.2306k external	0.2306temperature offset calibration	1.0055default loss term (dB/km)	0.3790temperature slope calibration	1.0000multiplexer offset coefficient	1.0000multiplexer slope coefficient	1.0000fibre end	0.00T internal ref (°C)	32.31T ext. ref 1 (°C)	4.65T ext. ref 2 (°C)	27.36length (m)	temperature (°C)	Stokes	anti-Stokes-747.200	-107.324	0.519	0.116
-746.185	800.000	0.108	0.390
-745.171	-45.100	0.097	-0.049
-744.156	-14.683	-0.200	0.131
-743.142	-200.000	-0.042	-0.304
-742.127	758.036	-0.173	0.477
-741.112	226.556	-0.073	-0.120
-740.098	-200.000	-0.007	0.069
-739.083	-200.000	-0.042	-0.273
-738.069	6.661	-0.155	-0.117
-737.054	294.133	0.135	-0.250
-736.039	19.962	-0.393	-0.322
-735.025	-81.049	0.367	0.123
-734.010	-16.385	-0.184	-0.118
-732.996	737.125	-0.131	-0.357
-731.981	-19.061	0.289	0.183
-730.966	24.092	-0.184	0.154
-729.952	122.069	0.050	-0.063
-728.937	652.124	-0.103	-0.268
-727.923	-90.548	-0.217	-0.064
-726.908	-200.000	-0.013	0.155
-725.894	-192.972	-0.098	0.001
-724.879	310.132	0.071	0.136
-723.864	-44.284	0.192	-0.098
-722.850	800.000	0.091	0.276
-721.835	256.133	0.109	-0.191
-720.821	18.690	-0.345	-0.281
-719.806	800.000	-0.041	0.124
-718.791	-47.254	0.230	0.114
-717.777	800.000	0.061	0.201
-716.762	94.649	-0.220	-0.255
-715.748	90.013	0.142	-0.161
-714.733	-78.000	0.080	-0.028
-713.718	186.097	-0.194	-0.293
-712.704	-176.363	-0.216	-0.006
-711.689	-200.000	0.020	-0.129
-710.675	54.541	-0.201	-0.196
-709.660	-120.682	-0.238	0.041
-708.645	800.000	0.063	-0.206
-707.631	-74.653	-0.162	-0.059
-706.616	-86.408	0.525	-0.164
-705.602	421.091	0.035	-0.077
-704.587	-63.524	-0.134	0.056
-703.572	800.000	-0.022	-0.066
-702.558	-200.000	-0.013	0.437
-701.543	-157.266	-0.056	0.003
-700.529	-11.406	-0.273	-0.183
-699.514	33.301	0.073	0.064
-698.499	115.648	0.037	-0.046
-697.485	63.981	0.180	0.184
-696.470	266.033	0.061	-0.109
-695.456	73.503	-0.109	0.116
-694.441	-200.000	-0.009	0.383
-693.426	87.914	-0.205	0.231
-692.412	-200.000	-0.002	0.482
-691.397	397.498	0.113	0.240
-690.383	-135.146	-0.107	0.013
-689.368	13.942	0.126	0.099
-688.354	-80.398	0.089	0.030
-687.339	-127.008	0.113	-0.017
-686.324	-81.552	-0.133	-0.044
-685.310	-154.636	-0.276	-0.019
-684.295	-200.000	0.003	-0.106
-683.281	337.519	0.065	0.128
-682.266	77.165	0.055	-0.060
-681.251	-62.057	0.204	-0.086
-680.237	-28.651	0.104	0.061
-679.222	175.395	-0.290	-0.427
-678.208	505.976	-0.131	0.308
-677.193	-97.742	-0.171	-0.045
-676.178	126.159	-0.142	0.182
-675.164	-49.741	0.261	-0.126
-674.149	24.509	-0.214	0.180
-673.135	-65.980	0.236	-0.095
-672.120	-98.639	-0.228	0.059
-671.105	78.267	-0.065	-0.070
-670.091	270.441	0.132	-0.236
-669.076	-152.038	-0.347	0.026
-668.062	22.716	-0.257	-0.213
-667.047	-10.662	0.080	-0.054
-666.032	-89.998	-0.185	0.055
-665.018	-160.917	0.375	0.020
-664.003	-116.295	-0.281	-0.053
-662.989	-92.338	0.176	0.050
-661.974	-110.567	0.077	0.016
-660.959	-162.494	-0.485	-0.024
-659.945	102.076	0.177	0.210
-658.930	25.610	-0.331	-0.279
-657.916	-13.386	0.197	-0.129
-656.901	124.728	-0.116	0.147
-655.886	-64.341	0.130	-0.054
-654.872	-200.000	0.024	0.149
-653.857	-149.790	-0.115	-0.009
-652.843	-109.421	-0.252	0.054
-651.828	319.777	0.041	-0.078
-650.814	800.000	-0.013	0.040
-649.799	-200.000	0.020	-0.151
-648.784	448.671	-0.030	-0.066
-647.770	12.413	-0.191	-0.149
-646.755	127.924	0.042	0.055
-645.741	-69.896	-0.076	-0.029
-644.726	91.145	-0.112	-0.127
-643.711	-175.382	-0.350	0.010
-642.697	51.033	0.330	-0.317
-641.682	-200.000	0.019	-0.151
-640.668	156.866	-0.157	-0.220
-639.653	577.117	0.033	0.082
-638.638	-55.003	0.222	0.101
-637.624	-3.199	0.130	0.092
-636.609	-44.291	-0.284	0.144
-635.595	295.779	-0.177	-0.329
-634.580	800.000	0.090	-0.367
-633.565	-65.159	0.064	-0.026
-632.551	-49.109	0.236	-0.114
-631.536	-200.000	0.003	-0.045
-630.522	231.353	-0.069	0.114
-629.507	294.802	0.096	0.179
-628.492	-60.755	-0.162	0.070
-627.478	-55.477	0.184	-0.084
-626.463	-96.103	0.102	0.028
-625.449	-167.374	-0.224	-0.009
-624.434	-4.140	-0.142	0.100
-623.419	308.830	-0.136	-0.257
-622.405	-75.150	-0.243	0.088
-621.390	-129.962	-0.055	-0.008
-620.376	-53.767	-0.235	0.109
-619.361	-21.102	-0.055	0.034
-618.346	-58.515	0.109	0.048
-617.332	-2.687	-0.194	0.137
-616.317	108.396	-0.137	-0.166
-615.303	-55.495	-0.230	0.104
-614.288	183.940	0.069	-0.103
-613.273	-200.000	0.017	-0.193
-612.259	400.969	-0.057	0.121
-611.244	97.619	0.113	-0.131
-610.230	137.960	0.148	0.196
-609.215	614.085	-0.087	-0.221
-608.201	-45.895	-0.071	0.035
-607.186	-136.035	0.117	0.014
-606.171	800.000	-0.079	-0.277
-605.157	-136.522	-0.252	-0.030
-604.142	-8.440	0.254	-0.173
-603.128	744.374	-0.075	-0.204
-602.113	209.235	-0.100	-0.158
-601.098	-200.000	0.040	-0.325
-600.084	-142.055	0.044	0.004
-599.069	13.443	-0.089	-0.070
-598.055	-68.267	0.074	0.029
-597.040	482.572	-0.095	0.219
-596.025	-105.336	0.227	-0.052
-595.011	-200.000	0.011	0.143
-593.996	108.353	-0.093	0.113
-592.982	259.893	-0.203	0.355
-591.967	-107.546	0.278	-0.062
-590.952	800.000	-0.064	-0.181
-589.938	800.000	0.016	0.058
-588.923	300.535	-0.132	0.247
-587.909	-134.904	-0.222	-0.027
-586.894	1.790	-0.385	-0.281
-585.879	800.000	-0.117	-0.403
-584.865	-131.106	-0.079	0.011
-583.850	45.126	0.064	-0.059
-582.836	-200.000	0.023	0.228
-581.821	-53.701	-0.231	0.107
-580.806	-0.653	-0.206	-0.148
-579.792	199.738	-0.149	-0.231
-578.777	18.054	0.149	0.120
-577.763	-14.045	-0.153	0.100
-576.748	161.563	0.285	-0.403
-575.733	-82.001	0.071	-0.023
-574.719	150.145	0.252	0.346
-573.704	250.068	-0.113	-0.194
-572.690	-200.000	0.035	0.318
-571.675	-200.000	0.036	0.235
-570.661	-106.062	-0.235	0.053
-569.646	54.329	0.259	-0.252
-568.631	71.648	-0.154	0.162
-567.617	-200.000	0.032	-0.175
-566.602	-25.433	-0.057	-0.034
-565.588	800.000	-0.089	0.282
-564.573	-200.000	-0.049	-0.227
-563.558	-7.570	-0.136	-0.093
-562.544	-10.739	-0.153	0.102
-561.529	516.976	-0.057	-0.134
-560.515	-200.000	-0.009	0.040
-559.500	-101.084	0.164	0.040
-558.485	11.123	0.251	-0.194
-557.471	178.581	-0.044	-0.066
-556.456	-49.671	-0.180	0.087
-555.442	394.741	-0.062	-0.130
-554.427	549.601	0.026	0.062
-553.412	-90.153	0.097	0.028
-552.398	97.427	-0.334	-0.388
-551.383	-80.904	0.189	0.063
-550.369	-172.274	0.195	-0.006
-549.354	-142.225	0.277	0.028
-548.339	111.050	0.205	0.249
-547.325	-96.176	-0.229	0.061
-546.310	-71.777	0.206	-0.078
-545.296	800.000	-0.031	0.101
-544.281	-200.000	0.012	-0.323
-543.266	-94.909	0.374	0.102
-542.252	-145.879	-0.236	0.021
-541.237	632.467	-0.083	0.211
-540.223	210.040	-0.199	-0.315
-539.208	-92.004	-0.036	0.010
-538.193	-124.010	0.177	-0.028
-537.179	-169.769	0.082	0.003
-536.164	-200.000	0.006	0.097
-535.150	-94.838	-0.168	0.046
-534.135	-133.005	0.135	-0.017
-533.121	-118.284	0.244	-0.044
-532.106	-200.000	0.026	-0.152
-531.091	-200.000	-0.004	-0.150
-530.077	-20.401	0.067	-0.042
-529.062	-115.527	0.157	0.030
-528.048	-200.000	-0.001	0.279
-527.033	800.000	-0.111	0.436
-526.018	-151.132	-0.291	0.022
-525.004	-177.112	0.065	-0.002
-523.989	800.000	0.022	-0.097
-522.975	-200.000	0.031	-0.356
-521.960	800.000	-0.086	-0.329
-520.945	-35.718	0.135	0.074
-519.931	800.000	-0.046	-0.180
-518.916	96.728	-0.171	-0.198
-517.902	-190.142	-0.364	0.004
-516.887	408.396	-0.137	0.292
-515.872	217.089	-0.128	0.205
-514.858	180.133	-0.044	0.064
-513.843	359.673	-0.045	0.091
-512.829	-49.401	0.036	0.017
-511.814	-23.446	0.119	-0.072
-510.799	210.717	0.135	-0.214
-509.785	127.250	0.028	-0.036
-508.770	-11.242	0.208	0.138
-507.756	-200.000	-0.021	-0.223
-506.741	-130.459	-0.228	-0.031
-505.726	38.450	-0.102	0.092
-504.712	416.577	-0.055	0.118
-503.697	-153.850	-0.065	0.005
-502.683	-97.097	0.359	-0.095
-501.668	-200.000	0.042	0.249
-500.653	-200.000	-0.018	0.115
-499.639	29.317	0.112	0.096
-498.624	-200.000	0.111	0.491
-497.610	417.964	-0.212	0.457
-496.595	-32.316	-0.432	0.243
-495.581	-14.154	0.159	0.103
-494.566	-30.954	-0.232	-0.132
-493.551	-4.687	0.106	-0.074
-492.537	-55.059	-0.285	-0.129
-491.522	196.460	0.109	-0.167
-490.508	800.000	0.050	0.166
-489.493	-36.049	0.147	0.080
-488.478	-200.000	0.042	0.289
-487.464	38.007	0.061	0.054
-486.449	-54.685	-0.263	-0.120
-485.435	107.305	0.114	-0.137
-484.420	800.000	-0.043	-0.145
-483.405	744.453	0.061	0.166
-482.391	-39.421	0.460	0.243
-481.376	-27.376	-0.112	-0.065
-480.362	-89.539	-0.209	-0.062
-479.347	5.549	0.092	0.069
-478.332	-10.898	0.138	0.092
-477.318	-200.000	0.020	0.220
-476.303	84.876	-0.044	-0.048
-475.289	-12.760	-0.347	0.227
-474.274	333.240	0.090	-0.175
-473.259	221.941	-0.094	0.152
-472.245	67.059	-0.239	-0.245
-471.230	789.778	0.106	0.292
-470.216	-200.000	0.006	0.108
-469.201	-5.608	-0.325	-0.225
-468.186	-6.585	0.056	-0.038
-467.172	111.757	-0.035	-0.043
-466.157	-81.447	0.175	0.058
-465.143	8.800	-0.033	0.025
-464.128	-7.286	0.172	-0.117
-463.113	-41.143	0.148	0.077
-462.099	-103.349	0.320	-0.076
-461.084	-200.000	-0.050	-0.233
-460.070	-200.000	0.011	-0.241
-459.055	-200.000	-0.038	-0.326
-458.040	-200.000	-0.056	-0.271
-457.026	800.000	-0.024	-0.085
-456.011	-55.606	-0.150	0.068
-454.997	6.973	0.099	0.074
-453.982	-200.000	0.009	0.182
-452.968	-67.598	0.198	-0.078
-451.953	655.109	-0.092	-0.238
-450.938	290.637	-0.040	-0.074
-449.924	-200.000	0.064	0.326
-448.909	-200.000	-0.007	0.062
-447.895	49.625	0.037	0.035
-446.880	-200.000	0.013	-0.168
-445.865	-88.770	-0.185	0.055
-444.851	-170.339	-0.531	0.019
-443.836	192.670	-0.033	-0.050
-442.822	-200.000	0.040	0.311
-441.807	280.965	-0.103	-0.185
-440.792	800.000	0.091	0.268
-439.778	-7.300	-0.322	0.220
-438.763	800.000	0.167	0.521
-437.749	335.112	-0.055	-0.107
-436.734	-200.000	0.028	-0.166
-435.719	-200.000	0.015	-0.196
-434.705	193.279	0.157	0.239
-433.690	361.338	-0.069	-0.140
-432.676	215.197	0.067	-0.107
-431.661	187.974	-0.336	-0.505
-430.646	-75.545	-0.201	-0.072
-429.632	-200.000	-0.006	0.344
-428.617	-87.452	-0.289	0.088
-427.603	-200.000	-0.036	-0.348
-426.588	-100.341	-0.220	-0.055
-425.573	113.100	0.197	0.240
-424.559	-129.248	-0.272	-0.038
-423.544	387.527	0.143	-0.297
-422.530	-200.000	-0.044	-0.363
-421.515	-200.000	-0.000	-0.078
-420.500	800.000	0.072	-0.217
-419.486	386.123	0.013	-0.026
-418.471	432.107	0.108	-0.234
-417.457	72.108	-0.138	0.144
-416.442	10.612	-0.103	0.079
-415.428	629.473	-0.133	0.339
-414.413	-32.239	0.245	-0.138
-413.398	-200.000	-0.003	-0.292
-412.384	-200.000	-0.013	0.126
-411.369	-67.180	0.216	-0.085
-410.355	-200.000	0.031	0.217
-409.340	800.000	0.101	0.401
-408.325	-200.000	-0.020	0.196
-407.311	-66.752	-0.229	0.091
-406.296	740.405	0.081	0.219
-405.282	-136.654	-0.312	0.036
-404.267	545.084	-0.034	-0.081
-403.252	-77.527	-0.155	-0.054
-402.238	-200.000	-0.025	-0.220
-401.223	800.000	0.043	-0.154
-400.209	-129.143	0.120	0.017
-399.194	-63.276	-0.282	-0.117
-398.179	612.961	-0.015	0.037
-397.165	-76.944	0.119	-0.042
-396.150	32.559	-0.035	0.030
-395.136	534.551	-0.077	-0.183
-394.121	-19.163	-0.092	0.057
-393.106	162.500	-0.118	-0.166
-392.092	-35.589	0.167	-0.091
-391.077	547.646	-0.136	0.328
-390.063	-200.000	-0.020	0.342
-389.048	-24.206	-0.046	0.028
-388.033	-161.195	0.226	-0.012
-387.019	-200.000	-0.000	-0.047
-386.004	-43.184	0.091	-0.046
-384.990	45.205	-0.007	0.007
-383.975	270.464	0.079	-0.140
-382.960	-10.545	0.233	0.155
-381.946	19.655	0.187	-0.151
-380.931	307.512	0.094	-0.176
-379.917	-63.902	-0.294	0.120
-378.902	-37.890	0.077	-0.041
-377.888	752.485	0.141	0.381
-376.873	-198.100	-0.376	-0.002
-375.858	-176.403	0.168	-0.004
-374.844	-79.454	-0.255	-0.087
-373.829	61.960	-0.053	0.053
-372.815	-6.239	0.300	-0.205
-371.800	235.917	0.048	0.080
-370.785	31.150	-0.385	-0.331
-369.771	-84.405	-0.031	0.010
-368.756	-80.890	-0.160	-0.053
-367.742	800.000	0.065	-0.196
-366.727	-200.000	-0.023	0.329
-365.712	-93.515	-0.276	-0.077
-364.698	165.944	0.126	0.178
-363.683	18.194	0.080	0.064
-362.669	-200.000	0.029	-0.184
-361.654	-112.586	-0.103	-0.021
-360.639	-70.208	-0.416	0.158
-359.625	124.594	0.052	0.065
-358.610	-157.546	0.356	0.021
-357.596	-123.426	-0.308	-0.049
-356.581	-200.000	0.032	-0.255
-355.566	103.747	-0.094	-0.110
-354.552	-57.101	-0.106	-0.047
-353.537	441.241	0.030	-0.066
-352.523	77.289	0.147	-0.156
-351.508	800.000	-0.047	-0.163
-350.493	-200.000	0.061	0.583
-349.479	-200.000	0.011	-0.198
-348.464	126.009	-0.051	0.064
-347.450	104.068	-0.197	0.232
-346.435	-152.195	0.104	0.008
-345.420	-103.471	0.498	-0.117
-344.406	300.143	0.227	0.419
-343.391	111.218	0.087	0.105
-342.377	-200.000	0.032	-0.220
-341.362	-200.000	0.063	-0.461
-340.348	31.928	-0.219	0.189
-339.333	-62.867	0.063	0.026
-338.318	-1.065	-0.377	-0.267
-337.304	-28.095	0.086	0.050
-336.289	-36.684	-0.147	0.079
-335.275	-200.000	0.034	0.270
-334.260	-200.000	0.012	0.081
-333.245	-47.686	-0.101	-0.049
-332.231	5.420	0.165	-0.122
-331.216	-118.769	0.159	0.028
-330.202	21.810	0.269	-0.219
-329.187	782.666	0.066	-0.181
-328.172	800.000	0.044	0.129
-327.158	-200.000	-0.044	-0.458
-326.143	128.464	-0.131	-0.167
-325.129	51.142	0.178	0.169
-324.114	208.881	0.192	0.301
-323.099	-136.092	0.107	-0.013
-322.085	-18.396	-0.251	-0.157
-321.070	152.937	0.127	0.174
-320.056	-129.098	-0.218	0.031
-319.041	-134.850	0.273	0.033
-318.026	-200.000	0.088	0.418
-317.012	-200.000	-0.074	-0.337
-315.997	-200.000	-0.029	0.228
-314.983	-200.000	-0.014	0.359
-313.968	78.066	0.096	-0.103
-312.953	-13.025	0.047	0.030
-311.939	241.048	0.016	-0.027
-310.924	800.000	-0.023	0.091
-309.910	-200.000	-0.008	-0.170
-308.895	-16.150	0.357	-0.227
-307.880	-45.167	-0.164	0.082
-306.866	-200.000	0.031	0.219
-305.851	235.253	-0.110	0.182
-304.837	800.000	-0.020	-0.067
-303.822	-65.955	-0.244	-0.097
-302.807	137.712	0.269	0.353
-301.793	-106.445	0.260	0.058
-300.778	-27.613	-0.149	0.087
-299.764	-100.944	0.292	0.072
-298.749	-200.000	0.013	0.073
-297.735	50.210	0.317	0.299
-296.720	800.000	-0.076	0.318
-295.705	392.995	0.027	0.055
-294.691	38.430	0.254	-0.226
-293.676	-38.660	0.219	0.115
-292.662	-0.029	-0.428	0.305
-291.647	-200.000	0.023	0.200
-290.632	800.000	0.039	0.111
-289.618	153.701	0.175	-0.240
-288.603	-36.901	0.206	-0.110
-287.589	556.713	0.137	-0.329
-286.574	318.627	-0.199	-0.377
-285.559	19.031	0.138	-0.111
-284.545	-151.841	0.264	-0.019
-283.530	96.299	-0.091	0.104
-282.516	-200.000	-0.018	0.166
-281.501	-200.000	0.003	0.220
-280.486	-103.722	0.064	0.015
-279.472	-28.291	-0.213	-0.123
-278.457	51.983	0.249	-0.237
-277.443	-200.000	-0.113	-0.502
-276.428	59.015	0.100	0.098
-275.413	2.465	0.125	0.091
-274.399	-59.829	-0.208	-0.089
-273.384	-100.430	-0.134	0.033
-272.370	-52.111	0.092	0.043
-271.355	-76.931	0.394	-0.138
-270.340	6.627	-0.165	-0.122
-269.326	-137.275	-0.417	-0.047
-268.311	-98.098	0.068	-0.018
-267.297	19.355	0.133	-0.107
-266.282	728.853	0.062	-0.165
-265.267	381.116	0.019	0.039
-264.253	-74.276	0.245	-0.088
-263.238	80.317	0.180	0.194
-262.224	-155.265	-0.045	-0.003
-261.209	-49.916	-0.171	-0.081
-260.195	-109.112	-0.236	0.050
-259.180	-14.685	0.093	-0.060
-258.165	-200.000	-0.046	0.329
-257.151	-157.838	-0.323	0.019
-256.136	216.224	-0.016	0.026
-255.122	-200.000	0.027	0.189
-254.107	194.228	0.169	-0.256
-253.092	248.924	-0.075	-0.127
-252.078	-96.948	-0.150	0.039
-251.063	-128.988	-0.077	-0.011
-250.049	-31.060	0.286	0.161
-249.034	-200.000	-0.052	0.298
-248.019	-163.920	0.275	0.013
-247.005	262.050	-0.136	-0.234
-245.990	-100.151	-0.125	0.031
-244.976	269.452	0.076	-0.133
-243.961	-200.000	0.001	-0.275
-242.946	-58.079	0.307	0.134
-241.932	-76.206	-0.240	0.084
-240.917	800.000	-0.012	0.047
-239.903	-27.800	0.273	-0.158
-238.888	91.599	-0.027	-0.031
-237.873	-67.815	-0.423	0.165
-236.859	184.336	0.155	0.229
-235.844	422.895	0.053	0.114
-234.830	-83.351	0.273	-0.087
-233.815	-136.154	-0.329	-0.038
-232.800	-105.279	-0.380	-0.086
-231.786	-12.629	0.110	0.071
-230.771	52.638	-0.217	0.207
-229.757	-44.998	0.370	0.184
-228.742	60.046	0.265	-0.261
-227.727	660.835	-0.181	-0.465
-226.713	-31.710	0.101	0.056
-225.698	-32.992	-0.176	-0.097
-224.684	-118.097	0.447	0.080
-223.669	158.543	0.072	0.100
-222.655	-36.585	-0.142	-0.076
-221.640	-142.791	0.523	-0.051
-220.625	-53.140	-0.089	0.041
-219.611	122.028	0.150	-0.187
-218.596	800.000	-0.047	0.196
-217.582	-200.000	-0.018	0.233
-216.567	1.228	-0.140	-0.100
-215.552	12.398	0.027	-0.021
-214.538	-200.000	0.016	0.224
-213.523	69.372	0.141	0.145
-212.509	-69.443	0.189	0.072
-211.494	-13.718	0.371	0.239
-210.479	75.355	0.072	0.075
-209.465	-200.000	0.009	0.146
-208.450	800.000	0.025	0.090
-207.436	83.205	-0.070	-0.076
-206.421	288.975	0.085	-0.154
-205.406	-129.751	0.155	0.021
-204.392	-99.298	0.318	0.080
-203.377	-196.812	0.103	-0.001
-202.363	383.572	-0.175	0.359
-201.348	-2.920	0.417	-0.290
-200.333	549.151	0.069	0.165
-199.319	-200.000	0.109	0.582
-198.304	120.264	-0.159	0.196
-197.290	800.000	-0.082	0.230
-196.275	65.368	0.094	0.095
-195.260	-103.168	-0.347	0.082
-194.246	277.083	-0.036	-0.063
-193.231	-107.246	0.272	-0.060
-192.217	-200.000	0.028	0.176
-191.202	-87.575	0.194	-0.058
-190.187	58.844	-0.245	0.239
-189.173	608.212	-0.094	-0.234
-188.158	146.851	-0.076	-0.102
-187.144	9.086	-0.255	0.192
-186.129	-200.000	0.006	-0.116
-185.114	-6.535	-0.091	0.062
-184.100	-92.062	0.257	-0.072
-183.085	-200.000	-0.006	-0.309
-182.071	678.699	0.096	0.248
-181.056	-200.000	0.062	0.281
-180.042	-30.526	-0.100	0.056
-179.027	1.920	-0.118	0.085
-178.012	-84.076	0.132	0.042
-176.998	238.268	-0.110	0.181
-175.983	-58.289	-0.194	-0.084
-174.969	800.000	0.086	0.278
-173.954	-103.758	-0.181	-0.042
-172.939	-91.917	-0.152	-0.043
-171.925	-89.660	0.214	-0.062
-170.910	294.164	0.163	-0.297
-169.896	73.403	-0.251	-0.261
-168.881	800.000	0.059	-0.238
-167.866	-47.658	0.381	-0.184
-166.852	157.142	-0.039	0.054
-165.837	-95.403	0.208	-0.056
-164.823	800.000	0.019	-0.063
-163.808	95.490	-0.045	0.051
-162.793	477.792	0.053	0.120
-161.779	-146.611	0.153	0.013
-160.764	800.000	-0.079	-0.285
-159.750	1.309	0.232	0.166
-158.735	800.000	-0.049	0.192
-157.720	-200.000	0.036	-0.229
-156.706	-200.000	0.003	-0.271
-155.691	-200.000	-0.025	-0.266
-154.677	-2.031	-0.096	-0.067
-153.662	-19.516	0.117	0.072
-152.647	-200.000	0.007	0.057
-151.633	800.000	0.040	0.171
-150.618	-113.432	-0.290	0.057
-149.604	100.343	0.102	-0.118
-148.589	800.000	-0.073	0.288
-147.574	800.000	-0.105	0.339
-146.560	-88.267	-0.307	0.091
-145.545	266.137	0.039	-0.068
-144.531	-27.249	0.196	-0.113
-143.516	199.459	0.144	0.219
-142.502	369.016	-0.087	0.175
-141.487	136.933	0.011	-0.014
-140.472	190.968	-0.030	0.044
-139.458	-160.028	-0.457	0.025
-138.443	-153.279	-0.204	0.014
-137.429	-89.068	0.432	-0.127
-136.414	89.939	0.175	0.194
-135.399	-146.274	0.439	0.038
-134.385	33.888	-0.180	-0.155
-133.370	800.000	-0.078	-0.232
-132.356	-102.169	0.289	0.069
-131.341	-200.000	0.001	-0.225
-130.326	-101.531	0.303	0.073
-129.312	-200.000	0.005	-0.130
-128.297	276.544	0.153	0.270
-127.283	-200.000	-0.005	0.167
-126.268	800.000	-0.067	0.288
-125.253	78.656	0.124	0.132
-124.239	-38.366	-0.059	0.031
-123.224	390.960	0.059	-0.122
-122.210	-130.189	-0.196	0.026
-121.195	-200.000	-0.014	-0.248
-120.180	-200.000	0.005	-0.065
-119.166	488.383	-0.070	-0.159
-118.151	-24.809	0.269	-0.159
-117.137	105.105	-0.047	0.055
-116.122	-200.000	0.007	0.350
-115.107	-200.000	0.002	0.049
-114.093	383.455	0.115	0.234
-113.078	-27.631	0.215	0.124
-112.064	-94.075	-0.186	-0.051
-111.049	82.316	0.169	-0.182
-110.034	102.297	-0.100	-0.116
-109.020	85.713	0.066	0.072
-108.005	-115.753	0.193	-0.036
-106.991	-200.000	0.058	0.303
-105.976	785.814	0.049	-0.132
-104.962	329.904	0.054	-0.102
-103.947	800.000	0.076	-0.269
-102.932	-27.602	0.244	-0.141
-101.918	-32.027	-0.215	0.120
-100.903	-108.392	-0.211	0.045
-99.889	432.721	0.158	-0.340
-98.874	-200.000	-0.004	-0.166
-97.859	49.872	0.169	-0.158
-96.845	-130.538	-0.132	0.018
-95.830	-51.990	-0.115	-0.053
-94.816	9.987	0.081	0.061
-93.801	-200.000	0.095	-0.470
-92.786	-65.330	0.051	0.020
-91.772	341.330	0.148	0.286
-90.757	800.000	-0.077	0.314
-89.743	256.326	-0.080	-0.136
-88.728	800.000	-0.038	-0.154
-87.713	15.057	-0.201	0.156
-86.699	401.920	-0.128	-0.267
-85.684	800.000	0.102	0.328
-84.670	-4.503	-0.218	-0.149
-83.655	800.000	0.116	-0.488
-82.640	326.163	-0.166	-0.314
-81.626	-200.000	-0.014	-0.217
-80.611	800.000	0.023	0.083
-79.597	-27.679	0.100	0.058
-78.582	-127.710	0.427	-0.061
-77.567	175.565	0.125	-0.179
-76.553	-200.000	-0.041	0.269
-75.538	-92.685	0.231	-0.064
-74.524	-132.293	0.226	-0.029
-73.509	120.892	0.091	-0.113
-72.494	30.182	-0.124	0.105
-71.480	34.219	-0.156	-0.135
-70.465	800.000	-0.029	-0.106
-69.451	-200.000	0.029	0.147
-68.436	-0.878	0.126	0.089
-67.422	329.674	-0.082	0.156
-66.407	195.933	-0.138	0.209
-65.392	-70.687	-0.326	-0.122
-64.378	-111.403	-0.334	0.067
-63.363	3.413	-0.188	0.136
-62.349	-17.927	-0.281	-0.174
-61.334	293.180	-0.515	-0.931
-60.319	-86.678	0.599	0.182
-59.305	460.787	-0.422	-0.931
-58.290	450.281	0.444	0.970
-57.276	411.817	0.763	1.605
-56.261	-200.000	95.199	586.642
-55.246	652.472	1368.883	3474.643
-54.232	195.750	2551.094	3841.300
-53.217	110.548	2300.609	2738.552
-52.203	39.001	2063.952	1826.525
-51.188	34.120	1979.053	1707.656
-50.173	32.549	1961.503	1678.458
-49.159	47.027	2010.495	1851.332
-48.144	48.485	2027.928	1880.472
-47.130	34.639	1990.008	1721.519
-46.115	32.333	1979.585	1691.714
-45.100	32.208	1977.248	1688.529
-44.086	32.174	1975.045	1686.279
-43.071	32.062	1972.173	1682.756
-42.057	32.102	1969.555	1680.808
-41.042	32.101	1967.810	1679.246
-40.027	32.156	1965.488	1677.689
-39.013	32.206	1963.566	1676.432
-37.998	32.189	1962.129	1674.980
-36.984	32.235	1960.624	1674.039
-35.969	32.266	1958.355	1672.313
-34.954	32.346	1956.319	1671.221
-33.940	32.242	1955.170	1669.250
-32.925	32.309	1953.336	1668.208
-31.911	32.378	1951.608	1667.279
-30.896	32.303	1950.606	1665.695
-29.881	32.374	1948.387	1664.361
-28.867	32.360	1947.061	1663.042
-27.852	32.384	1944.831	1661.279
-26.838	32.321	1943.231	1659.290
-25.823	32.226	1941.822	1657.187
-24.809	32.382	1939.885	1656.840
-23.794	32.318	1938.687	1655.185
-22.779	32.342	1935.723	1652.802
-21.765	32.288	1934.527	1651.245
-20.750	32.318	1932.586	1649.778
-19.736	32.300	1931.470	1648.606
-18.721	32.335	1929.977	1647.569
-17.706	32.397	1927.608	1646.029
-16.692	32.287	1926.651	1644.180
-15.677	32.308	1924.930	1642.833
-14.663	32.392	1923.314	1642.124
-13.648	32.317	1922.566	1640.767
-12.633	32.363	1921.446	1640.142
-11.619	32.309	1920.246	1638.580
-10.604	32.403	1918.122	1637.526
-9.590	32.319	1917.018	1635.788
-8.575	32.344	1915.744	1634.846
-7.560	32.342	1914.060	1633.330
-6.546	32.330	1913.117	1632.359
-5.531	32.326	1912.203	1631.475
-4.517	32.352	1910.872	1630.505
-3.502	32.265	1909.721	1628.702
-2.487	32.317	1908.520	1628.064
-1.473	32.388	1907.867	1628.057
-0.458	32.284	1903.645	1623.495
0.556	31.964	1883.258	1597.028
1.571	27.862	1864.220	1546.098
2.586	23.869	1886.835	1530.417
3.600	22.776	1922.577	1549.681
4.615	22.268	1916.287	1540.027
5.629	17.123	1816.548	1416.924
6.644	8.836	1699.366	1260.463
7.659	4.978	1663.956	1204.329
8.673	4.720	1660.674	1199.856
9.688	4.614	1659.444	1198.045
10.702	4.694	1657.840	1197.394
11.717	4.573	1655.262	1194.498
12.731	5.130	1653.871	1197.662
13.746	10.477	1666.630	1248.055
14.761	17.640	1682.171	1315.052
15.775	19.725	1684.131	1332.562
16.790	18.915	1681.428	1324.070
17.804	17.783	1677.938	1312.493
18.819	16.746	1674.567	1301.780
19.834	16.151	1672.319	1295.345
20.848	15.949	1670.535	1292.298
21.863	15.534	1669.674	1288.339
22.877	15.372	1668.086	1285.756
23.892	15.232	1666.235	1283.144
24.907	15.087	1665.387	1281.271
25.921	15.121	1664.230	1280.526
26.936	15.109	1663.042	1279.402
27.950	15.214	1661.783	1279.126
28.965	15.195	1661.577	1278.709
29.980	15.223	1660.789	1278.205
30.994	15.372	1659.960	1278.585
32.009	15.343	1659.469	1277.873
33.023	15.352	1658.520	1277.097
34.038	15.396	1657.402	1276.457
35.053	15.405	1655.907	1275.261
36.067	15.293	1654.966	1273.574
37.082	15.276	1653.767	1272.409
38.096	15.365	1652.210	1271.771
39.111	15.317	1651.964	1271.112
40.126	15.402	1651.057	1270.944
41.140	15.443	1650.035	1270.355
42.155	15.205	1648.969	1267.618
43.169	15.067	1647.622	1265.433
44.184	15.029	1646.382	1264.081
45.199	14.987	1645.284	1262.809
46.213	15.070	1643.714	1262.116
47.228	15.044	1642.990	1261.254
48.242	15.113	1641.686	1260.659
49.257	15.245	1640.843	1260.891
50.271	15.257	1639.209	1259.614
51.286	15.200	1638.235	1258.329
52.301	15.231	1636.957	1257.464
53.315	15.227	1635.709	1256.365
54.330	15.193	1634.075	1254.748
55.344	15.107	1632.248	1252.588
56.359	15.109	1631.291	1251.763
57.374	15.148	1629.552	1250.607
58.388	15.067	1629.024	1249.487
59.403	15.074	1627.539	1248.285
60.417	14.915	1626.443	1246.149
61.432	15.029	1625.060	1245.830
62.447	14.983	1623.650	1244.298
63.461	14.939	1622.519	1242.993
64.476	14.908	1621.687	1242.020
65.490	14.892	1619.953	1240.461
66.505	14.864	1619.154	1239.528
67.520	14.886	1618.156	1238.820
68.534	14.967	1616.970	1238.405
69.549	14.913	1616.331	1237.404
70.563	14.875	1614.942	1235.949
71.578	14.954	1613.148	1235.051
72.593	14.912	1612.442	1234.093
73.607	14.757	1612.031	1232.524
74.622	14.752	1610.525	1231.226
75.636	14.842	1609.370	1230.898
76.651	14.784	1608.547	1229.731
77.666	14.787	1608.065	1229.279
78.680	14.762	1606.904	1228.097
79.695	14.830	1606.123	1227.894
80.709	14.879	1604.875	1227.184
81.724	14.855	1604.765	1226.817
82.739	14.897	1603.662	1226.171
83.753	15.024	1602.270	1225.935
84.768	15.106	1601.654	1225.954
85.782	15.142	1601.180	1225.747
86.797	15.284	1600.169	1225.901
87.812	15.285	1599.461	1225.255
88.826	15.209	1598.228	1223.649
89.841	15.165	1596.775	1222.108
90.855	15.154	1596.073	1221.379
91.870	15.256	1594.808	1221.050
92.884	15.242	1594.055	1220.266
93.899	15.283	1593.468	1220.004
94.914	15.262	1592.166	1218.747
95.928	15.408	1590.418	1218.359
96.943	15.338	1589.464	1217.017
97.957	15.343	1587.962	1215.795
98.972	15.271	1586.401	1213.971
99.987	15.186	1585.075	1212.234
101.001	15.309	1583.274	1211.634
102.016	15.214	1582.283	1210.082
103.030	15.185	1580.709	1208.561
104.045	15.223	1579.341	1207.687
105.060	15.230	1578.261	1206.804
106.074	15.269	1576.735	1205.808
107.089	15.153	1575.053	1203.586
108.103	14.987	1573.890	1201.397
109.118	14.931	1572.233	1199.625
110.133	14.962	1571.004	1198.799
111.147	14.964	1569.569	1197.616
112.162	14.868	1568.947	1196.348
113.176	14.912	1566.839	1194.950
114.191	14.997	1565.723	1194.602
115.206	15.087	1564.384	1194.115
116.220	14.941	1563.253	1192.107
117.235	15.018	1562.032	1191.613
118.249	15.011	1560.686	1190.437
119.264	15.055	1559.023	1189.375
120.279	14.955	1558.061	1187.826
121.293	14.957	1556.256	1186.356
122.308	14.970	1554.910	1185.317
123.322	14.961	1553.075	1183.749
124.337	14.829	1552.205	1182.049
125.352	14.811	1551.168	1181.030
126.366	14.832	1549.797	1180.026
127.381	14.877	1548.435	1179.204
128.395	14.941	1547.170	1178.584
129.410	14.851	1546.504	1177.343
130.424	14.874	1544.894	1176.174
131.439	14.973	1543.508	1175.709
132.454	14.981	1541.867	1174.412
133.468	15.033	1540.635	1173.733
134.483	15.012	1539.367	1172.514
135.497	14.986	1538.274	1171.400
136.512	14.970	1536.963	1170.184
137.527	15.117	1535.346	1169.876
138.541	15.120	1533.958	1168.734
139.556	15.149	1532.421	1167.667
140.570	15.116	1531.272	1166.454
141.585	15.211	1529.856	1165.934
142.600	15.251	1529.249	1165.651
143.614	15.308	1528.367	1165.265
144.629	15.342	1526.722	1164.150
145.643	15.436	1525.265	1163.587
146.658	15.375	1524.369	1162.379
147.673	15.460	1522.292	1161.275
148.687	15.265	1521.100	1158.915
149.702	15.207	1520.075	1157.636
150.716	15.256	1517.934	1156.237
151.731	15.241	1516.642	1155.047
152.746	15.156	1515.630	1153.591
153.760	15.168	1514.284	1152.546
154.775	15.191	1512.762	1151.445
155.789	15.329	1511.686	1151.467
156.804	15.435	1510.385	1151.106
157.819	15.441	1509.205	1150.147
158.833	15.367	1507.947	1148.579
159.848	15.447	1506.961	1148.275
160.862	15.515	1505.773	1147.730
161.877	15.584	1504.372	1147.034
162.892	15.448	1503.768	1145.542
163.906	15.330	1502.116	1143.379
164.921	15.193	1501.358	1141.766
165.935	15.253	1499.672	1140.794
166.950	15.305	1499.103	1140.609
167.964	15.337	1498.205	1140.046
168.979	15.445	1496.335	1139.251
169.994	15.461	1495.501	1138.630
171.008	15.419	1494.576	1137.540
172.023	15.361	1493.868	1136.503
173.037	15.428	1492.425	1135.761
174.052	15.490	1491.872	1135.658
175.067	15.527	1490.773	1134.973
176.081	15.480	1489.591	1133.653
177.096	15.477	1487.940	1132.275
178.110	15.306	1487.087	1130.373
179.125	15.361	1485.837	1129.695
180.140	15.404	1484.512	1128.878
181.154	15.480	1483.438	1128.469
182.169	15.528	1482.393	1127.895
183.183	15.573	1480.964	1127.011
184.198	15.586	1480.518	1126.661
185.213	15.519	1479.468	1125.311
186.227	15.644	1478.169	1125.062
187.242	15.687	1477.108	1124.445
188.256	15.725	1476.004	1123.757
189.271	15.738	1474.988	1122.968
190.286	15.765	1474.134	1122.400
191.300	15.693	1472.855	1120.851
192.315	15.580	1471.625	1119.061
193.329	15.372	1470.298	1116.571
194.344	15.377	1469.039	1115.547
195.359	15.368	1468.358	1114.873
196.373	15.449	1467.402	1114.582
197.388	15.562	1466.184	1114.312
198.402	15.644	1465.169	1113.987
199.417	15.773	1464.199	1114.004
200.432	15.863	1463.492	1113.964
201.446	15.919	1462.455	1113.447
202.461	15.995	1461.487	1113.110
203.475	16.049	1460.222	1112.402
204.490	16.068	1458.934	1111.453
205.504	16.067	1457.922	1110.573
206.519	15.909	1457.480	1109.102
207.534	15.804	1456.013	1107.194
208.548	15.863	1454.694	1106.479
209.563	15.917	1453.259	1105.646
210.577	15.772	1452.950	1104.359
211.592	15.918	1451.859	1104.392
212.607	15.944	1450.940	1103.767
213.621	16.095	1450.378	1104.229
214.636	16.063	1449.407	1103.183
215.650	16.047	1448.417	1102.227
216.665	16.090	1447.388	1101.624
217.680	16.039	1446.958	1100.871
218.694	16.165	1446.326	1101.111
219.709	16.157	1445.355	1100.227
220.723	16.230	1444.293	1099.791
221.738	16.051	1443.687	1098.068
222.753	16.124	1442.777	1097.755
223.767	16.097	1441.822	1096.756
224.782	16.142	1440.871	1096.231
225.796	16.165	1440.216	1095.781
226.811	16.254	1439.086	1095.401
227.826	16.282	1438.321	1094.908
228.840	16.210	1437.712	1093.878
229.855	16.233	1436.354	1092.896
230.869	16.248	1435.027	1091.886
231.884	16.204	1434.357	1090.997
232.899	16.131	1433.163	1089.524
233.913	16.124	1432.173	1088.625
234.928	16.079	1430.843	1087.227
235.942	16.074	1429.084	1085.764
236.957	16.099	1428.241	1085.187
237.972	16.110	1426.928	1084.163
238.986	16.086	1426.068	1083.259
240.001	16.162	1425.164	1082.966
241.015	16.067	1424.034	1081.405
242.030	16.112	1423.207	1080.966
243.045	16.183	1422.199	1080.561
244.059	16.283	1421.268	1080.400
245.074	16.272	1420.666	1079.774
246.088	16.287	1419.833	1079.144
247.103	16.245	1419.339	1078.401
248.117	16.345	1418.490	1078.304
249.132	16.364	1417.750	1077.762
250.147	16.457	1417.297	1077.917
251.161	16.680	1416.377	1078.547
252.176	16.719	1415.948	1078.373
253.190	16.799	1414.841	1077.938
254.205	16.795	1414.120	1077.272
255.220	16.826	1413.388	1076.813
256.234	16.825	1412.554	1076.076
257.249	16.792	1411.763	1075.167
258.263	16.810	1410.762	1074.424
259.278	16.903	1409.649	1074.075
260.293	16.867	1408.472	1072.853
261.307	16.859	1408.195	1072.498
262.322	16.962	1407.397	1072.448
263.336	17.050	1406.320	1072.087
264.351	16.954	1405.775	1070.971
265.366	16.978	1404.900	1070.362
266.380	17.050	1403.703	1069.808
267.395	17.080	1402.923	1069.309
268.409	17.014	1402.095	1068.168
269.424	17.024	1400.781	1067.135
270.439	16.966	1399.501	1065.696
271.453	16.984	1398.747	1065.141
272.468	16.813	1398.641	1063.892
273.482	16.916	1397.400	1063.502
274.497	16.930	1396.393	1062.729
275.512	16.926	1395.471	1061.911
276.526	16.834	1394.540	1060.532
277.541	16.866	1393.635	1059.950
278.555	16.987	1393.009	1060.138
279.570	16.980	1392.133	1059.331
280.585	17.006	1390.888	1058.451
281.599	17.116	1390.335	1058.622
282.614	17.132	1389.389	1057.912
283.628	17.142	1388.394	1057.120
284.643	17.138	1387.024	1055.960
285.657	17.112	1386.115	1055.014
286.672	17.012	1385.264	1053.647
287.687	17.086	1384.069	1053.104
288.701	17.116	1383.020	1052.401
289.716	17.098	1382.454	1051.764
290.730	17.136	1381.840	1051.441
291.745	17.124	1380.793	1050.476
292.760	17.196	1379.696	1049.998
293.774	17.209	1378.874	1049.355
294.789	17.244	1377.974	1048.794
295.803	17.283	1377.146	1048.314
296.818	17.319	1376.285	1047.788
297.833	17.255	1375.386	1046.617
298.847	17.245	1374.356	1045.677
299.862	17.201	1373.297	1044.509
300.876	17.241	1372.398	1043.979
301.891	17.214	1371.561	1043.084
302.906	17.379	1370.638	1043.301
303.920	17.424	1370.051	1043.035
304.935	17.510	1369.393	1042.970
305.949	17.494	1368.864	1042.377
306.964	17.518	1367.755	1041.587
307.979	17.618	1366.847	1041.416
308.993	17.617	1365.659	1040.415
310.008	17.533	1365.414	1039.618
311.022	17.532	1364.166	1038.575
312.037	17.620	1362.998	1038.130
313.052	17.779	1361.697	1038.012
314.066	17.584	1361.106	1036.286
315.081	17.540	1359.489	1034.695
316.095	17.483	1358.741	1033.689
317.110	17.457	1357.609	1032.579
318.125	17.412	1356.705	1031.524
319.139	17.486	1356.047	1031.381
320.154	17.410	1355.041	1030.065
321.168	17.505	1353.933	1029.704
322.183	17.445	1352.997	1028.539
323.197	17.542	1352.196	1028.424
324.212	17.489	1351.563	1027.534
325.227	17.546	1350.428	1026.922
326.241	17.491	1349.897	1026.101
327.256	17.517	1349.069	1025.534
328.270	17.534	1348.061	1024.777
329.285	17.612	1346.730	1024.147
330.300	17.555	1346.357	1023.428
331.314	17.503	1345.367	1022.273
332.329	17.555	1344.263	1021.658
333.343	17.563	1343.551	1021.071
334.358	17.659	1342.612	1020.843
335.373	17.631	1342.056	1020.163
336.387	17.719	1340.844	1019.675
337.402	17.781	1339.949	1019.278
338.416	17.874	1339.037	1019.047
339.431	17.784	1338.989	1018.384
340.446	17.873	1338.214	1018.237
341.460	17.843	1337.310	1017.278
342.475	17.861	1336.487	1016.671
343.489	18.008	1335.436	1016.656
344.504	17.938	1334.945	1015.774
345.519	18.024	1333.844	1015.359
346.533	18.124	1332.695	1014.991
347.548	18.130	1331.894	1014.325
348.562	18.145	1331.470	1014.004
349.577	18.239	1329.928	1013.292
350.592	18.175	1329.343	1012.379
351.606	17.977	1328.927	1010.804
352.621	17.932	1327.684	1009.499
353.635	17.884	1326.339	1008.102
354.650	17.956	1325.905	1008.111
355.665	17.993	1324.878	1007.458
356.679	18.021	1323.366	1006.386
357.694	18.134	1322.110	1006.004
358.708	18.020	1321.703	1004.938
359.723	18.125	1320.188	1004.309
360.738	18.249	1319.319	1004.290
361.752	18.167	1318.635	1003.198
362.767	18.078	1317.637	1001.832
363.781	18.110	1316.662	1001.187
364.796	18.161	1315.748	1000.702
365.810	18.097	1314.964	999.642
366.825	18.260	1314.452	1000.119
367.840	18.322	1314.006	1000.051
368.854	18.348	1313.373	999.633
369.869	18.427	1312.740	999.527
370.883	18.494	1311.823	999.127
371.898	18.459	1311.146	998.320
372.913	18.408	1310.716	997.607
373.927	18.338	1309.328	996.058
374.942	18.459	1308.365	995.938
375.956	18.304	1308.379	994.959
376.971	18.533	1307.014	995.163
377.986	18.557	1305.816	994.300
379.000	18.491	1305.416	993.529
380.015	18.451	1304.955	992.859
381.029	18.594	1304.162	992.994
382.044	18.708	1303.364	992.961
383.059	18.699	1302.495	992.158
384.073	18.704	1302.045	991.755
385.088	18.590	1301.584	990.655
386.102	18.665	1300.598	990.250
387.117	18.704	1299.922	989.876
388.132	18.659	1298.954	988.791
389.146	18.655	1298.163	988.079
390.161	18.650	1296.760	986.895
391.175	18.532	1296.441	985.886
392.190	18.538	1296.000	985.499
393.205	18.547	1294.971	984.677
394.219	18.796	1293.698	985.051
395.234	18.764	1292.679	984.006
396.248	18.720	1291.058	982.435
397.263	18.660	1290.138	981.303
398.278	18.651	1288.879	980.205
399.292	18.668	1287.750	979.360
400.307	18.656	1286.493	978.249
401.321	18.577	1285.442	976.912
402.336	18.593	1284.692	976.348
403.350	18.576	1283.474	975.237
404.365	18.532	1282.970	974.521
405.380	18.530	1282.057	973.729
406.394	18.625	1281.120	973.467
407.409	18.640	1280.554	973.037
408.423	18.776	1279.784	973.139
409.438	18.818	1279.541	973.102
410.453	18.883	1278.220	972.382
411.467	18.941	1278.007	972.463
412.482	19.065	1277.367	972.587
413.496	18.968	1276.560	971.340
414.511	19.135	1275.827	971.642
415.526	19.107	1274.873	970.667
416.540	19.092	1274.759	970.414
417.555	19.276	1273.587	970.473
418.569	19.205	1273.337	969.796
419.584	19.135	1272.900	968.979
420.599	19.103	1272.104	968.109
421.613	140.830	1430.923	1793.922
422.628	135.425	1454.023	1794.045
