DTS Sentinel unit serial number:	SN413079Multiplexer serial number:	ORYXHardware model number:	OX4-SRSoftware version number:	ORYX F/W v4.00 Oryx Data Collector v3.7.2.0data status	okinstallation	princeton_trtdifferential loss correction	single-endedforward channel	channel 4reverse channel	N/Adate	2019/09/11time	13:07:11forward acquisition time	60.00reverse acquisition time	0.00gamma	496.2192k internal	0.2283k external	0.2283temperature offset calibration	0.9988default loss term (dB/km)	0.3790temperature slope calibration	1.0000multiplexer offset coefficient	1.0000multiplexer slope coefficient	1.0000fibre end	0.00T internal ref (°C)	41.78T ext. ref 1 (°C)	0.59T ext. ref 2 (°C)	39.10length (m)	temperature (°C)	Stokes	anti-Stokes-747.200	30.568	0.020	0.018
-746.185	-70.282	-0.269	-0.105
-745.171	-200.000	0.009	-0.191
-744.156	255.583	-0.252	0.443
-743.142	-0.273	-0.063	0.046
-742.127	26.103	-0.243	0.208
-741.112	-200.000	-0.020	0.122
-740.098	26.845	-0.095	-0.082
-739.083	325.719	-0.085	0.168
-738.069	540.404	-0.057	0.139
-737.054	-200.000	-0.060	0.376
-736.039	-113.465	0.054	-0.011
-735.025	292.003	0.148	0.276
-734.010	-200.000	-0.005	-0.087
-732.996	140.346	-0.317	-0.430
-731.981	-153.892	-0.500	0.035
-730.966	119.416	0.031	0.040
-729.952	-200.000	0.049	0.251
-728.937	-38.480	-0.215	0.117
-727.923	-32.859	-0.442	-0.252
-726.908	-149.815	-0.127	0.010
-725.894	139.595	-0.097	-0.131
-724.879	-43.830	-0.383	-0.198
-723.864	-50.597	0.272	-0.132
-722.850	-129.099	-0.162	0.023
-721.835	-111.304	-0.069	0.015
-720.821	-200.000	0.034	0.154
-719.806	-182.762	-0.103	0.002
-718.791	-50.492	0.095	-0.046
-717.777	-200.000	0.007	0.096
-716.762	-182.466	-0.228	-0.004
-715.748	-200.000	0.008	0.061
-714.733	543.357	-0.122	0.298
-713.718	216.862	-0.116	0.189
-712.704	-13.891	-0.033	-0.022
-711.689	230.757	-0.171	0.287
-710.675	310.986	0.181	0.348
-709.660	800.000	0.035	-0.134
-708.645	-200.000	-0.161	-0.000
-707.631	800.000	0.086	0.320
-706.616	-72.529	-0.067	-0.025
-705.602	-161.251	-0.114	0.006
-704.587	-83.295	0.113	-0.037
-703.572	587.216	-0.143	-0.360
-702.558	-103.214	-0.110	-0.027
-701.543	-29.623	-0.020	0.012
-700.529	-94.195	-0.034	-0.010
-699.514	-135.840	-0.175	0.021
-698.499	-11.160	0.052	0.035
-697.485	259.729	-0.034	0.060
-696.470	-139.300	-0.117	0.013
-695.456	800.000	0.088	-0.277
-694.441	-16.981	-0.361	-0.234
-693.426	-139.500	0.130	0.014
-692.412	-111.526	0.073	-0.015
-691.397	-52.494	0.063	-0.030
-690.383	-169.772	-0.317	-0.012
-689.368	-95.857	-0.306	0.084
-688.354	157.456	-0.043	-0.061
-687.339	-34.980	0.027	-0.015
-686.324	52.701	0.320	0.313
-685.310	-52.738	0.246	0.116
-684.295	-42.460	-0.105	-0.055
-683.281	-84.099	0.188	-0.061
-682.266	40.740	0.159	-0.147
-681.251	-153.443	0.281	-0.020
-680.237	-50.524	0.086	-0.042
-679.222	-75.727	0.301	-0.109
-678.208	-8.042	-0.225	0.156
-677.193	57.802	-0.098	-0.098
-676.178	-198.243	0.400	-0.002
-675.164	-127.776	-0.291	-0.043
-674.149	552.987	0.191	-0.470
-673.135	-159.600	0.274	-0.016
-672.120	-90.379	-0.215	0.064
-671.105	-32.250	-0.185	-0.106
-670.091	205.939	0.128	-0.204
-669.076	800.000	0.041	-0.121
-668.062	800.000	-0.077	-0.237
-667.047	29.391	0.210	0.183
-666.032	-75.898	0.162	0.059
-665.018	-168.294	-0.270	-0.011
-664.003	-126.812	0.115	0.017
-662.989	432.668	0.225	0.500
-661.974	-200.000	-0.019	-0.144
-660.959	800.000	0.064	-0.227
-659.945	-190.897	-0.469	-0.005
-658.930	-200.000	-0.011	0.071
-657.916	63.896	0.249	0.256
-656.901	-109.256	-0.326	0.071
-655.886	-79.342	-0.274	-0.095
-654.872	800.000	-0.059	-0.194
-653.857	189.886	-0.169	0.260
-652.843	-92.488	-0.186	0.054
-651.828	-154.735	0.183	0.012
-650.814	-68.916	0.139	0.055
-649.799	234.378	0.014	-0.024
-648.784	26.505	-0.127	-0.109
-647.770	54.825	-0.133	-0.131
-646.755	800.000	0.077	-0.252
-645.741	-73.852	0.179	-0.067
-644.726	-159.589	-0.279	0.016
-643.711	264.154	0.131	0.234
-642.697	-125.548	0.094	-0.015
-641.682	-200.000	-0.060	-0.275
-640.668	-62.919	-0.185	0.078
-639.653	-20.902	0.247	-0.155
-638.638	451.798	-0.161	-0.364
-637.624	-41.233	-0.158	-0.084
-636.609	-200.000	-0.011	-0.155
-635.595	-63.936	0.089	0.037
-634.580	-93.989	-0.342	-0.096
-633.565	289.517	0.147	0.273
-632.551	48.939	-0.087	0.084
-631.536	201.122	-0.079	-0.125
-630.522	466.546	0.193	-0.442
-629.507	214.159	0.160	-0.259
-628.492	65.879	-0.023	0.024
-627.478	-111.978	0.072	-0.015
-626.463	-179.889	-0.189	0.004
-625.449	38.016	-0.091	-0.083
-624.434	-46.138	0.085	-0.043
-623.419	800.000	-0.094	-0.373
-622.405	800.000	-0.073	0.214
-621.390	800.000	0.092	0.322
-620.376	15.626	0.137	0.110
-619.361	-200.000	0.010	-0.352
-618.346	-7.364	-0.102	-0.071
-617.332	800.000	-0.096	-0.291
-616.317	-200.000	0.031	-0.582
-615.303	-82.781	0.451	-0.149
-614.288	-112.471	0.155	0.032
-613.273	-97.726	-0.316	-0.084
-612.259	800.000	-0.014	-0.044
-611.244	-200.000	0.064	-0.362
-610.230	800.000	0.071	-0.241
-609.215	787.101	0.072	0.203
-608.201	-64.683	-0.102	-0.042
-607.186	800.000	-0.076	-0.246
-606.171	-167.594	0.102	-0.004
-605.157	-46.427	-0.325	-0.163
-604.142	800.000	0.111	-0.400
-603.128	-200.000	0.010	0.097
-602.113	268.018	0.100	-0.179
-601.098	-200.000	0.010	-0.267
-600.084	795.811	-0.117	0.331
-599.069	-200.000	0.078	-0.377
-598.055	-200.000	0.011	-0.248
-597.040	-200.000	0.004	0.132
-596.025	-200.000	-0.085	0.424
-595.011	-43.283	0.331	-0.171
-593.996	387.261	0.073	0.155
-592.982	-41.329	-0.377	-0.198
-591.967	376.024	0.071	-0.148
-590.952	-11.562	0.451	-0.303
-589.938	-152.727	0.314	0.023
-588.923	-200.000	0.048	0.392
-587.909	125.252	0.075	0.096
-586.894	288.106	-0.109	0.202
-585.879	800.000	-0.044	0.190
-584.865	-200.000	-0.011	0.207
-583.850	51.496	0.039	-0.038
-582.836	-138.658	-0.155	0.017
-581.821	-121.406	-0.078	0.013
-580.806	-126.130	0.191	0.029
-579.792	76.736	0.212	-0.229
-578.777	-200.000	0.236	0.001
-577.763	-200.000	-0.034	-0.338
-576.748	-36.547	0.399	0.219
-575.733	-146.263	0.227	0.020
-574.719	-18.984	0.201	-0.128
-573.704	92.345	-0.087	-0.101
-572.690	-200.000	0.003	-0.093
-571.675	169.667	0.081	-0.118
-570.661	-200.000	0.015	-0.221
-569.646	-200.000	0.015	-0.223
-568.631	-200.000	-0.003	-0.163
-567.617	-43.265	-0.039	0.020
-566.602	-164.360	0.295	0.014
-565.588	-57.597	-0.294	0.131
-564.573	296.217	-0.104	0.194
-563.558	360.328	0.088	-0.179
-562.544	-200.000	-0.007	0.059
-561.529	240.766	-0.099	0.169
-560.515	83.936	0.026	0.028
-559.500	-177.490	0.368	0.009
-558.485	-40.109	0.220	-0.117
-557.471	4.860	-0.233	0.175
-556.456	-44.454	0.105	-0.054
-555.442	-39.169	-0.299	-0.160
-554.427	-50.729	0.146	-0.070
-553.412	-200.000	0.004	-0.289
-552.398	-200.000	-0.036	-0.316
-551.383	-200.000	-0.015	-0.109
-550.369	-129.294	-0.238	-0.034
-549.354	-200.000	-0.044	0.349
-548.339	-116.257	0.412	-0.078
-547.325	-106.290	-0.162	0.037
-546.310	-123.600	0.343	0.056
-545.296	-200.000	0.044	0.211
-544.281	-61.967	-0.069	-0.029
-543.266	-83.983	-0.207	-0.067
-542.252	800.000	0.026	-0.073
-541.237	11.909	0.121	-0.095
-540.223	-35.093	0.170	0.094
-539.208	-48.239	-0.139	0.068
-538.193	-178.576	-0.163	0.004
-537.179	-29.502	-0.249	-0.145
-536.164	800.000	-0.005	-0.017
-535.150	-63.384	0.198	0.083
-534.135	-84.612	-0.144	0.046
-533.121	136.746	0.047	-0.062
-532.106	397.094	0.063	-0.135
-531.091	-200.000	0.012	-0.282
-530.077	53.145	0.100	-0.097
-529.062	-63.558	-0.216	-0.091
-528.048	-157.887	0.116	-0.007
-527.033	61.299	0.178	-0.180
-526.018	-200.000	-0.041	0.212
-525.004	-81.249	0.197	0.066
-523.989	-200.000	0.035	0.427
-522.975	500.152	-0.076	0.178
-521.960	-200.000	-0.016	0.135
-520.945	483.498	-0.079	-0.183
-519.931	627.376	-0.022	-0.056
-518.916	-200.000	-0.003	-0.039
-517.902	-71.745	-0.140	0.053
-516.887	157.744	0.049	0.069
-515.872	23.514	-0.100	0.084
-514.858	-200.000	0.036	0.233
-513.843	79.981	-0.335	-0.367
-512.829	-145.116	-0.200	0.019
-511.814	52.033	0.086	0.084
-510.799	-34.300	0.193	0.108
-509.785	242.338	-0.185	0.315
-508.770	39.557	0.122	0.111
-507.756	135.803	-0.085	-0.113
-506.741	153.104	-0.035	0.049
-505.726	-200.000	0.041	-0.213
-504.712	-142.609	-0.436	0.043
-503.697	-88.601	-0.204	-0.062
-502.683	13.072	-0.179	0.141
-501.668	263.737	-0.142	-0.252
-500.653	-96.767	0.231	0.062
-499.639	-66.959	-0.045	-0.018
-498.624	23.571	-0.102	0.086
-497.610	-200.000	0.016	0.237
-496.595	-200.000	0.012	0.138
-495.581	-116.551	-0.201	-0.038
-494.566	-33.439	0.211	-0.119
-493.551	800.000	-0.036	-0.119
-492.537	117.448	-0.105	0.132
-491.522	-200.000	-0.036	-0.248
-490.508	-26.658	0.196	-0.117
-489.493	-33.040	-0.179	0.101
-488.478	-200.000	0.010	-0.332
-487.464	-42.946	0.124	0.064
-486.449	-200.000	0.034	-0.210
-485.435	50.256	0.104	0.100
-484.420	64.940	0.262	-0.269
-483.405	-158.286	0.120	-0.007
-482.391	-84.283	-0.094	0.030
-481.376	-171.283	-0.260	0.009
-480.362	361.913	-0.076	0.155
-479.347	-83.840	0.144	-0.047
-478.332	737.487	-0.065	0.176
-477.318	800.000	-0.013	-0.052
-476.303	-51.640	-0.154	0.073
-475.289	-176.236	-0.401	-0.011
-474.274	164.354	-0.150	0.215
-473.259	19.697	-0.139	-0.113
-472.245	-96.046	-0.290	-0.078
-471.230	131.620	0.032	-0.042
-470.216	-200.000	0.011	-0.050
-469.201	344.068	-0.110	0.220
-468.186	330.377	-0.131	0.257
-467.172	-87.924	0.130	0.040
-466.157	-149.302	-0.258	-0.021
-465.143	-3.393	-0.131	0.093
-464.128	-80.626	-0.184	0.062
-463.113	136.712	0.035	0.047
-462.099	-8.530	0.041	-0.028
-461.084	58.043	-0.315	-0.313
-460.070	-34.920	-0.346	0.192
-459.055	-142.813	0.451	0.045
-458.040	473.165	0.085	0.194
-457.026	226.098	0.116	0.191
-456.011	-161.629	0.080	-0.004
-454.997	-122.827	0.215	-0.035
-453.982	-177.164	-0.392	0.010
-452.968	-105.368	0.188	-0.043
-451.953	800.000	-0.151	0.477
-450.938	188.037	0.158	-0.241
-449.924	117.981	0.056	0.070
-448.909	-96.323	-0.327	0.088
-447.895	-200.000	0.029	-0.151
-446.880	-13.761	0.243	0.159
-445.865	30.475	0.196	-0.170
-444.851	-53.224	-0.152	-0.071
-443.836	-200.000	0.008	-0.149
-442.822	800.000	-0.074	0.263
-441.807	-200.000	0.008	-0.131
-440.792	-59.030	-0.173	-0.076
-439.778	44.137	0.257	-0.239
-438.763	-48.276	0.131	-0.064
-437.749	-94.040	0.239	-0.067
-436.734	800.000	-0.096	-0.405
-435.719	-127.891	-0.101	0.015
-434.705	201.143	0.065	0.102
-433.690	-82.338	0.255	0.084
-432.676	-29.310	-0.225	0.131
-431.661	-80.928	-0.361	0.122
-430.646	-200.000	0.024	0.200
-429.632	-200.000	0.009	-0.289
-428.617	-119.807	0.307	0.054
-427.603	177.929	-0.070	-0.104
-426.588	5.017	-0.282	-0.210
-425.573	-121.706	-0.229	0.038
-424.559	-200.000	0.004	0.170
-423.544	-200.000	-0.004	0.512
-422.530	138.458	-0.131	-0.175
-421.515	73.783	-0.185	-0.197
-420.500	238.145	0.019	-0.032
-419.486	348.631	0.200	-0.401
-418.471	51.054	0.220	-0.212
-417.457	-200.000	-0.070	0.337
-416.442	88.562	0.137	-0.154
-415.428	-200.000	0.012	0.146
-414.413	-70.817	0.246	-0.094
-413.398	800.000	0.011	0.040
-412.384	-200.000	0.015	0.432
-411.369	235.186	0.190	0.319
-410.355	-50.687	-0.189	0.090
-409.340	2.833	-0.170	-0.125
-408.325	388.553	-0.165	-0.346
-407.311	-193.336	0.235	-0.002
-406.296	800.000	-0.059	0.248
-405.282	-89.497	0.384	0.114
-404.267	96.208	0.106	0.122
-403.252	-41.507	-0.273	0.142
-402.238	-66.680	-0.357	0.144
-401.223	66.470	0.146	-0.150
-400.209	133.355	-0.093	0.121
-399.194	-200.000	0.033	0.221
-398.179	-103.427	0.276	-0.066
-397.165	71.186	-0.288	0.303
-396.150	113.293	0.035	-0.043
-395.136	-40.282	0.222	-0.117
-394.121	-200.000	0.028	0.126
-393.106	800.000	0.044	-0.134
-392.092	-200.000	-0.030	0.315
-391.077	137.168	0.191	-0.254
-390.063	-200.000	-0.037	-0.203
-389.048	68.581	0.109	-0.114
-388.033	-78.927	-0.417	0.144
-387.019	-64.324	-0.226	-0.093
-386.004	78.176	0.221	0.239
-384.990	-15.729	0.191	0.123
-383.975	-59.522	-0.127	-0.055
-382.960	-72.322	-0.408	0.153
-381.946	-53.781	0.363	0.168
-380.931	720.384	0.022	0.059
-379.917	147.459	0.143	-0.195
-378.902	140.351	-0.056	0.075
-377.888	129.105	-0.188	0.244
-376.873	-200.000	0.063	-0.290
-375.858	-87.812	-0.441	-0.134
-374.844	-46.273	0.313	-0.156
-373.829	-37.821	-0.164	0.088
-372.815	800.000	0.074	0.294
-371.800	-93.081	-0.340	0.096
-370.785	81.111	0.198	-0.217
-369.771	-196.535	0.193	0.001
-368.756	352.171	-0.123	-0.247
-367.742	-200.000	-0.014	-0.190
-366.727	-200.000	0.037	0.305
-365.712	18.023	-0.350	0.282
-364.698	645.961	0.024	-0.062
-363.683	-200.000	-0.004	0.207
-362.669	800.000	0.167	0.469
-361.654	-94.071	-0.215	0.060
-360.639	800.000	0.086	0.252
-359.625	-97.226	-0.343	0.091
-358.610	-200.000	0.012	0.197
-357.596	150.241	-0.108	-0.148
-356.581	800.000	-0.079	0.273
-355.566	31.146	0.017	-0.015
-354.552	66.918	0.159	0.164
-353.537	-168.310	0.216	0.008
-352.523	800.000	0.107	-0.376
-351.508	-89.262	0.418	-0.125
-350.493	-164.394	-0.212	-0.010
-349.479	86.283	0.089	0.099
-348.464	-200.000	-0.100	0.530
-347.450	-17.907	0.207	0.132
-346.435	-200.000	-0.005	0.293
-345.420	213.448	-0.107	0.171
-344.406	665.318	0.045	0.117
-343.391	800.000	0.033	0.114
-342.377	-103.915	-0.323	0.076
-341.362	428.170	-0.104	0.227
-340.348	-61.398	0.487	0.207
-339.333	-9.792	-0.157	-0.106
-338.318	-200.000	-0.005	-0.253
-337.304	-14.400	-0.153	0.100
-336.289	203.304	-0.084	-0.131
-335.275	-40.500	-0.304	0.160
-334.260	55.438	-0.099	-0.097
-333.245	-109.812	-0.095	-0.020
-332.231	159.356	-0.119	0.167
-331.216	5.497	0.299	0.223
-330.202	-73.777	0.040	0.015
-329.187	172.382	-0.210	0.305
-328.172	-32.926	0.194	-0.109
-327.158	714.088	0.130	-0.347
-326.143	-111.097	0.443	0.092
-325.129	-70.344	-0.289	0.111
-324.114	212.558	0.070	-0.112
-323.099	-36.764	-0.138	0.075
-322.085	297.777	0.132	0.244
-321.070	-200.000	-0.012	0.209
-320.056	-158.833	-0.316	0.018
-319.041	267.933	0.191	0.338
-318.026	-149.278	0.051	0.004
-317.012	329.429	-0.125	0.243
-315.997	626.341	-0.098	-0.250
-314.983	81.212	-0.261	-0.285
-313.968	-173.006	0.409	-0.013
-312.953	800.000	-0.118	0.403
-311.939	-70.952	0.446	-0.170
-310.924	800.000	-0.053	0.220
-309.910	800.000	0.058	-0.201
-308.895	-76.690	0.180	-0.064
-307.880	-40.700	0.189	-0.099
-306.866	800.000	0.084	0.324
-305.851	362.780	-0.107	-0.217
-304.837	-97.089	0.121	0.032
-303.822	81.717	0.385	-0.421
-302.807	266.753	-0.137	-0.241
-301.793	1.200	-0.242	-0.175
-300.778	70.732	-0.151	0.157
-299.764	-28.481	0.177	-0.103
-298.749	-128.273	-0.083	0.012
-297.735	-200.000	-0.089	0.483
-296.720	447.884	0.059	-0.131
-295.705	-132.247	0.169	-0.022
-294.691	107.450	-0.113	-0.136
-293.676	800.000	-0.061	0.205
-292.662	234.018	-0.070	0.116
-291.647	28.266	-0.119	0.102
-290.632	-68.699	0.389	0.152
-289.618	19.778	-0.249	-0.202
-288.603	-43.207	-0.246	0.126
-287.589	-73.813	0.442	-0.162
-286.574	-200.000	0.004	0.171
-285.559	543.526	-0.074	0.179
-284.545	800.000	0.012	0.037
-283.530	102.263	-0.060	-0.071
-282.516	583.923	-0.117	-0.290
-281.501	-146.546	0.213	0.019
-280.486	-39.407	0.346	0.183
-279.472	442.058	-0.083	0.184
-278.457	79.383	-0.062	0.067
-277.443	-65.635	-0.149	0.060
-276.428	55.410	0.204	0.199
-275.413	-200.000	0.053	0.292
-274.399	-41.514	0.197	0.102
-273.384	91.129	0.359	-0.406
-272.370	392.289	-0.062	0.129
-271.355	800.000	-0.018	-0.075
-270.340	800.000	0.021	-0.074
-269.326	-45.888	0.172	-0.086
-268.311	-107.278	0.413	0.092
-267.297	-200.000	-0.022	0.417
-266.282	62.243	0.329	0.331
-265.267	800.000	-0.055	-0.164
-264.253	-146.362	-0.195	-0.017
-263.238	97.315	0.237	0.274
-262.224	50.811	-0.121	-0.116
-261.209	-200.000	-0.136	-0.001
-260.195	-37.858	-0.172	-0.093
-259.180	800.000	-0.060	-0.179
-258.165	-50.794	0.335	-0.159
-257.151	407.095	-0.128	0.273
-256.136	-200.000	-0.037	0.204
-255.122	16.009	-0.107	0.085
-254.107	-109.240	0.191	0.041
-253.092	-38.141	-0.117	-0.063
-252.078	144.979	0.233	-0.314
-251.063	64.067	0.160	-0.162
-250.049	-200.000	-0.045	-0.260
-249.034	-200.000	0.003	0.067
-248.019	98.631	-0.290	-0.337
-247.005	8.238	0.173	-0.131
-245.990	96.790	-0.095	-0.110
-244.976	-86.884	0.265	-0.082
-243.961	-11.372	-0.064	-0.042
-242.946	-44.991	0.182	-0.091
-241.932	-96.109	0.213	-0.057
-240.917	-72.685	-0.110	0.041
-239.903	-59.414	-0.163	-0.070
-238.888	800.000	0.078	0.286
-237.873	65.081	-0.379	0.386
-236.859	800.000	0.125	0.406
-235.844	157.955	0.189	0.265
-234.830	-84.175	0.117	-0.037
-233.815	-160.192	-0.307	0.017
-232.800	-107.128	-0.270	-0.060
-231.786	397.798	-0.091	0.191
-230.771	387.075	-0.110	0.229
-229.757	-200.000	-0.027	0.121
-228.742	-49.163	0.312	-0.150
-227.727	-200.000	0.048	-0.235
-226.713	-96.494	-0.255	-0.068
-225.698	33.118	-0.155	0.135
-224.684	18.702	-0.076	0.061
-223.669	-102.791	-0.181	-0.043
-222.655	800.000	0.013	0.046
-221.640	390.392	0.054	0.113
-220.625	73.844	-0.326	0.345
-219.611	-200.000	0.009	0.060
-218.596	-33.312	-0.355	-0.198
-217.582	688.246	-0.054	0.143
-216.567	-24.885	0.061	0.036
-215.552	102.276	0.135	0.159
-214.538	-149.950	0.128	-0.010
-213.523	197.496	0.153	0.235
-212.509	608.588	0.138	-0.346
-211.494	650.100	0.080	0.206
-210.479	-84.554	-0.138	-0.044
-209.465	263.284	0.177	-0.309
-208.450	148.047	-0.094	-0.128
-207.436	29.800	-0.099	0.085
-206.421	-20.409	-0.288	-0.178
-205.406	-11.904	-0.277	-0.183
-204.392	-200.000	0.049	-0.000
-203.377	-200.000	0.060	0.317
-202.363	-16.177	0.203	0.130
-201.348	-64.942	0.244	-0.099
-200.333	36.284	-0.125	0.111
-199.319	-94.999	0.223	0.061
-198.304	11.120	0.169	0.130
-197.290	-70.635	0.104	0.039
-196.275	800.000	0.055	-0.227
-195.260	-80.724	0.234	-0.078
-194.246	36.126	0.176	-0.156
-193.231	-124.847	-0.169	-0.026
-192.217	15.540	-0.134	0.106
-191.202	-200.000	0.004	-0.421
-190.187	-118.115	-0.291	-0.052
-189.173	-104.661	0.085	-0.020
-188.158	301.076	-0.041	0.076
-187.144	126.546	0.192	0.245
-186.129	-44.987	-0.089	0.044
-185.114	-19.511	-0.128	-0.079
-184.100	361.631	0.114	0.229
-183.085	-200.000	0.057	-0.313
-182.071	216.207	0.102	0.162
-181.056	167.148	-0.156	-0.223
-180.042	-5.395	-0.212	-0.146
-179.027	47.404	0.320	0.299
-178.012	-83.253	-0.143	0.046
-176.998	800.000	-0.057	-0.184
-175.983	-200.000	0.013	-0.111
-174.969	-29.444	0.262	-0.151
-173.954	-194.087	-0.357	0.003
-172.939	307.100	-0.134	-0.251
-171.925	-116.777	-0.244	-0.045
-170.910	-86.527	-0.005	-0.001
-169.896	-200.000	0.044	0.237
-168.881	112.764	0.192	-0.234
-167.866	800.000	-0.056	0.184
-166.852	-165.259	-0.131	-0.006
-165.837	391.365	0.155	0.323
-164.823	-73.934	-0.336	0.122
-163.808	26.637	0.203	-0.171
-162.793	3.417	-0.018	-0.013
-161.779	160.212	0.192	-0.269
-160.764	0.564	-0.036	0.026
-159.750	170.537	-0.045	0.065
-158.735	214.652	-0.278	-0.442
-157.720	6.545	0.186	-0.139
-156.706	36.668	0.120	-0.106
-155.691	-116.319	-0.324	0.060
-154.677	-40.117	0.025	-0.013
-153.662	49.067	-0.063	-0.060
-152.647	-200.000	0.057	-0.253
-151.633	800.000	0.091	-0.253
-150.618	661.705	-0.130	0.337
-149.604	-66.288	0.263	-0.105
-148.589	-49.940	0.202	0.096
-147.574	41.361	-0.171	-0.156
-146.560	7.740	-0.245	0.185
-145.545	-42.038	0.284	-0.146
-144.531	-72.914	0.344	0.127
-143.516	158.870	0.123	0.171
-142.502	108.890	-0.021	-0.025
-141.487	-49.798	-0.270	0.129
-140.472	203.654	0.160	-0.249
-139.458	-31.258	0.046	-0.026
-138.443	72.118	-0.298	-0.312
-137.429	79.824	0.198	-0.213
-136.414	-114.947	0.252	0.048
-135.399	-54.764	0.388	0.176
-134.385	42.976	0.255	0.234
-133.370	-200.000	-0.029	0.234
-132.356	297.205	-0.087	0.160
-131.341	-89.586	0.361	0.106
-130.326	-200.000	-0.010	-0.054
-129.312	32.166	-0.246	-0.213
-128.297	800.000	0.020	0.069
-127.283	-200.000	0.007	-0.298
-126.268	11.245	-0.053	0.041
-125.253	136.684	-0.100	0.131
-124.239	-66.550	-0.282	-0.112
-123.224	437.479	0.095	-0.208
-122.210	-46.820	-0.404	0.198
-121.195	-71.392	-0.411	-0.154
-120.180	320.271	0.215	0.409
-119.166	-72.452	-0.028	-0.010
-118.151	27.194	0.204	-0.172
-117.137	45.923	-0.163	0.151
-116.122	800.000	0.049	-0.192
-115.107	559.232	-0.035	0.086
-114.093	800.000	0.026	0.081
-113.078	-9.820	0.093	-0.062
-112.064	94.151	0.160	-0.182
-111.049	-84.645	-0.360	-0.114
-110.034	-136.513	0.224	-0.026
-109.020	-14.745	-0.271	0.174
-108.005	227.847	-0.196	0.320
-106.991	800.000	-0.030	0.104
-105.976	178.733	0.038	0.055
-104.962	-200.000	0.036	-0.256
-103.947	269.613	0.057	0.100
-102.932	505.018	0.048	0.111
-101.918	-117.185	0.275	0.050
-100.903	-200.000	0.001	0.053
-99.889	56.580	0.214	-0.209
-98.874	5.187	-0.065	-0.048
-97.859	-162.496	-0.305	-0.015
-96.845	119.597	-0.121	0.150
-95.830	-200.000	-0.083	-0.422
-94.816	131.485	-0.177	-0.228
-93.801	127.967	-0.221	-0.281
-92.786	-200.000	-0.055	0.260
-91.772	-72.636	-0.347	0.128
-90.757	-48.971	0.168	-0.081
-89.743	228.014	0.120	-0.195
-88.728	209.693	-0.093	-0.146
-87.713	800.000	-0.090	-0.296
-86.699	205.994	-0.048	0.074
-85.684	185.464	0.127	-0.189
-84.670	-200.000	-0.014	0.204
-83.655	-157.090	-0.158	0.010
-82.640	-200.000	-0.028	-0.301
-81.626	16.394	0.299	0.236
-80.611	-200.000	-0.075	0.330
-79.597	202.099	0.140	0.216
-78.582	151.112	-0.205	0.280
-77.567	-200.000	0.002	0.244
-76.553	-200.000	0.033	-0.169
-75.538	-200.000	0.119	-0.599
-74.524	800.000	-0.148	-0.421
-73.509	-46.020	0.291	0.144
-72.494	387.260	-0.068	-0.141
-71.480	275.257	-0.062	0.110
-70.465	129.106	0.216	0.276
-69.451	82.867	-0.142	-0.154
-68.436	-167.509	0.093	-0.004
-67.422	123.116	0.273	-0.343
-66.407	-67.180	0.377	0.149
-65.392	-47.188	-0.186	-0.091
-64.378	764.953	0.062	0.168
-63.363	336.078	-0.052	0.102
-62.349	800.000	-0.067	-0.255
-61.334	63.920	-0.633	-0.637
-60.319	-77.718	0.295	0.102
-59.305	180.137	-0.378	-0.555
-58.290	259.795	0.607	1.048
-57.276	800.000	0.559	1.639
-56.261	-200.000	74.970	520.538
-55.246	545.513	1301.867	3112.731
-54.232	142.953	2557.130	3401.240
-53.217	108.636	2393.383	2859.745
-52.203	48.785	2133.622	2002.051
-51.188	43.778	2041.430	1869.388
-50.173	41.965	2022.600	1835.459
-49.159	53.796	2060.294	1979.227
-48.144	58.719	2081.210	2044.764
-47.130	44.599	2045.489	1880.397
-46.115	41.885	2033.840	1844.631
-45.100	41.715	2031.504	1840.872
-44.086	41.727	2029.005	1838.646
-43.071	41.607	2026.958	1835.617
-42.057	41.685	2024.366	1833.911
-41.042	41.662	2022.667	1832.087
-40.027	41.725	2020.484	1830.617
-39.013	41.711	2018.373	1828.505
-37.998	41.731	2016.854	1827.233
-36.984	41.722	2014.778	1825.203
-35.969	41.769	2013.248	1824.167
-34.954	41.708	2011.473	1821.931
-33.940	41.802	2009.802	1821.208
-32.925	41.830	2008.007	1819.757
-31.911	41.768	2006.519	1817.772
-30.896	41.754	2004.809	1816.026
-29.881	41.795	2003.405	1815.058
-28.867	41.783	2001.413	1813.068
-27.852	41.862	1999.550	1812.025
-26.838	41.849	1997.449	1809.932
-25.823	41.833	1995.579	1808.023
-24.809	41.817	1994.326	1806.675
-23.794	41.911	1991.987	1805.329
-22.779	41.809	1990.521	1803.004
-21.765	41.792	1988.817	1801.238
-20.750	41.753	1987.005	1799.174
-19.736	41.782	1985.711	1798.195
-18.721	41.850	1984.173	1797.343
-17.706	41.780	1982.562	1795.182
-16.692	41.856	1980.306	1793.750
-15.677	41.782	1978.844	1791.689
-14.663	41.771	1977.723	1790.507
-13.648	41.782	1976.669	1789.579
-12.633	41.817	1975.209	1788.500
-11.619	41.713	1974.211	1786.593
-10.604	41.859	1972.412	1786.199
-9.590	41.696	1971.597	1783.935
-8.575	41.760	1969.723	1782.744
-7.560	41.793	1968.560	1781.912
-6.546	41.791	1967.011	1780.418
-5.531	41.789	1965.815	1779.246
-4.517	41.868	1964.424	1778.623
-3.502	41.773	1963.213	1776.609
-2.487	41.794	1961.841	1775.485
-1.473	41.855	1960.807	1775.021
-0.458	41.958	1956.929	1772.355
0.556	40.749	1938.037	1749.324
1.571	37.035	1918.697	1699.244
2.586	32.763	1940.255	1680.225
3.600	31.333	1977.637	1699.454
4.615	30.131	1974.428	1685.619
5.629	22.437	1866.221	1526.680
6.644	8.551	1731.735	1304.036
7.659	1.415	1684.969	1211.930
8.673	0.714	1680.680	1203.160
9.688	0.624	1679.583	1201.551
10.702	0.558	1677.966	1199.762
11.717	0.455	1675.157	1196.830
12.731	0.861	1674.339	1199.365
13.746	8.745	1694.260	1276.567
14.761	19.895	1719.767	1385.428
15.775	23.980	1726.486	1423.475
16.790	24.109	1725.608	1423.657
17.804	24.241	1725.086	1424.151
18.819	24.206	1723.990	1422.845
19.834	24.381	1723.413	1423.632
20.848	24.524	1722.854	1424.189
21.863	24.554	1721.756	1423.395
22.877	24.564	1720.718	1422.493
23.892	24.609	1719.797	1421.961
24.907	24.521	1719.331	1420.751
25.921	24.531	1717.596	1419.267
26.936	24.551	1717.004	1418.814
27.950	24.533	1715.836	1417.581
28.965	24.585	1715.233	1417.369
29.980	24.524	1714.648	1416.273
30.994	24.475	1713.059	1414.453
32.009	24.567	1711.472	1413.743
33.023	24.537	1711.177	1413.135
34.038	24.614	1709.382	1412.140
35.053	24.447	1708.983	1410.362
36.067	24.525	1707.791	1409.875
37.082	24.518	1706.948	1408.992
38.096	24.552	1706.153	1408.479
39.111	24.555	1705.262	1407.645
40.126	24.463	1704.368	1406.056
41.140	24.485	1703.714	1405.571
42.155	24.526	1702.216	1404.534
43.169	24.458	1701.527	1403.303
44.184	24.447	1700.279	1402.064
45.199	24.591	1698.763	1401.815
46.213	24.532	1697.365	1400.078
47.228	24.537	1696.507	1399.287
48.242	24.409	1695.948	1397.701
49.257	24.559	1694.609	1397.644
50.271	24.545	1693.266	1396.305
51.286	24.523	1691.984	1394.953
52.301	24.523	1690.534	1393.630
53.315	24.500	1689.177	1392.208
54.330	24.578	1687.686	1391.469
55.344	24.496	1686.638	1389.842
56.359	24.537	1684.331	1388.139
57.374	24.647	1683.686	1388.340
58.388	24.508	1683.424	1386.915
59.403	24.582	1681.719	1385.965
60.417	24.598	1680.598	1385.039
61.432	24.588	1679.541	1383.974
62.447	24.625	1678.521	1383.294
63.461	24.596	1677.273	1381.919
64.476	24.608	1676.657	1381.385
65.490	24.576	1675.791	1380.298
66.505	24.600	1674.792	1379.537
67.520	24.584	1673.274	1378.046
68.534	24.611	1672.423	1377.430
69.549	24.649	1671.045	1376.469
70.563	24.579	1670.293	1375.189
71.578	24.558	1669.124	1373.940
72.593	24.582	1667.715	1372.839
73.607	24.609	1667.253	1372.549
74.622	24.625	1665.904	1371.435
75.636	24.474	1665.619	1369.922
76.651	24.577	1664.325	1369.528
77.666	24.617	1663.363	1368.921
78.680	24.559	1662.942	1368.006
79.695	24.592	1661.810	1367.211
80.709	24.616	1660.853	1366.485
81.724	24.630	1660.268	1365.987
82.739	24.529	1659.291	1364.292
83.753	24.543	1658.315	1363.478
84.768	24.600	1657.143	1362.825
85.782	24.555	1656.204	1361.594
86.797	24.625	1655.487	1361.419
87.812	24.538	1654.804	1360.074
88.826	24.568	1653.700	1359.272
89.841	24.572	1652.732	1358.389
90.855	24.573	1651.483	1357.244
91.870	24.541	1650.607	1356.161
92.884	24.629	1649.225	1355.578
93.899	24.535	1648.462	1354.115
94.914	24.677	1646.679	1353.604
95.928	24.625	1645.878	1352.433
96.943	24.646	1644.467	1351.319
97.957	24.591	1643.671	1350.127
98.972	24.658	1641.986	1349.126
99.987	24.611	1640.720	1347.612
101.001	24.610	1638.818	1345.929
102.016	24.577	1637.784	1344.712
103.030	24.545	1636.547	1343.334
104.045	24.510	1635.828	1342.360
105.060	24.599	1634.251	1341.618
106.074	24.598	1632.614	1340.148
107.089	24.645	1631.321	1339.321
108.103	24.647	1630.632	1338.653
109.118	24.548	1629.618	1336.956
110.133	24.588	1628.030	1335.834
111.147	24.612	1626.668	1334.783
112.162	24.687	1625.617	1334.357
113.176	24.607	1624.697	1332.889
114.191	24.644	1623.719	1332.246
115.206	24.732	1621.966	1331.344
116.220	24.652	1621.301	1330.083
117.235	24.636	1620.015	1328.789
118.249	24.660	1618.969	1327.999
119.264	24.713	1617.579	1327.135
120.279	24.575	1616.944	1325.466
121.293	24.691	1615.219	1324.794
122.308	24.619	1614.300	1323.396
123.322	24.813	1612.452	1323.197
124.337	24.731	1611.590	1321.769
125.352	24.661	1610.917	1320.581
126.366	24.764	1609.507	1320.065
127.381	24.769	1608.790	1319.399
128.395	24.705	1608.131	1318.267
129.410	24.790	1606.770	1317.663
130.424	24.725	1605.549	1316.066
131.439	24.769	1604.145	1315.120
132.454	24.776	1603.249	1314.325
133.468	24.722	1602.166	1312.921
134.483	24.836	1600.483	1312.266
135.497	24.736	1599.432	1310.552
136.512	24.718	1598.128	1309.238
137.527	24.735	1596.998	1308.322
138.541	24.750	1595.779	1307.312
139.556	24.666	1594.810	1305.791
140.570	24.745	1593.642	1305.295
141.585	24.793	1592.028	1304.211
142.600	24.662	1591.236	1302.492
143.614	24.695	1589.952	1301.566
144.629	24.676	1588.788	1300.360
145.643	24.870	1587.119	1300.286
146.658	24.649	1586.192	1297.806
147.673	24.712	1584.700	1296.927
148.687	24.694	1583.843	1295.984
149.702	24.715	1583.073	1295.387
150.716	24.694	1581.584	1293.905
151.731	24.691	1580.243	1292.673
152.746	24.733	1579.330	1292.112
153.760	24.732	1577.347	1290.372
154.775	24.633	1577.250	1289.464
155.789	24.831	1575.734	1289.539
156.804	24.801	1574.605	1288.281
157.819	24.781	1573.230	1286.901
158.833	24.785	1572.268	1286.029
159.848	24.817	1571.439	1285.465
160.862	24.818	1570.296	1284.426
161.877	24.781	1569.644	1283.513
162.892	24.867	1568.545	1283.115
163.906	24.801	1567.509	1281.684
164.921	24.801	1566.824	1281.011
165.935	24.761	1566.206	1280.104
166.950	24.786	1565.039	1279.212
167.964	24.807	1563.729	1278.183
168.979	24.786	1562.888	1277.233
169.994	24.826	1562.167	1276.816
171.008	24.896	1560.817	1276.094
172.023	24.930	1559.958	1275.521
173.037	24.899	1559.081	1274.473
174.052	24.883	1557.926	1273.301
175.067	24.822	1557.143	1272.119
176.081	24.923	1556.153	1271.915
177.096	24.989	1554.895	1271.242
178.110	24.945	1553.409	1269.600
179.125	24.848	1553.081	1268.530
180.140	24.901	1552.189	1268.064
181.154	24.845	1551.339	1266.862
182.169	24.914	1550.508	1266.563
183.183	24.870	1549.435	1265.265
184.198	24.905	1548.601	1264.718
185.213	24.870	1547.648	1263.577
186.227	24.933	1546.721	1263.156
187.242	24.922	1545.674	1262.114
188.256	24.878	1545.219	1261.315
189.271	25.053	1543.853	1261.323
190.286	25.013	1543.096	1260.308
191.300	24.974	1542.369	1259.331
192.315	24.995	1541.796	1258.902
193.329	24.988	1540.493	1257.678
194.344	25.022	1539.119	1256.677
195.359	24.880	1539.103	1255.561
196.373	25.034	1538.153	1255.755
197.388	24.887	1537.604	1254.163
198.402	24.876	1536.291	1252.904
199.417	24.926	1535.487	1252.489
200.432	24.962	1534.358	1251.709
201.446	24.958	1533.776	1251.095
202.461	24.922	1532.877	1249.998
203.475	25.035	1531.873	1249.859
204.490	24.950	1531.118	1248.541
205.504	24.892	1530.582	1247.588
206.519	24.929	1529.733	1247.041
207.534	25.041	1528.418	1246.638
208.548	25.080	1527.651	1246.174
209.563	24.966	1527.004	1244.743
210.577	25.078	1525.680	1244.331
211.592	25.059	1525.069	1243.596
212.607	24.977	1524.833	1242.721
213.621	25.079	1523.926	1242.579
214.636	25.149	1522.660	1241.924
215.650	25.107	1522.045	1241.021
216.665	25.144	1520.864	1240.206
217.680	25.170	1520.366	1239.867
218.694	25.043	1519.718	1238.348
219.709	25.101	1519.292	1238.292
220.723	25.085	1518.363	1237.317
221.738	25.168	1517.002	1236.670
222.753	25.125	1516.321	1235.708
223.767	24.984	1515.248	1233.757
224.782	24.962	1514.578	1232.950
225.796	25.066	1513.937	1233.038
226.811	25.178	1512.916	1232.866
227.826	25.030	1512.693	1231.553
228.840	25.150	1511.591	1231.372
229.855	25.164	1510.879	1230.778
230.869	25.135	1509.694	1229.510
231.884	25.145	1508.966	1228.873
232.899	25.243	1507.466	1228.212
233.913	25.105	1506.545	1226.410
234.928	25.036	1506.136	1225.495
235.942	25.167	1504.624	1225.053
236.957	25.220	1503.537	1224.420
237.972	25.297	1502.102	1223.674
238.986	25.154	1501.600	1222.181
240.001	25.211	1500.764	1221.777
241.015	25.210	1499.896	1220.957
242.030	25.248	1498.928	1220.319
243.045	25.435	1497.342	1220.188
244.059	25.418	1497.023	1219.706
245.074	25.390	1496.115	1218.671
246.088	25.353	1495.502	1217.814
247.103	25.399	1494.634	1217.306
248.117	25.342	1494.040	1216.332
249.132	25.362	1493.000	1215.515
250.147	25.389	1492.311	1215.023
251.161	25.355	1491.623	1214.129
252.176	25.442	1490.910	1214.031
253.190	25.462	1490.081	1213.380
254.205	25.505	1489.126	1212.787
255.220	25.501	1488.185	1211.883
256.234	25.323	1487.704	1210.187
257.249	25.425	1486.640	1209.900
258.263	25.484	1486.180	1209.818
259.278	25.421	1485.330	1208.594
260.293	25.482	1484.334	1208.084
261.307	25.396	1483.857	1207.014
262.322	25.454	1483.152	1206.722
263.336	25.418	1482.410	1205.768
264.351	25.509	1481.099	1205.206
265.366	25.463	1480.349	1204.184
266.380	25.455	1479.474	1203.310
267.395	25.529	1478.356	1202.790
268.409	25.539	1478.209	1202.634
269.424	25.515	1476.833	1201.243
270.439	25.455	1476.023	1200.080
271.453	25.520	1474.817	1199.423
272.468	25.579	1473.984	1199.033
273.482	25.514	1473.812	1198.357
274.497	25.545	1472.756	1197.595
275.512	25.516	1471.894	1196.596
276.526	25.558	1471.476	1196.431
277.541	25.599	1470.359	1195.690
278.555	25.532	1469.481	1194.425
279.570	25.530	1468.993	1193.908
280.585	25.585	1468.248	1193.563
281.599	25.578	1467.408	1192.728
282.614	25.580	1466.455	1191.862
283.628	25.572	1465.191	1190.676
284.643	25.585	1464.482	1190.078
285.657	25.607	1463.426	1189.264
286.672	25.627	1462.585	1188.607
287.687	25.590	1461.739	1187.569
288.701	25.635	1460.880	1187.063
289.716	25.733	1459.903	1186.809
290.730	25.730	1459.575	1186.422
291.745	25.672	1458.775	1185.284
292.760	25.696	1457.741	1184.494
293.774	25.640	1456.871	1183.316
294.789	25.830	1455.592	1183.418
295.803	25.779	1454.910	1182.425
296.818	25.727	1454.329	1181.505
297.833	25.759	1453.402	1180.860
298.847	25.798	1452.449	1180.240
299.862	25.746	1452.169	1179.567
300.876	25.883	1450.679	1179.145
301.891	25.764	1449.890	1177.623
302.906	25.745	1449.419	1177.013
303.920	25.946	1448.460	1177.439
304.935	25.885	1448.132	1176.675
305.949	25.912	1447.215	1176.000
306.964	25.984	1446.120	1175.473
307.979	25.848	1445.857	1174.273
308.993	25.881	1444.568	1173.337
310.008	25.901	1443.948	1172.856
311.022	25.956	1442.960	1172.306
312.037	25.951	1441.775	1171.208
313.052	25.961	1440.787	1170.369
314.066	25.962	1440.153	1169.752
315.081	25.995	1439.297	1169.170
316.095	25.978	1438.311	1168.156
317.110	26.080	1437.199	1167.808
318.125	25.915	1436.782	1166.303
319.139	25.981	1435.792	1165.817
320.154	26.047	1434.641	1165.209
321.168	25.951	1434.043	1164.001
322.183	26.020	1432.900	1163.413
323.197	25.966	1432.271	1162.451
324.212	26.010	1431.035	1161.633
325.227	26.014	1430.572	1161.178
326.241	26.060	1429.726	1160.682
327.256	26.111	1428.685	1160.065
328.270	26.187	1427.945	1159.849
329.285	26.106	1427.424	1158.801
330.300	26.169	1426.278	1158.176
331.314	26.214	1425.268	1157.541
332.329	26.115	1425.055	1156.628
333.343	26.077	1424.130	1155.534
334.358	26.199	1423.748	1155.902
335.373	26.232	1422.444	1154.955
336.387	26.181	1422.139	1154.275
337.402	26.248	1421.583	1154.150
338.416	26.249	1420.937	1153.530
339.431	26.186	1420.627	1152.778
340.446	26.287	1419.764	1152.619
341.460	26.257	1418.787	1151.529
342.475	26.278	1417.674	1150.658
343.489	26.256	1417.060	1149.920
344.504	26.236	1416.121	1148.931
345.519	26.306	1415.031	1148.386
346.533	26.190	1414.649	1147.241
347.548	26.326	1413.303	1146.910
348.562	26.298	1412.174	1145.713
349.577	26.366	1411.426	1145.435
350.592	26.398	1411.138	1145.303
351.606	26.333	1410.362	1144.159
352.621	26.238	1409.017	1142.365
353.635	26.234	1408.165	1141.550
354.650	26.258	1407.709	1141.229
355.665	26.325	1406.598	1140.656
356.679	26.341	1405.325	1139.622
357.694	26.362	1404.301	1138.822
358.708	26.540	1403.198	1138.948
359.723	26.481	1402.490	1137.900
360.738	26.383	1401.310	1136.228
361.752	26.433	1400.097	1135.454
362.767	26.394	1398.923	1134.160
363.781	26.421	1398.092	1133.555
364.796	26.424	1397.389	1132.902
365.810	26.462	1396.968	1132.698
366.825	26.521	1396.140	1132.298
367.840	26.493	1395.323	1131.356
368.854	26.496	1394.821	1130.869
369.869	26.641	1394.127	1131.114
370.883	26.609	1393.712	1130.476
371.898	26.588	1392.625	1129.364
372.913	26.649	1391.866	1129.027
373.927	26.568	1391.523	1128.144
374.942	26.666	1390.419	1127.758
375.956	26.595	1389.749	1126.673
376.971	26.664	1388.865	1126.290
377.986	26.641	1388.092	1125.418
379.000	26.561	1387.694	1124.500
380.015	26.583	1386.800	1123.811
381.029	26.632	1386.187	1123.521
382.044	26.694	1385.728	1123.434
383.059	26.691	1384.838	1122.594
384.073	26.726	1384.021	1122.048
385.088	26.701	1383.818	1121.629
386.102	26.743	1382.865	1121.020
387.117	26.751	1382.158	1120.394
388.132	26.775	1381.502	1119.911
389.146	26.703	1380.392	1118.467
390.161	26.599	1380.355	1117.700
391.175	26.882	1379.453	1118.617
392.190	26.778	1378.630	1117.206
393.205	26.801	1377.712	1116.507
394.219	26.819	1376.745	1115.735
395.234	26.810	1375.749	1114.770
396.248	26.838	1374.818	1114.094
397.263	26.949	1373.636	1113.714
398.278	26.946	1372.750	1112.883
399.292	26.918	1372.007	1112.011
400.307	26.854	1370.900	1110.623
401.321	26.885	1370.094	1110.058
402.336	26.953	1369.495	1109.889
403.350	26.913	1368.196	1108.498
404.365	26.892	1367.260	1107.511
405.380	26.887	1366.193	1106.519
406.394	26.999	1365.442	1106.495
407.409	26.919	1364.884	1105.457
408.423	26.916	1364.452	1104.994
409.438	27.041	1363.273	1104.703
410.453	27.153	1362.260	1104.460
411.467	27.061	1362.053	1103.640
412.482	27.117	1361.205	1103.192
413.496	27.043	1360.599	1102.153
414.511	27.022	1359.937	1101.397
415.526	26.985	1359.766	1100.935
416.540	27.091	1358.638	1100.563
417.555	27.132	1357.527	1099.814
418.569	27.057	1357.531	1099.271
419.584	27.030	1357.056	1098.620
420.599	27.063	1356.510	1098.281
421.613	76.226	1324.597	1353.160
422.628	77.140	1319.939	1353.288
