DTS Sentinel unit serial number:	SN413079Multiplexer serial number:	ORYXHardware model number:	OX4-SRSoftware version number:	ORYX F/W v4.00 Oryx Data Collector v3.7.2.0data status	okinstallation	princeton_trtdifferential loss correction	single-endedforward channel	channel 4reverse channel	N/Adate	2019/09/15time	04:05:35forward acquisition time	60.00reverse acquisition time	0.00gamma	496.2192k internal	0.2309k external	0.2309temperature offset calibration	1.0031default loss term (dB/km)	0.3790temperature slope calibration	1.0000multiplexer offset coefficient	1.0000multiplexer slope coefficient	1.0000fibre end	0.00T internal ref (°C)	30.94T ext. ref 1 (°C)	4.64T ext. ref 2 (°C)	25.84length (m)	temperature (°C)	Stokes	anti-Stokes-747.200	-86.762	0.231	0.072
-746.185	52.543	-0.131	0.127
-745.171	-200.000	-0.025	-0.355
-744.156	-200.000	0.012	-0.256
-743.142	392.563	-0.089	-0.187
-742.127	190.809	0.130	-0.199
-741.112	-164.902	-0.166	-0.008
-740.098	-81.605	0.179	-0.060
-739.083	800.000	-0.020	0.089
-738.069	-109.923	0.117	0.025
-737.054	-200.000	0.032	0.171
-736.039	-200.000	-0.069	0.343
-735.025	-200.000	0.087	0.658
-734.010	-200.000	-0.042	-0.199
-732.996	83.470	-0.115	-0.128
-731.981	173.691	-0.050	0.073
-730.966	-81.051	-0.386	0.130
-729.952	55.284	-0.094	-0.092
-728.937	800.000	-0.134	-0.408
-727.923	-87.874	-0.333	-0.102
-726.908	43.560	-0.271	-0.252
-725.894	800.000	-0.078	-0.277
-724.879	800.000	0.054	-0.179
-723.864	-117.628	-0.463	-0.085
-722.850	171.386	-0.139	0.203
-721.835	17.932	0.201	-0.163
-720.821	696.653	0.195	-0.520
-719.806	49.574	-0.292	-0.279
-718.791	-58.285	-0.311	-0.137
-717.777	-124.677	0.131	-0.021
-716.762	49.957	-0.135	-0.129
-715.748	126.057	-0.197	0.253
-714.733	-86.445	0.160	-0.050
-713.718	800.000	0.037	-0.109
-712.704	-200.000	-0.016	-0.189
-711.689	-142.371	0.111	0.011
-710.675	167.794	0.077	-0.111
-709.660	-38.153	-0.056	0.030
-708.645	-188.487	-0.433	-0.005
-707.631	800.000	-0.050	0.215
-706.616	116.280	0.205	0.255
-705.602	-68.180	0.181	-0.071
-704.587	-87.602	0.279	0.086
-703.572	-31.501	-0.067	-0.038
-702.558	300.025	-0.115	0.214
-701.543	-200.000	-0.037	0.234
-700.529	-73.766	0.219	-0.081
-699.514	376.545	-0.102	0.211
-698.499	-200.000	0.017	-0.214
-697.485	45.032	-0.154	0.143
-696.470	-34.742	0.191	0.106
-695.456	94.623	0.132	-0.153
-694.441	8.918	-0.160	0.122
-693.426	763.520	-0.071	0.195
-692.412	186.121	-0.210	0.317
-691.397	171.131	-0.153	-0.222
-690.383	136.682	0.147	-0.195
-689.368	213.298	0.119	-0.191
-688.354	365.333	0.124	0.253
-687.339	-200.000	0.025	0.208
-686.324	800.000	0.032	-0.133
-685.310	181.095	0.091	-0.136
-684.295	-133.335	-0.177	0.023
-683.281	-200.000	-0.041	0.255
-682.266	800.000	0.125	-0.362
-681.251	-200.000	-0.014	-0.111
-680.237	-35.313	0.187	-0.103
-679.222	-151.425	-0.246	0.019
-678.208	-200.000	-0.062	0.369
-677.193	-200.000	0.031	-0.149
-676.178	-81.277	-0.349	-0.117
-675.164	232.233	0.042	-0.070
-674.149	-200.000	-0.004	-0.241
-673.135	204.855	-0.140	-0.220
-672.120	134.060	0.103	0.136
-671.105	-127.975	0.437	-0.064
-670.091	-46.363	0.031	0.015
-669.076	0.953	-0.179	-0.130
-668.062	-169.753	0.401	-0.015
-667.047	-177.341	-0.112	-0.003
-666.032	-70.933	-0.180	0.069
-665.018	-200.000	0.001	0.165
-664.003	291.109	0.072	-0.133
-662.989	-144.477	-0.220	0.021
-661.974	-200.000	-0.017	-0.132
-660.959	119.860	-0.269	-0.337
-659.945	20.669	-0.158	0.130
-658.930	104.367	0.289	-0.345
-657.916	193.774	0.020	-0.030
-656.901	800.000	-0.037	0.136
-655.886	-59.580	-0.362	-0.157
-654.872	16.595	0.182	0.146
-653.857	498.450	-0.038	0.089
-652.843	46.009	0.091	-0.085
-651.828	800.000	0.053	0.150
-650.814	-119.521	-0.079	-0.014
-649.799	343.975	0.145	0.287
-648.784	82.117	0.242	-0.265
-647.770	-80.986	-0.598	0.201
-646.755	538.904	-0.024	0.057
-645.741	21.001	0.184	-0.151
-644.726	-94.819	0.330	0.090
-643.711	135.607	-0.258	-0.339
-642.697	800.000	0.109	-0.376
-641.682	-200.000	0.055	-0.291
-640.668	-200.000	-0.033	-0.233
-639.653	-200.000	0.011	0.102
-638.638	-48.349	-0.228	0.111
-637.624	-64.394	-0.271	-0.112
-636.609	800.000	0.174	0.498
-635.595	-34.839	0.278	-0.154
-634.580	2.746	-0.192	-0.141
-633.565	29.949	0.224	0.193
-632.551	347.282	-0.139	0.276
-631.536	-87.770	0.262	-0.080
-630.522	-17.205	-0.136	-0.087
-629.507	-200.000	-0.019	0.133
-628.492	69.824	-0.086	0.089
-627.478	-121.580	-0.463	0.078
-626.463	-200.000	0.020	-0.130
-625.449	44.085	-0.097	0.090
-624.434	-69.986	-0.291	-0.112
-623.419	-118.350	0.257	0.046
-622.405	-108.148	-0.277	0.061
-621.390	-85.934	0.147	-0.046
-620.376	800.000	0.060	-0.210
-619.361	777.229	-0.049	-0.135
-618.346	-101.339	-0.139	-0.034
-617.332	-33.603	0.113	-0.063
-616.317	-35.528	-0.279	0.153
-615.303	800.000	-0.016	0.046
-614.288	-47.534	0.228	-0.112
-613.273	-200.000	0.032	-0.157
-612.259	-200.000	-0.080	0.365
-611.244	-92.055	-0.057	0.016
-610.230	-33.796	0.121	-0.068
-609.215	-11.284	0.199	-0.132
-608.201	-163.248	0.220	0.011
-607.186	243.420	0.124	0.209
-606.171	-99.549	-0.121	0.031
-605.157	226.016	-0.120	-0.196
-604.142	-168.183	0.121	0.005
-603.128	-132.320	-0.302	-0.039
-602.113	-113.904	0.183	0.036
-601.098	-74.283	-0.280	-0.102
-600.084	64.700	-0.082	-0.084
-599.069	-97.779	-0.066	0.017
-598.055	-141.068	-0.202	-0.021
-597.040	68.418	0.126	-0.130
-596.025	-200.000	0.024	0.309
-595.011	226.042	-0.233	-0.382
-593.996	-200.000	-0.004	-0.093
-592.982	34.164	-0.219	-0.193
-591.967	1.993	0.206	0.150
-590.952	-79.582	-0.291	0.099
-589.938	-25.998	-0.167	0.099
-588.923	800.000	-0.114	0.442
-587.909	46.407	0.187	0.176
-586.894	-19.991	-0.221	-0.138
-585.879	26.136	-0.066	0.056
-584.865	-200.000	-0.042	0.506
-583.850	654.985	-0.090	-0.233
-582.836	33.845	0.195	0.171
-581.821	-159.394	-0.257	-0.015
-580.806	164.886	0.141	-0.201
-579.792	779.734	0.071	-0.196
-578.777	588.008	-0.028	0.071
-577.763	166.007	0.241	0.344
-576.748	-200.000	0.034	0.196
-575.733	34.760	0.124	-0.110
-574.719	-98.351	0.097	-0.025
-573.704	-200.000	0.010	-0.212
-572.690	-200.000	-0.031	0.265
-571.675	800.000	-0.099	0.281
-570.661	800.000	0.055	0.221
-569.646	-200.000	0.069	0.426
-568.631	214.732	0.122	0.194
-567.617	179.631	-0.185	-0.274
-566.602	57.010	-0.196	-0.193
-565.588	-82.296	0.053	0.017
-564.573	-99.166	-0.281	-0.072
-563.558	118.631	0.112	0.139
-562.544	-89.358	0.376	0.112
-561.529	191.236	0.255	0.388
-560.515	-200.000	0.000	-0.105
-559.500	-145.014	-0.208	-0.019
-558.485	-81.837	0.320	0.106
-557.471	-99.567	-0.195	0.050
-556.456	28.796	-0.196	0.167
-555.442	543.290	0.062	-0.148
-554.427	-91.104	-0.300	-0.087
-553.412	800.000	0.049	-0.146
-552.398	-82.805	-0.025	0.008
-551.383	800.000	-0.097	0.271
-550.369	-146.023	0.178	-0.016
-549.354	38.685	0.236	0.212
-548.339	-200.000	0.006	-0.349
-547.325	80.194	-0.252	0.273
-546.310	-200.000	-0.009	-0.150
-545.296	-93.525	-0.256	-0.071
-544.281	152.445	-0.130	0.180
-543.266	-80.314	0.106	0.036
-542.252	-2.950	0.117	-0.082
-541.237	273.463	-0.190	0.339
-540.223	74.762	-0.142	0.151
-539.208	-200.000	0.020	0.279
-538.193	800.000	0.118	-0.408
-537.179	150.142	0.171	-0.234
-536.164	-200.000	-0.030	-0.271
-535.150	273.620	0.081	0.145
-534.135	-52.792	-0.090	-0.042
-533.121	142.068	-0.183	0.245
-532.106	513.405	-0.087	0.205
-531.091	-50.615	-0.392	-0.186
-530.077	155.117	-0.033	0.046
-529.062	-27.364	-0.194	-0.114
-528.048	-200.000	0.036	0.163
-527.033	552.702	-0.098	-0.238
-526.018	-200.000	0.022	-0.179
-525.004	800.000	-0.010	-0.037
-523.989	-77.391	0.410	-0.143
-522.975	800.000	0.072	0.259
-521.960	72.873	-0.089	0.094
-520.945	-200.000	0.015	-0.303
-519.931	353.474	0.133	-0.265
-518.916	-195.473	-0.138	-0.001
-517.902	-200.000	-0.035	-0.389
-516.887	-108.294	0.164	0.036
-515.872	49.106	-0.186	-0.176
-514.858	357.735	-0.068	-0.136
-513.843	-173.252	-0.236	-0.007
-512.829	-19.298	-0.255	-0.159
-511.814	-59.484	-0.096	0.042
-510.799	-47.974	0.185	-0.090
-509.785	-128.976	0.130	-0.018
-508.770	-21.228	0.120	0.074
-507.756	-51.331	0.272	0.128
-506.741	800.000	0.095	-0.274
-505.726	52.998	0.201	-0.194
-504.712	-200.000	0.010	0.088
-503.697	-91.863	-0.129	-0.037
-502.683	-200.000	-0.011	-0.161
-501.668	-195.145	0.215	0.002
-500.653	-129.736	-0.083	-0.012
-499.639	-96.102	-0.121	-0.032
-498.624	-74.706	-0.089	0.032
-497.610	-155.753	-0.249	0.016
-496.595	45.176	-0.103	0.095
-495.581	475.046	-0.099	0.224
-494.566	800.000	-0.065	-0.212
-493.551	258.275	-0.173	0.299
-492.537	-36.965	0.135	0.073
-491.522	31.936	0.248	-0.215
-490.508	800.000	0.014	-0.042
-489.493	100.319	0.106	0.124
-488.478	639.208	0.070	-0.179
-487.464	491.944	-0.091	0.209
-486.449	-42.183	0.361	0.185
-485.435	-200.000	-0.026	0.135
-484.420	-182.423	0.095	-0.002
-483.405	-77.751	-0.156	0.054
-482.391	-200.000	0.002	-0.139
-481.376	800.000	-0.068	-0.263
-480.362	360.213	0.033	-0.066
-479.347	800.000	0.042	-0.131
-478.332	348.573	0.142	-0.281
-477.318	6.339	-0.127	-0.095
-476.303	17.681	-0.093	-0.074
-475.289	800.000	-0.041	0.123
-474.274	800.000	-0.050	-0.165
-473.259	-85.614	-0.149	-0.047
-472.245	-31.294	0.050	0.028
-471.230	-102.073	-0.326	0.079
-470.216	102.328	0.234	-0.275
-469.201	731.401	-0.074	-0.198
-468.186	100.530	0.110	-0.129
-467.172	-153.391	0.059	-0.004
-466.157	4.312	-0.196	-0.144
-465.143	780.521	0.084	-0.231
-464.128	-135.992	0.483	-0.057
-463.113	800.000	-0.021	0.084
-462.099	233.727	-0.096	0.159
-461.084	24.204	0.265	0.220
-460.070	28.523	-0.251	0.213
-459.055	147.833	-0.113	-0.154
-458.040	21.906	0.327	-0.268
-457.026	-200.000	-0.065	0.341
-456.011	-48.607	-0.265	0.128
-454.997	800.000	0.039	0.130
-453.982	-200.000	0.066	-0.598
-452.968	-167.654	-0.231	0.009
-451.953	-71.917	-0.099	0.037
-450.938	378.640	-0.191	0.393
-449.924	-49.092	0.124	-0.060
-448.909	356.509	0.161	-0.322
-447.895	297.004	-0.069	-0.127
-446.880	37.080	-0.089	0.079
-445.865	-27.297	0.156	0.091
-444.851	-69.381	-0.198	-0.076
-443.836	-200.000	-0.015	-0.145
-442.822	106.091	-0.096	0.114
-441.807	-32.027	-0.194	-0.109
-440.792	202.951	0.092	0.143
-439.778	-26.235	0.279	0.164
-438.763	-138.170	0.296	0.033
-437.749	-26.387	0.157	0.092
-436.734	5.570	-0.185	-0.137
-435.719	-200.000	-0.392	0.000
-434.705	-8.815	0.271	0.182
-433.690	-118.865	0.198	0.035
-432.676	-102.336	-0.191	0.046
-431.661	-200.000	0.011	0.299
-430.646	-46.741	0.289	-0.142
-429.632	-200.000	-0.001	-0.037
-428.617	22.600	0.221	-0.181
-427.603	436.382	-0.089	0.193
-426.588	127.624	0.206	-0.263
-425.573	-2.759	0.152	0.106
-424.559	-200.000	-0.005	-0.343
-423.544	-113.468	0.216	0.042
-422.530	103.379	0.237	0.278
-421.515	-32.973	-0.070	-0.039
-420.500	181.425	0.082	-0.121
-419.486	164.775	-0.178	-0.252
-418.471	194.114	0.106	0.160
-417.457	113.531	-0.222	0.271
-416.442	-200.000	0.006	-0.083
-415.428	-200.000	0.011	0.181
-414.413	-164.981	-0.093	-0.004
-413.398	-117.319	0.369	-0.067
-412.384	5.856	0.228	0.169
-411.369	22.742	0.296	-0.243
-410.355	-200.000	0.025	-0.135
-409.340	-88.455	0.231	-0.069
-408.325	800.000	0.062	-0.202
-407.311	-109.596	0.080	0.017
-406.296	-135.167	0.162	0.020
-405.282	378.367	-0.109	0.223
-404.267	3.989	-0.151	0.111
-403.252	-54.584	-0.377	0.171
-402.238	64.211	0.232	0.234
-401.223	32.195	-0.163	-0.141
-400.209	-200.000	-0.014	-0.163
-399.194	34.700	0.331	-0.290
-398.179	172.998	-0.058	0.083
-397.165	488.096	0.045	0.102
-396.150	30.440	0.113	-0.096
-395.136	-148.889	-0.183	-0.015
-394.121	596.049	-0.045	-0.112
-393.106	297.750	0.050	-0.091
-392.092	-130.545	0.215	0.029
-391.077	-34.826	0.274	0.150
-390.063	176.037	0.238	-0.346
-389.048	-33.508	0.119	-0.066
-388.033	-20.035	-0.242	-0.149
-387.019	124.786	-0.151	0.190
-386.004	8.055	0.045	0.034
-384.990	800.000	0.044	-0.157
-383.975	55.847	-0.154	0.149
-382.960	-84.803	0.164	0.052
-381.946	284.101	-0.077	-0.138
-380.931	-200.000	-0.001	-0.308
-379.917	-200.000	-0.008	0.459
-378.902	800.000	0.031	-0.095
-377.888	-108.045	-0.283	-0.062
-376.873	358.511	-0.142	-0.284
-375.858	-16.238	-0.031	-0.019
-374.844	-137.926	0.159	-0.018
-373.829	-144.350	0.339	-0.032
-372.815	37.244	0.420	-0.373
-371.800	-115.481	-0.221	0.042
-370.785	49.630	-0.068	0.064
-369.771	38.086	-0.028	0.025
-368.756	224.989	-0.014	0.022
-367.742	752.414	-0.109	-0.295
-366.727	233.218	0.060	0.098
-365.712	122.030	-0.092	0.115
-364.698	38.286	-0.376	-0.335
-363.683	581.943	-0.086	-0.211
-362.669	15.455	0.332	0.261
-361.654	130.228	0.165	-0.212
-360.639	-136.661	-0.231	0.027
-359.625	-53.575	-0.124	0.057
-358.610	-134.797	0.476	-0.058
-357.596	-200.000	0.042	0.249
-356.581	-115.169	-0.156	0.030
-355.566	-200.000	0.008	0.108
-354.552	9.668	-0.138	0.105
-353.537	-200.000	0.019	-0.410
-352.523	143.530	0.128	-0.171
-351.508	-125.352	0.397	-0.061
-350.493	-200.000	0.027	0.365
-349.479	49.329	0.040	-0.038
-348.464	82.763	0.212	-0.230
-347.450	-200.000	-0.012	-0.366
-346.435	800.000	-0.084	0.307
-345.420	12.409	-0.157	0.121
-344.406	-5.724	0.091	0.062
-343.391	-92.099	-0.136	-0.038
-342.377	143.093	-0.022	0.030
-341.362	-85.593	-0.074	0.023
-340.348	-200.000	0.044	0.231
-339.333	-130.494	0.487	-0.066
-338.318	-200.000	0.012	-0.126
-337.304	218.811	-0.074	-0.119
-336.289	230.985	-0.076	-0.124
-335.275	113.565	-0.188	-0.228
-334.260	-47.404	0.176	-0.086
-333.245	73.547	0.051	0.053
-332.231	229.827	-0.083	-0.135
-331.216	-160.752	-0.179	0.009
-330.202	-88.127	-0.274	0.082
-329.187	-11.710	-0.271	0.178
-328.172	223.065	0.077	0.124
-327.158	-43.302	-0.388	0.196
-326.143	80.216	-0.239	-0.257
-325.129	318.160	0.124	-0.234
-324.114	64.260	0.183	0.184
-323.099	45.435	-0.139	0.128
-322.085	205.569	-0.104	0.161
-321.070	283.151	0.131	0.235
-320.056	-65.427	-0.089	-0.036
-319.041	47.555	0.295	0.275
-318.026	146.633	0.063	-0.084
-317.012	-144.313	-0.139	0.013
-315.997	-162.748	-0.373	0.018
-314.983	222.854	-0.124	0.200
-313.968	192.322	-0.204	0.308
-312.953	238.039	0.155	-0.257
-311.939	800.000	0.092	0.288
-310.924	-182.429	0.120	-0.002
-309.910	-200.000	-0.016	0.176
-308.895	156.072	0.170	-0.234
-307.880	-94.244	-0.171	-0.047
-306.866	79.772	-0.201	0.215
-305.851	800.000	0.086	-0.262
-304.837	-133.500	-0.259	-0.032
-303.822	-72.352	-0.216	-0.080
-302.807	-160.400	0.144	0.008
-301.793	-200.000	-0.008	-0.202
-300.778	32.221	-0.292	-0.252
-299.764	18.998	-0.067	0.054
-298.749	189.445	0.104	0.155
-297.735	18.997	0.121	0.097
-296.720	-22.914	-0.191	0.115
-295.705	-136.896	-0.132	-0.015
-294.691	-83.194	0.302	-0.097
-293.676	226.802	0.141	0.229
-292.662	170.082	0.288	0.412
-291.647	-52.466	-0.192	-0.089
-290.632	-200.000	-0.054	0.326
-289.618	-70.372	0.026	0.010
-288.603	-162.291	-0.319	-0.016
-287.589	147.141	-0.293	-0.394
-286.574	-200.000	0.002	0.209
-285.559	691.928	0.103	-0.269
-284.545	-109.101	0.294	0.062
-283.530	800.000	0.081	-0.255
-282.516	92.929	0.198	0.224
-281.501	-200.000	-0.015	0.130
-280.486	-33.735	0.145	-0.080
-279.472	800.000	0.096	0.368
-278.457	-63.852	-0.097	-0.040
-277.443	-194.190	0.108	-0.001
-276.428	800.000	0.032	-0.109
-275.413	481.144	-0.109	-0.247
-274.399	318.183	-0.034	0.065
-273.384	256.346	0.162	-0.277
-272.370	290.347	-0.151	0.273
-271.355	307.513	0.097	-0.180
-270.340	-61.508	0.347	0.146
-269.326	15.228	0.088	0.069
-268.311	95.766	-0.119	0.136
-267.297	-200.000	0.014	-0.246
-266.282	42.615	-0.197	0.179
-265.267	126.181	0.172	0.217
-264.253	800.000	0.048	0.189
-263.238	102.435	0.163	0.189
-262.224	-200.000	0.007	0.248
-261.209	-200.000	0.007	0.358
-260.195	-5.852	-0.102	0.069
-259.180	3.284	0.333	0.242
-258.165	-19.316	-0.164	0.102
-257.151	47.440	-0.111	0.103
-256.136	-151.589	-0.157	-0.012
-255.122	800.000	0.185	-0.528
-254.107	-200.000	-0.059	-0.352
-253.092	-81.454	-0.453	-0.149
-252.078	-54.101	0.147	0.067
-251.063	-200.000	-0.028	-0.183
-250.049	-66.139	0.271	-0.108
-249.034	-33.465	-0.244	0.134
-248.019	-96.207	-0.192	0.051
-247.005	800.000	-0.053	0.222
-245.990	-200.000	-0.012	0.090
-244.976	307.255	-0.057	0.105
-243.961	-157.915	0.179	0.011
-242.946	362.820	-0.059	-0.118
-241.932	-103.297	0.086	0.020
-240.917	-12.166	0.164	0.107
-239.903	800.000	-0.122	-0.381
-238.888	-44.607	-0.103	0.051
-237.873	70.964	0.125	-0.129
-236.859	-170.041	0.138	-0.005
-235.844	-200.000	-0.026	-0.140
-234.830	522.134	0.022	0.052
-233.815	86.830	-0.155	0.171
-232.800	-131.066	-0.182	0.024
-231.786	-69.076	0.138	0.053
-230.771	-91.749	0.244	-0.069
-229.757	-68.462	-0.215	0.083
-228.742	103.454	-0.201	0.234
-227.727	-200.000	0.043	0.406
-226.713	-56.321	0.150	-0.066
-225.698	-54.392	0.220	-0.099
-224.684	-160.760	-0.230	-0.012
-223.669	-132.043	0.252	-0.033
-222.655	-43.682	-0.106	-0.053
-221.640	-200.000	-0.064	0.305
-220.625	216.579	0.090	0.143
-219.611	-85.493	0.249	-0.077
-218.596	372.818	-0.021	0.043
-217.582	43.908	0.164	0.150
-216.567	189.031	-0.070	-0.105
-215.552	-11.857	-0.364	0.237
-214.538	126.939	-0.197	0.249
-213.523	-200.000	0.232	0.000
-212.509	-190.160	0.080	-0.001
-211.494	800.000	0.024	-0.075
-210.479	-165.771	0.124	-0.005
-209.465	48.905	-0.078	-0.073
-208.450	-121.976	0.138	-0.023
-207.436	316.478	0.069	-0.129
-206.421	-22.793	0.311	0.187
-205.406	-3.117	0.038	0.027
-204.392	-131.094	-0.250	0.033
-203.377	231.163	0.066	-0.108
-202.363	-200.000	0.020	-0.128
-201.348	-200.000	0.026	-0.398
-200.333	-200.000	0.041	0.274
-199.319	-8.083	0.067	-0.045
-198.304	56.129	-0.331	0.320
-197.290	252.647	0.102	-0.173
-196.275	-22.558	0.348	0.209
-195.260	-90.962	-0.236	0.068
-194.246	800.000	-0.033	-0.109
-193.231	-78.261	0.340	-0.116
-192.217	-5.706	-0.030	-0.021
-191.202	-142.503	0.334	0.033
-190.187	-75.357	0.240	-0.085
-189.173	109.604	-0.137	0.163
-188.158	-200.000	-0.023	0.136
-187.144	-125.185	0.376	-0.057
-186.129	-50.444	-0.350	-0.164
-185.114	-200.000	0.043	-0.310
-184.100	-200.000	0.015	0.272
-183.085	38.093	0.289	0.256
-182.071	-200.000	-0.025	0.157
-181.056	800.000	-0.066	0.238
-180.042	341.066	-0.073	-0.141
-179.027	41.918	0.068	0.061
-178.012	-36.833	-0.215	-0.115
-176.998	-28.521	-0.471	-0.270
-175.983	-200.000	-0.029	-0.200
-174.969	39.355	-0.141	0.125
-173.954	-200.000	-0.012	-0.091
-172.939	-87.436	0.198	0.059
-171.925	-9.425	0.194	0.129
-170.910	-122.965	-0.194	-0.031
-169.896	-8.257	-0.010	0.007
-168.881	-111.540	-0.212	-0.043
-167.866	800.000	-0.065	0.202
-166.852	800.000	0.096	-0.319
-165.837	-124.645	0.076	-0.012
-164.823	-162.194	0.322	-0.016
-163.808	39.127	-0.226	-0.201
-162.793	54.125	-0.103	-0.098
-161.779	138.040	-0.060	0.078
-160.764	-74.652	-0.276	-0.098
-159.750	-200.000	0.043	-0.196
-158.735	-43.238	-0.260	-0.131
-157.720	-200.000	-0.017	-0.205
-156.706	-200.000	-0.033	0.497
-155.691	-103.259	0.101	0.024
-154.677	-69.972	0.309	0.117
-153.662	90.591	0.116	0.129
-152.647	121.715	-0.191	-0.236
-151.633	273.876	-0.110	-0.194
-150.618	418.050	0.078	0.166
-149.604	-108.615	-0.082	-0.017
-148.589	1.088	-0.104	-0.074
-147.574	-200.000	-0.011	0.416
-146.560	260.157	0.152	-0.261
-145.545	87.197	0.091	0.100
-144.531	387.074	0.047	0.096
-143.516	-200.000	0.029	-0.375
-142.502	800.000	0.072	-0.254
-141.487	590.585	0.110	-0.270
-140.472	-200.000	-0.038	-0.214
-139.458	800.000	-0.077	-0.258
-138.443	35.990	-0.079	0.069
-137.429	99.266	-0.146	0.167
-136.414	-150.935	-0.490	-0.037
-135.399	-77.279	0.369	0.127
-134.385	-87.110	-0.178	0.054
-133.370	-110.909	0.202	0.041
-132.356	-200.000	0.017	0.449
-131.341	-108.091	0.092	0.020
-130.326	632.549	0.069	-0.174
-129.312	36.162	-0.199	-0.174
-128.297	-68.968	0.093	-0.036
-127.283	-200.000	0.045	-0.227
-126.268	-82.527	-0.268	-0.086
-125.253	106.543	0.164	0.193
-124.239	-45.463	-0.085	0.042
-123.224	-87.138	0.234	-0.071
-122.210	-4.760	-0.283	0.194
-121.195	-200.000	0.003	0.065
-120.180	-29.476	-0.182	0.103
-119.166	263.696	0.145	0.251
-118.151	-42.354	-0.175	-0.088
-117.137	-18.239	0.072	0.045
-116.122	-49.811	0.152	0.072
-115.107	108.652	0.120	0.143
-114.093	-5.814	0.110	-0.075
-113.078	362.206	0.068	-0.136
-112.064	125.927	-0.050	-0.063
-111.049	-128.320	-0.274	0.039
-110.034	-32.491	0.399	-0.220
-109.020	-25.072	-0.201	0.118
-108.005	570.445	-0.062	0.150
-106.991	-21.752	-0.051	-0.031
-105.976	-114.819	-0.042	0.008
-104.962	-48.915	-0.164	-0.078
-103.947	-200.000	0.020	0.098
-102.932	112.195	0.201	0.241
-101.918	-124.394	0.096	-0.015
-100.903	800.000	0.069	0.260
-99.889	67.930	0.157	0.159
-98.874	-200.000	-0.018	0.110
-97.859	-36.747	0.067	-0.036
-96.845	463.036	-0.103	0.228
-95.830	-45.470	0.292	-0.143
-94.816	-75.283	0.338	0.120
-93.801	-200.000	0.070	-0.320
-92.786	-95.396	0.209	0.056
-91.772	-200.000	-0.037	0.197
-90.757	24.314	-0.101	-0.082
-89.743	159.986	0.070	-0.096
-88.728	192.222	0.139	-0.207
-87.713	123.633	-0.051	-0.064
-86.699	276.827	-0.159	-0.280
-85.684	130.143	-0.108	0.136
-84.670	800.000	0.074	0.238
-83.655	-75.056	0.122	-0.043
-82.640	-46.273	0.088	-0.043
-81.626	800.000	-0.040	0.158
-80.611	-143.256	0.356	0.034
-79.597	-106.540	-0.298	0.066
-78.582	109.248	0.167	0.197
-77.567	31.550	-0.287	-0.244
-76.553	162.869	-0.078	0.108
-75.538	-200.000	-0.014	0.268
-74.524	-200.000	0.002	0.209
-73.509	800.000	-0.090	-0.263
-72.494	-90.836	0.162	0.046
-71.480	800.000	-0.152	-0.464
-70.465	50.713	-0.198	-0.185
-69.451	-169.224	0.324	-0.012
-68.436	-42.041	-0.283	-0.143
-67.422	800.000	-0.075	-0.287
-66.407	-56.818	0.143	-0.062
-65.392	800.000	-0.043	-0.151
-64.378	365.360	0.062	0.123
-63.363	289.265	-0.021	-0.039
-62.349	127.996	0.100	0.125
-61.334	105.361	-0.635	-0.742
-60.319	81.346	0.554	0.592
-59.305	659.313	-0.348	-0.887
-58.290	170.076	0.841	1.189
-57.276	539.264	0.541	1.272
-56.261	-200.000	101.764	594.478
-55.246	559.209	1416.958	3382.263
-54.232	186.831	2609.870	3844.602
-53.217	106.605	2309.209	2708.335
-52.203	37.459	2065.325	1810.846
-51.188	32.683	1978.726	1692.097
-50.173	31.132	1960.677	1662.788
-49.159	45.925	2013.752	1841.857
-48.144	47.220	2031.603	1869.825
-47.130	33.263	1991.621	1708.094
-46.115	30.932	1981.094	1678.036
-45.100	30.807	1978.247	1674.431
-44.086	30.807	1976.087	1672.536
-43.071	30.774	1972.964	1669.530
-42.057	30.775	1971.080	1667.885
-41.042	30.755	1968.908	1665.796
-40.027	30.806	1967.057	1664.626
-39.013	30.844	1965.094	1663.239
-37.998	30.857	1963.115	1661.614
-36.984	30.914	1961.184	1660.421
-35.969	30.898	1959.344	1658.653
-34.954	30.880	1957.745	1657.070
-33.940	30.962	1955.914	1656.189
-32.925	30.922	1954.307	1654.402
-31.911	30.940	1952.866	1653.275
-30.896	30.889	1951.361	1651.488
-29.881	30.928	1949.792	1650.434
-28.867	31.023	1947.973	1649.677
-27.852	30.958	1946.338	1647.645
-26.838	31.005	1944.576	1646.507
-25.823	31.000	1942.816	1644.911
-24.809	31.011	1941.247	1643.613
-23.794	30.933	1939.507	1641.383
-22.779	30.931	1937.771	1639.834
-21.765	30.941	1936.348	1638.654
-20.750	30.954	1934.434	1637.079
-19.736	30.982	1933.092	1636.125
-18.721	30.958	1931.013	1634.095
-17.706	31.029	1929.658	1633.506
-16.692	30.983	1927.880	1631.527
-15.677	31.025	1926.710	1630.839
-14.663	31.019	1924.902	1629.195
-13.648	30.985	1923.594	1627.729
-12.633	30.941	1922.789	1626.593
-11.619	30.975	1921.270	1625.546
-10.604	30.947	1919.912	1624.084
-9.590	30.832	1919.122	1622.351
-8.575	30.875	1917.166	1621.008
-7.560	30.913	1916.031	1620.313
-6.546	30.944	1914.848	1619.521
-5.531	30.907	1913.576	1618.055
-4.517	30.918	1912.157	1616.889
-3.502	30.911	1911.434	1616.153
-2.487	30.949	1909.919	1615.137
-1.473	30.943	1908.927	1614.180
-0.458	31.017	1904.008	1610.595
0.556	30.015	1884.749	1583.221
1.571	25.939	1865.586	1532.422
2.586	22.165	1888.531	1518.589
3.600	21.155	1924.787	1538.702
4.615	20.744	1918.873	1530.234
5.629	16.067	1818.769	1411.212
6.644	8.337	1703.483	1260.811
7.659	4.978	1668.488	1208.796
8.673	4.680	1666.237	1204.745
9.688	4.572	1664.453	1202.517
10.702	4.605	1663.198	1201.757
11.717	4.683	1659.230	1199.387
12.731	5.006	1659.146	1201.709
13.746	10.079	1671.452	1249.822
14.761	17.045	1685.631	1314.445
15.775	19.115	1688.348	1332.488
16.790	18.435	1684.930	1324.415
17.804	17.376	1681.914	1313.751
18.819	16.342	1678.770	1303.209
19.834	15.744	1676.264	1296.538
20.848	15.391	1674.829	1292.596
21.863	15.223	1672.730	1289.566
22.877	14.986	1671.131	1286.402
23.892	14.672	1670.626	1283.482
24.907	14.598	1669.361	1281.825
25.921	14.555	1668.636	1280.831
26.936	14.629	1667.368	1280.308
27.950	14.668	1666.265	1279.647
28.965	14.751	1665.694	1279.732
29.980	14.780	1664.878	1279.215
30.994	14.814	1664.089	1278.752
32.009	14.863	1662.952	1278.145
33.023	15.002	1662.170	1278.493
34.038	15.027	1661.148	1277.784
35.053	14.954	1660.195	1276.378
36.067	14.876	1658.942	1274.707
37.082	14.812	1657.699	1273.154
38.096	14.816	1656.861	1272.424
39.111	14.850	1655.872	1271.813
40.126	14.855	1655.039	1271.100
41.140	14.871	1654.136	1270.412
42.155	14.758	1652.629	1268.288
43.169	14.611	1651.298	1266.039
44.184	14.514	1650.132	1264.294
45.199	14.637	1648.426	1263.806
46.213	14.561	1647.879	1262.699
47.228	14.553	1646.705	1261.632
48.242	14.634	1645.562	1261.255
49.257	14.703	1644.327	1260.721
50.271	14.737	1643.154	1259.962
51.286	14.726	1642.004	1258.887
52.301	14.734	1640.188	1257.443
53.315	14.760	1638.634	1256.334
54.330	14.816	1637.507	1255.783
55.344	14.635	1635.721	1252.940
56.359	14.639	1634.530	1251.948
57.374	14.611	1633.900	1251.151
58.388	14.572	1632.664	1249.796
59.403	14.613	1631.251	1248.915
60.417	14.497	1630.440	1247.316
61.432	14.488	1628.898	1245.952
62.447	14.509	1627.827	1245.185
63.461	14.439	1626.581	1243.599
64.476	14.382	1625.628	1242.334
65.490	14.339	1624.461	1241.008
66.505	14.489	1622.794	1240.745
67.520	14.446	1622.258	1239.903
68.534	14.443	1621.030	1238.836
69.549	14.485	1620.134	1238.353
70.563	14.437	1619.223	1237.188
71.578	14.477	1618.061	1236.488
72.593	14.420	1616.452	1234.725
73.607	14.424	1615.468	1233.897
74.622	14.444	1614.293	1233.035
75.636	14.233	1613.928	1231.090
76.651	14.349	1612.840	1231.009
77.666	14.376	1612.010	1230.464
78.680	14.317	1611.270	1229.358
79.695	14.408	1610.330	1229.199
80.709	14.432	1609.059	1228.296
81.724	14.495	1608.696	1228.375
82.739	14.607	1607.520	1228.192
83.753	14.474	1607.035	1226.739
84.768	14.699	1605.882	1227.405
85.782	14.715	1605.201	1226.888
86.797	14.830	1604.203	1226.862
87.812	14.820	1603.625	1226.237
88.826	14.798	1602.263	1224.926
89.841	14.679	1601.703	1223.524
90.855	14.784	1600.011	1222.887
91.870	14.766	1599.837	1222.517
92.884	14.717	1598.977	1221.394
93.899	14.827	1597.512	1220.967
94.914	14.836	1596.138	1219.874
95.928	14.902	1594.557	1219.044
96.943	14.966	1593.416	1218.524
97.957	14.988	1591.893	1217.417
98.972	14.801	1591.177	1215.397
99.987	14.812	1588.929	1213.657
101.001	14.828	1587.245	1212.377
102.016	14.829	1585.964	1211.296
103.030	14.735	1584.818	1209.636
104.045	14.817	1583.041	1208.762
105.060	14.868	1581.989	1208.225
106.074	14.766	1580.751	1206.432
107.089	14.718	1579.112	1204.733
108.103	14.580	1577.745	1202.585
109.118	14.502	1576.035	1200.615
110.133	14.407	1574.893	1198.958
111.147	14.538	1573.084	1198.413
112.162	14.480	1572.026	1197.086
113.176	14.623	1570.288	1196.684
114.191	14.582	1569.145	1195.408
115.206	14.568	1568.365	1194.610
116.220	14.685	1566.856	1194.191
117.235	14.641	1565.523	1192.757
118.249	14.576	1564.286	1191.245
119.264	14.567	1562.884	1190.004
120.279	14.596	1561.349	1188.943
121.293	14.506	1560.085	1187.234
122.308	14.544	1558.175	1185.944
123.322	14.437	1557.134	1184.289
124.337	14.367	1555.789	1182.659
125.352	14.466	1554.462	1182.250
126.366	14.436	1553.580	1181.260
127.381	14.442	1552.357	1180.269
128.395	14.459	1551.359	1179.528
129.410	14.500	1549.467	1178.276
130.424	14.484	1548.156	1177.061
131.439	14.569	1547.189	1176.816
132.454	14.461	1546.026	1175.072
133.468	14.549	1544.416	1174.363
134.483	14.564	1543.182	1173.427
135.497	14.664	1541.483	1172.730
136.512	14.577	1540.621	1171.360
137.527	14.675	1539.106	1170.790
138.541	14.737	1537.515	1169.914
139.556	14.647	1536.341	1168.286
140.570	14.771	1534.590	1167.719
141.585	14.833	1533.492	1167.213
142.600	14.816	1532.672	1166.365
143.614	14.845	1531.139	1165.300
144.629	14.822	1530.579	1164.613
145.643	14.984	1528.530	1164.072
146.658	14.940	1527.323	1162.747
147.673	14.923	1526.109	1161.603
148.687	14.915	1524.401	1160.143
149.702	14.843	1522.843	1158.353
150.716	14.737	1521.293	1156.339
151.731	14.771	1520.009	1155.500
152.746	14.799	1518.904	1154.749
153.760	14.731	1517.606	1153.191
154.775	14.830	1516.489	1152.922
155.789	14.811	1515.221	1151.727
156.804	14.935	1513.978	1151.534
157.819	15.001	1512.754	1150.954
158.833	14.900	1511.638	1149.312
159.848	14.991	1510.725	1149.135
160.862	15.060	1509.634	1148.682
161.877	15.037	1508.272	1147.385
162.892	14.968	1507.052	1145.885
163.906	14.876	1505.732	1144.145
164.921	14.839	1504.469	1142.833
165.935	14.865	1503.730	1142.346
166.950	14.879	1502.670	1141.540
167.964	14.906	1501.735	1140.912
168.979	14.872	1500.979	1140.000
169.994	14.982	1499.576	1139.587
171.008	14.861	1498.996	1138.218
172.023	14.948	1497.948	1137.917
173.037	14.967	1496.827	1137.096
174.052	15.067	1495.575	1136.718
175.067	15.024	1494.780	1135.727
176.081	15.036	1493.403	1134.658
177.096	14.935	1491.859	1132.703
178.110	14.893	1490.259	1131.101
179.125	15.007	1489.242	1131.001
180.140	14.922	1488.465	1129.737
181.154	15.003	1487.290	1129.295
182.169	14.969	1486.472	1128.343
183.183	15.139	1484.885	1128.180
184.198	15.092	1484.340	1127.349
185.213	15.123	1483.148	1126.558
186.227	15.192	1481.977	1126.031
187.242	15.218	1480.754	1125.174
188.256	15.232	1479.928	1124.545
189.271	15.292	1478.879	1124.044
190.286	15.329	1477.751	1123.337
191.300	15.325	1476.852	1122.531
192.315	15.104	1475.212	1119.708
193.329	14.978	1473.532	1117.490
194.344	14.892	1472.477	1116.017
195.359	14.918	1471.695	1115.501
196.373	14.976	1470.901	1115.184
197.388	15.200	1469.945	1115.851
198.402	15.197	1468.756	1114.835
199.417	15.322	1467.587	1114.680
200.432	15.390	1466.916	1114.522
201.446	15.478	1466.084	1114.374
202.461	15.510	1464.495	1113.283
203.475	15.439	1463.730	1112.132
204.490	15.538	1462.844	1112.014
205.504	15.503	1461.882	1110.953
206.519	15.430	1460.476	1109.303
207.534	15.328	1459.449	1107.753
208.548	15.360	1458.066	1106.814
209.563	15.418	1456.991	1106.279
210.577	15.399	1456.246	1105.492
211.592	15.418	1455.639	1105.061
212.607	15.432	1454.692	1104.335
213.621	15.595	1454.046	1104.821
214.636	15.547	1453.444	1103.952
215.650	15.627	1452.093	1103.350
216.665	15.591	1450.930	1102.133
217.680	15.619	1450.203	1101.669
218.694	15.701	1449.466	1101.544
219.709	15.672	1449.303	1101.134
220.723	15.728	1447.589	1100.103
221.738	15.700	1446.740	1099.178
222.753	15.712	1445.883	1098.506
223.767	15.653	1444.957	1097.324
224.782	15.651	1444.260	1096.684
225.796	15.724	1443.019	1096.116
226.811	15.823	1441.853	1095.777
227.826	15.811	1441.300	1095.181
228.840	15.811	1440.854	1094.746
229.855	15.728	1439.853	1093.348
230.869	15.766	1438.541	1092.506
231.884	15.828	1437.149	1091.751
232.899	15.651	1436.518	1090.029
233.913	15.740	1434.778	1089.187
234.928	15.677	1433.876	1088.002
235.942	15.652	1432.924	1087.018
236.957	15.646	1431.505	1085.806
237.972	15.685	1430.512	1085.212
238.986	15.695	1429.518	1084.427
240.001	15.648	1428.812	1083.490
241.015	15.742	1427.028	1082.651
242.030	15.758	1426.110	1081.959
243.045	15.753	1425.431	1081.318
244.059	15.744	1424.764	1080.658
245.074	15.842	1423.822	1080.476
246.088	15.824	1423.298	1079.869
247.103	15.974	1422.186	1079.892
248.117	15.938	1421.578	1079.099
249.132	15.945	1420.929	1078.556
250.147	16.115	1420.287	1079.062
251.161	16.236	1419.784	1079.362
252.176	16.294	1419.150	1079.154
253.190	16.319	1418.204	1078.500
254.205	16.337	1417.237	1077.782
255.220	16.320	1416.712	1077.175
256.234	16.355	1415.395	1076.305
257.249	16.351	1415.164	1076.009
258.263	16.330	1414.536	1075.300
259.278	16.390	1413.081	1074.481
260.293	16.375	1412.185	1073.614
261.307	16.417	1411.112	1072.967
262.322	16.469	1410.606	1072.819
263.336	16.478	1409.967	1072.290
264.351	16.456	1409.336	1071.581
265.366	16.459	1408.230	1070.662
266.380	16.468	1407.657	1070.191
267.395	16.562	1406.272	1069.634
268.409	16.510	1405.820	1068.866
269.424	16.473	1404.480	1067.524
270.439	16.486	1403.253	1066.575
271.453	16.427	1402.336	1065.412
272.468	16.476	1401.382	1064.902
273.482	16.593	1400.590	1064.943
274.497	16.426	1399.674	1063.100
275.512	16.458	1398.709	1062.474
276.526	16.495	1398.294	1062.298
277.541	16.521	1397.128	1061.480
278.555	16.483	1396.624	1060.767
279.570	16.478	1395.702	1059.942
280.585	16.683	1394.142	1059.948
281.599	16.678	1393.548	1059.369
282.614	16.713	1392.536	1058.728
283.628	16.621	1391.697	1057.417
284.643	16.619	1390.689	1056.545
285.657	16.611	1389.592	1055.572
286.672	16.717	1388.412	1055.239
287.687	16.651	1387.305	1053.897
288.701	16.592	1386.404	1052.750
289.716	16.666	1385.841	1052.693
290.730	16.676	1385.284	1052.238
291.745	16.807	1383.852	1051.867
292.760	16.722	1383.280	1050.811
293.774	16.791	1381.884	1050.091
294.789	16.747	1381.090	1049.119
295.803	16.844	1380.679	1049.312
296.818	16.932	1379.485	1048.857
297.833	16.837	1378.627	1047.524
298.847	16.758	1377.179	1045.846
299.862	16.794	1376.423	1045.401
300.876	16.832	1375.789	1045.063
301.891	16.784	1374.904	1044.002
302.906	16.891	1373.818	1043.742
303.920	16.880	1373.441	1043.294
304.935	17.000	1372.657	1043.348
305.949	17.013	1371.832	1042.710
306.964	17.047	1371.413	1042.507
307.979	17.156	1370.254	1042.200
308.993	17.146	1369.318	1041.337
310.008	16.995	1368.368	1039.595
311.022	16.964	1367.744	1038.841
312.037	17.048	1366.418	1038.255
313.052	17.080	1365.359	1037.556
314.066	17.057	1364.380	1036.576
315.081	17.032	1363.498	1035.660
316.095	16.926	1362.011	1033.793
317.110	16.944	1361.355	1033.316
318.125	16.895	1360.256	1032.091
319.139	17.024	1359.279	1032.045
320.154	17.018	1358.395	1031.242
321.168	16.905	1357.075	1029.468
322.183	17.006	1356.452	1029.515
323.197	17.043	1355.529	1028.949
324.212	17.112	1354.421	1028.433
325.227	17.075	1353.691	1027.566
326.241	17.161	1352.561	1027.138
327.256	17.208	1351.594	1026.593
328.270	17.154	1350.846	1025.611
329.285	17.209	1349.805	1025.060
330.300	17.041	1349.441	1023.680
331.314	17.152	1348.148	1023.280
332.329	17.037	1347.556	1022.046
333.343	17.107	1346.872	1021.857
334.358	17.147	1345.288	1020.807
335.373	17.203	1345.228	1021.005
336.387	17.312	1343.861	1020.534
337.402	17.191	1343.573	1019.497
338.416	17.340	1342.775	1019.693
339.431	17.308	1342.571	1019.259
340.446	17.413	1341.721	1019.150
341.460	17.389	1340.762	1018.187
342.475	17.499	1339.671	1017.926
343.489	17.611	1338.376	1017.524
344.504	17.598	1337.867	1016.969
345.519	17.620	1337.038	1016.377
346.533	17.625	1336.201	1015.680
347.548	17.759	1335.306	1015.709
348.562	17.674	1334.592	1014.573
349.577	17.747	1333.909	1014.399
350.592	17.668	1333.106	1013.230
351.606	17.524	1332.121	1011.534
352.621	17.556	1330.887	1010.700
353.635	17.475	1330.000	1009.451
354.650	17.571	1328.663	1008.919
355.665	17.405	1328.269	1007.547
356.679	17.426	1327.334	1006.875
357.694	17.489	1326.033	1006.171
358.708	17.619	1324.897	1005.983
359.723	17.622	1324.118	1005.325
360.738	17.681	1322.551	1004.391
361.752	17.673	1321.653	1003.572
362.767	17.664	1320.505	1002.559
363.781	17.662	1319.787	1001.915
364.796	17.666	1319.332	1001.504
365.810	17.795	1318.223	1001.330
366.825	17.842	1317.639	1001.075
367.840	17.875	1316.981	1000.680
368.854	17.942	1315.951	1000.201
369.869	17.955	1315.570	999.902
370.883	18.057	1315.174	1000.107
371.898	18.049	1314.062	999.124
372.913	18.043	1313.364	998.469
373.927	17.993	1312.522	997.453
374.942	17.992	1311.828	996.830
375.956	17.926	1311.453	996.072
376.971	18.096	1310.167	995.995
377.986	17.978	1309.455	994.680
379.000	18.038	1308.972	994.573
380.015	18.114	1307.814	994.050
381.029	18.132	1307.013	993.457
382.044	18.127	1306.728	993.122
383.059	18.068	1305.649	991.875
384.073	18.120	1305.208	991.749
385.088	18.254	1304.388	991.819
386.102	18.290	1303.750	991.453
387.117	18.197	1303.192	990.401
388.132	18.207	1302.069	989.522
389.146	18.030	1301.519	987.990
390.161	18.073	1300.662	987.500
391.175	18.063	1299.620	986.564
392.190	18.009	1298.991	985.688
393.205	18.120	1298.164	985.614
394.219	18.261	1296.973	985.437
395.234	18.236	1295.896	984.386
396.248	18.204	1294.310	982.910
397.263	18.205	1293.104	981.911
398.278	18.228	1291.660	980.863
399.292	18.213	1290.465	979.781
400.307	18.114	1289.592	978.464
401.321	18.039	1288.826	977.370
402.336	18.133	1287.657	976.931
403.350	17.994	1286.785	975.392
404.365	18.187	1285.692	975.578
405.380	18.137	1284.999	974.678
406.394	18.199	1284.126	974.282
407.409	18.254	1283.732	974.210
408.423	18.188	1283.493	973.571
409.438	18.431	1282.043	973.762
410.453	18.425	1281.472	973.208
411.467	18.424	1281.039	972.786
412.482	18.547	1280.325	972.859
413.496	18.663	1279.549	972.839
414.511	18.571	1279.044	971.849
415.526	18.670	1277.936	971.480
416.540	18.687	1277.453	971.127
417.555	18.781	1276.626	970.943
418.569	18.651	1276.418	969.966
419.584	18.655	1275.684	969.343
420.599	18.700	1275.088	969.058
421.613	140.780	1432.463	1797.350
422.628	135.422	1455.386	1797.468
