DTS Sentinel unit serial number:	SN413079Multiplexer serial number:	ORYXHardware model number:	OX4-SRSoftware version number:	ORYX F/W v4.00 Oryx Data Collector v3.7.2.0data status	okinstallation	princeton_trtdifferential loss correction	single-endedforward channel	channel 4reverse channel	N/Adate	2019/09/17time	19:17:35forward acquisition time	60.00reverse acquisition time	0.00gamma	496.2192k internal	0.2300k external	0.2300temperature offset calibration	0.9987default loss term (dB/km)	0.3790temperature slope calibration	1.0000multiplexer offset coefficient	1.0000multiplexer slope coefficient	1.0000fibre end	0.00T internal ref (°C)	38.34T ext. ref 1 (°C)	0.26T ext. ref 2 (°C)	26.59length (m)	temperature (°C)	Stokes	anti-Stokes-747.200	-23.184	0.312	0.191
-746.185	-110.068	-0.269	0.057
-745.171	-141.985	0.113	-0.011
-744.156	-200.000	-0.070	0.498
-743.142	800.000	0.050	-0.213
-742.127	-117.293	-0.115	-0.021
-741.112	800.000	-0.105	0.341
-740.098	800.000	-0.024	-0.103
-739.083	10.448	-0.066	-0.051
-738.069	-138.535	-0.392	-0.044
-737.054	-77.404	0.076	-0.027
-736.039	-185.331	0.179	-0.003
-735.025	-200.000	0.017	-0.219
-734.010	-53.282	-0.231	-0.108
-732.996	-46.192	-0.114	0.057
-731.981	18.340	-0.441	-0.359
-730.966	147.280	0.119	-0.163
-729.952	72.368	0.097	0.103
-728.937	295.091	0.118	0.221
-727.923	-176.266	-0.396	-0.011
-726.908	-200.000	0.009	0.081
-725.894	-61.073	-0.104	0.045
-724.879	34.237	-0.139	-0.123
-723.864	-200.000	0.006	-0.183
-722.850	-89.479	0.066	0.020
-721.835	-200.000	-0.231	0.001
-720.821	-25.235	-0.138	0.084
-719.806	-145.398	-0.131	0.012
-718.791	-49.863	0.232	-0.112
-717.777	-177.560	0.239	-0.006
-716.762	-155.675	0.144	-0.009
-715.748	205.718	-0.106	0.169
-714.733	450.529	-0.123	-0.277
-713.718	-200.000	-0.009	0.205
-712.704	304.284	0.154	0.292
-711.689	64.853	-0.149	0.154
-710.675	15.545	0.256	-0.205
-709.660	-119.849	-0.302	0.053
-708.645	-28.947	-0.096	0.056
-707.631	65.079	-0.217	0.223
-706.616	800.000	-0.024	0.079
-705.602	-70.357	-0.226	-0.087
-704.587	338.182	0.150	-0.298
-703.572	29.253	0.293	-0.254
-702.558	-165.019	-0.352	0.016
-701.543	-200.000	-0.015	0.288
-700.529	-82.359	0.049	-0.016
-699.514	-200.000	-0.024	0.166
-698.499	52.920	-0.137	-0.133
-697.485	185.526	-0.215	-0.325
-696.470	17.733	-0.289	-0.234
-695.456	-200.000	-0.016	0.304
-694.441	-120.981	-0.203	0.035
-693.426	-39.837	-0.036	-0.019
-692.412	103.858	0.139	-0.166
-691.397	23.267	-0.194	0.162
-690.383	-124.745	0.008	-0.001
-689.368	-16.282	-0.217	0.140
-688.354	-109.265	-0.271	0.059
-687.339	-200.000	0.027	0.197
-686.324	-148.736	-0.454	-0.037
-685.310	-200.000	0.009	0.153
-684.295	93.188	0.145	0.167
-683.281	-200.000	0.013	-0.269
-682.266	-200.000	0.003	-0.186
-681.251	19.254	-0.182	-0.149
-680.237	-46.847	0.253	0.126
-679.222	-160.570	0.410	-0.022
-678.208	-200.000	-0.067	-0.304
-677.193	800.000	-0.100	-0.409
-676.178	800.000	-0.096	-0.287
-675.164	-95.545	0.319	-0.087
-674.149	-200.000	-0.033	-0.188
-673.135	8.518	-0.293	-0.225
-672.120	-51.977	0.477	0.226
-671.105	-73.286	-0.069	0.026
-670.091	61.602	-0.175	0.177
-669.076	-200.000	0.055	0.315
-668.062	36.533	0.232	-0.208
-667.047	17.994	-0.252	-0.204
-666.032	-47.284	-0.266	0.132
-665.018	-115.297	-0.297	0.057
-664.003	800.000	0.064	-0.266
-662.989	-108.109	0.342	0.075
-661.974	-94.624	-0.062	-0.017
-660.959	-200.000	0.057	0.265
-659.945	-30.695	-0.109	-0.063
-658.930	-14.443	0.074	0.048
-657.916	-200.000	0.031	-0.157
-656.901	42.570	-0.134	-0.124
-655.886	85.414	-0.217	-0.243
-654.872	3.070	-0.271	-0.200
-653.857	315.458	0.085	0.162
-652.843	385.451	-0.054	0.112
-651.828	-73.674	-0.278	0.103
-650.814	-200.000	-0.012	0.178
-649.799	-52.635	0.119	0.056
-648.784	-73.595	-0.106	-0.039
-647.770	295.306	0.187	-0.348
-646.755	550.901	0.066	-0.160
-645.741	376.297	0.179	-0.370
-644.726	49.618	-0.270	0.259
-643.711	-200.000	-0.004	-0.197
-642.697	-200.000	-0.006	-0.208
-641.682	-200.000	0.058	-0.322
-640.668	439.925	0.019	0.043
-639.653	-110.106	0.142	0.030
-638.638	10.412	0.207	-0.160
-637.624	-4.887	0.335	-0.235
-636.609	386.978	0.095	-0.200
-635.595	800.000	0.050	0.216
-634.580	102.242	-0.240	-0.285
-633.565	62.816	0.185	-0.188
-632.551	-200.000	0.021	0.125
-631.536	-59.037	0.245	0.107
-630.522	-40.683	-0.356	-0.188
-629.507	25.674	0.098	-0.083
-628.492	-8.819	-0.083	-0.057
-627.478	743.377	-0.084	-0.230
-626.463	122.341	-0.169	-0.215
-625.449	800.000	-0.075	0.216
-624.434	-200.000	0.011	-0.099
-623.419	-200.000	-0.048	-0.240
-622.405	-200.000	-0.030	0.196
-621.390	575.240	0.046	-0.115
-620.376	21.495	0.272	0.224
-619.361	654.949	0.035	-0.090
-618.346	-200.000	0.043	0.326
-617.332	43.601	0.147	-0.137
-616.317	254.832	0.156	-0.271
-615.303	-115.100	0.510	-0.098
-614.288	-170.755	0.085	-0.003
-613.273	492.915	0.070	0.163
-612.259	800.000	-0.058	0.234
-611.244	329.795	0.253	0.494
-610.230	2.016	0.118	-0.087
-609.215	800.000	0.052	0.196
-608.201	-200.000	0.036	0.453
-607.186	8.141	-0.151	-0.115
-606.171	-200.000	-0.038	0.199
-605.157	-158.993	-0.053	0.003
-604.142	-106.878	0.273	-0.061
-603.128	-162.098	-0.255	0.013
-602.113	-200.000	-0.001	0.131
-601.098	-123.122	0.422	-0.069
-600.084	228.998	0.059	-0.097
-599.069	-62.850	0.085	0.036
-598.055	-38.460	0.152	-0.082
-597.040	-21.804	-0.256	-0.158
-596.025	-200.000	-0.011	-0.105
-595.011	-130.972	-0.281	-0.038
-593.996	-200.000	0.012	-0.146
-592.982	-200.000	-0.002	0.237
-591.967	800.000	0.110	0.397
-590.952	-200.000	0.014	-0.156
-589.938	-200.000	0.368	-0.001
-588.923	46.789	-0.084	-0.080
-587.909	88.658	0.190	0.214
-586.894	-58.067	0.527	-0.233
-585.879	102.797	-0.194	0.230
-584.865	-72.665	-0.089	-0.033
-583.850	260.983	0.036	0.063
-582.836	2.517	-0.176	-0.129
-581.821	12.617	0.190	0.149
-580.806	1.979	-0.383	0.280
-579.792	21.340	-0.212	0.175
-578.777	-200.000	-0.025	0.138
-577.763	84.854	-0.081	0.090
-576.748	800.000	-0.090	0.334
-575.733	594.504	0.068	0.170
-574.719	-187.302	-0.071	0.001
-573.704	-41.948	-0.208	0.108
-572.690	615.358	-0.063	0.161
-571.675	-68.132	-0.101	-0.040
-570.661	261.707	-0.227	0.398
-569.646	-54.096	0.343	0.158
-568.631	17.741	-0.195	0.157
-567.617	147.888	0.114	-0.156
-566.602	-179.222	0.162	0.004
-565.588	5.806	0.106	-0.080
-564.573	-63.381	0.378	-0.157
-563.558	800.000	-0.077	-0.270
-562.544	261.193	-0.095	0.166
-561.529	-105.438	0.173	-0.040
-560.515	16.556	0.381	0.305
-559.500	80.940	0.230	0.252
-558.485	-200.000	0.012	0.132
-557.471	-70.016	0.045	-0.017
-556.456	-200.000	0.032	-0.169
-555.442	-129.812	0.227	-0.032
-554.427	-200.000	0.004	-0.150
-553.412	-32.878	0.214	0.120
-552.398	-200.000	-0.312	0.001
-551.383	471.785	-0.064	-0.145
-550.369	206.431	-0.101	0.160
-549.354	-91.772	0.150	-0.043
-548.339	276.317	-0.124	0.223
-547.325	-5.129	0.147	-0.103
-546.310	-200.000	0.027	-0.360
-545.296	-58.092	0.377	-0.167
-544.281	19.335	0.125	0.101
-543.266	127.783	-0.118	0.152
-542.252	45.869	-0.113	0.106
-541.237	-200.000	-0.038	-0.286
-540.223	210.245	-0.090	-0.143
-539.208	-16.263	-0.176	0.113
-538.193	-37.372	-0.337	-0.182
-537.179	-15.060	-0.229	-0.148
-536.164	679.997	-0.011	-0.030
-535.150	-200.000	-0.019	-0.198
-534.135	126.694	-0.055	-0.070
-533.121	-152.447	-0.417	-0.030
-532.106	-121.661	0.149	-0.025
-531.091	-81.009	-0.221	-0.074
-530.077	54.155	0.127	-0.124
-529.062	800.000	0.047	-0.138
-528.048	-27.327	-0.341	-0.201
-527.033	-35.490	-0.132	-0.072
-526.018	-200.000	0.002	-0.220
-525.004	-11.080	0.183	0.122
-523.989	17.309	0.204	-0.164
-522.975	133.000	0.121	-0.158
-521.960	-39.289	-0.028	0.015
-520.945	-73.179	-0.168	-0.062
-519.931	-23.046	0.119	-0.072
-518.916	-200.000	0.036	-0.187
-517.902	-37.813	-0.103	0.056
-516.887	-10.043	-0.063	-0.042
-515.872	-82.082	-0.134	-0.044
-514.858	185.472	-0.140	0.210
-513.843	-87.854	-0.045	-0.014
-512.829	234.799	0.117	0.195
-511.814	55.481	-0.172	-0.168
-510.799	-93.433	-0.246	-0.069
-509.785	-88.646	0.114	-0.034
-508.770	-75.151	0.217	-0.079
-507.756	7.059	-0.209	0.157
-506.741	482.614	-0.051	0.118
-505.726	-200.000	-0.003	-0.163
-504.712	800.000	0.034	0.116
-503.697	30.603	0.247	0.214
-502.683	-200.000	0.001	0.242
-501.668	19.601	0.084	-0.068
-500.653	-14.788	0.221	-0.143
-499.639	800.000	0.045	0.169
-498.624	551.769	0.080	-0.195
-497.610	-87.549	-0.198	0.061
-496.595	-66.994	-0.080	-0.032
-495.581	-168.479	0.229	0.009
-494.566	-200.000	0.013	0.279
-493.551	141.429	0.111	-0.148
-492.537	166.083	-0.085	-0.121
-491.522	484.133	-0.081	0.185
-490.508	-104.161	0.330	-0.078
-489.493	-200.000	-0.007	-0.236
-488.478	-154.284	-0.142	0.010
-487.464	190.058	0.145	0.220
-486.449	56.999	-0.251	-0.247
-485.435	91.395	-0.164	0.186
-484.420	-127.441	0.179	-0.026
-483.405	-200.000	0.006	-0.061
-482.391	334.561	-0.133	0.260
-481.376	-200.000	0.035	0.200
-480.362	-109.550	0.250	0.053
-479.347	-20.972	0.131	0.081
-478.332	800.000	0.089	0.377
-477.318	299.402	0.061	0.112
-476.303	-200.000	-0.048	0.307
-475.289	8.384	0.185	-0.140
-474.274	-151.609	0.139	0.010
-473.259	-200.000	0.022	0.185
-472.245	-101.313	-0.128	-0.032
-471.230	546.574	0.187	0.451
-470.216	30.393	-0.276	0.238
-469.201	78.852	0.227	-0.245
-468.186	800.000	-0.057	-0.181
-467.172	-91.846	0.242	-0.069
-466.157	-200.000	-0.026	0.201
-465.143	-11.180	0.232	-0.154
-464.128	21.368	-0.333	-0.273
-463.113	244.825	-0.134	-0.227
-462.099	21.434	-0.111	-0.091
-461.084	-77.358	-0.175	-0.061
-460.070	-5.232	-0.127	-0.088
-459.055	2.292	-0.419	-0.306
-458.040	79.917	0.152	0.165
-457.026	-81.672	-0.047	-0.016
-456.011	-144.786	0.066	0.006
-454.997	82.440	-0.251	-0.275
-453.982	-75.375	-0.213	0.077
-452.968	-30.213	0.079	-0.045
-451.953	-31.820	-0.187	0.106
-450.938	110.061	-0.114	-0.138
-449.924	454.715	0.132	-0.295
-448.909	-200.000	-0.018	0.156
-447.895	-200.000	-0.062	0.300
-446.880	-92.743	-0.267	-0.075
-445.865	-4.936	0.066	-0.046
-444.851	583.956	0.063	-0.156
-443.836	342.416	-0.094	-0.185
-442.822	274.785	-0.075	0.134
-441.807	800.000	-0.044	-0.152
-440.792	146.945	-0.060	0.082
-439.778	800.000	0.056	-0.170
-438.763	269.657	0.115	-0.203
-437.749	-200.000	0.007	-0.229
-436.734	128.807	-0.101	0.130
-435.719	134.805	-0.251	-0.328
-434.705	800.000	-0.022	-0.080
-433.690	91.178	0.121	0.137
-432.676	-188.587	-0.090	0.001
-431.661	800.000	0.014	0.061
-430.646	800.000	0.041	0.141
-429.632	-119.778	-0.270	0.047
-428.617	185.320	0.139	0.208
-427.603	-68.576	-0.141	0.055
-426.588	-58.718	0.171	-0.075
-425.573	-108.915	-0.099	0.021
-424.559	-200.000	0.021	0.141
-423.544	-200.000	-0.042	-0.222
-422.530	29.333	0.127	0.109
-421.515	-200.000	-0.064	-0.302
-420.500	800.000	-0.008	-0.033
-419.486	800.000	-0.024	-0.097
-418.471	-39.673	0.112	-0.059
-417.457	-200.000	-0.020	-0.414
-416.442	-109.758	-0.128	0.027
-415.428	800.000	-0.027	-0.097
-414.413	-151.709	0.217	0.016
-413.398	-200.000	-0.031	0.365
-412.384	-41.551	-0.086	-0.044
-411.369	800.000	-0.020	-0.063
-410.355	-200.000	-0.001	0.104
-409.340	-59.030	0.148	-0.064
-408.325	-128.107	-0.364	0.052
-407.311	-200.000	-0.028	0.209
-406.296	-16.677	-0.342	-0.218
-405.282	-82.585	-0.481	-0.157
-404.267	800.000	0.051	-0.169
-403.252	-149.718	-0.219	-0.017
-402.238	666.790	0.013	-0.033
-401.223	109.010	-0.057	-0.069
-400.209	-32.023	-0.100	0.056
-399.194	-200.000	-0.002	0.167
-398.179	13.076	0.059	0.046
-397.165	27.218	-0.085	0.072
-396.150	110.628	0.077	0.093
-395.136	22.894	-0.201	-0.165
-394.121	247.621	0.168	-0.285
-393.106	608.492	-0.095	0.238
-392.092	80.089	-0.162	0.175
-391.077	144.851	-0.070	-0.095
-390.063	-110.044	-0.466	0.098
-389.048	-175.535	0.087	-0.002
-388.033	155.370	-0.094	0.130
-387.019	-110.693	0.139	-0.029
-386.004	-91.601	0.027	0.008
-384.990	89.210	0.334	0.374
-383.975	67.096	0.237	-0.243
-382.960	-200.000	0.032	-0.253
-381.946	-67.705	-0.247	0.097
-380.931	-0.096	-0.034	-0.024
-379.917	-35.814	0.640	-0.348
-378.902	-200.000	-0.020	0.170
-377.888	677.618	-0.025	0.064
-376.873	-200.000	-0.036	0.234
-375.858	-200.000	0.014	0.183
-374.844	9.024	-0.124	-0.094
-373.829	-102.429	0.274	0.066
-372.815	-200.000	-0.006	0.264
-371.800	-112.688	-0.470	-0.094
-370.785	-47.668	0.207	-0.101
-369.771	-8.958	-0.071	-0.048
-368.756	-200.000	0.020	-0.285
-367.742	-0.380	0.265	0.189
-366.727	576.911	-0.067	0.164
-365.712	191.201	0.181	-0.274
-364.698	-200.000	0.002	-0.110
-363.683	-19.557	0.061	-0.038
-362.669	84.406	-0.221	-0.243
-361.654	-69.035	-0.233	-0.090
-360.639	-36.208	0.065	0.035
-359.625	-94.939	-0.132	0.036
-358.610	336.907	-0.090	0.176
-357.596	-84.659	0.172	0.055
-356.581	-21.876	-0.305	-0.186
-355.566	-46.249	0.134	-0.066
-354.552	-98.088	0.176	-0.045
-353.537	-200.000	0.005	-0.225
-352.523	-200.000	-0.009	-0.134
-351.508	-200.000	-0.006	-0.150
-350.493	-200.000	0.052	0.333
-349.479	-101.945	-0.199	0.048
-348.464	94.073	-0.237	0.270
-347.450	-138.787	-0.185	-0.020
-346.435	-19.597	0.239	-0.149
-345.420	-200.000	0.029	0.192
-344.406	-37.762	-0.057	0.030
-343.391	32.004	0.067	0.058
-342.377	-200.000	-0.004	-0.253
-341.362	-11.462	-0.149	-0.098
-340.348	-43.418	-0.116	0.059
-339.333	477.417	0.144	-0.327
-338.318	118.336	0.053	-0.066
-337.304	-200.000	-0.006	0.105
-336.289	-70.370	0.147	-0.056
-335.275	800.000	-0.038	-0.143
-334.260	60.156	0.200	0.199
-333.245	800.000	-0.035	0.135
-332.231	26.221	-0.076	0.064
-331.216	800.000	0.064	-0.274
-330.202	-103.012	0.248	-0.059
-329.187	-160.104	-0.051	0.003
-328.172	-25.124	0.193	0.115
-327.158	317.924	0.074	0.141
-326.143	-6.932	-0.236	0.161
-325.129	145.932	-0.186	-0.250
-324.114	-200.000	-0.051	0.289
-323.099	-200.000	-0.016	0.201
-322.085	-200.000	-0.020	0.384
-321.070	-200.000	0.003	-0.118
-320.056	140.358	-0.228	-0.302
-319.041	30.222	0.052	0.044
-318.026	-76.334	0.121	-0.043
-317.012	800.000	-0.006	-0.020
-315.997	-164.187	0.151	-0.007
-314.983	224.592	0.084	-0.136
-313.968	-120.646	0.160	0.027
-312.953	-119.271	0.107	-0.019
-311.939	-143.060	-0.173	0.017
-310.924	700.758	-0.101	0.267
-309.910	-122.697	0.164	-0.027
-308.895	2.119	0.276	0.200
-307.880	-11.264	-0.141	-0.093
-306.866	196.402	-0.095	-0.145
-305.851	-198.554	-0.104	-0.001
-304.837	-200.000	0.026	-0.232
-303.822	-82.371	0.142	0.046
-302.807	140.283	-0.110	-0.145
-301.793	-4.963	-0.149	0.103
-300.778	800.000	0.049	-0.155
-299.764	800.000	0.093	-0.269
-298.749	188.157	0.163	-0.245
-297.735	-36.828	-0.085	-0.046
-296.720	202.562	0.121	-0.188
-295.705	-66.906	-0.127	0.050
-294.691	662.400	0.062	-0.161
-293.676	800.000	0.032	0.135
-292.662	-24.819	-0.110	0.066
-291.647	-200.000	-0.003	-0.172
-290.632	256.470	-0.090	0.155
-289.618	-200.000	0.002	0.092
-288.603	-106.160	-0.267	-0.060
-287.589	-71.227	-0.144	-0.054
-286.574	-41.152	0.103	0.053
-285.559	-61.553	-0.143	-0.060
-284.545	-78.306	-0.373	0.128
-283.530	-200.000	-0.003	-0.044
-282.516	558.688	0.160	-0.387
-281.501	-200.000	0.061	-0.329
-280.486	-5.631	-0.046	0.032
-279.472	-65.934	0.283	-0.113
-278.457	-200.000	0.013	0.351
-277.443	-53.410	-0.321	-0.147
-276.428	800.000	-0.030	0.130
-275.413	-90.557	0.135	0.039
-274.399	800.000	0.107	-0.409
-273.384	-200.000	-0.083	0.432
-272.370	211.968	-0.091	0.143
-271.355	258.608	0.116	-0.199
-270.340	-34.229	-0.192	-0.105
-269.326	-152.703	0.125	-0.009
-268.311	-106.311	0.051	-0.011
-267.297	52.085	0.156	-0.148
-266.282	-125.430	-0.480	-0.073
-265.267	-200.000	-0.001	0.034
-264.253	195.856	-0.253	0.386
-263.238	-200.000	-0.017	-0.112
-262.224	118.664	0.155	-0.192
-261.209	103.635	0.209	-0.246
-260.195	189.545	-0.121	0.181
-259.180	-101.007	-0.155	-0.038
-258.165	48.085	-0.016	-0.015
-257.151	-15.927	0.390	-0.248
-256.136	208.579	-0.035	-0.054
-255.122	-200.000	0.004	0.075
-254.107	461.109	-0.177	-0.395
-253.092	529.225	-0.104	0.247
-252.078	-122.873	0.159	0.026
-251.063	-112.752	-0.066	-0.013
-250.049	326.830	-0.033	0.063
-249.034	160.699	0.281	-0.392
-248.019	-88.005	0.183	-0.055
-247.005	-109.864	0.258	0.054
-245.990	800.000	0.052	0.213
-244.976	-144.147	-0.086	-0.008
-243.961	-106.361	-0.127	0.028
-242.946	449.835	-0.108	0.238
-241.932	-49.942	-0.225	0.107
-240.917	-98.555	-0.207	0.053
-239.903	235.143	0.049	0.081
-238.888	-115.808	0.193	0.036
-237.873	-125.059	-0.205	0.031
-236.859	203.838	0.094	-0.146
-235.844	-200.000	0.011	0.084
-234.830	28.775	-0.163	0.138
-233.815	47.304	0.494	-0.460
-232.800	-200.000	0.044	0.197
-231.786	-137.392	-0.471	-0.053
-230.771	-56.578	0.270	-0.120
-229.757	-62.024	-0.228	0.095
-228.742	-50.178	0.274	0.129
-227.727	800.000	-0.023	0.093
-226.713	-131.750	0.257	-0.034
-225.698	255.775	0.092	-0.158
-224.684	-200.000	0.038	-0.374
-223.669	-200.000	-0.028	-0.292
-222.655	-200.000	-0.009	0.082
-221.640	11.172	0.263	0.201
-220.625	-74.235	0.390	-0.141
-219.611	-26.599	-0.282	0.165
-218.596	800.000	0.010	0.030
-217.582	-81.587	0.032	-0.010
-216.567	-141.866	-0.238	-0.024
-215.552	315.417	-0.123	0.232
-214.538	249.484	0.094	0.159
-213.523	284.208	-0.159	0.286
-212.509	-20.191	0.274	-0.168
-211.494	406.630	-0.065	-0.136
-210.479	2.270	0.040	-0.029
-209.465	-200.000	0.069	-0.380
-208.450	-35.164	-0.147	-0.080
-207.436	66.904	-0.245	0.249
-206.421	-27.979	0.300	-0.173
-205.406	-200.000	-0.004	0.049
-204.392	-71.063	-0.189	0.071
-203.377	-200.000	-0.056	0.311
-202.363	36.712	-0.012	0.011
-201.348	-177.791	0.305	-0.007
-200.333	-103.857	-0.340	0.079
-199.319	594.491	0.078	0.193
-198.304	25.760	0.186	0.155
-197.290	-135.326	0.225	-0.027
-196.275	800.000	0.047	-0.187
-195.260	-17.328	0.336	-0.211
-194.246	-200.000	-0.083	-0.373
-193.231	800.000	-0.055	0.172
-192.217	124.145	-0.196	-0.246
-191.202	146.275	0.197	-0.264
-190.187	-65.809	-0.057	0.023
-189.173	110.380	-0.104	0.125
-188.158	-69.345	-0.291	0.111
-187.144	-200.000	-0.064	0.418
-186.129	-141.708	0.403	-0.040
-185.114	502.671	-0.025	0.058
-184.100	219.278	0.131	0.210
-183.085	800.000	-0.117	0.445
-182.071	-168.722	-0.102	-0.004
-181.056	162.444	-0.216	0.302
-180.042	-200.000	-0.056	0.327
-179.027	-82.335	0.167	0.054
-178.012	149.418	-0.049	-0.066
-176.998	448.640	0.135	0.296
-175.983	92.896	0.243	0.274
-174.969	94.662	-0.211	0.239
-173.954	94.497	-0.176	-0.200
-172.939	359.675	0.078	-0.156
-171.925	526.461	-0.075	0.176
-170.910	-41.282	0.112	-0.058
-169.896	-102.857	-0.240	0.057
-168.881	-200.000	0.043	0.241
-167.866	-105.136	-0.074	-0.017
-166.852	-40.519	0.390	0.202
-165.837	42.375	0.339	0.307
-164.823	800.000	-0.019	-0.075
-163.808	-200.000	-0.050	-0.310
-162.793	320.676	0.064	0.121
-161.779	57.125	-0.068	-0.066
-160.764	-71.563	-0.061	0.023
-159.750	475.691	-0.263	0.592
-158.735	213.184	0.198	0.312
-157.720	-200.000	-0.032	0.262
-156.706	62.263	-0.256	-0.254
-155.691	268.337	-0.051	0.088
-154.677	-200.000	0.033	0.306
-153.662	24.550	-0.172	-0.142
-152.647	-200.000	-0.023	0.157
-151.633	-200.000	0.004	0.096
-150.618	-27.273	-0.415	-0.241
-149.604	-140.614	0.401	0.041
-148.589	48.765	-0.122	0.114
-147.574	659.456	0.117	0.300
-146.560	-11.133	0.222	0.146
-145.545	-44.121	-0.158	-0.079
-144.531	-160.905	0.239	-0.013
-143.516	128.934	0.117	-0.149
-142.502	-200.000	0.009	-0.108
-141.487	72.905	-0.064	0.066
-140.472	61.008	-0.168	0.166
-139.458	-42.551	0.067	0.034
-138.443	-35.951	-0.354	0.191
-137.429	-137.082	-0.232	0.026
-136.414	505.624	0.083	-0.192
-135.399	318.025	0.158	-0.299
-134.385	-200.000	-0.060	0.343
-133.370	125.861	0.171	0.215
-132.356	91.084	0.115	-0.129
-131.341	-195.548	0.040	-0.000
-130.326	-165.265	-0.265	-0.012
-129.312	199.052	0.108	-0.165
-128.297	-101.464	-0.199	-0.048
-127.283	29.819	0.170	-0.144
-126.268	-151.416	-0.055	-0.004
-125.253	122.493	0.172	0.214
-124.239	440.529	0.106	-0.230
-123.224	187.419	0.080	-0.118
-122.210	349.073	0.195	0.383
-121.195	-200.000	0.080	0.503
-120.180	458.811	0.152	-0.335
-119.166	-84.940	0.055	-0.017
-118.151	30.079	-0.175	-0.149
-117.137	-200.000	-0.002	0.119
-116.122	-129.925	0.502	-0.069
-115.107	-121.222	-0.357	0.059
-114.093	75.804	-0.115	0.121
-113.078	-75.608	0.209	-0.074
-112.064	-41.705	0.325	0.166
-111.049	384.094	0.131	0.269
-110.034	190.665	-0.059	-0.089
-109.020	800.000	-0.094	0.370
-108.005	-143.172	-0.301	-0.029
-106.991	-139.133	-0.142	0.015
-105.976	106.919	-0.282	0.333
-104.962	-142.359	-0.210	-0.021
-103.947	151.660	-0.023	-0.032
-102.932	-200.000	-0.015	-0.195
-101.918	-200.000	0.016	-0.134
-100.903	99.923	-0.250	0.288
-99.889	800.000	-0.033	0.133
-98.874	-129.181	-0.122	0.017
-97.859	800.000	0.120	-0.394
-96.845	35.069	0.092	0.080
-95.830	152.327	0.250	-0.339
-94.816	-125.578	0.276	-0.042
-93.801	38.999	-0.152	0.135
-92.786	-37.524	-0.251	0.133
-91.772	-200.000	0.006	-0.162
-90.757	-151.667	-0.304	0.022
-89.743	-42.004	0.186	0.095
-88.728	-83.371	-0.306	-0.097
-87.713	165.815	0.159	0.224
-86.699	-74.144	-0.482	0.174
-85.684	800.000	-0.046	-0.153
-84.670	800.000	-0.076	-0.220
-83.655	-36.875	-0.295	0.157
-82.640	34.410	0.146	0.127
-81.626	53.263	-0.165	-0.157
-80.611	-200.000	-0.020	0.148
-79.597	32.232	0.189	-0.162
-78.582	173.208	-0.145	0.208
-77.567	-188.377	-0.221	0.003
-76.553	800.000	0.054	0.173
-75.538	38.137	0.190	-0.168
-74.524	-200.000	0.056	-0.287
-73.509	152.568	0.079	0.107
-72.494	150.678	0.088	-0.119
-71.480	-58.389	-0.069	0.030
-70.465	177.681	0.107	-0.155
-69.451	249.065	0.077	0.129
-68.436	291.797	-0.119	0.216
-67.422	800.000	-0.044	0.128
-66.407	97.820	0.014	0.016
-65.392	-66.084	0.116	-0.046
-64.378	390.493	-0.014	0.029
-63.363	226.957	0.100	-0.162
-62.349	-65.879	0.107	0.042
-61.334	13.481	-0.899	-0.693
-60.319	254.936	0.401	0.682
-59.305	-200.000	0.002	-0.712
-58.290	222.640	0.477	0.763
-57.276	791.326	0.664	1.813
-56.261	-200.000	89.866	518.744
-55.246	497.819	1365.728	3121.286
-54.232	150.875	2569.748	3468.413
-53.217	107.044	2346.902	2767.742
-52.203	45.249	2094.747	1917.497
-51.188	40.233	2004.421	1789.533
-50.173	38.598	1984.706	1757.210
-49.159	51.686	2032.342	1918.487
-48.144	54.843	2051.765	1965.439
-47.130	40.909	2010.788	1801.063
-46.115	38.338	1998.907	1767.155
-45.100	38.398	1995.514	1764.628
-44.086	38.317	1993.143	1761.727
-43.071	38.215	1991.347	1759.153
-42.057	38.185	1989.201	1756.914
-41.042	38.275	1986.815	1755.549
-40.027	38.316	1985.115	1754.342
-39.013	38.283	1983.112	1752.206
-37.998	38.361	1981.122	1751.082
-36.984	38.326	1979.393	1749.174
-35.969	38.262	1977.902	1747.211
-34.954	38.290	1976.020	1745.729
-33.940	38.328	1974.526	1744.676
-32.925	38.379	1972.818	1743.557
-31.911	38.384	1970.950	1741.881
-30.896	38.430	1969.006	1740.498
-29.881	38.460	1967.475	1739.348
-28.867	38.446	1966.082	1737.917
-27.852	38.477	1963.749	1736.064
-26.838	38.500	1961.714	1734.397
-25.823	38.452	1959.985	1732.377
-24.809	38.395	1958.527	1730.515
-23.794	38.326	1957.230	1728.691
-22.779	38.394	1954.744	1727.027
-21.765	38.363	1953.163	1725.285
-20.750	38.401	1951.267	1723.882
-19.736	38.295	1950.196	1721.929
-18.721	38.354	1948.480	1720.870
-17.706	38.335	1946.560	1718.939
-16.692	38.348	1945.297	1717.871
-15.677	38.397	1943.577	1716.712
-14.663	38.293	1942.724	1714.975
-13.648	38.338	1941.318	1714.059
-12.633	38.332	1939.344	1712.202
-11.619	38.345	1938.531	1711.526
-10.604	38.240	1937.291	1709.448
-9.590	38.338	1935.908	1709.018
-8.575	38.298	1934.318	1707.191
-7.560	38.247	1933.116	1705.621
-6.546	38.199	1931.735	1703.916
-5.531	38.316	1930.660	1703.920
-4.517	38.260	1929.455	1702.296
-3.502	38.265	1928.034	1701.025
-2.487	38.272	1926.779	1699.904
-1.473	38.263	1925.866	1698.957
-0.458	38.208	1920.561	1693.736
0.556	35.192	1897.596	1652.233
1.571	28.192	1869.668	1568.045
2.586	21.781	1884.756	1524.982
3.600	19.513	1917.389	1531.161
4.615	18.542	1912.575	1518.581
5.629	14.405	1815.210	1406.307
6.644	6.051	1696.543	1248.116
7.659	0.885	1655.795	1177.897
8.673	0.372	1651.643	1170.857
9.688	0.366	1650.309	1169.756
10.702	0.255	1649.035	1167.892
11.717	0.068	1646.371	1164.452
12.731	0.598	1645.711	1167.985
13.746	6.476	1658.241	1222.478
14.761	14.174	1673.670	1293.817
15.775	17.288	1677.672	1321.037
16.790	17.106	1675.765	1317.999
17.804	16.044	1672.435	1307.039
18.819	15.084	1669.538	1297.224
19.834	14.487	1666.814	1290.371
20.848	14.215	1665.052	1286.788
21.863	13.910	1663.917	1283.442
22.877	13.573	1662.415	1279.565
23.892	13.418	1660.965	1277.145
24.907	13.326	1659.512	1275.206
25.921	13.303	1658.583	1274.200
26.936	13.269	1657.594	1273.067
27.950	13.338	1656.169	1272.390
28.965	13.334	1656.555	1272.543
29.980	13.405	1655.761	1272.362
30.994	13.438	1654.840	1271.799
32.009	13.461	1653.503	1270.835
33.023	13.627	1652.217	1271.008
34.038	13.591	1651.690	1270.215
35.053	13.536	1650.855	1269.034
36.067	13.539	1649.335	1267.777
37.082	13.555	1648.493	1267.146
38.096	13.420	1647.970	1265.593
39.111	13.475	1646.724	1264.946
40.126	13.531	1645.941	1264.659
41.140	13.464	1644.893	1263.237
42.155	13.313	1643.749	1261.095
43.169	13.327	1642.406	1260.058
44.184	13.297	1641.222	1258.805
45.199	13.316	1639.766	1257.727
46.213	13.226	1639.446	1256.682
47.228	13.317	1637.815	1256.010
48.242	13.294	1636.679	1254.856
49.257	13.410	1635.279	1254.555
50.271	13.297	1634.316	1252.846
51.286	13.380	1632.595	1252.044
52.301	13.375	1631.232	1250.851
53.315	13.464	1629.769	1250.289
54.330	13.388	1628.512	1248.640
55.344	13.278	1627.203	1246.695
56.359	13.342	1625.453	1245.731
57.374	13.323	1624.148	1244.476
58.388	13.392	1623.277	1244.215
59.403	13.319	1621.736	1242.380
60.417	13.289	1620.392	1241.015
61.432	13.274	1619.057	1239.766
62.447	13.270	1617.945	1238.778
63.461	13.225	1616.722	1237.397
64.476	13.142	1616.003	1236.110
65.490	13.212	1614.320	1235.237
66.505	13.143	1613.671	1234.121
67.520	13.153	1612.493	1233.183
68.534	13.221	1611.417	1232.757
69.549	13.244	1610.318	1231.976
70.563	13.241	1609.319	1231.086
71.578	13.313	1607.284	1229.951
72.593	13.229	1606.667	1228.749
73.607	13.238	1605.128	1227.526
74.622	13.124	1604.418	1226.032
75.636	13.175	1603.403	1225.527
76.651	13.088	1602.895	1224.382
77.666	13.158	1602.063	1224.159
78.680	13.196	1600.483	1223.122
79.695	13.133	1599.785	1222.019
80.709	13.182	1598.907	1221.602
81.724	13.197	1597.859	1220.803
82.739	13.231	1596.815	1220.146
83.753	13.335	1595.503	1219.803
84.768	13.311	1594.857	1219.022
85.782	13.259	1594.741	1218.445
86.797	13.421	1593.712	1218.745
87.812	13.436	1592.253	1217.630
88.826	13.376	1591.144	1216.231
89.841	13.313	1590.204	1214.948
90.855	13.334	1589.353	1214.344
91.870	13.283	1588.532	1213.230
92.884	13.310	1587.749	1212.726
93.899	13.414	1586.596	1212.501
94.914	13.429	1585.186	1211.424
95.928	13.407	1584.013	1210.257
96.943	13.488	1582.714	1209.754
97.957	13.461	1580.750	1207.946
98.972	13.426	1579.678	1206.766
99.987	13.403	1578.151	1205.323
101.001	13.518	1576.253	1204.605
102.016	13.363	1575.097	1202.487
103.030	13.338	1573.428	1200.924
104.045	13.370	1572.530	1200.366
105.060	13.410	1571.000	1199.381
106.074	13.362	1569.710	1197.948
107.089	13.338	1567.882	1196.270
108.103	13.328	1566.332	1194.906
109.118	13.200	1565.328	1193.113
110.133	13.181	1564.383	1192.151
111.147	13.210	1563.230	1191.375
112.162	13.267	1561.437	1190.315
113.176	13.264	1560.073	1189.145
114.191	13.230	1558.260	1187.413
115.206	13.357	1557.474	1187.626
116.220	13.302	1556.432	1186.331
117.235	13.281	1554.931	1184.931
118.249	13.284	1553.688	1183.899
119.264	13.252	1552.607	1182.743
120.279	13.310	1550.923	1181.770
121.293	13.269	1549.935	1180.616
122.308	13.261	1548.344	1179.245
123.322	13.268	1546.693	1177.932
124.337	13.254	1545.463	1176.795
125.352	13.258	1544.246	1175.791
126.366	13.132	1543.142	1173.949
127.381	13.253	1541.993	1173.834
128.395	13.311	1540.280	1172.835
129.410	13.253	1539.120	1171.436
130.424	13.241	1537.982	1170.385
131.439	13.210	1536.871	1169.213
132.454	13.329	1535.807	1169.139
133.468	13.376	1534.107	1168.074
134.483	13.363	1532.757	1166.851
135.497	13.382	1531.705	1166.085
136.512	13.352	1530.520	1164.868
137.527	13.399	1528.709	1163.714
138.541	13.483	1527.162	1163.025
139.556	13.485	1526.056	1162.097
140.570	13.420	1524.885	1160.644
141.585	13.403	1523.365	1159.266
142.600	13.537	1522.224	1159.233
143.614	13.594	1520.820	1158.461
144.629	13.586	1519.960	1157.646
145.643	13.520	1518.463	1155.941
146.658	13.583	1516.666	1154.909
147.673	13.623	1514.872	1153.722
148.687	13.536	1513.745	1152.158
149.702	13.528	1512.316	1150.910
150.716	13.429	1510.783	1148.956
151.731	13.484	1509.600	1148.339
152.746	13.388	1508.188	1146.496
153.760	13.476	1506.567	1145.774
154.775	13.515	1505.556	1145.167
155.789	13.553	1504.488	1144.516
156.804	13.520	1503.232	1143.237
157.819	13.527	1501.995	1142.238
158.833	13.614	1500.755	1141.795
159.848	13.567	1499.587	1140.486
160.862	13.619	1498.657	1140.033
161.877	13.660	1497.089	1139.021
162.892	13.583	1496.122	1137.653
163.906	13.594	1494.827	1136.646
164.921	13.606	1493.374	1135.523
165.935	13.606	1492.485	1134.747
166.950	13.621	1491.655	1134.115
167.964	13.602	1490.492	1133.003
168.979	13.672	1489.134	1132.348
169.994	13.711	1488.010	1131.657
171.008	13.687	1486.934	1130.575
172.023	13.691	1485.985	1129.780
173.037	13.705	1484.627	1128.745
174.052	13.706	1483.584	1127.859
175.067	13.762	1482.471	1127.293
176.081	13.738	1481.541	1126.326
177.096	13.755	1479.974	1125.148
178.110	13.698	1478.649	1123.652
179.125	13.707	1477.044	1122.395
180.140	13.824	1476.333	1122.546
181.154	13.729	1475.656	1121.294
182.169	13.778	1473.982	1120.252
183.183	13.771	1473.358	1119.630
184.198	13.847	1472.081	1119.078
185.213	13.903	1470.986	1118.517
186.227	13.886	1469.830	1117.431
187.242	13.941	1469.158	1117.190
188.256	13.917	1467.875	1115.956
189.271	13.878	1467.155	1115.046
190.286	14.002	1465.771	1114.729
191.300	13.886	1465.059	1113.310
192.315	13.814	1463.513	1111.552
193.329	13.757	1462.534	1110.326
194.344	13.877	1461.211	1110.029
195.359	13.842	1459.879	1108.682
196.373	13.870	1459.342	1108.364
197.388	13.974	1458.084	1108.005
198.402	13.962	1456.970	1106.980
199.417	13.904	1456.247	1105.947
200.432	14.009	1455.053	1105.643
201.446	14.084	1453.832	1105.113
202.461	14.143	1452.696	1104.549
203.475	14.226	1451.206	1103.864
204.490	14.074	1450.978	1102.584
205.504	14.181	1449.573	1102.133
206.519	14.188	1448.329	1101.135
207.534	14.069	1447.624	1099.712
208.548	14.200	1445.829	1099.116
209.563	14.073	1445.711	1098.092
210.577	14.072	1444.554	1097.107
211.592	14.163	1443.693	1096.958
212.607	14.203	1442.747	1096.404
213.621	14.247	1442.320	1096.274
214.636	14.259	1441.230	1095.425
215.650	14.235	1440.348	1094.502
216.665	14.244	1439.555	1093.862
217.680	14.294	1438.904	1093.601
218.694	14.318	1437.888	1092.887
219.709	14.319	1437.197	1092.272
220.723	14.380	1436.332	1091.918
221.738	14.434	1434.622	1090.877
222.753	14.349	1434.400	1090.051
223.767	14.425	1433.511	1089.777
224.782	14.442	1432.143	1088.754
225.796	14.490	1431.149	1088.212
226.811	14.462	1430.777	1087.649
227.826	14.479	1429.478	1086.680
228.840	14.505	1428.618	1086.099
229.855	14.338	1428.031	1084.467
230.869	14.407	1426.820	1083.902
231.884	14.439	1425.906	1083.317
232.899	14.389	1424.769	1082.036
233.913	14.403	1423.599	1081.144
234.928	14.425	1422.496	1080.352
235.942	14.418	1421.238	1079.253
236.957	14.406	1420.303	1078.369
237.972	14.464	1419.191	1077.806
238.986	14.410	1418.094	1076.531
240.001	14.476	1417.086	1076.094
241.015	14.546	1415.959	1075.596
242.030	14.489	1414.748	1074.215
243.045	14.455	1413.940	1073.287
244.059	14.547	1413.019	1073.085
245.074	14.554	1412.246	1072.445
246.088	14.537	1411.516	1071.691
247.103	14.572	1411.101	1071.501
248.117	14.686	1410.060	1071.349
249.132	14.692	1409.361	1070.765
250.147	14.647	1408.631	1069.824
251.161	14.777	1408.013	1070.093
252.176	14.872	1407.034	1069.863
253.190	14.936	1406.154	1069.509
254.205	14.834	1405.866	1068.541
255.220	14.857	1404.756	1067.750
256.234	15.044	1403.601	1067.970
257.249	14.980	1402.935	1066.962
258.263	14.950	1402.513	1066.357
259.278	15.050	1401.201	1065.900
260.293	14.983	1400.104	1064.549
261.307	14.998	1399.806	1064.321
262.322	15.033	1399.241	1064.022
263.336	15.084	1398.385	1063.598
264.351	15.192	1396.632	1062.854
265.366	15.068	1396.587	1061.940
266.380	15.093	1395.615	1061.269
267.395	15.126	1394.329	1060.401
268.409	15.112	1393.812	1059.826
269.424	15.084	1392.542	1058.594
270.439	15.094	1391.507	1057.771
271.453	15.204	1389.991	1057.221
272.468	15.085	1389.732	1056.179
273.482	15.101	1388.756	1055.447
274.497	15.139	1387.980	1055.001
275.512	15.173	1387.120	1054.467
276.526	15.126	1386.659	1053.727
277.541	15.213	1385.155	1053.040
278.555	15.134	1384.677	1052.091
279.570	15.210	1383.424	1051.520
280.585	15.345	1382.440	1051.522
281.599	15.260	1382.323	1050.811
282.614	15.209	1381.586	1049.839
283.628	15.351	1379.634	1049.150
284.643	15.263	1378.755	1047.838
285.657	15.321	1377.393	1047.074
286.672	15.365	1376.353	1046.464
287.687	15.317	1376.104	1045.883
288.701	15.374	1374.857	1045.195
289.716	15.354	1374.193	1044.473
290.730	15.347	1373.891	1044.110
291.745	15.399	1372.691	1043.432
292.760	15.343	1371.776	1042.296
293.774	15.419	1370.649	1041.814
294.789	15.429	1369.731	1041.092
295.803	15.445	1368.917	1040.478
296.818	15.583	1367.782	1040.378
297.833	15.567	1366.806	1039.442
298.847	15.526	1365.690	1038.246
299.862	15.505	1364.858	1037.398
300.876	15.523	1364.003	1036.765
301.891	15.524	1363.234	1036.098
302.906	15.557	1362.455	1035.613
303.920	15.633	1361.587	1035.332
304.935	15.651	1360.876	1034.811
305.949	15.628	1360.096	1033.985
306.964	15.658	1359.715	1033.788
307.979	15.740	1358.372	1033.175
308.993	15.785	1357.831	1032.954
310.008	15.700	1356.767	1031.527
311.022	15.731	1355.653	1030.783
312.037	15.726	1354.858	1030.055
313.052	15.854	1353.620	1029.808
314.066	15.748	1352.801	1028.446
315.081	15.734	1351.519	1027.294
316.095	15.741	1350.706	1026.623
317.110	15.780	1349.430	1025.806
318.125	15.783	1348.711	1025.182
319.139	15.802	1347.491	1024.282
320.154	15.811	1346.538	1023.524
321.168	15.881	1345.778	1023.279
322.183	15.764	1345.007	1021.890
323.197	15.745	1344.073	1020.978
324.212	15.843	1343.445	1021.004
325.227	15.803	1342.565	1020.003
326.241	15.994	1341.580	1020.319
327.256	15.958	1340.577	1019.248
328.270	15.867	1339.476	1017.773
329.285	15.864	1338.862	1017.196
330.300	15.888	1337.692	1016.361
331.314	15.875	1337.129	1015.764
332.329	15.929	1336.326	1015.392
333.343	15.909	1335.245	1014.358
334.358	15.955	1334.138	1013.705
335.373	15.984	1333.688	1013.449
336.387	15.956	1333.143	1012.778
337.402	16.112	1332.066	1012.806
338.416	16.087	1331.413	1012.067
339.431	16.024	1331.093	1011.359
340.446	16.029	1330.271	1010.677
341.460	16.149	1329.397	1010.639
342.475	16.198	1327.809	1009.635
343.489	16.161	1327.353	1008.983
344.504	16.274	1326.446	1008.876
345.519	16.216	1325.493	1007.714
346.533	16.219	1324.707	1007.045
347.548	16.396	1323.263	1006.914
348.562	16.350	1322.603	1006.050
349.577	16.323	1322.141	1005.447
350.592	16.310	1321.455	1004.763
351.606	16.317	1320.224	1003.776
352.621	16.306	1319.475	1003.054
353.635	16.192	1318.207	1001.326
354.650	16.168	1317.659	1000.679
355.665	16.270	1316.539	1000.346
356.679	16.293	1315.195	999.372
357.694	16.369	1313.601	998.519
358.708	16.388	1313.154	998.204
359.723	16.324	1312.537	997.267
360.738	16.468	1311.265	997.061
361.752	16.431	1310.088	995.863
362.767	16.422	1309.234	995.072
363.781	16.410	1308.631	994.452
364.796	16.363	1307.930	993.558
365.810	16.399	1306.979	992.957
366.825	16.456	1306.370	992.741
367.840	16.533	1305.532	992.472
368.854	16.587	1304.888	992.209
369.869	16.573	1304.728	991.919
370.883	16.682	1303.600	991.611
371.898	16.596	1303.387	990.858
372.913	16.637	1302.031	989.977
373.927	16.640	1300.986	989.114
374.942	16.581	1300.601	988.388
375.956	16.690	1299.677	988.235
376.971	16.705	1298.582	987.405
377.986	16.784	1297.927	987.278
379.000	16.705	1297.386	986.318
380.015	16.829	1296.137	986.005
381.029	16.864	1295.375	985.541
382.044	16.793	1294.910	984.689
383.059	16.706	1294.141	983.510
384.073	16.831	1293.359	983.553
385.088	16.962	1292.851	983.842
386.102	16.862	1292.441	982.860
387.117	16.926	1291.584	982.494
388.132	16.952	1290.703	981.885
389.146	16.953	1289.490	980.884
390.161	16.857	1288.996	979.864
391.175	16.840	1288.637	979.411
392.190	16.857	1287.571	978.612
393.205	16.924	1286.400	978.020
394.219	16.887	1285.854	977.305
395.234	17.100	1284.232	977.209
396.248	17.038	1283.234	976.009
397.263	16.940	1282.226	974.595
398.278	16.965	1280.839	973.595
399.292	16.989	1279.190	972.393
400.307	16.911	1279.168	971.843
401.321	16.964	1277.707	970.953
402.336	16.927	1276.626	969.831
403.350	16.963	1275.370	968.997
404.365	16.971	1274.778	968.508
405.380	16.949	1274.045	967.741
406.394	16.977	1273.095	967.092
407.409	17.104	1272.474	967.261
408.423	17.114	1271.888	966.783
409.438	17.230	1270.921	966.627
410.453	17.212	1270.331	965.988
411.467	17.236	1269.737	965.586
412.482	17.244	1269.012	964.992
413.496	17.295	1268.237	964.612
414.511	17.278	1267.713	964.031
415.526	17.324	1266.860	963.555
416.540	17.292	1266.396	962.935
417.555	17.314	1265.684	962.436
418.569	17.351	1265.134	962.140
419.584	17.354	1264.765	961.790
420.599	17.488	1263.861	961.773
421.613	88.033	1337.327	1420.362
422.628	85.997	1348.009	1420.474
