DTS Sentinel unit serial number:	SN413079Multiplexer serial number:	ORYXHardware model number:	OX4-SRSoftware version number:	ORYX F/W v4.00 Oryx Data Collector v3.7.2.0data status	okinstallation	princeton_trtdifferential loss correction	single-endedforward channel	channel 4reverse channel	N/Adate	2019/09/13time	08:21:35forward acquisition time	60.00reverse acquisition time	0.00gamma	496.2192k internal	0.2317k external	0.2317temperature offset calibration	1.0202default loss term (dB/km)	0.3790temperature slope calibration	1.0000multiplexer offset coefficient	1.0000multiplexer slope coefficient	1.0000fibre end	0.00T internal ref (°C)	27.25T ext. ref 1 (°C)	4.27T ext. ref 2 (°C)	23.34length (m)	temperature (°C)	Stokes	anti-Stokes-747.200	-74.227	-0.022	0.008
-746.185	60.376	-0.221	0.221
-745.171	36.371	-0.277	-0.247
-744.156	149.708	0.150	-0.206
-743.142	32.229	0.135	0.118
-742.127	-55.052	-0.402	0.183
-741.112	236.929	-0.023	0.038
-740.098	-13.576	-0.325	0.213
-739.083	-68.590	0.170	0.067
-738.069	425.399	0.091	0.198
-737.054	-115.570	0.032	0.006
-736.039	-103.225	0.085	0.020
-735.025	351.093	0.228	0.456
-734.010	267.689	0.100	-0.178
-732.996	800.000	0.043	-0.182
-731.981	321.183	-0.045	-0.087
-730.966	-200.000	0.038	-0.323
-729.952	-73.032	0.084	-0.031
-728.937	-200.000	-0.042	-0.263
-727.923	-200.000	-0.020	0.118
-726.908	-4.783	-0.097	-0.068
-725.894	-106.026	-0.118	-0.027
-724.879	-200.000	0.027	0.245
-723.864	251.999	-0.152	-0.262
-722.850	186.781	-0.115	0.173
-721.835	29.926	-0.234	-0.202
-720.821	78.081	0.236	-0.254
-719.806	-149.088	0.150	-0.012
-718.791	71.722	0.179	-0.188
-717.777	359.276	-0.072	-0.146
-716.762	-7.559	0.284	0.195
-715.748	800.000	0.015	-0.045
-714.733	256.928	0.138	-0.239
-713.718	-123.452	-0.333	-0.054
-712.704	-200.000	0.001	-0.160
-711.689	-45.402	0.095	-0.048
-710.675	-45.566	0.188	0.094
-709.660	800.000	-0.094	-0.313
-708.645	800.000	-0.047	-0.150
-707.631	172.491	-0.274	-0.399
-706.616	-141.903	0.190	-0.019
-705.602	-200.000	-0.012	-0.151
-704.587	-200.000	-0.080	0.537
-703.572	325.795	-0.157	0.304
-702.558	-100.310	-0.291	-0.073
-701.543	800.000	-0.061	0.247
-700.529	-190.171	0.256	-0.003
-699.514	-200.000	0.002	0.064
-698.499	214.354	-0.136	0.217
-697.485	-119.060	-0.231	0.041
-696.470	271.347	0.045	-0.080
-695.456	53.414	-0.084	-0.081
-694.441	112.271	0.164	0.201
-693.426	-48.366	0.236	0.115
-692.412	38.065	0.183	0.165
-691.397	-200.000	-0.005	-0.062
-690.383	-185.606	-0.258	0.004
-689.368	75.224	-0.287	-0.305
-688.354	135.098	-0.262	-0.345
-687.339	186.688	-0.085	-0.128
-686.324	195.788	-0.165	0.253
-685.310	-200.000	-0.023	-0.195
-684.295	800.000	0.096	0.330
-683.281	-200.000	-0.046	-0.419
-682.266	-31.473	0.372	-0.211
-681.251	-85.555	-0.261	0.082
-680.237	800.000	0.144	-0.605
-679.222	-122.040	-0.358	0.059
-678.208	-109.195	0.089	0.019
-677.193	79.388	-0.169	-0.183
-676.178	-200.000	-0.000	-0.121
-675.164	-49.807	-0.232	-0.111
-674.149	-200.000	0.001	0.052
-673.135	-55.780	-0.393	-0.177
-672.120	67.335	-0.374	-0.385
-671.105	-200.000	0.026	-0.286
-670.091	-200.000	-0.031	0.230
-669.076	-200.000	0.004	0.082
-668.062	260.651	-0.042	0.074
-667.047	-150.248	0.330	0.026
-666.032	-200.000	0.034	-0.442
-665.018	800.000	-0.030	-0.089
-664.003	19.071	0.059	0.048
-662.989	74.538	0.118	-0.125
-661.974	-50.898	-0.261	-0.124
-660.959	-200.000	-0.040	0.509
-659.945	-37.596	-0.193	0.104
-658.930	-77.621	-0.277	-0.097
-657.916	-109.475	0.202	-0.043
-656.901	-200.000	0.031	0.174
-655.886	-13.247	0.030	-0.020
-654.872	-29.252	-0.240	0.138
-653.857	3.506	-0.096	0.071
-652.843	127.510	0.160	0.205
-651.828	-107.290	0.177	0.039
-650.814	471.124	0.018	-0.040
-649.799	-61.767	-0.192	0.081
-648.784	-200.000	-0.019	0.275
-647.770	157.150	-0.085	-0.119
-646.755	-200.000	-0.032	-0.158
-645.741	-200.000	-0.030	-0.406
-644.726	-200.000	0.009	0.170
-643.711	108.638	-0.083	-0.100
-642.697	76.531	-0.127	0.136
-641.682	800.000	0.051	-0.166
-640.668	-13.795	0.246	0.160
-639.653	17.260	-0.201	0.161
-638.638	800.000	0.048	-0.181
-637.624	800.000	-0.032	0.124
-636.609	-1.452	-0.339	0.241
-635.595	188.295	-0.173	0.261
-634.580	166.733	0.041	-0.059
-633.565	-158.275	0.145	0.009
-632.551	-112.722	0.021	-0.004
-631.536	-84.955	0.097	0.031
-630.522	12.235	-0.049	0.038
-629.507	185.526	-0.222	-0.332
-628.492	800.000	0.062	-0.258
-627.478	-100.636	0.096	-0.024
-626.463	-35.735	0.154	-0.084
-625.449	800.000	-0.040	0.116
-624.434	143.602	0.120	0.161
-623.419	800.000	-0.080	-0.266
-622.405	264.590	-0.116	-0.204
-621.390	728.504	0.087	-0.234
-620.376	-103.749	-0.100	0.024
-619.361	-200.000	-0.019	-0.445
-618.346	-200.000	-0.034	-0.255
-617.332	-49.870	0.168	0.081
-616.317	235.945	-0.028	0.047
-615.303	18.447	0.135	0.109
-614.288	44.391	-0.118	0.109
-613.273	-31.565	-0.306	-0.173
-612.259	9.092	-0.126	0.096
-611.244	-43.556	0.126	-0.064
-610.230	347.552	-0.069	0.138
-609.215	800.000	0.007	0.028
-608.201	50.196	0.102	0.097
-607.186	425.331	-0.213	0.463
-606.171	26.323	0.033	-0.028
-605.157	-200.000	0.029	0.305
-604.142	433.847	-0.054	-0.118
-603.128	47.491	-0.182	-0.171
-602.113	37.666	-0.223	0.200
-601.098	726.304	-0.102	-0.274
-600.084	-146.619	0.351	-0.031
-599.069	170.560	0.165	-0.238
-598.055	25.982	0.108	-0.091
-597.040	-161.266	-0.169	0.009
-596.025	625.121	-0.044	-0.112
-595.011	19.026	0.203	-0.164
-593.996	800.000	-0.099	0.403
-592.982	-124.352	0.144	0.023
-591.967	298.185	-0.080	-0.149
-590.952	-200.000	-0.022	0.100
-589.938	-200.000	-0.005	-0.227
-588.923	-88.212	0.193	-0.058
-587.909	-71.587	0.376	0.142
-586.894	-91.203	-0.270	-0.078
-585.879	148.818	-0.161	-0.219
-584.865	-103.948	-0.070	0.017
-583.850	262.983	0.081	0.141
-582.836	-200.000	0.014	-0.095
-581.821	192.678	-0.156	0.237
-580.806	800.000	0.034	0.130
-579.792	210.578	-0.114	0.181
-578.777	305.909	0.173	-0.324
-577.763	87.062	-0.189	-0.210
-576.748	682.188	0.028	0.074
-575.733	16.591	-0.320	0.254
-574.719	-131.250	0.027	-0.004
-573.704	-60.711	-0.150	-0.064
-572.690	32.746	-0.183	0.159
-571.675	14.397	-0.104	0.082
-570.661	-23.945	0.094	-0.057
-569.646	-200.000	-0.036	0.220
-568.631	-200.000	-0.018	0.311
-567.617	800.000	0.061	0.268
-566.602	-114.995	0.092	0.018
-565.588	39.805	-0.200	-0.180
-564.573	-87.316	-0.071	0.022
-563.558	-102.721	0.181	0.043
-562.544	-82.358	0.182	0.060
-561.529	-200.000	-0.068	-0.409
-560.515	619.126	-0.133	-0.337
-559.500	515.861	0.085	-0.199
-558.485	-22.938	0.175	0.106
-557.471	-200.000	0.020	-0.202
-556.456	800.000	0.037	0.137
-555.442	-200.000	0.012	-0.055
-554.427	635.025	0.119	-0.303
-553.412	-200.000	-0.022	-0.134
-552.398	-30.857	0.116	0.066
-551.383	671.812	0.100	-0.262
-550.369	265.250	0.053	-0.093
-549.354	42.840	-0.170	-0.155
-548.339	75.313	0.275	0.291
-547.325	181.348	0.092	-0.136
-546.310	-29.695	-0.177	-0.101
-545.296	-200.000	0.077	-0.653
-544.281	115.121	0.198	0.243
-543.266	-97.824	-0.210	-0.054
-542.252	-200.000	-0.001	0.169
-541.237	191.080	0.157	-0.238
-540.223	611.397	-0.077	0.193
-539.208	800.000	0.009	-0.037
-538.193	-28.983	0.376	0.217
-537.179	21.235	0.046	-0.038
-536.164	-92.037	-0.382	-0.108
-535.150	356.588	0.054	-0.108
-534.135	343.100	-0.146	-0.286
-533.121	-112.531	0.204	-0.041
-532.106	114.512	-0.144	-0.176
-531.091	-80.619	0.542	0.181
-530.077	87.978	0.259	0.288
-529.062	-200.000	-0.013	-0.214
-528.048	248.530	-0.195	-0.331
-527.033	53.156	-0.060	-0.057
-526.018	120.153	0.105	0.131
-525.004	-97.420	0.206	-0.054
-523.989	-200.000	-0.044	-0.320
-522.975	-200.000	0.014	-0.083
-521.960	-200.000	0.004	-0.233
-520.945	-147.974	0.087	-0.007
-519.931	-200.000	0.004	0.130
-518.916	320.191	0.181	-0.346
-517.902	381.092	0.071	0.146
-516.887	538.842	-0.149	0.357
-515.872	-7.882	-0.155	-0.105
-514.858	768.221	0.153	0.417
-513.843	39.134	-0.249	0.223
-512.829	795.926	0.065	-0.180
-511.814	-125.995	0.372	0.056
-510.799	706.868	-0.057	0.150
-509.785	145.388	0.099	-0.133
-508.770	-200.000	-0.015	0.074
-507.756	-33.952	0.206	0.114
-506.741	4.010	0.119	0.087
-505.726	91.411	0.091	0.103
-504.712	69.198	-0.007	-0.007
-503.697	800.000	-0.125	-0.361
-502.683	289.813	0.043	0.078
-501.668	-132.154	-0.232	-0.030
-500.653	-200.000	-0.046	-0.400
-499.639	3.952	-0.261	-0.191
-498.624	800.000	-0.105	-0.339
-497.610	-123.189	-0.217	-0.035
-496.595	800.000	0.062	-0.268
-495.581	77.335	0.067	-0.071
-494.566	800.000	0.084	0.235
-493.551	224.243	-0.274	-0.445
-492.537	151.690	0.103	0.140
-491.522	34.116	-0.270	0.236
-490.508	20.158	0.219	-0.177
-489.493	176.934	-0.091	0.133
-488.478	800.000	-0.089	-0.248
-487.464	800.000	-0.067	-0.272
-486.449	-115.343	-0.428	-0.081
-485.435	-92.445	0.445	-0.125
-484.420	95.169	0.116	0.132
-483.405	-45.806	-0.169	0.084
-482.391	-145.158	0.078	0.007
-481.376	-200.000	0.040	0.323
-480.362	-11.414	-0.341	0.225
-479.347	-117.476	0.275	0.050
-478.332	15.430	-0.098	0.077
-477.318	764.936	0.097	-0.263
-476.303	-200.000	0.025	0.142
-475.289	19.149	-0.292	0.234
-474.274	-19.457	0.133	-0.083
-473.259	800.000	-0.044	-0.187
-472.245	-84.653	0.359	0.113
-471.230	-200.000	-0.022	0.131
-470.216	-200.000	0.000	0.037
-469.201	-101.988	0.036	0.009
-468.186	-153.352	0.363	0.025
-467.172	-2.439	0.089	0.063
-466.157	-116.562	-0.046	0.009
-465.143	-75.600	-0.327	-0.116
-464.128	11.706	-0.207	-0.159
-463.113	705.121	0.052	0.137
-462.099	4.708	0.053	0.039
-461.084	-33.658	0.266	0.147
-460.070	-118.897	-0.252	0.044
-459.055	-13.614	0.116	-0.076
-458.040	-141.768	0.286	0.029
-457.026	-161.238	-0.169	-0.009
-456.011	436.778	-0.118	0.257
-454.997	-200.000	-0.006	0.169
-453.982	242.433	-0.051	-0.086
-452.968	-114.983	0.189	0.036
-451.953	-147.713	-0.097	0.008
-450.938	-65.508	-0.180	-0.072
-449.924	-200.000	-0.010	-0.126
-448.909	-200.000	-0.022	0.172
-447.895	-13.141	0.076	0.049
-446.880	-200.000	0.053	0.309
-445.865	249.919	-0.203	0.345
-444.851	800.000	0.060	0.192
-443.836	418.680	0.149	0.320
-442.822	800.000	0.090	0.267
-441.807	-29.606	0.371	0.212
-440.792	800.000	0.007	0.027
-439.778	-200.000	0.006	-0.279
-438.763	-150.456	-0.261	-0.020
-437.749	-66.717	0.282	0.112
-436.734	-87.174	-0.158	0.048
-435.719	120.164	0.095	-0.118
-434.705	189.917	-0.064	0.096
-433.690	-183.750	-0.225	0.004
-432.676	-8.299	-0.310	-0.209
-431.661	-24.399	0.122	0.073
-430.646	-200.000	-0.267	0.000
-429.632	800.000	-0.040	0.131
-428.617	-185.108	0.070	-0.001
-427.603	388.736	0.085	-0.176
-426.588	186.404	-0.106	-0.157
-425.573	-30.232	-0.237	0.135
-424.559	566.277	0.146	-0.355
-423.544	-174.250	-0.357	0.010
-422.530	215.954	-0.119	0.189
-421.515	-136.567	0.069	-0.008
-420.500	-162.495	-0.377	0.019
-419.486	-40.961	-0.018	0.009
-418.471	-200.000	0.003	-0.388
-417.457	-37.363	0.142	-0.076
-416.442	188.409	-0.079	-0.118
-415.428	-84.385	0.042	0.013
-414.413	-159.581	0.220	-0.012
-413.398	800.000	-0.017	0.063
-412.384	71.029	-0.128	-0.133
-411.369	57.141	0.154	-0.150
-410.355	46.484	0.328	-0.304
-409.340	772.737	0.050	0.137
-408.325	-83.649	-0.069	0.022
-407.311	-200.000	0.000	0.169
-406.296	-200.000	-0.038	0.181
-405.282	-81.922	0.190	-0.062
-404.267	-200.000	0.039	0.236
-403.252	-86.895	-0.357	0.109
-402.238	-177.973	-0.027	-0.001
-401.223	-145.403	-0.198	-0.018
-400.209	110.265	0.044	0.053
-399.194	-124.357	-0.135	-0.021
-398.179	-10.675	0.079	0.052
-397.165	7.686	0.295	-0.220
-396.150	-200.000	0.019	-0.226
-395.136	-200.000	0.040	0.211
-394.121	-13.607	-0.124	-0.080
-393.106	155.960	-0.019	0.027
-392.092	301.380	-0.061	-0.112
-391.077	-8.837	0.374	0.251
-390.063	680.874	0.078	-0.202
-389.048	304.152	-0.085	0.157
-388.033	-100.181	0.205	-0.051
-387.019	512.698	-0.059	0.138
-386.004	4.978	-0.254	0.187
-384.990	-200.000	-0.006	-0.252
-383.975	-76.193	0.306	-0.108
-382.960	-200.000	0.104	0.554
-381.946	-23.622	0.272	0.163
-380.931	225.848	-0.092	0.149
-379.917	-200.000	-0.023	-0.392
-378.902	-33.929	-0.118	-0.065
-377.888	-69.067	-0.150	0.058
-376.873	-22.647	-0.069	-0.042
-375.858	163.137	0.077	-0.108
-374.844	800.000	-0.048	-0.146
-373.829	505.788	0.119	0.275
-372.815	800.000	0.034	-0.116
-371.800	-79.363	0.195	-0.066
-370.785	-200.000	0.061	0.304
-369.771	-6.352	0.214	0.146
-368.756	-82.134	-0.476	0.155
-367.742	-70.878	-0.208	-0.078
-366.727	-200.000	0.054	-0.239
-365.712	7.771	0.071	-0.053
-364.698	-113.310	-0.444	0.087
-363.683	-140.074	-0.200	-0.021
-362.669	-112.913	-0.121	-0.024
-361.654	800.000	-0.040	0.158
-360.639	-86.223	-0.069	-0.021
-359.625	-51.053	0.175	-0.082
-358.610	447.784	-0.086	-0.189
-357.596	800.000	0.092	-0.305
-356.581	-135.358	0.420	-0.050
-355.566	-191.096	-0.192	-0.002
-354.552	52.678	0.101	-0.097
-353.537	-159.000	0.255	-0.014
-352.523	180.782	-0.083	-0.121
-351.508	39.047	0.157	0.140
-350.493	148.974	0.109	0.147
-349.479	38.663	-0.356	-0.317
-348.464	1.075	0.069	-0.049
-347.450	-50.545	-0.242	-0.114
-346.435	-200.000	0.045	-0.428
-345.420	-123.730	0.206	-0.033
-344.406	351.584	-0.035	-0.069
-343.391	-119.434	-0.065	-0.011
-342.377	-200.000	0.075	-0.488
-341.362	-105.253	-0.086	0.020
-340.348	34.662	0.106	0.093
-339.333	-9.745	-0.150	-0.099
-338.318	-110.085	-0.204	0.043
-337.304	-122.088	-0.130	0.021
-336.289	362.930	0.048	-0.096
-335.275	800.000	-0.104	0.333
-334.260	800.000	-0.034	0.120
-333.245	-200.000	0.005	0.040
-332.231	-51.591	0.289	0.134
-331.216	40.710	0.139	-0.125
-330.202	800.000	0.046	-0.162
-329.187	-200.000	0.063	-0.348
-328.172	800.000	0.039	-0.159
-327.158	-89.372	0.264	-0.077
-326.143	-200.000	0.014	-0.438
-325.129	-120.323	0.283	0.048
-324.114	800.000	0.037	0.114
-323.099	-52.024	0.238	-0.110
-322.085	-94.914	0.391	-0.105
-321.070	-113.905	0.228	0.044
-320.056	292.260	0.069	0.126
-319.041	-43.493	-0.423	-0.213
-318.026	-200.000	-0.019	0.120
-317.012	-49.863	-0.270	0.128
-315.997	-200.000	-0.008	0.243
-314.983	274.854	-0.131	0.231
-313.968	-200.000	-0.003	-0.245
-312.953	-200.000	0.043	0.249
-311.939	99.740	-0.140	0.161
-310.924	-200.000	0.013	-0.179
-309.910	-34.835	0.076	-0.041
-308.895	-83.752	-0.077	0.024
-307.880	76.499	-0.141	-0.149
-306.866	174.922	0.142	-0.204
-305.851	92.621	0.157	0.177
-304.837	-5.424	-0.220	-0.150
-303.822	-200.000	0.019	-0.218
-302.807	1.989	0.248	0.178
-301.793	-200.000	0.010	0.202
-300.778	-88.309	0.215	-0.064
-299.764	1.989	-0.188	-0.135
-298.749	-53.830	-0.332	-0.151
-297.735	-132.329	-0.278	0.036
-296.720	70.814	0.305	0.314
-295.705	-157.695	0.228	-0.014
-294.691	-200.000	0.031	0.473
-293.676	800.000	-0.076	0.217
-292.662	-102.051	-0.069	-0.017
-291.647	147.837	-0.081	-0.109
-290.632	304.114	-0.069	0.128
-289.618	-200.000	0.015	0.266
-288.603	-104.997	0.045	0.010
-287.589	-75.162	0.213	0.076
-286.574	721.914	0.038	-0.100
-285.559	67.000	-0.137	0.139
-284.545	309.419	0.099	-0.183
-283.530	38.961	0.069	0.061
-282.516	-164.449	0.305	-0.014
-281.501	-142.785	0.205	0.020
-280.486	-77.086	-0.274	0.095
-279.472	-200.000	-0.012	-0.454
-278.457	-39.712	0.148	0.077
-277.443	24.715	0.060	-0.049
-276.428	22.276	-0.294	0.239
-275.413	120.175	-0.122	-0.150
-274.399	-139.929	0.492	0.052
-273.384	-141.594	-0.217	0.022
-272.370	-113.046	-0.293	0.058
-271.355	800.000	0.064	0.239
-270.340	412.972	0.191	0.403
-269.326	-160.329	-0.241	-0.013
-268.311	153.700	-0.222	-0.302
-267.297	-200.000	0.011	0.206
-266.282	800.000	0.106	0.422
-265.267	-8.979	-0.328	-0.218
-264.253	7.880	-0.256	0.191
-263.238	-77.239	0.215	0.074
-262.224	-200.000	-0.057	0.272
-261.209	800.000	-0.116	0.343
-260.195	67.685	0.353	0.358
-259.180	175.112	-0.178	-0.256
-258.165	-200.000	-0.044	-0.344
-257.151	800.000	0.104	0.339
-256.136	315.489	0.052	0.098
-255.122	775.861	0.100	0.271
-254.107	-94.122	-0.233	-0.064
-253.092	-52.465	-0.234	-0.108
-252.078	-135.984	0.094	-0.011
-251.063	-116.825	-0.165	0.030
-250.049	31.843	0.248	0.212
-249.034	-196.756	0.494	0.003
-248.019	-53.270	-0.205	-0.093
-247.005	-93.308	-0.114	-0.031
-245.990	106.703	0.035	-0.041
-244.976	800.000	0.128	-0.365
-243.961	-167.174	0.145	-0.006
-242.946	800.000	-0.066	0.213
-241.932	-200.000	-0.058	0.328
-240.917	84.393	0.144	0.157
-239.903	16.212	-0.340	-0.266
-238.888	-200.000	0.014	0.102
-237.873	-200.000	0.002	-0.133
-236.859	557.951	-0.115	-0.275
-235.844	-200.000	-0.064	-0.462
-234.830	324.487	-0.169	0.319
-233.815	315.379	-0.041	0.076
-232.800	-91.015	0.186	0.053
-231.786	-40.048	0.156	0.081
-230.771	722.957	0.092	-0.243
-229.757	16.476	-0.119	0.093
-228.742	-31.900	0.101	0.056
-227.727	-155.551	0.416	-0.027
-226.713	193.917	0.076	0.115
-225.698	517.479	0.112	0.259
-224.684	505.003	-0.110	-0.252
-223.669	-200.000	-0.003	0.369
-222.655	200.177	0.117	-0.178
-221.640	-200.000	0.009	-0.396
-220.625	237.585	-0.172	-0.283
-219.611	-108.320	-0.083	-0.018
-218.596	-200.000	0.060	-0.261
-217.582	-193.343	0.216	0.002
-216.567	477.548	-0.033	-0.073
-215.552	-200.000	-0.011	0.089
-214.538	-200.000	0.005	-0.027
-213.523	-200.000	-0.028	0.250
-212.509	-200.000	0.084	0.588
-211.494	-200.000	0.031	-0.242
-210.479	-79.104	0.142	-0.048
-209.465	408.180	-0.080	-0.168
-208.450	142.770	0.088	0.115
-207.436	800.000	-0.084	0.358
-206.421	310.068	-0.084	-0.156
-205.406	-43.033	0.231	0.116
-204.392	151.836	0.143	0.193
-203.377	40.646	-0.103	-0.092
-202.363	119.240	-0.070	0.086
-201.348	419.358	-0.112	-0.237
-200.333	335.941	0.065	-0.124
-199.319	-81.407	0.062	0.020
-198.304	42.632	-0.198	0.179
-197.290	-156.054	-0.072	0.005
-196.275	614.720	0.071	0.175
-195.260	800.000	-0.074	-0.229
-194.246	-19.122	0.071	-0.044
-193.231	-200.000	-0.045	-0.283
-192.217	-200.000	0.043	0.243
-191.202	243.910	0.051	0.084
-190.187	164.033	-0.269	-0.375
-189.173	-15.189	-0.117	0.074
-188.158	-55.690	-0.219	0.097
-187.144	-89.276	0.375	0.110
-186.129	-34.735	-0.091	0.049
-185.114	-82.804	-0.081	0.026
-184.100	800.000	0.044	0.143
-183.085	6.343	-0.161	-0.118
-182.071	-200.000	-0.023	0.279
-181.056	-200.000	-0.067	0.299
-180.042	-133.764	-0.066	-0.008
-179.027	155.048	0.170	0.232
-178.012	7.250	0.211	-0.156
-176.998	-66.502	0.079	-0.031
-175.983	-39.677	-0.214	0.111
-174.969	-200.000	-0.058	0.345
-173.954	800.000	-0.050	-0.137
-172.939	249.695	0.187	-0.314
-171.925	162.451	0.253	-0.351
-170.910	172.333	0.129	0.184
-169.896	443.144	-0.096	-0.208
-168.881	-200.000	0.007	0.070
-167.866	-58.769	-0.125	-0.054
-166.852	663.118	0.082	-0.210
-165.837	16.957	-0.097	0.076
-164.823	261.670	0.341	0.585
-163.808	115.332	-0.113	0.137
-162.793	183.386	0.191	0.279
-161.779	-101.121	0.091	-0.022
-160.764	-30.187	0.316	-0.178
-159.750	417.830	-0.079	-0.166
-158.735	-49.053	-0.272	-0.129
-157.720	-46.398	-0.084	0.041
-156.706	-107.047	-0.375	-0.082
-155.691	89.045	0.276	0.304
-154.677	-89.746	-0.303	0.088
-153.662	257.314	-0.084	0.142
-152.647	800.000	0.007	-0.024
-151.633	-82.461	-0.323	0.104
-150.618	-19.911	0.093	-0.057
-149.604	-200.000	-0.074	0.342
-148.589	-80.882	0.204	-0.067
-147.574	-26.582	-0.308	-0.179
-146.560	800.000	-0.066	0.194
-145.545	-200.000	0.005	0.056
-144.531	-32.092	-0.142	0.079
-143.516	800.000	0.104	-0.336
-142.502	150.296	-0.116	-0.156
-141.487	-52.707	0.142	0.065
-140.472	-200.000	0.028	0.173
-139.458	-67.330	-0.192	-0.075
-138.443	-200.000	-0.051	-0.291
-137.429	529.882	-0.136	-0.317
-136.414	532.895	-0.053	-0.125
-135.399	-76.062	-0.395	0.138
-134.385	90.122	0.142	0.157
-133.370	147.754	-0.346	0.461
-132.356	-121.924	-0.046	-0.007
-131.341	800.000	-0.051	0.190
-130.326	-109.661	0.207	-0.043
-129.312	523.858	-0.093	0.217
-128.297	-33.236	0.182	0.100
-127.283	-52.192	0.318	0.146
-126.268	-200.000	0.027	0.224
-125.253	396.019	0.124	-0.255
-124.239	-200.000	0.021	-0.245
-123.224	800.000	0.097	0.330
-122.210	-200.000	-0.034	-0.307
-121.195	-200.000	0.016	0.174
-120.180	-60.524	0.143	-0.060
-119.166	24.003	-0.132	-0.108
-118.151	-31.479	0.122	-0.068
-117.137	-177.914	-0.056	0.001
-116.122	158.985	-0.064	0.087
-115.107	800.000	-0.061	-0.207
-114.093	-135.034	-0.276	0.033
-113.078	-15.012	0.108	-0.068
-112.064	-128.583	-0.189	0.026
-111.049	-22.254	-0.148	0.088
-110.034	-105.494	-0.053	0.012
-109.020	305.164	-0.241	0.442
-108.005	800.000	-0.040	0.143
-106.991	-200.000	-0.001	-0.249
-105.976	11.321	-0.270	-0.204
-104.962	-98.059	0.414	-0.105
-103.947	-86.487	0.222	-0.067
-102.932	-38.907	0.193	0.100
-101.918	312.242	0.074	-0.136
-100.903	-24.068	0.157	0.093
-99.889	-97.321	0.264	0.068
-98.874	-121.862	-0.365	0.059
-97.859	555.481	0.255	0.606
-96.845	-200.000	0.009	-0.060
-95.830	15.914	0.170	-0.132
-94.816	13.758	0.262	-0.201
-93.801	-70.802	0.139	-0.052
-92.786	800.000	-0.065	0.219
-91.772	-84.037	0.400	-0.125
-90.757	-51.322	-0.076	-0.035
-89.743	300.237	-0.110	0.200
-88.728	-145.830	-0.335	-0.029
-87.713	215.377	-0.093	0.146
-86.699	-94.311	0.068	0.018
-85.684	-88.069	-0.018	-0.005
-84.670	-15.077	-0.083	-0.052
-83.655	-82.285	-0.269	-0.086
-82.640	-75.546	0.466	-0.164
-81.626	-0.926	-0.042	-0.030
-80.611	800.000	-0.080	0.331
-79.597	-112.512	0.213	0.042
-78.582	588.842	-0.182	0.443
-77.567	264.647	0.076	-0.130
-76.553	-48.532	0.270	0.128
-75.538	69.438	0.123	-0.125
-74.524	792.177	-0.030	-0.082
-73.509	-46.255	-0.168	-0.081
-72.494	-189.736	-0.288	0.003
-71.480	111.445	-0.062	0.074
-70.465	800.000	-0.134	0.379
-69.451	84.913	0.325	0.351
-68.436	-155.501	-0.357	-0.023
-67.422	-159.261	-0.127	-0.007
-66.407	75.028	-0.162	-0.168
-65.392	800.000	-0.086	-0.237
-64.378	9.578	0.222	-0.165
-63.363	176.653	0.157	0.226
-62.349	77.933	0.370	0.389
-61.334	144.309	-0.853	-1.123
-60.319	4.397	0.534	0.386
-59.305	-200.000	-0.290	-1.341
-58.290	269.061	0.721	1.248
-57.276	116.133	1.046	1.263
-56.261	-200.000	113.726	646.528
-55.246	520.788	1531.181	3539.376
-54.232	172.582	2708.603	3842.206
-53.217	98.604	2335.999	2655.083
-52.203	33.979	2080.710	1785.754
-51.188	29.052	1995.015	1667.627
-50.173	27.575	1978.499	1640.471
-49.159	45.665	2037.021	1854.697
-48.144	44.691	2052.709	1860.020
-47.130	29.539	2011.300	1685.417
-46.115	27.300	2000.675	1656.096
-45.100	27.207	1998.090	1653.038
-44.086	27.189	1996.128	1651.187
-43.071	27.123	1993.059	1647.988
-42.057	27.074	1991.428	1646.129
-41.042	26.993	1989.948	1644.108
-40.027	27.086	1987.708	1643.029
-39.013	27.107	1985.473	1641.311
-37.998	27.174	1983.449	1640.177
-36.984	27.166	1981.830	1638.699
-35.969	27.177	1979.952	1637.179
-34.954	27.132	1978.008	1635.098
-33.940	27.107	1977.138	1634.097
-32.925	27.255	1975.217	1633.769
-31.911	27.270	1973.019	1632.022
-30.896	27.275	1971.148	1630.458
-29.881	27.219	1970.453	1629.316
-28.867	27.310	1968.209	1628.210
-27.852	27.331	1966.674	1627.060
-26.838	27.296	1965.051	1625.337
-25.823	27.308	1963.420	1624.037
-24.809	27.212	1961.999	1621.935
-23.794	27.219	1959.713	1620.045
-22.779	27.315	1958.296	1619.664
-21.765	27.300	1955.749	1617.366
-20.750	27.238	1954.262	1615.513
-19.736	27.328	1952.834	1615.071
-18.721	27.332	1951.148	1613.648
-17.706	27.276	1949.772	1611.947
-16.692	27.333	1948.017	1610.942
-15.677	27.313	1946.263	1609.251
-14.663	27.249	1945.736	1608.183
-13.648	27.231	1944.365	1606.824
-12.633	27.240	1943.065	1605.770
-11.619	27.282	1941.331	1604.647
-10.604	27.259	1940.227	1603.461
-9.590	27.328	1938.677	1602.725
-8.575	27.278	1937.425	1601.185
-7.560	27.324	1935.409	1599.866
-6.546	27.258	1934.660	1598.601
-5.531	27.306	1933.178	1597.730
-4.517	27.264	1932.148	1596.452
-3.502	27.299	1931.098	1595.827
-2.487	27.237	1929.848	1594.190
-1.473	27.365	1928.381	1594.030
-0.458	27.295	1924.103	1589.824
0.556	29.666	1903.830	1564.367
1.571	25.489	1886.162	1514.595
2.586	21.552	1909.498	1499.534
3.600	20.552	1944.045	1517.803
4.615	19.913	1937.019	1506.627
5.629	15.665	1836.282	1393.014
6.644	8.226	1721.272	1247.674
7.659	4.495	1687.738	1194.608
8.673	4.149	1684.760	1189.737
9.688	4.250	1683.588	1189.580
10.702	4.362	1681.935	1189.169
11.717	4.309	1678.528	1186.250
12.731	4.819	1677.739	1189.482
13.746	9.999	1689.714	1237.634
14.761	17.811	1707.219	1310.576
15.775	22.017	1714.184	1348.176
16.790	22.473	1713.442	1350.973
17.804	21.644	1711.088	1342.648
18.819	20.649	1707.853	1332.369
19.834	20.117	1705.362	1326.242
20.848	19.919	1704.548	1323.976
21.863	19.849	1703.223	1322.298
22.877	19.757	1701.880	1320.431
23.892	19.506	1700.792	1317.559
24.907	19.563	1699.553	1316.914
25.921	19.505	1698.144	1315.262
26.936	19.485	1696.905	1314.039
27.950	19.527	1696.495	1313.922
28.965	19.453	1695.943	1312.815
29.980	19.467	1695.367	1312.363
30.994	19.655	1694.370	1312.900
32.009	19.799	1693.225	1312.994
33.023	19.952	1692.559	1313.520
34.038	19.905	1691.786	1312.446
35.053	19.927	1690.653	1311.621
36.067	19.781	1688.869	1309.009
37.082	19.665	1687.746	1307.152
38.096	19.629	1687.248	1306.374
39.111	19.649	1686.398	1305.755
40.126	19.825	1685.779	1306.490
41.140	19.824	1684.073	1305.044
42.155	19.452	1682.985	1301.282
43.169	19.228	1681.262	1298.144
44.184	19.144	1679.817	1296.284
45.199	19.110	1678.512	1294.903
46.213	19.165	1677.628	1294.516
47.228	19.229	1676.722	1294.184
48.242	19.436	1676.028	1295.094
49.257	19.646	1674.863	1295.650
50.271	19.532	1674.093	1294.083
51.286	19.547	1672.509	1292.862
52.301	19.589	1671.123	1291.985
53.315	19.655	1669.832	1291.366
54.330	19.489	1668.456	1288.949
55.344	19.383	1666.396	1286.459
56.359	19.275	1664.727	1284.244
57.374	19.293	1663.867	1283.606
58.388	19.302	1662.360	1282.397
59.403	19.213	1661.404	1280.883
60.417	19.063	1660.291	1278.793
61.432	19.053	1659.693	1278.148
62.447	19.091	1657.930	1276.962
63.461	19.044	1657.118	1275.875
64.476	18.918	1655.945	1273.921
65.490	18.874	1654.419	1272.312
66.505	18.911	1652.987	1271.375
67.520	18.979	1651.876	1270.907
68.534	18.964	1651.508	1270.399
69.549	18.936	1650.296	1269.148
70.563	18.970	1648.598	1267.984
71.578	18.872	1647.856	1266.580
72.593	18.757	1646.609	1264.662
73.607	18.701	1645.609	1263.363
74.622	18.690	1644.133	1262.040
75.636	18.764	1643.437	1261.942
76.651	18.723	1643.165	1261.314
77.666	18.733	1642.150	1260.496
78.680	18.856	1640.821	1260.272
79.695	18.927	1640.224	1260.220
80.709	18.953	1639.773	1259.949
81.724	19.053	1639.031	1260.007
82.739	19.159	1638.490	1260.249
83.753	19.251	1637.518	1260.062
84.768	19.374	1637.194	1260.603
85.782	19.451	1636.773	1260.732
86.797	19.704	1635.547	1261.525
87.812	19.791	1635.054	1261.663
88.826	19.776	1633.151	1259.977
89.841	19.679	1632.160	1258.390
90.855	19.603	1631.764	1257.425
91.870	19.679	1630.759	1257.093
92.884	19.725	1629.822	1256.588
93.899	19.865	1628.467	1256.451
94.914	19.807	1627.388	1255.089
95.928	19.868	1626.272	1254.558
96.943	19.991	1624.713	1254.136
97.957	19.882	1623.392	1252.215
98.972	19.717	1621.926	1249.778
99.987	19.700	1620.467	1248.426
101.001	19.764	1618.518	1247.277
102.016	19.763	1617.255	1246.183
103.030	19.758	1616.137	1245.174
104.045	19.729	1614.737	1243.776
105.060	19.725	1613.617	1242.775
106.074	19.627	1611.791	1240.558
107.089	19.426	1609.965	1237.600
108.103	19.168	1608.093	1234.199
109.118	18.947	1606.482	1231.276
110.133	18.945	1604.975	1229.992
111.147	18.965	1603.302	1228.746
112.162	18.915	1602.633	1227.770
113.176	18.959	1601.415	1227.043
114.191	19.014	1600.096	1226.317
115.206	19.080	1599.011	1225.841
116.220	19.155	1597.767	1225.317
117.235	19.171	1596.417	1224.286
118.249	19.067	1595.195	1222.502
119.264	19.023	1594.107	1221.247
120.279	18.942	1592.860	1219.606
121.293	18.949	1590.867	1218.025
122.308	18.837	1589.152	1215.813
123.322	18.860	1587.416	1214.539
124.337	18.673	1586.219	1212.191
125.352	18.776	1584.879	1211.787
126.366	18.633	1584.223	1210.170
127.381	18.597	1582.631	1208.599
128.395	18.697	1581.460	1208.302
129.410	18.618	1580.055	1206.561
130.424	18.651	1578.769	1205.705
131.439	18.761	1577.668	1205.533
132.454	18.888	1576.452	1205.386
133.468	18.943	1575.517	1204.952
134.483	18.981	1574.014	1203.963
135.497	19.065	1572.862	1203.561
136.512	19.195	1571.105	1203.017
137.527	19.127	1569.584	1201.271
138.541	19.202	1568.676	1200.996
139.556	19.238	1567.330	1200.107
140.570	19.336	1566.036	1199.689
141.585	19.382	1564.849	1198.998
142.600	19.365	1564.212	1198.285
143.614	19.568	1562.725	1198.449
144.629	19.705	1561.668	1198.480
145.643	19.771	1560.852	1198.206
146.658	19.764	1559.301	1196.864
147.673	19.718	1557.052	1194.712
148.687	19.472	1556.002	1192.099
149.702	19.362	1554.690	1190.228
150.716	19.278	1553.032	1188.279
151.731	19.202	1551.397	1186.396
152.746	19.206	1550.429	1185.580
153.760	19.245	1548.770	1184.475
154.775	19.144	1548.325	1183.338
155.789	19.315	1546.857	1183.281
156.804	19.483	1545.490	1183.287
157.819	19.520	1544.511	1182.686
158.833	19.573	1543.488	1182.157
159.848	19.698	1542.267	1181.970
160.862	19.778	1541.350	1181.714
161.877	19.748	1540.730	1180.928
162.892	19.727	1538.609	1179.054
163.906	19.377	1537.245	1175.520
164.921	19.155	1535.783	1172.784
165.935	19.132	1534.387	1171.459
166.950	19.236	1533.619	1171.474
167.964	19.269	1532.926	1171.068
168.979	19.440	1531.996	1171.412
169.994	19.400	1530.215	1169.676
171.008	19.333	1529.410	1168.508
172.023	19.304	1528.646	1167.625
173.037	19.391	1527.549	1167.267
174.052	19.524	1526.465	1167.234
175.067	19.746	1525.339	1167.770
176.081	19.475	1524.361	1165.090
177.096	19.330	1522.422	1162.530
178.110	19.237	1520.950	1160.675
179.125	19.137	1520.138	1159.277
180.140	19.316	1518.904	1159.438
181.154	19.292	1518.569	1158.917
182.169	19.434	1517.225	1158.747
183.183	19.550	1516.060	1158.529
184.198	19.747	1515.024	1158.961
185.213	19.716	1514.284	1158.079
186.227	19.695	1513.526	1157.256
187.242	19.834	1512.094	1156.993
188.256	19.846	1511.039	1156.160
189.271	19.911	1510.459	1156.047
190.286	19.921	1509.657	1155.402
191.300	19.977	1508.221	1154.573
192.315	19.522	1506.507	1150.130
193.329	19.135	1504.754	1146.113
194.344	19.201	1503.622	1145.585
195.359	19.281	1502.917	1145.484
196.373	19.393	1501.791	1145.266
197.388	19.533	1501.096	1145.564
198.402	19.549	1500.014	1144.745
199.417	19.653	1498.916	1144.489
200.432	19.892	1498.756	1145.853
201.446	19.994	1498.143	1145.953
202.461	20.114	1497.415	1146.092
203.475	20.317	1496.120	1146.338
204.490	20.168	1495.696	1144.929
205.504	20.173	1493.444	1143.137
206.519	19.896	1492.542	1140.521
207.534	19.805	1491.081	1138.701
208.548	19.713	1489.858	1137.063
209.563	19.724	1488.930	1136.329
210.577	19.888	1487.757	1136.408
211.592	19.834	1486.753	1135.185
212.607	19.803	1486.617	1134.778
213.621	19.922	1486.333	1135.244
214.636	20.137	1485.453	1135.879
215.650	20.048	1483.784	1133.919
216.665	19.944	1483.522	1132.937
217.680	20.065	1482.823	1133.093
218.694	20.211	1482.406	1133.631
219.709	20.321	1481.367	1133.453
220.723	20.196	1480.260	1131.695
221.738	20.213	1479.451	1131.087
222.753	20.163	1478.390	1129.850
223.767	20.118	1477.232	1128.572
224.782	20.117	1476.017	1127.537
225.796	20.271	1475.031	1127.680
226.811	20.345	1474.858	1127.931
227.826	20.400	1474.598	1127.989
228.840	20.297	1472.977	1125.981
229.855	20.055	1472.182	1123.707
230.869	20.039	1471.210	1122.759
231.884	20.002	1469.891	1121.412
232.899	20.024	1468.446	1120.356
233.913	19.996	1467.243	1119.156
234.928	19.863	1465.715	1117.037
235.942	19.805	1464.020	1115.268
236.957	19.725	1463.312	1114.118
237.972	19.761	1461.974	1113.234
238.986	19.751	1461.093	1112.398
240.001	19.791	1460.122	1111.816
241.015	19.790	1459.090	1110.928
242.030	19.845	1458.082	1110.411
243.045	20.072	1456.944	1110.904
244.059	19.989	1456.530	1109.957
245.074	20.153	1455.293	1109.967
246.088	20.203	1454.726	1109.759
247.103	20.158	1454.340	1109.075
248.117	20.350	1453.330	1109.435
249.132	20.330	1453.192	1109.101
250.147	20.457	1452.557	1109.331
251.161	20.782	1451.827	1110.752
252.176	20.881	1451.949	1111.377
253.190	21.010	1451.174	1111.509
254.205	21.109	1450.245	1111.327
255.220	21.142	1449.286	1110.703
256.234	21.226	1449.139	1111.030
257.249	21.132	1448.007	1109.465
258.263	21.147	1446.964	1108.661
259.278	21.039	1445.850	1107.028
260.293	21.075	1445.109	1106.589
261.307	21.158	1443.630	1105.882
262.322	21.202	1443.170	1105.712
263.336	21.241	1443.128	1105.827
264.351	21.317	1441.731	1105.140
265.366	21.370	1440.521	1104.450
266.380	21.331	1440.016	1103.717
267.395	21.240	1439.620	1102.740
268.409	21.329	1438.271	1102.171
269.424	21.173	1436.903	1100.042
270.439	21.108	1435.506	1098.468
271.453	20.978	1434.740	1096.969
272.468	21.041	1433.730	1096.496
273.482	20.880	1433.187	1094.971
274.497	20.949	1431.816	1094.260
275.512	20.826	1431.113	1092.857
276.526	20.863	1430.113	1092.226
277.541	20.858	1429.430	1091.576
278.555	20.859	1428.691	1090.920
279.570	20.925	1427.293	1090.170
280.585	20.968	1427.029	1090.140
281.599	21.208	1426.196	1090.909
282.614	21.250	1425.998	1090.923
283.628	21.205	1423.988	1089.010
284.643	20.999	1422.722	1086.659
285.657	20.940	1421.911	1085.574
286.672	20.970	1420.695	1084.737
287.687	20.892	1420.076	1083.685
288.701	21.081	1418.390	1083.475
289.716	21.067	1417.848	1082.882
290.730	21.151	1416.875	1082.560
291.745	21.023	1416.403	1081.311
292.760	21.044	1415.105	1080.355
293.774	21.135	1414.264	1080.180
294.789	21.121	1413.643	1079.524
295.803	21.316	1412.642	1079.869
296.818	21.355	1411.940	1079.475
297.833	21.184	1410.774	1077.435
298.847	21.047	1409.904	1075.833
299.862	21.083	1408.913	1075.201
300.876	21.092	1407.312	1073.941
301.891	21.202	1406.614	1073.986
302.906	21.277	1405.641	1073.613
303.920	21.325	1405.662	1073.830
304.935	21.470	1405.057	1074.163
305.949	21.557	1404.005	1073.797
306.964	21.607	1404.023	1074.019
307.979	21.690	1402.814	1073.507
308.993	21.655	1401.420	1072.132
310.008	21.461	1400.393	1070.067
311.022	21.422	1399.951	1069.398
312.037	21.612	1399.006	1069.741
313.052	21.702	1397.350	1068.930
314.066	21.549	1396.424	1067.192
315.081	21.468	1395.018	1065.528
316.095	21.215	1393.750	1062.925
317.110	21.088	1392.424	1061.051
318.125	21.098	1391.732	1060.487
319.139	21.164	1390.937	1060.189
320.154	21.136	1390.038	1059.241
321.168	21.141	1388.638	1058.111
322.183	21.168	1388.005	1057.699
323.197	21.077	1387.038	1056.320
324.212	21.121	1386.234	1055.876
325.227	21.221	1385.880	1056.118
326.241	21.222	1384.616	1055.069
327.256	21.381	1383.690	1055.233
328.270	21.459	1382.391	1054.615
329.285	21.204	1381.617	1052.397
330.300	21.218	1380.799	1051.764
331.314	21.185	1379.717	1050.647
332.329	21.290	1378.943	1050.600
333.343	21.207	1378.439	1049.619
334.358	21.243	1377.585	1049.097
335.373	21.351	1377.156	1049.323
336.387	21.612	1376.213	1050.077
337.402	21.596	1375.556	1049.385
338.416	21.500	1375.330	1048.549
339.431	21.678	1374.395	1048.809
340.446	21.758	1373.447	1048.469
341.460	21.860	1372.427	1048.207
342.475	21.955	1371.766	1048.175
343.489	22.083	1371.103	1048.341
344.504	22.086	1370.594	1047.877
345.519	22.051	1369.811	1046.975
346.533	22.200	1368.217	1046.555
347.548	22.256	1367.641	1046.355
348.562	22.272	1367.083	1045.932
349.577	22.261	1366.297	1045.172
350.592	22.235	1364.897	1043.850
351.606	21.960	1363.523	1041.077
352.621	21.819	1362.438	1039.321
353.635	21.719	1361.281	1037.759
354.650	21.665	1360.575	1036.808
355.665	21.545	1359.501	1035.189
356.679	21.661	1358.202	1034.789
357.694	21.760	1357.400	1034.670
358.708	21.907	1356.357	1034.656
359.723	21.929	1355.430	1033.982
360.738	21.892	1354.555	1033.007
361.752	21.874	1353.731	1032.180
362.767	22.000	1352.216	1031.677
363.781	21.956	1351.543	1030.811
364.796	21.957	1350.750	1030.120
365.810	22.059	1350.193	1030.206
366.825	22.166	1350.029	1030.616
367.840	22.339	1349.606	1031.218
368.854	22.516	1348.559	1031.359
369.869	22.634	1348.058	1031.575
370.883	22.513	1347.976	1030.713
371.898	22.470	1346.745	1029.430
372.913	22.417	1345.627	1028.176
373.927	22.346	1344.489	1026.801
374.942	22.440	1343.441	1026.458
375.956	22.385	1343.249	1025.900
376.971	22.499	1342.650	1026.015
377.986	22.370	1341.840	1024.554
379.000	22.419	1340.607	1023.805
380.015	22.590	1340.130	1024.347
381.029	22.668	1339.171	1023.977
382.044	22.708	1338.679	1023.741
383.059	22.650	1338.710	1023.339
384.073	22.615	1337.670	1022.249
385.088	22.605	1336.741	1021.388
386.102	22.692	1335.634	1020.959
387.117	22.731	1335.389	1020.907
388.132	22.577	1334.383	1019.157
389.146	22.440	1333.021	1017.237
390.161	22.336	1332.257	1015.959
391.175	22.334	1331.422	1015.223
392.190	22.249	1330.655	1014.060
393.205	22.297	1329.699	1013.518
394.219	22.537	1328.869	1014.177
395.234	22.626	1327.734	1013.733
396.248	22.637	1326.563	1012.812
397.263	22.392	1325.183	1010.263
398.278	22.458	1323.640	1009.378
399.292	22.290	1322.407	1007.382
400.307	22.273	1321.159	1006.244
401.321	22.138	1320.241	1004.684
402.336	22.111	1319.322	1003.745
403.350	22.069	1318.209	1002.568
404.365	22.127	1317.221	1002.059
405.380	22.193	1316.105	1001.496
406.394	22.353	1315.595	1001.934
407.409	22.415	1315.428	1002.066
408.423	22.477	1314.843	1001.886
409.438	22.577	1314.681	1002.242
410.453	22.720	1313.539	1002.095
411.467	22.793	1313.185	1002.150
412.482	22.985	1312.098	1002.325
413.496	22.887	1311.640	1001.328
414.511	22.891	1311.185	1000.914
415.526	23.027	1310.334	1000.948
416.540	23.088	1309.918	1000.888
417.555	23.233	1309.187	1001.062
418.569	23.248	1308.681	1000.667
419.584	23.136	1308.222	999.596
420.599	23.060	1307.075	998.203
421.613	146.964	1434.798	1795.744
422.628	142.496	1453.351	1795.854
