DTS Sentinel unit serial number:	SN413079Multiplexer serial number:	ORYXHardware model number:	OX4-SRSoftware version number:	ORYX F/W v4.00 Oryx Data Collector v3.7.2.0data status	okinstallation	princeton_trtdifferential loss correction	single-endedforward channel	channel 4reverse channel	N/Adate	2019/09/14time	21:21:35forward acquisition time	60.00reverse acquisition time	0.00gamma	496.2192k internal	0.2306k external	0.2306temperature offset calibration	1.0081default loss term (dB/km)	0.3790temperature slope calibration	1.0000multiplexer offset coefficient	1.0000multiplexer slope coefficient	1.0000fibre end	0.00T internal ref (°C)	32.94T ext. ref 1 (°C)	4.78T ext. ref 2 (°C)	27.75length (m)	temperature (°C)	Stokes	anti-Stokes-747.200	800.000	0.014	-0.052
-746.185	46.715	-0.331	0.312
-745.171	-144.613	0.382	0.036
-744.156	-153.020	0.120	-0.009
-743.142	-22.952	-0.089	-0.055
-742.127	57.314	-0.313	0.311
-741.112	231.770	0.115	-0.192
-740.098	-155.165	0.482	0.032
-739.083	717.006	-0.079	0.213
-738.069	-200.000	0.010	-0.091
-737.054	-141.357	0.157	-0.016
-736.039	-54.569	-0.382	-0.176
-735.025	-30.252	0.188	-0.109
-734.010	-69.945	-0.225	0.087
-732.996	141.611	-0.075	-0.101
-731.981	148.240	-0.158	-0.216
-730.966	176.957	-0.015	-0.023
-729.952	-141.080	-0.047	0.005
-728.937	-155.398	-0.301	0.020
-727.923	-86.519	-0.158	0.049
-726.908	-200.000	-0.397	0.000
-725.894	-194.719	-0.394	0.003
-724.879	-98.440	0.382	-0.099
-723.864	-130.575	0.400	-0.055
-722.850	800.000	0.075	-0.247
-721.835	65.113	0.148	0.152
-720.821	-200.000	-0.060	0.407
-719.806	226.940	-0.042	-0.069
-718.791	800.000	-0.070	-0.245
-717.777	33.669	0.222	-0.196
-716.762	196.880	0.116	-0.179
-715.748	-200.000	0.074	-0.430
-714.733	-129.270	-0.231	0.033
-713.718	-124.229	0.123	0.020
-712.704	10.576	-0.425	-0.329
-711.689	800.000	-0.053	-0.155
-710.675	800.000	0.029	-0.090
-709.660	-200.000	0.043	0.271
-708.645	-123.712	0.278	-0.045
-707.631	-74.153	0.173	-0.064
-706.616	-200.000	-0.004	-0.034
-705.602	-200.000	-0.034	-0.188
-704.587	192.134	-0.145	-0.222
-703.572	-126.238	-0.316	-0.048
-702.558	800.000	-0.095	0.297
-701.543	59.828	0.308	-0.309
-700.529	34.634	0.212	0.188
-699.514	65.939	0.078	-0.080
-698.499	-132.501	-0.109	0.014
-697.485	-68.441	-0.129	-0.051
-696.470	-12.909	-0.176	0.116
-695.456	-22.477	-0.088	0.054
-694.441	646.553	0.074	0.192
-693.426	-26.046	0.194	-0.116
-692.412	-200.000	-0.008	-0.461
-691.397	-60.082	-0.105	0.046
-690.383	-200.000	-0.018	0.137
-689.368	-94.214	0.144	-0.040
-688.354	-14.586	0.170	0.111
-687.339	75.061	0.098	0.105
-686.324	386.325	0.133	0.280
-685.310	52.306	0.085	-0.082
-684.295	-126.330	-0.119	-0.018
-683.281	800.000	-0.024	0.082
-682.266	-76.360	0.291	-0.104
-681.251	-97.976	-0.325	0.085
-680.237	280.469	0.055	0.100
-679.222	800.000	0.133	-0.430
-678.208	22.845	-0.057	-0.048
-677.193	156.041	-0.081	-0.113
-676.178	-200.000	0.050	-0.342
-675.164	8.288	-0.132	-0.101
-674.149	117.929	0.043	-0.054
-673.135	-112.886	0.468	-0.094
-672.120	114.373	-0.126	0.156
-671.105	-118.197	0.282	-0.051
-670.091	-172.779	-0.282	-0.009
-669.076	15.841	-0.098	0.078
-668.062	-66.014	0.217	-0.088
-667.047	-65.879	-0.186	0.075
-666.032	800.000	0.040	0.139
-665.018	278.917	0.113	0.205
-664.003	486.768	0.121	-0.280
-662.989	211.464	-0.064	0.102
-661.974	305.959	0.062	0.117
-660.959	-57.141	0.080	-0.036
-659.945	116.570	-0.196	-0.244
-658.930	-130.790	-0.309	0.042
-657.916	-94.336	0.267	0.074
-656.901	-72.280	-0.161	0.060
-655.886	368.305	0.241	-0.494
-654.872	-71.039	0.155	0.059
-653.857	188.155	0.148	-0.224
-652.843	-187.211	0.417	-0.006
-651.828	-175.199	-0.269	0.008
-650.814	100.007	-0.163	0.191
-649.799	-172.584	0.154	-0.005
-648.784	-161.924	0.141	-0.007
-647.770	-36.500	0.291	0.159
-646.755	23.247	-0.288	-0.240
-645.741	-37.278	0.260	-0.141
-644.726	236.674	-0.053	0.089
-643.711	-155.935	-0.132	-0.008
-642.697	710.736	-0.037	0.101
-641.682	86.937	0.218	-0.244
-640.668	49.061	0.133	-0.127
-639.653	14.706	-0.147	-0.116
-638.638	-99.229	-0.386	-0.099
-637.624	-200.000	0.042	-0.297
-636.609	188.274	0.093	0.141
-635.595	74.680	0.183	-0.195
-634.580	-22.722	-0.165	-0.101
-633.565	-200.000	-0.024	0.174
-632.551	118.074	-0.226	-0.282
-631.536	-39.046	0.241	0.128
-630.522	-170.905	-0.346	-0.012
-629.507	147.541	0.191	-0.260
-628.492	-98.461	-0.249	-0.065
-627.478	86.517	-0.048	-0.054
-626.463	-69.218	-0.008	-0.003
-625.449	7.253	-0.154	-0.116
-624.434	-44.567	-0.117	-0.059
-623.419	226.738	-0.111	-0.183
-622.405	551.534	0.095	0.232
-621.390	153.336	0.190	-0.264
-620.376	-109.588	-0.281	-0.060
-619.361	354.301	0.021	-0.042
-618.346	199.258	-0.159	-0.247
-617.332	-200.000	0.009	0.046
-616.317	3.257	-0.240	0.177
-615.303	-113.767	-0.315	-0.062
-614.288	-92.675	-0.364	-0.103
-613.273	800.000	0.143	-0.421
-612.259	-4.752	-0.178	-0.124
-611.244	187.220	0.089	-0.134
-610.230	-22.573	-0.327	-0.200
-609.215	-77.557	-0.310	-0.109
-608.201	-200.000	-0.008	0.042
-607.186	-101.204	0.298	0.074
-606.171	33.141	0.053	0.047
-605.157	-108.208	-0.179	0.039
-604.142	16.064	-0.215	0.171
-603.128	-38.976	0.224	-0.119
-602.113	-200.000	-0.021	0.233
-601.098	283.449	0.112	-0.204
-600.084	-21.493	0.352	-0.217
-599.069	-183.194	0.306	0.005
-598.055	-79.870	0.039	-0.013
-597.040	-114.881	-0.087	0.017
-596.025	263.624	0.119	0.209
-595.011	659.041	0.067	0.174
-593.996	16.662	0.198	0.159
-592.982	-200.000	0.005	0.387
-591.967	67.766	0.084	0.087
-590.952	169.390	0.062	0.089
-589.938	-200.000	0.003	0.233
-588.923	102.476	0.109	0.129
-587.909	-35.703	0.341	-0.187
-586.894	-165.029	-0.103	-0.005
-585.879	-44.199	-0.307	-0.156
-584.865	78.678	0.174	-0.188
-583.850	-200.000	0.237	0.000
-582.836	-48.911	0.279	0.135
-581.821	-200.000	-0.022	-0.209
-580.806	145.660	-0.018	-0.024
-579.792	800.000	0.050	-0.173
-578.777	123.288	-0.118	-0.150
-577.763	194.426	0.101	-0.155
-576.748	-116.175	-0.282	-0.053
-575.733	-84.057	-0.288	-0.092
-574.719	175.904	-0.049	0.072
-573.704	-139.543	0.102	0.011
-572.690	-200.000	-0.026	0.148
-571.675	528.545	-0.122	0.291
-570.661	187.553	0.123	0.185
-569.646	-35.638	0.236	0.130
-568.631	-200.000	-0.024	-0.130
-567.617	49.309	-0.285	0.271
-566.602	800.000	0.056	-0.246
-565.588	284.072	-0.166	-0.302
-564.573	401.045	0.092	-0.195
-563.558	643.300	0.099	-0.255
-562.544	-55.277	0.322	-0.146
-561.529	-200.000	-0.017	-0.136
-560.515	716.027	-0.135	0.362
-559.500	789.443	-0.051	0.141
-558.485	191.378	-0.129	0.195
-557.471	405.716	0.102	0.218
-556.456	800.000	-0.076	0.292
-555.442	-31.554	0.209	-0.119
-554.427	-123.828	-0.268	-0.043
-553.412	-132.897	-0.074	0.010
-552.398	85.610	-0.258	-0.287
-551.383	84.452	0.146	-0.161
-550.369	800.000	0.038	0.118
-549.354	800.000	-0.039	0.169
-548.339	53.416	0.049	-0.047
-547.325	-98.886	0.379	0.097
-546.310	-162.012	-0.081	0.004
-545.296	325.017	0.042	0.081
-544.281	-52.466	-0.265	0.124
-543.266	-87.359	0.063	0.019
-542.252	454.686	-0.207	-0.462
-541.237	-23.832	0.081	-0.049
-540.223	73.144	0.177	0.187
-539.208	-118.401	0.320	0.057
-538.193	-200.000	0.088	-0.418
-537.179	363.628	-0.059	0.120
-536.164	-110.523	-0.161	0.034
-535.150	312.769	-0.055	-0.105
-534.135	259.913	-0.020	-0.034
-533.121	-121.045	0.213	-0.036
-532.106	-150.172	-0.299	0.023
-531.091	-200.000	0.035	0.160
-530.077	197.729	0.175	-0.270
-529.062	126.120	-0.062	-0.079
-528.048	394.201	0.037	0.077
-527.033	800.000	-0.034	-0.127
-526.018	160.686	-0.120	0.170
-525.004	-56.466	0.128	-0.057
-523.989	-45.758	0.117	-0.058
-522.975	-68.188	-0.075	-0.029
-521.960	142.947	-0.133	-0.179
-520.945	-42.198	-0.267	-0.138
-519.931	481.897	-0.046	0.106
-518.916	275.745	-0.061	-0.110
-517.902	-200.000	-0.014	-0.164
-516.887	800.000	-0.083	0.350
-515.872	-200.000	0.004	0.333
-514.858	800.000	-0.065	-0.275
-513.843	800.000	-0.057	0.189
-512.829	204.944	-0.244	-0.382
-511.814	-120.020	0.191	-0.033
-510.799	39.585	-0.173	-0.156
-509.785	153.321	-0.054	0.074
-508.770	728.673	0.103	-0.276
-507.756	110.132	-0.008	-0.009
-506.741	-136.226	-0.061	0.007
-505.726	443.608	-0.211	0.465
-504.712	696.274	-0.020	-0.052
-503.697	426.702	-0.056	0.122
-502.683	23.641	0.118	-0.098
-501.668	591.422	-0.085	0.212
-500.653	-21.842	-0.229	0.140
-499.639	-73.009	-0.305	0.113
-498.624	-84.561	-0.442	0.140
-497.610	-76.832	-0.171	-0.060
-496.595	453.431	0.084	0.187
-495.581	-99.798	0.277	0.070
-494.566	173.968	0.180	0.262
-493.551	800.000	0.078	-0.244
-492.537	800.000	-0.054	0.167
-491.522	697.413	0.129	-0.341
-490.508	-200.000	0.004	0.202
-489.493	800.000	-0.053	0.163
-488.478	800.000	0.113	-0.472
-487.464	-192.477	-0.255	-0.002
-486.449	800.000	0.029	-0.106
-485.435	-161.560	0.092	-0.005
-484.420	160.732	0.215	0.302
-483.405	-75.215	0.266	-0.096
-482.391	-160.572	0.234	-0.013
-481.376	162.635	0.134	-0.189
-480.362	-126.636	0.136	-0.020
-479.347	-150.798	0.333	0.025
-478.332	-42.222	0.100	-0.051
-477.318	-200.000	0.072	0.487
-476.303	-80.336	0.342	-0.115
-475.289	800.000	-0.067	0.234
-474.274	-117.181	-0.063	-0.012
-473.259	75.204	-0.099	-0.105
-472.245	11.949	0.161	-0.124
-471.230	800.000	0.076	0.285
-470.216	800.000	-0.039	0.141
-469.201	282.403	-0.067	0.122
-468.186	-200.000	-0.014	0.163
-467.172	-69.644	-0.159	0.061
-466.157	800.000	-0.079	0.243
-465.143	-96.644	-0.152	0.040
-464.128	524.505	0.164	0.389
-463.113	60.523	0.084	0.084
-462.099	239.340	0.202	0.338
-461.084	-200.000	0.019	0.150
-460.070	-52.552	-0.141	0.065
-459.055	180.504	-0.159	-0.234
-458.040	-115.758	0.427	0.080
-457.026	-200.000	-0.014	-0.307
-456.011	280.334	-0.042	0.075
-454.997	6.863	-0.201	0.151
-453.982	-90.224	0.108	-0.032
-452.968	800.000	-0.082	-0.266
-451.953	-200.000	0.001	0.235
-450.938	53.957	-0.176	0.170
-449.924	-116.260	-0.190	0.035
-448.909	-121.486	-0.126	0.021
-447.895	94.308	0.190	-0.217
-446.880	-104.615	0.332	0.077
-445.865	457.577	-0.023	-0.052
-444.851	42.944	0.121	0.111
-443.836	581.101	-0.132	-0.325
-442.822	199.676	0.034	0.052
-441.807	-200.000	0.058	-0.396
-440.792	-36.576	0.192	-0.104
-439.778	-200.000	-0.042	0.204
-438.763	-200.000	-0.014	0.148
-437.749	-5.492	0.246	0.169
-436.734	-112.710	-0.227	0.045
-435.719	205.048	0.187	0.291
-434.705	533.104	0.080	0.191
-433.690	43.216	-0.167	-0.154
-432.676	442.094	0.081	0.178
-431.661	438.644	-0.055	-0.121
-430.646	-1.179	0.138	0.098
-429.632	83.068	0.190	0.208
-428.617	-19.486	-0.119	-0.074
-427.603	463.023	-0.103	-0.232
-426.588	-101.842	-0.403	-0.098
-425.573	798.242	0.131	0.363
-424.559	-140.477	0.186	-0.019
-423.544	800.000	0.023	-0.067
-422.530	217.370	-0.090	0.144
-421.515	382.027	-0.167	0.346
-420.500	24.989	0.036	0.030
-419.486	-200.000	-0.014	-0.194
-418.471	391.073	-0.193	-0.402
-417.457	800.000	-0.100	-0.330
-416.442	-122.628	0.225	-0.037
-415.428	-71.817	0.240	0.090
-414.413	144.545	-0.167	0.224
-413.398	-6.349	0.191	0.131
-412.384	-77.306	-0.156	0.055
-411.369	-20.885	-0.190	0.117
-410.355	134.947	0.131	0.170
-409.340	800.000	0.039	0.120
-408.325	230.411	-0.084	-0.138
-407.311	-65.368	-0.216	0.087
-406.296	-191.657	0.042	0.000
-405.282	-74.888	-0.108	-0.039
-404.267	-200.000	0.017	0.079
-403.252	-106.027	0.282	-0.064
-402.238	-64.935	-0.177	-0.072
-401.223	292.776	-0.072	-0.131
-400.209	13.114	-0.065	-0.050
-399.194	-112.919	-0.374	-0.074
-398.179	-103.219	0.380	0.090
-397.165	-200.000	-0.014	0.163
-396.150	800.000	-0.029	-0.124
-395.136	6.500	-0.116	-0.087
-394.121	0.637	0.257	-0.184
-393.106	-82.754	0.329	0.107
-392.092	-128.088	-0.126	-0.018
-391.077	167.843	0.113	-0.162
-390.063	800.000	-0.062	0.257
-389.048	-96.975	-0.217	0.057
-388.033	-84.553	0.162	-0.051
-387.019	-200.000	0.015	0.251
-386.004	712.956	-0.112	0.297
-384.990	241.217	0.035	-0.059
-383.975	-89.222	0.132	0.039
-382.960	402.105	-0.029	0.062
-381.946	-200.000	0.040	-0.201
-380.931	800.000	-0.094	0.410
-379.917	-134.446	-0.100	0.012
-378.902	-114.394	0.185	-0.036
-377.888	-200.000	0.018	-0.237
-376.873	800.000	0.033	0.109
-375.858	23.728	-0.141	-0.116
-374.844	47.116	-0.343	0.320
-373.829	332.590	0.140	0.271
-372.815	150.899	0.063	0.086
-371.800	-160.319	-0.371	-0.020
-370.785	-102.586	0.178	0.043
-369.771	-171.145	0.241	-0.008
-368.756	-111.713	0.141	-0.029
-367.742	-200.000	0.060	0.346
-366.727	-200.000	0.010	0.045
-365.712	-107.759	0.465	-0.102
-364.698	39.398	0.150	-0.134
-363.683	98.974	-0.047	-0.054
-362.669	-59.867	0.057	-0.024
-361.654	-118.841	0.169	-0.030
-360.639	-200.000	-0.034	-0.259
-359.625	-127.238	0.264	-0.039
-358.610	11.181	0.078	-0.060
-357.596	-200.000	-0.015	-0.087
-356.581	-200.000	0.000	0.071
-355.566	29.334	-0.252	0.214
-354.552	-106.663	-0.093	0.021
-353.537	-146.502	0.322	0.028
-352.523	-69.334	-0.160	-0.062
-351.508	102.415	-0.240	0.281
-350.493	-67.738	0.267	-0.105
-349.479	-113.974	0.370	-0.072
-348.464	-200.000	0.035	0.174
-347.450	-11.140	0.096	-0.063
-346.435	755.758	-0.090	-0.243
-345.420	-52.443	-0.220	0.102
-344.406	800.000	0.036	0.128
-343.391	41.905	0.234	-0.213
-342.377	-166.016	-0.492	-0.021
-341.362	577.686	0.175	-0.429
-340.348	-55.176	-0.252	0.113
-339.333	800.000	-0.079	0.331
-338.318	502.292	0.146	0.339
-337.304	800.000	0.090	-0.272
-336.289	800.000	0.060	-0.256
-335.275	172.195	-0.059	-0.085
-334.260	73.741	0.036	0.038
-333.245	-56.418	0.283	-0.126
-332.231	-52.377	-0.116	-0.054
-331.216	-200.000	-0.001	0.044
-330.202	-173.951	0.106	0.003
-329.187	297.636	-0.149	0.273
-328.172	310.375	-0.182	-0.341
-327.158	58.478	-0.028	0.028
-326.143	-166.659	0.278	-0.012
-325.129	-38.514	0.017	-0.009
-324.114	-200.000	-0.006	0.184
-323.099	316.893	0.062	-0.117
-322.085	238.674	0.189	-0.315
-321.070	19.764	-0.227	0.183
-320.056	-172.936	-0.235	0.007
-319.041	-104.382	-0.152	0.035
-318.026	-63.592	-0.131	-0.054
-317.012	137.714	-0.125	-0.163
-315.997	257.139	-0.077	-0.133
-314.983	-9.085	-0.162	-0.108
-313.968	198.257	-0.130	0.200
-312.953	-38.739	-0.318	-0.168
-311.939	49.073	-0.199	-0.187
-310.924	45.641	-0.186	-0.172
-309.910	800.000	0.103	0.292
-308.895	-4.093	-0.349	-0.242
-307.880	-200.000	-0.053	0.240
-306.866	800.000	-0.068	0.208
-305.851	-74.281	-0.284	-0.103
-304.837	276.123	0.087	0.154
-303.822	-83.789	0.179	-0.057
-302.807	242.163	-0.100	0.168
-301.793	800.000	-0.089	0.256
-300.778	-53.228	-0.415	0.191
-299.764	766.598	-0.093	0.253
-298.749	-159.342	-0.222	0.012
-297.735	-162.362	-0.304	-0.015
-296.720	3.908	0.216	0.158
-295.705	689.319	0.026	-0.069
-294.691	76.746	-0.055	0.059
-293.676	-136.316	0.201	-0.023
-292.662	190.294	0.126	-0.189
-291.647	83.844	-0.241	-0.263
-290.632	284.081	0.072	0.129
-289.618	139.444	0.094	0.123
-288.603	-67.510	-0.283	0.111
-287.589	-88.913	-0.310	-0.092
-286.574	-133.307	0.224	-0.028
-285.559	43.409	-0.085	0.078
-284.545	-200.000	0.022	0.229
-283.530	-200.000	-0.014	0.289
-282.516	-22.301	0.067	0.041
-281.501	199.455	0.073	-0.111
-280.486	-103.725	-0.167	0.039
-279.472	80.956	-0.040	-0.043
-278.457	800.000	0.072	0.292
-277.443	4.831	0.105	-0.077
-276.428	-87.511	0.126	0.038
-275.413	12.843	0.252	0.194
-274.399	7.642	0.093	0.070
-273.384	-200.000	-0.026	0.179
-272.370	-148.444	0.095	-0.008
-271.355	202.444	-0.060	-0.093
-270.340	-171.946	-0.402	-0.013
-269.326	673.832	0.080	-0.207
-268.311	-133.789	-0.195	0.024
-267.297	550.211	-0.070	0.168
-266.282	-64.070	-0.076	0.031
-265.267	192.886	0.105	0.158
-264.253	-71.528	-0.124	-0.046
-263.238	289.424	-0.142	-0.257
-262.224	-37.584	-0.132	-0.070
-261.209	-28.663	0.080	-0.046
-260.195	508.549	0.020	0.047
-259.180	800.000	0.107	-0.335
-258.165	238.328	0.153	0.253
-257.151	-157.028	0.233	-0.014
-256.136	-175.807	0.045	-0.001
-255.122	11.030	0.316	-0.241
-254.107	-200.000	-0.008	-0.329
-253.092	477.510	0.130	-0.294
-252.078	42.000	0.045	-0.041
-251.063	-107.791	0.188	0.041
-250.049	-200.000	0.001	0.114
-249.034	470.198	-0.044	0.099
-248.019	-72.794	0.213	0.078
-247.005	-90.206	-0.099	-0.029
-245.990	-171.149	0.272	0.009
-244.976	-200.000	-0.002	0.012
-243.961	-141.687	-0.085	0.009
-242.946	-200.000	0.028	0.130
-241.932	634.307	-0.030	-0.077
-240.917	103.833	0.090	-0.106
-239.903	-141.943	0.059	0.006
-238.888	-51.850	-0.080	0.037
-237.873	-35.503	0.108	0.059
-236.859	147.323	0.070	0.094
-235.844	40.144	0.159	-0.142
-234.830	595.031	0.046	0.113
-233.815	-72.557	0.221	-0.081
-232.800	43.900	-0.094	0.086
-231.786	-166.579	-0.144	-0.006
-230.771	-73.136	0.125	-0.046
-229.757	-34.317	-0.268	0.147
-228.742	-200.000	0.035	0.273
-227.727	-158.587	-0.149	0.009
-226.713	-14.122	0.020	0.013
-225.698	130.796	-0.127	0.163
-224.684	-115.532	0.414	0.078
-223.669	-8.854	-0.031	0.021
-222.655	-31.850	0.138	0.077
-221.640	411.022	0.061	0.129
-220.625	271.829	-0.052	-0.091
-219.611	-61.091	0.180	-0.076
-218.596	-20.628	0.061	-0.037
-217.582	343.703	-0.212	0.415
-216.567	-200.000	-0.000	-0.032
-215.552	228.996	-0.112	-0.182
-214.538	325.885	-0.081	-0.155
-213.523	97.105	0.021	-0.024
-212.509	-59.355	-0.161	0.069
-211.494	-89.959	-0.025	0.007
-210.479	-161.576	0.169	0.009
-209.465	-107.225	0.375	0.082
-208.450	-200.000	0.031	0.352
-207.436	256.453	0.107	-0.183
-206.421	-80.397	-0.376	-0.125
-205.406	-200.000	-0.006	-0.327
-204.392	55.933	0.124	-0.120
-203.377	-46.104	0.130	-0.064
-202.363	-173.379	-0.212	0.006
-201.348	28.275	0.164	0.138
-200.333	-76.468	-0.090	-0.032
-199.319	1.937	-0.246	0.177
-198.304	-7.426	0.093	0.063
-197.290	-200.000	-0.035	-0.177
-196.275	67.891	0.119	-0.121
-195.260	110.946	-0.149	-0.179
-194.246	-101.097	0.191	0.047
-193.231	-73.416	0.202	0.074
-192.217	800.000	-0.065	0.251
-191.202	-200.000	0.018	0.345
-190.187	-50.321	-0.164	-0.077
-189.173	-68.957	-0.241	0.093
-188.158	74.132	-0.108	-0.113
-187.144	27.110	0.201	-0.168
-186.129	570.998	0.095	0.231
-185.114	221.856	0.100	0.160
-184.100	-152.715	0.118	0.008
-183.085	-200.000	-0.028	-0.269
-182.071	-120.121	0.114	0.019
-181.056	27.846	0.190	0.159
-180.042	106.366	-0.068	-0.081
-179.027	-16.644	0.043	-0.027
-178.012	-188.869	0.219	-0.003
-176.998	-200.000	-0.022	0.114
-175.983	-161.270	0.104	0.005
-174.969	157.878	-0.086	-0.118
-173.954	-140.717	-0.140	0.014
-172.939	-13.923	0.230	-0.148
-171.925	-200.000	-0.056	-0.278
-170.910	-200.000	0.014	-0.206
-169.896	-200.000	-0.030	0.178
-168.881	-119.841	-0.285	-0.049
-167.866	-103.882	0.060	-0.014
-166.852	-46.566	-0.284	-0.138
-165.837	580.175	0.161	-0.391
-164.823	101.235	-0.128	0.148
-163.808	183.977	-0.139	-0.205
-162.793	34.577	0.165	-0.143
-161.779	-44.981	0.281	-0.139
-160.764	800.000	0.031	0.130
-159.750	-118.684	-0.283	0.050
-158.735	-36.013	-0.326	-0.175
-157.720	22.538	0.127	-0.104
-156.706	480.309	-0.036	-0.082
-155.691	800.000	-0.044	-0.178
-154.677	-200.000	0.058	-0.490
-153.662	384.935	-0.102	-0.209
-152.647	-147.806	0.374	0.031
-151.633	-140.041	0.128	0.013
-150.618	220.113	0.213	-0.339
-149.604	-146.873	-0.291	0.025
-148.589	88.625	0.123	0.136
-147.574	-200.000	-0.047	0.291
-146.560	163.540	0.118	0.165
-145.545	387.619	0.147	-0.303
-144.531	-107.840	0.129	0.028
-143.516	-26.054	-0.081	-0.048
-142.502	-70.035	0.250	-0.095
-141.487	-200.000	0.032	-0.307
-140.472	143.247	0.279	-0.369
-139.458	563.780	0.132	-0.317
-138.443	-104.347	-0.044	-0.010
-137.429	309.575	-0.065	-0.120
-136.414	-155.657	-0.202	0.013
-135.399	-119.695	-0.177	0.030
-134.385	-200.000	-0.024	-0.152
-133.370	-129.837	-0.169	-0.023
-132.356	-200.000	0.030	0.174
-131.341	-83.409	-0.090	0.029
-130.326	-200.000	-0.002	0.152
-129.312	-145.830	0.089	0.008
-128.297	26.487	-0.167	-0.139
-127.283	-144.170	-0.187	0.017
-126.268	247.005	-0.055	-0.091
-125.253	170.461	-0.072	-0.102
-124.239	43.496	-0.277	-0.251
-123.224	547.344	0.143	0.341
-122.210	-138.902	-0.154	-0.017
-121.195	-94.630	-0.113	0.030
-120.180	675.922	-0.144	-0.371
-119.166	-200.000	0.040	-0.208
-118.151	-200.000	-0.045	0.262
-117.137	36.308	-0.171	-0.150
-116.122	8.820	-0.155	0.116
-115.107	-52.887	0.295	0.135
-114.093	-17.125	0.172	-0.108
-113.078	2.582	0.156	0.112
-112.064	-25.353	0.432	-0.254
-111.049	800.000	-0.093	-0.282
-110.034	-146.878	0.115	-0.010
-109.020	37.352	0.177	0.156
-108.005	800.000	0.036	-0.130
-106.991	44.074	-0.112	-0.102
-105.976	-49.071	-0.205	0.097
-104.962	-154.489	-0.091	-0.006
-103.947	-5.170	-0.088	-0.060
-102.932	800.000	-0.079	-0.331
-101.918	-92.599	0.233	0.065
-100.903	-200.000	-0.007	0.050
-99.889	68.557	0.123	-0.125
-98.874	-42.779	-0.237	-0.119
-97.859	-65.900	0.220	0.087
-96.845	62.204	-0.039	0.039
-95.830	-154.555	0.235	0.016
-94.816	64.082	0.085	-0.085
-93.801	-95.202	-0.094	0.025
-92.786	38.576	-0.143	0.127
-91.772	178.822	0.164	-0.238
-90.757	-5.074	-0.105	0.072
-89.743	-58.159	0.143	-0.062
-88.728	382.698	-0.119	0.244
-87.713	-103.550	-0.388	-0.090
-86.699	173.722	-0.268	0.383
-85.684	-200.000	-0.036	0.209
-84.670	-115.447	0.321	-0.060
-83.655	42.003	0.092	0.082
-82.640	-80.992	-0.154	0.050
-81.626	-16.699	-0.088	0.055
-80.611	800.000	-0.050	-0.212
-79.597	162.580	-0.088	0.123
-78.582	800.000	-0.056	0.214
-77.567	-127.960	0.191	0.027
-76.553	-200.000	0.300	0.000
-75.538	-122.994	-0.380	0.061
-74.524	-26.966	0.118	0.068
-73.509	-200.000	0.021	-0.130
-72.494	0.990	0.228	0.162
-71.480	800.000	0.095	0.280
-70.465	-38.961	-0.020	-0.010
-69.451	253.208	0.043	0.073
-68.436	235.850	-0.016	-0.025
-67.422	-200.000	0.010	-0.459
-66.407	-74.390	0.176	0.063
-65.392	-200.000	-0.036	-0.225
-64.378	272.064	0.137	0.239
-63.363	217.363	-0.181	0.285
-62.349	-200.000	-0.069	0.405
-61.334	-64.094	-0.948	-0.383
-60.319	96.613	0.340	0.386
-59.305	203.198	-0.363	-0.557
-58.290	233.432	0.733	1.194
-57.276	800.000	0.476	1.604
-56.261	-200.000	95.558	570.269
-55.246	635.590	1377.876	3463.206
-54.232	194.104	2559.866	3840.603
-53.217	109.193	2302.744	2728.869
-52.203	39.468	2062.015	1829.361
-51.188	34.766	1976.770	1711.668
-50.173	33.115	1959.121	1681.643
-49.159	47.806	2007.390	1855.648
-48.144	49.291	2025.736	1885.915
-47.130	35.293	1987.763	1725.662
-46.115	32.921	1977.351	1695.281
-45.100	32.785	1974.803	1691.811
-44.086	32.811	1972.513	1690.017
-43.071	32.737	1969.662	1686.839
-42.057	32.682	1967.025	1684.026
-41.042	32.690	1966.063	1683.203
-40.027	32.825	1963.280	1681.958
-39.013	32.780	1961.252	1679.755
-37.998	32.773	1960.146	1678.683
-36.984	32.820	1958.219	1677.377
-35.969	32.799	1956.140	1675.349
-34.954	32.907	1954.426	1674.770
-33.940	32.849	1953.744	1673.602
-32.925	32.974	1951.242	1672.503
-31.911	32.994	1949.847	1671.416
-30.896	32.969	1948.140	1669.665
-29.881	32.979	1947.000	1668.714
-28.867	32.995	1945.489	1667.493
-27.852	32.968	1943.339	1665.347
-26.838	33.031	1940.544	1663.435
-25.823	32.974	1939.330	1661.834
-24.809	32.934	1938.025	1660.294
-23.794	32.977	1935.826	1658.722
-22.779	32.953	1934.298	1657.138
-21.765	32.957	1932.655	1655.696
-20.750	32.920	1930.796	1653.715
-19.736	32.866	1929.952	1652.457
-18.721	32.997	1927.823	1651.716
-17.706	33.023	1926.201	1650.488
-16.692	32.952	1924.249	1648.130
-15.677	32.997	1922.652	1647.084
-14.663	32.927	1921.688	1645.587
-13.648	32.972	1920.506	1644.901
-12.633	32.977	1918.865	1643.471
-11.619	32.999	1917.947	1642.814
-10.604	32.980	1916.192	1641.076
-9.590	32.965	1914.729	1639.630
-8.575	32.934	1913.107	1637.910
-7.560	33.001	1912.073	1637.534
-6.546	32.981	1911.155	1636.517
-5.531	32.990	1910.492	1635.956
-4.517	32.929	1908.862	1633.967
-3.502	32.948	1907.853	1633.206
-2.487	32.912	1906.695	1631.840
-1.473	32.854	1905.945	1630.628
-0.458	32.995	1901.278	1627.792
0.556	32.950	1881.380	1599.892
1.571	28.776	1860.985	1547.343
2.586	24.780	1882.790	1531.203
3.600	23.644	1918.434	1550.137
4.615	23.005	1912.799	1539.880
5.629	17.911	1811.994	1416.450
6.644	9.193	1694.504	1256.567
7.659	5.159	1658.540	1198.862
8.673	4.760	1655.330	1193.372
9.688	4.792	1653.547	1192.229
10.702	4.828	1652.462	1191.619
11.717	4.760	1649.286	1188.701
12.731	5.258	1648.586	1191.893
13.746	10.887	1661.436	1244.256
14.761	18.358	1676.758	1313.116
15.775	20.227	1679.207	1329.255
16.790	19.347	1676.137	1319.977
17.804	18.249	1673.024	1309.011
18.819	17.252	1669.481	1298.510
19.834	16.578	1666.983	1291.313
20.848	16.333	1665.725	1288.352
21.863	16.105	1663.703	1284.938
22.877	15.848	1662.515	1281.954
23.892	15.706	1660.993	1279.580
24.907	15.587	1660.336	1278.056
25.921	15.491	1659.342	1276.446
26.936	15.538	1658.498	1276.049
27.950	15.587	1657.420	1275.474
28.965	15.641	1656.670	1275.193
29.980	15.695	1655.845	1274.856
30.994	15.765	1655.137	1274.727
32.009	15.813	1654.226	1274.276
33.023	15.873	1653.271	1273.885
34.038	15.936	1651.972	1273.247
35.053	15.898	1651.159	1272.219
36.067	15.849	1649.346	1270.343
37.082	15.763	1648.648	1269.039
38.096	15.790	1647.479	1268.234
39.111	15.763	1646.567	1267.216
40.126	15.827	1645.930	1267.099
41.140	15.874	1644.901	1266.544
42.155	15.715	1643.447	1264.120
43.169	15.534	1641.962	1261.507
44.184	15.467	1641.411	1260.466
45.199	15.539	1639.946	1259.772
46.213	15.487	1639.028	1258.563
47.228	15.508	1637.624	1257.528
48.242	15.562	1636.621	1257.050
49.257	15.725	1635.729	1257.477
50.271	15.734	1634.158	1256.226
51.286	15.656	1633.156	1254.762
52.301	15.706	1631.533	1253.777
53.315	15.674	1630.381	1252.540
54.330	15.745	1628.721	1251.684
55.344	15.533	1627.344	1248.941
56.359	15.559	1625.637	1247.708
57.374	15.490	1624.580	1246.275
58.388	15.600	1623.397	1246.074
59.403	15.429	1622.246	1243.815
60.417	15.491	1620.689	1242.967
61.432	15.434	1619.943	1241.863
62.447	15.453	1618.912	1241.103
63.461	15.454	1617.446	1239.882
64.476	15.306	1616.789	1238.175
65.490	15.363	1615.509	1237.506
66.505	15.274	1614.177	1235.715
67.520	15.344	1613.028	1235.243
68.534	15.390	1612.100	1234.763
69.549	15.352	1611.144	1233.641
70.563	15.447	1609.837	1233.229
71.578	15.401	1608.860	1232.035
72.593	15.287	1607.732	1230.227
73.607	15.282	1606.778	1229.353
74.622	15.204	1605.991	1228.066
75.636	15.237	1605.100	1227.517
76.651	15.257	1604.064	1226.761
77.666	15.266	1603.213	1226.070
78.680	15.331	1601.920	1225.447
79.695	15.250	1601.445	1224.389
80.709	15.251	1600.519	1223.577
81.724	15.445	1599.265	1223.927
82.739	15.503	1598.403	1223.580
83.753	15.567	1597.285	1223.080
84.768	15.474	1597.184	1222.218
85.782	15.695	1596.201	1222.965
86.797	15.752	1595.669	1222.862
87.812	15.776	1594.526	1222.052
88.826	15.769	1593.135	1220.829
89.841	15.616	1592.442	1219.077
90.855	15.757	1590.832	1218.758
91.870	15.784	1589.788	1218.053
92.884	15.760	1589.358	1217.438
93.899	15.721	1588.588	1216.459
94.914	15.803	1586.888	1215.645
95.928	15.854	1585.771	1215.046
96.943	15.938	1584.207	1214.349
97.957	15.796	1582.887	1212.208
98.972	15.841	1581.046	1211.014
99.987	15.734	1579.854	1209.222
101.001	15.782	1578.018	1208.056
102.016	15.794	1576.549	1206.911
103.030	15.695	1575.633	1205.393
104.045	15.700	1574.768	1204.656
105.060	15.713	1573.127	1203.390
106.074	15.738	1571.442	1202.174
107.089	15.735	1569.656	1200.676
108.103	15.405	1568.731	1197.507
109.118	15.367	1567.022	1195.829
110.133	15.394	1565.163	1194.495
111.147	15.367	1564.199	1193.462
112.162	15.297	1563.648	1192.439
113.176	15.470	1561.505	1191.929
114.191	15.409	1560.246	1190.429
115.206	15.507	1558.994	1190.064
116.220	15.490	1558.036	1189.109
117.235	15.490	1556.112	1187.535
118.249	15.543	1554.635	1186.675
119.264	15.499	1553.626	1185.492
120.279	15.485	1552.256	1184.242
121.293	15.408	1550.781	1182.468
122.308	15.373	1549.006	1180.765
123.322	15.373	1547.457	1179.477
124.337	15.364	1546.152	1178.312
125.352	15.348	1544.781	1177.054
126.366	15.415	1543.785	1176.661
127.381	15.339	1542.999	1175.424
128.395	15.355	1541.719	1174.458
129.410	15.373	1540.645	1173.663
130.424	15.437	1538.808	1172.609
131.439	15.441	1537.781	1171.748
132.454	15.462	1536.304	1170.662
133.468	15.579	1534.853	1170.271
134.483	15.447	1534.221	1168.769
135.497	15.560	1532.389	1168.052
136.512	15.561	1530.896	1166.817
137.527	15.556	1529.474	1165.597
138.541	15.636	1528.401	1165.234
139.556	15.612	1527.748	1164.463
140.570	15.666	1525.371	1162.920
141.585	15.643	1524.850	1162.262
142.600	15.762	1523.625	1162.046
143.614	15.780	1522.423	1161.153
144.629	15.733	1521.961	1160.377
145.643	15.915	1519.978	1160.016
146.658	15.904	1518.606	1158.785
147.673	15.838	1516.824	1156.873
148.687	15.735	1515.750	1155.246
149.702	15.764	1513.623	1153.717
150.716	15.735	1512.387	1152.476
151.731	15.594	1511.387	1150.648
152.746	15.650	1509.908	1149.801
153.760	15.658	1508.923	1149.006
154.775	15.788	1507.089	1148.392
155.789	15.814	1505.710	1147.417
156.804	15.804	1504.788	1146.543
157.819	15.891	1503.567	1146.104
158.833	15.830	1502.707	1144.932
159.848	15.867	1501.809	1144.403
160.862	15.880	1500.613	1143.476
161.877	16.040	1499.240	1143.417
162.892	15.842	1498.521	1141.425
163.906	15.763	1496.642	1139.356
164.921	15.657	1495.373	1137.571
165.935	15.718	1494.422	1137.161
166.950	15.712	1493.338	1136.195
167.964	15.828	1492.023	1135.878
168.979	15.856	1491.127	1135.285
169.994	15.890	1490.298	1134.782
171.008	15.731	1489.161	1132.739
172.023	15.815	1487.757	1132.141
173.037	15.873	1487.173	1131.985
174.052	15.960	1485.919	1131.511
175.067	15.952	1485.398	1130.963
176.081	15.934	1483.706	1129.456
177.096	15.818	1482.242	1127.464
178.110	15.789	1480.616	1125.933
179.125	15.948	1479.762	1126.246
180.140	15.937	1478.633	1125.216
181.154	15.837	1478.046	1123.998
182.169	16.023	1476.772	1124.170
183.183	15.952	1475.849	1122.895
184.198	15.964	1474.830	1122.104
185.213	16.065	1473.744	1121.853
186.227	16.052	1472.649	1120.830
187.242	16.110	1471.699	1120.395
188.256	16.195	1470.383	1119.856
189.271	16.195	1469.741	1119.269
190.286	16.268	1468.296	1118.556
191.300	16.132	1467.587	1117.013
192.315	16.067	1466.031	1115.300
193.329	15.807	1464.800	1112.544
194.344	15.833	1463.539	1111.661
195.359	15.945	1462.456	1111.481
196.373	15.882	1461.837	1110.494
197.388	15.990	1460.996	1110.469
198.402	16.119	1460.009	1110.474
199.417	16.199	1458.875	1110.036
200.432	16.349	1457.982	1110.248
201.446	16.431	1456.927	1109.882
202.461	16.439	1456.171	1109.258
203.475	16.510	1454.977	1108.718
204.490	16.414	1454.190	1107.392
205.504	16.535	1452.967	1107.158
206.519	16.452	1451.334	1105.270
207.534	16.252	1450.521	1103.243
208.548	16.273	1449.391	1102.426
209.563	16.278	1448.504	1101.687
210.577	16.308	1447.481	1101.003
211.592	16.343	1446.528	1100.415
212.607	16.348	1446.120	1100.036
213.621	16.503	1445.138	1100.201
214.636	16.476	1444.630	1099.539
215.650	16.497	1443.663	1098.844
216.665	16.480	1442.529	1097.775
217.680	16.544	1441.469	1097.285
218.694	16.609	1441.054	1097.293
219.709	16.583	1440.307	1096.461
220.723	16.653	1439.035	1095.849
221.738	16.727	1437.817	1095.302
222.753	16.585	1437.324	1093.910
223.767	16.533	1436.331	1092.725
224.782	16.594	1435.226	1092.178
225.796	16.653	1434.499	1091.908
226.811	16.689	1434.106	1091.744
227.826	16.720	1433.227	1091.179
228.840	16.714	1431.986	1090.100
229.855	16.639	1430.955	1088.736
230.869	16.670	1429.721	1087.899
231.884	16.638	1428.810	1086.906
232.899	16.571	1427.798	1085.611
233.913	16.634	1427.041	1085.341
234.928	16.543	1425.447	1083.447
235.942	16.499	1424.582	1082.415
236.957	16.483	1423.335	1081.271
237.972	16.567	1421.849	1080.580
238.986	16.580	1420.714	1079.706
240.001	16.605	1419.698	1078.997
241.015	16.514	1418.910	1077.722
242.030	16.582	1417.669	1077.116
243.045	16.665	1416.680	1076.802
244.059	16.705	1416.047	1076.479
245.074	16.778	1415.269	1076.255
246.088	16.741	1414.471	1075.319
247.103	16.747	1413.772	1074.727
248.117	16.912	1412.737	1074.894
249.132	16.984	1412.137	1074.799
250.147	16.947	1411.944	1074.322
251.161	17.091	1411.290	1074.642
252.176	17.226	1410.583	1074.864
253.190	17.196	1409.526	1073.774
254.205	17.224	1408.915	1073.390
255.220	17.311	1408.081	1073.208
256.234	17.331	1407.532	1072.819
257.249	17.339	1406.585	1072.052
258.263	17.295	1405.714	1071.020
259.278	17.354	1404.689	1070.515
260.293	17.317	1403.754	1069.472
261.307	17.335	1403.047	1068.951
262.322	17.428	1402.232	1068.822
263.336	17.454	1401.657	1068.451
264.351	17.402	1400.447	1067.109
265.366	17.514	1399.359	1066.884
266.380	17.457	1398.692	1065.928
267.395	17.391	1397.856	1064.784
268.409	17.448	1397.049	1064.429
269.424	17.403	1395.878	1063.163
270.439	17.330	1395.340	1062.205
271.453	17.455	1393.864	1061.763
272.468	17.471	1392.786	1060.953
273.482	17.424	1392.169	1060.091
274.497	17.350	1391.145	1058.758
275.512	17.252	1390.752	1057.755
276.526	17.336	1389.684	1057.371
277.541	17.434	1388.215	1056.768
278.555	17.461	1387.033	1055.946
279.570	17.490	1386.746	1055.814
280.585	17.497	1385.915	1055.133
281.599	17.646	1385.351	1055.528
282.614	17.683	1384.157	1054.756
283.628	17.571	1383.273	1053.299
284.643	17.589	1381.687	1052.106
285.657	17.497	1381.112	1051.009
286.672	17.565	1379.782	1050.322
287.687	17.597	1379.204	1049.984
288.701	17.546	1378.212	1048.823
289.716	17.577	1377.591	1048.452
290.730	17.541	1376.794	1047.526
291.745	17.587	1375.708	1046.891
292.760	17.675	1374.802	1046.654
293.774	17.678	1373.571	1045.642
294.789	17.681	1373.169	1045.260
295.803	17.636	1372.560	1044.428
296.818	17.816	1371.472	1044.607
297.833	17.666	1370.760	1043.058
298.847	17.663	1369.500	1041.990
299.862	17.609	1368.871	1041.085
300.876	17.657	1367.979	1040.609
301.891	17.765	1366.465	1040.027
302.906	17.784	1365.617	1039.400
303.920	17.861	1365.306	1039.542
304.935	17.907	1364.585	1039.180
305.949	18.004	1363.561	1038.902
306.964	17.902	1363.506	1038.147
307.979	18.029	1362.093	1037.751
308.993	18.128	1360.512	1037.056
310.008	17.982	1359.708	1035.466
311.022	17.962	1358.595	1034.405
312.037	18.009	1358.149	1034.260
313.052	18.133	1356.756	1033.858
314.066	18.024	1356.020	1032.541
315.081	17.885	1355.245	1031.024
316.095	17.944	1353.863	1030.235
317.110	17.809	1353.226	1028.846
318.125	17.841	1351.969	1027.994
319.139	17.798	1351.418	1027.222
320.154	17.940	1349.995	1026.904
321.168	17.865	1348.983	1025.593
322.183	17.947	1347.828	1025.115
323.197	18.027	1347.151	1024.990
324.212	17.961	1346.496	1024.008
325.227	17.929	1346.148	1023.461
326.241	17.928	1345.266	1022.694
327.256	18.012	1344.296	1022.368
328.270	18.138	1343.061	1022.090
329.285	18.026	1342.118	1020.611
330.300	17.920	1341.479	1019.402
331.314	18.014	1340.372	1019.031
332.329	17.989	1339.430	1018.078
333.343	18.037	1338.456	1017.533
334.358	17.891	1338.191	1016.372
335.373	18.108	1336.972	1016.648
336.387	18.127	1336.399	1016.236
337.402	18.258	1335.419	1016.177
338.416	18.263	1334.271	1015.241
339.431	18.211	1334.552	1015.061
340.446	18.275	1333.864	1014.825
341.460	18.303	1332.761	1014.062
342.475	18.418	1331.753	1013.888
343.489	18.454	1330.805	1013.286
344.504	18.515	1330.314	1013.183
345.519	18.492	1329.424	1012.285
346.533	18.630	1328.030	1011.943
347.548	18.528	1327.631	1010.948
348.562	18.654	1326.685	1010.883
349.577	18.628	1325.859	1010.011
350.592	18.593	1325.332	1009.313
351.606	18.428	1323.917	1007.179
352.621	18.361	1323.006	1006.003
353.635	18.487	1321.842	1005.769
354.650	18.424	1320.508	1004.295
355.665	18.423	1320.090	1003.882
356.679	18.397	1319.137	1002.916
357.694	18.458	1318.201	1002.472
358.708	18.488	1316.925	1001.586
359.723	18.580	1315.766	1001.153
360.738	18.618	1314.679	1000.458
361.752	18.540	1314.248	999.589
362.767	18.571	1312.887	998.649
363.781	18.603	1311.884	997.984
364.796	18.606	1311.218	997.401
365.810	18.515	1310.978	996.605
366.825	18.808	1310.037	997.501
367.840	18.774	1309.297	996.651
368.854	18.906	1308.606	996.807
369.869	18.980	1308.104	996.761
370.883	18.904	1307.632	995.873
371.898	18.827	1307.055	994.901
372.913	18.901	1305.855	994.330
373.927	18.786	1305.287	993.140
374.942	18.851	1304.116	992.538
375.956	18.985	1303.053	992.414
376.971	18.997	1302.527	991.996
377.986	18.899	1301.709	990.723
379.000	19.042	1300.815	990.778
380.015	19.047	1299.763	989.914
381.029	19.066	1299.485	989.727
382.044	19.042	1299.330	989.382
383.059	19.143	1298.560	989.289
384.073	19.084	1297.648	988.167
385.088	19.146	1296.534	987.590
386.102	19.143	1296.198	987.225
387.117	19.130	1295.287	986.374
388.132	19.139	1294.359	985.626
389.146	19.063	1293.795	984.676
390.161	19.007	1292.772	983.492
391.175	19.127	1291.831	983.376
392.190	18.968	1291.431	982.077
393.205	19.035	1290.373	981.565
394.219	19.096	1289.604	981.239
395.234	19.226	1287.862	980.567
396.248	19.159	1286.832	979.317
397.263	19.093	1285.764	978.041
398.278	19.073	1284.592	976.950
399.292	19.047	1283.380	975.793
400.307	19.031	1282.522	974.968
401.321	19.017	1281.215	973.806
402.336	18.957	1280.239	972.640
403.350	19.146	1278.990	972.673
404.365	19.006	1278.200	971.194
405.380	19.066	1277.297	970.762
406.394	19.129	1276.571	970.481
407.409	19.145	1276.050	970.087
408.423	19.104	1275.832	969.604
409.438	19.296	1274.897	969.889
410.453	19.347	1273.984	969.396
411.467	19.469	1273.004	969.248
412.482	19.456	1273.047	969.123
413.496	19.567	1271.916	968.797
414.511	19.528	1271.347	968.059
415.526	19.526	1270.760	967.518
416.540	19.637	1269.667	967.221
417.555	19.687	1269.096	966.982
418.569	19.703	1268.415	966.468
419.584	19.642	1267.857	965.614
420.599	19.601	1268.017	965.423
421.613	141.371	1431.964	1793.632
422.628	135.774	1455.832	1793.737
