DTS Sentinel unit serial number:	SN413079Multiplexer serial number:	ORYXHardware model number:	OX4-SRSoftware version number:	ORYX F/W v4.00 Oryx Data Collector v3.7.2.0data status	okinstallation	princeton_trtdifferential loss correction	single-endedforward channel	channel 4reverse channel	N/Adate	2019/09/13time	06:57:34forward acquisition time	60.00reverse acquisition time	0.00gamma	496.2192k internal	0.2324k external	0.2324temperature offset calibration	1.0200default loss term (dB/km)	0.3790temperature slope calibration	1.0000multiplexer offset coefficient	1.0000multiplexer slope coefficient	1.0000fibre end	0.00T internal ref (°C)	26.00T ext. ref 1 (°C)	4.14T ext. ref 2 (°C)	20.84length (m)	temperature (°C)	Stokes	anti-Stokes-747.200	-131.476	-0.291	0.039
-746.185	-29.448	-0.207	0.119
-745.171	-113.749	0.266	-0.052
-744.156	-96.923	-0.297	0.079
-743.142	-90.641	-0.273	0.080
-742.127	800.000	-0.087	-0.301
-741.112	800.000	-0.042	-0.145
-740.098	573.945	0.116	-0.286
-739.083	-159.355	0.175	0.010
-738.069	-101.768	0.184	0.045
-737.054	99.413	-0.202	-0.235
-736.039	-172.077	-0.435	0.014
-735.025	800.000	0.002	-0.006
-734.010	-91.050	-0.382	-0.111
-732.996	23.904	0.166	-0.138
-731.981	-68.827	0.072	-0.028
-730.966	-135.637	-0.339	0.041
-729.952	-172.727	0.039	-0.001
-728.937	477.882	-0.065	0.149
-727.923	-28.560	-0.293	0.171
-726.908	-200.000	0.036	0.239
-725.894	16.617	0.192	-0.153
-724.879	271.072	0.105	0.186
-723.864	-200.000	0.042	-0.229
-722.850	-190.830	-0.327	-0.003
-721.835	-153.054	-0.068	0.005
-720.821	-179.343	-0.163	0.004
-719.806	368.143	-0.059	0.121
-718.791	-167.531	0.285	-0.011
-717.777	-200.000	-0.034	-0.283
-716.762	83.208	0.178	-0.195
-715.748	192.235	-0.195	-0.296
-714.733	-138.727	-0.106	0.012
-713.718	-157.279	-0.411	-0.025
-712.704	800.000	0.030	0.089
-711.689	-156.138	-0.164	-0.010
-710.675	-107.225	-0.329	-0.073
-709.660	800.000	0.054	-0.183
-708.645	-200.000	-0.030	0.138
-707.631	-200.000	-0.040	0.426
-706.616	-62.903	-0.408	0.170
-705.602	-200.000	0.010	0.093
-704.587	800.000	0.097	-0.401
-703.572	800.000	-0.021	-0.068
-702.558	75.024	0.329	0.350
-701.543	-200.000	0.056	0.324
-700.529	-200.000	-0.066	-0.438
-699.514	-108.436	0.086	-0.019
-698.499	70.932	0.180	-0.188
-697.485	129.457	-0.120	0.154
-696.470	-200.000	0.075	0.375
-695.456	800.000	-0.051	0.156
-694.441	800.000	-0.070	-0.249
-693.426	9.346	-0.300	0.228
-692.412	800.000	-0.080	-0.222
-691.397	454.688	-0.132	0.295
-690.383	59.477	-0.196	0.194
-689.368	-139.444	-0.141	0.015
-688.354	-200.000	0.004	-0.037
-687.339	351.177	0.029	-0.057
-686.324	15.296	0.092	-0.073
-685.310	156.547	0.250	-0.348
-684.295	701.683	-0.054	-0.143
-683.281	-95.063	-0.160	0.044
-682.266	-28.183	-0.174	-0.101
-681.251	249.085	-0.214	-0.365
-680.237	-113.991	-0.339	0.066
-679.222	-200.000	-0.007	0.093
-678.208	-150.517	-0.328	-0.025
-677.193	248.424	-0.121	-0.205
-676.178	140.182	-0.129	-0.171
-675.164	19.634	0.093	-0.075
-674.149	305.155	-0.078	-0.146
-673.135	139.707	0.149	-0.198
-672.120	-118.530	-0.323	-0.058
-671.105	-118.621	-0.217	0.038
-670.091	-92.604	0.463	-0.131
-669.076	-124.499	-0.253	0.040
-668.062	-48.949	-0.245	-0.118
-667.047	-54.404	0.179	-0.082
-666.032	24.080	0.095	-0.079
-665.018	-28.328	0.074	-0.043
-664.003	-19.378	0.264	-0.164
-662.989	245.906	0.114	-0.194
-661.974	800.000	-0.050	-0.158
-660.959	86.784	0.101	0.112
-659.945	-184.421	-0.212	-0.003
-658.930	-200.000	-0.001	0.065
-657.916	-142.407	-0.179	-0.018
-656.901	-200.000	0.004	-0.067
-655.886	-56.266	-0.112	0.050
-654.872	106.342	0.122	0.146
-653.857	-35.009	-0.093	0.051
-652.843	553.416	-0.223	0.540
-651.828	130.219	-0.110	-0.142
-650.814	104.748	-0.221	0.262
-649.799	-35.265	0.279	-0.153
-648.784	331.362	0.101	-0.195
-647.770	-71.341	0.239	-0.090
-646.755	237.545	0.134	-0.224
-645.741	111.832	-0.090	-0.110
-644.726	-200.000	0.023	-0.114
-643.711	-200.000	-0.013	-0.075
-642.697	149.105	0.057	0.077
-641.682	290.949	0.030	-0.055
-640.668	-162.178	-0.084	0.004
-639.653	-64.917	0.225	-0.092
-638.638	86.982	0.278	-0.308
-637.624	648.384	-0.072	-0.185
-636.609	-114.610	-0.161	0.031
-635.595	-81.433	-0.194	0.064
-634.580	-200.000	-0.002	0.070
-633.565	-94.639	-0.282	-0.077
-632.551	-130.911	0.170	-0.023
-631.536	232.444	-0.112	-0.184
-630.522	515.235	0.122	-0.287
-629.507	195.951	0.086	0.132
-628.492	-42.763	-0.319	-0.163
-627.478	-109.476	0.240	-0.051
-626.463	405.033	0.080	-0.169
-625.449	800.000	0.044	0.131
-624.434	-138.914	-0.187	0.020
-623.419	45.711	0.122	-0.113
-622.405	800.000	0.121	-0.439
-621.390	36.712	0.026	0.023
-620.376	-200.000	0.010	0.184
-619.361	800.000	0.022	-0.072
-618.346	70.987	-0.337	-0.350
-617.332	-177.993	0.201	-0.005
-616.317	78.763	0.110	0.119
-615.303	-142.017	0.290	-0.029
-614.288	113.045	0.117	0.143
-613.273	143.354	-0.226	0.303
-612.259	-200.000	-0.037	0.229
-611.244	623.240	-0.034	0.087
-610.230	-73.890	-0.267	-0.097
-609.215	4.483	-0.029	0.021
-608.201	175.279	-0.169	0.246
-607.186	-200.000	-0.001	0.023
-606.171	-65.627	0.259	-0.104
-605.157	-98.084	0.347	0.090
-604.142	-200.000	-0.056	0.440
-603.128	-30.294	0.140	0.080
-602.113	-87.300	0.226	-0.069
-601.098	407.510	-0.036	0.077
-600.084	723.766	0.089	-0.238
-599.069	-200.000	0.008	-0.164
-598.055	136.343	-0.256	0.335
-597.040	800.000	0.016	-0.052
-596.025	164.271	-0.101	0.143
-595.011	622.388	0.040	-0.100
-593.996	-51.569	-0.394	-0.184
-592.982	-109.467	-0.151	0.032
-591.967	-57.903	0.489	-0.214
-590.952	114.930	0.194	-0.238
-589.938	37.692	-0.156	0.139
-588.923	23.697	0.169	0.139
-587.909	96.729	-0.419	0.482
-586.894	228.819	-0.113	0.185
-585.879	-115.078	-0.162	0.031
-584.865	-200.000	-0.005	0.096
-583.850	-7.397	-0.303	-0.206
-582.836	53.956	-0.121	0.117
-581.821	-109.124	0.451	-0.096
-580.806	-14.023	-0.143	-0.093
-579.792	-200.000	-0.047	0.294
-578.777	-59.476	0.169	0.073
-577.763	201.764	-0.171	0.264
-576.748	108.494	-0.141	-0.169
-575.733	-69.363	0.407	0.157
-574.719	-200.000	-0.031	0.175
-573.704	-70.263	-0.208	0.079
-572.690	53.499	0.270	-0.260
-571.675	800.000	0.029	0.083
-570.661	-45.272	0.142	-0.071
-569.646	598.776	0.054	-0.135
-568.631	644.218	0.082	0.209
-567.617	143.424	0.065	0.087
-566.602	155.457	-0.255	0.352
-565.588	-200.000	-0.034	0.186
-564.573	-160.373	0.109	0.006
-563.558	-200.000	-0.024	0.161
-562.544	-164.631	-0.361	-0.016
-561.529	800.000	0.016	0.046
-560.515	-200.000	-0.017	-0.339
-559.500	222.759	-0.115	0.185
-558.485	-200.000	0.116	-0.529
-557.471	-11.023	0.015	-0.010
-556.456	464.854	0.023	-0.051
-555.442	-107.776	-0.396	-0.087
-554.427	253.099	0.148	-0.253
-553.412	-142.263	-0.170	-0.017
-552.398	-83.164	-0.041	0.013
-551.383	-183.268	-0.036	-0.001
-550.369	-143.412	0.087	0.008
-549.354	-104.306	0.180	-0.042
-548.339	137.427	0.048	0.063
-547.325	-78.515	-0.085	0.029
-546.310	-200.000	-0.047	-0.358
-545.296	-200.000	-0.013	-0.154
-544.281	800.000	-0.042	-0.144
-543.266	-92.121	0.424	-0.120
-542.252	-129.832	-0.212	-0.029
-541.237	-95.900	-0.338	-0.090
-540.223	132.152	-0.166	-0.214
-539.208	295.111	-0.086	0.158
-538.193	197.198	0.068	-0.104
-537.179	115.939	-0.285	0.349
-536.164	-200.000	-0.008	0.085
-535.150	-114.089	0.390	-0.075
-534.135	631.598	0.122	-0.309
-533.121	24.185	0.243	0.201
-532.106	-166.498	0.292	0.012
-531.091	-200.000	-0.030	-0.156
-530.077	800.000	0.171	0.531
-529.062	85.965	0.036	0.039
-528.048	-17.174	0.164	0.103
-527.033	-200.000	0.004	-0.062
-526.018	263.469	0.098	0.170
-525.004	310.107	0.070	-0.132
-523.989	-200.000	-0.001	-0.225
-522.975	-132.758	-0.170	0.022
-521.960	-191.523	-0.155	0.002
-520.945	800.000	-0.064	-0.195
-519.931	-200.000	0.047	-0.212
-518.916	-200.000	-0.012	0.106
-517.902	-200.000	-0.028	-0.277
-516.887	23.540	0.169	-0.139
-515.872	-37.393	-0.249	0.133
-514.858	144.893	-0.097	0.129
-513.843	-200.000	0.033	-0.344
-512.829	346.179	-0.053	0.104
-511.814	0.709	-0.149	0.107
-510.799	290.749	0.036	0.065
-509.785	75.874	-0.218	-0.231
-508.770	-18.765	-0.243	-0.152
-507.756	238.434	-0.229	0.380
-506.741	800.000	0.177	-0.542
-505.726	54.638	0.152	-0.147
-504.712	-105.236	0.096	0.022
-503.697	-200.000	0.028	-0.125
-502.683	261.586	0.171	-0.296
-501.668	-200.000	-0.010	-0.126
-500.653	-40.751	-0.396	-0.205
-499.639	-111.365	-0.194	0.040
-498.624	147.907	0.160	0.215
-497.610	-141.783	0.279	-0.028
-496.595	-62.990	-0.133	0.055
-495.581	734.042	0.080	0.214
-494.566	-200.000	0.016	-0.327
-493.551	-43.452	-0.197	0.100
-492.537	-139.267	-0.430	-0.046
-491.522	184.483	-0.072	-0.107
-490.508	-160.015	0.143	0.008
-489.493	367.904	-0.128	-0.258
-488.478	147.582	-0.304	-0.409
-487.464	800.000	0.058	0.230
-486.449	-104.023	0.017	-0.004
-485.435	-105.287	0.115	-0.026
-484.420	-123.958	-0.182	-0.029
-483.405	-87.468	-0.121	-0.037
-482.391	-138.107	-0.315	0.035
-481.376	-134.797	0.238	-0.029
-480.362	498.977	-0.027	0.061
-479.347	63.614	0.170	0.170
-478.332	-136.484	0.244	0.028
-477.318	-200.000	-0.022	0.121
-476.303	-116.862	-0.197	0.036
-475.289	-42.704	-0.193	0.098
-474.274	-200.000	-0.008	0.108
-473.259	-112.138	-0.135	-0.027
-472.245	35.638	-0.384	0.337
-471.230	-200.000	0.014	-0.186
-470.216	-16.896	-0.162	0.102
-469.201	-82.631	-0.244	-0.079
-468.186	-200.000	0.082	-0.402
-467.172	-200.000	0.042	0.209
-466.157	-200.000	0.009	0.087
-465.143	-111.403	-0.276	0.056
-464.128	-59.684	-0.290	0.124
-463.113	662.994	0.034	0.088
-462.099	-200.000	0.026	-0.166
-461.084	278.513	0.101	0.180
-460.070	800.000	0.121	-0.361
-459.055	800.000	-0.014	0.061
-458.040	0.555	-0.160	0.115
-457.026	262.583	0.052	-0.090
-456.011	-51.491	0.303	0.141
-454.997	95.830	-0.147	-0.168
-453.982	-200.000	-0.010	0.083
-452.968	-13.267	0.036	0.023
-451.953	32.651	-0.160	0.138
-450.938	-138.160	0.102	0.011
-449.924	-0.213	-0.400	0.284
-448.909	50.194	0.274	0.258
-447.895	43.206	-0.100	-0.092
-446.880	209.141	0.053	-0.082
-445.865	-200.000	0.001	0.010
-444.851	277.629	-0.146	-0.258
-443.836	-105.337	0.156	-0.035
-442.822	-200.000	0.010	0.417
-441.807	-182.903	-0.362	0.006
-440.792	205.397	-0.235	0.364
-439.778	-70.850	-0.093	0.035
-438.763	-111.682	-0.474	0.096
-437.749	-111.067	0.368	0.075
-436.734	-30.037	-0.210	0.119
-435.719	-84.131	0.271	0.086
-434.705	-200.000	0.040	-0.198
-433.690	-200.000	0.011	0.164
-432.676	-110.451	-0.134	-0.028
-431.661	-200.000	-0.032	0.449
-430.646	800.000	0.050	0.187
-429.632	65.599	0.061	-0.062
-428.617	-151.319	0.252	0.019
-427.603	267.762	-0.088	-0.154
-426.588	-87.201	-0.251	-0.076
-425.573	717.669	0.131	-0.348
-424.559	-162.486	0.254	-0.013
-423.544	-200.000	0.005	-0.050
-422.530	-200.000	-0.031	-0.199
-421.515	-19.789	-0.073	-0.045
-420.500	177.050	-0.142	0.206
-419.486	800.000	0.031	0.095
-418.471	163.860	-0.072	-0.101
-417.457	800.000	-0.054	-0.232
-416.442	21.742	-0.232	-0.188
-415.428	-43.785	-0.159	-0.080
-414.413	-200.000	0.056	0.345
-413.398	-142.638	0.048	-0.005
-412.384	800.000	-0.058	-0.223
-411.369	-144.079	0.367	-0.034
-410.355	800.000	-0.051	0.186
-409.340	97.935	0.306	0.351
-408.325	305.455	-0.183	0.339
-407.311	800.000	-0.075	-0.290
-406.296	-200.000	0.073	-0.349
-405.282	-39.858	-0.146	-0.076
-404.267	-132.912	-0.363	-0.046
-403.252	-111.631	0.139	0.028
-402.238	175.540	0.192	-0.277
-401.223	-200.000	0.054	-0.352
-400.209	-44.700	0.294	0.146
-399.194	-145.038	0.198	-0.018
-398.179	-177.722	0.514	-0.012
-397.165	-38.853	-0.053	0.028
-396.150	-200.000	0.008	0.166
-395.136	-136.228	0.137	0.016
-394.121	167.139	-0.103	-0.146
-393.106	-114.656	0.420	-0.080
-392.092	251.562	0.055	-0.093
-391.077	283.072	0.111	0.198
-390.063	-95.442	0.054	0.014
-389.048	-35.537	0.180	0.097
-388.033	-2.685	-0.053	0.037
-387.019	-136.859	-0.077	0.009
-386.004	-104.557	-0.352	-0.081
-384.990	196.402	-0.146	0.222
-383.975	685.269	0.072	-0.188
-382.960	169.064	0.081	0.115
-381.946	269.154	-0.013	-0.023
-380.931	167.661	0.138	0.195
-379.917	-183.883	-0.111	0.002
-378.902	-198.885	-0.154	0.001
-377.888	29.602	0.200	-0.169
-376.873	-72.457	-0.367	0.135
-375.858	18.912	0.138	0.110
-374.844	32.422	-0.273	-0.235
-373.829	-138.381	0.167	-0.018
-372.815	-200.000	-0.013	0.077
-371.800	-200.000	0.024	-0.346
-370.785	-172.260	0.164	-0.005
-369.771	20.120	0.114	0.091
-368.756	-102.476	0.327	0.078
-367.742	-123.745	0.447	-0.070
-366.727	58.643	-0.092	-0.090
-365.712	-118.990	-0.161	-0.028
-364.698	310.725	0.216	-0.403
-363.683	98.075	0.253	-0.290
-362.669	94.357	0.296	-0.334
-361.654	-42.075	0.266	-0.135
-360.639	-200.000	-0.038	0.367
-359.625	-1.396	0.081	0.057
-358.610	294.973	0.134	-0.243
-357.596	-113.103	-0.190	-0.037
-356.581	800.000	0.056	0.167
-355.566	368.928	-0.063	0.126
-354.552	-200.000	0.001	-0.155
-353.537	-65.166	0.165	0.066
-352.523	566.075	0.124	0.299
-351.508	368.703	0.046	-0.092
-350.493	27.300	-0.187	0.156
-349.479	-89.868	-0.305	-0.089
-348.464	40.412	0.180	-0.161
-347.450	444.818	-0.081	0.178
-346.435	-129.637	0.148	0.020
-345.420	-24.273	-0.080	0.047
-344.406	-135.923	0.201	0.024
-343.391	-200.000	-0.232	-0.001
-342.377	494.946	0.075	0.172
-341.362	41.564	-0.240	0.216
-340.348	291.630	-0.083	-0.150
-339.333	-200.000	0.039	0.210
-338.318	286.963	-0.069	-0.125
-337.304	-200.000	-0.009	-0.131
-336.289	-1.673	0.156	0.109
-335.275	129.326	-0.157	-0.199
-334.260	378.469	0.078	0.158
-333.245	-115.689	0.066	-0.012
-332.231	-7.446	-0.193	-0.130
-331.216	196.685	-0.056	-0.085
-330.202	-17.334	-0.238	-0.149
-329.187	-200.000	0.002	-0.155
-328.172	23.782	-0.068	0.055
-327.158	-200.000	0.001	0.050
-326.143	73.073	-0.135	-0.140
-325.129	800.000	-0.039	0.130
-324.114	-200.000	-0.021	0.295
-323.099	211.778	-0.135	-0.212
-322.085	-11.433	0.228	0.149
-321.070	-150.156	-0.043	-0.003
-320.056	-157.331	0.372	-0.022
-319.041	800.000	-0.099	0.388
-318.026	95.441	0.185	0.209
-317.012	581.004	-0.131	0.319
-315.997	113.852	-0.046	-0.056
-314.983	360.223	0.066	-0.130
-313.968	-42.207	0.336	0.171
-312.953	4.261	-0.312	-0.227
-311.939	260.255	-0.096	-0.164
-310.924	800.000	0.055	0.190
-309.910	245.629	-0.053	-0.089
-308.895	-114.382	-0.139	0.026
-307.880	9.128	0.067	-0.050
-306.866	423.801	0.098	-0.209
-305.851	58.783	-0.089	0.087
-304.837	115.126	0.272	0.329
-303.822	3.239	-0.285	0.206
-302.807	-158.636	0.277	0.016
-301.793	-84.134	-0.074	0.023
-300.778	3.329	0.276	-0.200
-299.764	227.980	-0.280	-0.452
-298.749	43.508	-0.208	0.188
-297.735	-200.000	-0.018	0.091
-296.720	-12.319	0.121	0.079
-295.705	-200.000	-0.010	0.215
-294.691	800.000	-0.116	0.331
-293.676	800.000	-0.074	0.318
-292.662	-200.000	0.015	-0.087
-291.647	132.141	-0.184	-0.235
-290.632	-118.516	-0.341	0.060
-289.618	34.611	-0.068	-0.059
-288.603	265.266	-0.091	-0.157
-287.589	172.986	0.109	-0.156
-286.574	-200.000	0.002	0.179
-285.559	12.823	-0.183	-0.141
-284.545	226.484	0.128	-0.206
-283.530	-200.000	0.014	-0.196
-282.516	570.437	0.056	0.136
-281.501	-175.832	0.194	0.005
-280.486	182.707	-0.199	-0.291
-279.472	170.372	0.207	0.293
-278.457	124.760	0.125	-0.156
-277.443	-200.000	-0.011	-0.193
-276.428	-78.622	-0.224	0.076
-275.413	193.261	-0.040	0.060
-274.399	-14.870	-0.161	0.102
-273.384	-70.669	-0.088	0.033
-272.370	-56.211	0.172	-0.076
-271.355	-15.311	-0.514	0.326
-270.340	-200.000	0.025	-0.269
-269.326	-111.315	0.209	-0.042
-268.311	-200.000	-0.029	-0.350
-267.297	-75.171	0.321	-0.114
-266.282	2.297	0.288	0.206
-265.267	119.128	0.230	0.282
-264.253	-65.937	-0.096	-0.038
-263.238	336.287	0.060	-0.116
-262.224	63.354	-0.187	-0.186
-261.209	-200.000	0.033	-0.171
-260.195	-200.000	0.045	0.231
-259.180	182.425	-0.339	0.495
-258.165	800.000	0.050	0.193
-257.151	-159.868	0.081	0.004
-256.136	49.733	0.075	0.070
-255.122	-124.530	-0.310	-0.048
-254.107	101.569	0.162	0.187
-253.092	511.496	0.081	0.187
-252.078	-48.994	0.322	-0.153
-251.063	800.000	0.050	0.159
-250.049	800.000	-0.016	0.047
-249.034	-191.264	0.288	0.003
-248.019	-61.306	0.118	-0.049
-247.005	-179.081	0.085	0.002
-245.990	8.084	-0.161	0.119
-244.976	-200.000	-0.016	0.147
-243.961	-200.000	0.022	-0.170
-242.946	-76.407	0.242	0.084
-241.932	445.377	0.235	0.510
-240.917	-200.000	-0.030	0.246
-239.903	321.740	0.160	0.300
-238.888	9.385	-0.026	-0.019
-237.873	451.625	0.064	0.139
-236.859	46.433	-0.090	0.083
-235.844	306.617	0.019	0.034
-234.830	-200.000	0.034	0.177
-233.815	-114.347	-0.259	-0.049
-232.800	493.257	-0.021	-0.049
-231.786	61.105	-0.045	0.044
-230.771	800.000	0.049	-0.137
-229.757	-125.565	0.452	0.068
-228.742	96.162	0.024	0.027
-227.727	-57.718	-0.098	0.043
-226.713	-0.509	-0.165	0.116
-225.698	128.834	-0.258	-0.326
-224.684	-200.000	-0.026	0.306
-223.669	800.000	-0.138	0.395
-222.655	-58.722	-0.148	0.064
-221.640	9.192	0.137	-0.102
-220.625	-69.465	-0.307	0.116
-219.611	-37.614	-0.176	0.093
-218.596	174.985	0.144	-0.206
-217.582	53.780	0.105	-0.100
-216.567	-200.000	-0.003	-0.251
-215.552	-118.911	0.064	0.011
-214.538	-141.520	-0.114	0.011
-213.523	586.069	0.046	0.112
-212.509	800.000	-0.069	-0.299
-211.494	76.335	0.136	-0.143
-210.479	58.072	0.153	0.148
-209.465	-128.493	-0.082	0.011
-208.450	691.388	-0.032	0.084
-207.436	60.969	-0.181	-0.178
-206.421	-181.407	0.255	-0.005
-205.406	-21.118	-0.101	-0.061
-204.392	647.930	-0.025	-0.064
-203.377	-127.700	-0.433	0.062
-202.363	800.000	0.065	-0.226
-201.348	-96.274	-0.112	-0.029
-200.333	-182.010	0.264	-0.005
-199.319	-200.000	-0.015	-0.141
-198.304	31.485	0.103	-0.088
-197.290	-200.000	0.006	-0.250
-196.275	112.193	0.075	-0.090
-195.260	800.000	0.064	-0.214
-194.246	-200.000	-0.003	-0.471
-193.231	-60.353	-0.317	0.133
-192.217	-200.000	-0.045	-0.249
-191.202	-200.000	0.007	0.520
-190.187	-108.810	-0.167	0.035
-189.173	26.830	-0.239	0.198
-188.158	-63.978	0.301	-0.122
-187.144	333.450	0.105	-0.200
-186.129	519.436	-0.078	-0.181
-185.114	72.577	0.150	0.154
-184.100	-200.000	0.008	-0.146
-183.085	96.132	-0.125	0.141
-182.071	-200.000	-0.034	-0.211
-181.056	107.926	0.157	0.185
-180.042	234.005	0.192	0.312
-179.027	-33.788	-0.111	-0.060
-178.012	-49.597	0.131	0.061
-176.998	262.537	-0.156	0.267
-175.983	-24.108	0.074	0.044
-174.969	-29.560	0.096	-0.054
-173.954	653.744	0.034	0.086
-172.939	-200.000	0.048	0.309
-171.925	116.452	-0.045	-0.054
-170.910	68.211	0.114	-0.116
-169.896	-91.055	-0.292	-0.083
-168.881	188.415	-0.024	-0.035
-167.866	-145.183	-0.165	0.015
-166.852	-139.625	0.109	0.011
-165.837	3.949	-0.126	0.091
-164.823	45.484	-0.066	-0.060
-163.808	716.505	0.062	0.163
-162.793	-200.000	0.011	0.088
-161.779	-200.000	0.030	-0.242
-160.764	-200.000	-0.036	-0.215
-159.750	-125.931	0.351	-0.052
-158.735	-106.781	0.117	-0.026
-157.720	77.584	0.107	0.113
-156.706	-72.318	0.259	0.095
-155.691	-181.442	-0.064	-0.001
-154.677	130.204	0.200	0.253
-153.662	124.512	0.179	0.222
-152.647	-129.693	-0.083	0.011
-151.633	595.829	-0.047	-0.114
-150.618	30.129	0.116	-0.097
-149.604	-106.963	0.481	0.105
-148.589	69.083	-0.083	0.084
-147.574	54.687	0.114	0.108
-146.560	491.039	-0.161	-0.364
-145.545	-94.521	-0.309	0.083
-144.531	-81.141	0.231	0.075
-143.516	195.339	0.131	0.196
-142.502	687.481	0.113	-0.290
-141.487	-200.000	-0.073	-0.355
-140.472	15.100	-0.085	-0.066
-139.458	-50.371	-0.132	-0.061
-138.443	-26.257	0.451	-0.261
-137.429	-200.000	0.043	0.349
-136.414	31.024	-0.218	-0.184
-135.399	477.951	-0.091	-0.202
-134.385	459.876	0.144	-0.316
-133.370	-200.000	0.017	-0.201
-132.356	-152.779	-0.230	0.016
-131.341	800.000	-0.028	-0.110
-130.326	122.912	0.227	-0.281
-129.312	-200.000	-0.036	-0.170
-128.297	-60.238	-0.204	-0.086
-127.283	-200.000	-0.019	-0.158
-126.268	800.000	-0.071	0.199
-125.253	800.000	0.061	-0.255
-124.239	150.789	0.026	0.035
-123.224	-36.751	0.354	0.187
-122.210	195.316	0.277	-0.415
-121.195	-158.351	-0.304	-0.017
-120.180	81.331	0.024	-0.025
-119.166	-200.000	-0.013	-0.064
-118.151	322.084	-0.111	-0.208
-117.137	800.000	-0.081	-0.266
-116.122	218.424	-0.152	0.240
-115.107	-200.000	-0.034	0.214
-114.093	676.977	0.143	-0.366
-113.078	-46.684	-0.258	0.124
-112.064	-58.945	-0.179	0.076
-111.049	-110.386	0.335	0.069
-110.034	106.071	0.099	-0.115
-109.020	185.575	-0.167	-0.245
-108.005	-64.792	0.375	-0.150
-106.991	127.343	0.191	0.239
-105.976	-61.051	-0.261	-0.109
-104.962	309.601	-0.085	0.157
-103.947	26.768	-0.096	-0.079
-102.932	-6.895	-0.245	-0.164
-101.918	-200.000	-0.038	-0.350
-100.903	11.591	0.073	0.055
-99.889	-200.000	0.000	0.074
-98.874	-47.787	-0.320	0.152
-97.859	382.599	-0.074	-0.150
-96.845	800.000	-0.039	0.153
-95.830	-29.106	-0.074	-0.042
-94.816	346.460	0.099	0.192
-93.801	107.528	0.076	0.089
-92.786	51.910	0.066	-0.062
-91.772	-200.000	-0.013	-0.066
-90.757	-200.000	-0.091	0.607
-89.743	676.073	0.187	-0.478
-88.728	5.229	-0.115	0.084
-87.713	-200.000	0.028	0.163
-86.699	119.222	-0.164	0.199
-85.684	-200.000	0.003	0.191
-84.670	-65.951	-0.268	0.105
-83.655	136.662	0.110	-0.141
-82.640	-87.853	-0.175	-0.052
-81.626	-200.000	-0.008	0.035
-80.611	800.000	0.042	0.120
-79.597	114.790	0.177	-0.213
-78.582	-90.743	0.183	0.052
-77.567	710.712	0.079	0.204
-76.553	-63.531	-0.242	0.098
-75.538	62.545	0.219	-0.215
-74.524	-20.467	-0.195	0.118
-73.509	-200.000	-0.033	-0.287
-72.494	25.976	-0.180	0.147
-71.480	-35.518	0.160	0.085
-70.465	248.028	-0.185	0.307
-69.451	346.574	0.146	-0.282
-68.436	-81.430	0.109	0.035
-67.422	151.854	-0.065	-0.087
-66.407	23.761	-0.298	0.242
-65.392	800.000	0.019	-0.064
-64.378	-200.000	0.047	0.339
-63.363	-63.624	0.229	0.092
-62.349	777.140	-0.055	-0.148
-61.334	216.843	-0.860	-1.345
-60.319	-17.564	0.728	0.450
-59.305	414.292	-0.516	-1.079
-58.290	309.963	0.718	1.320
-57.276	800.000	0.641	1.920
-56.261	-200.000	118.718	643.276
-55.246	467.908	1561.201	3440.816
-54.232	169.861	2736.076	3842.955
-53.217	94.535	2331.208	2602.810
-52.203	32.529	2072.829	1760.016
-51.188	27.815	1987.868	1645.441
-50.173	26.439	1971.120	1619.203
-49.159	43.118	2033.368	1822.732
-48.144	42.266	2047.694	1827.735
-47.130	28.179	2005.583	1663.148
-46.115	26.066	1994.531	1634.793
-45.100	25.958	1992.008	1631.686
-44.086	25.891	1989.776	1629.185
-43.071	25.915	1986.517	1626.671
-42.057	25.840	1984.690	1624.431
-41.042	25.900	1983.031	1623.551
-40.027	25.919	1981.198	1622.157
-39.013	25.842	1979.523	1620.029
-37.998	25.876	1977.691	1618.772
-36.984	25.929	1975.790	1617.626
-35.969	25.968	1973.182	1615.775
-34.954	25.962	1971.831	1614.547
-33.940	26.027	1970.297	1613.814
-32.925	25.981	1969.012	1612.281
-31.911	26.080	1967.023	1611.475
-30.896	25.968	1965.529	1609.186
-29.881	26.044	1964.371	1608.854
-28.867	26.092	1962.431	1607.625
-27.852	26.107	1960.829	1606.390
-26.838	26.063	1959.131	1604.537
-25.823	26.053	1957.085	1602.712
-24.809	26.075	1955.269	1601.353
-23.794	25.956	1953.864	1599.084
-22.779	26.094	1951.808	1598.565
-21.765	26.015	1950.722	1596.909
-20.750	26.083	1948.677	1595.778
-19.736	26.026	1947.623	1594.341
-18.721	25.990	1945.944	1592.592
-17.706	25.969	1944.310	1591.001
-16.692	26.014	1941.978	1589.425
-15.677	26.030	1940.804	1588.545
-14.663	25.993	1939.325	1586.945
-13.648	25.999	1938.037	1585.879
-12.633	25.974	1937.076	1584.810
-11.619	26.014	1935.295	1583.642
-10.604	25.980	1933.951	1582.179
-9.590	25.969	1932.729	1581.027
-8.575	26.036	1931.101	1580.212
-7.560	25.988	1930.006	1578.836
-6.546	26.039	1928.340	1577.860
-5.531	26.005	1927.635	1576.919
-4.517	25.991	1926.610	1575.902
-3.502	26.022	1924.829	1574.646
-2.487	25.980	1923.899	1573.460
-1.473	26.022	1922.770	1572.843
-0.458	26.078	1918.343	1569.641
0.556	28.006	1898.600	1541.574
1.571	23.728	1879.903	1490.447
2.586	19.816	1902.614	1475.022
3.600	18.845	1938.243	1494.073
4.615	18.511	1931.239	1485.652
5.629	14.727	1831.048	1377.303
6.644	7.769	1718.713	1238.663
7.659	4.433	1685.143	1188.853
8.673	4.110	1682.578	1184.468
9.688	4.115	1681.870	1183.905
10.702	4.216	1680.346	1183.495
11.717	4.109	1677.241	1180.391
12.731	4.669	1675.554	1183.361
13.746	9.562	1687.291	1228.956
14.761	17.529	1704.782	1302.775
15.775	21.973	1713.242	1343.210
16.790	22.639	1712.219	1347.383
17.804	21.755	1709.975	1338.742
18.819	20.894	1706.486	1329.327
19.834	20.252	1704.487	1322.761
20.848	20.171	1703.105	1320.953
21.863	20.080	1702.237	1319.474
22.877	19.946	1701.389	1317.680
23.892	19.816	1699.545	1315.143
24.907	19.749	1698.272	1313.531
25.921	19.719	1697.065	1312.254
26.936	19.632	1696.706	1311.202
27.950	19.629	1695.878	1310.423
28.965	19.679	1694.899	1309.934
29.980	19.743	1694.132	1309.710
30.994	19.927	1692.995	1310.106
32.009	20.090	1692.073	1310.506
33.023	20.089	1691.739	1310.124
34.038	20.125	1690.914	1309.641
35.053	20.062	1689.330	1307.823
36.067	19.876	1688.356	1305.552
37.082	19.882	1686.875	1304.338
38.096	19.784	1686.625	1303.285
39.111	19.889	1685.561	1303.140
40.126	19.961	1684.895	1303.052
41.140	19.936	1683.597	1301.748
42.155	19.642	1681.846	1298.067
43.169	19.530	1679.646	1295.415
44.184	19.444	1679.154	1294.274
45.199	19.352	1677.591	1292.266
46.213	19.269	1677.075	1291.136
47.228	19.445	1675.788	1291.347
48.242	19.705	1674.996	1292.564
49.257	19.790	1674.157	1292.441
50.271	19.767	1672.444	1290.834
51.286	19.758	1671.328	1289.790
52.301	19.808	1670.496	1289.403
53.315	19.777	1668.572	1287.575
54.330	19.779	1667.195	1286.414
55.344	19.488	1665.349	1282.713
56.359	19.445	1664.016	1281.257
57.374	19.409	1663.311	1280.331
58.388	19.370	1662.053	1278.962
59.403	19.388	1660.443	1277.738
60.417	19.341	1658.640	1275.891
61.432	19.287	1657.826	1274.757
62.447	19.222	1656.995	1273.526
63.461	19.153	1655.635	1271.857
64.476	19.122	1654.702	1270.797
65.490	18.966	1653.355	1268.502
66.505	19.041	1652.040	1267.931
67.520	19.147	1650.770	1267.626
68.534	19.087	1650.010	1266.486
69.549	19.087	1649.079	1265.663
70.563	19.169	1648.178	1265.459
71.578	19.003	1646.948	1263.182
72.593	18.980	1645.400	1261.717
73.607	18.893	1644.118	1259.987
74.622	18.775	1643.433	1258.485
75.636	18.824	1642.600	1258.090
76.651	18.877	1641.785	1257.744
77.666	18.945	1640.801	1257.374
78.680	18.997	1640.208	1257.194
79.695	19.101	1639.369	1257.199
80.709	19.133	1638.775	1256.862
81.724	19.167	1638.293	1256.630
82.739	19.331	1637.433	1257.057
83.753	19.284	1636.792	1256.110
84.768	19.436	1636.084	1256.565
85.782	19.760	1635.381	1258.271
86.797	19.913	1635.032	1259.004
87.812	20.102	1633.783	1259.302
88.826	19.925	1632.989	1257.297
89.841	19.715	1631.527	1254.530
90.855	19.831	1630.280	1254.307
91.870	19.907	1629.902	1254.452
92.884	20.039	1628.548	1254.254
93.899	20.012	1627.796	1253.369
94.914	20.010	1626.733	1252.426
95.928	20.092	1625.539	1251.989
96.943	20.097	1624.201	1250.882
97.957	20.027	1622.692	1249.105
98.972	19.937	1621.211	1247.208
99.987	19.877	1619.669	1245.482
101.001	19.898	1618.153	1244.351
102.016	19.998	1616.759	1243.887
103.030	19.898	1615.983	1242.465
104.045	19.899	1614.835	1241.479
105.060	19.892	1612.967	1239.885
106.074	19.851	1611.666	1238.481
107.089	19.540	1609.969	1234.840
108.103	19.320	1607.333	1231.143
109.118	19.158	1605.958	1228.821
110.133	19.084	1604.156	1226.809
111.147	19.038	1603.021	1225.504
112.162	19.084	1602.293	1225.165
113.176	19.104	1600.749	1224.019
114.191	19.182	1599.364	1223.407
115.206	19.251	1598.641	1223.233
116.220	19.261	1597.506	1222.327
117.235	19.329	1595.517	1221.182
118.249	19.243	1594.716	1219.847
119.264	19.207	1593.004	1218.181
120.279	19.141	1591.305	1216.302
121.293	19.138	1589.759	1214.993
122.308	19.110	1587.917	1213.285
123.322	18.965	1586.661	1211.196
124.337	18.902	1585.316	1209.617
125.352	18.877	1583.996	1208.326
126.366	18.708	1583.057	1206.319
127.381	18.681	1582.275	1205.425
128.395	18.856	1580.722	1205.361
129.410	18.763	1579.187	1203.432
130.424	18.760	1578.481	1202.769
131.439	18.892	1576.713	1202.236
132.454	19.027	1575.617	1202.237
133.468	19.158	1574.395	1202.116
134.483	19.192	1573.031	1201.206
135.497	19.182	1571.979	1200.224
136.512	19.207	1570.804	1199.394
137.527	19.254	1569.278	1198.454
138.541	19.216	1568.367	1197.384
139.556	19.291	1566.865	1196.656
140.570	19.467	1565.399	1196.645
141.585	19.546	1564.174	1196.150
142.600	19.535	1563.743	1195.645
143.614	19.773	1562.182	1195.988
144.629	19.888	1560.957	1195.740
145.643	19.985	1559.940	1195.522
146.658	19.961	1558.947	1194.492
147.673	19.855	1557.163	1192.292
148.687	19.660	1555.840	1189.830
149.702	19.519	1554.223	1187.519
150.716	19.431	1552.088	1185.176
151.731	19.375	1550.446	1183.432
152.746	19.301	1549.592	1182.170
153.760	19.384	1547.865	1181.315
154.775	19.477	1546.815	1181.049
155.789	19.547	1546.080	1180.862
156.804	19.577	1545.131	1180.235
157.819	19.619	1544.194	1179.699
158.833	19.684	1542.760	1178.944
159.848	19.751	1541.995	1178.714
160.862	19.906	1540.592	1178.593
161.877	19.982	1539.586	1178.232
162.892	19.776	1538.216	1175.678
163.906	19.517	1536.184	1172.267
164.921	19.450	1534.689	1170.565
165.935	19.278	1533.852	1168.659
166.950	19.289	1533.547	1168.395
167.964	19.456	1532.154	1168.363
168.979	19.536	1530.919	1167.862
169.994	19.426	1530.275	1166.521
171.008	19.435	1528.785	1165.346
172.023	19.475	1527.922	1164.855
173.037	19.548	1526.771	1164.365
174.052	19.679	1525.842	1164.438
175.067	19.863	1524.938	1164.878
176.081	19.668	1523.432	1162.319
177.096	19.454	1521.141	1159.030
178.110	19.216	1520.916	1157.155
179.125	19.388	1519.174	1156.883
180.140	19.347	1518.551	1156.027
181.154	19.511	1517.480	1156.210
182.169	19.615	1516.509	1156.065
183.183	19.776	1515.400	1156.191
184.198	19.891	1514.545	1156.204
185.213	19.860	1513.760	1155.299
186.227	19.923	1512.371	1154.555
187.242	19.884	1511.677	1153.665
188.256	19.979	1510.432	1153.247
189.271	20.029	1509.715	1152.926
190.286	20.189	1508.694	1153.112
191.300	20.000	1507.918	1151.157
192.315	19.701	1506.272	1147.818
193.329	19.384	1504.188	1144.021
194.344	19.286	1503.605	1142.829
195.359	19.503	1502.396	1143.249
196.373	19.478	1501.546	1142.330
197.388	19.585	1500.699	1142.296
198.402	19.734	1499.261	1142.082
199.417	19.867	1499.051	1142.704
200.432	20.169	1498.134	1143.897
201.446	20.289	1497.018	1143.735
202.461	20.389	1496.315	1143.751
203.475	20.398	1495.954	1143.438
204.490	20.540	1494.373	1143.060
205.504	20.314	1493.529	1140.828
206.519	20.024	1491.829	1137.521
207.534	19.963	1490.602	1136.085
208.548	19.863	1489.782	1134.706
209.563	19.856	1488.684	1133.721
210.577	19.944	1487.475	1133.279
211.592	19.953	1486.434	1132.444
212.607	19.876	1486.643	1132.002
213.621	20.145	1485.588	1132.856
214.636	20.185	1484.873	1132.472
215.650	20.240	1483.693	1131.830
216.665	20.188	1482.510	1130.485
217.680	20.203	1481.892	1130.013
218.694	20.314	1481.584	1130.399
219.709	20.511	1480.457	1130.725
220.723	20.450	1479.383	1129.406
221.738	20.358	1478.371	1127.937
222.753	20.345	1477.755	1127.281
223.767	20.351	1476.453	1126.229
224.782	20.224	1475.398	1124.498
225.796	20.372	1474.760	1124.871
226.811	20.606	1474.389	1126.005
227.826	20.601	1473.388	1125.108
228.840	20.456	1472.534	1123.420
229.855	20.325	1470.972	1121.282
230.869	20.208	1470.333	1119.944
231.884	20.233	1468.852	1118.877
232.899	20.197	1467.589	1117.581
233.913	20.130	1466.405	1116.150
234.928	19.962	1465.359	1114.172
235.942	19.853	1464.086	1112.408
236.957	19.982	1462.525	1111.950
237.972	19.925	1461.445	1110.664
238.986	19.908	1460.316	1109.599
240.001	19.851	1459.900	1108.822
241.015	19.934	1458.767	1108.397
242.030	19.903	1457.544	1107.172
243.045	19.972	1457.175	1107.228
244.059	20.206	1455.906	1107.663
245.074	20.181	1455.203	1106.872
246.088	20.277	1454.610	1106.933
247.103	20.324	1453.952	1106.638
248.117	20.413	1453.366	1106.656
249.132	20.593	1452.531	1107.071
250.147	20.686	1452.041	1107.191
251.161	20.915	1451.813	1108.377
252.176	21.116	1451.072	1108.987
253.190	21.245	1451.046	1109.695
254.205	21.139	1450.151	1108.238
255.220	21.362	1448.920	1108.610
256.234	21.322	1448.555	1107.978
257.249	21.359	1447.561	1107.358
258.263	21.258	1447.109	1106.272
259.278	21.396	1445.554	1105.860
260.293	21.262	1444.838	1104.367
261.307	21.218	1443.634	1103.074
262.322	21.403	1442.972	1103.634
263.336	21.417	1442.589	1103.336
264.351	21.412	1441.484	1102.362
265.366	21.474	1440.591	1101.966
266.380	21.462	1439.706	1101.122
267.395	21.482	1438.556	1100.268
268.409	21.419	1437.517	1098.983
269.424	21.351	1436.121	1097.388
270.439	21.226	1435.084	1095.712
271.453	21.158	1434.640	1094.854
272.468	21.197	1433.497	1094.130
273.482	21.114	1432.431	1092.699
274.497	21.014	1431.171	1091.017
275.512	21.008	1430.856	1090.640
276.526	21.069	1429.513	1089.901
277.541	20.989	1428.835	1088.787
278.555	21.005	1427.825	1088.024
279.570	21.023	1426.705	1087.183
280.585	21.239	1426.427	1088.220
281.599	21.416	1425.768	1088.723
282.614	21.431	1425.264	1088.335
283.628	21.380	1423.639	1086.683
284.643	21.238	1422.432	1084.785
285.657	21.074	1421.997	1083.339
286.672	21.102	1420.933	1082.606
287.687	21.089	1419.742	1081.524
288.701	21.098	1418.989	1080.909
289.716	21.153	1417.983	1080.386
290.730	21.189	1416.620	1079.476
291.745	21.260	1415.871	1079.250
292.760	21.215	1415.255	1078.403
293.774	21.228	1414.264	1077.631
294.789	21.316	1413.307	1077.350
295.803	21.348	1413.073	1077.275
296.818	21.477	1412.276	1077.364
297.833	21.376	1410.597	1075.367
298.847	21.309	1408.897	1073.565
299.862	21.119	1408.720	1072.168
300.876	21.191	1408.057	1072.013
301.891	21.186	1406.981	1071.065
302.906	21.253	1406.193	1070.783
303.920	21.405	1405.524	1071.112
304.935	21.538	1404.994	1071.424
305.949	21.568	1404.868	1071.418
306.964	21.780	1404.120	1072.048
307.979	21.973	1402.588	1071.964
308.993	21.765	1401.395	1069.691
310.008	21.653	1400.323	1068.092
311.022	21.643	1399.890	1067.610
312.037	21.696	1398.537	1066.803
313.052	21.786	1397.771	1066.673
314.066	21.637	1396.945	1065.043
315.081	21.488	1395.501	1062.939
316.095	21.334	1393.902	1060.697
317.110	21.190	1392.890	1058.957
318.125	21.196	1392.091	1058.296
319.139	21.152	1391.379	1057.390
320.154	21.255	1389.929	1056.819
321.168	21.286	1388.569	1055.882
322.183	21.231	1387.947	1054.982
323.197	21.238	1387.216	1054.372
324.212	21.280	1386.577	1054.046
325.227	21.309	1385.454	1053.278
326.241	21.444	1384.369	1053.171
327.256	21.437	1383.676	1052.507
328.270	21.327	1383.394	1051.537
329.285	21.365	1382.113	1050.703
330.300	21.345	1381.238	1049.823
331.314	21.398	1379.758	1048.925
332.329	21.299	1379.152	1047.776
333.343	21.219	1378.751	1046.898
334.358	21.378	1377.705	1046.962
335.373	21.657	1376.564	1047.672
336.387	21.593	1376.440	1047.105
337.402	21.667	1375.990	1047.113
338.416	21.704	1374.956	1046.455
339.431	21.769	1374.441	1046.358
340.446	21.801	1374.088	1046.185
341.460	21.905	1372.799	1045.734
342.475	21.955	1372.415	1045.646
343.489	22.145	1371.339	1045.863
344.504	22.309	1370.181	1045.862
345.519	22.373	1369.469	1045.605
346.533	22.368	1368.482	1044.732
347.548	22.386	1367.757	1044.191
348.562	22.427	1367.016	1043.778
349.577	22.426	1366.280	1043.118
350.592	22.250	1365.471	1041.363
351.606	21.986	1364.282	1038.805
352.621	21.779	1363.161	1036.631
353.635	21.709	1361.526	1034.885
354.650	21.735	1360.342	1034.049
355.665	21.655	1359.470	1032.822
356.679	21.788	1358.360	1032.668
357.694	21.991	1357.141	1032.847
358.708	21.890	1356.879	1031.962
359.723	21.928	1355.927	1031.370
360.738	22.000	1354.578	1030.677
361.752	22.036	1353.771	1030.181
362.767	22.019	1352.810	1029.256
363.781	22.019	1351.677	1028.304
364.796	22.132	1350.741	1028.161
365.810	22.186	1350.005	1027.828
366.825	22.372	1349.894	1028.742
367.840	22.459	1349.594	1028.927
368.854	22.638	1348.585	1029.112
369.869	22.690	1348.445	1029.217
370.883	22.779	1347.537	1028.951
371.898	22.660	1346.634	1027.479
372.913	22.422	1346.019	1025.531
373.927	22.307	1344.664	1023.740
374.942	22.427	1344.300	1024.073
375.956	22.539	1343.585	1024.086
376.971	22.700	1342.586	1024.167
377.986	22.449	1341.513	1021.803
379.000	22.490	1340.634	1021.284
380.015	22.711	1340.128	1022.085
381.029	22.679	1340.250	1021.903
382.044	22.925	1338.940	1022.242
383.059	22.893	1338.225	1021.416
384.073	22.851	1337.066	1020.200
385.088	22.667	1336.917	1018.933
386.102	22.754	1336.144	1018.754
387.117	22.922	1335.181	1018.903
388.132	22.746	1334.540	1017.305
389.146	22.573	1333.212	1015.209
390.161	22.346	1332.836	1013.527
391.175	22.402	1331.557	1012.783
392.190	22.320	1331.093	1011.869
393.205	22.488	1330.202	1012.069
394.219	22.640	1329.041	1011.966
395.234	22.703	1328.324	1011.691
396.248	22.632	1326.856	1010.081
397.263	22.514	1325.144	1008.010
398.278	22.543	1323.909	1007.149
399.292	22.342	1322.643	1004.950
400.307	22.338	1321.328	1003.837
401.321	22.229	1320.182	1002.260
402.336	22.190	1319.310	1001.288
403.350	22.201	1318.419	1000.581
404.365	22.264	1317.279	999.987
405.380	22.290	1316.545	999.490
406.394	22.366	1316.192	999.565
407.409	22.399	1315.509	999.144
408.423	22.593	1315.048	999.805
409.438	22.700	1314.448	999.870
410.453	22.871	1313.476	1000.012
411.467	22.961	1312.921	1000.009
412.482	22.978	1312.680	999.835
413.496	23.042	1312.108	999.668
414.511	23.157	1311.395	999.687
415.526	23.212	1310.865	999.507
416.540	23.309	1309.741	999.108
417.555	23.406	1309.354	999.273
418.569	23.363	1308.698	998.438
419.584	23.357	1308.165	997.909
420.599	23.172	1307.203	996.050
421.613	148.052	1436.079	1797.630
422.628	143.529	1454.775	1797.733
