DTS Sentinel unit serial number:	SN413079Multiplexer serial number:	ORYXHardware model number:	OX4-SRSoftware version number:	ORYX F/W v4.00 Oryx Data Collector v3.7.2.0data status	okinstallation	princeton_trtdifferential loss correction	single-endedforward channel	channel 4reverse channel	N/Adate	2019/09/12time	19:18:19forward acquisition time	15.00reverse acquisition time	0.00gamma	496.2192k internal	0.2309k external	0.2309temperature offset calibration	1.0141default loss term (dB/km)	0.3790temperature slope calibration	1.0000multiplexer offset coefficient	1.0000multiplexer slope coefficient	1.0000fibre end	0.00T internal ref (°C)	32.50T ext. ref 1 (°C)	3.22T ext. ref 2 (°C)	27.06length (m)	temperature (°C)	Stokes	anti-Stokes-747.200	149.032	0.450	-0.618
-746.185	138.805	-0.563	0.752
-745.171	-144.617	-0.365	-0.034
-744.156	-200.000	0.081	0.600
-743.142	-38.535	-0.921	-0.494
-742.127	131.877	-0.466	0.609
-741.112	439.956	0.214	-0.476
-740.098	800.000	0.142	-0.434
-739.083	800.000	-0.241	-0.929
-738.069	221.640	-0.132	-0.215
-737.054	36.441	0.180	0.161
-736.039	-19.024	0.016	-0.010
-735.025	170.837	-0.220	0.321
-734.010	-200.000	-0.003	0.989
-732.996	-109.605	-0.730	-0.156
-731.981	641.836	-0.077	-0.200
-730.966	7.988	-0.461	-0.351
-729.952	-96.048	-0.710	-0.192
-728.937	-200.000	0.193	-0.935
-727.923	27.770	-0.345	-0.295
-726.908	800.000	0.210	-0.800
-725.894	-3.878	-0.150	0.106
-724.879	173.891	0.393	0.576
-723.864	-104.826	-0.552	-0.129
-722.850	-45.191	-0.776	-0.391
-721.835	-135.421	0.815	-0.099
-720.821	800.000	-0.062	-0.274
-719.806	-61.851	-1.082	0.460
-718.791	-200.000	0.120	0.669
-717.777	249.032	-0.354	0.608
-716.762	-160.737	0.221	0.012
-715.748	800.000	-0.183	-0.578
-714.733	0.162	-0.710	0.514
-713.718	118.759	-0.739	0.926
-712.704	-14.657	0.382	-0.249
-711.689	249.030	0.205	-0.352
-710.675	209.528	-0.441	0.702
-709.660	235.458	0.285	0.477
-708.645	480.651	-0.248	-0.571
-707.631	-56.520	-0.533	0.240
-706.616	-200.000	-0.168	0.973
-705.602	-200.000	-0.184	-0.897
-704.587	-30.556	0.197	-0.113
-703.572	-93.721	-0.675	-0.189
-702.558	800.000	0.211	0.669
-701.543	40.009	0.347	0.317
-700.529	-4.657	-0.434	-0.304
-699.514	-162.427	-0.833	0.042
-698.499	25.097	-0.153	0.129
-697.485	-95.827	-0.572	0.155
-696.470	720.438	0.155	0.419
-695.456	-83.707	-0.952	-0.308
-694.441	-14.847	0.485	-0.316
-693.426	771.477	0.104	0.286
-692.412	800.000	-0.189	-0.532
-691.397	-46.806	-0.861	0.427
-690.383	-122.164	-0.492	-0.082
-689.368	-127.183	-0.508	-0.075
-688.354	-200.000	0.054	-0.428
-687.339	38.163	-0.419	0.378
-686.324	-38.598	0.653	0.350
-685.310	666.822	0.195	-0.512
-684.295	-131.630	0.691	-0.092
-683.281	328.955	-0.301	-0.585
-682.266	-200.000	0.174	-1.421
-681.251	36.492	-0.109	-0.098
-680.237	-200.000	0.093	0.536
-679.222	-41.907	0.254	0.132
-678.208	18.017	0.262	0.212
-677.193	800.000	0.124	-0.518
-676.178	-200.000	0.022	-0.166
-675.164	-200.000	0.003	-0.838
-674.149	116.264	0.112	0.139
-673.135	800.000	-0.245	0.759
-672.120	-200.000	-0.040	-0.601
-671.105	153.251	0.279	0.386
-670.091	-124.372	-0.867	0.137
-669.076	800.000	0.195	-0.620
-668.062	-32.946	0.146	0.082
-667.047	182.254	-0.445	0.664
-666.032	82.290	-0.306	0.337
-665.018	-200.000	0.112	0.667
-664.003	157.045	-0.624	0.873
-662.989	-90.849	0.296	0.086
-661.974	-200.000	-0.004	-0.210
-660.959	-107.854	0.680	0.150
-659.945	1.704	-0.392	-0.286
-658.930	-85.596	-0.269	-0.085
-657.916	-29.914	-0.485	0.280
-656.901	-20.940	-0.564	0.350
-655.886	-167.559	0.569	-0.023
-654.872	117.367	0.633	0.788
-653.857	82.730	-0.863	0.949
-652.843	-200.000	-0.007	-0.145
-651.828	-200.000	-0.081	-0.619
-650.814	155.150	-0.110	-0.153
-649.799	-123.096	0.574	0.093
-648.784	71.304	-0.390	-0.409
-647.770	65.852	0.186	-0.191
-646.755	276.383	0.186	0.335
-645.741	327.162	-0.487	0.945
-644.726	-106.472	0.732	0.165
-643.711	-200.000	-0.049	0.512
-642.697	190.918	0.143	-0.217
-641.682	119.321	-0.304	0.381
-640.668	-89.016	0.277	0.083
-639.653	593.618	-0.393	-0.984
-638.638	-188.547	0.948	0.012
-637.624	82.149	-0.110	-0.120
-636.609	134.161	0.327	0.428
-635.595	-128.953	-0.431	-0.061
-634.580	-156.417	-0.793	0.050
-633.565	-55.708	1.077	-0.487
-632.551	-200.000	0.056	-0.757
-631.536	-8.294	-0.178	-0.121
-630.522	-51.227	0.192	-0.091
-629.507	115.133	0.505	0.624
-628.492	-47.253	-0.245	0.121
-627.478	126.478	-0.357	0.457
-626.463	301.718	-0.133	0.248
-625.449	-87.965	0.742	0.226
-624.434	-114.053	-0.975	-0.191
-623.419	-150.467	0.988	0.077
-622.405	47.868	-0.349	-0.330
-621.390	147.321	0.373	0.508
-620.376	-15.646	-0.162	0.105
-619.361	-132.746	-0.821	-0.106
-618.346	-68.639	-0.187	0.073
-617.332	124.623	-0.279	-0.356
-616.317	-200.000	0.053	0.302
-615.303	289.023	0.176	0.323
-614.288	-85.745	0.176	0.055
-613.273	-200.000	-0.018	0.512
-612.259	24.045	0.428	0.357
-611.244	-200.000	-0.034	0.235
-610.230	-200.000	-0.014	-0.446
-609.215	409.545	0.128	0.273
-608.201	-200.000	-0.066	0.444
-607.186	23.413	-0.529	-0.439
-606.171	-92.469	-0.719	-0.204
-605.157	-113.631	0.898	-0.177
-604.142	86.800	-0.398	0.444
-603.128	-200.000	-0.054	-0.357
-602.113	-200.000	-0.041	-0.224
-601.098	518.313	-0.086	0.204
-600.084	-80.001	-0.307	0.104
-599.069	-79.566	0.646	-0.220
-598.055	800.000	-0.162	-0.700
-597.040	-45.965	-0.100	-0.050
-596.025	-147.325	-0.697	-0.060
-595.011	44.317	-0.372	-0.345
-593.996	-200.000	-0.154	-0.944
-592.982	223.391	-0.405	-0.659
-591.967	-37.099	-0.740	0.400
-590.952	-200.000	0.168	0.970
-589.938	-200.000	0.042	0.687
-588.923	-9.385	-0.187	0.126
-587.909	800.000	-0.129	-0.461
-586.894	-200.000	-0.002	-0.506
-585.879	799.639	-0.142	-0.397
-584.865	5.053	-0.772	-0.574
-583.850	-130.883	0.213	-0.029
-582.836	-133.235	-1.011	-0.129
-581.821	800.000	0.044	-0.137
-580.806	-62.196	-0.678	0.285
-579.792	102.009	-0.198	-0.234
-578.777	-97.053	0.810	0.214
-577.763	-133.848	0.701	0.088
-576.748	315.013	0.440	-0.837
-575.733	20.438	-0.740	0.604
-574.719	-200.000	-0.231	1.038
-573.704	-54.274	-0.349	0.160
-572.690	-61.061	0.394	-0.168
-571.675	800.000	0.125	-0.465
-570.661	-200.000	0.067	0.436
-569.646	-37.922	-0.645	-0.346
-568.631	800.000	0.033	-0.137
-567.617	-127.069	-0.705	-0.104
-566.602	-71.062	-0.549	0.208
-565.588	188.375	0.241	0.364
-564.573	-200.000	0.004	-0.445
-563.558	695.474	-0.247	-0.656
-562.544	-143.082	1.088	-0.106
-561.529	800.000	0.096	-0.291
-560.515	237.653	-0.113	0.189
-559.500	-11.346	0.587	0.390
-558.485	-101.691	-0.697	0.171
-557.471	506.561	0.362	0.846
-556.456	-81.103	0.579	0.193
-555.442	575.649	-0.216	0.533
-554.427	-52.749	-0.246	0.115
-553.412	-200.000	-0.005	-0.116
-552.398	-0.709	0.348	-0.249
-551.383	-200.000	-0.029	0.174
-550.369	800.000	-0.098	0.295
-549.354	800.000	-0.177	-0.670
-548.339	-200.000	0.010	-0.861
-547.325	-104.902	-0.194	0.045
-546.310	-129.968	0.718	-0.099
-545.296	-9.873	0.605	-0.406
-544.281	151.821	0.557	-0.766
-543.266	133.151	-0.284	-0.370
-542.252	259.444	-0.053	0.092
-541.237	4.348	0.482	-0.356
-540.223	-200.000	-0.007	-0.422
-539.208	-200.000	0.039	-0.307
-538.193	-101.222	-0.028	0.007
-537.179	-130.951	-0.446	-0.060
-536.164	-200.000	-0.016	-0.366
-535.150	53.593	-0.274	-0.265
-534.135	-182.290	-0.467	0.009
-533.121	85.824	-0.273	-0.302
-532.106	680.348	-0.277	-0.726
-531.091	-28.064	0.762	-0.444
-530.077	-200.000	0.011	0.076
-529.062	53.397	0.611	0.591
-528.048	800.000	0.108	-0.414
-527.033	26.771	0.283	-0.239
-526.018	-200.000	0.006	0.398
-525.004	-200.000	0.152	0.836
-523.989	349.596	0.204	-0.405
-522.975	96.113	-0.506	-0.583
-521.960	-200.000	-0.193	-0.000
-520.945	110.628	-0.401	-0.485
-519.931	-200.000	-1.016	0.000
-518.916	127.952	0.146	0.187
-517.902	92.443	0.578	0.656
-516.887	8.696	-0.392	0.297
-515.872	-73.675	-0.227	-0.083
-514.858	2.096	-0.489	0.356
-513.843	-51.003	-0.239	-0.113
-512.829	-200.000	0.129	1.253
-511.814	-79.018	0.881	0.302
-510.799	20.898	-0.169	-0.138
-509.785	151.948	0.588	0.807
-508.770	-60.128	0.608	0.261
-507.756	27.208	-0.446	-0.377
-506.741	-100.547	0.307	-0.077
-505.726	165.502	0.310	-0.442
-504.712	288.557	0.241	-0.439
-503.697	21.943	0.666	-0.547
-502.683	-41.837	0.631	-0.325
-501.668	27.707	-0.624	-0.529
-500.653	-200.000	-0.033	0.234
-499.639	641.927	-0.081	0.208
-498.624	-200.000	-0.037	0.922
-497.610	-111.172	0.495	0.102
-496.595	800.000	-0.160	0.513
-495.581	605.478	-0.368	0.923
-494.566	-33.354	-0.640	0.356
-493.551	-200.000	0.009	0.074
-492.537	-11.106	0.486	0.322
-491.522	-13.456	-0.382	-0.249
-490.508	41.202	-0.330	0.300
-489.493	-42.124	0.424	0.218
-488.478	-200.000	0.016	-0.326
-487.464	15.534	0.089	0.070
-486.449	-200.000	0.038	-0.386
-485.435	-56.766	0.521	-0.232
-484.420	-102.815	0.432	0.103
-483.405	143.861	0.321	0.431
-482.391	674.339	-0.080	0.208
-481.376	-172.972	0.166	-0.005
-480.362	13.661	-0.325	-0.254
-479.347	14.140	-0.727	-0.569
-478.332	43.451	0.477	-0.439
-477.318	192.471	-0.261	0.396
-476.303	-200.000	-0.139	-0.821
-475.289	-200.000	0.017	-0.647
-474.274	-126.522	0.505	-0.075
-473.259	800.000	-0.149	-0.528
-472.245	69.025	-0.209	-0.216
-471.230	-200.000	0.062	0.323
-470.216	346.034	-0.306	0.605
-469.201	-200.000	0.048	-0.633
-468.186	-200.000	-0.071	0.662
-467.172	-110.889	0.268	-0.055
-466.157	-110.227	0.450	0.094
-465.143	-158.566	0.958	-0.056
-464.128	-200.000	-0.045	0.918
-463.113	-26.628	0.808	0.475
-462.099	-1.299	0.332	0.236
-461.084	185.769	0.351	0.524
-460.070	113.891	0.254	-0.310
-459.055	800.000	-0.081	0.313
-458.040	-137.549	0.290	-0.033
-457.026	-200.000	-0.223	-1.083
-456.011	-200.000	-0.001	0.129
-454.997	353.164	0.335	-0.668
-453.982	-120.092	-0.186	0.032
-452.968	-85.129	-0.252	0.079
-451.953	800.000	-0.203	-0.569
-450.938	-200.000	-0.028	-0.401
-449.924	-63.199	-0.212	-0.088
-448.909	-191.335	-1.343	-0.014
-447.895	-200.000	0.053	0.298
-446.880	-56.588	0.422	-0.188
-445.865	439.349	-0.196	-0.431
-444.851	-139.753	0.186	-0.020
-443.836	141.730	0.043	0.058
-442.822	88.040	-0.502	-0.559
-441.807	800.000	0.033	0.093
-440.792	-200.000	0.042	-0.919
-439.778	-167.059	-0.702	-0.029
-438.763	-155.654	-0.288	0.019
-437.749	800.000	-0.130	-0.447
-436.734	-84.920	-0.403	0.127
-435.719	25.079	-0.809	-0.674
-434.705	227.522	-0.544	0.888
-433.690	-138.363	-0.335	0.037
-432.676	-101.820	0.550	0.134
-431.661	-137.068	0.663	0.076
-430.646	-14.984	-0.613	0.394
-429.632	-106.198	0.634	0.143
-428.617	-143.523	-0.734	-0.070
-427.603	-3.736	-0.454	-0.316
-426.588	27.988	0.435	-0.368
-425.573	-31.704	0.661	0.372
-424.559	25.804	0.330	0.276
-423.544	19.051	-0.606	0.487
-422.530	-3.559	-0.544	0.380
-421.515	312.453	0.408	-0.769
-420.500	-30.832	0.693	-0.393
-419.486	154.060	0.247	-0.339
-418.471	104.680	-0.143	0.169
-417.457	173.328	-0.113	-0.164
-416.442	110.815	0.414	-0.500
-415.428	-142.856	0.411	-0.040
-414.413	31.560	0.425	-0.367
-413.398	-100.622	0.818	-0.203
-412.384	186.272	-0.288	0.431
-411.369	-22.496	0.446	0.271
-410.355	205.272	-0.251	-0.391
-409.340	-2.274	0.253	0.178
-408.325	-18.934	-0.124	0.078
-407.311	-67.310	0.304	0.120
-406.296	800.000	-0.091	0.277
-405.282	-51.499	0.627	0.294
-404.267	-113.602	0.066	-0.013
-403.252	-1.027	-0.650	-0.461
-402.238	-112.745	-1.168	0.233
-401.223	-200.000	-0.010	-0.362
-400.209	-200.000	0.034	-0.475
-399.194	-34.549	0.830	-0.456
-398.179	-86.096	-0.491	-0.152
-397.165	800.000	-0.088	0.264
-396.150	9.655	-0.436	-0.331
-395.136	-43.682	0.209	-0.105
-394.121	-132.403	-0.063	0.008
-393.106	-160.647	0.357	0.019
-392.092	192.322	-0.107	0.162
-391.077	-46.237	0.491	0.242
-390.063	-200.000	0.024	0.207
-389.048	800.000	-0.111	-0.426
-388.033	-100.368	-0.360	0.089
-387.019	49.162	-0.093	-0.088
-386.004	-51.451	-0.267	-0.125
-384.990	183.530	-0.309	0.457
-383.975	-82.028	-0.237	-0.078
-382.960	575.497	-0.136	0.332
-381.946	-43.427	0.591	0.299
-380.931	-115.172	0.575	-0.109
-379.917	-102.127	0.428	0.103
-378.902	-103.628	-0.800	-0.188
-377.888	462.549	0.137	0.306
-376.873	268.101	-0.301	-0.528
-375.858	-200.000	0.030	1.096
-374.844	414.591	0.193	0.412
-373.829	-139.912	0.059	-0.006
-372.815	15.597	0.127	0.100
-371.800	441.053	-0.149	-0.327
-370.785	117.500	-0.383	-0.472
-369.771	648.591	-0.072	0.183
-368.756	307.281	-0.110	0.206
-367.742	-200.000	-0.005	0.577
-366.727	-28.912	0.297	0.171
-365.712	-84.045	-0.848	-0.270
-364.698	800.000	-0.160	-0.590
-363.683	-27.803	-0.864	0.502
-362.669	87.476	-0.161	0.179
-361.654	232.034	-0.457	-0.751
-360.639	-181.993	-0.259	-0.005
-359.625	360.686	0.390	0.782
-358.610	289.893	-0.369	-0.671
-357.596	-75.419	-0.512	0.183
-356.581	800.000	-0.197	-0.853
-355.566	-87.226	0.274	0.083
-354.552	-74.215	0.807	0.292
-353.537	293.275	-0.225	-0.410
-352.523	-154.742	0.418	-0.028
-351.508	-63.934	-0.274	0.112
-350.493	-86.565	0.470	0.144
-349.479	800.000	-0.094	0.312
-348.464	-200.000	0.052	0.255
-347.450	-116.558	-0.516	-0.095
-346.435	91.877	0.126	0.142
-345.420	-200.000	-0.014	0.181
-344.406	14.089	-0.496	-0.386
-343.391	-28.698	0.160	0.092
-342.377	-17.145	-0.670	0.423
-341.362	-200.000	-0.155	1.353
-340.348	12.743	0.534	-0.413
-339.333	126.093	-0.644	-0.815
-338.318	-200.000	0.003	-0.274
-337.304	49.255	0.263	-0.248
-336.289	800.000	-0.126	0.507
-335.275	525.612	0.113	0.267
-334.260	65.260	0.795	0.803
-333.245	-140.533	0.254	0.026
-332.231	-50.706	0.542	0.255
-331.216	-152.597	0.783	-0.056
-330.202	-200.000	0.008	0.561
-329.187	-115.423	0.556	0.105
-328.172	-200.000	-0.084	-0.381
-327.158	-82.498	-0.290	0.094
-326.143	18.984	0.365	0.293
-325.129	-101.892	-0.480	-0.116
-324.114	-61.976	0.336	-0.140
-323.099	128.514	-0.410	-0.521
-322.085	118.181	-0.781	-0.963
-321.070	-87.452	-0.338	0.102
-320.056	-177.895	1.187	0.028
-319.041	106.484	0.608	0.720
-318.026	287.891	-0.163	0.296
-317.012	-200.000	-0.005	-0.214
-315.997	800.000	-0.134	-0.538
-314.983	800.000	0.135	-0.567
-313.968	156.636	0.534	-0.737
-312.953	98.140	-0.584	0.671
-311.939	-82.013	0.458	-0.149
-310.924	-24.700	0.319	0.190
-309.910	79.283	0.187	0.200
-308.895	-8.630	0.296	-0.199
-307.880	285.974	0.062	-0.112
-306.866	-200.000	-0.185	1.032
-305.851	145.966	-0.457	0.613
-304.837	-116.269	0.576	0.107
-303.822	80.018	-0.228	0.245
-302.807	205.344	0.244	0.378
-301.793	-194.129	0.693	-0.006
-300.778	-161.292	-0.671	-0.035
-299.764	11.907	-0.539	-0.414
-298.749	42.127	0.526	-0.477
-297.735	-100.112	0.111	0.028
-296.720	-106.830	-1.039	-0.230
-295.705	-12.246	0.380	-0.248
-294.691	147.217	-0.334	-0.449
-293.676	-200.000	-0.005	0.068
-292.662	66.511	-0.217	0.220
-291.647	-200.000	-0.057	-0.348
-290.632	3.197	-0.359	0.261
-289.618	-147.848	0.143	0.012
-288.603	60.756	0.602	-0.596
-287.589	-155.699	-0.879	0.056
-286.574	-2.448	0.596	-0.417
-285.559	-200.000	0.105	0.640
-284.545	-112.461	0.853	-0.170
-283.530	179.366	-0.179	-0.261
-282.516	-161.607	0.373	-0.019
-281.501	-200.000	0.044	0.201
-280.486	-91.765	0.615	0.174
-279.472	37.553	0.621	0.550
-278.457	-200.000	-0.004	-0.036
-277.443	-33.423	0.405	0.223
-276.428	-200.000	0.028	-0.714
-275.413	-98.227	-0.282	0.072
-274.399	416.136	-0.464	-0.987
-273.384	-200.000	0.004	-0.253
-272.370	-32.369	-0.955	-0.532
-271.355	110.091	-0.256	0.306
-270.340	-116.700	0.559	-0.103
-269.326	34.428	-0.475	0.413
-268.311	648.364	0.030	0.076
-267.297	-171.529	-0.306	-0.010
-266.282	339.380	0.393	0.764
-265.267	-133.158	-0.074	-0.009
-264.253	-8.780	0.262	-0.175
-263.238	-174.815	-0.638	-0.018
-262.224	-86.511	0.259	0.079
-261.209	800.000	-0.146	-0.501
-260.195	-189.699	-0.397	0.005
-259.180	-180.782	0.115	0.002
-258.165	-84.889	-0.415	0.130
-257.151	800.000	0.202	0.616
-256.136	-106.903	0.987	-0.218
-255.122	-113.861	-0.356	0.069
-254.107	42.840	0.884	0.803
-253.092	-145.546	-0.647	-0.058
-252.078	-200.000	-0.041	-0.725
-251.063	170.782	-0.416	-0.594
-250.049	-31.042	0.264	0.148
-249.034	143.022	-0.141	0.187
-248.019	-38.255	-0.626	-0.331
-247.005	33.735	0.387	-0.336
-245.990	89.294	0.046	-0.051
-244.976	800.000	-0.127	0.535
-243.961	415.199	-0.390	0.829
-242.946	-96.188	0.112	-0.030
-241.932	92.639	0.614	0.691
-240.917	-129.000	-0.440	-0.061
-239.903	644.789	0.218	0.553
-238.888	202.288	-0.230	-0.354
-237.873	-200.000	-0.002	-0.036
-236.859	-75.947	0.842	-0.297
-235.844	604.359	0.270	-0.668
-234.830	-71.251	0.319	0.119
-233.815	577.062	-0.101	0.246
-232.800	-200.000	0.028	-0.650
-231.786	200.587	0.416	0.637
-230.771	-43.048	0.053	-0.027
-229.757	-88.929	0.894	0.264
-228.742	-31.563	0.230	0.129
-227.727	-20.755	0.960	-0.587
-226.713	-200.000	0.079	-0.759
-225.698	192.558	0.205	-0.308
-224.684	202.746	-0.163	0.250
-223.669	-165.888	-0.414	0.018
-222.655	-200.000	0.069	0.571
-221.640	800.000	0.086	0.284
-220.625	111.432	-0.311	0.373
-219.611	-79.764	0.510	0.171
-218.596	800.000	0.178	-0.666
-217.582	255.419	-0.230	-0.393
-216.567	800.000	-0.134	0.502
-215.552	-200.000	-0.064	-0.512
-214.538	-110.575	-0.404	-0.083
-213.523	-117.174	0.554	-0.100
-212.509	-200.000	-0.126	0.615
-211.494	800.000	0.105	0.288
-210.479	-200.000	-0.582	-0.001
-209.465	305.488	0.091	-0.168
-208.450	-92.622	-0.626	-0.175
-207.436	-200.000	0.028	-0.416
-206.421	203.236	-0.157	-0.242
-205.406	252.491	-0.327	-0.555
-204.392	-117.500	1.246	-0.224
-203.377	-200.000	-0.001	0.065
-202.363	-200.000	-0.041	0.410
-201.348	89.801	-0.520	0.578
-200.333	800.000	-0.195	-0.614
-199.319	146.502	-0.220	0.293
-198.304	83.651	0.722	0.784
-197.290	-25.115	-0.947	-0.558
-196.275	733.721	-0.343	0.912
-195.260	-39.286	0.838	0.438
-194.246	-200.000	-0.136	0.634
-193.231	147.521	-0.191	0.256
-192.217	163.130	-0.726	1.015
-191.202	-83.760	-0.194	0.062
-190.187	451.927	-0.108	-0.238
-189.173	37.517	-0.537	0.474
-188.158	-110.025	-0.965	0.201
-187.144	-133.869	-0.641	-0.079
-186.129	800.000	0.105	0.299
-185.114	433.762	-0.242	0.523
-184.100	201.665	-0.472	-0.723
-183.085	21.132	-0.378	0.305
-182.071	-11.070	0.286	0.187
-181.056	-152.765	-0.102	0.007
-180.042	-89.901	0.996	0.289
-179.027	-14.465	0.630	-0.403
-178.012	-200.000	-0.113	0.513
-176.998	-200.000	-0.016	0.072
-175.983	-96.702	1.079	0.282
-174.969	-44.542	-0.288	0.143
-173.954	-75.172	0.608	0.216
-172.939	-145.313	-0.094	0.008
-171.925	128.405	0.397	-0.502
-170.910	-200.000	-0.000	-0.369
-169.896	450.463	0.066	-0.145
-168.881	-138.232	0.701	-0.077
-167.866	304.800	-0.309	0.570
-166.852	62.704	-0.547	-0.543
-165.837	-109.243	-0.518	0.109
-164.823	-200.000	-0.033	-0.170
-163.808	244.207	0.354	-0.591
-162.793	-123.834	-0.714	0.112
-161.779	163.722	-0.422	0.590
-160.764	-105.841	0.104	0.023
-159.750	-200.000	-0.044	-1.036
-158.735	800.000	0.193	0.739
-157.720	-158.790	-0.369	0.021
-156.706	40.579	0.225	0.201
-155.691	-13.698	-0.236	-0.152
-154.677	-172.364	0.330	0.010
-153.662	-136.431	0.157	-0.018
-152.647	-70.175	-0.248	0.094
-151.633	800.000	-0.067	-0.188
-150.618	800.000	0.082	-0.318
-149.604	800.000	-0.025	-0.077
-148.589	-19.943	0.299	-0.183
-147.574	-23.898	0.131	-0.078
-146.560	92.490	-0.971	-1.087
-145.545	303.615	-0.323	-0.595
-144.531	-19.048	0.301	-0.186
-143.516	-200.000	0.051	-0.737
-142.502	-66.894	-0.082	0.032
-141.487	-100.143	-0.969	0.239
-140.472	-118.934	0.316	-0.055
-139.458	593.640	0.159	0.391
-138.443	92.641	0.219	-0.245
-137.429	-118.741	0.208	0.036
-136.414	-106.737	-0.212	0.047
-135.399	800.000	-0.027	-0.100
-134.385	-200.000	0.012	0.466
-133.370	-200.000	0.063	0.658
-132.356	-120.327	0.575	-0.097
-131.341	95.323	-0.743	0.840
-130.326	-200.000	0.048	-0.324
-129.312	-71.247	1.606	0.598
-128.297	-179.081	-0.229	0.005
-127.283	199.566	-0.328	-0.499
-126.268	9.121	0.322	0.241
-125.253	27.121	0.280	0.233
-124.239	23.508	0.573	0.468
-123.224	42.775	-0.318	0.288
-122.210	-200.000	-0.159	0.987
-121.195	-12.929	0.230	-0.148
-120.180	162.601	-0.306	-0.426
-119.166	-70.483	0.404	-0.152
-118.151	15.684	0.635	-0.495
-117.137	86.684	0.283	0.309
-116.122	153.444	-0.297	0.404
-115.107	-53.050	0.853	0.389
-114.093	701.916	-0.358	-0.934
-113.078	800.000	-0.046	0.172
-112.064	141.485	0.125	-0.164
-111.049	-200.000	0.067	-0.537
-110.034	220.730	-0.214	-0.340
-109.020	765.116	-0.212	-0.572
-108.005	800.000	-0.093	0.309
-106.991	470.340	0.348	-0.775
-105.976	339.605	-0.229	0.443
-104.962	352.596	0.157	0.309
-103.947	377.774	0.344	-0.696
-102.932	-82.944	-0.991	0.317
-101.918	-26.656	0.486	-0.282
-100.903	602.488	-0.061	0.149
-99.889	-122.377	-0.323	-0.052
-98.874	40.216	0.351	-0.313
-97.859	-83.364	-0.557	-0.177
-96.845	-143.437	0.764	0.072
-95.830	-83.996	-0.539	0.170
-94.816	-99.473	0.455	0.113
-93.801	-88.909	-0.268	-0.079
-92.786	-200.000	-0.051	-0.348
-91.772	-200.000	-0.011	-0.304
-90.757	-96.584	0.624	0.163
-89.743	351.753	0.589	-1.155
-88.728	177.777	-0.416	-0.600
-87.713	-60.542	-0.688	-0.290
-86.699	4.783	0.458	0.333
-85.684	409.327	0.158	0.331
-84.670	303.301	-0.167	0.307
-83.655	334.515	0.264	-0.507
-82.640	-100.110	-0.657	-0.162
-81.626	-200.000	0.072	0.568
-80.611	787.389	-0.167	0.453
-79.597	-200.000	0.068	0.480
-78.582	-40.217	-0.345	0.178
-77.567	800.000	0.149	-0.544
-76.553	127.078	0.115	0.144
-75.538	-91.082	-0.853	-0.242
-74.524	-149.077	0.619	0.049
-73.509	-110.261	-0.271	-0.056
-72.494	-122.070	-0.714	-0.116
-71.480	582.777	-0.215	-0.521
-70.465	-63.892	-0.396	0.160
-69.451	357.879	-0.252	-0.497
-68.436	-200.000	0.030	0.207
-67.422	-109.278	0.198	0.042
-66.407	-3.786	-0.389	-0.268
-65.392	296.992	-0.186	0.338
-64.378	37.849	0.079	0.069
-63.363	-200.000	-0.158	0.767
-62.349	553.142	0.096	0.229
-61.334	-19.376	-0.621	-0.381
-60.319	253.819	0.352	0.595
-59.305	800.000	-0.182	-0.728
-58.290	103.207	0.570	0.661
-57.276	800.000	0.458	1.414
-56.261	-200.000	95.489	599.328
-55.246	673.099	1351.731	3467.721
-54.232	201.470	2521.391	3841.186
-53.217	109.552	2278.418	2700.134
-52.203	39.180	2046.112	1810.446
-51.188	34.260	1962.078	1692.434
-50.173	32.936	1943.883	1665.006
-49.159	48.128	1996.626	1846.373
-48.144	48.674	2014.654	1867.858
-47.130	34.868	1976.580	1710.119
-46.115	32.570	1966.144	1680.549
-45.100	32.408	1962.943	1676.302
-44.086	32.159	1961.249	1672.568
-43.071	32.329	1957.826	1671.096
-42.057	32.235	1955.334	1668.067
-41.042	32.397	1954.060	1668.349
-40.027	32.243	1952.329	1665.443
-39.013	32.474	1949.503	1665.012
-37.998	32.382	1948.223	1663.034
-36.984	32.276	1946.930	1660.935
-35.969	32.288	1944.949	1659.278
-34.954	32.506	1941.956	1658.587
-33.940	32.628	1940.211	1658.104
-32.925	32.510	1939.634	1656.503
-31.911	32.391	1938.927	1654.784
-30.896	32.684	1935.677	1654.523
-29.881	32.595	1934.860	1652.971
-28.867	32.641	1933.380	1652.047
-27.852	32.620	1931.892	1650.528
-26.838	32.558	1928.890	1647.354
-25.823	32.433	1928.049	1645.480
-24.809	32.375	1927.457	1644.402
-23.794	32.701	1923.159	1643.507
-22.779	32.588	1923.387	1642.654
-21.765	32.426	1920.877	1639.038
-20.750	32.422	1920.105	1638.275
-19.736	32.377	1917.526	1635.620
-18.721	32.600	1915.966	1636.164
-17.706	32.303	1914.605	1632.355
-16.692	32.600	1912.073	1632.711
-15.677	32.613	1911.850	1632.566
-14.663	32.492	1909.948	1629.829
-13.648	32.468	1910.285	1629.841
-12.633	32.466	1907.346	1627.252
-11.619	32.561	1906.499	1627.289
-10.604	32.660	1904.429	1626.314
-9.590	32.562	1903.219	1624.370
-8.575	32.478	1902.512	1622.974
-7.560	32.491	1900.596	1621.388
-6.546	32.505	1899.199	1620.257
-5.531	32.577	1897.814	1619.628
-4.517	32.219	1897.592	1616.296
-3.502	32.455	1896.653	1617.461
-2.487	32.502	1896.285	1617.488
-1.473	32.427	1894.346	1615.122
-0.458	32.524	1890.004	1612.185
0.556	33.634	1869.736	1584.432
1.571	29.205	1849.834	1530.733
2.586	25.089	1871.828	1514.106
3.600	23.690	1907.214	1530.549
4.615	23.373	1899.861	1521.791
5.629	17.868	1801.625	1398.010
6.644	8.368	1683.927	1233.504
7.659	3.714	1647.096	1171.196
8.673	3.280	1643.768	1165.444
9.688	3.075	1643.861	1163.853
10.702	3.348	1641.979	1164.481
11.717	3.178	1637.417	1159.861
12.731	3.585	1637.848	1163.134
13.746	10.633	1653.632	1227.715
14.761	20.448	1676.054	1319.150
15.775	24.778	1682.579	1357.102
16.790	24.970	1682.391	1358.287
17.804	24.829	1680.501	1355.570
18.819	24.376	1678.689	1350.558
19.834	24.559	1677.535	1350.894
20.848	24.597	1676.755	1350.437
21.863	24.369	1676.347	1348.266
22.877	24.648	1675.230	1349.352
23.892	24.803	1674.704	1349.984
24.907	24.577	1674.559	1348.036
25.921	24.914	1671.768	1348.211
26.936	24.752	1671.298	1346.492
27.950	24.605	1671.305	1345.273
28.965	24.607	1670.057	1344.162
29.980	24.679	1669.341	1344.010
30.994	24.821	1667.108	1343.158
32.009	25.010	1665.624	1343.265
33.023	24.810	1666.570	1342.407
34.038	24.658	1666.713	1341.261
35.053	24.610	1664.794	1339.242
36.067	24.722	1663.219	1338.690
37.082	24.734	1662.408	1338.009
38.096	24.606	1661.463	1336.172
39.111	24.614	1661.207	1335.913
40.126	24.586	1659.464	1334.179
41.140	24.703	1659.813	1335.218
42.155	24.676	1658.319	1333.695
43.169	24.356	1657.371	1330.431
44.184	24.206	1655.734	1327.881
45.199	24.363	1653.590	1327.212
46.213	24.342	1652.779	1326.288
47.228	24.373	1651.000	1324.974
48.242	24.683	1650.766	1326.968
49.257	24.772	1649.897	1326.811
50.271	24.549	1650.488	1325.513
51.286	24.625	1648.201	1324.127
52.301	24.607	1646.527	1322.530
53.315	24.773	1646.085	1323.290
54.330	24.571	1644.624	1320.498
55.344	24.687	1642.005	1319.140
56.359	24.366	1642.297	1316.889
57.374	24.527	1640.869	1316.809
58.388	24.508	1639.057	1315.101
59.403	24.482	1637.638	1313.656
60.417	24.416	1636.786	1312.371
61.432	24.398	1636.808	1312.138
62.447	24.608	1633.498	1310.908
63.461	24.390	1633.593	1309.269
64.476	24.258	1632.735	1307.498
65.490	24.076	1632.341	1305.734
66.505	24.209	1630.814	1305.372
67.520	24.220	1630.065	1304.739
68.534	24.093	1629.936	1303.590
69.549	24.350	1627.779	1303.626
70.563	24.612	1626.002	1304.001
71.578	24.140	1625.925	1300.382
72.593	23.983	1625.860	1299.066
73.607	24.033	1624.284	1298.058
74.622	23.997	1622.725	1296.430
75.636	24.151	1620.991	1296.054
76.651	24.079	1620.319	1294.878
77.666	24.069	1620.121	1294.533
78.680	23.983	1619.872	1293.590
79.695	24.329	1618.217	1294.669
80.709	24.359	1616.479	1293.385
81.724	23.984	1617.760	1291.569
82.739	24.437	1614.581	1292.197
83.753	24.521	1614.465	1292.600
84.768	24.662	1614.769	1293.750
85.782	24.711	1614.114	1293.463
86.797	24.898	1613.082	1293.878
87.812	24.797	1613.930	1293.707
88.826	24.919	1611.762	1292.741
89.841	24.575	1610.531	1289.154
90.855	24.606	1610.247	1289.040
91.870	24.763	1608.325	1288.520
92.884	24.734	1607.272	1287.350
93.899	25.124	1606.635	1289.532
94.914	24.983	1605.455	1287.458
95.928	24.931	1604.800	1286.443
96.943	24.941	1603.274	1285.177
97.957	24.807	1601.922	1283.020
98.972	24.836	1600.908	1282.301
99.987	24.902	1599.247	1281.328
101.001	24.743	1598.427	1279.421
102.016	24.757	1595.702	1277.229
103.030	24.737	1595.080	1276.477
104.045	24.573	1594.728	1274.911
105.060	24.659	1593.715	1274.600
106.074	24.804	1591.094	1273.422
107.089	24.652	1590.594	1271.832
108.103	24.570	1587.360	1268.548
109.118	24.242	1587.668	1266.353
110.133	24.325	1585.239	1264.892
111.147	24.413	1583.228	1263.799
112.162	24.256	1582.594	1262.067
113.176	24.186	1582.653	1261.509
114.191	24.096	1581.007	1259.451
115.206	24.142	1580.758	1259.465
116.220	24.411	1578.597	1259.528
117.235	24.539	1578.044	1259.883
118.249	24.662	1576.438	1259.353
119.264	24.045	1576.272	1254.759
120.279	24.206	1574.301	1254.214
121.293	24.306	1572.102	1253.058
122.308	24.198	1572.491	1252.496
123.322	24.150	1570.368	1250.354
124.337	24.161	1568.670	1248.971
125.352	23.851	1567.889	1246.068
126.366	23.718	1568.759	1245.716
127.381	24.120	1565.430	1245.771
128.395	24.310	1565.283	1246.872
129.410	23.963	1564.649	1243.836
130.424	23.976	1562.510	1242.113
131.439	23.940	1560.593	1240.228
132.454	23.999	1558.978	1239.249
133.468	23.944	1558.693	1238.529
134.483	24.262	1558.285	1240.305
135.497	24.499	1557.588	1241.290
136.512	24.513	1555.791	1239.844
137.527	24.435	1555.105	1238.651
138.541	24.378	1553.129	1236.572
139.556	24.419	1552.600	1236.324
140.570	24.150	1551.321	1233.330
141.585	24.472	1549.841	1234.277
142.600	24.547	1548.849	1233.892
143.614	24.555	1548.981	1233.941
144.629	24.901	1548.405	1235.765
145.643	24.976	1546.550	1234.692
146.658	24.881	1545.235	1232.882
147.673	24.890	1543.853	1231.727
148.687	24.575	1542.609	1228.459
149.702	24.935	1540.464	1229.119
150.716	24.660	1539.889	1226.660
151.731	24.541	1538.568	1224.687
152.746	24.226	1536.816	1221.022
153.760	24.155	1535.324	1219.247
154.775	24.530	1534.557	1221.089
155.789	24.447	1534.376	1220.276
156.804	24.711	1533.654	1221.396
157.819	24.867	1531.478	1220.620
158.833	24.607	1530.556	1218.000
159.848	24.557	1529.983	1217.099
160.862	24.713	1529.483	1217.656
161.877	24.758	1529.010	1217.476
162.892	24.719	1526.650	1215.222
163.906	24.586	1525.652	1213.422
164.921	24.498	1524.388	1211.712
165.935	24.174	1523.133	1208.411
166.950	24.453	1520.580	1208.166
167.964	24.524	1521.372	1209.167
168.979	24.496	1520.786	1208.409
169.994	24.607	1519.806	1208.268
171.008	24.527	1517.850	1206.069
172.023	24.468	1517.488	1205.279
173.037	24.282	1516.984	1203.515
174.052	24.468	1516.239	1204.069
175.067	24.652	1515.261	1204.429
176.081	24.673	1513.827	1203.325
177.096	24.491	1512.606	1201.020
178.110	24.216	1511.794	1198.419
179.125	24.097	1510.515	1196.499
180.140	24.484	1509.247	1197.989
181.154	24.472	1508.198	1196.968
182.169	24.587	1508.034	1197.502
183.183	24.555	1507.580	1196.825
184.198	24.437	1506.100	1194.753
185.213	24.428	1505.785	1194.339
186.227	24.643	1504.726	1194.832
187.242	24.776	1502.693	1193.996
188.256	24.625	1502.321	1192.591
189.271	24.720	1501.663	1192.597
190.286	24.733	1500.348	1191.532
191.300	24.962	1499.751	1192.479
192.315	24.705	1498.048	1189.310
193.329	24.404	1497.183	1186.514
194.344	24.502	1496.279	1186.344
195.359	24.929	1495.466	1188.428
196.373	24.431	1494.978	1184.633
197.388	24.247	1492.262	1181.157
198.402	23.780	1492.644	1178.254
199.417	24.164	1490.655	1179.126
200.432	24.639	1491.479	1182.814
201.446	24.844	1490.119	1182.987
202.461	24.876	1489.584	1182.669
203.475	24.748	1488.291	1180.694
204.490	24.660	1487.327	1179.242
205.504	24.323	1487.101	1176.737
206.519	24.329	1484.964	1174.986
207.534	24.307	1483.594	1173.651
208.548	24.296	1483.012	1173.012
209.563	24.205	1481.689	1171.263
210.577	24.182	1481.214	1170.631
211.592	24.028	1480.662	1169.080
212.607	24.321	1479.415	1169.918
213.621	24.560	1479.250	1171.252
214.636	25.054	1478.437	1173.740
215.650	24.773	1477.428	1170.999
216.665	24.370	1476.468	1167.492
217.680	24.655	1476.145	1168.999
218.694	24.693	1476.400	1169.350
219.709	25.090	1474.519	1170.345
220.723	24.911	1473.458	1168.233
221.738	24.690	1473.303	1166.562
222.753	24.713	1471.974	1165.562
223.767	24.752	1470.497	1164.539
224.782	24.489	1469.372	1161.834
225.796	24.367	1469.224	1160.822
226.811	24.819	1469.222	1163.659
227.826	24.813	1468.127	1162.649
228.840	24.895	1466.963	1162.157
229.855	24.745	1466.160	1160.445
230.869	24.456	1465.837	1158.207
231.884	24.601	1463.296	1157.037
232.899	24.531	1463.092	1156.323
233.913	24.224	1461.884	1153.280
234.928	24.124	1460.447	1151.394
235.942	24.155	1458.883	1150.264
236.957	24.378	1457.707	1150.670
237.972	24.291	1456.638	1149.163
238.986	23.938	1455.643	1146.004
240.001	24.175	1454.313	1146.379
241.015	24.315	1453.569	1146.594
242.030	24.336	1452.786	1146.010
243.045	24.167	1451.303	1143.654
244.059	24.514	1450.811	1145.393
245.074	24.557	1450.561	1145.369
246.088	24.517	1449.596	1144.249
247.103	24.778	1449.447	1145.701
248.117	24.869	1449.321	1146.083
249.132	24.838	1447.976	1144.720
250.147	25.072	1447.980	1146.118
251.161	25.127	1447.277	1145.810
252.176	25.481	1447.089	1147.822
253.190	25.479	1446.885	1147.545
254.205	25.540	1445.322	1146.592
255.220	25.464	1445.180	1145.894
256.234	25.267	1444.389	1143.910
257.249	25.440	1444.218	1144.775
258.263	25.423	1442.011	1142.818
259.278	25.427	1440.773	1141.763
260.293	25.114	1441.251	1140.052
261.307	25.336	1439.425	1139.914
262.322	25.688	1437.742	1140.714
263.336	25.514	1437.502	1139.320
264.351	25.452	1437.414	1138.755
265.366	25.321	1436.664	1137.227
266.380	25.658	1434.380	1137.449
267.395	25.446	1435.139	1136.610
268.409	25.391	1434.726	1135.837
269.424	25.519	1433.262	1135.382
270.439	25.254	1432.117	1132.703
271.453	25.177	1430.284	1130.672
272.468	25.454	1429.342	1131.570
273.482	25.103	1429.407	1129.310
274.497	25.137	1427.257	1127.724
275.512	25.092	1426.699	1126.905
276.526	25.075	1425.810	1125.992
277.541	25.240	1424.705	1126.056
278.555	24.895	1424.756	1123.829
279.570	25.254	1423.937	1125.338
280.585	25.247	1423.487	1124.840
281.599	25.512	1423.247	1126.208
282.614	25.396	1422.512	1124.806
283.628	25.334	1421.401	1123.438
284.643	25.141	1419.621	1120.726
285.657	25.329	1417.709	1120.287
286.672	24.928	1417.419	1117.457
287.687	24.947	1417.008	1117.152
288.701	25.052	1415.444	1116.476
289.716	25.180	1415.926	1117.556
290.730	25.303	1414.196	1116.857
291.745	25.149	1413.386	1115.162
292.760	25.066	1412.552	1113.887
293.774	25.068	1412.417	1113.695
294.789	25.161	1410.989	1113.049
295.803	25.337	1410.355	1113.544
296.818	25.678	1408.998	1114.481
297.833	25.578	1407.935	1112.928
298.847	25.164	1407.645	1110.036
299.862	25.266	1406.758	1109.870
300.876	25.243	1405.909	1108.959
301.891	25.120	1404.584	1107.057
302.906	25.021	1404.381	1106.188
303.920	25.232	1404.066	1107.140
304.935	25.404	1404.173	1108.190
305.949	25.522	1403.000	1107.894
306.964	25.701	1401.639	1107.824
307.979	25.745	1399.890	1106.612
308.993	25.424	1400.357	1104.911
310.008	25.396	1398.731	1103.356
311.022	25.773	1396.736	1104.000
312.037	25.439	1396.809	1101.914
313.052	25.737	1396.775	1103.613
314.066	25.479	1395.689	1101.078
315.081	25.460	1393.728	1099.318
316.095	25.358	1392.632	1097.731
317.110	24.828	1391.968	1093.873
318.125	25.122	1390.280	1094.245
319.139	25.121	1389.597	1093.604
320.154	25.194	1389.177	1093.620
321.168	24.917	1388.448	1091.264
322.183	25.084	1386.574	1090.709
323.197	25.198	1385.652	1090.581
324.212	25.170	1385.244	1089.995
325.227	25.130	1384.978	1089.446
326.241	25.213	1384.592	1089.547
327.256	25.179	1383.294	1088.224
328.270	25.151	1382.492	1087.324
329.285	25.034	1380.506	1084.960
330.300	25.042	1380.571	1084.962
331.314	25.031	1379.873	1084.251
332.329	25.491	1377.514	1085.079
333.343	25.278	1377.593	1083.763
334.358	25.222	1377.091	1082.932
335.373	25.375	1376.357	1083.179
336.387	25.369	1376.775	1083.381
337.402	25.635	1375.825	1084.137
338.416	25.815	1374.413	1084.013
339.431	25.740	1374.698	1083.692
340.446	25.538	1373.023	1081.059
341.460	25.873	1372.626	1082.666
342.475	25.741	1372.774	1081.894
343.489	26.137	1371.428	1083.114
344.504	26.062	1370.630	1081.935
345.519	26.142	1369.479	1081.414
346.533	25.948	1369.829	1080.428
347.548	26.150	1367.555	1079.748
348.562	26.324	1366.990	1080.249
349.577	26.084	1367.585	1079.188
350.592	25.886	1365.772	1076.477
351.606	25.885	1364.292	1075.210
352.621	25.420	1362.587	1071.003
353.635	25.634	1361.853	1071.601
354.650	25.555	1361.146	1070.484
355.665	25.009	1360.349	1066.508
356.679	25.475	1358.565	1067.789
357.694	25.697	1358.444	1068.915
358.708	25.705	1357.082	1067.801
359.723	25.868	1354.612	1066.724
360.738	25.717	1355.804	1066.674
361.752	25.782	1354.408	1065.867
362.767	25.825	1353.069	1064.975
363.781	25.568	1353.112	1063.394
364.796	25.583	1351.495	1062.119
365.810	25.547	1351.840	1062.081
366.825	25.704	1351.343	1062.526
367.840	26.520	1349.737	1065.974
368.854	26.350	1349.581	1064.756
369.869	26.094	1349.053	1062.738
370.883	26.214	1348.752	1063.112
371.898	26.335	1347.080	1062.411
372.913	26.063	1347.033	1060.684
373.927	25.863	1345.503	1058.212
374.942	25.936	1344.329	1057.624
375.956	26.118	1343.102	1057.626
376.971	26.060	1343.080	1057.176
377.986	26.060	1342.015	1056.249
379.000	25.809	1341.958	1054.636
380.015	26.073	1341.994	1056.121
381.029	26.346	1340.824	1056.701
382.044	26.328	1340.427	1056.191
383.059	26.146	1340.652	1055.208
384.073	26.295	1338.157	1054.019
385.088	26.451	1337.097	1054.003
386.102	26.252	1337.046	1052.710
387.117	26.245	1337.569	1052.990
388.132	26.411	1335.685	1052.377
389.146	25.823	1334.270	1047.748
390.161	25.752	1334.127	1047.133
391.175	25.627	1333.595	1045.895
392.190	25.710	1331.869	1044.931
393.205	25.951	1331.256	1045.757
394.219	25.929	1331.153	1045.452
395.234	26.252	1330.050	1046.367
396.248	26.140	1328.525	1044.426
397.263	25.881	1327.289	1041.864
398.278	25.877	1325.440	1040.301
399.292	25.586	1325.544	1038.610
400.307	25.632	1324.862	1038.245
401.321	25.810	1323.555	1038.159
402.336	25.912	1322.071	1037.488
403.350	25.652	1320.438	1034.619
404.365	25.523	1319.868	1033.342
405.380	25.558	1319.159	1032.896
406.394	25.959	1318.485	1034.578
407.409	25.815	1317.545	1032.923
408.423	25.753	1317.883	1032.743
409.438	26.223	1316.807	1034.500
410.453	26.559	1316.450	1036.051
411.467	26.303	1315.637	1033.857
412.482	26.157	1315.742	1033.013
413.496	26.410	1313.833	1032.866
414.511	26.538	1312.938	1032.802
415.526	26.710	1312.724	1033.521
416.540	26.414	1312.667	1031.698
417.555	26.375	1312.151	1030.976
418.569	26.539	1311.257	1031.121
419.584	26.773	1310.484	1031.752
420.599	26.338	1310.670	1029.328
421.613	143.119	1435.597	1794.434
422.628	138.832	1453.715	1794.523
