DTS Sentinel unit serial number:	SN413079Multiplexer serial number:	ORYXHardware model number:	OX4-SRSoftware version number:	ORYX F/W v4.00 Oryx Data Collector v3.7.2.0data status	okinstallation	princeton_trtdifferential loss correction	single-endedforward channel	channel 4reverse channel	N/Adate	2019/09/13time	06:17:34forward acquisition time	60.00reverse acquisition time	0.00gamma	496.2192k internal	0.2323k external	0.2323temperature offset calibration	1.0199default loss term (dB/km)	0.3790temperature slope calibration	1.0000multiplexer offset coefficient	1.0000multiplexer slope coefficient	1.0000fibre end	0.00T internal ref (°C)	26.12T ext. ref 1 (°C)	4.09T ext. ref 2 (°C)	20.82length (m)	temperature (°C)	Stokes	anti-Stokes-747.200	-28.746	-0.206	0.120
-746.185	663.135	0.038	-0.098
-745.171	563.729	-0.103	0.252
-744.156	-200.000	-0.066	0.506
-743.142	105.686	0.158	-0.189
-742.127	94.933	-0.108	-0.124
-741.112	253.077	-0.025	-0.044
-740.098	-200.000	-0.002	-0.148
-739.083	742.232	-0.194	-0.527
-738.069	74.985	0.176	-0.187
-737.054	127.554	0.175	0.224
-736.039	-118.587	-0.461	-0.082
-735.025	20.634	-0.079	-0.064
-734.010	-105.869	-0.108	-0.025
-732.996	-140.316	-0.331	0.035
-731.981	150.762	0.190	-0.261
-730.966	-19.465	0.216	-0.135
-729.952	217.734	-0.122	0.197
-728.937	-176.069	-0.167	0.004
-727.923	165.014	0.029	-0.042
-726.908	-115.480	0.104	0.020
-725.894	18.111	0.108	-0.087
-724.879	800.000	-0.080	-0.276
-723.864	-125.812	0.044	-0.007
-722.850	14.810	0.075	-0.059
-721.835	153.846	-0.045	0.063
-720.821	-200.000	-0.021	-0.252
-719.806	-78.183	0.089	-0.031
-718.791	-127.526	-0.040	-0.006
-717.777	-166.125	-0.605	-0.026
-716.762	-56.790	-0.081	0.036
-715.748	84.966	0.123	-0.136
-714.733	-57.382	-0.152	0.067
-713.718	800.000	0.042	0.138
-712.704	-200.000	-0.047	0.295
-711.689	-200.000	0.016	0.147
-710.675	-99.328	0.336	-0.085
-709.660	265.484	0.113	0.198
-708.645	396.650	0.123	0.258
-707.631	100.030	-0.093	-0.108
-706.616	-200.000	-0.029	-0.216
-705.602	43.659	0.157	0.145
-704.587	-14.900	0.331	-0.214
-703.572	34.409	0.026	0.023
-702.558	-31.372	0.341	0.193
-701.543	800.000	-0.031	0.131
-700.529	198.408	0.085	-0.131
-699.514	-106.043	0.213	0.048
-698.499	-187.603	0.111	0.001
-697.485	387.575	0.141	0.293
-696.470	-200.000	0.050	0.474
-695.456	-50.998	0.098	-0.046
-694.441	50.927	0.145	-0.139
-693.426	-121.174	0.255	-0.043
-692.412	153.670	-0.069	0.095
-691.397	32.442	-0.373	0.325
-690.383	-10.217	-0.184	-0.123
-689.368	-200.000	-0.010	0.259
-688.354	0.351	-0.109	0.078
-687.339	5.792	-0.106	0.079
-686.324	15.552	0.082	0.065
-685.310	-22.952	0.218	-0.132
-684.295	-127.804	0.071	-0.010
-683.281	-68.539	0.258	0.101
-682.266	17.095	-0.111	-0.089
-681.251	-89.806	0.176	0.052
-680.237	-200.000	0.036	-0.211
-679.222	219.290	-0.125	0.201
-678.208	800.000	0.047	-0.155
-677.193	42.545	-0.044	0.040
-676.178	138.663	-0.017	-0.023
-675.164	-125.668	-0.296	0.045
-674.149	239.910	0.031	0.051
-673.135	-165.056	-0.241	-0.011
-672.120	-115.850	0.133	-0.025
-671.105	-101.319	0.086	-0.021
-670.091	494.559	-0.065	-0.151
-669.076	-0.777	-0.110	0.079
-668.062	-200.000	-0.024	0.204
-667.047	-199.632	-0.350	0.002
-666.032	64.617	0.031	-0.031
-665.018	-200.000	-0.003	-0.055
-664.003	212.233	0.148	0.236
-662.989	401.869	-0.078	0.164
-661.974	-27.282	0.306	-0.179
-660.959	-200.000	-0.022	0.268
-659.945	800.000	-0.201	0.609
-658.930	34.443	0.113	-0.099
-657.916	-31.902	0.091	-0.051
-656.901	800.000	0.085	-0.261
-655.886	619.317	-0.119	-0.302
-654.872	-89.112	-0.140	-0.042
-653.857	53.742	0.220	-0.213
-652.843	89.614	0.114	0.127
-651.828	-172.867	-0.332	-0.010
-650.814	-121.964	-0.291	-0.048
-649.799	-101.326	0.314	-0.077
-648.784	1.008	0.189	0.137
-647.770	35.322	-0.406	-0.359
-646.755	31.596	0.100	-0.087
-645.741	-200.000	0.000	0.053
-644.726	-200.000	-0.013	-0.378
-643.711	-200.000	0.024	-0.276
-642.697	-131.608	-0.077	-0.010
-641.682	-138.599	-0.286	0.032
-640.668	-167.935	0.354	0.014
-639.653	800.000	0.056	-0.201
-638.638	95.095	0.265	-0.303
-637.624	-105.159	0.177	-0.041
-636.609	800.000	-0.057	-0.173
-635.595	-42.770	-0.235	0.120
-634.580	-200.000	-0.083	-0.403
-633.565	-60.113	-0.114	-0.049
-632.551	-167.200	-0.143	0.006
-631.536	-200.000	-0.025	-0.140
-630.522	530.528	-0.227	0.540
-629.507	-200.000	0.019	-0.088
-628.492	728.846	0.014	-0.037
-627.478	145.234	-0.054	-0.073
-626.463	-105.493	-0.076	-0.017
-625.449	800.000	0.098	-0.430
-624.434	-114.750	0.269	0.052
-623.419	-200.000	0.013	-0.090
-622.405	-54.558	-0.152	-0.069
-621.390	259.821	-0.098	-0.170
-620.376	800.000	0.049	0.138
-619.361	800.000	-0.031	0.089
-618.346	11.612	-0.171	0.132
-617.332	-73.174	-0.243	-0.090
-616.317	1.649	-0.168	0.121
-615.303	74.798	0.075	-0.079
-614.288	230.441	0.161	-0.264
-613.273	-86.967	-0.204	-0.062
-612.259	294.456	0.068	-0.126
-611.244	224.789	0.035	-0.056
-610.230	421.809	-0.073	-0.158
-609.215	-79.949	0.146	0.049
-608.201	-200.000	0.043	0.226
-607.186	-200.000	-0.045	0.255
-606.171	41.414	0.026	0.023
-605.157	266.852	0.057	0.101
-604.142	800.000	0.062	-0.239
-603.128	-200.000	-0.093	-0.522
-602.113	19.742	-0.107	0.086
-601.098	800.000	0.038	0.159
-600.084	-53.544	0.280	0.129
-599.069	382.152	-0.118	-0.244
-598.055	-200.000	0.016	0.367
-597.040	-200.000	-0.043	-0.225
-596.025	800.000	-0.028	0.111
-595.011	113.674	-0.201	-0.246
-593.996	-152.529	0.147	0.011
-592.982	-200.000	0.013	-0.076
-591.967	549.333	0.044	0.106
-590.952	44.648	-0.114	-0.105
-589.938	-200.000	-0.053	-0.277
-588.923	800.000	0.031	-0.114
-587.909	800.000	0.058	0.174
-586.894	722.351	0.062	0.165
-585.879	-98.437	0.197	0.051
-584.865	800.000	0.035	0.111
-583.850	46.554	0.229	0.213
-582.836	-111.787	0.184	0.037
-581.821	-82.637	0.184	-0.060
-580.806	-200.000	-0.037	0.383
-579.792	-200.000	-0.074	-0.348
-578.777	36.949	0.142	0.126
-577.763	-20.666	0.220	0.135
-576.748	-108.651	0.151	0.033
-575.733	-82.760	0.221	-0.072
-574.719	29.759	-0.309	0.264
-573.704	57.458	0.202	-0.198
-572.690	-78.324	-0.144	-0.050
-571.675	-22.802	-0.122	0.074
-570.661	-200.000	-0.035	0.217
-569.646	-185.808	0.180	0.003
-568.631	-125.217	-0.376	0.058
-567.617	-200.000	0.002	-0.164
-566.602	-66.060	0.316	-0.126
-565.588	-46.408	-0.033	-0.016
-564.573	241.281	-0.061	-0.102
-563.558	-200.000	-0.009	-0.217
-562.544	-157.437	-0.145	-0.009
-561.529	80.196	-0.186	-0.201
-560.515	-22.703	-0.332	0.201
-559.500	-161.863	-0.138	0.007
-558.485	793.046	0.095	0.263
-557.471	99.122	-0.096	-0.111
-556.456	565.081	0.060	-0.145
-555.442	140.141	-0.032	0.043
-554.427	800.000	0.069	-0.297
-553.412	300.841	0.047	-0.087
-552.398	-122.544	-0.240	-0.039
-551.383	-6.927	0.067	0.046
-550.369	103.788	-0.220	0.258
-549.354	-52.579	0.101	-0.047
-548.339	297.436	-0.207	-0.380
-547.325	-200.000	0.008	-0.095
-546.310	-185.629	0.186	-0.003
-545.296	800.000	-0.036	0.103
-544.281	-70.426	-0.228	-0.086
-543.266	-58.126	0.155	-0.068
-542.252	-108.468	0.179	0.039
-541.237	-98.440	-0.085	0.022
-540.223	286.272	0.052	0.095
-539.208	13.497	-0.140	0.109
-538.193	800.000	0.016	0.063
-537.179	34.859	0.123	-0.108
-536.164	-135.367	-0.287	-0.034
-535.150	-82.773	0.071	0.023
-534.135	387.758	0.063	-0.130
-533.121	-102.484	-0.272	-0.065
-532.106	-27.783	0.083	-0.048
-531.091	9.660	-0.113	0.086
-530.077	-62.659	0.331	0.138
-529.062	-6.180	-0.132	-0.091
-528.048	-57.368	-0.201	0.088
-527.033	-200.000	0.004	-0.092
-526.018	112.280	-0.303	-0.367
-525.004	156.510	-0.052	-0.072
-523.989	800.000	-0.053	0.173
-522.975	-135.771	0.007	-0.001
-521.960	-181.922	-0.086	0.002
-520.945	-99.933	-0.209	-0.052
-519.931	-136.495	0.069	-0.008
-518.916	800.000	0.078	0.284
-517.902	282.731	0.020	-0.036
-516.887	-192.276	-0.268	0.003
-515.872	236.853	0.045	-0.074
-514.858	-88.389	0.074	-0.022
-513.843	-200.000	0.007	-0.157
-512.829	800.000	0.011	0.036
-511.814	-200.000	0.011	-0.225
-510.799	-200.000	-0.009	-0.069
-509.785	-200.000	0.000	-0.065
-508.770	-68.371	-0.084	0.032
-507.756	205.846	-0.079	0.122
-506.741	-82.959	-0.403	-0.130
-505.726	695.926	0.076	-0.200
-504.712	275.650	-0.153	0.271
-503.697	800.000	0.028	0.123
-502.683	31.246	0.174	-0.150
-501.668	800.000	-0.080	-0.327
-500.653	12.834	-0.332	-0.257
-499.639	543.523	0.093	-0.223
-498.624	-200.000	-0.029	0.187
-497.610	-41.602	0.232	0.119
-496.595	140.920	-0.099	-0.131
-495.581	-54.707	0.130	-0.059
-494.566	-104.052	-0.118	0.027
-493.551	104.485	-0.112	-0.131
-492.537	-83.423	-0.129	-0.041
-491.522	745.624	0.074	0.199
-490.508	-114.953	0.327	0.062
-489.493	-53.330	-0.146	0.067
-488.478	226.674	0.087	0.141
-487.464	52.495	0.117	0.112
-486.449	106.277	0.171	-0.202
-485.435	-5.350	-0.240	-0.165
-484.420	-200.000	0.018	-0.308
-483.405	-124.066	-0.013	-0.002
-482.391	633.370	0.047	-0.119
-481.376	-200.000	-0.001	0.353
-480.362	-38.045	-0.339	0.180
-479.347	-125.954	-0.488	0.073
-478.332	3.753	-0.323	-0.236
-477.318	-44.476	0.306	-0.153
-476.303	342.420	-0.138	-0.269
-475.289	-181.387	-0.423	-0.008
-474.274	-200.000	0.049	0.261
-473.259	117.686	0.204	-0.250
-472.245	-42.840	-0.218	-0.111
-471.230	-200.000	0.008	0.345
-470.216	-200.000	-0.006	-0.256
-469.201	45.775	0.151	0.140
-468.186	-161.515	-0.248	-0.013
-467.172	-200.000	0.022	-0.247
-466.157	-200.000	0.013	-0.190
-465.143	-83.965	0.171	0.054
-464.128	221.037	0.086	-0.138
-463.113	-137.908	-0.357	0.040
-462.099	-200.000	0.012	-0.226
-461.084	-5.967	-0.264	0.181
-460.070	800.000	-0.045	0.178
-459.055	-56.743	-0.087	-0.038
-458.040	7.535	0.343	-0.256
-457.026	294.513	0.069	0.125
-456.011	-74.548	0.134	0.048
-454.997	121.272	0.081	0.101
-453.982	22.603	-0.066	0.054
-452.968	-114.069	0.271	-0.052
-451.953	-200.000	-0.002	0.184
-450.938	-200.000	-0.002	0.189
-449.924	-98.300	0.065	0.017
-448.909	-200.000	-0.026	0.245
-447.895	-61.434	0.061	-0.026
-446.880	-69.499	-0.210	-0.080
-445.865	-98.711	-0.261	0.066
-444.851	30.560	-0.276	0.235
-443.836	-47.632	-0.136	0.066
-442.822	104.556	-0.308	-0.362
-441.807	-90.893	0.042	0.012
-440.792	280.801	-0.149	0.266
-439.778	527.385	0.143	0.336
-438.763	-84.476	0.062	-0.020
-437.749	-200.000	-0.007	0.223
-436.734	-30.693	0.119	0.067
-435.719	-85.336	0.206	0.064
-434.705	127.078	0.134	0.170
-433.690	800.000	-0.033	0.120
-432.676	-200.000	-0.004	-0.050
-431.661	132.207	0.189	-0.243
-430.646	254.368	0.149	-0.254
-429.632	126.132	0.078	-0.098
-428.617	71.425	-0.137	0.142
-427.603	-102.661	0.254	0.060
-426.588	-76.727	0.236	0.083
-425.573	800.000	0.024	-0.098
-424.559	-141.072	-0.293	-0.030
-423.544	-200.000	0.014	0.180
-422.530	461.939	-0.183	0.407
-421.515	-129.407	-0.161	0.022
-420.500	-200.000	-0.005	-0.025
-419.486	-11.695	0.343	0.224
-418.471	-36.740	0.354	-0.190
-417.457	-75.182	0.259	0.092
-416.442	577.430	0.122	0.297
-415.428	9.953	0.218	0.165
-414.413	125.107	-0.084	-0.105
-413.398	510.028	-0.067	-0.154
-412.384	-63.123	0.170	-0.070
-411.369	-200.000	-0.018	0.114
-410.355	544.400	0.140	0.334
-409.340	158.280	0.157	-0.217
-408.325	75.405	-0.111	0.117
-407.311	800.000	0.031	0.103
-406.296	-146.413	0.017	0.001
-405.282	800.000	-0.041	0.152
-404.267	800.000	-0.031	0.134
-403.252	-87.110	0.127	0.039
-402.238	-58.136	-0.345	0.150
-401.223	56.013	-0.176	-0.170
-400.209	-200.000	0.008	-0.244
-399.194	8.173	0.147	-0.110
-398.179	112.732	-0.256	0.309
-397.165	-200.000	0.156	0.000
-396.150	18.305	0.127	0.101
-395.136	-27.156	-0.184	-0.107
-394.121	-111.384	-0.121	-0.025
-393.106	-200.000	0.034	0.195
-392.092	-114.436	0.268	0.051
-391.077	-200.000	-0.003	0.160
-390.063	-12.780	-0.077	-0.050
-389.048	-102.853	-0.369	0.087
-388.033	-60.603	-0.188	-0.079
-387.019	800.000	-0.035	0.124
-386.004	-128.825	0.125	-0.017
-384.990	301.957	0.032	-0.059
-383.975	216.248	0.226	0.358
-382.960	265.514	-0.112	0.194
-381.946	-15.304	0.157	0.100
-380.931	-200.000	0.037	-0.260
-379.917	59.222	-0.213	0.208
-378.902	44.319	0.229	0.209
-377.888	-1.971	0.258	0.180
-376.873	-200.000	0.013	0.063
-375.858	25.148	-0.145	0.119
-374.844	44.716	-0.125	-0.114
-373.829	-200.000	-0.034	-0.196
-372.815	592.817	0.090	0.222
-371.800	-90.166	0.237	0.069
-370.785	-59.408	-0.300	-0.128
-369.771	65.011	-0.106	0.107
-368.756	-200.000	0.185	-0.000
-367.742	-74.317	0.138	0.050
-366.727	3.880	0.055	-0.040
-365.712	249.584	0.137	-0.231
-364.698	-95.974	-0.224	-0.059
-363.683	-103.105	-0.221	-0.052
-362.669	292.803	-0.055	-0.100
-361.654	-2.602	0.360	-0.251
-360.639	-200.000	-0.055	0.353
-359.625	192.573	0.091	-0.137
-358.610	-46.814	-0.438	0.213
-357.596	72.413	-0.059	0.062
-356.581	-62.778	-0.074	0.030
-355.566	-138.740	0.019	0.002
-354.552	4.339	-0.099	0.072
-353.537	-200.000	-0.016	-0.247
-352.523	-70.753	0.144	0.054
-351.508	-107.253	-0.116	-0.025
-350.493	-52.319	-0.198	-0.091
-349.479	-200.000	0.013	-0.071
-348.464	-101.209	0.264	-0.064
-347.450	-200.000	-0.054	-0.448
-346.435	-158.511	0.171	0.010
-345.420	109.944	-0.250	-0.299
-344.406	-93.027	-0.177	0.049
-343.391	382.134	0.077	-0.157
-342.377	-2.938	-0.349	-0.242
-341.362	-101.273	0.164	0.040
-340.348	-127.329	0.175	0.025
-339.333	312.688	0.047	-0.087
-338.318	20.316	0.205	0.165
-337.304	800.000	-0.010	0.042
-336.289	45.047	-0.182	0.167
-335.275	-134.888	-0.100	0.012
-334.260	-16.405	-0.133	-0.084
-333.245	-77.698	-0.098	-0.034
-332.231	299.086	0.062	0.113
-331.216	181.966	0.091	0.133
-330.202	449.259	-0.063	0.138
-329.187	24.624	-0.154	0.127
-328.172	-200.000	-0.052	0.236
-327.158	-83.251	-0.182	-0.058
-326.143	-159.901	-0.188	0.010
-325.129	-117.846	0.068	0.012
-324.114	-60.957	0.169	0.071
-323.099	-33.292	-0.191	0.105
-322.085	153.192	-0.125	-0.170
-321.070	309.766	-0.084	-0.156
-320.056	-173.210	-0.450	0.014
-319.041	-28.494	-0.215	-0.123
-318.026	-69.886	0.385	0.146
-317.012	-126.741	-0.294	-0.043
-315.997	-23.273	-0.178	0.107
-314.983	-95.198	0.017	-0.005
-313.968	-77.822	0.292	-0.100
-312.953	800.000	0.054	0.195
-311.939	-97.629	-0.329	0.085
-310.924	-17.717	-0.078	0.049
-309.910	146.923	0.084	-0.113
-308.895	-135.717	0.223	0.026
-307.880	-200.000	-0.009	-0.104
-306.866	639.229	-0.094	-0.237
-305.851	-38.994	0.251	-0.131
-304.837	-98.689	-0.216	0.055
-303.822	-40.519	0.220	-0.114
-302.807	274.376	0.148	-0.259
-301.793	158.740	-0.233	0.321
-300.778	-200.000	-0.001	-0.185
-299.764	528.869	-0.063	0.148
-298.749	-53.167	0.132	-0.060
-297.735	158.410	-0.149	-0.206
-296.720	54.589	0.188	0.180
-295.705	-131.875	0.188	0.024
-294.691	-37.756	-0.120	-0.064
-293.676	447.507	0.170	0.371
-292.662	-200.000	0.007	-0.376
-291.647	-74.843	0.164	0.058
-290.632	522.209	0.104	-0.243
-289.618	-200.000	0.005	0.145
-288.603	800.000	-0.022	-0.080
-287.589	-200.000	0.004	0.144
-286.574	528.936	-0.119	-0.279
-285.559	-200.000	0.010	-0.107
-284.545	-124.652	0.297	-0.046
-283.530	165.030	-0.120	-0.168
-282.516	-74.349	-0.135	0.048
-281.501	-200.000	0.019	-0.102
-280.486	114.794	0.111	0.134
-279.472	499.022	0.105	0.240
-278.457	56.683	0.166	-0.160
-277.443	800.000	0.034	0.127
-276.428	-200.000	-0.014	0.000
-275.413	289.392	0.045	-0.081
-274.399	-200.000	-0.026	0.210
-273.384	33.453	0.240	-0.207
-272.370	-30.014	0.238	-0.135
-271.355	-16.055	-0.255	-0.161
-270.340	84.049	-0.010	0.011
-269.326	-69.496	-0.387	0.147
-268.311	-24.255	-0.164	0.097
-267.297	212.733	-0.202	0.316
-266.282	-200.000	-0.022	0.179
-265.267	800.000	0.042	-0.128
-264.253	-93.119	-0.091	-0.025
-263.238	233.440	0.100	-0.163
-262.224	-200.000	-0.027	0.129
-261.209	59.433	0.021	-0.020
-260.195	103.046	0.333	0.387
-259.180	800.000	0.030	-0.110
-258.165	-18.964	0.315	0.194
-257.151	-24.368	0.023	0.014
-256.136	0.937	0.157	-0.111
-255.122	-200.000	-0.006	-0.365
-254.107	62.707	-0.276	0.273
-253.092	800.000	-0.063	-0.225
-252.078	-57.950	0.111	-0.048
-251.063	800.000	-0.118	-0.323
-250.049	-44.564	0.306	-0.152
-249.034	753.798	0.024	0.065
-248.019	-143.655	0.069	0.007
-247.005	22.503	-0.070	0.057
-245.990	-82.628	-0.096	0.031
-244.976	-66.022	-0.121	-0.048
-243.961	652.850	0.060	0.152
-242.946	-63.379	-0.206	0.084
-241.932	-92.228	0.214	-0.060
-240.917	-55.503	0.305	-0.136
-239.903	-139.688	0.037	-0.004
-238.888	269.818	0.094	-0.163
-237.873	399.324	0.059	-0.121
-236.859	-12.715	-0.439	-0.283
-235.844	800.000	0.101	0.414
-234.830	-200.000	0.064	-0.280
-233.815	44.935	0.263	0.240
-232.800	-54.206	0.245	-0.110
-231.786	-200.000	0.018	-0.344
-230.771	151.194	-0.089	-0.120
-229.757	-131.988	0.279	0.036
-228.742	-170.950	-0.434	-0.015
-227.727	156.672	0.014	0.019
-226.713	83.039	-0.075	-0.081
-225.698	63.431	-0.127	0.127
-224.684	-26.029	0.227	0.132
-223.669	54.301	-0.066	-0.063
-222.655	-116.503	0.150	0.027
-221.640	35.688	0.229	0.199
-220.625	-200.000	-0.017	0.115
-219.611	6.474	-0.257	0.189
-218.596	800.000	-0.016	0.045
-217.582	558.650	-0.043	0.102
-216.567	756.939	0.116	-0.310
-215.552	-103.482	0.197	0.046
-214.538	122.642	0.121	0.149
-213.523	-200.000	-0.036	-0.309
-212.509	800.000	0.072	0.305
-211.494	306.083	-0.080	-0.147
-210.479	-200.000	0.007	0.207
-209.465	-39.806	-0.467	0.241
-208.450	-82.021	-0.118	0.038
-207.436	-200.000	-0.052	0.423
-206.421	-53.021	-0.219	-0.099
-205.406	-12.826	0.080	0.052
-204.392	-1.013	-0.118	0.082
-203.377	147.585	0.179	-0.238
-202.363	2.414	0.366	-0.262
-201.348	97.555	0.135	0.154
-200.333	-29.169	0.135	-0.076
-199.319	-133.315	0.088	0.011
-198.304	20.566	-0.096	-0.076
-197.290	800.000	0.089	-0.293
-196.275	-200.000	-0.066	-0.312
-195.260	215.194	-0.030	-0.047
-194.246	-200.000	0.000	0.184
-193.231	311.115	-0.204	0.378
-192.217	39.492	-0.276	0.244
-191.202	-87.037	0.292	-0.088
-190.187	169.213	0.157	0.222
-189.173	277.011	-0.102	0.179
-188.158	-2.199	0.307	0.213
-187.144	-30.369	0.224	-0.126
-186.129	772.489	0.155	0.417
-185.114	-107.256	0.397	-0.086
-184.100	753.677	-0.065	-0.173
-183.085	-200.000	-0.064	0.426
-182.071	-40.475	0.037	-0.019
-181.056	-200.000	-0.015	0.109
-180.042	-200.000	0.001	0.262
-179.027	-200.000	-0.015	0.143
-178.012	118.482	-0.203	0.248
-176.998	-128.767	0.489	-0.068
-175.983	102.364	-0.136	-0.157
-174.969	800.000	0.102	0.310
-173.954	-200.000	-0.027	-0.144
-172.939	800.000	-0.041	-0.175
-171.925	21.639	0.198	0.159
-170.910	-182.126	-0.287	0.005
-169.896	-181.853	0.462	-0.009
-168.881	-200.000	-0.030	0.292
-167.866	800.000	-0.076	0.270
-166.852	-17.745	0.140	0.087
-165.837	-71.458	0.043	-0.016
-164.823	32.967	-0.150	0.128
-163.808	-56.009	0.179	0.079
-162.793	-26.902	0.250	0.144
-161.779	-200.000	-0.002	0.155
-160.764	-91.498	0.143	-0.040
-159.750	69.136	0.047	-0.048
-158.735	-176.944	0.262	0.007
-157.720	-200.000	-0.029	0.350
-156.706	70.153	0.156	-0.159
-155.691	183.428	0.168	-0.245
-154.677	-200.000	-0.011	-0.112
-153.662	-200.000	-0.182	0.001
-152.647	800.000	-0.098	-0.356
-151.633	-200.000	-0.023	-0.195
-150.618	800.000	0.102	0.286
-149.604	-65.316	0.280	-0.111
-148.589	-63.021	-0.057	-0.023
-147.574	41.471	0.126	0.112
-146.560	-200.000	-0.012	0.166
-145.545	-5.646	0.222	0.150
-144.531	-200.000	-0.063	-0.391
-143.516	121.322	0.077	0.095
-142.502	800.000	-0.152	-0.470
-141.487	136.822	0.062	0.080
-140.472	58.982	0.123	0.120
-139.458	-200.000	0.024	-0.302
-138.443	-26.723	0.102	0.059
-137.429	-21.581	0.276	-0.166
-136.414	-200.000	0.033	0.341
-135.399	135.639	0.111	0.142
-134.385	263.790	-0.067	-0.114
-133.370	800.000	0.075	0.248
-132.356	533.078	-0.090	0.209
-131.341	5.114	0.318	-0.231
-130.326	800.000	0.009	0.025
-129.312	-136.768	-0.235	-0.027
-128.297	-80.724	-0.072	-0.024
-127.283	150.182	0.191	0.255
-126.268	-128.088	0.279	-0.039
-125.253	-130.597	-0.045	-0.006
-124.239	101.399	-0.100	0.115
-123.224	-63.005	0.203	-0.083
-122.210	698.262	-0.036	0.093
-121.195	-43.615	-0.243	-0.121
-120.180	63.914	0.110	-0.109
-119.166	-137.140	0.041	-0.005
-118.151	-37.908	-0.279	-0.146
-117.137	425.056	-0.131	0.278
-116.122	-200.000	0.028	-0.194
-115.107	-120.139	-0.182	0.031
-114.093	40.628	0.051	0.046
-113.078	19.053	-0.081	-0.064
-112.064	-59.830	-0.134	0.056
-111.049	-109.277	-0.129	-0.027
-110.034	-161.006	0.292	0.015
-109.020	578.107	0.073	0.176
-108.005	425.372	0.140	-0.296
-106.991	-200.000	-0.028	0.261
-105.976	800.000	0.075	-0.225
-104.962	-41.976	-0.060	-0.030
-103.947	134.288	-0.138	0.176
-102.932	-41.837	-0.296	0.149
-101.918	139.625	-0.057	0.074
-100.903	-128.756	0.324	-0.045
-99.889	278.036	-0.054	-0.094
-98.874	-200.000	-0.004	-0.106
-97.859	-90.927	0.105	0.030
-96.845	94.626	0.288	-0.322
-95.830	-114.397	0.238	-0.045
-94.816	592.142	0.183	-0.446
-93.801	-77.636	-0.162	-0.055
-92.786	-90.384	0.254	-0.073
-91.772	-89.186	0.223	-0.065
-90.757	-19.384	-0.223	-0.136
-89.743	96.476	0.095	0.107
-88.728	-44.274	-0.165	0.081
-87.713	-91.597	0.254	-0.071
-86.699	-200.000	0.043	0.230
-85.684	25.570	-0.314	0.257
-84.670	654.490	0.060	0.152
-83.655	-76.621	-0.227	0.078
-82.640	147.288	0.188	0.249
-81.626	-129.094	0.275	-0.038
-80.611	-200.000	0.056	0.272
-79.597	601.047	0.081	-0.198
-78.582	-34.042	-0.103	0.056
-77.567	-45.530	0.433	-0.211
-76.553	800.000	-0.031	0.116
-75.538	642.582	-0.177	0.443
-74.524	205.625	0.181	0.277
-73.509	-5.744	0.306	0.206
-72.494	13.232	0.223	-0.170
-71.480	-68.734	0.333	0.127
-70.465	383.806	0.089	0.180
-69.451	395.054	0.024	-0.050
-68.436	-102.274	-0.033	0.008
-67.422	-97.331	0.066	-0.017
-66.407	-165.508	0.148	-0.006
-65.392	342.005	-0.227	0.437
-64.378	-154.362	0.178	0.012
-63.363	-131.958	-0.079	0.010
-62.349	-157.156	0.122	0.007
-61.334	44.256	-1.336	-1.206
-60.319	17.444	0.750	0.586
-59.305	684.634	-0.403	-1.035
-58.290	129.976	0.662	0.832
-57.276	491.370	0.681	1.534
-56.261	-200.000	117.929	644.525
-55.246	477.721	1554.037	3457.017
-54.232	170.317	2730.878	3842.167
-53.217	93.926	2328.459	2595.340
-52.203	32.539	2071.784	1760.186
-51.188	27.883	1987.753	1646.850
-50.173	26.648	1969.570	1620.681
-49.159	43.257	2032.172	1823.906
-48.144	42.452	2046.699	1829.538
-47.130	28.304	2004.413	1664.215
-46.115	26.169	1993.600	1635.855
-45.100	26.139	1990.615	1633.068
-44.086	26.112	1988.651	1631.149
-43.071	26.073	1985.730	1628.334
-42.057	25.976	1983.722	1625.755
-41.042	25.984	1982.037	1624.381
-40.027	26.053	1980.395	1623.585
-39.013	26.074	1977.771	1621.562
-37.998	26.058	1976.532	1620.336
-36.984	26.010	1975.050	1618.627
-35.969	26.045	1972.964	1617.164
-34.954	26.099	1970.800	1615.811
-33.940	26.090	1969.418	1614.531
-32.925	26.144	1968.101	1613.870
-31.911	26.141	1966.165	1612.197
-30.896	26.144	1964.255	1610.591
-29.881	26.087	1963.344	1609.272
-28.867	26.203	1961.542	1608.763
-27.852	26.245	1959.670	1607.538
-26.838	26.228	1957.908	1605.878
-25.823	26.156	1956.363	1603.908
-24.809	26.197	1954.116	1602.364
-23.794	26.183	1952.309	1600.698
-22.779	26.091	1951.591	1599.227
-21.765	26.195	1949.259	1598.178
-20.750	26.150	1947.720	1596.450
-19.736	26.203	1946.212	1595.624
-18.721	26.174	1944.844	1594.182
-17.706	26.194	1942.770	1592.590
-16.692	26.168	1940.744	1590.640
-15.677	26.140	1939.149	1589.026
-14.663	26.085	1938.394	1587.856
-13.648	26.102	1937.031	1586.830
-12.633	26.156	1935.360	1585.867
-11.619	26.046	1935.087	1584.614
-10.604	26.173	1932.724	1583.736
-9.590	26.114	1931.551	1582.190
-8.575	26.085	1930.798	1581.258
-7.560	26.072	1929.198	1579.776
-6.546	26.079	1927.789	1578.617
-5.531	26.163	1926.346	1578.104
-4.517	26.185	1924.965	1577.105
-3.502	26.131	1924.216	1575.956
-2.487	26.057	1923.520	1574.683
-1.473	26.142	1922.005	1574.120
-0.458	26.168	1917.203	1570.345
0.556	28.136	1897.055	1542.397
1.571	23.781	1878.401	1490.656
2.586	19.893	1901.642	1475.870
3.600	18.868	1936.261	1493.699
4.615	18.503	1929.692	1485.340
5.629	14.873	1829.991	1378.597
6.644	7.826	1717.208	1238.814
7.659	4.284	1684.233	1187.832
8.673	4.021	1680.945	1183.400
9.688	4.054	1680.213	1183.028
10.702	4.169	1679.170	1183.068
11.717	4.126	1675.318	1179.921
12.731	4.572	1674.474	1182.620
13.746	9.685	1685.744	1229.550
14.761	17.495	1703.599	1302.444
15.775	22.020	1710.892	1342.585
16.790	22.648	1711.033	1347.381
17.804	21.792	1708.504	1338.737
18.819	20.814	1705.782	1329.025
19.834	20.315	1702.868	1322.832
20.848	20.178	1701.754	1320.808
21.863	20.193	1700.742	1320.022
22.877	20.020	1699.867	1317.904
23.892	19.812	1698.877	1315.442
24.907	19.715	1697.255	1313.331
25.921	19.859	1695.673	1313.083
26.936	19.698	1694.763	1311.042
27.950	19.748	1694.232	1310.897
28.965	19.775	1693.388	1310.333
29.980	19.833	1692.985	1310.340
30.994	19.970	1691.994	1310.495
32.009	20.169	1690.703	1310.883
33.023	20.172	1690.177	1310.385
34.038	20.202	1689.129	1309.683
35.053	20.175	1687.870	1308.385
36.067	19.989	1686.610	1305.887
37.082	19.976	1685.204	1304.589
38.096	19.875	1684.687	1303.312
39.111	19.951	1683.700	1303.005
40.126	19.949	1683.329	1302.590
41.140	20.011	1682.200	1302.066
42.155	19.752	1680.430	1298.637
43.169	19.493	1678.424	1295.024
44.184	19.406	1677.331	1293.416
45.199	19.348	1676.338	1292.105
46.213	19.462	1674.757	1291.620
47.228	19.542	1674.092	1291.591
48.242	19.718	1672.970	1291.926
49.257	19.833	1672.575	1292.372
50.271	19.830	1671.115	1291.106
51.286	19.809	1670.019	1289.987
52.301	19.855	1668.480	1289.027
53.315	19.876	1667.069	1287.979
54.330	19.706	1666.081	1285.834
55.344	19.628	1663.508	1283.155
56.359	19.495	1662.352	1281.168
57.374	19.519	1661.323	1280.438
58.388	19.505	1659.983	1279.182
59.403	19.394	1659.403	1277.801
60.417	19.313	1657.933	1275.957
61.432	19.258	1657.214	1274.885
62.447	19.265	1655.822	1273.756
63.461	19.222	1654.562	1272.354
64.476	19.182	1653.054	1270.790
65.490	19.070	1652.373	1269.323
66.505	19.116	1650.970	1268.478
67.520	19.218	1649.890	1268.281
68.534	19.217	1649.211	1267.640
69.549	19.166	1648.241	1266.409
70.563	19.088	1646.889	1264.682
71.578	19.163	1645.219	1263.839
72.593	18.977	1644.428	1261.754
73.607	18.988	1642.754	1260.445
74.622	18.920	1641.395	1258.786
75.636	18.891	1641.095	1258.238
76.651	18.974	1640.536	1258.300
77.666	19.093	1639.403	1258.194
78.680	19.061	1638.894	1257.455
79.695	19.137	1637.516	1256.841
80.709	19.230	1637.154	1257.136
81.724	19.310	1636.594	1257.173
82.739	19.411	1635.756	1257.157
83.753	19.531	1634.750	1257.143
84.768	19.736	1634.042	1257.984
85.782	19.875	1633.994	1258.845
86.797	20.015	1633.180	1259.121
87.812	20.095	1632.448	1259.028
88.826	19.952	1630.820	1256.625
89.841	19.857	1629.825	1255.058
90.855	19.885	1628.752	1254.320
91.870	19.923	1628.314	1254.148
92.884	20.121	1626.984	1254.450
93.899	20.014	1626.848	1253.461
94.914	20.202	1624.548	1252.934
95.928	20.183	1623.518	1251.888
96.943	20.177	1622.206	1250.723
97.957	20.165	1621.305	1249.837
98.972	20.037	1619.191	1247.175
99.987	19.975	1618.432	1246.027
101.001	20.008	1616.386	1244.585
102.016	20.054	1614.822	1243.596
103.030	19.937	1614.085	1242.078
104.045	19.986	1612.899	1241.409
105.060	19.966	1611.542	1240.114
106.074	19.928	1610.066	1238.595
107.089	19.789	1607.653	1235.637
108.103	19.418	1605.883	1231.522
109.118	19.157	1604.502	1228.490
110.133	19.167	1602.968	1227.279
111.147	19.040	1602.120	1225.614
112.162	19.131	1600.617	1225.002
113.176	19.211	1599.104	1224.305
114.191	19.258	1597.943	1223.641
115.206	19.360	1596.659	1223.273
116.220	19.360	1595.466	1222.251
117.235	19.425	1594.163	1221.608
118.249	19.197	1592.674	1218.746
119.264	19.306	1591.189	1218.271
120.279	19.157	1590.301	1216.433
121.293	19.133	1588.788	1214.999
122.308	19.060	1587.441	1213.342
123.322	18.947	1585.430	1210.904
124.337	18.877	1584.058	1209.255
125.352	18.832	1582.277	1207.476
126.366	18.818	1581.403	1206.600
127.381	18.907	1580.027	1206.067
128.395	18.817	1579.036	1204.576
129.410	18.851	1577.065	1203.206
130.424	18.804	1576.802	1202.565
131.439	18.975	1574.903	1202.210
132.454	19.160	1573.751	1202.514
133.468	19.128	1572.726	1201.397
134.483	19.208	1571.432	1200.862
135.497	19.207	1570.613	1200.128
136.512	19.296	1568.609	1199.109
137.527	19.373	1567.679	1198.822
138.541	19.374	1566.222	1197.610
139.556	19.440	1564.814	1196.886
140.570	19.530	1563.387	1196.315
141.585	19.537	1562.831	1195.830
142.600	19.666	1561.733	1195.779
143.614	19.804	1560.623	1195.774
144.629	19.926	1559.460	1195.625
145.643	20.048	1558.516	1195.635
146.658	20.089	1557.036	1194.675
147.673	19.805	1556.171	1191.952
148.687	19.848	1553.991	1190.469
149.702	19.644	1552.801	1188.054
150.716	19.529	1550.878	1185.688
151.731	19.405	1549.366	1183.571
152.746	19.423	1547.923	1182.491
153.760	19.357	1546.330	1180.717
154.775	19.462	1545.252	1180.505
155.789	19.609	1544.211	1180.614
156.804	19.649	1542.819	1179.713
157.819	19.717	1542.061	1179.494
158.833	19.751	1541.230	1178.991
159.848	19.876	1539.670	1178.544
160.862	19.998	1538.550	1178.408
161.877	20.137	1537.245	1178.253
162.892	19.870	1536.281	1175.591
163.906	19.535	1534.896	1172.158
164.921	19.429	1533.009	1169.893
165.935	19.349	1531.976	1168.457
166.950	19.479	1530.681	1168.249
167.964	19.528	1529.691	1167.719
168.979	19.623	1529.228	1167.906
169.994	19.655	1527.805	1166.934
171.008	19.561	1526.494	1165.194
172.023	19.602	1525.283	1164.440
173.037	19.580	1524.815	1163.832
174.052	19.776	1524.063	1164.473
175.067	19.913	1523.145	1164.594
176.081	19.726	1521.324	1161.842
177.096	19.450	1519.578	1158.552
178.110	19.415	1518.011	1157.023
179.125	19.480	1517.042	1156.616
180.140	19.500	1516.433	1156.185
181.154	19.521	1515.852	1155.777
182.169	19.714	1514.614	1156.022
183.183	19.838	1513.554	1155.943
184.198	19.915	1512.250	1155.356
185.213	19.994	1511.282	1155.043
186.227	19.935	1510.629	1154.044
187.242	20.097	1509.566	1154.212
188.256	20.069	1509.037	1153.519
189.271	20.068	1508.084	1152.681
190.286	20.189	1506.699	1152.324
191.300	20.110	1506.042	1151.194
192.315	19.753	1504.070	1147.220
193.329	19.428	1502.409	1143.693
194.344	19.394	1501.408	1142.609
195.359	19.527	1500.299	1142.544
196.373	19.606	1499.484	1142.346
197.388	19.717	1498.477	1142.208
198.402	19.786	1497.815	1142.055
199.417	19.993	1496.848	1142.589
200.432	20.124	1496.421	1143.024
201.446	20.260	1495.816	1143.355
202.461	20.421	1494.661	1143.432
203.475	20.491	1493.834	1143.156
204.490	20.522	1493.016	1142.632
205.504	20.324	1491.901	1140.379
206.519	20.193	1489.855	1137.854
207.534	20.001	1488.945	1135.798
208.548	19.973	1487.766	1134.615
209.563	19.953	1486.847	1133.687
210.577	19.988	1485.849	1133.052
211.592	19.993	1485.244	1132.522
212.607	19.973	1483.963	1131.318
213.621	20.143	1483.889	1132.273
214.636	20.385	1483.108	1133.156
215.650	20.257	1481.321	1130.853
216.665	20.173	1481.028	1129.986
217.680	20.312	1480.449	1130.347
218.694	20.386	1479.840	1130.262
219.709	20.580	1479.093	1130.856
220.723	20.557	1477.716	1129.554
221.738	20.382	1477.079	1127.829
222.753	20.425	1475.823	1127.047
223.767	20.353	1475.027	1125.876
224.782	20.273	1473.891	1124.390
225.796	20.376	1473.204	1124.432
226.811	20.647	1472.329	1125.416
227.826	20.570	1472.156	1124.691
228.840	20.631	1470.379	1123.623
229.855	20.408	1469.304	1121.263
230.869	20.310	1468.243	1119.727
231.884	20.240	1467.443	1118.567
232.899	20.208	1466.091	1117.230
233.913	20.127	1464.941	1115.734
234.928	20.090	1463.482	1114.286
235.942	19.950	1462.944	1112.878
236.957	20.028	1460.906	1111.731
237.972	20.001	1459.499	1110.388
238.986	20.073	1458.131	1109.707
240.001	19.998	1457.410	1108.579
241.015	20.051	1456.672	1108.262
242.030	19.972	1455.971	1107.125
243.045	20.052	1455.576	1107.238
244.059	20.242	1454.490	1107.523
245.074	20.202	1453.702	1106.571
246.088	20.230	1453.037	1106.146
247.103	20.450	1452.084	1106.728
248.117	20.520	1451.562	1106.677
249.132	20.606	1451.197	1106.847
250.147	20.793	1450.414	1107.342
251.161	21.020	1450.044	1108.405
252.176	21.140	1449.907	1108.961
253.190	21.335	1448.907	1109.336
254.205	21.289	1448.167	1108.379
255.220	21.512	1447.457	1109.153
256.234	21.460	1446.551	1108.031
257.249	21.551	1445.711	1107.868
258.263	21.456	1445.094	1106.697
259.278	21.313	1444.422	1105.175
260.293	21.306	1443.170	1104.074
261.307	21.352	1441.890	1103.292
262.322	21.482	1441.418	1103.654
263.336	21.525	1440.770	1103.329
264.351	21.607	1439.743	1102.960
265.366	21.469	1439.044	1101.461
266.380	21.505	1438.094	1100.861
267.395	21.507	1437.241	1100.124
268.409	21.561	1436.104	1099.497
269.424	21.451	1434.919	1097.801
270.439	21.292	1433.535	1095.647
271.453	21.273	1432.813	1094.880
272.468	21.244	1431.849	1093.866
273.482	21.099	1431.490	1092.589
274.497	21.119	1430.069	1091.529
275.512	21.105	1428.914	1090.462
276.526	20.986	1428.340	1089.184
277.541	21.075	1427.428	1088.947
278.555	21.105	1426.193	1088.101
279.570	21.112	1425.588	1087.586
280.585	21.194	1424.951	1087.513
281.599	21.431	1424.730	1088.724
282.614	21.582	1423.224	1088.417
283.628	21.480	1421.956	1086.714
284.643	21.291	1420.814	1084.576
285.657	21.117	1419.975	1082.756
286.672	21.180	1418.393	1081.845
287.687	21.314	1417.462	1081.871
288.701	21.255	1416.551	1080.714
289.716	21.154	1416.166	1079.697
290.730	21.269	1415.239	1079.605
291.745	21.214	1414.535	1078.634
292.760	21.238	1413.170	1077.649
293.774	21.249	1412.233	1076.907
294.789	21.309	1411.705	1076.779
295.803	21.522	1410.807	1077.308
296.818	21.579	1410.502	1077.328
297.833	21.413	1409.273	1075.275
298.847	21.294	1407.845	1073.360
299.862	21.295	1406.849	1072.512
300.876	21.294	1405.905	1071.694
301.891	21.290	1404.755	1070.698
302.906	21.365	1404.305	1070.716
303.920	21.525	1403.723	1071.162
304.935	21.595	1403.259	1071.137
305.949	21.726	1402.912	1071.577
306.964	21.860	1401.956	1071.571
307.979	21.856	1401.320	1070.971
308.993	21.828	1399.602	1069.387
310.008	21.670	1398.902	1067.795
311.022	21.669	1398.134	1067.108
312.037	21.783	1397.116	1066.934
313.052	21.766	1396.318	1066.128
314.066	21.673	1394.727	1064.252
315.081	21.549	1393.623	1062.561
316.095	21.435	1391.917	1060.475
317.110	21.242	1390.974	1058.494
318.125	21.242	1389.999	1057.656
319.139	21.313	1389.305	1057.468
320.154	21.264	1387.981	1056.068
321.168	21.225	1386.963	1054.965
322.183	21.299	1385.809	1054.442
323.197	21.269	1385.048	1053.587
324.212	21.323	1384.009	1053.029
325.227	21.459	1383.719	1053.537
326.241	21.450	1383.231	1053.019
327.256	21.552	1381.813	1052.459
328.270	21.445	1381.353	1051.372
329.285	21.523	1379.935	1050.665
330.300	21.389	1379.156	1049.175
331.314	21.352	1378.104	1048.062
332.329	21.313	1377.443	1047.230
333.343	21.350	1376.703	1046.796
334.358	21.438	1375.873	1046.599
335.373	21.552	1375.409	1046.836
336.387	21.718	1374.676	1047.178
337.402	21.707	1373.953	1046.471
338.416	21.774	1373.399	1046.353
339.431	21.822	1372.977	1046.225
340.446	21.830	1372.644	1045.928
341.460	22.053	1371.381	1046.205
342.475	22.157	1370.466	1046.032
343.489	22.232	1369.951	1045.994
344.504	22.308	1368.756	1045.438
345.519	22.356	1367.792	1044.892
346.533	22.487	1366.956	1044.943
347.548	22.453	1366.090	1043.986
348.562	22.495	1365.467	1043.668
349.577	22.453	1365.114	1043.055
350.592	22.308	1363.966	1041.227
351.606	22.013	1362.143	1038.001
352.621	21.849	1361.120	1036.160
353.635	21.760	1359.918	1034.630
354.650	21.719	1358.957	1033.561
355.665	21.695	1357.516	1032.234
356.679	21.768	1356.861	1032.073
357.694	21.891	1356.050	1032.091
358.708	21.964	1354.716	1031.411
359.723	21.966	1354.296	1031.010
360.738	22.143	1353.054	1031.016
361.752	22.082	1352.113	1029.851
362.767	22.000	1351.119	1028.521
363.781	22.110	1350.187	1028.366
364.796	22.150	1349.112	1027.687
365.810	22.214	1348.808	1027.737
366.825	22.300	1348.371	1027.820
367.840	22.607	1347.641	1028.964
368.854	22.753	1346.914	1029.171
369.869	22.810	1346.787	1029.312
370.883	22.841	1346.088	1028.867
371.898	22.628	1345.052	1026.744
372.913	22.543	1343.938	1025.310
373.927	22.446	1342.912	1023.870
374.942	22.487	1342.053	1023.364
375.956	22.511	1341.987	1023.362
376.971	22.592	1340.700	1022.759
377.986	22.620	1340.006	1022.304
379.000	22.614	1339.030	1021.431
380.015	22.708	1338.551	1021.522
381.029	22.744	1338.050	1021.258
382.044	23.015	1336.892	1021.850
383.059	22.915	1336.731	1021.057
384.073	22.802	1336.370	1020.041
385.088	22.801	1335.414	1019.213
386.102	22.849	1334.902	1019.011
387.117	23.009	1333.540	1018.801
388.132	22.787	1332.846	1016.904
389.146	22.466	1331.322	1013.802
390.161	22.496	1330.766	1013.462
391.175	22.450	1329.593	1012.218
392.190	22.406	1328.789	1011.260
393.205	22.500	1328.435	1011.442
394.219	22.651	1327.579	1011.568
395.234	22.875	1326.477	1011.919
396.248	22.665	1325.317	1009.744
397.263	22.700	1323.117	1008.179
398.278	22.615	1322.044	1006.786
399.292	22.382	1321.098	1004.646
400.307	22.354	1319.757	1003.378
401.321	22.277	1318.716	1002.061
402.336	22.268	1317.874	1001.281
403.350	22.218	1316.733	1000.039
404.365	22.161	1315.745	998.878
405.380	22.337	1314.767	999.048
406.394	22.485	1313.990	999.208
407.409	22.709	1313.253	999.825
408.423	22.687	1313.179	999.559
409.438	22.706	1312.890	999.356
410.453	22.924	1312.017	999.839
411.467	23.039	1311.335	999.882
412.482	23.024	1310.551	999.110
413.496	23.134	1310.249	999.415
414.511	23.261	1309.361	999.366
415.526	23.189	1309.028	998.614
416.540	23.280	1308.502	998.637
417.555	23.484	1307.895	999.238
418.569	23.433	1307.167	998.304
419.584	23.282	1306.481	996.843
420.599	23.166	1305.544	995.389
421.613	147.757	1436.194	1797.444
422.628	143.169	1455.185	1797.543
