DTS Sentinel unit serial number:	SN413079Multiplexer serial number:	ORYXHardware model number:	OX4-SRSoftware version number:	ORYX F/W v4.00 Oryx Data Collector v3.7.2.0data status	okinstallation	princeton_trtdifferential loss correction	single-endedforward channel	channel 4reverse channel	N/Adate	2019/09/12time	10:51:11forward acquisition time	60.00reverse acquisition time	0.00gamma	496.2192k internal	0.2293k external	0.2293temperature offset calibration	1.0068default loss term (dB/km)	0.3790temperature slope calibration	1.0000multiplexer offset coefficient	1.0000multiplexer slope coefficient	1.0000fibre end	0.00T internal ref (°C)	37.98T ext. ref 1 (°C)	1.92T ext. ref 2 (°C)	36.54length (m)	temperature (°C)	Stokes	anti-Stokes-747.200	-200.000	-0.000	0.155
-746.185	309.561	-0.140	-0.268
-745.171	-77.875	0.295	-0.104
-744.156	-84.137	0.086	-0.028
-743.142	-126.628	0.191	-0.029
-742.127	396.003	-0.105	0.224
-741.112	-98.405	-0.126	-0.033
-740.098	800.000	0.052	0.221
-739.083	512.751	0.075	-0.180
-738.069	-200.000	-0.047	0.243
-737.054	800.000	-0.101	0.293
-736.039	91.010	-0.301	-0.345
-735.025	-140.366	-0.266	0.028
-734.010	45.811	-0.217	-0.205
-732.996	-200.000	0.014	0.099
-731.981	180.804	0.064	-0.096
-730.966	800.000	-0.039	-0.168
-729.952	256.219	0.136	-0.239
-728.937	-49.261	-0.119	-0.058
-727.923	214.773	0.185	-0.300
-726.908	-75.479	-0.115	-0.042
-725.894	482.100	-0.043	0.100
-724.879	-90.117	-0.153	-0.046
-723.864	-58.509	-0.261	0.116
-722.850	-134.700	0.120	0.015
-721.835	-101.712	0.154	0.038
-720.821	169.539	-0.146	-0.213
-719.806	303.016	0.008	-0.016
-718.791	-97.353	-0.298	0.079
-717.777	800.000	-0.054	0.178
-716.762	42.120	-0.097	0.090
-715.748	127.992	0.132	0.171
-714.733	67.763	-0.209	0.219
-713.718	-200.000	-0.016	0.223
-712.704	1.731	-0.109	0.080
-711.689	-200.000	-0.008	-0.117
-710.675	-19.696	0.174	-0.110
-709.660	-137.009	-0.100	-0.012
-708.645	279.250	0.077	0.141
-707.631	-109.608	-0.426	-0.092
-706.616	-200.000	-0.083	0.386
-705.602	-133.972	-0.326	-0.041
-704.587	300.880	-0.097	-0.183
-703.572	800.000	-0.033	-0.105
-702.558	-46.497	-0.021	-0.010
-701.543	-105.660	0.341	-0.079
-700.529	-134.728	-0.215	-0.027
-699.514	43.914	-0.361	0.338
-698.499	-200.000	-0.008	0.077
-697.485	-200.000	0.031	0.358
-696.470	690.776	0.071	-0.191
-695.456	16.413	0.303	-0.244
-694.441	-183.890	0.251	-0.004
-693.426	800.000	0.065	-0.241
-692.412	-27.501	-0.296	-0.176
-691.397	-200.000	0.079	-0.452
-690.383	-147.855	-0.125	0.011
-689.368	-200.000	0.040	0.193
-688.354	122.672	-0.040	-0.051
-687.339	119.376	0.082	0.103
-686.324	-155.067	-0.310	0.021
-685.310	292.391	-0.116	-0.216
-684.295	24.414	-0.196	-0.165
-683.281	-89.910	0.108	-0.032
-682.266	-143.987	-0.298	0.029
-681.251	81.062	0.085	-0.094
-680.237	-200.000	0.014	0.191
-679.222	-45.713	-0.247	0.125
-678.208	-200.000	-0.073	0.524
-677.193	24.613	0.049	0.042
-676.178	60.201	0.078	0.079
-675.164	800.000	0.033	-0.094
-674.149	-17.433	-0.217	-0.139
-673.135	8.219	0.068	-0.052
-672.120	-3.700	-0.365	-0.259
-671.105	-11.725	0.148	0.099
-670.091	-124.730	0.214	-0.034
-669.076	-200.000	-0.169	0.000
-668.062	224.909	-0.168	0.276
-667.047	69.392	0.144	-0.152
-666.032	800.000	0.011	0.042
-665.018	800.000	-0.048	-0.181
-664.003	-107.509	0.330	0.074
-662.989	-7.955	-0.254	-0.175
-661.974	-46.973	-0.129	0.064
-660.959	398.198	0.136	-0.291
-659.945	800.000	0.056	0.162
-658.930	-112.531	-0.338	-0.069
-657.916	-200.000	-0.056	-0.328
-656.901	-86.911	0.359	-0.112
-655.886	-45.334	-0.116	-0.059
-654.872	-200.000	0.002	0.249
-653.857	-200.000	-0.009	0.070
-652.843	410.998	-0.147	0.319
-651.828	-179.013	0.270	0.006
-650.814	345.045	-0.107	-0.214
-649.799	-159.883	-0.355	0.020
-648.784	800.000	-0.060	-0.181
-647.770	133.711	0.197	-0.259
-646.755	-124.922	0.026	0.004
-645.741	-136.055	-0.236	0.028
-644.726	364.164	-0.059	0.121
-643.711	800.000	-0.042	-0.161
-642.697	111.208	-0.127	0.156
-641.682	624.342	-0.045	0.117
-640.668	-155.608	0.253	0.017
-639.653	800.000	0.057	0.240
-638.638	-170.676	-0.375	-0.013
-637.624	26.309	0.210	-0.179
-636.609	619.822	-0.007	0.017
-635.595	-134.699	-0.101	-0.012
-634.580	-200.000	0.004	0.033
-633.565	800.000	0.123	-0.538
-632.551	-200.000	-0.001	-0.112
-631.536	-107.131	-0.206	0.046
-630.522	-11.907	0.181	0.121
-629.507	800.000	0.050	0.172
-628.492	102.087	-0.134	-0.159
-627.478	639.177	0.100	-0.259
-626.463	-11.504	0.164	-0.110
-625.449	677.183	0.035	0.094
-624.434	105.668	-0.092	0.111
-623.419	800.000	0.025	-0.071
-622.405	-0.588	0.259	0.187
-621.390	800.000	0.019	-0.082
-620.376	-200.000	-0.011	0.070
-619.361	-20.310	0.110	0.069
-618.346	152.208	0.175	0.244
-617.332	31.678	0.323	0.283
-616.317	8.761	-0.330	0.253
-615.303	465.062	-0.051	-0.117
-614.288	-70.829	-0.028	-0.011
-613.273	79.410	0.102	-0.111
-612.259	-200.000	0.002	0.025
-611.244	-200.000	0.000	-0.224
-610.230	125.122	-0.124	-0.159
-609.215	-60.594	-0.273	-0.118
-608.201	-118.653	-0.057	0.010
-607.186	800.000	-0.086	-0.308
-606.171	-200.000	-0.026	-0.133
-605.157	-12.318	0.376	-0.250
-604.142	-54.627	-0.298	0.137
-603.128	169.971	-0.120	0.175
-602.113	-171.366	0.092	-0.003
-601.098	-30.085	-0.136	-0.079
-600.084	-54.617	-0.178	0.082
-599.069	800.000	0.094	0.340
-598.055	571.258	-0.161	0.399
-597.040	-17.314	0.316	0.203
-596.025	-200.000	-0.070	-0.381
-595.011	-119.782	0.153	-0.027
-593.996	-66.010	0.037	-0.015
-592.982	-200.000	-0.005	-0.031
-591.967	-144.874	-0.253	0.024
-590.952	-76.423	-0.502	-0.180
-589.938	-200.000	0.014	-0.131
-588.923	565.826	-0.193	-0.476
-587.909	-200.000	0.020	-0.232
-586.894	-200.000	-0.022	0.122
-585.879	-118.161	-0.352	0.064
-584.865	-185.086	0.297	0.005
-583.850	150.512	-0.106	0.146
-582.836	-143.535	-0.234	-0.023
-581.821	129.894	0.108	0.140
-580.806	31.662	0.265	-0.231
-579.792	-56.164	-0.236	-0.107
-578.777	-61.273	0.349	0.150
-577.763	209.852	0.077	0.123
-576.748	-200.000	-0.017	-0.076
-575.733	-200.000	-0.047	-0.344
-574.719	-133.226	0.230	-0.030
-573.704	90.114	-0.308	0.349
-572.690	16.690	-0.122	0.098
-571.675	-59.105	0.201	0.088
-570.661	-200.000	-0.026	-0.139
-569.646	-68.004	0.258	-0.102
-568.631	-200.000	0.012	-0.209
-567.617	-44.045	-0.102	0.052
-566.602	45.262	-0.196	0.183
-565.588	18.442	0.086	-0.070
-564.573	10.171	-0.287	-0.221
-563.558	-200.000	0.029	-0.432
-562.544	-68.002	-0.304	-0.121
-561.529	74.732	-0.201	-0.215
-560.515	-200.000	-0.011	-0.232
-559.500	-57.547	0.403	-0.180
-558.485	-79.454	-0.346	0.119
-557.471	-64.837	0.235	0.096
-556.456	307.533	-0.156	-0.294
-555.442	330.255	-0.142	-0.278
-554.427	-200.000	-0.025	0.192
-553.412	800.000	-0.037	0.142
-552.398	-65.787	-0.123	-0.050
-551.383	-114.548	-0.057	0.011
-550.369	323.924	0.124	-0.241
-549.354	-27.581	0.128	0.076
-548.339	800.000	0.060	-0.202
-547.325	33.173	0.317	0.279
-546.310	-200.000	0.015	0.081
-545.296	-200.000	0.074	-0.487
-544.281	800.000	-0.113	0.356
-543.266	-19.038	-0.212	-0.134
-542.252	-165.822	0.251	0.011
-541.237	-181.479	-0.577	-0.011
-540.223	-37.946	0.205	0.110
-539.208	-8.124	0.246	0.169
-538.193	330.487	-0.141	0.275
-537.179	-31.428	0.250	0.143
-536.164	-12.293	-0.277	0.184
-535.150	474.392	0.047	-0.107
-534.135	113.751	0.127	0.157
-533.121	465.443	0.084	-0.191
-532.106	271.049	0.140	0.249
-531.091	-200.000	0.014	-0.210
-530.077	-163.932	0.301	-0.014
-529.062	87.882	-0.061	-0.069
-528.048	-111.838	-0.223	0.046
-527.033	-4.803	-0.220	-0.154
-526.018	-200.000	0.026	-0.324
-525.004	-200.000	0.003	-0.171
-523.989	-200.000	0.036	0.192
-522.975	-132.638	0.255	0.033
-521.960	381.807	0.075	-0.156
-520.945	-72.123	0.315	0.119
-519.931	-93.346	-0.250	0.070
-518.916	-200.000	-0.018	-0.263
-517.902	-158.264	0.146	-0.009
-516.887	0.737	0.162	0.117
-515.872	-9.228	-0.021	0.014
-514.858	-200.000	0.016	-0.597
-513.843	239.719	-0.129	-0.218
-512.829	-14.028	-0.223	-0.146
-511.814	11.777	0.128	-0.099
-510.799	143.861	0.088	-0.118
-509.785	-200.000	0.008	-0.101
-508.770	-155.062	-0.435	-0.029
-507.756	235.809	-0.162	-0.271
-506.741	-200.000	-0.010	-0.265
-505.726	-66.922	0.145	0.058
-504.712	-51.573	-0.327	0.154
-503.697	-66.827	-0.189	0.076
-502.683	-95.380	0.199	0.054
-501.668	-83.793	0.201	-0.065
-500.653	800.000	-0.201	0.581
-499.639	-200.000	-0.037	0.237
-498.624	19.370	-0.035	0.028
-497.610	13.326	0.111	-0.087
-496.595	82.965	0.207	0.228
-495.581	-4.817	-0.116	0.081
-494.566	-31.820	0.222	0.126
-493.551	-170.191	-0.239	0.009
-492.537	-26.288	-0.129	0.077
-491.522	800.000	-0.072	-0.289
-490.508	-200.000	-0.002	-0.033
-489.493	-51.677	0.140	0.066
-488.478	-200.000	-0.025	-0.143
-487.464	-200.000	-0.023	-0.205
-486.449	702.757	-0.032	-0.086
-485.435	800.000	0.056	-0.161
-484.420	800.000	-0.032	0.134
-483.405	-27.691	0.070	0.041
-482.391	3.511	-0.176	-0.130
-481.376	-151.189	-0.426	-0.032
-480.362	-26.838	0.134	0.079
-479.347	151.694	0.055	0.075
-478.332	198.782	0.055	0.085
-477.318	-200.000	0.050	0.231
-476.303	-182.520	0.240	-0.004
-475.289	-70.728	-0.291	-0.111
-474.274	282.404	0.132	0.240
-473.259	-200.000	-0.002	0.197
-472.245	-136.602	-0.242	0.028
-471.230	-153.537	-0.165	-0.012
-470.216	-200.000	0.007	0.231
-469.201	-200.000	-0.003	0.193
-468.186	10.743	0.086	0.067
-467.172	-18.348	-0.222	-0.141
-466.157	41.802	-0.139	-0.128
-465.143	-1.773	0.193	0.137
-464.128	97.193	-0.066	-0.077
-463.113	77.780	0.100	0.108
-462.099	284.732	-0.096	0.174
-461.084	88.749	0.088	-0.099
-460.070	-97.074	0.312	0.083
-459.055	-147.761	0.280	-0.024
-458.040	587.097	-0.060	-0.149
-457.026	-200.000	-0.002	-0.066
-456.011	-200.000	-0.056	-0.302
-454.997	800.000	0.075	0.291
-453.982	-200.000	0.023	0.108
-452.968	800.000	-0.083	-0.256
-451.953	-13.698	0.293	0.192
-450.938	7.661	0.116	0.088
-449.924	242.765	-0.055	0.094
-448.909	207.508	0.237	-0.373
-447.895	800.000	0.043	-0.126
-446.880	164.159	-0.062	0.088
-445.865	-12.357	-0.350	-0.231
-444.851	299.451	-0.077	0.143
-443.836	2.152	0.071	0.052
-442.822	63.183	-0.058	-0.059
-441.807	-136.230	-0.170	-0.020
-440.792	-200.000	-0.021	0.256
-439.778	-200.000	-0.001	0.048
-438.763	96.068	-0.201	0.233
-437.749	-27.167	0.140	-0.083
-436.734	-100.334	-0.307	-0.077
-435.719	-200.000	-0.037	0.169
-434.705	34.323	-0.267	-0.236
-433.690	-200.000	-0.017	-0.142
-432.676	99.969	-0.040	0.047
-431.661	-37.461	0.133	-0.072
-430.646	-49.711	-0.180	0.087
-429.632	11.953	0.194	0.151
-428.617	800.000	0.017	-0.055
-427.603	-86.481	-0.203	0.063
-426.588	-128.399	0.593	-0.085
-425.573	229.388	0.049	0.080
-424.559	116.443	0.194	-0.240
-423.544	82.591	-0.182	-0.200
-422.530	-164.219	0.169	-0.008
-421.515	0.517	-0.187	-0.135
-420.500	-200.000	-0.013	-0.116
-419.486	-200.000	-0.009	0.179
-418.471	-168.811	-0.229	0.009
-417.457	800.000	-0.067	-0.252
-416.442	109.906	-0.245	-0.297
-415.428	800.000	0.085	-0.301
-414.413	-96.963	-0.112	0.030
-413.398	-200.000	0.013	0.355
-412.384	305.263	0.196	-0.367
-411.369	40.325	-0.079	0.072
-410.355	277.137	0.064	-0.115
-409.340	-98.814	-0.232	0.060
-408.325	-200.000	0.022	0.210
-407.311	-27.760	0.271	-0.158
-406.296	390.599	0.126	0.264
-405.282	-77.023	-0.340	-0.120
-404.267	-122.401	-0.243	-0.040
-403.252	27.848	0.170	0.144
-402.238	8.111	-0.270	-0.204
-401.223	-94.046	0.200	-0.055
-400.209	-200.000	0.098	0.452
-399.194	74.892	-0.003	0.004
-398.179	-200.000	0.024	0.118
-397.165	-200.000	0.024	0.251
-396.150	251.743	0.038	-0.066
-395.136	-200.000	0.008	0.244
-394.121	-200.000	0.002	-0.024
-393.106	274.370	-0.222	0.396
-392.092	138.925	0.138	-0.183
-391.077	19.756	-0.139	0.113
-390.063	26.311	0.240	-0.202
-389.048	577.303	-0.057	0.141
-388.033	219.548	-0.232	0.374
-387.019	325.484	-0.232	0.448
-386.004	-200.000	-0.025	0.123
-384.990	-117.060	0.325	0.060
-383.975	439.757	0.091	0.202
-382.960	-94.335	0.088	-0.024
-381.946	-146.333	0.144	0.013
-380.931	800.000	0.038	-0.148
-379.917	800.000	0.072	-0.255
-378.902	575.054	-0.151	-0.371
-377.888	407.301	0.035	0.074
-376.873	800.000	0.043	-0.123
-375.858	-87.874	-0.295	0.090
-374.844	-110.555	-0.317	0.066
-373.829	-2.757	0.133	-0.094
-372.815	-200.000	0.024	0.230
-371.800	19.745	0.106	-0.086
-370.785	-85.454	-0.074	0.023
-369.771	39.623	0.113	-0.102
-368.756	-200.000	0.014	0.108
-367.742	-141.133	-0.370	-0.038
-366.727	800.000	0.019	-0.053
-365.712	-75.375	0.168	-0.060
-364.698	-60.210	-0.401	0.172
-363.683	-109.094	0.332	-0.071
-362.669	342.875	0.202	-0.398
-361.654	800.000	0.118	-0.351
-360.639	-53.218	-0.074	-0.034
-359.625	-83.590	0.069	0.022
-358.610	-6.839	-0.148	-0.101
-357.596	104.537	0.100	0.118
-356.581	326.710	-0.086	0.166
-355.566	404.073	0.070	0.149
-354.552	-200.000	-0.058	-0.280
-353.537	800.000	0.037	0.162
-352.523	-82.183	-0.293	-0.096
-351.508	-138.567	-0.067	0.007
-350.493	395.820	-0.071	0.149
-349.479	-143.265	-0.047	0.005
-348.464	-102.620	0.152	-0.037
-347.450	229.972	-0.051	-0.085
-346.435	-200.000	0.001	-0.018
-345.420	163.730	-0.129	0.182
-344.406	200.803	-0.127	-0.196
-343.391	77.104	0.249	-0.267
-342.377	-120.143	0.135	0.023
-341.362	-10.831	0.070	0.046
-340.348	-122.730	0.240	0.039
-339.333	537.038	-0.158	-0.379
-338.318	-61.444	0.419	-0.177
-337.304	-200.000	0.019	-0.094
-336.289	-102.874	0.118	0.028
-335.275	800.000	-0.074	-0.284
-334.260	121.680	0.279	0.351
-333.245	-50.811	-0.224	0.106
-332.231	-200.000	-0.004	-0.308
-331.216	-2.087	-0.240	-0.170
-330.202	-49.158	0.188	-0.090
-329.187	61.848	-0.064	-0.064
-328.172	169.550	0.216	-0.311
-327.158	-200.000	-0.003	0.349
-326.143	-10.472	0.064	-0.043
-325.129	-118.637	0.143	0.025
-324.114	800.000	0.179	0.523
-323.099	-184.828	0.288	-0.005
-322.085	186.028	-0.067	-0.100
-321.070	131.620	-0.095	-0.123
-320.056	800.000	0.086	0.276
-319.041	-200.000	-0.015	-0.110
-318.026	105.933	-0.230	-0.274
-317.012	-120.268	0.063	-0.011
-315.997	800.000	-0.067	0.202
-314.983	-200.000	0.045	-0.443
-313.968	-200.000	0.000	0.169
-312.953	800.000	-0.050	0.198
-311.939	226.372	-0.129	0.211
-310.924	157.130	-0.141	0.196
-309.910	-115.827	0.396	-0.074
-308.895	-200.000	-0.017	0.174
-307.880	57.554	0.214	0.210
-306.866	-145.918	0.186	0.017
-305.851	-49.343	0.112	-0.054
-304.837	-134.662	-0.212	0.026
-303.822	-200.000	-0.048	0.234
-302.807	-120.424	-0.217	0.037
-301.793	24.016	-0.129	-0.107
-300.778	207.550	-0.146	0.230
-299.764	143.131	-0.075	-0.100
-298.749	-200.000	-0.054	0.277
-297.735	-44.196	0.260	0.131
-296.720	-116.227	0.307	0.057
-295.705	-64.249	-0.253	-0.103
-294.691	52.474	-0.234	-0.225
-293.676	-126.348	0.279	-0.042
-292.662	-67.322	-0.151	-0.060
-291.647	-23.032	-0.188	-0.114
-290.632	-193.801	-0.055	-0.000
-289.618	-52.616	0.339	0.157
-288.603	302.319	0.021	0.040
-287.589	-69.145	0.286	0.111
-286.574	1.139	-0.104	0.075
-285.559	-135.946	-0.296	0.035
-284.545	-200.000	0.019	0.316
-283.530	800.000	0.022	-0.070
-282.516	-137.132	0.533	-0.061
-281.501	-156.654	0.177	-0.011
-280.486	301.754	-0.127	0.235
-279.472	-38.507	0.352	0.187
-278.457	800.000	-0.029	0.084
-277.443	129.013	0.010	-0.013
-276.428	-158.393	0.145	-0.008
-275.413	-30.327	-0.051	0.029
-274.399	800.000	-0.070	-0.277
-273.384	-109.021	0.240	-0.051
-272.370	-174.525	-0.511	-0.015
-271.355	-200.000	0.014	0.068
-270.340	-157.551	0.114	-0.007
-269.326	800.000	-0.052	-0.163
-268.311	800.000	-0.126	0.397
-267.297	-154.524	-0.062	0.004
-266.282	-107.524	0.028	-0.006
-265.267	-177.278	0.132	-0.003
-264.253	-100.600	0.348	0.086
-263.238	-142.622	0.309	-0.030
-262.224	575.948	0.111	0.273
-261.209	-164.991	0.338	-0.015
-260.195	-111.148	0.183	-0.038
-259.180	119.913	-0.097	-0.120
-258.165	-131.372	-0.152	-0.020
-257.151	800.000	0.069	0.298
-256.136	26.537	-0.158	0.133
-255.122	668.627	-0.069	-0.179
-254.107	800.000	0.097	0.367
-253.092	-66.824	0.113	0.045
-252.078	-200.000	-0.014	-0.082
-251.063	-9.943	-0.150	-0.100
-250.049	800.000	-0.163	-0.511
-249.034	-200.000	0.027	0.167
-248.019	-130.106	0.079	-0.011
-247.005	-18.078	-0.139	-0.087
-245.990	-58.349	0.054	0.024
-244.976	-84.547	-0.239	-0.076
-243.961	99.222	-0.084	-0.097
-242.946	14.485	0.066	-0.052
-241.932	-51.924	0.216	0.101
-240.917	-51.331	0.148	-0.070
-239.903	800.000	-0.054	0.235
-238.888	-135.329	-0.080	-0.010
-237.873	455.314	-0.061	-0.136
-236.859	184.468	0.119	-0.176
-235.844	144.678	-0.113	-0.152
-234.830	64.360	0.136	0.137
-233.815	800.000	0.055	0.228
-232.800	-5.700	-0.247	0.170
-231.786	21.346	0.160	0.130
-230.771	-79.969	-0.133	0.045
-229.757	91.983	0.167	0.188
-228.742	530.916	-0.175	-0.416
-227.727	230.087	0.122	0.201
-226.713	15.383	-0.154	0.121
-225.698	-81.049	0.248	0.082
-224.684	16.758	0.160	0.127
-223.669	371.876	0.058	0.117
-222.655	-200.000	-0.029	0.174
-221.640	266.075	0.102	0.179
-220.625	-200.000	0.040	-0.211
-219.611	-106.277	-0.126	-0.028
-218.596	-200.000	-0.039	-0.298
-217.582	-180.821	-0.453	-0.009
-216.567	-76.260	0.114	-0.040
-215.552	361.862	0.187	0.376
-214.538	800.000	0.091	0.303
-213.523	263.275	-0.103	-0.180
-212.509	-200.000	-0.031	-0.216
-211.494	639.859	-0.055	0.141
-210.479	53.008	-0.027	0.026
-209.465	-51.251	-0.090	-0.042
-208.450	800.000	-0.033	0.130
-207.436	-136.058	-0.133	-0.016
-206.421	-200.000	0.057	-0.391
-205.406	-74.616	-0.217	-0.078
-204.392	435.580	-0.096	0.209
-203.377	-5.398	-0.083	0.057
-202.363	-132.401	0.157	0.020
-201.348	-200.000	0.044	-0.241
-200.333	-57.491	-0.386	0.170
-199.319	-131.922	0.164	0.021
-198.304	613.856	-0.087	0.217
-197.290	800.000	-0.049	0.179
-196.275	-69.097	-0.279	0.108
-195.260	-94.156	0.205	0.056
-194.246	-51.323	-0.214	0.100
-193.231	-23.803	0.186	0.112
-192.217	88.183	-0.130	-0.145
-191.202	-200.000	0.022	-0.101
-190.187	-177.948	0.162	-0.004
-189.173	-144.160	0.225	-0.021
-188.158	-43.237	0.195	-0.099
-187.144	-200.000	0.071	-0.313
-186.129	-13.511	0.280	-0.182
-185.114	320.740	-0.089	0.170
-184.100	20.643	0.107	-0.087
-183.085	-200.000	0.021	-0.183
-182.071	-109.280	0.309	0.066
-181.056	159.501	-0.115	-0.160
-180.042	276.293	0.089	0.159
-179.027	175.678	-0.242	0.351
-178.012	-66.168	-0.234	-0.093
-176.998	91.609	0.155	0.175
-175.983	-200.000	0.015	-0.085
-174.969	800.000	0.099	0.347
-173.954	21.918	0.157	0.128
-172.939	-4.256	0.221	0.153
-171.925	-200.000	0.005	-0.037
-170.910	-200.000	-0.002	-0.183
-169.896	-132.272	-0.102	-0.013
-168.881	59.577	0.288	0.284
-167.866	399.477	0.193	0.404
-166.852	291.036	-0.127	-0.230
-165.837	-69.836	-0.226	-0.086
-164.823	-19.181	0.058	-0.036
-163.808	117.637	0.059	-0.072
-162.793	-78.160	-0.078	0.027
-161.779	507.888	-0.083	-0.192
-160.764	326.535	0.009	-0.017
-159.750	56.013	0.148	0.144
-158.735	190.829	-0.050	-0.075
-157.720	-54.082	-0.086	-0.039
-156.706	140.413	0.217	0.287
-155.691	-14.977	0.064	0.041
-154.677	28.882	0.074	0.063
-153.662	66.311	-0.235	-0.239
-152.647	-106.963	-0.105	-0.023
-151.633	63.176	-0.143	-0.144
-150.618	2.483	0.137	0.099
-149.604	800.000	0.045	0.161
-148.589	-35.144	0.095	-0.052
-147.574	-200.000	0.014	0.254
-146.560	-103.263	-0.374	0.088
-145.545	120.310	-0.092	-0.114
-144.531	-200.000	0.041	0.261
-143.516	-200.000	0.059	0.309
-142.502	-152.025	-0.332	0.024
-141.487	800.000	0.094	0.359
-140.472	101.597	-0.035	-0.041
-139.458	-200.000	0.032	-0.170
-138.443	-14.539	-0.159	0.102
-137.429	25.561	0.286	0.238
-136.414	16.389	0.273	-0.215
-135.399	12.891	-0.083	0.064
-134.385	716.022	-0.028	-0.074
-133.370	-120.857	0.093	-0.016
-132.356	24.547	-0.027	0.023
-131.341	-200.000	0.085	0.463
-130.326	157.654	-0.215	0.297
-129.312	-200.000	-0.036	-0.172
-128.297	-196.487	0.194	0.001
-127.283	37.837	-0.085	-0.075
-126.268	-200.000	-0.010	0.099
-125.253	-162.439	0.461	0.023
-124.239	64.284	-0.114	-0.114
-123.224	-26.065	0.226	0.133
-122.210	45.912	-0.241	0.223
-121.195	82.104	0.116	0.125
-120.180	-200.000	0.003	0.020
-119.166	204.046	-0.110	-0.170
-118.151	-115.639	0.076	-0.014
-117.137	-64.503	-0.478	0.194
-116.122	4.272	-0.198	-0.145
-115.107	-22.759	-0.096	-0.058
-114.093	238.835	0.054	-0.089
-113.078	-200.000	0.010	-0.303
-112.064	800.000	0.033	-0.123
-111.049	-200.000	0.020	0.229
-110.034	143.643	-0.031	-0.041
-109.020	-68.396	0.087	-0.034
-108.005	224.309	0.102	0.165
-106.991	800.000	0.025	-0.090
-105.976	-34.372	0.143	-0.078
-104.962	-200.000	0.011	0.471
-103.947	-140.952	0.130	0.013
-102.932	-101.330	0.442	-0.108
-101.918	800.000	-0.043	0.150
-100.903	31.140	-0.067	-0.058
-99.889	113.182	-0.222	-0.268
-98.874	-1.712	0.100	0.070
-97.859	29.932	0.155	0.131
-96.845	800.000	0.064	0.266
-95.830	165.145	-0.143	0.202
-94.816	-52.893	0.188	-0.086
-93.801	264.129	-0.026	0.045
-92.786	-200.000	-0.012	-0.081
-91.772	-200.000	-0.010	-0.104
-90.757	232.787	0.181	0.296
-89.743	-98.383	0.253	0.065
-88.728	-200.000	0.006	-0.172
-87.713	-174.263	-0.062	-0.002
-86.699	800.000	-0.069	0.197
-85.684	47.925	0.243	0.226
-84.670	29.657	-0.002	0.001
-83.655	102.371	0.177	0.207
-82.640	6.200	0.151	0.111
-81.626	-29.779	-0.253	-0.144
-80.611	-106.281	0.265	0.059
-79.597	10.749	-0.260	-0.198
-78.582	656.801	-0.014	-0.037
-77.567	54.822	0.187	-0.180
-76.553	-112.501	-0.115	0.023
-75.538	-200.000	-0.109	-0.000
-74.524	-48.639	-0.343	-0.164
-73.509	-200.000	-0.017	-0.531
-72.494	-111.545	0.446	-0.090
-71.480	50.822	0.141	0.133
-70.465	-35.672	0.275	-0.149
-69.451	3.039	-0.177	0.128
-68.436	194.821	-0.042	-0.063
-67.422	206.589	0.106	-0.164
-66.407	766.086	-0.013	0.035
-65.392	-63.420	0.279	-0.114
-64.378	-139.150	0.339	-0.036
-63.363	-18.501	0.156	-0.097
-62.349	-200.000	0.013	-0.111
-61.334	160.881	-0.726	-1.010
-60.319	-41.958	0.261	0.133
-59.305	204.695	-0.368	-0.568
-58.290	151.373	0.560	0.760
-57.276	800.000	0.521	1.625
-56.261	-200.000	83.224	492.565
-55.246	458.678	1384.113	3065.920
-54.232	142.312	2616.511	3458.266
-53.217	101.970	2389.558	2777.478
-52.203	44.143	2124.994	1940.758
-51.188	39.691	2032.954	1815.761
-50.173	38.097	2013.018	1783.332
-49.159	50.494	2056.208	1936.234
-48.144	53.722	2076.334	1984.932
-47.130	40.529	2038.330	1828.005
-46.115	38.032	2026.868	1794.721
-45.100	37.985	2023.622	1791.347
-44.086	37.889	2021.708	1788.696
-43.071	37.829	2019.025	1785.709
-42.057	37.820	2016.864	1783.643
-41.042	37.879	2014.998	1782.458
-40.027	37.916	2013.286	1781.216
-39.013	37.889	2011.301	1779.134
-37.998	37.884	2009.305	1777.257
-36.984	37.905	2008.096	1776.305
-35.969	37.873	2006.047	1774.135
-34.954	37.989	2003.696	1773.042
-33.940	37.994	2002.204	1771.689
-32.925	37.987	2000.540	1770.088
-31.911	38.026	1999.158	1769.145
-30.896	37.996	1997.344	1767.203
-29.881	38.004	1995.908	1765.929
-28.867	38.023	1994.240	1764.563
-27.852	38.035	1991.917	1762.540
-26.838	38.056	1989.988	1760.957
-25.823	38.021	1988.039	1758.848
-24.809	37.968	1986.957	1757.338
-23.794	38.046	1985.116	1756.339
-22.779	38.026	1982.927	1754.157
-21.765	38.006	1980.837	1752.056
-20.750	38.039	1979.805	1751.373
-19.736	37.995	1978.401	1749.667
-18.721	38.039	1976.465	1748.277
-17.706	37.967	1975.451	1746.673
-16.692	37.933	1973.438	1744.517
-15.677	37.961	1971.928	1743.363
-14.663	38.024	1969.912	1742.069
-13.648	38.035	1968.794	1741.116
-12.633	38.019	1967.960	1740.167
-11.619	37.999	1966.519	1738.645
-10.604	37.959	1965.215	1737.063
-9.590	37.930	1963.991	1735.659
-8.575	37.986	1962.778	1735.008
-7.560	37.962	1961.425	1733.529
-6.546	38.118	1959.186	1732.872
-5.531	38.030	1958.691	1731.585
-4.517	38.037	1957.196	1730.251
-3.502	38.036	1955.735	1728.882
-2.487	37.941	1954.731	1727.090
-1.473	37.978	1953.584	1726.336
-0.458	38.201	1948.948	1724.136
0.556	38.481	1931.025	1701.737
1.571	34.921	1912.410	1654.459
2.586	31.125	1936.497	1641.819
3.600	30.064	1974.447	1664.320
4.615	28.772	1969.862	1648.725
5.629	21.131	1859.958	1491.565
6.644	8.552	1729.405	1286.170
7.659	2.448	1687.520	1206.894
8.673	2.033	1683.514	1200.655
9.688	1.999	1682.269	1199.396
10.702	1.861	1680.600	1197.017
11.717	1.787	1676.982	1193.749
12.731	2.136	1676.856	1196.292
13.746	9.705	1695.583	1269.320
14.761	21.030	1721.510	1378.642
15.775	26.173	1729.834	1425.923
16.790	26.711	1730.298	1430.428
17.804	26.795	1730.011	1430.723
18.819	26.818	1729.031	1429.966
19.834	26.997	1728.310	1430.654
20.848	27.193	1727.773	1431.626
21.863	27.230	1727.034	1431.183
22.877	27.098	1726.363	1429.460
23.892	27.137	1725.240	1428.712
24.907	27.192	1724.049	1428.027
25.921	27.269	1722.783	1427.459
26.936	27.166	1721.600	1425.547
27.950	27.150	1721.107	1424.884
28.965	27.180	1720.137	1424.191
29.980	27.151	1719.530	1423.333
30.994	27.186	1718.096	1422.295
32.009	27.236	1716.608	1421.327
33.023	27.227	1715.552	1420.262
34.038	27.153	1714.709	1418.855
35.053	27.185	1713.866	1418.284
36.067	27.188	1712.944	1417.417
37.082	27.189	1712.088	1416.591
38.096	27.168	1711.082	1415.473
39.111	27.209	1710.330	1415.044
40.126	27.215	1709.301	1414.111
41.140	27.132	1708.837	1412.964
42.155	27.147	1707.730	1412.039
43.169	27.229	1706.082	1411.187
44.184	27.111	1705.164	1409.386
45.199	27.193	1704.178	1409.085
46.213	27.079	1703.532	1407.541
47.228	27.132	1701.827	1406.414
48.242	27.094	1700.405	1404.826
49.257	27.174	1699.421	1404.507
50.271	27.260	1697.765	1403.677
51.286	27.170	1697.060	1402.274
52.301	27.127	1695.887	1400.852
53.315	27.099	1694.613	1399.459
54.330	27.235	1692.693	1398.792
55.344	27.190	1691.489	1397.332
56.359	27.166	1690.224	1395.977
57.374	27.143	1689.122	1394.768
58.388	27.111	1688.716	1394.060
59.403	27.279	1686.588	1393.469
60.417	27.064	1686.341	1391.491
61.432	27.224	1684.794	1391.317
62.447	27.215	1684.039	1390.507
63.461	27.191	1683.115	1389.434
64.476	27.165	1681.926	1388.128
65.490	27.200	1680.920	1387.447
66.505	27.106	1680.093	1385.927
67.520	27.248	1678.592	1385.648
68.534	27.221	1677.639	1384.529
69.549	27.239	1676.383	1383.511
70.563	27.199	1675.192	1382.095
71.578	27.223	1674.728	1381.774
72.593	27.279	1673.234	1380.847
73.607	27.328	1672.239	1380.276
74.622	27.170	1671.733	1378.539
75.636	27.238	1670.976	1378.303
76.651	27.175	1670.565	1377.365
77.666	27.204	1669.620	1376.682
78.680	27.208	1668.118	1375.356
79.695	27.100	1667.774	1374.129
80.709	27.206	1666.469	1373.737
81.724	27.132	1665.922	1372.608
82.739	27.260	1664.787	1372.518
83.753	27.256	1663.416	1371.234
84.768	27.241	1662.712	1370.420
85.782	27.241	1662.081	1369.773
86.797	27.212	1661.305	1368.799
87.812	27.209	1660.256	1367.788
88.826	27.121	1659.530	1366.413
89.841	27.121	1658.752	1365.645
90.855	27.262	1657.103	1365.229
91.870	27.209	1656.452	1364.176
92.884	27.204	1655.714	1363.405
93.899	27.264	1654.776	1362.964
94.914	27.271	1653.122	1361.535
95.928	27.242	1652.040	1360.305
96.943	27.264	1650.836	1359.360
97.957	27.269	1649.490	1358.164
98.972	27.317	1647.732	1356.959
99.987	27.298	1646.560	1355.728
101.001	27.251	1645.113	1354.066
102.016	27.264	1643.811	1352.976
103.030	27.144	1642.651	1351.005
104.045	27.150	1642.004	1350.401
105.060	27.203	1640.102	1349.110
106.074	27.292	1638.750	1348.535
107.089	27.217	1638.006	1347.248
108.103	27.250	1636.743	1346.334
109.118	27.284	1636.078	1345.923
110.133	27.186	1634.674	1343.923
111.147	27.336	1633.442	1343.901
112.162	27.320	1632.574	1342.947
113.176	27.340	1630.964	1341.657
114.191	27.193	1629.957	1339.621
115.206	27.313	1628.694	1339.351
116.220	27.327	1628.115	1338.856
117.235	27.257	1626.921	1337.240
118.249	27.262	1625.797	1336.241
119.264	27.213	1624.672	1334.834
120.279	27.296	1623.307	1334.208
121.293	27.320	1622.195	1333.348
122.308	27.339	1621.437	1332.748
123.322	27.213	1620.185	1330.675
124.337	27.325	1618.823	1330.262
125.352	27.326	1617.817	1329.319
126.366	27.361	1616.868	1328.678
127.381	27.382	1616.227	1328.188
128.395	27.386	1615.085	1327.165
129.410	27.380	1613.994	1326.105
130.424	27.454	1612.855	1325.588
131.439	27.450	1611.881	1324.641
132.454	27.446	1610.365	1323.253
133.468	27.408	1609.161	1321.867
134.483	27.373	1607.839	1320.415
135.497	27.373	1607.064	1319.660
136.512	27.432	1605.563	1318.739
137.527	27.381	1604.576	1317.441
138.541	27.390	1603.819	1316.767
139.556	27.409	1602.545	1315.745
140.570	27.297	1601.385	1313.867
141.585	27.446	1599.732	1313.469
142.600	27.375	1598.599	1311.910
143.614	27.415	1597.662	1311.312
144.629	27.391	1596.859	1310.363
145.643	27.383	1595.146	1308.785
146.658	27.332	1594.219	1307.544
147.673	27.366	1592.597	1306.339
148.687	27.379	1592.031	1305.851
149.702	27.319	1591.130	1304.566
150.716	27.305	1589.483	1303.004
151.731	27.225	1588.849	1301.793
152.746	27.282	1587.540	1301.015
153.760	27.464	1585.903	1300.858
154.775	27.361	1585.305	1299.519
155.789	27.413	1584.098	1298.785
156.804	27.476	1582.499	1297.805
157.819	27.484	1581.705	1297.096
158.833	27.457	1581.030	1296.239
159.848	27.314	1580.109	1294.354
160.862	27.524	1578.971	1294.797
161.877	27.416	1578.175	1293.262
162.892	27.440	1577.411	1292.692
163.906	27.526	1576.321	1292.292
164.921	27.375	1575.658	1290.567
165.935	27.474	1574.160	1289.929
166.950	27.485	1573.287	1289.176
167.964	27.463	1572.176	1287.996
168.979	27.428	1571.507	1287.085
169.994	27.523	1570.180	1286.558
171.008	27.489	1569.366	1285.535
172.023	27.511	1568.879	1285.179
173.037	27.565	1567.417	1284.247
174.052	27.489	1566.421	1282.779
175.067	27.471	1566.002	1282.201
176.081	27.478	1565.188	1281.470
177.096	27.432	1563.740	1279.847
178.110	27.506	1562.785	1279.473
179.125	27.512	1561.332	1278.212
180.140	27.497	1560.813	1277.564
181.154	27.495	1560.012	1276.782
182.169	27.557	1559.132	1276.384
183.183	27.547	1557.895	1275.187
184.198	27.517	1557.162	1274.262
185.213	27.536	1556.421	1273.678
186.227	27.570	1555.139	1272.757
187.242	27.555	1554.594	1272.091
188.256	27.548	1553.881	1271.346
189.271	27.636	1552.467	1270.692
190.286	27.590	1551.533	1269.491
191.300	27.717	1550.804	1269.670
192.315	27.567	1550.233	1268.047
193.329	27.637	1549.306	1267.663
194.344	27.618	1547.849	1266.223
195.359	27.645	1547.318	1265.867
196.373	27.684	1546.725	1265.539
197.388	27.718	1545.402	1264.581
198.402	27.625	1544.427	1263.025
199.417	27.434	1543.655	1260.963
200.432	27.565	1543.053	1261.267
201.446	27.655	1542.513	1261.335
202.461	27.563	1541.846	1260.040
203.475	27.634	1540.565	1259.371
204.490	27.519	1539.762	1257.814
205.504	27.560	1539.118	1257.459
206.519	27.599	1537.720	1256.476
207.534	27.646	1537.020	1256.110
208.548	27.636	1536.443	1255.462
209.563	27.695	1535.324	1254.841
210.577	27.656	1534.305	1253.627
211.592	27.678	1533.929	1253.362
212.607	27.602	1533.317	1252.228
213.621	27.696	1532.370	1251.992
214.636	27.723	1531.791	1251.595
215.650	27.788	1530.606	1250.962
216.665	27.800	1529.517	1250.040
217.680	27.765	1528.932	1249.209
218.694	27.758	1528.308	1248.546
219.709	27.780	1527.429	1247.863
220.723	27.686	1526.785	1246.585
221.738	27.675	1525.896	1245.676
222.753	27.846	1524.466	1245.567
223.767	27.604	1524.410	1243.757
224.782	27.642	1522.988	1242.748
225.796	27.800	1522.120	1243.002
226.811	27.789	1521.609	1242.403
227.826	27.890	1520.948	1242.442
228.840	27.738	1520.080	1240.589
229.855	27.763	1519.438	1240.120
230.869	27.763	1518.553	1239.293
231.884	27.852	1517.055	1238.564
232.899	27.763	1516.681	1237.543
233.913	27.817	1515.191	1236.585
234.928	27.917	1513.949	1236.137
235.942	27.858	1513.346	1235.137
236.957	27.956	1512.611	1235.090
237.972	27.864	1511.318	1233.303
238.986	27.837	1509.931	1231.882
240.001	27.837	1509.541	1231.454
241.015	27.837	1508.658	1230.628
242.030	27.953	1507.441	1230.306
243.045	27.960	1506.579	1229.542
244.059	28.066	1505.399	1229.183
245.074	28.009	1504.997	1228.363
246.088	27.968	1504.408	1227.496
247.103	28.079	1503.274	1227.205
248.117	28.015	1502.646	1226.154
249.132	28.123	1501.413	1225.764
250.147	28.059	1500.605	1224.568
251.161	28.011	1500.251	1223.847
252.176	28.121	1499.343	1223.737
253.190	28.084	1498.991	1223.092
254.205	28.084	1498.084	1222.244
255.220	28.085	1497.093	1221.335
256.234	28.157	1496.337	1221.089
257.249	28.037	1495.967	1219.882
258.263	28.165	1494.900	1219.753
259.278	28.152	1493.633	1218.525
260.293	28.042	1493.282	1217.400
261.307	28.124	1492.165	1216.926
262.322	28.148	1491.628	1216.545
263.336	28.210	1490.841	1216.207
264.351	28.248	1489.417	1215.189
265.366	28.230	1489.083	1214.686
266.380	28.229	1488.065	1213.744
267.395	28.103	1487.114	1212.028
268.409	28.074	1486.410	1211.149
269.424	28.261	1485.057	1211.181
270.439	28.201	1484.648	1210.339
271.453	28.176	1483.772	1209.354
272.468	28.289	1482.847	1209.241
273.482	28.199	1482.214	1208.021
274.497	28.107	1481.767	1206.944
275.512	28.131	1480.988	1206.365
276.526	28.129	1480.500	1205.845
277.541	28.233	1479.301	1205.450
278.555	28.339	1478.471	1205.363
279.570	28.287	1477.686	1204.271
280.585	28.357	1476.614	1203.754
281.599	28.210	1475.958	1202.147
282.614	28.229	1475.130	1201.488
283.628	28.226	1473.944	1200.400
284.643	28.263	1473.232	1199.954
285.657	28.324	1472.324	1199.510
286.672	28.252	1471.318	1198.108
287.687	28.305	1470.095	1197.356
288.701	28.272	1469.356	1196.430
289.716	28.346	1468.982	1196.506
290.730	28.391	1467.877	1195.794
291.745	28.306	1467.436	1194.772
292.760	28.365	1466.249	1194.084
293.774	28.373	1465.381	1193.325
294.789	28.365	1464.265	1192.258
295.803	28.397	1464.080	1192.214
296.818	28.483	1462.993	1191.778
297.833	28.404	1462.272	1190.573
298.847	28.321	1461.953	1189.669
299.862	28.430	1460.417	1189.023
300.876	28.434	1460.092	1188.679
301.891	28.458	1458.979	1187.823
302.906	28.434	1458.025	1186.786
303.920	28.497	1457.752	1186.862
304.935	28.527	1457.419	1186.683
305.949	28.529	1455.740	1185.225
306.964	28.482	1455.418	1184.554
307.979	28.583	1454.451	1184.313
308.993	28.644	1452.892	1183.329
310.008	28.476	1452.891	1182.146
311.022	28.502	1451.717	1181.253
312.037	28.555	1450.643	1180.611
313.052	28.503	1450.302	1179.894
314.066	28.582	1448.823	1179.096
315.081	28.599	1448.213	1178.609
316.095	28.593	1447.262	1177.689
317.110	28.533	1446.393	1176.490
318.125	28.620	1445.546	1176.259
319.139	28.672	1444.231	1175.416
320.154	28.584	1443.866	1174.450
321.168	28.537	1443.012	1173.350
322.183	28.605	1441.836	1172.728
323.197	28.689	1441.063	1172.529
324.212	28.659	1440.354	1171.658
325.227	28.745	1439.587	1171.477
326.241	28.691	1438.923	1170.494
327.256	28.765	1438.060	1170.160
328.270	28.878	1436.964	1169.880
329.285	28.825	1436.280	1168.886
330.300	28.822	1435.501	1168.128
331.314	28.738	1434.993	1167.076
332.329	28.793	1433.644	1166.225
333.343	28.754	1433.225	1165.536
334.358	28.808	1432.503	1165.188
335.373	28.781	1431.867	1164.395
336.387	28.846	1430.808	1163.842
337.402	28.879	1430.416	1163.629
338.416	28.908	1429.721	1163.145
339.431	28.920	1428.911	1162.461
340.446	28.945	1428.601	1162.264
341.460	28.858	1427.833	1160.986
342.475	28.979	1426.907	1160.892
343.489	28.947	1425.949	1159.806
344.504	28.869	1425.458	1158.815
345.519	28.951	1423.567	1157.691
346.533	28.990	1423.192	1157.526
347.548	28.983	1422.239	1156.604
348.562	28.927	1421.572	1155.611
349.577	29.036	1420.298	1155.155
350.592	28.981	1419.959	1154.434
351.606	28.955	1419.186	1153.538
352.621	28.921	1417.971	1152.240
353.635	28.990	1416.981	1151.766
354.650	28.994	1416.416	1151.229
355.665	29.048	1415.275	1150.538
356.679	28.966	1414.277	1149.107
357.694	29.031	1413.176	1148.517
358.708	29.104	1412.520	1148.342
359.723	29.096	1410.912	1146.882
360.738	29.079	1410.122	1146.031
361.752	29.002	1409.484	1144.935
362.767	29.076	1407.913	1144.014
363.781	29.078	1407.007	1143.190
364.796	29.127	1406.565	1143.033
365.810	29.156	1406.070	1142.711
366.825	29.137	1405.115	1141.714
367.840	29.093	1404.370	1140.736
368.854	29.229	1403.681	1140.915
369.869	29.285	1403.439	1140.969
370.883	29.380	1402.257	1140.490
371.898	29.184	1401.527	1138.588
372.913	29.238	1400.950	1138.349
373.927	29.217	1400.655	1137.879
374.942	29.306	1399.307	1137.231
375.956	29.231	1399.080	1136.486
376.971	29.252	1397.863	1135.524
377.986	29.295	1397.021	1135.004
379.000	29.228	1396.608	1134.156
380.015	29.221	1395.911	1133.451
381.029	29.243	1395.398	1133.070
382.044	29.364	1394.215	1132.747
383.059	29.337	1393.896	1132.226
384.073	29.313	1393.222	1131.431
385.088	29.361	1392.542	1131.071
386.102	29.337	1392.147	1130.501
387.117	29.275	1391.498	1129.496
388.132	29.457	1390.689	1129.856
389.146	29.421	1389.558	1128.615
390.161	29.472	1388.635	1128.076
391.175	29.530	1388.041	1127.851
392.190	29.438	1387.453	1126.712
393.205	29.458	1386.717	1126.138
394.219	29.530	1385.790	1125.723
395.234	29.510	1384.806	1124.698
396.248	29.522	1383.809	1123.863
397.263	29.563	1382.594	1123.027
398.278	29.534	1381.997	1122.264
399.292	29.537	1380.765	1121.182
400.307	29.698	1379.771	1121.254
401.321	29.541	1379.114	1119.669
402.336	29.490	1378.246	1118.557
403.350	29.581	1377.106	1118.084
404.365	29.509	1376.587	1117.129
405.380	29.556	1375.713	1116.605
406.394	29.688	1374.493	1116.314
407.409	29.562	1374.270	1115.274
408.423	29.648	1373.317	1114.919
409.438	29.611	1373.030	1114.364
410.453	29.664	1371.716	1113.516
411.467	29.753	1371.319	1113.631
412.482	29.717	1370.873	1112.954
413.496	29.665	1370.098	1111.914
414.511	29.712	1369.488	1111.606
415.526	29.710	1368.801	1110.938
416.540	29.754	1367.935	1110.400
417.555	29.768	1367.087	1109.698
418.569	29.735	1366.837	1109.198
419.584	29.687	1366.317	1108.387
420.599	29.751	1365.693	1108.171
421.613	86.174	1343.854	1410.217
422.628	86.843	1340.666	1410.364
