DTS Sentinel unit serial number:	SN413079Multiplexer serial number:	ORYXHardware model number:	OX4-SRSoftware version number:	ORYX F/W v4.00 Oryx Data Collector v3.7.2.0data status	okinstallation	princeton_trtdifferential loss correction	single-endedforward channel	channel 4reverse channel	N/Adate	2019/09/19time	01:25:35forward acquisition time	60.00reverse acquisition time	0.00gamma	496.2192k internal	0.2339k external	0.2339temperature offset calibration	1.0029default loss term (dB/km)	0.3790temperature slope calibration	1.0000multiplexer offset coefficient	1.0000multiplexer slope coefficient	1.0000fibre end	0.00T internal ref (°C)	21.64T ext. ref 1 (°C)	0.70T ext. ref 2 (°C)	15.01length (m)	temperature (°C)	Stokes	anti-Stokes-747.200	-200.000	-0.029	0.209
-746.185	-200.000	0.036	0.195
-745.171	-84.746	0.345	0.109
-744.156	217.836	-0.105	-0.168
-743.142	-174.828	-0.108	0.003
-742.127	433.073	0.201	0.438
-741.112	46.683	0.085	-0.079
-740.098	-82.045	-0.414	-0.136
-739.083	9.970	0.207	0.158
-738.069	21.466	-0.107	0.087
-737.054	-200.000	0.028	0.524
-736.039	54.805	-0.313	0.303
-735.025	160.952	0.185	-0.258
-734.010	5.886	-0.090	-0.067
-732.996	-10.202	-0.239	-0.159
-731.981	-126.804	0.255	0.038
-730.966	800.000	-0.113	0.460
-729.952	45.324	-0.307	-0.284
-728.937	642.130	-0.050	-0.128
-727.923	-81.820	-0.112	-0.037
-726.908	-200.000	-0.050	-0.364
-725.894	88.458	0.174	-0.193
-724.879	-29.605	-0.282	-0.162
-723.864	800.000	-0.029	0.086
-722.850	97.969	0.180	0.207
-721.835	203.142	-0.076	-0.117
-720.821	302.219	-0.132	0.245
-719.806	800.000	0.075	0.228
-718.791	-79.062	0.120	-0.041
-717.777	-88.594	-0.081	0.024
-716.762	800.000	-0.054	0.182
-715.748	19.375	-0.051	0.041
-714.733	48.430	-0.040	0.037
-713.718	156.074	-0.061	-0.084
-712.704	227.790	-0.263	0.428
-711.689	427.891	0.045	0.097
-710.675	-156.423	-0.264	-0.017
-709.660	-24.657	0.125	-0.075
-708.645	-200.000	0.008	0.064
-707.631	800.000	0.081	-0.229
-706.616	-116.318	-0.404	-0.075
-705.602	396.060	0.072	0.151
-704.587	334.058	0.174	0.337
-703.572	-105.188	-0.292	-0.067
-702.558	170.941	0.127	-0.182
-701.543	-32.778	0.282	-0.157
-700.529	-21.378	0.056	0.034
-699.514	-106.436	0.329	-0.074
-698.499	800.000	0.078	0.301
-697.485	800.000	-0.113	0.359
-696.470	69.218	-0.294	-0.302
-695.456	-21.673	-0.296	-0.180
-694.441	-106.307	-0.663	0.148
-693.426	-200.000	0.015	0.402
-692.412	84.830	0.127	-0.139
-691.397	-28.301	0.125	0.072
-690.383	800.000	-0.074	-0.304
-689.368	-200.000	0.019	-0.243
-688.354	31.082	-0.091	-0.078
-687.339	800.000	-0.049	0.138
-686.324	-35.565	0.128	0.069
-685.310	-200.000	0.008	-0.144
-684.295	800.000	-0.020	-0.076
-683.281	774.524	0.135	-0.369
-682.266	-102.840	0.404	0.096
-681.251	-54.916	-0.224	0.101
-680.237	-108.335	0.062	-0.013
-679.222	240.555	-0.027	-0.045
-678.208	-60.546	-0.260	-0.111
-677.193	134.701	0.088	-0.115
-676.178	-43.687	0.215	-0.108
-675.164	169.574	-0.145	-0.206
-674.149	-167.386	0.157	-0.006
-673.135	-158.920	-0.221	-0.013
-672.120	-25.609	0.140	0.083
-671.105	-148.256	0.565	0.047
-670.091	57.494	-0.286	-0.280
-669.076	-200.000	-0.016	-0.434
-668.062	-108.819	0.278	0.059
-667.047	781.401	-0.122	0.335
-666.032	105.394	0.156	-0.184
-665.018	-43.048	-0.186	0.094
-664.003	531.687	0.050	0.118
-662.989	94.800	0.121	-0.137
-661.974	689.223	-0.104	0.273
-660.959	-109.312	-0.270	-0.057
-659.945	359.311	-0.065	0.130
-658.930	-54.724	0.090	-0.040
-657.916	-200.000	0.023	-0.140
-656.901	800.000	0.072	-0.210
-655.886	237.605	-0.253	-0.419
-654.872	-154.578	0.481	0.032
-653.857	45.525	0.041	0.038
-652.843	-131.590	-0.169	0.022
-651.828	59.774	-0.094	-0.092
-650.814	-74.367	-0.169	-0.061
-649.799	-118.833	-0.266	0.047
-648.784	-41.705	0.180	-0.092
-647.770	662.311	0.053	0.136
-646.755	454.653	-0.054	0.119
-645.741	-165.279	0.140	0.006
-644.726	-136.177	0.143	-0.017
-643.711	-200.000	0.037	-0.191
-642.697	194.805	0.109	0.165
-641.682	-19.469	-0.352	0.218
-640.668	459.318	-0.181	-0.402
-639.653	-200.000	-0.034	-0.204
-638.638	329.067	-0.271	-0.521
-637.624	-94.658	0.285	-0.077
-636.609	-200.000	0.013	0.198
-635.595	-31.424	-0.251	0.141
-634.580	501.643	-0.078	0.179
-633.565	51.000	0.120	0.114
-632.551	103.730	-0.085	-0.100
-631.536	499.314	0.046	-0.106
-630.522	-200.000	-0.034	0.375
-629.507	137.789	0.259	-0.338
-628.492	24.925	0.322	0.266
-627.478	-200.000	-0.013	0.280
-626.463	-200.000	-0.009	0.245
-625.449	90.246	-0.187	0.208
-624.434	145.515	-0.109	0.146
-623.419	17.732	0.348	0.277
-622.405	-135.470	-0.162	0.019
-621.390	-64.877	-0.037	0.015
-620.376	800.000	-0.040	-0.124
-619.361	-200.000	0.008	0.076
-618.346	800.000	0.033	0.119
-617.332	81.673	-0.290	-0.313
-616.317	-77.079	-0.170	-0.059
-615.303	-76.975	-0.350	-0.122
-614.288	-87.134	0.368	0.112
-613.273	63.556	0.179	0.180
-612.259	549.526	-0.133	-0.317
-611.244	254.493	-0.142	-0.243
-610.230	-12.697	0.184	-0.120
-609.215	65.107	0.269	-0.271
-608.201	34.307	0.132	-0.115
-607.186	-37.597	-0.325	0.173
-606.171	296.937	0.157	0.288
-605.157	-167.657	-0.507	-0.020
-604.142	-109.052	0.119	0.025
-603.128	28.772	-0.139	0.117
-602.113	-200.000	-0.035	-0.254
-601.098	585.680	-0.010	0.024
-600.084	162.810	-0.179	0.250
-599.069	-200.000	-0.017	-0.363
-598.055	27.577	0.224	-0.188
-597.040	-98.298	0.351	-0.090
-596.025	-200.000	0.014	-0.166
-595.011	-200.000	0.003	-0.073
-593.996	-185.710	-0.101	0.002
-592.982	42.792	-0.038	-0.035
-591.967	56.443	-0.076	0.074
-590.952	-140.796	0.272	-0.028
-589.938	-102.099	-0.223	-0.053
-588.923	-124.087	0.253	-0.040
-587.909	-110.974	0.134	0.027
-586.894	88.565	-0.044	-0.049
-585.879	-108.705	-0.283	0.060
-584.865	17.332	0.183	-0.145
-583.850	-55.254	-0.276	0.124
-582.836	218.859	-0.064	-0.101
-581.821	295.797	-0.047	-0.085
-580.806	800.000	-0.033	-0.104
-579.792	16.991	0.172	0.136
-578.777	-97.646	0.222	-0.057
-577.763	-2.058	-0.194	-0.136
-576.748	145.541	0.094	0.125
-575.733	-200.000	0.001	-0.093
-574.719	-141.116	-0.059	-0.006
-573.704	-99.862	0.072	-0.018
-572.690	-133.372	-0.274	0.034
-571.675	-120.165	0.324	-0.055
-570.661	-18.499	0.086	-0.054
-569.646	279.200	-0.096	0.170
-568.631	171.762	-0.104	-0.149
-567.617	-49.238	-0.115	0.055
-566.602	151.912	-0.100	-0.136
-565.588	0.741	-0.170	0.121
-564.573	-200.000	0.039	-0.176
-563.558	72.236	-0.020	-0.020
-562.544	-58.623	-0.271	0.117
-561.529	-200.000	-0.065	-0.422
-560.515	122.142	0.153	-0.190
-559.500	491.871	0.014	-0.032
-558.485	-13.503	0.347	-0.224
-557.471	-200.000	0.011	-0.115
-556.456	-133.639	-0.052	0.006
-555.442	-200.000	0.070	0.311
-554.427	-18.348	0.103	-0.064
-553.412	162.238	-0.229	0.319
-552.398	6.853	-0.180	-0.134
-551.383	-57.636	-0.098	-0.043
-550.369	-57.158	0.126	-0.055
-549.354	-115.788	0.158	0.029
-548.339	11.632	-0.401	0.306
-547.325	-99.800	0.338	0.084
-546.310	-28.698	-0.344	0.197
-545.296	-200.000	0.032	-0.337
-544.281	40.907	-0.143	0.129
-543.266	197.462	-0.262	-0.398
-542.252	-200.000	-0.030	0.255
-541.237	190.715	0.169	0.253
-540.223	-200.000	-0.017	-0.312
-539.208	136.806	0.100	-0.130
-538.193	500.859	0.025	-0.057
-537.179	699.196	-0.113	0.296
-536.164	-67.808	0.312	-0.121
-535.150	-122.581	0.181	-0.029
-534.135	14.785	0.089	0.069
-533.121	-59.901	-0.101	0.043
-532.106	265.842	0.110	0.191
-531.091	-192.081	0.168	-0.002
-530.077	-200.000	-0.060	-0.360
-529.062	668.052	-0.031	0.079
-528.048	132.316	-0.074	-0.095
-527.033	-200.000	-0.003	-0.077
-526.018	529.018	0.051	-0.120
-525.004	-128.323	0.347	-0.049
-523.989	147.924	0.126	-0.169
-522.975	157.919	-0.083	-0.115
-521.960	-71.207	-0.225	-0.084
-520.945	639.327	-0.109	-0.274
-519.931	-43.796	-0.139	0.070
-518.916	800.000	0.133	0.453
-517.902	-78.899	0.198	0.067
-516.887	-200.000	0.004	0.171
-515.872	74.406	-0.294	-0.307
-514.858	123.139	0.168	0.209
-513.843	6.864	0.118	0.088
-512.829	800.000	0.064	0.274
-511.814	-160.703	-0.038	0.002
-510.799	4.341	-0.145	0.106
-509.785	800.000	0.075	-0.254
-508.770	-52.869	0.145	0.066
-507.756	153.840	-0.109	-0.148
-506.741	43.661	-0.153	-0.139
-505.726	100.622	0.058	-0.067
-504.712	134.473	0.137	0.176
-503.697	121.782	0.119	0.148
-502.683	-69.897	-0.300	0.114
-501.668	-87.573	0.099	-0.030
-500.653	660.927	-0.070	-0.178
-499.639	-8.398	0.296	-0.198
-498.624	800.000	-0.082	0.236
-497.610	-143.843	-0.323	-0.030
-496.595	-116.881	0.067	-0.012
-495.581	62.034	-0.249	0.246
-494.566	314.104	0.130	0.244
-493.551	-78.279	0.281	-0.096
-492.537	-200.000	0.031	-0.446
-491.522	32.903	0.192	-0.165
-490.508	-94.375	-0.243	-0.066
-489.493	504.076	-0.075	-0.173
-488.478	-16.221	0.219	0.138
-487.464	-21.297	-0.427	0.259
-486.449	701.264	0.103	0.268
-485.435	-147.487	-0.206	0.017
-484.420	4.203	0.087	0.063
-483.405	-35.495	-0.110	-0.059
-482.391	203.477	0.174	-0.267
-481.376	15.871	0.288	0.225
-480.362	-98.440	-0.384	0.098
-479.347	440.905	-0.089	0.193
-478.332	-80.123	-0.161	-0.054
-477.318	-200.000	-0.043	0.300
-476.303	-51.820	-0.131	-0.061
-475.289	-130.204	0.260	0.035
-474.274	106.900	0.140	-0.164
-473.259	23.974	-0.172	-0.141
-472.245	-117.419	-0.259	-0.047
-471.230	90.822	0.224	0.250
-470.216	-70.176	0.056	-0.021
-469.201	20.446	-0.232	-0.186
-468.186	-19.068	0.249	0.154
-467.172	800.000	-0.096	-0.286
-466.157	-21.582	-0.156	-0.094
-465.143	35.888	-0.086	-0.075
-464.128	-90.787	0.265	-0.076
-463.113	58.031	0.049	-0.048
-462.099	635.079	0.058	0.147
-461.084	800.000	0.031	0.125
-460.070	60.828	0.029	-0.029
-459.055	20.644	0.190	-0.152
-458.040	66.429	0.116	0.117
-457.026	-83.509	-0.175	0.056
-456.011	-129.146	0.113	-0.016
-454.997	-200.000	-0.026	0.199
-453.982	-67.197	-0.092	-0.036
-452.968	800.000	-0.076	-0.293
-451.953	-17.462	-0.223	0.139
-450.938	638.194	0.013	-0.032
-449.924	800.000	0.156	0.593
-448.909	53.632	-0.084	0.080
-447.895	39.815	-0.309	0.275
-446.880	-50.809	-0.090	-0.042
-445.865	89.746	-0.210	-0.232
-444.851	-5.238	-0.035	0.024
-443.836	343.933	0.060	0.117
-442.822	-100.210	0.273	0.067
-441.807	-200.000	0.033	-0.363
-440.792	42.047	0.282	-0.254
-439.778	-200.000	0.034	0.166
-438.763	94.882	-0.174	0.196
-437.749	-30.920	-0.263	-0.147
-436.734	789.074	0.004	-0.010
-435.719	-79.417	-0.179	0.060
-434.705	137.707	-0.224	0.291
-433.690	-126.477	-0.293	-0.043
-432.676	106.016	-0.213	0.250
-431.661	43.934	0.228	-0.207
-430.646	68.751	-0.110	0.112
-429.632	-73.396	-0.136	0.049
-428.617	367.963	0.160	-0.321
-427.603	492.082	-0.099	0.225
-426.588	-57.549	-0.093	0.040
-425.573	87.626	0.177	-0.194
-424.559	-159.433	0.179	0.010
-423.544	-92.981	-0.235	-0.065
-422.530	800.000	-0.048	-0.177
-421.515	384.884	-0.086	-0.176
-420.500	235.433	0.089	-0.145
-419.486	-79.954	0.229	0.076
-418.471	736.312	-0.047	0.124
-417.457	8.507	0.321	-0.239
-416.442	-155.348	0.223	0.014
-415.428	47.574	-0.253	0.233
-414.413	800.000	-0.104	-0.330
-413.398	57.951	0.347	-0.336
-412.384	-27.103	-0.195	0.112
-411.369	-200.000	0.016	0.097
-410.355	-13.580	-0.137	0.088
-409.340	-32.402	0.191	-0.106
-408.325	-139.960	-0.402	-0.042
-407.311	-200.000	-0.015	0.224
-406.296	-131.436	-0.262	-0.034
-405.282	17.335	-0.279	0.219
-404.267	159.575	0.082	-0.112
-403.252	115.920	-0.269	-0.326
-402.238	520.532	-0.198	-0.460
-401.223	-79.389	-0.283	-0.095
-400.209	389.417	-0.104	-0.214
-399.194	485.454	0.019	0.043
-398.179	717.104	0.040	0.104
-397.165	-28.869	0.236	0.134
-396.150	800.000	-0.010	0.031
-395.136	-132.353	0.132	-0.017
-394.121	153.481	-0.163	-0.221
-393.106	-79.124	0.202	0.068
-392.092	-200.000	-0.007	-0.254
-391.077	333.702	0.158	-0.302
-390.063	-116.898	-0.201	-0.036
-389.048	219.025	0.065	-0.103
-388.033	-67.512	0.323	0.126
-387.019	800.000	0.149	0.427
-386.004	83.068	0.249	-0.268
-384.990	155.033	0.182	0.247
-383.975	-53.242	0.186	-0.084
-382.960	800.000	0.039	-0.131
-381.946	-200.000	-0.022	0.098
-380.931	-96.598	-0.281	0.073
-379.917	324.875	0.073	0.137
-378.902	-62.580	0.062	0.025
-377.888	377.848	0.054	-0.108
-376.873	800.000	0.159	0.501
-375.858	-200.000	-0.034	0.163
-374.844	18.757	0.114	0.090
-373.829	-200.000	-0.028	-0.173
-372.815	-200.000	-0.014	-0.213
-371.800	-107.245	0.341	0.074
-370.785	800.000	-0.119	0.326
-369.771	-161.446	-0.219	-0.011
-368.756	132.127	-0.128	-0.163
-367.742	-200.000	0.020	0.095
-366.727	-78.466	0.062	-0.021
-365.712	46.055	-0.145	0.133
-364.698	-200.000	0.003	0.304
-363.683	35.326	0.159	-0.138
-362.669	192.728	-0.114	-0.170
-361.654	102.401	0.159	0.183
-360.639	-8.947	-0.193	0.128
-359.625	-59.426	-0.205	0.087
-358.610	800.000	-0.016	-0.052
-357.596	-200.000	-0.057	-0.291
-356.581	33.667	0.119	-0.102
-355.566	145.399	0.210	-0.278
-354.552	-177.025	0.162	0.004
-353.537	-200.000	-0.071	0.313
-352.523	10.165	-0.153	-0.115
-351.508	56.587	-0.176	0.169
-350.493	177.161	0.105	0.152
-349.479	-200.000	0.001	0.354
-348.464	800.000	-0.044	-0.157
-347.450	-8.870	-0.186	0.123
-346.435	625.118	0.111	0.277
-345.420	428.949	0.052	0.111
-344.406	162.309	0.027	0.038
-343.391	800.000	-0.034	0.103
-342.377	224.577	-0.088	0.140
-341.362	-200.000	-0.003	-0.211
-340.348	800.000	-0.056	-0.239
-339.333	21.725	0.106	-0.085
-338.318	731.802	0.148	-0.390
-337.304	-200.000	-0.052	0.247
-336.289	-200.000	-0.021	-0.146
-335.275	-200.000	0.011	0.517
-334.260	257.129	-0.100	0.169
-333.245	-115.226	-0.177	0.033
-332.231	189.173	0.061	0.090
-331.216	-200.000	0.037	-0.296
-330.202	-15.997	0.243	-0.153
-329.187	375.737	-0.086	-0.174
-328.172	-103.008	-0.462	-0.108
-327.158	-200.000	-0.029	0.181
-326.143	-77.255	0.176	-0.060
-325.129	88.369	0.192	-0.210
-324.114	800.000	-0.120	-0.402
-323.099	316.263	0.038	0.071
-322.085	800.000	0.010	-0.043
-321.070	91.948	0.013	0.014
-320.056	-115.769	-0.115	-0.021
-319.041	-62.533	0.286	-0.117
-318.026	770.342	-0.143	-0.385
-317.012	-200.000	0.001	0.254
-315.997	311.202	0.030	-0.055
-314.983	-200.000	-0.036	-0.461
-313.968	-8.725	-0.186	0.123
-312.953	-63.285	0.258	-0.105
-311.939	-120.053	0.233	0.039
-310.924	550.309	0.106	0.251
-309.910	800.000	0.025	0.104
-308.895	-39.734	-0.403	0.207
-307.880	43.821	0.146	0.132
-306.866	-29.626	0.134	-0.076
-305.851	-200.000	0.026	0.145
-304.837	-114.736	0.069	0.013
-303.822	123.791	-0.116	0.144
-302.807	575.821	0.149	-0.359
-301.793	-177.693	-0.355	0.008
-300.778	-139.114	-0.285	0.030
-299.764	-16.129	0.054	0.034
-298.749	-40.464	0.114	0.058
-297.735	42.690	0.103	-0.092
-296.720	211.066	0.228	0.354
-295.705	49.077	-0.056	-0.052
-294.691	47.627	0.144	-0.132
-293.676	0.663	0.291	0.205
-292.662	0.526	0.081	0.057
-291.647	-52.682	0.181	0.082
-290.632	-45.298	0.154	0.075
-289.618	-106.904	0.407	0.089
-288.603	800.000	-0.037	0.133
-287.589	800.000	-0.050	0.158
-286.574	-88.637	-0.519	-0.152
-285.559	-200.000	0.050	-0.360
-284.545	96.127	-0.034	0.038
-283.530	-17.667	-0.113	-0.070
-282.516	2.569	0.152	0.108
-281.501	800.000	0.118	0.394
-280.486	-200.000	-0.046	0.362
-279.472	280.993	0.162	-0.286
-278.457	-200.000	-0.042	0.213
-277.443	-200.000	0.014	0.184
-276.428	-48.526	-0.328	-0.155
-275.413	26.238	0.093	0.077
-274.399	44.834	-0.160	0.145
-273.384	197.183	-0.059	0.088
-272.370	-89.851	0.182	-0.052
-271.355	-142.781	-0.170	0.016
-270.340	-153.707	-0.224	-0.015
-269.326	-106.918	-0.307	-0.067
-268.311	-200.000	0.054	0.294
-267.297	-200.000	-0.008	0.082
-266.282	230.371	0.185	0.299
-265.267	-35.573	0.403	-0.215
-264.253	800.000	-0.069	0.193
-263.238	355.676	-0.187	-0.366
-262.224	800.000	0.131	-0.428
-261.209	-125.270	-0.486	-0.073
-260.195	800.000	0.056	-0.163
-259.180	-88.833	0.289	0.084
-258.165	-55.558	-0.012	-0.005
-257.151	-81.171	-0.153	0.050
-256.136	800.000	-0.120	0.405
-255.122	-92.980	-0.112	0.031
-254.107	-10.792	0.334	-0.217
-253.092	-107.981	-0.143	-0.031
-252.078	0.257	0.213	0.150
-251.063	392.560	-0.161	0.330
-250.049	-22.388	0.129	-0.077
-249.034	-200.000	0.029	-0.248
-248.019	-184.884	-0.175	-0.003
-247.005	-74.516	-0.316	-0.112
-245.990	-200.000	0.007	0.159
-244.976	299.838	0.065	-0.118
-243.961	-70.987	0.157	0.058
-242.946	-9.122	0.127	0.083
-241.932	800.000	0.055	-0.184
-240.917	-200.000	-0.045	-0.440
-239.903	106.409	-0.117	0.136
-238.888	19.822	0.145	0.115
-237.873	170.923	-0.055	0.077
-236.859	-73.970	-0.096	0.034
-235.844	-30.477	-0.126	-0.070
-234.830	-200.000	-0.018	-0.154
-233.815	800.000	-0.037	-0.151
-232.800	-200.000	-0.021	0.168
-231.786	9.899	0.307	0.229
-230.771	104.870	-0.193	-0.224
-229.757	-200.000	-0.019	0.295
-228.742	-200.000	-0.003	0.112
-227.727	117.358	-0.187	-0.226
-226.713	-50.875	0.174	-0.080
-225.698	-32.355	0.465	0.255
-224.684	101.322	-0.113	0.130
-223.669	393.958	0.104	-0.214
-222.655	161.983	0.223	-0.307
-221.640	77.357	0.032	0.033
-220.625	-55.455	-0.235	0.104
-219.611	-48.781	-0.086	0.040
-218.596	-24.043	0.238	-0.139
-217.582	-14.587	0.062	0.039
-216.567	16.987	0.168	0.131
-215.552	101.954	0.117	-0.134
-214.538	281.666	-0.060	-0.106
-213.523	-70.318	0.058	-0.022
-212.509	54.651	-0.281	-0.266
-211.494	77.603	-0.131	0.137
-210.479	-155.173	-0.412	0.026
-209.465	159.044	0.105	0.143
-208.450	491.445	-0.042	0.094
-207.436	391.143	0.056	-0.115
-206.421	-43.919	0.274	0.136
-205.406	35.610	-0.085	0.073
-204.392	-27.636	-0.138	-0.079
-203.377	-163.902	0.270	0.012
-202.363	-200.000	0.026	-0.133
-201.348	-103.192	-0.312	0.072
-200.333	-200.000	-0.005	-0.529
-199.319	-13.543	0.039	0.025
-198.304	-108.493	-0.116	0.024
-197.290	253.637	-0.088	0.148
-196.275	-200.000	0.022	-0.213
-195.260	189.099	0.229	0.336
-194.246	-87.285	0.305	0.091
-193.231	52.323	-0.041	0.038
-192.217	-135.957	0.050	-0.006
-191.202	18.619	0.038	-0.030
-190.187	-200.000	-0.016	0.130
-189.173	-40.000	0.127	0.065
-188.158	768.676	0.053	0.141
-187.144	-28.073	0.226	0.128
-186.129	-91.231	-0.102	0.029
-185.114	-160.613	-0.066	-0.003
-184.100	-200.000	-0.005	0.078
-183.085	-0.820	0.061	0.042
-182.071	-173.083	-0.114	0.003
-181.056	-200.000	-0.013	-0.190
-180.042	800.000	0.067	-0.231
-179.027	98.521	0.052	-0.058
-178.012	221.154	0.078	-0.122
-176.998	800.000	-0.146	-0.417
-175.983	-17.684	0.199	-0.123
-174.969	-200.000	-0.034	0.175
-173.954	68.641	0.099	0.100
-172.939	354.736	-0.240	0.468
-171.925	-69.427	-0.346	0.130
-170.910	-92.905	0.080	0.022
-169.896	800.000	0.059	-0.202
-168.881	-66.042	0.260	0.102
-167.866	65.192	0.165	0.164
-166.852	69.808	-0.102	0.103
-165.837	688.398	0.097	0.249
-164.823	175.271	-0.137	-0.194
-163.808	-97.039	0.154	0.040
-162.793	42.547	-0.048	-0.042
-161.779	237.588	-0.047	-0.077
-160.764	-23.014	0.079	0.047
-159.750	235.339	0.191	0.309
-158.735	-185.764	0.107	0.002
-157.720	-130.915	0.106	0.014
-156.706	16.890	0.168	0.130
-155.691	-88.103	0.225	-0.066
-154.677	-114.608	0.244	-0.046
-153.662	-200.000	-0.196	0.000
-152.647	105.729	-0.013	-0.015
-151.633	-200.000	0.012	-0.335
-150.618	-54.080	-0.100	0.044
-149.604	-114.884	0.363	-0.068
-148.589	-45.706	-0.209	0.101
-147.574	-200.000	0.043	0.277
-146.560	-167.204	-0.241	0.010
-145.545	-87.699	0.198	0.059
-144.531	800.000	-0.067	0.184
-143.516	-200.000	-0.021	-0.221
-142.502	9.361	-0.130	-0.097
-141.487	88.133	-0.210	-0.228
-140.472	354.600	0.162	0.315
-139.458	-42.374	-0.178	0.089
-138.443	-104.108	0.332	-0.076
-137.429	-200.000	0.032	-0.244
-136.414	-7.064	0.178	0.118
-135.399	-106.889	-0.378	0.082
-134.385	-135.867	-0.219	-0.025
-133.370	92.038	0.059	0.066
-132.356	800.000	0.018	0.078
-131.341	19.450	0.207	-0.163
-130.326	-154.888	0.231	-0.015
-129.312	441.160	-0.231	0.494
-128.297	800.000	0.053	-0.171
-127.283	-110.850	0.182	-0.037
-126.268	-71.640	-0.213	0.078
-125.253	-200.000	0.061	0.321
-124.239	-161.565	0.211	-0.011
-123.224	69.049	-0.132	0.133
-122.210	261.290	-0.190	0.321
-121.195	332.673	0.217	-0.410
-120.180	-200.000	0.002	0.099
-119.166	800.000	0.066	-0.180
-118.151	-27.814	-0.085	0.048
-117.137	-147.246	0.281	-0.023
-116.122	-75.328	0.244	-0.085
-115.107	323.565	-0.079	-0.147
-114.093	119.243	0.061	0.074
-113.078	9.774	0.306	0.227
-112.064	26.033	-0.147	-0.120
-111.049	800.000	-0.047	-0.163
-110.034	-44.353	0.154	0.075
-109.020	-137.666	0.398	0.044
-108.005	-94.178	0.352	-0.094
-106.991	194.899	0.027	-0.040
-105.976	-200.000	0.000	0.035
-104.962	800.000	-0.051	0.164
-103.947	-117.707	-0.260	-0.046
-102.932	243.773	-0.151	-0.249
-101.918	800.000	0.010	0.033
-100.903	97.994	-0.059	0.067
-99.889	280.176	0.169	0.296
-98.874	-200.000	-0.060	0.445
-97.859	72.240	-0.285	0.290
-96.845	-144.978	-0.287	-0.026
-95.830	106.563	0.076	0.088
-94.816	-200.000	-0.008	0.398
-93.801	800.000	-0.133	0.368
-92.786	-50.244	0.120	0.055
-91.772	110.254	-0.232	0.272
-90.757	800.000	0.083	0.305
-89.743	195.533	0.164	0.243
-88.728	122.232	0.103	-0.126
-87.713	146.255	-0.415	0.545
-86.699	-81.516	0.223	-0.072
-85.684	-200.000	-0.073	0.437
-84.670	376.318	0.135	0.269
-83.655	-200.000	0.009	-0.083
-82.640	800.000	-0.048	-0.131
-81.626	-114.444	0.187	-0.035
-80.611	-145.966	-0.058	-0.005
-79.597	800.000	0.076	0.213
-78.582	15.994	0.106	-0.082
-77.567	-45.184	0.082	-0.040
-76.553	-54.090	0.168	0.074
-75.538	-29.121	-0.464	0.260
-74.524	-115.007	0.404	0.075
-73.509	190.954	-0.228	-0.336
-72.494	152.966	0.088	0.117
-71.480	3.636	-0.319	-0.227
-70.465	800.000	0.085	0.325
-69.451	9.697	0.292	0.216
-68.436	307.477	-0.129	0.234
-67.422	800.000	-0.091	-0.264
-66.407	280.737	0.063	-0.110
-65.392	-91.591	0.104	-0.029
-64.378	354.300	0.023	-0.045
-63.363	120.865	0.125	0.152
-62.349	647.122	0.062	0.155
-61.334	89.817	-1.219	-1.329
-60.319	-47.707	0.951	0.450
-59.305	532.010	-0.560	-1.292
-58.290	275.398	0.867	1.501
-57.276	520.512	0.716	1.640
-56.261	-200.000	134.727	689.128
-55.246	348.190	1669.719	3213.390
-54.232	132.153	2814.017	3537.981
-53.217	82.316	2345.152	2483.328
-52.203	28.072	2080.079	1712.971
-51.188	23.353	1996.065	1601.189
-50.173	22.322	1981.709	1580.356
-49.159	41.172	2058.320	1815.303
-48.144	38.727	2069.028	1802.233
-47.130	23.870	2020.790	1625.487
-46.115	21.739	2009.839	1597.218
-45.100	21.615	2006.825	1593.628
-44.086	21.478	2004.688	1590.624
-43.071	21.530	2001.933	1588.851
-42.057	21.517	2000.008	1587.140
-41.042	21.571	1997.811	1585.822
-40.027	21.592	1995.991	1584.504
-39.013	21.614	1993.871	1582.962
-37.998	21.651	1992.284	1581.967
-36.984	21.543	1990.727	1579.694
-35.969	21.570	1989.282	1578.733
-34.954	21.563	1987.990	1577.576
-33.940	21.573	1986.190	1576.175
-32.925	21.596	1984.434	1574.925
-31.911	21.681	1982.287	1573.927
-30.896	21.616	1981.290	1572.492
-29.881	21.719	1978.759	1571.341
-28.867	21.656	1978.060	1570.158
-27.852	21.724	1975.508	1568.677
-26.838	21.723	1973.626	1567.116
-25.823	21.734	1972.304	1566.097
-24.809	21.705	1970.783	1564.574
-23.794	21.730	1969.278	1563.540
-22.779	21.698	1967.142	1561.490
-21.765	21.597	1966.552	1560.065
-20.750	21.627	1964.348	1558.522
-19.736	21.689	1962.648	1557.665
-18.721	21.679	1961.322	1556.458
-17.706	21.634	1959.694	1554.702
-16.692	21.667	1957.760	1553.401
-15.677	21.602	1956.551	1551.802
-14.663	21.700	1954.719	1551.158
-13.648	21.640	1953.654	1549.716
-12.633	21.543	1953.027	1548.305
-11.619	21.654	1950.837	1547.483
-10.604	21.612	1949.646	1546.108
-9.590	21.646	1948.363	1545.328
-8.575	21.714	1947.231	1544.975
-7.560	21.651	1945.772	1543.201
-6.546	21.640	1944.503	1542.030
-5.531	21.617	1943.043	1540.608
-4.517	21.573	1942.497	1539.726
-3.502	21.656	1940.562	1538.862
-2.487	21.634	1939.400	1537.690
-1.473	21.643	1938.991	1537.379
-0.458	21.738	1933.178	1533.541
0.556	20.377	1912.729	1503.415
1.571	15.897	1894.162	1450.188
2.586	11.934	1918.087	1433.747
3.600	11.095	1952.482	1451.849
4.615	11.122	1944.811	1446.259
5.629	8.885	1845.167	1353.173
6.644	3.788	1734.419	1231.315
7.659	0.833	1704.042	1186.491
8.673	0.761	1700.812	1183.571
9.688	0.768	1699.920	1182.899
10.702	0.690	1698.339	1181.086
11.717	0.601	1694.111	1177.351
12.731	1.009	1692.296	1179.163
13.746	5.079	1700.738	1216.732
14.761	11.864	1714.584	1279.720
15.775	16.369	1723.160	1321.329
16.790	17.232	1723.337	1328.090
17.804	16.365	1720.575	1319.075
18.819	15.441	1717.096	1309.091
19.834	14.804	1714.608	1302.113
20.848	14.458	1713.451	1298.425
21.863	14.319	1711.838	1296.011
22.877	14.036	1710.124	1292.399
23.892	13.826	1708.983	1289.790
24.907	13.684	1707.769	1287.655
25.921	13.674	1706.599	1286.582
26.936	13.686	1705.454	1285.698
27.950	13.697	1704.502	1284.950
28.965	13.799	1703.821	1285.112
29.980	13.804	1703.417	1284.731
30.994	13.885	1702.337	1284.434
32.009	13.993	1700.702	1283.921
33.023	13.913	1700.593	1283.107
34.038	13.935	1699.459	1282.308
35.053	13.973	1698.365	1281.661
36.067	13.953	1697.131	1280.460
37.082	13.864	1696.513	1279.200
38.096	13.893	1695.477	1278.526
39.111	13.908	1694.785	1278.006
40.126	13.908	1694.153	1277.415
41.140	13.960	1692.641	1276.563
42.155	13.801	1691.589	1274.436
43.169	13.786	1689.830	1272.879
44.184	13.845	1688.408	1272.147
45.199	13.761	1687.632	1270.806
46.213	13.835	1686.517	1270.427
47.228	13.821	1684.793	1268.906
48.242	13.775	1683.991	1267.842
49.257	13.875	1682.208	1267.146
50.271	13.833	1681.505	1266.181
51.286	13.773	1680.159	1264.603
52.301	13.868	1678.726	1264.132
53.315	13.783	1677.359	1262.348
54.330	13.815	1675.542	1261.110
55.344	13.819	1673.945	1259.829
56.359	13.722	1673.426	1258.586
57.374	13.748	1671.916	1257.539
58.388	13.749	1671.205	1256.904
59.403	13.812	1669.483	1255.970
60.417	13.756	1668.022	1254.339
61.432	13.690	1666.774	1252.793
62.447	13.744	1665.451	1252.093
63.461	13.647	1664.336	1250.408
64.476	13.699	1662.936	1249.642
65.490	13.649	1661.943	1248.410
66.505	13.605	1660.755	1247.074
67.520	13.663	1659.833	1246.703
68.534	13.664	1658.959	1245.947
69.549	13.665	1657.435	1244.703
70.563	13.745	1656.082	1244.176
71.578	13.663	1655.127	1242.736
72.593	13.688	1654.040	1241.990
73.607	13.644	1652.944	1240.732
74.622	13.718	1651.312	1239.948
75.636	13.641	1650.945	1238.986
76.651	13.620	1650.123	1238.103
77.666	13.677	1648.772	1237.404
78.680	13.740	1647.604	1236.892
79.695	13.635	1646.782	1235.381
80.709	13.645	1645.783	1234.595
81.724	13.646	1645.317	1234.144
82.739	13.667	1644.188	1233.349
83.753	13.739	1643.216	1233.043
84.768	13.717	1642.440	1232.187
85.782	13.797	1641.090	1231.658
86.797	13.897	1640.470	1231.825
87.812	13.838	1639.541	1230.584
88.826	13.791	1638.150	1229.081
89.841	13.776	1636.952	1227.965
90.855	13.703	1636.393	1226.894
91.870	13.755	1634.958	1226.100
92.884	13.819	1634.315	1225.980
93.899	13.795	1633.243	1224.888
94.914	13.850	1631.407	1223.808
95.928	13.921	1630.053	1223.206
96.943	13.911	1629.024	1222.254
97.957	13.971	1626.782	1220.907
98.972	13.860	1625.781	1219.231
99.987	13.896	1624.150	1218.160
101.001	13.900	1622.428	1216.793
102.016	13.910	1620.926	1215.632
103.030	13.833	1620.236	1214.443
104.045	13.754	1618.743	1212.642
105.060	13.825	1617.414	1212.057
106.074	13.868	1616.020	1211.214
107.089	13.788	1613.932	1208.961
108.103	13.771	1612.366	1207.558
109.118	13.739	1611.344	1206.451
110.133	13.690	1609.909	1204.915
111.147	13.806	1608.629	1204.696
112.162	13.785	1607.328	1203.461
113.176	13.727	1605.615	1201.652
114.191	13.821	1604.272	1201.222
115.206	13.822	1603.230	1200.339
116.220	13.773	1602.011	1198.966
117.235	13.817	1600.307	1197.904
118.249	13.747	1599.572	1196.745
119.264	13.756	1597.999	1195.529
120.279	13.739	1596.982	1194.539
121.293	13.717	1594.796	1192.640
122.308	13.792	1593.211	1191.887
123.322	13.724	1591.965	1190.360
124.337	13.761	1590.231	1189.225
125.352	13.749	1589.093	1188.179
126.366	13.710	1587.946	1186.937
127.381	13.788	1586.565	1186.362
128.395	13.663	1585.740	1184.742
129.410	13.691	1584.309	1183.772
130.424	13.754	1583.093	1183.205
131.439	13.758	1581.154	1181.679
132.454	13.809	1579.704	1180.854
133.468	13.773	1578.653	1179.713
134.483	13.845	1576.790	1178.726
135.497	13.844	1575.465	1177.623
136.512	13.740	1574.593	1176.128
137.527	13.784	1572.953	1175.116
138.541	13.847	1571.964	1174.712
139.556	13.725	1570.673	1172.787
140.570	13.929	1568.851	1172.758
141.585	13.898	1567.532	1171.455
142.600	13.965	1566.104	1170.755
143.614	13.936	1565.163	1169.744
144.629	14.012	1563.610	1169.014
145.643	13.975	1562.303	1167.673
146.658	14.023	1561.432	1167.258
147.673	13.999	1559.342	1165.421
148.687	13.974	1558.199	1164.290
149.702	14.023	1556.495	1163.255
150.716	13.961	1555.001	1161.600
151.731	14.025	1553.578	1160.887
152.746	13.970	1552.190	1159.362
153.760	13.832	1551.149	1157.519
154.775	13.989	1549.665	1157.399
155.789	14.092	1547.735	1156.576
156.804	14.033	1546.892	1155.433
157.819	14.048	1545.857	1154.662
158.833	14.159	1544.586	1154.378
159.848	14.155	1543.224	1153.228
160.862	14.217	1541.888	1152.562
161.877	14.170	1540.788	1151.309
162.892	14.204	1539.771	1150.685
163.906	14.089	1538.531	1148.864
164.921	14.028	1537.150	1147.305
165.935	14.121	1536.102	1147.063
166.950	14.072	1535.212	1145.963
167.964	14.147	1533.661	1145.219
168.979	14.124	1533.067	1144.516
169.994	14.063	1532.289	1143.410
171.008	14.143	1530.079	1142.216
172.023	14.218	1529.244	1142.004
173.037	14.227	1527.803	1140.889
174.052	14.289	1526.634	1140.341
175.067	14.316	1526.182	1140.087
176.081	14.167	1524.951	1138.049
177.096	14.148	1523.981	1137.093
178.110	14.149	1522.437	1135.847
179.125	14.151	1521.505	1135.062
180.140	14.143	1520.512	1134.165
181.154	14.198	1519.698	1133.832
182.169	14.263	1517.902	1132.837
183.183	14.247	1516.681	1131.713
184.198	14.313	1515.435	1131.137
185.213	14.384	1514.312	1130.677
186.227	14.405	1513.382	1130.028
187.242	14.344	1512.741	1129.032
188.256	14.424	1511.017	1128.188
189.271	14.476	1509.959	1127.651
190.286	14.474	1508.635	1126.551
191.300	14.392	1508.322	1125.664
192.315	14.392	1506.265	1124.029
193.329	14.272	1505.572	1122.603
194.344	14.269	1504.540	1121.714
195.359	14.335	1503.187	1121.050
196.373	14.399	1502.256	1120.686
197.388	14.441	1500.758	1119.750
198.402	14.470	1500.123	1119.369
199.417	14.563	1498.198	1118.462
200.432	14.570	1497.382	1117.799
201.446	14.604	1496.735	1117.444
202.461	14.644	1495.450	1116.652
203.475	14.661	1494.116	1115.674
204.490	14.655	1493.466	1115.049
205.504	14.627	1491.988	1113.659
206.519	14.647	1490.751	1112.773
207.534	14.669	1489.681	1112.019
208.548	14.623	1488.545	1110.767
209.563	14.718	1487.585	1110.584
210.577	14.604	1486.324	1108.789
211.592	14.651	1485.651	1108.500
212.607	14.638	1485.241	1108.010
213.621	14.772	1483.758	1107.694
214.636	14.762	1483.010	1106.975
215.650	14.780	1482.062	1106.288
216.665	14.706	1481.688	1105.418
217.680	14.763	1480.453	1104.773
218.694	14.751	1479.891	1104.178
219.709	14.895	1478.307	1103.853
220.723	14.897	1477.550	1103.198
221.738	14.857	1476.309	1101.916
222.753	14.913	1475.882	1101.863
223.767	14.850	1474.979	1100.678
224.782	14.850	1473.670	1099.607
225.796	14.913	1472.907	1099.351
226.811	14.979	1472.270	1099.214
227.826	15.031	1470.797	1098.357
228.840	14.930	1470.380	1097.290
229.855	14.960	1469.291	1096.572
230.869	14.965	1468.248	1095.734
231.884	14.969	1467.324	1094.968
232.899	14.897	1466.318	1093.654
233.913	14.901	1465.517	1092.985
234.928	14.969	1463.811	1092.061
235.942	14.885	1462.689	1090.575
236.957	14.922	1461.252	1089.650
237.972	14.970	1459.991	1088.923
238.986	14.965	1458.656	1087.802
240.001	15.023	1458.344	1087.853
241.015	15.070	1457.086	1087.120
242.030	15.029	1456.071	1086.004
243.045	15.071	1455.186	1085.516
244.059	15.089	1453.896	1084.576
245.074	15.077	1452.794	1083.579
246.088	15.222	1451.758	1083.650
247.103	15.113	1451.546	1082.688
248.117	15.176	1450.662	1082.343
249.132	15.265	1449.701	1082.104
250.147	15.239	1449.401	1081.618
251.161	15.258	1448.957	1081.309
252.176	15.249	1447.889	1080.359
253.190	15.373	1447.049	1080.439
254.205	15.397	1446.341	1079.969
255.220	15.381	1445.585	1079.203
256.234	15.431	1444.729	1078.790
257.249	15.521	1443.569	1078.408
258.263	15.442	1443.292	1077.600
259.278	15.475	1441.850	1076.637
260.293	15.378	1441.036	1075.316
261.307	15.507	1439.936	1075.221
262.322	15.604	1439.328	1075.293
263.336	15.652	1438.194	1074.657
264.351	15.646	1437.244	1073.814
265.366	15.625	1436.296	1072.879
266.380	15.616	1435.479	1072.113
267.395	15.585	1434.694	1071.237
268.409	15.678	1433.950	1071.176
269.424	15.635	1432.707	1069.883
270.439	15.694	1431.532	1069.284
271.453	15.626	1430.889	1068.275
272.468	15.670	1429.853	1067.690
273.482	15.675	1429.334	1067.242
274.497	15.719	1428.129	1066.526
275.512	15.731	1427.292	1065.881
276.526	15.782	1426.635	1065.618
277.541	15.681	1425.570	1064.088
278.555	15.722	1424.449	1063.418
279.570	15.724	1423.820	1062.871
280.585	15.680	1422.962	1061.853
281.599	15.805	1421.611	1061.544
282.614	15.874	1420.654	1061.169
283.628	15.840	1419.856	1060.266
284.643	15.804	1419.001	1059.303
285.657	15.853	1417.589	1058.466
286.672	15.939	1416.268	1057.928
287.687	15.859	1415.227	1056.553
288.701	15.923	1414.839	1056.573
289.716	15.995	1413.888	1056.219
290.730	15.928	1413.207	1055.199
291.745	15.957	1411.965	1054.358
292.760	15.797	1411.281	1052.754
293.774	16.003	1409.977	1052.975
294.789	16.008	1408.902	1052.107
295.803	15.967	1408.337	1051.335
296.818	15.925	1407.578	1050.416
297.833	15.931	1406.569	1049.605
298.847	15.971	1405.644	1049.076
299.862	16.090	1404.154	1048.608
300.876	16.055	1403.490	1047.800
301.891	16.060	1402.628	1047.096
302.906	16.153	1402.016	1047.126
303.920	16.077	1401.538	1046.205
304.935	16.162	1400.475	1045.843
305.949	16.243	1399.605	1045.607
306.964	16.293	1398.801	1045.223
307.979	16.286	1397.321	1043.983
308.993	16.240	1396.654	1043.105
310.008	16.338	1395.624	1042.851
311.022	16.262	1394.781	1041.659
312.037	16.268	1393.623	1040.735
313.052	16.281	1392.758	1040.078
314.066	16.368	1391.346	1039.470
315.081	16.219	1390.511	1037.838
316.095	16.158	1389.864	1036.888
317.110	16.194	1389.158	1036.490
318.125	16.288	1388.071	1036.163
319.139	16.268	1386.878	1035.060
320.154	16.328	1385.804	1034.533
321.168	16.355	1385.051	1034.048
322.183	16.369	1383.776	1033.087
323.197	16.349	1382.938	1032.246
324.212	16.415	1382.454	1032.198
325.227	16.352	1381.630	1031.108
326.241	16.424	1380.737	1030.788
327.256	16.360	1379.834	1029.635
328.270	16.452	1378.636	1029.210
329.285	16.465	1377.648	1028.459
330.300	16.440	1376.980	1027.720
331.314	16.368	1376.157	1026.576
332.329	16.457	1375.284	1026.370
333.343	16.502	1374.197	1025.745
334.358	16.595	1373.176	1025.454
335.373	16.574	1372.268	1024.559
336.387	16.530	1371.622	1023.721
337.402	16.534	1370.819	1023.054
338.416	16.562	1370.258	1022.716
339.431	16.561	1369.744	1022.235
340.446	16.679	1368.984	1022.289
341.460	16.703	1368.055	1021.649
342.475	16.648	1367.141	1020.547
343.489	16.773	1365.754	1020.173
344.504	16.832	1364.907	1019.802
345.519	16.705	1364.237	1018.452
346.533	16.876	1362.945	1018.420
347.548	16.810	1362.172	1017.358
348.562	16.814	1361.720	1016.953
349.577	16.819	1360.415	1015.918
350.592	16.845	1360.221	1015.839
351.606	16.825	1358.819	1014.584
352.621	16.898	1357.760	1014.140
353.635	16.764	1357.086	1012.747
354.650	16.853	1355.950	1012.341
355.665	16.866	1354.630	1011.341
356.679	16.906	1353.693	1010.792
357.694	16.860	1352.628	1009.637
358.708	16.952	1351.684	1009.386
359.723	16.931	1350.587	1008.351
360.738	16.877	1349.684	1007.270
361.752	16.944	1348.299	1006.547
362.767	16.962	1347.440	1005.919
363.781	16.998	1346.740	1005.524
364.796	16.961	1346.174	1004.792
365.810	17.077	1345.274	1004.721
366.825	16.961	1344.622	1003.455
367.840	17.039	1343.945	1003.323
368.854	17.133	1343.077	1003.140
369.869	17.181	1342.046	1002.563
370.883	17.118	1341.724	1001.868
371.898	17.150	1341.103	1001.501
372.913	17.254	1340.024	1001.222
373.927	17.085	1339.349	999.631
374.942	17.182	1338.328	999.354
375.956	17.186	1337.666	998.795
376.971	17.260	1336.788	998.482
377.986	17.189	1336.003	997.393
379.000	17.234	1335.500	997.191
380.015	17.388	1334.588	997.325
381.029	17.317	1333.752	996.194
382.044	17.402	1332.682	995.809
383.059	17.358	1332.122	995.044
384.073	17.373	1331.649	994.690
385.088	17.405	1330.904	994.235
386.102	17.400	1330.256	993.632
387.117	17.505	1329.550	993.630
388.132	17.365	1328.977	992.297
389.146	17.434	1327.628	991.602
390.161	17.356	1327.518	990.976
391.175	17.379	1326.526	990.282
392.190	17.418	1325.512	989.664
393.205	17.508	1324.447	989.308
394.219	17.416	1323.340	987.859
395.234	17.622	1321.957	987.935
396.248	17.557	1320.686	986.522
397.263	17.576	1319.449	985.616
398.278	17.557	1317.992	984.334
399.292	17.600	1317.301	983.977
400.307	17.592	1315.804	982.724
401.321	17.592	1314.874	981.946
402.336	17.506	1314.157	980.825
403.350	17.527	1313.441	980.325
404.365	17.521	1312.335	979.377
405.380	17.621	1311.275	979.075
406.394	17.625	1310.563	978.482
407.409	17.682	1309.730	978.102
408.423	17.713	1309.208	977.804
409.438	17.721	1308.265	977.056
410.453	17.623	1307.835	976.091
411.467	17.801	1306.538	976.051
412.482	17.842	1306.359	976.065
413.496	17.854	1305.387	975.321
414.511	17.836	1304.784	974.680
415.526	17.862	1304.069	974.208
416.540	17.910	1303.364	973.873
417.555	17.838	1303.000	973.104
418.569	18.003	1302.133	973.310
419.584	17.984	1301.825	972.884
420.599	18.015	1301.110	972.439
421.613	101.852	1363.113	1491.123
422.628	100.045	1372.065	1491.195
