DTS Sentinel unit serial number:	SN413079Multiplexer serial number:	ORYXHardware model number:	OX4-SRSoftware version number:	ORYX F/W v4.00 Oryx Data Collector v3.7.2.0data status	okinstallation	princeton_trtdifferential loss correction	single-endedforward channel	channel 4reverse channel	N/Adate	2019/09/13time	14:49:35forward acquisition time	60.00reverse acquisition time	0.00gamma	496.2192k internal	0.2294k external	0.2294temperature offset calibration	1.0208default loss term (dB/km)	0.3790temperature slope calibration	1.0000multiplexer offset coefficient	1.0000multiplexer slope coefficient	1.0000fibre end	0.00T internal ref (°C)	35.56T ext. ref 1 (°C)	4.68T ext. ref 2 (°C)	32.33length (m)	temperature (°C)	Stokes	anti-Stokes-747.200	88.042	0.172	0.195
-746.185	-200.000	-0.018	0.268
-745.171	-54.819	-0.283	0.131
-744.156	-200.000	0.015	0.352
-743.142	608.055	0.117	0.300
-742.127	-41.602	-0.245	0.129
-741.112	-54.853	-0.570	0.263
-740.098	38.070	-0.083	0.076
-739.083	-149.470	0.092	0.007
-738.069	-200.000	-0.029	0.283
-737.054	306.647	0.029	0.055
-736.039	-8.366	-0.127	0.087
-735.025	273.809	0.059	0.107
-734.010	289.302	-0.072	0.133
-732.996	-1.853	-0.235	-0.169
-731.981	101.181	-0.033	-0.040
-730.966	-139.291	0.217	0.024
-729.952	-200.000	-0.039	-0.194
-728.937	-200.000	0.088	0.000
-727.923	-200.000	0.004	-0.228
-726.908	-65.421	-0.121	-0.050
-725.894	800.000	0.092	-0.347
-724.879	133.372	0.039	0.051
-723.864	-167.332	0.304	0.013
-722.850	201.725	0.042	-0.066
-721.835	-100.358	-0.307	0.078
-720.821	-21.646	0.120	0.075
-719.806	24.833	-0.240	0.203
-718.791	21.498	-0.161	0.134
-717.777	800.000	0.044	0.132
-716.762	78.542	0.111	0.121
-715.748	320.236	0.112	0.216
-714.733	-132.532	-0.274	0.036
-713.718	-168.778	-0.252	-0.010
-712.704	136.957	0.171	-0.228
-711.689	-200.000	0.030	-0.151
-710.675	-125.021	0.352	-0.055
-709.660	-76.663	0.186	-0.067
-708.645	289.075	0.107	-0.198
-707.631	136.961	0.115	-0.153
-706.616	604.516	0.109	0.276
-705.602	-139.959	-0.256	0.028
-704.587	-114.561	-0.185	-0.036
-703.572	-102.020	-0.077	0.019
-702.558	-93.743	-0.241	-0.068
-701.543	198.065	0.257	-0.401
-700.529	-96.158	0.120	0.032
-699.514	-74.675	0.351	0.129
-698.499	52.557	0.333	0.324
-697.485	-124.933	-0.315	-0.050
-696.470	-97.511	-0.287	-0.076
-695.456	61.975	-0.098	-0.100
-694.441	46.321	0.067	0.063
-693.426	-200.000	-0.014	0.291
-692.412	-200.000	0.001	0.229
-691.397	-200.000	-0.006	-0.091
-690.383	328.196	-0.092	-0.180
-689.368	78.141	-0.242	0.264
-688.354	75.438	-0.353	0.381
-687.339	-72.083	-0.125	-0.048
-686.324	-64.640	0.142	-0.059
-685.310	-3.447	-0.215	-0.152
-684.295	38.127	-0.133	0.120
-683.281	-122.200	-0.293	0.049
-682.266	800.000	0.046	0.204
-681.251	-141.704	-0.138	-0.014
-680.237	-108.360	0.082	0.018
-679.222	186.886	-0.086	0.131
-678.208	-64.296	0.102	0.042
-677.193	-200.000	0.026	0.342
-676.178	800.000	0.039	0.167
-675.164	268.768	0.075	-0.134
-674.149	-146.015	0.167	-0.015
-673.135	28.411	0.139	-0.120
-672.120	-200.000	0.041	-0.266
-671.105	-124.950	0.136	-0.021
-670.091	800.000	-0.029	-0.114
-669.076	-0.323	0.178	-0.129
-668.062	-200.000	-0.010	-0.295
-667.047	-70.714	-0.131	-0.050
-666.032	-138.985	0.138	0.015
-665.018	800.000	-0.071	-0.269
-664.003	470.005	0.048	-0.110
-662.989	-73.375	0.164	0.061
-661.974	31.946	-0.114	-0.100
-660.959	800.000	-0.070	-0.289
-659.945	-90.176	-0.183	-0.054
-658.930	-62.959	-0.264	-0.111
-657.916	-87.860	0.078	0.024
-656.901	263.064	-0.198	-0.351
-655.886	-200.000	0.001	0.156
-654.872	-90.084	-0.323	-0.096
-653.857	800.000	0.040	-0.173
-652.843	214.164	-0.107	0.173
-651.828	800.000	-0.014	-0.042
-650.814	27.538	-0.221	-0.189
-649.799	-43.125	0.019	-0.010
-648.784	-200.000	0.070	-0.376
-647.770	-6.617	0.138	0.095
-646.755	800.000	0.011	-0.038
-645.741	-59.352	0.156	0.069
-644.726	-129.780	-0.271	0.038
-643.711	-160.513	0.226	0.012
-642.697	-200.000	-0.051	0.460
-641.682	35.333	-0.126	-0.113
-640.668	-200.000	0.016	0.127
-639.653	46.916	0.074	-0.070
-638.638	-107.630	0.205	0.046
-637.624	800.000	-0.066	-0.201
-636.609	103.620	-0.081	0.097
-635.595	-66.338	0.190	-0.077
-634.580	-200.000	-0.068	0.373
-633.565	130.814	-0.087	0.114
-632.551	-134.920	-0.306	0.038
-631.536	-41.903	-0.143	-0.075
-630.522	-12.335	0.211	-0.140
-629.507	683.725	-0.030	-0.080
-628.492	-200.000	-0.037	0.212
-627.478	-36.528	0.060	0.033
-626.463	-32.956	-0.251	0.142
-625.449	-70.285	-0.117	-0.045
-624.434	-89.730	0.330	0.098
-623.419	-159.506	-0.254	0.014
-622.405	-56.231	0.327	-0.148
-621.390	-31.282	0.048	0.028
-620.376	145.588	0.183	-0.250
-619.361	800.000	0.155	-0.482
-618.346	-82.992	-0.048	0.016
-617.332	40.749	0.186	0.171
-616.317	-200.000	-0.029	-0.136
-615.303	-200.000	0.034	0.196
-614.288	-140.315	-0.282	0.030
-613.273	575.211	-0.170	-0.422
-612.259	643.111	0.068	-0.176
-611.244	800.000	-0.084	0.264
-610.230	29.630	-0.208	-0.180
-609.215	599.669	0.081	0.204
-608.201	504.115	-0.167	0.393
-607.186	-100.312	0.059	-0.015
-606.171	-61.850	-0.028	-0.012
-605.157	149.938	-0.241	-0.333
-604.142	-200.000	0.011	-0.086
-603.128	81.493	0.175	0.192
-602.113	-200.000	-0.023	-0.226
-601.098	504.095	-0.022	0.051
-600.084	-17.507	0.197	-0.126
-599.069	226.536	-0.163	-0.269
-598.055	-200.000	-0.018	0.081
-597.040	448.178	0.136	-0.305
-596.025	23.091	0.101	-0.085
-595.011	-69.247	0.104	0.041
-593.996	177.305	0.152	0.225
-592.982	57.756	0.168	0.167
-591.967	145.813	0.060	-0.081
-590.952	800.000	-0.062	0.178
-589.938	99.015	-0.123	-0.144
-588.923	39.451	0.167	-0.152
-587.909	419.298	-0.010	-0.021
-586.894	-142.686	0.267	-0.027
-585.879	800.000	-0.029	-0.081
-584.865	-38.328	0.321	-0.173
-583.850	168.267	0.063	-0.092
-582.836	-200.000	-0.010	-0.316
-581.821	528.899	0.082	-0.196
-580.806	800.000	-0.026	0.085
-579.792	14.600	0.293	-0.233
-578.777	800.000	-0.097	-0.424
-577.763	-14.477	-0.228	-0.149
-576.748	61.378	-0.478	-0.482
-575.733	234.688	0.081	-0.136
-574.719	150.357	-0.202	0.278
-573.704	800.000	0.036	-0.102
-572.690	800.000	-0.076	0.295
-571.675	251.838	-0.052	0.090
-570.661	-200.000	-0.044	0.532
-569.646	310.960	0.084	-0.160
-568.631	-123.277	-0.044	0.007
-567.617	-16.852	-0.095	0.061
-566.602	-50.192	-0.139	0.067
-565.588	-11.484	0.047	-0.031
-564.573	174.627	0.040	-0.059
-563.558	-15.763	0.362	0.235
-562.544	-149.328	-0.077	-0.006
-561.529	-152.092	0.180	-0.013
-560.515	-101.165	0.477	-0.118
-559.500	25.778	-0.287	0.243
-558.485	-200.000	0.208	0.000
-557.471	-118.495	-0.179	-0.032
-556.456	-128.667	0.129	0.019
-555.442	258.052	-0.104	-0.182
-554.427	-84.455	0.254	0.082
-553.412	45.462	0.212	-0.199
-552.398	-115.069	-0.232	-0.045
-551.383	-135.116	0.321	-0.039
-550.369	-30.319	0.263	-0.151
-549.354	800.000	-0.050	-0.181
-548.339	-96.759	-0.178	-0.047
-547.325	14.778	-0.054	0.043
-546.310	-177.228	0.352	-0.009
-545.296	800.000	0.059	0.214
-544.281	-75.168	-0.034	0.012
-543.266	-154.706	-0.305	-0.021
-542.252	129.699	0.115	-0.150
-541.237	107.651	0.213	0.257
-540.223	42.285	-0.128	0.118
-539.208	-200.000	-0.003	-0.088
-538.193	109.805	0.200	0.243
-537.179	-108.212	0.216	0.047
-536.164	-18.508	0.209	0.132
-535.150	514.003	-0.047	-0.111
-534.135	-64.033	-0.150	-0.062
-533.121	73.595	0.249	-0.264
-532.106	-61.880	-0.229	-0.097
-531.091	-34.723	-0.261	-0.145
-530.077	-105.127	0.145	0.034
-529.062	-200.000	-0.007	-0.067
-528.048	-200.000	-0.021	0.204
-527.033	36.678	0.193	0.172
-526.018	-29.853	0.223	0.129
-525.004	-19.129	0.076	0.048
-523.989	-71.177	0.178	-0.068
-522.975	-200.000	-0.035	0.271
-521.960	-200.000	-0.020	0.113
-520.945	194.276	-0.095	-0.146
-519.931	41.345	-0.143	0.132
-518.916	123.584	-0.105	-0.133
-517.902	800.000	0.092	-0.314
-516.887	713.533	-0.082	-0.219
-515.872	107.857	-0.234	-0.282
-514.858	800.000	-0.025	0.083
-513.843	-200.000	0.011	-0.181
-512.829	132.740	-0.082	0.107
-511.814	-200.000	0.010	0.473
-510.799	-29.005	-0.123	-0.072
-509.785	-200.000	0.045	-0.249
-508.770	-200.000	0.043	-0.218
-507.756	115.386	-0.132	0.164
-506.741	-98.347	0.129	-0.033
-505.726	205.818	-0.213	-0.336
-504.712	-91.594	0.116	-0.033
-503.697	-94.209	0.194	-0.054
-502.683	17.998	-0.285	0.230
-501.668	-200.000	-0.014	0.140
-500.653	-64.507	-0.336	-0.138
-499.639	162.378	-0.232	-0.329
-498.624	529.148	-0.111	-0.266
-497.610	800.000	-0.034	-0.127
-496.595	70.179	0.140	0.147
-495.581	28.781	-0.029	0.024
-494.566	89.029	-0.136	0.154
-493.551	246.637	0.062	0.106
-492.537	337.629	-0.091	0.179
-491.522	-72.810	-0.167	0.062
-490.508	-132.830	0.174	-0.022
-489.493	-67.298	-0.261	0.104
-488.478	-29.588	-0.128	-0.074
-487.464	-120.981	-0.273	0.046
-486.449	-200.000	0.004	-0.076
-485.435	800.000	0.036	-0.102
-484.420	-90.389	0.122	0.036
-483.405	23.935	-0.341	-0.284
-482.391	-96.846	-0.041	-0.011
-481.376	-200.000	-0.006	0.127
-480.362	30.627	-0.377	0.326
-479.347	-200.000	0.043	0.355
-478.332	800.000	0.085	-0.242
-477.318	-63.909	-0.352	-0.146
-476.303	280.256	-0.200	-0.361
-475.289	-73.088	0.390	-0.145
-474.274	44.990	-0.197	-0.184
-473.259	-74.863	0.121	0.044
-472.245	-7.130	-0.131	-0.090
-471.230	-85.676	0.346	-0.109
-470.216	-90.383	0.350	0.103
-469.201	-200.000	-0.035	-0.222
-468.186	-62.220	0.100	0.042
-467.172	-112.454	-0.361	-0.073
-466.157	34.570	0.119	-0.105
-465.143	21.004	-0.274	-0.225
-464.128	-200.000	0.005	0.064
-463.113	-59.631	-0.200	0.087
-462.099	531.893	-0.120	-0.287
-461.084	62.868	-0.057	0.057
-460.070	173.290	-0.182	0.266
-459.055	-200.000	-0.003	0.228
-458.040	90.376	0.198	0.224
-457.026	-9.750	0.213	0.143
-456.011	-128.076	-0.194	-0.028
-454.997	156.117	-0.065	0.090
-453.982	383.337	0.072	-0.149
-452.968	-41.192	0.308	0.160
-451.953	-134.647	-0.209	-0.026
-450.938	-69.948	-0.391	0.151
-449.924	497.417	0.059	-0.138
-448.909	251.855	-0.139	-0.239
-447.895	-156.144	0.210	0.013
-446.880	-93.999	-0.456	-0.127
-445.865	97.938	0.095	-0.111
-444.851	775.534	0.100	0.276
-443.836	384.102	0.085	0.176
-442.822	117.609	-0.043	-0.053
-441.807	-22.676	-0.168	-0.103
-440.792	324.255	0.007	-0.013
-439.778	457.797	-0.076	-0.171
-438.763	800.000	0.119	0.359
-437.749	-13.710	0.212	0.139
-436.734	-102.800	0.164	-0.039
-435.719	7.412	0.221	0.167
-434.705	-200.000	-0.041	0.272
-433.690	638.837	0.070	-0.179
-432.676	-55.021	0.144	0.066
-431.661	-172.643	-0.268	0.008
-430.646	-13.544	-0.222	0.146
-429.632	-200.000	0.003	0.141
-428.617	-45.239	0.269	-0.135
-427.603	254.028	-0.138	0.238
-426.588	-200.000	-0.041	-0.309
-425.573	132.847	0.086	-0.112
-424.559	-64.798	-0.202	0.083
-423.544	182.151	0.080	0.120
-422.530	201.358	0.094	0.146
-421.515	305.612	0.207	0.389
-420.500	-200.000	-0.010	-0.124
-419.486	51.714	0.167	0.161
-418.471	-200.000	-0.007	-0.317
-417.457	80.179	-0.101	-0.109
-416.442	-200.000	-0.033	0.288
-415.428	49.212	-0.464	-0.440
-414.413	78.189	-0.064	-0.069
-413.398	-200.000	0.014	-0.159
-412.384	361.545	0.098	-0.198
-411.369	-11.666	0.287	0.190
-410.355	432.508	0.094	0.206
-409.340	-48.465	0.148	0.072
-408.325	6.405	-0.168	-0.126
-407.311	-119.149	-0.171	-0.030
-406.296	800.000	-0.041	-0.117
-405.282	10.335	-0.315	-0.242
-404.267	383.073	-0.078	0.163
-403.252	118.640	0.214	-0.267
-402.238	-200.000	-0.021	-0.242
-401.223	-98.583	0.241	-0.062
-400.209	-128.336	0.219	0.031
-399.194	-94.187	0.079	-0.022
-398.179	-65.301	-0.175	-0.071
-397.165	35.572	0.177	-0.157
-396.150	678.169	-0.013	-0.035
-395.136	-92.726	-0.158	0.045
-394.121	-200.000	0.011	-0.246
-393.106	210.135	0.082	-0.130
-392.092	322.534	-0.013	0.025
-391.077	105.755	0.181	-0.216
-390.063	-29.459	0.134	0.077
-389.048	-200.000	-0.001	-0.238
-388.033	165.848	-0.167	0.238
-387.019	429.258	-0.093	-0.203
-386.004	201.118	0.057	-0.089
-384.990	-136.021	0.158	-0.019
-383.975	52.938	-0.225	-0.217
-382.960	-171.463	-0.165	0.006
-381.946	186.781	-0.154	-0.232
-380.931	-162.881	-0.295	-0.014
-379.917	23.291	0.277	0.229
-378.902	-200.000	-0.032	0.446
-377.888	-170.103	0.290	0.010
-376.873	-200.000	0.006	-0.190
-375.858	-146.444	-0.344	-0.030
-374.844	514.346	-0.079	-0.187
-373.829	-200.000	0.011	0.321
-372.815	-48.122	-0.284	0.138
-371.800	26.493	-0.268	0.226
-370.785	-200.000	-0.033	0.385
-369.771	3.278	-0.173	0.127
-368.756	-200.000	-0.022	0.165
-367.742	-36.025	0.262	0.142
-366.727	638.094	0.107	0.273
-365.712	769.400	-0.033	-0.091
-364.698	800.000	-0.086	-0.371
-363.683	800.000	0.042	-0.156
-362.669	800.000	0.059	-0.165
-361.654	-199.825	0.288	-0.001
-360.639	-200.000	-0.015	-0.081
-359.625	-110.172	-0.114	0.024
-358.610	800.000	-0.107	-0.341
-357.596	-20.353	0.158	0.098
-356.581	-200.000	0.015	0.369
-355.566	-200.000	0.013	-0.065
-354.552	-162.809	-0.132	-0.006
-353.537	18.650	-0.101	0.081
-352.523	578.662	0.081	0.199
-351.508	-45.643	0.396	0.197
-350.493	190.708	-0.064	-0.096
-349.479	282.932	-0.037	-0.067
-348.464	-200.000	-0.009	0.046
-347.450	388.983	-0.034	-0.072
-346.435	800.000	0.058	0.203
-345.420	83.834	-0.154	0.169
-344.406	-69.594	0.212	-0.082
-343.391	800.000	-0.049	-0.163
-342.377	-101.193	0.413	-0.102
-341.362	36.690	0.268	0.238
-340.348	-74.194	-0.328	-0.119
-339.333	108.456	-0.066	0.079
-338.318	-200.000	0.005	0.297
-337.304	-99.887	-0.328	-0.082
-336.289	800.000	-0.081	0.346
-335.275	130.307	-0.115	-0.148
-334.260	-40.525	0.170	-0.089
-333.245	279.019	0.023	0.041
-332.231	-200.000	0.068	0.490
-331.216	70.644	-0.222	0.231
-330.202	306.573	-0.147	0.276
-329.187	-31.690	0.085	-0.048
-328.172	459.872	0.101	-0.226
-327.158	-200.000	0.098	-0.000
-326.143	-119.988	-0.078	0.013
-325.129	153.201	-0.213	-0.293
-324.114	-200.000	-0.067	0.299
-323.099	-28.346	-0.264	-0.153
-322.085	143.909	0.098	0.131
-321.070	-200.000	-0.037	0.354
-320.056	-105.777	-0.145	0.033
-319.041	-73.985	-0.293	0.107
-318.026	-200.000	0.066	0.292
-317.012	191.221	0.039	-0.059
-315.997	-18.805	-0.119	-0.075
-314.983	-200.000	-0.017	-0.193
-313.968	-4.982	0.155	0.107
-312.953	-28.252	-0.072	-0.042
-311.939	-48.170	0.095	-0.046
-310.924	-2.107	0.232	0.164
-309.910	-95.323	0.115	-0.031
-308.895	-97.356	0.178	-0.047
-307.880	116.151	-0.182	0.224
-306.866	-159.939	0.014	0.001
-305.851	800.000	0.112	-0.318
-304.837	800.000	0.053	-0.194
-303.822	800.000	-0.088	0.291
-302.807	80.409	-0.232	0.251
-301.793	-200.000	-0.013	0.091
-300.778	-132.235	0.153	0.020
-299.764	201.925	0.031	-0.048
-298.749	-49.781	0.047	0.022
-297.735	150.898	-0.184	-0.252
-296.720	-141.147	-0.119	0.012
-295.705	781.099	0.016	-0.044
-294.691	-147.519	0.108	-0.009
-293.676	-200.000	0.017	0.229
-292.662	-200.000	0.038	0.225
-291.647	-198.174	-0.185	0.001
-290.632	700.726	-0.098	-0.260
-289.618	414.591	0.200	0.429
-288.603	631.575	0.082	-0.209
-287.589	-82.818	-0.148	0.048
-286.574	-167.166	-0.110	0.004
-285.559	-99.574	-0.222	0.056
-284.545	-200.000	0.013	0.113
-283.530	-200.000	-0.070	-0.515
-282.516	-106.104	-0.190	-0.043
-281.501	19.083	0.269	0.216
-280.486	-12.827	-0.117	0.076
-279.472	-200.000	-0.003	-0.183
-278.457	-44.307	-0.133	0.067
-277.443	-200.000	-0.042	0.403
-276.428	-106.216	0.198	0.045
-275.413	309.421	-0.135	0.254
-274.399	43.265	-0.090	-0.083
-273.384	800.000	-0.059	-0.246
-272.370	36.985	-0.270	0.239
-271.355	800.000	-0.027	0.108
-270.340	84.545	-0.121	0.133
-269.326	92.057	-0.095	0.107
-268.311	-200.000	0.027	0.192
-267.297	233.659	-0.159	0.263
-266.282	-200.000	0.042	-0.223
-265.267	239.263	0.149	0.248
-264.253	800.000	0.101	0.303
-263.238	-58.822	0.141	0.061
-262.224	312.271	-0.060	-0.114
-261.209	73.900	-0.321	-0.337
-260.195	-200.000	0.011	0.165
-259.180	-28.078	0.161	0.093
-258.165	179.927	-0.074	0.108
-257.151	66.750	0.101	0.104
-256.136	310.102	0.083	0.157
-255.122	96.158	-0.131	0.151
-254.107	91.187	0.170	0.192
-253.092	103.331	-0.137	-0.162
-252.078	53.848	-0.149	0.144
-251.063	328.055	0.136	0.262
-250.049	-53.718	0.256	0.117
-249.034	-86.749	0.165	0.051
-248.019	41.357	0.212	-0.192
-247.005	-37.122	0.200	-0.107
-245.990	-44.138	0.246	-0.124
-244.976	77.771	-0.153	-0.163
-243.961	-119.414	-0.341	0.059
-242.946	-84.045	-0.198	-0.063
-241.932	-171.874	0.072	-0.002
-240.917	-174.100	0.163	0.005
-239.903	-36.563	-0.162	-0.087
-238.888	-79.407	-0.217	0.074
-237.873	-80.773	0.186	-0.062
-236.859	258.137	0.091	0.157
-235.844	-200.000	-0.001	-0.021
-234.830	111.125	-0.031	0.037
-233.815	84.617	-0.266	0.292
-232.800	147.425	0.112	0.151
-231.786	520.253	0.048	0.112
-230.771	-27.709	-0.393	-0.229
-229.757	800.000	0.134	0.442
-228.742	-200.000	0.020	-0.211
-227.727	237.270	0.054	0.089
-226.713	-31.693	0.231	0.130
-225.698	-200.000	-0.018	0.316
-224.684	-36.132	-0.434	-0.235
-223.669	-17.827	0.170	0.107
-222.655	55.967	-0.210	-0.204
-221.640	67.516	-0.323	-0.331
-220.625	-148.099	0.149	-0.012
-219.611	213.268	0.228	0.361
-218.596	106.741	0.061	0.072
-217.582	-143.245	0.143	0.014
-216.567	-66.827	-0.114	0.045
-215.552	-35.103	0.208	0.114
-214.538	-21.693	0.275	0.168
-213.523	494.538	0.069	0.158
-212.509	259.373	-0.125	0.216
-211.494	-78.357	0.193	0.066
-210.479	110.229	0.141	0.170
-209.465	-200.000	0.021	0.150
-208.450	-200.000	0.011	-0.128
-207.436	15.549	-0.224	-0.176
-206.421	6.245	0.142	0.106
-205.406	-200.000	-0.007	-0.129
-204.392	-107.683	0.352	0.077
-203.377	182.845	-0.139	-0.206
-202.363	294.923	-0.033	-0.061
-201.348	-38.949	0.438	0.231
-200.333	84.980	0.160	0.176
-199.319	800.000	0.034	-0.101
-198.304	-171.692	0.145	0.005
-197.290	-6.289	-0.056	-0.038
-196.275	654.876	-0.120	-0.309
-195.260	-200.000	-0.069	-0.353
-194.246	35.088	0.262	-0.230
-193.231	-43.917	-0.191	0.096
-192.217	-200.000	-0.040	-0.191
-191.202	-105.026	0.183	0.042
-190.187	236.300	-0.119	-0.197
-189.173	-200.000	-0.016	-0.106
-188.158	-13.907	0.019	0.012
-187.144	800.000	-0.105	-0.364
-186.129	11.340	0.234	0.179
-185.114	-200.000	0.028	-0.175
-184.100	36.899	-0.142	-0.126
-183.085	173.161	0.141	0.203
-182.071	286.030	-0.083	0.149
-181.056	-200.000	0.030	-0.440
-180.042	379.387	-0.049	0.100
-179.027	800.000	-0.069	0.287
-178.012	174.671	-0.144	0.209
-176.998	-83.405	-0.225	-0.072
-175.983	-61.730	0.219	-0.092
-174.969	48.972	0.208	-0.196
-173.954	35.568	-0.138	-0.121
-172.939	124.166	0.174	0.219
-171.925	-25.329	-0.198	0.117
-170.910	-86.761	0.235	0.072
-169.896	-42.398	0.076	-0.039
-168.881	180.814	0.141	-0.207
-167.866	-200.000	0.030	-0.276
-166.852	-200.000	-0.002	-0.192
-165.837	-181.107	0.411	0.008
-164.823	-33.948	0.137	-0.076
-163.808	97.582	0.098	0.113
-162.793	-14.193	-0.279	-0.180
-161.779	129.533	-0.121	-0.154
-160.764	-12.908	0.302	0.196
-159.750	-116.458	0.064	0.012
-158.735	-200.000	0.045	-0.493
-157.720	-53.118	0.139	-0.064
-156.706	24.786	-0.068	-0.056
-155.691	-200.000	0.002	-0.120
-154.677	32.673	-0.088	0.076
-153.662	-177.016	0.181	-0.005
-152.647	-25.104	0.150	-0.089
-151.633	-39.876	-0.263	-0.137
-150.618	-39.338	-0.116	-0.061
-149.604	-94.264	0.245	-0.067
-148.589	-49.122	-0.071	0.034
-147.574	-85.486	-0.145	-0.045
-146.560	-15.317	0.347	0.222
-145.545	-81.337	-0.302	0.099
-144.531	-199.957	-0.094	0.000
-143.516	-5.550	0.256	-0.175
-142.502	21.034	0.234	0.189
-141.487	-200.000	0.026	-0.308
-140.472	-200.000	0.009	-0.139
-139.458	-138.345	0.076	-0.008
-138.443	108.491	-0.161	0.192
-137.429	800.000	0.021	0.084
-136.414	-200.000	-0.005	-0.066
-135.399	-51.617	0.354	0.165
-134.385	-152.776	-0.154	-0.011
-133.370	181.869	0.013	-0.019
-132.356	-34.811	0.190	0.104
-131.341	40.396	0.043	0.039
-130.326	-106.191	0.101	-0.023
-129.312	800.000	-0.019	0.058
-128.297	-163.182	0.365	0.018
-127.283	24.546	0.204	0.169
-126.268	215.260	-0.091	0.144
-125.253	34.831	0.377	-0.329
-124.239	-128.691	-0.127	0.018
-123.224	222.360	0.113	-0.182
-122.210	148.357	0.259	0.349
-121.195	800.000	-0.028	0.083
-120.180	-200.000	0.126	-0.000
-119.166	97.158	-0.221	0.253
-118.151	-200.000	-0.015	0.200
-117.137	-107.174	-0.204	0.045
-116.122	800.000	-0.043	-0.125
-115.107	38.379	0.194	0.173
-114.093	58.895	0.244	0.240
-113.078	-200.000	0.001	0.234
-112.064	34.871	0.170	-0.148
-111.049	-108.080	0.186	-0.040
-110.034	515.719	-0.086	0.201
-109.020	-200.000	-0.004	0.029
-108.005	54.666	0.161	0.155
-106.991	-93.174	-0.342	0.095
-105.976	800.000	-0.075	0.221
-104.962	17.701	-0.289	0.230
-103.947	-200.000	0.042	-0.185
-102.932	-39.573	-0.301	-0.157
-101.918	121.396	0.117	0.145
-100.903	266.075	-0.023	0.040
-99.889	-99.075	0.229	0.058
-98.874	90.259	0.285	0.317
-97.859	-127.806	0.173	0.025
-96.845	-148.977	-0.333	-0.027
-95.830	59.042	-0.052	-0.051
-94.816	624.058	0.106	0.266
-93.801	-10.861	-0.290	0.191
-92.786	441.890	0.138	0.301
-91.772	-200.000	0.085	0.379
-90.757	120.377	-0.110	0.137
-89.743	800.000	-0.053	0.148
-88.728	6.364	-0.066	-0.049
-87.713	800.000	-0.041	0.160
-86.699	-158.151	0.473	0.028
-85.684	-61.056	-0.136	-0.057
-84.670	-111.160	0.201	0.041
-83.655	-132.111	-0.156	0.020
-82.640	-200.000	0.038	0.246
-81.626	-142.285	-0.185	-0.018
-80.611	162.013	-0.189	-0.264
-79.597	-200.000	0.001	-0.204
-78.582	-11.902	-0.406	-0.266
-77.567	63.056	0.231	0.231
-76.553	-88.295	0.189	0.056
-75.538	-179.618	0.247	0.005
-74.524	800.000	-0.077	0.241
-73.509	-30.173	-0.323	0.183
-72.494	-106.899	-0.129	0.028
-71.480	55.027	-0.139	0.134
-70.465	72.669	-0.107	-0.112
-69.451	-61.676	-0.254	0.106
-68.436	154.261	-0.193	0.264
-67.422	-94.427	-0.208	0.057
-66.407	-144.120	-0.399	0.037
-65.392	-13.769	0.124	0.080
-64.378	800.000	-0.090	-0.285
-63.363	800.000	0.038	-0.122
-62.349	-72.854	0.096	0.035
-61.334	145.612	-0.625	-0.834
-60.319	54.342	0.610	0.585
-59.305	800.000	-0.267	-0.968
-58.290	145.140	0.644	0.858
-57.276	800.000	0.499	1.463
-56.261	-200.000	92.254	539.816
-55.246	587.162	1384.130	3391.254
-54.232	182.691	2610.809	3834.192
-53.217	111.619	2356.862	2830.677
-52.203	42.142	2101.647	1899.668
-51.188	37.234	2013.107	1774.843
-50.173	35.657	1994.241	1743.847
-49.159	49.366	2044.113	1913.737
-48.144	52.273	2063.681	1958.710
-47.130	38.040	2022.224	1789.996
-46.115	35.655	2009.712	1757.074
-45.100	35.491	2006.918	1753.068
-44.086	35.492	2004.199	1750.627
-43.071	35.326	2002.181	1747.289
-42.057	35.371	1999.672	1745.433
-41.042	35.455	1997.961	1744.637
-40.027	35.475	1995.812	1742.869
-39.013	35.535	1993.831	1741.616
-37.998	35.461	1991.942	1739.228
-36.984	35.453	1990.083	1737.460
-35.969	35.437	1988.256	1735.652
-34.954	35.504	1986.397	1734.565
-33.940	35.521	1984.527	1733.019
-32.925	35.543	1983.210	1731.999
-31.911	35.529	1981.594	1730.397
-30.896	35.632	1979.326	1729.275
-29.881	35.504	1978.487	1727.316
-28.867	35.621	1976.193	1726.296
-27.852	35.602	1975.002	1725.016
-26.838	35.633	1972.710	1723.223
-25.823	35.654	1970.879	1721.743
-24.809	35.553	1969.270	1719.370
-23.794	35.545	1967.592	1717.762
-22.779	35.551	1966.367	1716.676
-21.765	35.585	1964.518	1715.297
-20.750	35.564	1962.098	1712.931
-19.736	35.571	1961.115	1712.069
-18.721	35.677	1959.334	1711.387
-17.706	35.549	1957.711	1708.769
-16.692	35.568	1955.786	1707.189
-15.677	35.624	1954.241	1706.271
-14.663	35.641	1952.681	1704.985
-13.648	35.614	1951.981	1704.070
-12.633	35.625	1950.459	1702.769
-11.619	35.578	1949.389	1701.351
-10.604	35.596	1947.707	1699.977
-9.590	35.552	1946.123	1698.141
-8.575	35.526	1945.786	1697.546
-7.560	35.573	1943.950	1696.297
-6.546	35.600	1942.529	1695.223
-5.531	35.649	1941.264	1694.481
-4.517	35.533	1940.312	1692.564
-3.502	35.584	1938.834	1691.655
-2.487	35.524	1937.887	1690.238
-1.473	35.553	1936.658	1689.352
-0.458	35.775	1932.308	1687.440
0.556	38.446	1913.195	1661.947
1.571	34.013	1893.010	1606.901
2.586	29.235	1914.304	1583.882
3.600	27.625	1949.017	1598.359
4.615	25.989	1942.484	1578.551
5.629	20.004	1839.752	1445.156
6.644	10.242	1718.483	1273.329
7.659	5.030	1679.241	1203.988
8.673	4.658	1675.410	1198.263
9.688	4.643	1674.829	1197.625
10.702	4.730	1673.128	1196.976
11.717	4.670	1670.480	1194.514
12.731	5.453	1670.309	1200.299
13.746	12.124	1686.234	1263.162
14.761	20.463	1704.326	1341.258
15.775	22.899	1707.695	1362.602
16.790	22.406	1704.925	1356.475
17.804	21.434	1701.425	1346.094
18.819	20.401	1698.307	1335.566
19.834	19.801	1696.524	1329.440
20.848	19.668	1694.769	1326.925
21.863	19.498	1693.345	1324.385
22.877	19.303	1691.955	1321.690
23.892	19.061	1690.552	1318.617
24.907	18.994	1690.038	1317.592
25.921	18.977	1688.597	1316.218
26.936	18.993	1687.588	1315.440
27.950	18.985	1686.388	1314.326
28.965	18.986	1686.551	1314.347
29.980	19.104	1685.493	1314.302
30.994	19.261	1684.209	1314.387
32.009	19.272	1683.621	1313.890
33.023	19.285	1683.141	1313.501
34.038	19.458	1681.733	1313.604
35.053	19.351	1680.636	1311.819
36.067	19.263	1678.771	1309.577
37.082	19.117	1678.244	1307.942
38.096	19.221	1676.743	1307.447
39.111	19.257	1675.620	1306.723
40.126	19.327	1675.267	1306.863
41.140	19.252	1674.929	1305.920
42.155	19.098	1672.807	1302.983
43.169	18.798	1671.481	1299.562
44.184	18.753	1670.034	1297.983
45.199	18.768	1668.998	1297.177
46.213	18.739	1668.151	1296.183
47.228	18.793	1666.739	1295.381
48.242	18.994	1665.580	1295.880
49.257	19.235	1664.563	1296.784
50.271	19.106	1663.906	1295.192
51.286	19.064	1662.682	1293.808
52.301	19.094	1660.640	1292.326
53.315	19.059	1659.895	1291.369
54.330	19.084	1658.199	1290.123
55.344	18.960	1656.698	1287.914
56.359	18.801	1655.078	1285.355
57.374	18.769	1653.864	1284.058
58.388	18.852	1652.835	1283.765
59.403	18.823	1651.553	1282.440
60.417	18.703	1650.203	1280.379
61.432	18.663	1649.517	1279.435
62.447	18.709	1648.094	1278.560
63.461	18.708	1646.533	1277.229
64.476	18.555	1645.606	1275.262
65.490	18.554	1644.415	1274.218
66.505	18.583	1642.602	1272.918
67.520	18.552	1642.155	1272.227
68.534	18.553	1641.387	1271.530
69.549	18.574	1640.192	1270.648
70.563	18.689	1638.655	1270.190
71.578	18.622	1637.715	1268.855
72.593	18.488	1636.813	1267.054
73.607	18.417	1635.487	1265.392
74.622	18.329	1634.761	1264.071
75.636	18.392	1633.160	1263.186
76.651	18.366	1632.805	1262.609
77.666	18.540	1631.671	1262.897
78.680	18.527	1631.056	1262.211
79.695	18.485	1630.437	1261.314
80.709	18.597	1629.693	1261.454
81.724	18.756	1628.545	1261.617
82.739	18.725	1628.485	1261.235
83.753	18.857	1627.268	1261.147
84.768	18.991	1626.721	1261.599
85.782	19.074	1626.147	1261.647
86.797	19.169	1625.910	1262.051
87.812	19.243	1624.642	1261.492
88.826	19.225	1623.149	1260.091
89.841	19.179	1621.464	1258.334
90.855	19.154	1620.993	1257.677
91.870	19.207	1620.488	1257.558
92.884	19.285	1619.172	1256.995
93.899	19.232	1618.506	1255.983
94.914	19.355	1617.115	1255.686
95.928	19.345	1616.100	1254.715
96.943	19.376	1614.533	1253.615
97.957	19.312	1612.976	1251.829
98.972	19.285	1611.226	1250.162
99.987	19.196	1610.518	1248.860
101.001	19.301	1608.178	1247.695
102.016	19.203	1606.896	1245.880
103.030	19.216	1605.712	1244.944
104.045	19.191	1605.132	1244.208
105.060	19.289	1603.220	1243.321
106.074	19.175	1601.632	1241.158
107.089	19.008	1599.917	1238.515
108.103	18.730	1598.053	1234.965
109.118	18.637	1596.601	1233.063
110.133	18.642	1594.513	1231.379
111.147	18.547	1593.439	1229.756
112.162	18.590	1592.495	1229.231
113.176	18.657	1590.943	1228.400
114.191	18.661	1589.722	1227.379
115.206	18.686	1589.053	1226.937
116.220	18.755	1587.533	1226.146
117.235	18.794	1586.175	1225.269
118.249	18.699	1585.201	1223.729
119.264	18.764	1583.277	1222.598
120.279	18.536	1582.421	1220.208
121.293	18.567	1580.927	1219.164
122.308	18.628	1579.297	1218.230
123.322	18.531	1577.470	1216.029
124.337	18.360	1576.384	1213.870
125.352	18.324	1575.189	1212.588
126.366	18.375	1574.025	1211.945
127.381	18.446	1572.243	1210.969
128.395	18.414	1571.779	1210.280
129.410	18.404	1570.550	1209.153
130.424	18.385	1569.370	1208.006
131.439	18.550	1567.443	1207.577
132.454	18.617	1566.503	1207.216
133.468	18.652	1565.425	1206.529
134.483	18.710	1563.766	1205.547
135.497	18.716	1563.275	1205.106
136.512	18.775	1560.957	1203.622
137.527	18.792	1559.887	1202.816
138.541	18.909	1558.387	1202.367
139.556	18.873	1557.482	1201.313
140.570	18.852	1556.180	1200.053
141.585	18.934	1555.515	1200.007
142.600	19.064	1553.968	1199.616
143.614	19.139	1552.762	1199.100
144.629	19.198	1551.898	1198.739
145.643	19.313	1550.805	1198.583
146.658	19.342	1549.548	1197.709
147.673	19.247	1548.267	1195.958
148.687	19.098	1546.187	1193.210
149.702	19.051	1544.795	1191.704
150.716	18.918	1543.222	1189.467
151.731	18.857	1541.630	1187.713
152.746	18.825	1540.744	1186.702
153.760	18.913	1538.937	1185.814
154.775	19.012	1537.792	1185.508
155.789	19.001	1537.136	1184.824
156.804	19.118	1536.120	1184.740
157.819	19.182	1534.443	1183.780
158.833	19.110	1533.403	1182.376
159.848	19.246	1532.347	1182.391
160.862	19.363	1531.342	1182.319
161.877	19.423	1530.203	1181.744
162.892	19.208	1529.077	1179.295
163.906	19.042	1526.978	1176.437
164.921	18.921	1526.005	1174.755
165.935	18.754	1525.465	1173.099
166.950	18.893	1524.213	1172.981
167.964	18.982	1523.031	1172.570
168.979	19.004	1521.643	1171.551
169.994	19.071	1520.876	1171.316
171.008	18.914	1520.042	1169.496
172.023	19.083	1518.521	1169.376
173.037	19.138	1517.312	1168.711
174.052	19.275	1516.338	1168.790
175.067	19.291	1515.934	1168.480
176.081	19.236	1514.026	1166.534
177.096	19.078	1512.842	1164.452
178.110	18.917	1511.547	1162.265
179.125	18.939	1510.112	1161.202
180.140	19.054	1508.726	1160.811
181.154	19.056	1507.984	1160.154
182.169	19.122	1507.151	1159.855
183.183	19.204	1506.316	1159.659
184.198	19.380	1504.747	1159.534
185.213	19.404	1504.140	1159.124
186.227	19.352	1503.511	1158.190
187.242	19.343	1502.561	1157.290
188.256	19.455	1501.521	1157.144
189.271	19.445	1500.473	1156.165
190.286	19.564	1499.542	1156.143
191.300	19.544	1498.645	1155.215
192.315	19.185	1497.141	1151.551
193.329	18.823	1495.002	1147.389
194.344	18.821	1494.251	1146.694
195.359	19.012	1492.815	1146.766
196.373	19.034	1491.980	1146.170
197.388	19.166	1491.270	1146.399
198.402	19.207	1490.496	1145.980
199.417	19.403	1489.027	1146.051
200.432	19.663	1488.488	1147.262
201.446	19.703	1487.858	1146.940
202.461	19.664	1487.445	1146.263
203.475	19.809	1486.263	1146.206
204.490	19.949	1484.746	1145.861
205.504	19.754	1483.955	1143.861
206.519	19.588	1482.376	1141.444
207.534	19.491	1481.036	1139.671
208.548	19.452	1479.532	1138.159
209.563	19.428	1478.512	1137.118
210.577	19.454	1477.646	1136.520
211.592	19.570	1476.388	1136.211
212.607	19.599	1476.405	1136.318
213.621	19.664	1475.705	1136.106
214.636	19.828	1475.162	1136.662
215.650	19.660	1473.846	1134.449
216.665	19.671	1473.093	1133.843
217.680	19.752	1472.228	1133.607
218.694	19.702	1472.510	1133.396
219.709	19.864	1471.247	1133.379
220.723	19.959	1470.022	1132.957
221.738	19.895	1469.039	1131.682
222.753	19.899	1467.808	1130.660
223.767	19.788	1466.928	1129.157
224.782	19.767	1466.214	1128.369
225.796	19.886	1465.149	1128.226
226.811	19.958	1464.666	1128.228
227.826	20.022	1463.937	1127.982
228.840	20.008	1462.651	1126.800
229.855	19.891	1461.178	1124.802
230.869	19.814	1460.314	1123.537
231.884	19.801	1459.467	1122.702
232.899	19.735	1458.185	1121.194
233.913	19.647	1457.106	1119.693
234.928	19.654	1455.574	1118.458
235.942	19.578	1454.424	1116.988
236.957	19.548	1453.197	1115.753
237.972	19.580	1451.822	1114.801
238.986	19.505	1451.042	1113.620
240.001	19.619	1450.208	1113.616
241.015	19.663	1448.582	1112.558
242.030	19.674	1447.647	1111.812
243.045	19.689	1447.083	1111.372
244.059	19.728	1446.102	1110.776
245.074	19.795	1445.195	1110.411
246.088	19.925	1444.266	1110.428
247.103	19.949	1443.667	1110.028
248.117	20.040	1443.072	1110.052
249.132	20.099	1442.714	1110.055
250.147	20.216	1442.166	1110.289
251.161	20.430	1441.583	1111.107
252.176	20.593	1440.783	1111.433
253.190	20.648	1440.590	1111.538
254.205	20.599	1439.973	1110.653
255.220	20.793	1438.660	1110.781
256.234	20.783	1437.660	1109.846
257.249	20.678	1437.523	1108.972
258.263	20.679	1436.556	1108.131
259.278	20.734	1435.224	1107.357
260.293	20.690	1434.360	1106.312
261.307	20.685	1433.429	1105.467
262.322	20.731	1433.104	1105.410
263.336	20.890	1432.231	1105.650
264.351	20.864	1430.846	1104.316
265.366	20.892	1430.242	1103.928
266.380	20.850	1429.252	1102.803
267.395	20.894	1428.479	1102.384
268.409	20.718	1428.048	1100.845
269.424	20.720	1426.251	1099.370
270.439	20.636	1425.330	1098.035
271.453	20.814	1423.888	1097.947
272.468	20.710	1422.912	1096.447
273.482	20.572	1422.327	1095.025
274.497	20.477	1421.396	1093.615
275.512	20.560	1420.541	1093.384
276.526	20.518	1419.780	1092.436
277.541	20.573	1418.602	1091.782
278.555	20.602	1417.640	1091.123
279.570	20.600	1417.066	1090.571
280.585	20.645	1416.395	1090.241
281.599	20.820	1415.615	1090.641
282.614	20.938	1414.721	1090.596
283.628	20.880	1413.486	1089.181
284.643	20.676	1412.095	1086.743
285.657	20.640	1410.890	1085.491
286.672	20.660	1410.027	1084.857
287.687	20.734	1409.156	1084.551
288.701	20.710	1408.152	1083.535
289.716	20.695	1407.754	1083.040
290.730	20.842	1406.575	1082.949
291.745	20.768	1405.450	1081.531
292.760	20.821	1404.875	1081.316
293.774	20.849	1403.860	1080.616
294.789	20.781	1403.081	1079.497
295.803	20.942	1402.120	1079.661
296.818	20.974	1401.438	1079.237
297.833	20.928	1400.356	1078.024
298.847	20.789	1399.535	1076.437
299.862	20.846	1398.051	1075.552
300.876	20.818	1397.303	1074.713
301.891	20.835	1396.064	1073.770
302.906	20.943	1395.149	1073.637
303.920	21.039	1395.331	1074.273
304.935	21.083	1394.285	1073.644
305.949	21.185	1393.838	1073.831
306.964	21.258	1393.162	1073.664
307.979	21.356	1391.997	1073.273
308.993	21.210	1391.266	1071.714
310.008	21.194	1389.945	1070.504
311.022	21.145	1389.161	1069.507
312.037	21.272	1388.175	1069.432
313.052	21.316	1386.862	1068.592
314.066	21.292	1385.602	1067.380
315.081	21.032	1385.201	1065.390
316.095	20.929	1384.124	1063.839
317.110	20.796	1382.717	1061.853
318.125	20.855	1381.796	1061.412
319.139	20.810	1380.974	1060.412
320.154	20.847	1379.706	1059.568
321.168	20.920	1378.331	1058.864
322.183	20.955	1377.340	1058.219
323.197	20.875	1376.534	1057.023
324.212	20.961	1375.675	1056.790
325.227	21.112	1375.160	1057.217
326.241	21.071	1374.152	1056.098
327.256	21.183	1373.180	1055.935
328.270	21.097	1372.706	1054.958
329.285	20.961	1371.738	1053.298
330.300	20.959	1370.582	1052.305
331.314	21.038	1369.751	1052.054
332.329	21.080	1368.487	1051.241
333.343	20.983	1368.012	1050.201
334.358	21.021	1367.454	1049.908
335.373	21.139	1366.552	1049.834
336.387	21.272	1365.513	1049.743
337.402	21.280	1365.267	1049.506
338.416	21.203	1364.573	1048.415
339.431	21.268	1364.175	1048.410
340.446	21.430	1363.414	1048.701
341.460	21.478	1362.488	1048.184
342.475	21.573	1361.825	1048.151
343.489	21.709	1360.750	1048.044
344.504	21.697	1359.956	1047.268
345.519	21.846	1358.684	1047.086
346.533	21.880	1357.912	1046.599
347.548	21.931	1357.075	1046.168
348.562	21.943	1356.497	1045.699
349.577	21.964	1356.014	1045.359
350.592	21.879	1354.379	1043.506
351.606	21.709	1353.365	1041.617
352.621	21.537	1352.296	1039.684
353.635	21.485	1351.078	1038.347
354.650	21.421	1349.837	1036.920
355.665	21.361	1349.347	1036.094
356.679	21.414	1348.499	1035.664
357.694	21.486	1347.076	1034.906
358.708	21.616	1346.348	1035.023
359.723	21.609	1345.134	1033.962
360.738	21.708	1344.124	1033.679
361.752	21.678	1343.296	1032.770
362.767	21.571	1342.593	1031.507
363.781	21.611	1341.558	1030.856
364.796	21.551	1341.167	1030.111
365.810	21.662	1339.970	1029.756
366.825	21.810	1340.062	1030.607
367.840	21.960	1339.111	1030.661
368.854	22.093	1338.409	1030.816
369.869	22.241	1337.739	1031.071
370.883	22.275	1337.174	1030.748
371.898	22.233	1336.200	1029.655
372.913	22.010	1335.312	1027.579
373.927	22.045	1334.146	1026.796
374.942	21.978	1333.556	1025.860
375.956	22.075	1332.994	1025.902
376.971	22.150	1332.375	1025.771
377.986	22.106	1331.079	1024.427
379.000	22.150	1330.080	1023.825
380.015	22.163	1329.756	1023.556
381.029	22.332	1329.100	1023.944
382.044	22.438	1328.520	1024.027
383.059	22.476	1327.731	1023.546
384.073	22.310	1327.141	1022.038
385.088	22.222	1326.518	1020.958
386.102	22.366	1325.565	1020.967
387.117	22.381	1324.821	1020.392
388.132	22.248	1324.428	1019.227
389.146	22.329	1322.666	1018.249
390.161	22.088	1322.289	1016.475
391.175	22.017	1321.468	1015.344
392.190	22.055	1320.623	1014.824
393.205	22.124	1319.673	1014.402
394.219	22.288	1318.472	1014.339
395.234	22.301	1317.510	1013.583
396.248	22.199	1316.285	1011.961
397.263	22.213	1314.678	1010.720
398.278	22.210	1313.378	1009.613
399.292	22.094	1312.269	1008.004
400.307	22.018	1310.855	1006.396
401.321	21.943	1310.008	1005.226
402.336	21.880	1309.181	1004.139
403.350	21.899	1308.395	1003.557
404.365	21.993	1307.181	1003.077
405.380	21.938	1306.509	1002.154
406.394	22.068	1305.560	1002.081
407.409	22.144	1305.034	1002.024
408.423	22.227	1304.232	1001.789
409.438	22.413	1303.887	1002.496
410.453	22.431	1303.228	1002.001
411.467	22.561	1302.660	1002.219
412.482	22.566	1302.280	1001.863
413.496	22.692	1301.245	1001.693
414.511	22.703	1300.387	1001.006
415.526	22.818	1299.592	1000.958
416.540	22.844	1299.041	1000.593
417.555	22.867	1298.432	1000.167
418.569	22.901	1298.456	1000.288
419.584	22.797	1297.546	998.911
420.599	22.765	1296.532	997.860
421.613	142.788	1430.970	1786.605
422.628	138.151	1450.558	1786.706
