DTS Sentinel unit serial number:	SN413079Multiplexer serial number:	ORYXHardware model number:	OX4-SRSoftware version number:	ORYX F/W v4.00 Oryx Data Collector v3.7.2.0data status	okinstallation	princeton_trtdifferential loss correction	single-endedforward channel	channel 4reverse channel	N/Adate	2019/09/13time	21:49:35forward acquisition time	60.00reverse acquisition time	0.00gamma	496.2192k internal	0.2320k external	0.2320temperature offset calibration	1.0128default loss term (dB/km)	0.3790temperature slope calibration	1.0000multiplexer offset coefficient	1.0000multiplexer slope coefficient	1.0000fibre end	0.00T internal ref (°C)	28.09T ext. ref 1 (°C)	3.12T ext. ref 2 (°C)	22.86length (m)	temperature (°C)	Stokes	anti-Stokes-747.200	-58.837	-0.513	0.224
-746.185	49.664	-0.243	-0.231
-745.171	66.246	0.241	0.248
-744.156	-85.855	-0.358	0.112
-743.142	-155.590	-0.353	-0.023
-742.127	44.970	0.209	0.194
-741.112	-200.000	-0.016	0.078
-740.098	-51.234	-0.238	0.113
-739.083	46.744	0.222	-0.209
-738.069	-200.000	0.002	-0.053
-737.054	-170.202	-0.294	-0.011
-736.039	-69.660	-0.400	0.155
-735.025	-96.420	0.379	-0.101
-734.010	-108.230	-0.321	0.070
-732.996	-200.000	-0.037	-0.205
-731.981	88.164	-0.137	0.153
-730.966	339.734	0.077	-0.152
-729.952	-37.731	-0.293	0.158
-728.937	-200.000	-0.005	-0.216
-727.923	800.000	0.110	-0.314
-726.908	-148.813	-0.148	-0.012
-725.894	-116.040	0.127	0.024
-724.879	800.000	-0.084	0.319
-723.864	-109.686	-0.244	-0.052
-722.850	-10.245	-0.172	-0.116
-721.835	9.220	-0.311	-0.237
-720.821	105.101	-0.009	-0.011
-719.806	-110.657	-0.087	0.018
-718.791	-129.690	-0.098	-0.014
-717.777	84.319	-0.002	-0.003
-716.762	165.141	0.280	0.399
-715.748	-45.267	-0.183	-0.092
-714.733	-200.000	-0.115	-0.514
-713.718	15.532	-0.130	-0.103
-712.704	391.590	-0.079	0.165
-711.689	32.623	0.137	-0.120
-710.675	117.753	0.186	-0.232
-709.660	-200.000	0.011	-0.144
-708.645	145.588	0.109	0.147
-707.631	-147.856	0.224	-0.019
-706.616	52.783	-0.098	0.095
-705.602	800.000	-0.052	-0.217
-704.587	112.306	-0.149	0.182
-703.572	-159.904	0.261	-0.014
-702.558	-60.021	-0.205	0.088
-701.543	800.000	-0.053	0.152
-700.529	154.370	-0.136	0.188
-699.514	-5.429	0.020	-0.014
-698.499	108.877	0.124	-0.150
-697.485	136.229	-0.226	-0.298
-696.470	26.114	-0.300	-0.253
-695.456	-200.000	0.033	-0.153
-694.441	-200.000	0.005	-0.317
-693.426	-57.503	-0.204	-0.090
-692.412	-200.000	-0.004	0.191
-691.397	70.633	-0.056	-0.059
-690.383	8.026	0.045	-0.034
-689.368	-200.000	-0.035	0.286
-688.354	800.000	0.075	-0.269
-687.339	-1.955	-0.139	-0.099
-686.324	-200.000	-0.031	0.157
-685.310	71.430	-0.243	-0.254
-684.295	33.532	-0.309	0.271
-683.281	-83.461	0.157	0.051
-682.266	-200.000	-0.025	0.125
-681.251	544.492	0.042	0.100
-680.237	-200.000	-0.016	-0.182
-679.222	-144.597	-0.210	0.020
-678.208	800.000	0.049	0.158
-677.193	88.121	0.082	-0.092
-676.178	90.085	-0.057	0.064
-675.164	-105.970	-0.255	-0.058
-674.149	109.512	0.170	-0.205
-673.135	256.861	-0.066	-0.114
-672.120	-40.514	-0.070	0.036
-671.105	91.346	0.135	-0.153
-670.091	-97.326	-0.494	0.130
-669.076	-148.203	-0.172	0.014
-668.062	175.471	-0.202	-0.295
-667.047	71.774	-0.205	-0.215
-666.032	2.182	0.157	0.115
-665.018	437.889	-0.106	-0.234
-664.003	-200.000	0.027	0.162
-662.989	800.000	-0.053	-0.197
-661.974	15.936	0.276	-0.219
-660.959	319.594	0.224	-0.429
-659.945	-56.918	-0.162	0.072
-658.930	429.201	-0.077	-0.168
-657.916	-200.000	0.020	-0.099
-656.901	-104.860	-0.207	0.048
-655.886	-12.100	-0.274	-0.181
-654.872	-200.000	-0.011	-0.108
-653.857	201.752	-0.102	-0.158
-652.843	201.916	0.130	-0.202
-651.828	-4.397	-0.110	-0.076
-650.814	-64.332	0.115	-0.047
-649.799	-104.274	-0.098	0.023
-648.784	-22.616	0.081	-0.049
-647.770	800.000	0.032	-0.124
-646.755	-160.919	0.330	-0.018
-645.741	-3.830	-0.174	-0.121
-644.726	-91.955	-0.151	0.043
-643.711	134.761	-0.240	-0.314
-642.697	176.242	-0.111	0.162
-641.682	-123.642	-0.340	-0.054
-640.668	-150.943	-0.164	-0.012
-639.653	28.790	0.088	0.075
-638.638	-80.001	0.202	-0.068
-637.624	-108.719	-0.184	0.040
-636.609	607.278	0.142	0.357
-635.595	800.000	0.046	-0.192
-634.580	155.654	-0.233	-0.323
-633.565	-69.038	-0.181	-0.070
-632.551	-200.000	-0.021	0.131
-631.536	442.374	0.118	-0.261
-630.522	-85.868	-0.073	-0.023
-629.507	-200.000	0.019	-0.135
-628.492	-102.769	-0.298	0.072
-627.478	387.491	0.113	-0.235
-626.463	-145.866	-0.521	-0.047
-625.449	89.306	-0.315	-0.353
-624.434	-200.000	-0.004	-0.215
-623.419	800.000	-0.108	0.372
-622.405	-200.000	-0.015	0.162
-621.390	57.310	-0.126	0.124
-620.376	278.006	0.244	0.437
-619.361	86.419	-0.090	0.099
-618.346	800.000	0.071	-0.248
-617.332	192.002	0.099	0.150
-616.317	-200.000	0.008	-0.072
-615.303	-15.815	0.135	-0.087
-614.288	-200.000	0.009	-0.232
-613.273	715.452	0.184	0.491
-612.259	133.314	0.238	-0.309
-611.244	274.421	0.099	0.176
-610.230	457.613	-0.061	-0.135
-609.215	-200.000	0.014	-0.080
-608.201	80.675	0.159	0.172
-607.186	161.515	-0.031	-0.043
-606.171	117.162	-0.261	0.323
-605.157	800.000	0.058	0.209
-604.142	-200.000	-0.008	-0.132
-603.128	-36.719	0.153	0.083
-602.113	-70.858	-0.096	-0.037
-601.098	-33.563	-0.301	0.167
-600.084	9.582	0.149	0.113
-599.069	72.501	-0.202	0.211
-598.055	-9.556	-0.220	-0.148
-597.040	773.957	-0.050	-0.136
-596.025	-151.178	-0.456	0.034
-595.011	-200.000	-0.003	-0.170
-593.996	-147.198	-0.275	-0.024
-592.982	-52.403	-0.222	0.103
-591.967	401.960	0.042	0.089
-590.952	489.144	-0.104	0.239
-589.938	-12.043	-0.093	-0.061
-588.923	-155.732	-0.516	-0.033
-587.909	715.565	-0.093	-0.247
-586.894	-78.530	-0.413	0.142
-585.879	134.869	-0.113	-0.148
-584.865	-200.000	0.035	0.264
-583.850	-54.707	-0.240	0.109
-582.836	369.846	0.151	0.308
-581.821	800.000	0.039	0.127
-580.806	-200.000	0.007	0.313
-579.792	-113.556	-0.153	0.030
-578.777	204.257	0.067	-0.105
-577.763	91.904	0.015	0.017
-576.748	-200.000	0.015	-0.338
-575.733	-67.068	-0.216	0.086
-574.719	-2.784	-0.147	0.103
-573.704	-200.000	0.003	-0.097
-572.690	30.710	0.099	-0.086
-571.675	800.000	-0.089	-0.268
-570.661	6.909	0.349	0.261
-569.646	-170.445	0.328	0.012
-568.631	800.000	0.039	0.122
-567.617	37.607	-0.194	0.172
-566.602	134.712	0.030	-0.039
-565.588	27.254	-0.202	0.170
-564.573	-17.973	0.114	-0.072
-563.558	246.571	-0.117	-0.199
-562.544	-200.000	-0.016	0.182
-561.529	66.249	-0.103	-0.105
-560.515	237.551	0.196	-0.327
-559.500	-33.239	-0.341	-0.190
-558.485	6.775	0.255	-0.190
-557.471	-33.064	-0.261	-0.145
-556.456	157.179	0.136	0.189
-555.442	344.243	0.121	0.238
-554.427	-200.000	-0.315	-0.001
-553.412	111.731	-0.037	0.044
-552.398	-168.942	-0.461	0.017
-551.383	21.153	-0.093	-0.076
-550.369	-71.981	-0.132	-0.049
-549.354	-200.000	0.012	0.222
-548.339	-114.948	-0.200	0.038
-547.325	-130.478	0.123	0.017
-546.310	-70.889	-0.399	0.151
-545.296	-38.417	-0.127	-0.067
-544.281	-6.656	-0.193	0.132
-543.266	93.790	-0.154	-0.175
-542.252	239.981	0.229	-0.383
-541.237	-47.603	-0.242	0.118
-540.223	-30.236	0.206	-0.118
-539.208	-15.128	0.292	-0.188
-538.193	-101.383	0.050	-0.012
-537.179	-11.641	0.220	0.145
-536.164	-91.512	-0.231	0.066
-535.150	285.300	-0.018	-0.032
-534.135	-69.516	0.069	-0.026
-533.121	-106.071	0.205	0.046
-532.106	285.631	0.042	-0.076
-531.091	83.680	0.120	-0.131
-530.077	-200.000	0.020	-0.092
-529.062	10.706	0.302	0.231
-528.048	28.147	-0.140	0.118
-527.033	-4.280	0.120	0.083
-526.018	28.208	-0.212	0.179
-525.004	-50.795	0.238	-0.112
-523.989	-200.000	0.013	0.098
-522.975	190.572	-0.118	0.178
-521.960	-81.623	0.185	-0.061
-520.945	-108.205	-0.153	0.033
-519.931	-28.720	0.181	0.105
-518.916	189.643	0.116	-0.174
-517.902	54.480	-0.135	-0.130
-516.887	-37.634	0.152	0.081
-515.872	56.505	0.154	-0.150
-514.858	483.385	-0.055	-0.125
-513.843	66.997	-0.274	-0.279
-512.829	131.797	-0.139	-0.179
-511.814	572.811	0.084	-0.205
-510.799	439.531	-0.080	0.175
-509.785	174.004	-0.052	0.075
-508.770	168.248	0.213	-0.304
-507.756	60.023	0.179	0.178
-506.741	-200.000	0.033	-0.212
-505.726	510.023	0.199	-0.464
-504.712	-200.000	0.016	0.222
-503.697	-200.000	-0.050	-0.286
-502.683	-35.387	0.087	-0.047
-501.668	-30.766	-0.339	0.192
-500.653	242.298	0.034	-0.057
-499.639	91.115	0.083	0.093
-498.624	800.000	-0.053	-0.151
-497.610	800.000	0.036	0.152
-496.595	33.033	0.224	0.195
-495.581	800.000	-0.020	0.078
-494.566	174.742	0.207	0.300
-493.551	-200.000	0.014	0.217
-492.537	-200.000	-0.025	0.241
-491.522	72.981	-0.298	-0.312
-490.508	-4.860	-0.344	0.238
-489.493	-200.000	-0.034	0.158
-488.478	43.681	-0.152	0.139
-487.464	126.823	0.203	-0.257
-486.449	-22.248	-0.426	-0.259
-485.435	132.879	0.129	-0.167
-484.420	736.305	0.094	-0.251
-483.405	-168.583	0.198	-0.008
-482.391	-150.886	0.550	-0.042
-481.376	-159.282	0.246	0.014
-480.362	-93.050	-0.060	-0.017
-479.347	-111.828	-0.232	-0.047
-478.332	-200.000	-0.016	-0.097
-477.318	-20.070	0.030	0.018
-476.303	-71.645	0.192	0.072
-475.289	-80.883	-0.299	-0.099
-474.274	288.329	-0.165	-0.300
-473.259	800.000	0.084	0.256
-472.245	26.064	0.432	0.361
-471.230	-119.198	0.070	0.012
-470.216	-33.967	0.275	0.151
-469.201	-200.000	-0.041	0.225
-468.186	70.167	-0.093	-0.096
-467.172	800.000	-0.220	0.664
-466.157	108.458	0.110	-0.131
-465.143	-200.000	-0.067	-0.322
-464.128	-85.824	-0.219	0.068
-463.113	-127.084	0.352	0.052
-462.099	56.471	-0.088	-0.086
-461.084	-15.917	0.350	-0.223
-460.070	47.874	0.158	-0.148
-459.055	800.000	0.056	-0.191
-458.040	180.658	-0.327	-0.480
-457.026	-159.097	-0.299	-0.017
-456.011	486.511	0.145	0.330
-454.997	36.666	0.079	0.069
-453.982	-55.159	-0.158	0.071
-452.968	20.169	-0.151	-0.122
-451.953	800.000	-0.122	0.380
-450.938	-56.587	0.356	0.158
-449.924	-39.558	0.268	-0.140
-448.909	-34.974	0.048	0.026
-447.895	-11.468	-0.070	0.046
-446.880	-200.000	-0.061	0.281
-445.865	758.227	0.122	-0.330
-444.851	327.005	-0.192	-0.368
-443.836	5.763	-0.233	0.172
-442.822	-200.000	0.026	0.195
-441.807	-116.069	0.236	0.044
-440.792	348.694	0.073	0.143
-439.778	-122.560	0.402	0.065
-438.763	-27.747	0.256	-0.148
-437.749	-149.557	-0.191	0.015
-436.734	279.242	0.045	0.080
-435.719	-200.000	0.032	-0.235
-434.705	-68.743	-0.019	0.007
-433.690	-59.624	0.247	0.106
-432.676	197.081	0.146	0.223
-431.661	-156.527	0.180	-0.011
-430.646	-135.683	-0.383	0.045
-429.632	-152.886	0.303	-0.021
-428.617	-25.956	-0.214	0.126
-427.603	800.000	0.089	0.308
-426.588	-72.151	0.301	0.111
-425.573	181.947	-0.146	0.214
-424.559	800.000	0.064	0.186
-423.544	-67.319	-0.030	0.012
-422.530	384.873	0.040	-0.083
-421.515	-57.505	0.144	0.063
-420.500	42.340	-0.162	0.147
-419.486	53.274	0.308	0.295
-418.471	-200.000	-0.035	0.195
-417.457	800.000	-0.046	-0.176
-416.442	-200.000	-0.005	-0.149
-415.428	-25.901	-0.222	0.130
-414.413	800.000	0.090	0.253
-413.398	-176.927	0.240	0.006
-412.384	-160.989	0.062	0.003
-411.369	-200.000	-0.021	-0.200
-410.355	306.650	-0.095	-0.177
-409.340	33.411	0.202	0.175
-408.325	396.738	0.138	0.287
-407.311	133.619	0.167	-0.215
-406.296	-200.000	0.025	0.531
-405.282	800.000	0.057	0.158
-404.267	172.366	-0.145	-0.209
-403.252	800.000	0.012	-0.041
-402.238	-200.000	0.062	0.477
-401.223	-26.451	-0.078	-0.045
-400.209	50.488	-0.081	0.077
-399.194	15.281	0.235	-0.184
-398.179	196.168	0.067	-0.102
-397.165	55.486	0.255	0.246
-396.150	415.119	0.087	0.186
-395.136	-1.825	0.026	-0.019
-394.121	-200.000	-0.075	0.360
-393.106	24.104	-0.172	0.142
-392.092	-127.306	-0.179	-0.026
-391.077	-57.271	-0.183	0.080
-390.063	-97.998	0.228	-0.059
-389.048	-21.212	0.199	-0.121
-388.033	277.654	0.102	0.181
-387.019	-109.703	-0.234	0.049
-386.004	-200.000	0.008	-0.090
-384.990	96.438	-0.264	0.301
-383.975	101.959	0.163	-0.189
-382.960	-138.260	0.562	-0.062
-381.946	106.424	-0.197	-0.233
-380.931	-17.601	-0.146	-0.092
-379.917	800.000	-0.112	0.317
-378.902	231.482	0.258	0.422
-377.888	215.816	0.100	-0.159
-376.873	12.956	-0.186	-0.143
-375.858	158.409	-0.106	0.147
-374.844	-74.941	-0.191	0.068
-373.829	49.725	0.335	-0.314
-372.815	800.000	-0.125	0.346
-371.800	-54.449	0.095	0.043
-370.785	-200.000	0.021	-0.207
-369.771	-200.000	0.003	-0.107
-368.756	220.453	0.018	-0.029
-367.742	3.619	0.070	-0.051
-366.727	-63.521	0.338	-0.138
-365.712	-7.430	0.184	-0.124
-364.698	800.000	-0.091	0.262
-363.683	-200.000	0.010	0.115
-362.669	-44.046	-0.275	0.138
-361.654	-117.112	-0.081	-0.015
-360.639	145.849	0.022	-0.029
-359.625	-79.353	-0.265	0.090
-358.610	800.000	0.069	-0.229
-357.596	143.552	-0.104	0.138
-356.581	800.000	-0.045	-0.166
-355.566	199.009	0.037	-0.056
-354.552	278.030	0.110	-0.195
-353.537	-43.907	0.065	-0.032
-352.523	-200.000	0.003	-0.194
-351.508	-103.196	0.191	-0.045
-350.493	15.948	0.248	-0.195
-349.479	800.000	0.125	-0.413
-348.464	-200.000	0.001	-0.171
-347.450	-106.073	0.078	0.017
-346.435	109.176	0.025	0.030
-345.420	74.567	-0.079	0.083
-344.406	163.188	0.019	0.027
-343.391	161.469	0.120	-0.168
-342.377	-82.713	-0.286	-0.092
-341.362	77.428	-0.107	-0.114
-340.348	-72.873	0.147	-0.054
-339.333	-136.931	-0.227	-0.026
-338.318	-100.932	0.240	0.059
-337.304	53.948	0.116	0.111
-336.289	-121.605	-0.320	0.053
-335.275	-143.545	-0.136	-0.013
-334.260	-200.000	-0.076	0.353
-333.245	-96.978	-0.197	0.051
-332.231	-23.969	-0.174	0.104
-331.216	225.771	0.031	0.050
-330.202	-11.669	-0.274	-0.179
-329.187	-23.953	0.085	0.051
-328.172	800.000	-0.155	0.436
-327.158	201.515	0.070	-0.107
-326.143	305.414	0.147	-0.272
-325.129	67.684	0.134	-0.136
-324.114	-200.000	0.010	-0.322
-323.099	233.530	-0.104	-0.170
-322.085	53.175	-0.250	0.238
-321.070	800.000	0.041	0.136
-320.056	69.533	-0.327	-0.335
-319.041	57.767	0.126	-0.123
-318.026	145.401	-0.154	0.205
-317.012	-89.534	-0.097	0.028
-315.997	69.871	0.305	-0.313
-314.983	-200.000	-0.012	0.130
-313.968	133.459	-0.103	0.133
-312.953	-18.127	-0.080	-0.050
-311.939	800.000	-0.120	0.397
-310.924	-86.124	0.134	0.041
-309.910	-139.212	-0.114	-0.012
-308.895	-110.961	0.301	0.062
-307.880	420.253	-0.101	-0.215
-306.866	-68.585	0.233	0.090
-305.851	-7.988	0.208	-0.140
-304.837	170.900	-0.099	-0.141
-303.822	800.000	-0.063	0.250
-302.807	800.000	0.139	-0.408
-301.793	-95.177	-0.153	0.041
-300.778	116.868	-0.147	0.179
-299.764	-74.731	-0.148	0.053
-298.749	-52.118	0.557	0.257
-297.735	119.584	0.194	-0.239
-296.720	-81.215	0.281	-0.092
-295.705	211.764	0.049	-0.077
-294.691	483.179	0.113	0.256
-293.676	173.229	0.121	0.173
-292.662	12.085	-0.088	0.067
-291.647	524.399	-0.088	0.205
-290.632	800.000	0.054	0.160
-289.618	-56.005	0.248	-0.110
-288.603	-148.579	0.507	0.041
-287.589	20.131	-0.190	0.152
-286.574	26.129	0.117	-0.097
-285.559	149.100	-0.154	0.207
-284.545	22.358	-0.176	0.143
-283.530	800.000	-0.081	0.274
-282.516	-71.891	-0.150	-0.056
-281.501	91.959	0.098	0.110
-280.486	-200.000	0.018	-0.225
-279.472	4.357	-0.210	-0.153
-278.457	-59.803	0.101	-0.043
-277.443	-200.000	-0.036	0.207
-276.428	415.888	-0.101	-0.213
-275.413	800.000	0.014	-0.045
-274.399	-8.740	-0.148	0.099
-273.384	233.958	0.129	-0.212
-272.370	-72.772	-0.232	-0.085
-271.355	182.337	-0.150	0.220
-270.340	-35.242	-0.123	-0.066
-269.326	222.606	-0.161	-0.258
-268.311	464.595	0.053	0.117
-267.297	-200.000	-0.011	-0.415
-266.282	-45.327	0.199	0.098
-265.267	-71.270	0.229	-0.085
-264.253	57.181	0.149	0.144
-263.238	-75.618	0.280	0.099
-262.224	-64.764	0.357	-0.143
-261.209	-200.000	0.075	-0.519
-260.195	-56.255	0.169	0.075
-259.180	-134.920	0.196	0.024
-258.165	183.849	0.039	0.057
-257.151	-62.784	-0.238	-0.098
-256.136	-41.371	-0.314	-0.161
-255.122	4.523	0.199	-0.145
-254.107	-61.313	-0.095	-0.040
-253.092	63.571	-0.207	0.206
-252.078	119.316	0.048	0.058
-251.063	178.673	-0.131	-0.189
-250.049	800.000	0.055	0.193
-249.034	62.696	-0.041	-0.041
-248.019	81.837	-0.144	0.155
-247.005	73.338	-0.079	0.082
-245.990	-38.929	0.169	0.089
-244.976	-134.869	-0.271	-0.033
-243.961	59.973	0.205	-0.201
-242.946	-77.345	0.119	-0.041
-241.932	-200.000	-0.020	0.179
-240.917	-200.000	-0.021	0.241
-239.903	26.903	0.221	-0.184
-238.888	-123.133	0.410	0.065
-237.873	-146.555	-0.155	-0.013
-236.859	-55.933	-0.301	0.133
-235.844	-30.062	0.184	0.104
-234.830	-145.402	0.198	-0.018
-233.815	-105.338	-0.378	-0.085
-232.800	-200.000	0.010	0.337
-231.786	223.372	-0.119	0.191
-230.771	-167.384	-0.300	0.012
-229.757	800.000	0.068	-0.254
-228.742	800.000	0.039	-0.113
-227.727	17.423	-0.270	-0.213
-226.713	-200.000	-0.004	0.208
-225.698	-200.000	-0.011	0.188
-224.684	-200.000	0.017	0.122
-223.669	-200.000	0.033	0.276
-222.655	-17.115	-0.200	-0.125
-221.640	800.000	-0.083	0.295
-220.625	800.000	-0.050	-0.148
-219.611	-105.259	-0.059	-0.013
-218.596	-121.117	0.191	0.032
-217.582	696.797	-0.060	0.156
-216.567	64.246	0.177	-0.177
-215.552	12.488	-0.076	-0.058
-214.538	-51.151	0.206	0.095
-213.523	800.000	0.027	-0.103
-212.509	-200.000	0.010	-0.110
-211.494	-200.000	0.013	-0.349
-210.479	-200.000	-0.005	-0.145
-209.465	48.684	-0.218	-0.203
-208.450	522.430	-0.134	0.312
-207.436	-20.684	-0.114	0.069
-206.421	70.877	0.250	0.257
-205.406	353.191	0.194	-0.381
-204.392	9.066	0.168	-0.126
-203.377	190.202	0.089	0.132
-202.363	-200.000	-0.044	-0.260
-201.348	-16.396	0.439	-0.276
-200.333	147.243	0.280	0.373
-199.319	-200.000	-0.040	0.212
-198.304	-133.477	0.332	-0.041
-197.290	800.000	-0.197	-0.607
-196.275	-124.287	-0.085	-0.013
-195.260	78.520	0.208	-0.220
-194.246	-9.767	0.274	0.181
-193.231	6.043	-0.052	-0.038
-192.217	28.577	-0.171	-0.143
-191.202	465.233	-0.078	0.173
-190.187	-70.287	-0.044	-0.016
-189.173	-200.000	-0.051	0.355
-188.158	-41.673	-0.322	0.164
-187.144	84.471	-0.149	-0.161
-186.129	-200.000	-0.015	-0.188
-185.114	800.000	-0.138	-0.550
-184.100	-114.950	-0.250	0.047
-183.085	-200.000	0.072	0.433
-182.071	-162.659	0.158	0.008
-181.056	-20.653	-0.247	-0.150
-180.042	-141.429	-0.489	0.049
-179.027	41.363	0.038	0.034
-178.012	197.787	0.101	-0.152
-176.998	-54.847	0.242	0.108
-175.983	-52.054	0.275	-0.126
-174.969	-18.961	0.246	-0.151
-173.954	123.101	-0.164	-0.203
-172.939	-200.000	-0.061	-0.418
-171.925	800.000	0.047	0.146
-170.910	680.142	-0.105	-0.270
-169.896	-165.416	0.179	-0.008
-168.881	-164.503	-0.082	-0.004
-167.866	4.105	-0.167	-0.121
-166.852	106.474	0.112	-0.131
-165.837	-77.680	0.053	-0.018
-164.823	-62.424	-0.158	0.065
-163.808	-132.252	0.387	0.049
-162.793	7.772	-0.344	-0.255
-161.779	-95.993	-0.154	-0.041
-160.764	277.637	0.062	-0.110
-159.750	5.015	0.108	0.079
-158.735	-96.990	0.222	-0.058
-157.720	2.425	0.182	-0.130
-156.706	-43.036	0.249	0.125
-155.691	-23.494	0.148	-0.088
-154.677	-200.000	-0.012	0.160
-153.662	-119.072	-0.167	-0.029
-152.647	-200.000	-0.008	-0.284
-151.633	167.260	0.074	-0.104
-150.618	-147.065	0.337	0.028
-149.604	20.599	0.080	-0.064
-148.589	-30.324	-0.367	-0.206
-147.574	-200.000	0.005	-0.183
-146.560	-200.000	0.002	0.193
-145.545	37.934	-0.226	-0.198
-144.531	-58.764	0.131	-0.056
-143.516	-150.892	0.110	-0.008
-142.502	-200.000	-0.063	0.308
-141.487	-119.966	-0.191	0.032
-140.472	800.000	-0.117	-0.406
-139.458	448.014	-0.128	-0.279
-138.443	90.090	0.184	-0.203
-137.429	-187.424	-0.395	-0.005
-136.414	-200.000	-0.022	0.207
-135.399	313.595	-0.163	0.302
-134.385	800.000	0.062	0.185
-133.370	800.000	-0.085	-0.278
-132.356	-2.711	0.131	-0.091
-131.341	121.161	-0.236	0.290
-130.326	-171.437	0.364	-0.012
-129.312	206.637	0.030	-0.046
-128.297	-60.000	0.277	-0.117
-127.283	-47.417	-0.235	0.113
-126.268	-200.000	0.002	0.349
-125.253	-78.199	-0.179	0.061
-124.239	-51.451	-0.119	-0.055
-123.224	-200.000	0.011	-0.169
-122.210	-7.095	-0.424	0.284
-121.195	-178.093	0.376	-0.009
-120.180	29.511	-0.189	0.159
-119.166	-200.000	0.026	-0.215
-118.151	-148.135	-0.296	-0.024
-117.137	51.020	-0.067	-0.063
-116.122	-109.975	0.312	-0.064
-115.107	110.088	0.107	0.127
-114.093	-39.850	0.149	-0.077
-113.078	-164.235	-0.226	-0.010
-112.064	337.575	0.116	0.223
-111.049	-27.046	0.184	0.106
-110.034	161.186	0.066	-0.091
-109.020	-56.780	0.079	0.034
-108.005	215.433	-0.230	-0.359
-106.991	-142.846	-0.255	0.024
-105.976	-32.214	0.277	-0.153
-104.962	800.000	0.049	-0.208
-103.947	225.245	0.040	-0.065
-102.932	85.020	-0.095	0.103
-101.918	-85.234	0.258	-0.079
-100.903	-18.982	-0.164	0.101
-99.889	-200.000	-0.033	0.211
-98.874	-44.795	-0.265	0.130
-97.859	-140.546	-0.139	0.014
-96.845	-153.080	0.296	-0.020
-95.830	-200.000	0.012	0.222
-94.816	-54.331	0.055	-0.024
-93.801	-128.872	0.157	0.022
-92.786	-177.779	0.210	0.005
-91.772	482.113	-0.152	0.340
-90.757	5.382	0.131	0.096
-89.743	-46.711	0.167	0.080
-88.728	-141.948	-0.321	0.032
-87.713	-31.202	-0.155	-0.086
-86.699	-100.251	-0.141	-0.034
-85.684	-102.243	-0.338	-0.080
-84.670	800.000	0.089	0.339
-83.655	-175.034	-0.249	0.007
-82.640	-199.551	0.196	0.001
-81.626	20.978	-0.118	0.094
-80.611	-119.392	-0.226	-0.039
-79.597	-200.000	0.028	-0.144
-78.582	800.000	-0.032	-0.128
-77.567	800.000	-0.061	0.199
-76.553	59.170	0.205	0.199
-75.538	-200.000	0.010	-0.091
-74.524	-200.000	-0.033	-0.368
-73.509	-200.000	0.012	-0.152
-72.494	-102.909	0.439	0.103
-71.480	492.933	-0.098	0.222
-70.465	249.855	0.168	-0.281
-69.451	-8.546	-0.189	-0.125
-68.436	800.000	0.109	-0.440
-67.422	414.965	-0.083	-0.174
-66.407	465.330	-0.050	0.110
-65.392	-200.000	0.085	-0.396
-64.378	279.501	-0.102	-0.180
-63.363	-56.402	0.307	-0.134
-62.349	-156.369	0.350	-0.022
-61.334	37.981	-1.147	-1.004
-60.319	55.256	0.560	0.533
-59.305	263.777	-0.581	-0.995
-58.290	376.262	0.669	1.344
-57.276	800.000	0.516	1.598
-56.261	-200.000	113.638	668.245
-55.246	553.845	1512.028	3579.348
-54.232	176.173	2688.519	3843.314
-53.217	103.692	2318.266	2679.722
-52.203	34.970	2064.505	1779.002
-51.188	29.932	1980.272	1661.281
-50.173	28.520	1963.558	1634.613
-49.159	47.602	2023.665	1857.770
-48.144	46.522	2038.818	1861.853
-47.130	30.459	1997.026	1679.838
-46.115	28.135	1986.776	1650.213
-45.100	28.037	1983.642	1646.655
-44.086	28.009	1981.260	1644.363
-43.071	28.006	1978.299	1641.815
-42.057	27.892	1976.736	1639.427
-41.042	27.908	1975.424	1638.416
-40.027	27.974	1973.377	1637.245
-39.013	27.984	1971.888	1636.036
-37.998	28.004	1969.957	1634.548
-36.984	27.965	1967.705	1632.266
-35.969	28.025	1965.698	1631.068
-34.954	28.053	1964.235	1630.047
-33.940	28.167	1962.561	1629.603
-32.925	28.087	1961.523	1627.970
-31.911	28.074	1959.344	1625.974
-30.896	28.078	1957.980	1624.819
-29.881	28.065	1956.758	1623.619
-28.867	28.121	1955.389	1622.919
-27.852	28.223	1953.601	1622.279
-26.838	28.152	1951.690	1619.997
-25.823	28.172	1949.943	1618.654
-24.809	28.194	1947.372	1616.654
-23.794	28.091	1945.903	1614.459
-22.779	28.156	1943.962	1613.361
-21.765	28.053	1942.576	1611.235
-20.750	28.089	1940.746	1609.976
-19.736	28.143	1939.068	1608.987
-18.721	28.161	1937.753	1607.997
-17.706	28.097	1936.046	1605.949
-16.692	28.145	1934.625	1605.130
-15.677	28.143	1933.268	1603.927
-14.663	28.119	1931.662	1602.315
-13.648	28.088	1930.774	1601.243
-12.633	28.094	1929.792	1600.422
-11.619	28.116	1928.574	1599.543
-10.604	28.168	1926.457	1598.173
-9.590	27.998	1925.424	1595.766
-8.575	28.075	1923.936	1595.147
-7.560	28.090	1923.017	1594.452
-6.546	28.145	1920.990	1593.188
-5.531	28.088	1920.123	1591.910
-4.517	28.187	1918.482	1591.342
-3.502	28.108	1917.704	1589.948
-2.487	28.129	1916.131	1588.761
-1.473	28.190	1915.017	1588.309
-0.458	28.199	1909.810	1584.000
0.556	28.786	1890.584	1555.508
1.571	24.365	1871.909	1502.848
2.586	20.398	1894.585	1487.023
3.600	19.359	1929.173	1504.968
4.615	18.795	1922.873	1495.016
5.629	14.194	1822.227	1378.603
6.644	6.811	1707.650	1234.300
7.659	3.295	1674.505	1183.255
8.673	3.085	1671.515	1179.426
9.688	3.148	1669.827	1178.613
10.702	3.159	1668.294	1177.513
11.717	3.088	1665.405	1174.827
12.731	3.497	1664.524	1177.222
13.746	8.546	1676.388	1224.240
14.761	16.455	1693.430	1297.521
15.775	20.292	1699.435	1331.509
16.790	20.359	1698.990	1331.556
17.804	19.447	1696.003	1322.111
18.819	18.503	1692.585	1312.107
19.834	17.854	1690.690	1305.556
20.848	17.705	1688.556	1302.656
21.863	17.569	1687.213	1300.469
22.877	17.439	1685.915	1298.355
23.892	17.188	1684.703	1295.399
24.907	17.091	1683.895	1293.923
25.921	17.066	1682.456	1292.511
26.936	17.020	1681.832	1291.565
27.950	17.046	1680.942	1290.963
28.965	17.169	1679.854	1290.954
29.980	17.211	1679.197	1290.650
30.994	17.227	1678.833	1290.375
32.009	17.397	1677.682	1290.673
33.023	17.424	1676.798	1290.080
34.038	17.500	1675.740	1289.728
35.053	17.388	1674.660	1287.935
36.067	17.361	1672.972	1286.321
37.082	17.212	1672.078	1284.391
38.096	17.312	1670.800	1284.048
39.111	17.356	1670.214	1283.820
40.126	17.404	1669.584	1283.582
41.140	17.306	1669.021	1282.296
42.155	17.158	1666.453	1279.094
43.169	16.925	1665.136	1276.218
44.184	16.802	1664.322	1274.559
45.199	16.898	1662.563	1273.819
46.213	16.893	1661.514	1272.862
47.228	16.873	1660.396	1271.748
48.242	17.126	1659.462	1272.818
49.257	17.279	1658.417	1273.048
50.271	17.233	1656.972	1271.479
51.286	17.076	1656.439	1269.784
52.301	17.124	1654.672	1268.680
53.315	17.230	1653.286	1268.291
54.330	17.124	1651.977	1266.383
55.344	17.013	1650.215	1264.094
56.359	16.975	1648.590	1262.457
57.374	16.928	1647.492	1261.158
58.388	16.936	1646.562	1260.391
59.403	16.895	1645.084	1258.847
60.417	16.887	1643.277	1257.289
61.432	16.910	1642.325	1256.621
62.447	16.885	1641.529	1255.712
63.461	16.751	1640.329	1253.694
64.476	16.712	1639.137	1252.383
65.490	16.691	1638.449	1251.593
66.505	16.658	1636.314	1249.605
67.520	16.679	1635.590	1249.102
68.534	16.820	1634.126	1248.913
69.549	16.885	1633.348	1248.681
70.563	16.797	1632.156	1247.016
71.578	16.697	1630.944	1245.242
72.593	16.656	1630.089	1244.178
73.607	16.608	1628.742	1242.688
74.622	16.534	1627.870	1241.368
75.636	16.507	1626.752	1240.208
76.651	16.593	1625.933	1240.104
77.666	16.566	1625.325	1239.333
78.680	16.549	1624.765	1238.673
79.695	16.739	1623.516	1238.998
80.709	16.718	1622.693	1238.108
81.724	16.798	1621.983	1238.045
82.739	16.873	1621.565	1238.164
83.753	16.941	1620.560	1237.779
84.768	17.028	1619.786	1237.718
85.782	17.192	1618.810	1238.055
86.797	17.297	1618.086	1238.159
87.812	17.363	1617.098	1237.768
88.826	17.257	1616.141	1236.159
89.841	17.201	1614.519	1234.399
90.855	17.165	1613.615	1233.342
91.870	17.312	1612.799	1233.672
92.884	17.347	1612.162	1233.328
93.899	17.361	1611.032	1232.459
94.914	17.370	1610.004	1231.626
95.928	17.365	1608.846	1230.599
96.943	17.475	1607.081	1229.934
97.957	17.390	1605.789	1228.223
98.972	17.317	1604.633	1226.700
99.987	17.230	1602.795	1224.559
101.001	17.288	1601.300	1223.727
102.016	17.302	1599.618	1222.434
103.030	17.293	1598.387	1221.325
104.045	17.275	1597.485	1220.392
105.060	17.306	1595.474	1218.977
106.074	17.247	1594.233	1217.496
107.089	17.113	1592.506	1215.112
108.103	16.985	1590.356	1212.447
109.118	16.763	1588.626	1209.439
110.133	16.657	1587.958	1208.064
111.147	16.730	1586.071	1207.040
112.162	16.754	1585.021	1206.307
113.176	16.769	1583.841	1205.410
114.191	16.953	1582.349	1205.477
115.206	16.924	1581.470	1204.493
116.220	16.871	1580.372	1203.172
117.235	16.854	1578.853	1201.789
118.249	16.945	1577.175	1201.049
119.264	16.836	1576.075	1199.333
120.279	16.759	1575.102	1197.943
121.293	16.795	1573.250	1196.687
122.308	16.630	1571.911	1194.392
123.322	16.641	1570.199	1193.065
124.337	16.546	1569.151	1191.493
125.352	16.556	1567.396	1190.130
126.366	16.507	1566.597	1189.072
127.381	16.631	1564.765	1188.446
128.395	16.628	1563.886	1187.649
129.410	16.604	1562.652	1186.444
130.424	16.572	1561.533	1185.265
131.439	16.747	1559.853	1185.105
132.454	16.773	1558.849	1184.421
133.468	16.780	1557.775	1183.550
134.483	16.919	1556.110	1183.149
135.497	16.866	1555.265	1182.034
136.512	16.884	1553.909	1181.023
137.527	16.898	1552.503	1179.947
138.541	16.908	1551.334	1179.026
139.556	16.974	1549.825	1178.233
140.570	16.983	1548.630	1177.279
141.585	17.102	1546.896	1176.687
142.600	17.207	1546.121	1176.720
143.614	17.333	1544.981	1176.618
144.629	17.327	1543.751	1175.535
145.643	17.385	1542.456	1174.844
146.658	17.495	1541.760	1174.972
147.673	17.343	1539.617	1172.190
148.687	17.208	1538.479	1170.285
149.702	17.196	1536.576	1168.650
150.716	17.080	1534.965	1166.524
151.731	17.030	1533.827	1165.219
152.746	16.901	1533.207	1163.754
153.760	17.049	1531.065	1163.044
154.775	17.033	1530.104	1162.102
155.789	17.122	1528.866	1161.665
156.804	17.189	1527.817	1161.227
157.819	17.274	1526.135	1160.424
158.833	17.212	1525.436	1159.363
159.848	17.365	1524.505	1159.596
160.862	17.335	1523.330	1158.401
161.877	17.459	1521.945	1158.086
162.892	17.350	1520.492	1156.138
163.906	17.166	1519.243	1153.836
164.921	17.039	1517.702	1151.703
165.935	16.986	1516.936	1150.657
166.950	17.082	1515.793	1150.337
167.964	17.140	1514.984	1150.014
168.979	17.174	1513.994	1149.396
169.994	17.160	1512.486	1148.050
171.008	17.194	1511.193	1147.198
172.023	17.216	1510.389	1146.638
173.037	17.234	1509.509	1145.989
174.052	17.326	1508.500	1145.740
175.067	17.483	1507.089	1145.623
176.081	17.260	1506.144	1143.304
177.096	17.225	1504.088	1141.405
178.110	17.087	1502.898	1139.476
179.125	17.072	1502.242	1138.779
180.140	17.177	1501.311	1138.676
181.154	17.183	1500.686	1138.143
182.169	17.267	1499.087	1137.392
183.183	17.334	1498.247	1137.102
184.198	17.427	1496.998	1136.670
185.213	17.445	1496.150	1136.047
186.227	17.562	1495.121	1135.945
187.242	17.487	1494.370	1134.773
188.256	17.521	1493.292	1134.082
189.271	17.572	1492.235	1133.522
190.286	17.610	1491.742	1133.298
191.300	17.595	1490.169	1131.901
192.315	17.309	1489.004	1129.021
193.329	17.141	1487.149	1126.398
194.344	16.987	1486.118	1124.500
195.359	17.097	1485.351	1124.547
196.373	17.246	1484.096	1124.480
197.388	17.285	1483.738	1124.372
198.402	17.379	1482.279	1123.788
199.417	17.577	1480.921	1123.963
200.432	17.620	1481.014	1124.217
201.446	17.802	1479.772	1124.375
202.461	17.759	1478.827	1123.275
203.475	17.907	1478.028	1123.539
204.490	18.023	1476.987	1123.416
205.504	17.897	1475.805	1121.590
206.519	17.707	1474.538	1119.278
207.534	17.594	1473.666	1117.773
208.548	17.616	1471.753	1116.369
209.563	17.622	1470.948	1115.701
210.577	17.640	1470.175	1115.133
211.592	17.684	1469.638	1114.914
212.607	17.733	1468.486	1114.266
213.621	17.800	1468.267	1114.435
214.636	17.796	1467.417	1113.666
215.650	17.844	1465.867	1112.703
216.665	17.849	1465.087	1112.046
217.680	17.811	1464.651	1111.369
218.694	17.953	1464.182	1111.840
219.709	18.052	1463.339	1111.742
220.723	18.151	1461.832	1111.144
221.738	17.980	1461.186	1109.446
222.753	17.956	1460.014	1108.300
223.767	17.917	1459.591	1107.627
224.782	17.975	1458.228	1106.873
225.796	18.032	1457.205	1106.364
226.811	18.071	1456.557	1106.030
227.826	18.231	1455.342	1106.045
228.840	18.076	1455.119	1104.776
229.855	17.974	1454.144	1103.276
230.869	17.951	1453.070	1102.216
231.884	17.894	1451.947	1100.898
232.899	17.874	1450.914	1099.892
233.913	17.874	1449.333	1098.594
234.928	17.761	1448.569	1097.193
235.942	17.791	1447.069	1096.148
236.957	17.755	1445.582	1094.699
237.972	17.661	1444.676	1093.312
238.986	17.764	1443.673	1093.117
240.001	17.814	1442.855	1092.720
241.015	17.919	1441.347	1092.152
242.030	17.808	1440.602	1090.783
243.045	17.931	1439.877	1090.920
244.059	17.911	1439.046	1090.071
245.074	17.960	1437.986	1089.481
246.088	18.034	1437.270	1089.313
247.103	18.141	1436.142	1089.042
248.117	18.186	1435.761	1088.942
249.132	18.210	1435.056	1088.466
250.147	18.385	1434.255	1088.874
251.161	18.586	1433.734	1089.660
252.176	18.679	1433.587	1090.046
253.190	18.749	1432.651	1089.680
254.205	18.793	1431.976	1089.347
255.220	18.874	1430.871	1088.927
256.234	18.808	1430.074	1087.804
257.249	18.777	1429.735	1087.251
258.263	18.832	1428.755	1086.763
259.278	18.842	1427.440	1085.728
260.293	18.733	1427.098	1084.683
261.307	18.783	1425.831	1083.942
262.322	18.844	1425.044	1083.632
263.336	18.851	1424.724	1083.336
264.351	18.917	1423.411	1082.653
265.366	19.021	1422.560	1082.566
266.380	19.051	1420.994	1081.466
267.395	18.984	1420.717	1080.741
268.409	19.005	1419.700	1080.004
269.424	18.940	1418.774	1078.797
270.439	18.818	1417.511	1076.975
271.453	18.817	1416.619	1076.196
272.468	18.806	1415.649	1075.293
273.482	18.786	1414.967	1074.558
274.497	18.666	1413.879	1072.883
275.512	18.645	1412.997	1071.991
276.526	18.721	1411.955	1071.580
277.541	18.817	1410.948	1071.317
278.555	18.738	1410.067	1070.063
279.570	18.813	1409.405	1069.931
280.585	18.887	1408.697	1069.758
281.599	19.077	1407.609	1070.024
282.614	19.021	1407.218	1069.279
283.628	18.993	1405.577	1067.766
284.643	18.878	1404.609	1066.220
285.657	18.771	1403.918	1064.940
286.672	18.903	1402.739	1064.771
287.687	18.899	1401.600	1063.788
288.701	18.873	1400.250	1062.506
289.716	18.915	1399.858	1062.377
290.730	19.054	1398.558	1062.154
291.745	18.883	1397.801	1060.430
292.760	18.818	1397.226	1059.497
293.774	18.924	1396.097	1059.203
294.789	18.923	1395.263	1058.470
295.803	19.146	1394.512	1059.177
296.818	19.200	1393.605	1058.725
297.833	19.051	1392.718	1057.040
298.847	18.989	1391.468	1055.620
299.862	19.004	1390.436	1054.837
300.876	18.943	1389.861	1053.931
301.891	18.895	1389.007	1052.898
302.906	19.056	1388.243	1053.210
303.920	19.173	1387.412	1053.200
304.935	19.229	1387.101	1053.216
305.949	19.355	1386.402	1053.359
306.964	19.349	1385.484	1052.537
307.979	19.510	1384.157	1052.416
308.993	19.419	1383.417	1051.204
310.008	19.302	1382.500	1049.700
311.022	19.365	1381.302	1049.086
312.037	19.431	1380.258	1048.600
313.052	19.476	1379.575	1048.262
314.066	19.364	1378.507	1046.674
315.081	19.167	1377.264	1044.444
316.095	19.107	1376.047	1043.068
317.110	19.046	1375.266	1042.013
318.125	19.121	1373.978	1041.399
319.139	19.135	1373.076	1040.705
320.154	19.251	1372.049	1040.535
321.168	19.092	1371.277	1038.898
322.183	19.146	1370.342	1038.427
323.197	19.136	1369.333	1037.509
324.212	19.221	1368.613	1037.386
325.227	19.240	1367.998	1036.938
326.241	19.253	1367.031	1036.192
327.256	19.303	1366.085	1035.687
328.270	19.302	1365.341	1035.020
329.285	19.184	1364.742	1033.772
330.300	19.204	1363.468	1032.833
331.314	19.323	1362.310	1032.579
332.329	19.198	1361.622	1031.218
333.343	19.233	1360.552	1030.526
334.358	19.223	1360.314	1030.194
335.373	19.342	1359.400	1030.120
336.387	19.474	1358.761	1030.333
337.402	19.423	1358.200	1029.511
338.416	19.517	1356.799	1028.916
339.431	19.494	1356.630	1028.561
340.446	19.571	1355.824	1028.320
341.460	19.685	1354.520	1027.915
342.475	19.686	1354.180	1027.576
343.489	19.840	1353.147	1027.612
344.504	19.918	1352.097	1027.187
345.519	19.957	1351.472	1026.851
346.533	19.964	1350.560	1026.112
347.548	20.020	1349.618	1025.638
348.562	19.994	1349.291	1025.146
349.577	20.027	1348.095	1024.342
350.592	20.004	1347.314	1023.523
351.606	19.795	1346.153	1021.316
352.621	19.783	1344.586	1019.965
353.635	19.623	1343.838	1018.363
354.650	19.637	1342.456	1017.309
355.665	19.618	1341.758	1016.575
356.679	19.684	1340.649	1016.033
357.694	19.727	1339.727	1015.497
358.708	19.705	1338.796	1014.575
359.723	19.741	1337.693	1013.862
360.738	19.777	1336.923	1013.396
361.752	19.851	1335.505	1012.663
362.767	19.895	1334.919	1012.389
363.781	19.856	1333.543	1011.029
364.796	19.929	1333.082	1011.015
365.810	19.953	1332.064	1010.296
366.825	20.101	1332.033	1011.044
367.840	20.081	1331.229	1010.230
368.854	20.263	1330.573	1010.701
369.869	20.308	1330.286	1010.654
370.883	20.401	1329.555	1010.552
371.898	20.275	1328.602	1009.009
372.913	20.214	1327.620	1007.815
373.927	20.044	1326.948	1006.232
374.942	20.224	1325.760	1006.285
375.956	20.348	1324.744	1006.143
376.971	20.327	1324.237	1005.549
377.986	20.248	1323.684	1004.582
379.000	20.246	1323.184	1004.103
380.015	20.382	1322.064	1003.947
381.029	20.319	1321.966	1003.423
382.044	20.555	1321.054	1004.002
383.059	20.490	1320.189	1002.882
384.073	20.503	1319.461	1002.314
385.088	20.497	1318.813	1001.699
386.102	20.486	1318.144	1001.038
387.117	20.510	1317.508	1000.608
388.132	20.463	1316.515	999.495
389.146	20.288	1315.728	997.800
390.161	20.299	1314.750	997.032
391.175	20.119	1313.963	995.313
392.190	20.226	1313.181	995.247
393.205	20.257	1312.389	994.736
394.219	20.417	1311.182	994.650
395.234	20.491	1310.188	994.232
396.248	20.410	1308.694	992.550
397.263	20.379	1307.526	991.398
398.278	20.435	1305.742	990.279
399.292	20.421	1304.477	989.150
400.307	20.211	1303.766	987.327
401.321	20.167	1302.579	986.092
402.336	20.046	1301.537	984.526
403.350	20.201	1300.384	984.450
404.365	20.286	1299.924	984.493
405.380	20.199	1299.139	983.323
406.394	20.210	1298.383	982.727
407.409	20.363	1297.605	982.914
408.423	20.416	1297.192	982.813
409.438	20.536	1296.379	982.789
410.453	20.729	1295.492	983.119
411.467	20.690	1295.260	982.638
412.482	20.673	1294.758	982.073
413.496	20.804	1294.263	982.351
414.511	20.884	1293.166	981.881
415.526	20.852	1292.670	981.238
416.540	20.997	1291.760	981.274
417.555	20.990	1291.207	980.729
418.569	21.051	1290.585	980.514
419.584	20.985	1289.989	979.605
420.599	20.947	1289.219	978.716
421.613	144.833	1435.000	1796.100
422.628	139.780	1456.197	1796.186
