DTS Sentinel unit serial number:	SN413079Multiplexer serial number:	ORYXHardware model number:	OX4-SRSoftware version number:	ORYX F/W v4.00 Oryx Data Collector v3.7.2.0data status	okinstallation	princeton_trtdifferential loss correction	single-endedforward channel	channel 4reverse channel	N/Adate	2019/09/12time	14:35:11forward acquisition time	60.00reverse acquisition time	0.00gamma	496.2192k internal	0.2291k external	0.2291temperature offset calibration	1.0086default loss term (dB/km)	0.3790temperature slope calibration	1.0000multiplexer offset coefficient	1.0000multiplexer slope coefficient	1.0000fibre end	0.00T internal ref (°C)	40.06T ext. ref 1 (°C)	2.26T ext. ref 2 (°C)	36.29length (m)	temperature (°C)	Stokes	anti-Stokes-747.200	376.474	0.055	0.115
-746.185	800.000	-0.111	0.462
-745.171	-98.794	0.066	0.017
-744.156	-200.000	-0.011	0.362
-743.142	-200.000	-0.029	0.354
-742.127	800.000	0.017	0.060
-741.112	800.000	0.053	0.216
-740.098	428.211	0.107	0.236
-739.083	289.142	0.115	0.214
-738.069	-31.006	-0.084	0.048
-737.054	-200.000	-0.006	0.101
-736.039	16.827	0.154	-0.125
-735.025	-144.601	0.240	0.023
-734.010	-77.940	-0.297	-0.105
-732.996	-200.000	-0.003	-0.275
-731.981	-200.000	0.047	-0.396
-730.966	-200.000	0.019	-0.264
-729.952	46.784	-0.211	-0.200
-728.937	-200.000	-0.038	0.236
-727.923	49.884	0.163	-0.157
-726.908	373.537	0.052	0.108
-725.894	-200.000	-0.001	-0.514
-724.879	-200.000	0.010	-0.093
-723.864	54.469	0.223	-0.220
-722.850	642.510	0.029	-0.077
-721.835	-113.558	-0.087	-0.017
-720.821	-67.912	-0.212	0.085
-719.806	11.023	-0.233	0.182
-718.791	800.000	-0.079	0.290
-717.777	-95.194	-0.187	-0.052
-716.762	182.288	0.089	-0.134
-715.748	199.727	-0.043	0.068
-714.733	707.222	0.078	-0.209
-713.718	800.000	-0.074	0.280
-712.704	-174.044	-0.505	-0.015
-711.689	-200.000	0.004	-0.127
-710.675	-200.000	-0.034	0.220
-709.660	800.000	-0.098	0.292
-708.645	800.000	0.079	-0.332
-707.631	546.401	-0.094	0.231
-706.616	800.000	-0.048	-0.191
-705.602	59.305	0.287	-0.289
-704.587	800.000	-0.046	0.199
-703.572	-32.944	0.178	0.101
-702.558	-150.640	0.143	0.011
-701.543	-114.057	0.137	-0.027
-700.529	271.241	0.049	0.089
-699.514	-77.298	0.187	0.066
-698.499	284.477	0.068	-0.125
-697.485	-46.129	-0.281	-0.142
-696.470	71.457	-0.180	-0.191
-695.456	-44.609	0.175	-0.089
-694.441	800.000	-0.039	0.116
-693.426	6.873	0.125	-0.095
-692.412	500.337	-0.057	-0.135
-691.397	-160.029	-0.300	-0.017
-690.383	157.241	-0.061	-0.086
-689.368	-58.483	-0.148	0.066
-688.354	0.482	0.097	-0.071
-687.339	-200.000	0.012	-0.194
-686.324	-200.000	0.033	-0.289
-685.310	-49.734	-0.095	0.046
-684.295	-175.581	-0.214	0.006
-683.281	-56.521	0.240	-0.109
-682.266	-200.000	0.025	-0.185
-681.251	114.024	0.136	-0.169
-680.237	-200.000	-0.007	-0.106
-679.222	280.391	0.108	0.196
-678.208	-73.001	0.361	-0.136
-677.193	-25.458	-0.179	-0.108
-676.178	-200.000	0.001	-0.169
-675.164	-200.000	-0.001	0.012
-674.149	-200.000	-0.038	0.271
-673.135	-106.362	0.166	0.038
-672.120	-23.556	-0.455	-0.279
-671.105	155.697	-0.164	-0.231
-670.091	192.122	0.156	-0.241
-669.076	800.000	0.064	0.282
-668.062	251.003	0.133	0.232
-667.047	197.956	-0.053	-0.083
-666.032	800.000	0.103	-0.381
-665.018	11.854	-0.099	-0.078
-664.003	800.000	0.049	0.170
-662.989	97.874	0.144	-0.169
-661.974	-200.000	-0.007	-0.312
-660.959	195.912	-0.110	-0.171
-659.945	19.077	-0.181	0.148
-658.930	-7.335	-0.022	-0.015
-657.916	-200.000	-0.034	-0.255
-656.901	-120.882	-0.070	0.012
-655.886	35.878	-0.426	0.382
-654.872	800.000	-0.048	0.140
-653.857	677.602	-0.192	-0.510
-652.843	-177.000	-0.130	0.003
-651.828	800.000	-0.080	0.344
-650.814	-89.819	-0.045	-0.013
-649.799	11.424	0.229	0.179
-648.784	175.877	-0.063	0.094
-647.770	475.399	0.178	-0.410
-646.755	-200.000	0.055	-0.342
-645.741	-149.660	0.035	0.003
-644.726	27.692	-0.063	-0.054
-643.711	-21.249	0.205	-0.128
-642.697	-154.877	0.239	-0.016
-641.682	-144.448	0.025	-0.002
-640.668	-200.000	-0.036	0.241
-639.653	-119.663	0.304	0.054
-638.638	-200.000	0.130	0.000
-637.624	-49.843	-0.084	0.041
-636.609	-18.202	-0.268	0.171
-635.595	488.683	0.110	0.257
-634.580	-54.094	-0.246	-0.114
-633.565	-137.520	-0.043	-0.005
-632.551	358.310	-0.070	-0.143
-631.536	-188.977	0.133	-0.002
-630.522	-96.967	-0.066	-0.018
-629.507	-36.494	0.132	0.072
-628.492	-29.869	0.054	-0.032
-627.478	-184.466	0.161	0.003
-626.463	30.857	-0.114	0.100
-625.449	-200.000	-0.020	0.119
-624.434	-133.574	-0.473	0.060
-623.419	-95.062	0.327	0.090
-622.405	800.000	0.078	0.241
-621.390	21.719	-0.356	0.295
-620.376	236.388	-0.158	-0.266
-619.361	285.900	0.053	0.097
-618.346	149.098	0.302	-0.417
-617.332	-200.000	0.027	-0.496
-616.317	49.698	-0.088	-0.085
-615.303	-12.698	-0.050	-0.033
-614.288	-82.134	-0.276	0.092
-613.273	-60.899	0.029	-0.013
-612.259	800.000	0.046	-0.134
-611.244	-178.734	-0.293	0.007
-610.230	-6.622	-0.224	-0.155
-609.215	-153.833	-0.213	0.015
-608.201	-200.000	-0.020	-0.094
-607.186	184.231	-0.053	-0.080
-606.171	169.815	0.068	0.098
-605.157	-200.000	-0.023	0.194
-604.142	-117.076	0.247	-0.046
-603.128	34.951	-0.207	0.185
-602.113	-140.631	-0.094	-0.010
-601.098	23.854	0.065	-0.054
-600.084	800.000	0.039	-0.153
-599.069	172.023	-0.112	-0.164
-598.055	-184.449	0.058	0.001
-597.040	551.178	-0.145	-0.355
-596.025	291.050	-0.143	0.264
-595.011	65.243	-0.188	-0.194
-593.996	-77.548	-0.180	-0.064
-592.982	236.873	-0.176	-0.296
-591.967	616.722	0.105	-0.268
-590.952	800.000	-0.040	0.180
-589.938	800.000	-0.075	0.298
-588.923	97.870	0.031	-0.036
-587.909	35.010	-0.256	0.228
-586.894	-200.000	-0.036	0.175
-585.879	-200.000	-0.015	-0.160
-584.865	155.960	0.246	-0.345
-583.850	-200.000	0.003	-0.208
-582.836	-4.268	-0.136	-0.096
-581.821	67.197	0.236	0.245
-580.806	-68.205	0.261	0.103
-579.792	-200.000	0.036	0.218
-578.777	277.491	0.144	0.262
-577.763	-124.245	0.461	0.073
-576.748	-200.000	0.009	0.330
-575.733	2.795	-0.230	-0.170
-574.719	-4.802	0.053	-0.037
-573.704	-34.314	-0.207	-0.115
-572.690	365.117	-0.161	-0.331
-571.675	-55.101	-0.208	-0.095
-570.661	-180.692	-0.143	-0.003
-569.646	-27.246	0.210	-0.124
-568.631	59.544	0.146	-0.146
-567.617	800.000	-0.054	0.170
-566.602	15.225	-0.099	0.079
-565.588	-142.513	0.243	0.024
-564.573	-140.906	0.156	-0.016
-563.558	-200.000	0.006	-0.259
-562.544	13.853	0.200	-0.158
-561.529	374.940	-0.048	-0.099
-560.515	582.246	0.041	-0.103
-559.500	82.396	0.125	-0.138
-558.485	-130.869	0.313	0.043
-557.471	-200.000	0.019	0.367
-556.456	-200.000	-0.024	0.299
-555.442	800.000	-0.082	0.278
-554.427	-170.604	0.046	-0.002
-553.412	-132.465	0.061	-0.008
-552.398	-20.513	0.264	-0.165
-551.383	-108.340	0.176	0.039
-550.369	419.904	0.086	0.188
-549.354	-11.785	-0.169	-0.113
-548.339	143.830	0.091	-0.123
-547.325	-200.000	0.011	-0.051
-546.310	606.709	0.109	-0.276
-545.296	-135.951	-0.177	-0.021
-544.281	353.125	0.070	-0.141
-543.266	-37.514	0.356	-0.193
-542.252	-21.764	-0.260	0.161
-541.237	-200.000	0.062	-0.302
-540.223	694.723	-0.159	-0.424
-539.208	-162.873	0.011	0.001
-538.193	-9.606	0.096	0.065
-537.179	-121.879	-0.321	-0.054
-536.164	-151.851	0.217	0.016
-535.150	-79.811	0.180	-0.062
-534.135	-200.000	-0.015	-0.165
-533.121	226.445	0.164	0.271
-532.106	-200.000	-0.008	0.071
-531.091	171.743	-0.042	-0.062
-530.077	-137.503	0.228	0.026
-529.062	-47.619	-0.305	-0.150
-528.048	-97.399	-0.312	0.083
-527.033	119.744	0.182	-0.228
-526.018	-51.654	0.205	0.097
-525.004	49.059	0.129	0.123
-523.989	-95.998	-0.114	0.031
-522.975	800.000	-0.029	-0.120
-521.960	60.570	-0.274	-0.276
-520.945	-30.842	0.244	0.140
-519.931	163.200	0.147	-0.210
-518.916	204.619	-0.229	-0.361
-517.902	5.722	0.097	-0.072
-516.887	195.174	0.197	-0.303
-515.872	-200.000	-0.028	-0.366
-514.858	-200.000	-0.053	0.305
-513.843	-200.000	0.014	-0.314
-512.829	347.937	-0.100	0.200
-511.814	800.000	-0.088	0.325
-510.799	138.514	-0.195	-0.259
-509.785	-144.991	0.342	-0.032
-508.770	800.000	0.060	0.176
-507.756	65.802	0.056	0.058
-506.741	-124.844	-0.050	-0.008
-505.726	36.765	0.128	0.115
-504.712	-26.969	0.312	0.185
-503.697	-77.448	-0.225	0.079
-502.683	-200.000	0.009	-0.057
-501.668	-106.222	-0.103	0.023
-500.653	-95.325	-0.091	-0.025
-499.639	800.000	-0.008	0.030
-498.624	-200.000	0.019	0.143
-497.610	723.064	0.121	-0.328
-496.595	85.916	-0.165	-0.184
-495.581	-200.000	0.011	-0.181
-494.566	353.808	0.076	-0.153
-493.551	-123.739	-0.070	-0.011
-492.537	483.155	-0.027	0.062
-491.522	-154.023	-0.549	-0.038
-490.508	116.197	-0.108	-0.134
-489.493	52.721	0.145	0.140
-488.478	222.384	0.197	0.322
-487.464	190.519	0.128	0.194
-486.449	4.888	0.086	-0.064
-485.435	89.224	0.150	-0.169
-484.420	786.577	0.093	0.260
-483.405	-200.000	-0.059	-0.290
-482.391	38.252	0.308	0.278
-481.376	-35.046	-0.048	0.027
-480.362	-200.000	0.017	-0.202
-479.347	-200.000	0.021	0.100
-478.332	-83.708	0.237	0.077
-477.318	514.011	0.165	-0.390
-476.303	13.129	0.176	-0.138
-475.289	-57.656	0.100	-0.044
-474.274	-5.716	0.159	0.111
-473.259	328.708	-0.115	0.224
-472.245	289.924	-0.105	-0.193
-471.230	-200.000	0.002	-0.103
-470.216	-16.544	0.054	0.035
-469.201	406.657	-0.148	-0.316
-468.186	-200.000	-0.004	-0.211
-467.172	267.015	-0.035	0.061
-466.157	88.796	-0.085	0.095
-465.143	-200.000	-0.007	0.058
-464.128	697.953	-0.063	-0.166
-463.113	160.948	0.110	-0.155
-462.099	800.000	-0.068	-0.249
-461.084	-107.557	0.319	-0.071
-460.070	-45.487	-0.114	0.057
-459.055	-200.000	0.025	0.246
-458.040	-200.000	0.007	0.287
-457.026	-142.093	-0.080	-0.008
-456.011	-91.210	0.077	-0.022
-454.997	158.791	0.264	0.371
-453.982	800.000	0.132	0.471
-452.968	-200.000	-0.045	0.369
-451.953	-200.000	0.005	-0.076
-450.938	-79.425	-0.274	-0.094
-449.924	800.000	0.100	0.389
-448.909	-164.346	-0.170	0.008
-447.895	-85.425	0.255	0.081
-446.880	-132.564	-0.082	0.011
-445.865	311.808	0.138	-0.262
-444.851	583.924	0.074	0.183
-443.836	-28.343	-0.182	0.107
-442.822	-17.640	0.360	0.229
-441.807	-137.504	0.086	0.010
-440.792	-139.623	-0.131	0.014
-439.778	18.146	0.163	0.132
-438.763	15.808	-0.295	0.235
-437.749	-15.179	-0.182	-0.118
-436.734	153.720	-0.039	-0.054
-435.719	-102.312	-0.187	-0.045
-434.705	39.954	0.122	0.111
-433.690	35.825	0.033	0.029
-432.676	322.362	0.110	-0.212
-431.661	-146.567	-0.357	-0.031
-430.646	294.870	0.035	-0.065
-429.632	-200.000	-0.011	-0.333
-428.617	-124.329	0.369	-0.058
-427.603	-184.011	-0.215	0.004
-426.588	58.988	-0.077	0.077
-425.573	-184.697	-0.197	-0.003
-424.559	-200.000	-0.039	-0.208
-423.544	105.386	0.071	-0.085
-422.530	29.495	-0.084	-0.073
-421.515	-40.421	0.194	0.102
-420.500	-62.807	0.270	0.113
-419.486	-1.197	0.172	-0.123
-418.471	290.005	-0.118	-0.216
-417.457	800.000	0.051	-0.143
-416.442	-200.000	0.031	0.439
-415.428	-200.000	0.023	0.231
-414.413	800.000	0.105	0.395
-413.398	-12.219	0.214	0.141
-412.384	-104.212	0.271	-0.064
-411.369	-141.792	0.081	-0.008
-410.355	-200.000	-0.050	0.278
-409.340	-96.715	-0.076	-0.020
-408.325	138.629	0.095	-0.126
-407.311	60.402	-0.126	-0.126
-406.296	-77.806	-0.088	0.031
-405.282	-154.699	-0.050	-0.003
-404.267	-200.000	-0.011	0.088
-403.252	216.959	0.053	0.085
-402.238	92.827	-0.068	0.077
-401.223	-200.000	-0.084	-0.426
-400.209	119.791	0.096	0.120
-399.194	-200.000	0.011	-0.069
-398.179	-97.671	-0.164	-0.043
-397.165	800.000	0.070	0.260
-396.150	-96.432	-0.138	0.037
-395.136	-52.244	0.221	-0.104
-394.121	800.000	0.080	0.237
-393.106	-200.000	0.030	0.210
-392.092	-138.013	-0.131	0.015
-391.077	142.255	-0.206	0.276
-390.063	92.554	0.121	0.138
-389.048	-132.828	-0.551	0.071
-388.033	800.000	-0.140	0.501
-387.019	738.579	0.048	-0.130
-386.004	110.656	0.260	0.316
-384.990	52.034	0.141	0.136
-383.975	23.976	0.242	0.201
-382.960	-200.000	0.052	0.260
-381.946	-183.586	0.068	0.001
-380.931	-200.000	-0.022	0.194
-379.917	-92.063	0.081	0.023
-378.902	44.074	0.080	-0.074
-377.888	124.089	-0.129	0.163
-376.873	8.094	0.232	-0.176
-375.858	-200.000	0.028	-0.178
-374.844	-2.767	-0.188	-0.132
-373.829	-110.577	0.261	0.054
-372.815	122.354	0.118	0.148
-371.800	178.134	-0.052	-0.076
-370.785	122.378	-0.156	0.197
-369.771	800.000	0.006	-0.026
-368.756	-0.204	0.244	-0.175
-367.742	52.378	-0.091	-0.087
-366.727	-190.438	-0.264	-0.003
-365.712	109.773	0.230	-0.279
-364.698	-145.824	0.072	-0.006
-363.683	-61.686	-0.296	0.125
-362.669	-28.673	0.158	-0.092
-361.654	22.323	0.311	0.257
-360.639	-14.975	-0.250	-0.162
-359.625	121.683	-0.173	0.218
-358.610	54.405	-0.072	-0.070
-357.596	313.411	0.080	0.151
-356.581	-200.000	0.039	-0.309
-355.566	-200.000	-0.047	-0.369
-354.552	800.000	-0.018	0.061
-353.537	-200.000	0.005	0.078
-352.523	101.403	0.187	0.219
-351.508	-200.000	-0.023	-0.243
-350.493	-116.077	0.401	-0.075
-349.479	-200.000	0.014	0.098
-348.464	-200.000	0.058	-0.367
-347.450	57.087	0.135	-0.132
-346.435	-200.000	-0.021	0.137
-345.420	127.592	-0.060	-0.077
-344.406	-200.000	0.013	-0.203
-343.391	-10.161	-0.136	-0.091
-342.377	37.567	-0.091	0.081
-341.362	-118.458	0.258	0.046
-340.348	108.853	0.127	0.153
-339.333	59.089	-0.049	-0.049
-338.318	83.759	0.016	0.018
-337.304	-200.000	-0.033	0.163
-336.289	44.055	0.155	-0.143
-335.275	-1.816	-0.148	0.105
-334.260	32.123	-0.139	-0.121
-333.245	252.989	-0.080	0.138
-332.231	-105.727	0.055	0.013
-331.216	-200.000	-0.044	-0.231
-330.202	-142.545	0.136	-0.013
-329.187	-45.085	-0.406	-0.203
-328.172	-103.950	-0.257	-0.060
-327.158	-200.000	0.020	0.133
-326.143	393.938	0.036	-0.076
-325.129	655.464	-0.088	-0.229
-324.114	-92.129	-0.219	-0.062
-323.099	-200.000	0.016	0.091
-322.085	-158.900	-0.229	0.013
-321.070	329.588	0.108	-0.209
-320.056	-200.000	0.007	-0.469
-319.041	-167.721	0.067	0.003
-318.026	-200.000	0.013	0.301
-317.012	-113.215	-0.133	0.026
-315.997	-133.277	0.411	-0.052
-314.983	87.222	0.125	-0.140
-313.968	168.063	0.019	0.027
-312.953	504.359	-0.106	-0.247
-311.939	215.987	-0.196	-0.314
-310.924	-101.354	-0.182	0.045
-309.910	-93.187	0.092	0.026
-308.895	-200.000	-0.020	0.227
-307.880	217.038	-0.110	-0.176
-306.866	-47.481	0.182	0.089
-305.851	-84.380	0.314	0.100
-304.837	-64.206	0.053	0.022
-303.822	-200.000	0.003	-0.245
-302.807	-91.340	-0.196	0.057
-301.793	140.715	0.232	0.309
-300.778	218.563	0.242	0.389
-299.764	-200.000	-0.006	0.123
-298.749	-180.209	-0.231	0.005
-297.735	-108.466	0.361	-0.078
-296.720	-138.523	-0.054	0.006
-295.705	-200.000	-0.001	0.205
-294.691	-54.955	0.061	0.028
-293.676	-60.073	0.250	0.107
-292.662	147.010	0.127	-0.172
-291.647	-25.742	0.056	-0.033
-290.632	800.000	0.085	0.316
-289.618	316.128	0.007	0.014
-288.603	-105.188	-0.447	-0.103
-287.589	-34.669	-0.360	-0.198
-286.574	323.559	-0.162	0.310
-285.559	5.425	0.351	0.261
-284.545	-114.514	0.159	0.031
-283.530	-119.730	-0.118	-0.020
-282.516	-67.559	0.150	-0.059
-281.501	-67.534	0.198	-0.078
-280.486	-200.000	0.008	0.186
-279.472	-105.033	0.146	0.034
-278.457	194.461	-0.147	0.224
-277.443	-200.000	0.008	0.282
-276.428	-200.000	-0.042	-0.190
-275.413	-51.783	0.310	0.145
-274.399	-149.020	-0.070	0.006
-273.384	183.578	0.072	-0.107
-272.370	-49.276	0.146	-0.070
-271.355	-127.057	-0.038	0.006
-270.340	256.784	-0.286	-0.494
-269.326	164.384	0.338	-0.479
-268.311	-100.752	0.272	0.067
-267.297	4.771	-0.084	-0.062
-266.282	-51.520	-0.171	0.080
-265.267	-200.000	0.039	0.193
-264.253	800.000	0.019	-0.071
-263.238	-200.000	-0.007	-0.151
-262.224	800.000	-0.077	-0.336
-261.209	13.365	0.129	0.100
-260.195	158.585	-0.248	-0.346
-259.180	-55.414	-0.202	0.091
-258.165	25.267	0.139	-0.116
-257.151	-84.786	-0.062	-0.020
-256.136	-130.610	0.147	0.020
-255.122	-28.867	-0.231	0.133
-254.107	800.000	-0.063	0.230
-253.092	-21.466	-0.168	-0.103
-252.078	49.213	-0.473	-0.447
-251.063	-12.824	0.227	-0.149
-250.049	800.000	-0.107	-0.436
-249.034	-88.642	0.194	0.058
-248.019	21.603	0.161	0.132
-247.005	28.813	0.114	0.097
-245.990	-125.360	-0.082	0.013
-244.976	582.035	-0.077	0.189
-243.961	117.356	0.081	0.100
-242.946	164.468	0.093	-0.131
-241.932	-59.975	0.332	0.142
-240.917	-17.021	-0.250	0.159
-239.903	-132.773	0.354	-0.045
-238.888	-200.000	-0.005	0.389
-237.873	113.130	0.079	-0.096
-236.859	800.000	-0.144	-0.464
-235.844	530.348	0.031	-0.073
-234.830	-101.764	0.264	-0.064
-233.815	-87.316	-0.370	0.113
-232.800	800.000	0.016	0.047
-231.786	511.708	-0.053	-0.123
-230.771	-89.244	-0.135	-0.040
-229.757	589.044	0.142	0.352
-228.742	121.181	-0.294	0.367
-227.727	-77.094	0.357	-0.125
-226.713	149.135	-0.060	-0.081
-225.698	800.000	0.040	0.150
-224.684	800.000	0.066	0.218
-223.669	680.416	-0.073	-0.191
-222.655	-122.564	-0.180	-0.029
-221.640	54.649	-0.108	0.105
-220.625	-48.007	0.273	0.133
-219.611	25.274	-0.255	-0.212
-218.596	389.401	0.129	0.267
-217.582	241.077	-0.039	0.066
-216.567	213.881	-0.079	0.125
-215.552	-153.056	0.135	-0.010
-214.538	-82.458	-0.115	-0.037
-213.523	508.929	-0.093	-0.217
-212.509	-113.917	-0.106	0.021
-211.494	800.000	0.010	-0.027
-210.479	-132.593	-0.193	0.025
-209.465	-152.603	-0.315	0.023
-208.450	-16.506	-0.084	0.054
-207.436	196.244	-0.128	-0.195
-206.421	800.000	0.055	-0.154
-205.406	11.904	-0.177	-0.136
-204.392	44.778	0.171	0.158
-203.377	-83.840	-0.149	0.047
-202.363	-200.000	0.012	-0.095
-201.348	-31.924	-0.386	0.217
-200.333	44.961	0.101	-0.093
-199.319	84.157	-0.153	-0.168
-198.304	-65.924	-0.099	-0.040
-197.290	-43.926	-0.259	0.130
-196.275	-30.211	-0.259	-0.147
-195.260	800.000	0.088	0.291
-194.246	-200.000	0.004	0.083
-193.231	170.336	-0.105	0.151
-192.217	-150.452	-0.130	0.010
-191.202	34.654	0.205	0.179
-190.187	-85.848	-0.341	-0.106
-189.173	216.624	0.191	-0.305
-188.158	-28.532	0.234	-0.135
-187.144	800.000	0.021	0.070
-186.129	800.000	-0.111	-0.357
-185.114	-70.290	-0.203	0.077
-184.100	-68.167	-0.176	-0.069
-183.085	69.051	-0.182	0.187
-182.071	-200.000	0.008	0.210
-181.056	-200.000	-0.009	0.194
-180.042	800.000	-0.094	0.286
-179.027	172.484	-0.023	-0.033
-178.012	800.000	-0.099	0.278
-176.998	9.249	-0.129	-0.098
-175.983	800.000	0.028	0.097
-174.969	239.911	0.087	0.144
-173.954	138.323	-0.117	-0.154
-172.939	-50.758	-0.061	-0.029
-171.925	-106.382	-0.372	0.083
-170.910	-29.864	-0.028	0.016
-169.896	116.721	-0.169	0.208
-168.881	-31.801	0.294	0.165
-167.866	800.000	-0.073	0.210
-166.852	273.683	-0.091	-0.162
-165.837	-84.726	0.033	-0.010
-164.823	14.749	0.065	-0.051
-163.808	-90.246	0.153	0.045
-162.793	355.360	0.010	0.019
-161.779	-181.856	0.097	-0.002
-160.764	-200.000	-0.007	-0.087
-159.750	-48.639	0.171	0.082
-158.735	-200.000	-0.034	-0.182
-157.720	-147.608	-0.249	-0.021
-156.706	99.722	-0.054	-0.062
-155.691	-62.239	-0.166	0.069
-154.677	-59.407	-0.268	0.115
-153.662	262.391	-0.188	0.326
-152.647	800.000	0.060	0.220
-151.633	70.109	-0.141	-0.146
-150.618	41.816	-0.110	0.100
-149.604	-95.767	0.024	0.006
-148.589	-22.088	-0.338	0.205
-147.574	97.131	0.219	-0.251
-146.560	-200.000	-0.023	0.322
-145.545	58.703	-0.151	0.149
-144.531	800.000	0.074	0.238
-143.516	-129.147	0.244	0.034
-142.502	-200.000	-0.006	-0.080
-141.487	-200.000	-0.067	-0.301
-140.472	-96.405	-0.121	-0.032
-139.458	-52.319	0.209	0.097
-138.443	75.702	0.073	-0.077
-137.429	-141.008	0.190	-0.020
-136.414	-200.000	-0.007	-0.041
-135.399	-200.000	-0.010	-0.045
-134.385	800.000	-0.008	0.025
-133.370	-122.538	0.268	0.044
-132.356	-200.000	0.009	0.166
-131.341	12.410	0.312	0.241
-130.326	13.126	0.186	-0.144
-129.312	350.872	-0.179	0.354
-128.297	485.972	0.074	-0.170
-127.283	-133.553	-0.062	-0.008
-126.268	-170.932	0.183	0.006
-125.253	-200.000	0.018	0.431
-124.239	-167.086	0.405	0.016
-123.224	-170.966	-0.246	0.008
-122.210	-95.031	0.212	-0.057
-121.195	-75.456	0.048	-0.017
-120.180	106.571	-0.128	0.151
-119.166	800.000	0.008	-0.025
-118.151	61.723	-0.282	0.280
-117.137	204.825	0.168	0.260
-116.122	263.782	0.079	-0.138
-115.107	-200.000	-0.066	-0.315
-114.093	29.881	-0.135	0.115
-113.078	136.430	-0.199	0.259
-112.064	15.172	0.246	0.193
-111.049	-134.604	-0.287	0.035
-110.034	-22.025	0.190	0.115
-109.020	-117.831	0.217	-0.039
-108.005	-97.909	-0.228	0.059
-106.991	-146.494	0.098	0.009
-105.976	115.195	-0.251	-0.306
-104.962	800.000	0.080	0.325
-103.947	7.619	0.122	-0.091
-102.932	-200.000	0.056	-0.318
-101.918	-10.735	-0.059	0.039
-100.903	151.200	0.059	-0.080
-99.889	42.866	-0.399	-0.363
-98.874	13.731	0.170	-0.132
-97.859	58.371	0.368	-0.360
-96.845	-171.258	0.175	0.006
-95.830	-89.324	0.432	0.127
-94.816	729.270	-0.078	0.208
-93.801	-200.000	-0.018	0.250
-92.786	800.000	0.136	-0.426
-91.772	-141.005	0.277	0.028
-90.757	15.774	-0.221	0.173
-89.743	111.777	0.044	0.053
-88.728	-200.000	-0.008	0.340
-87.713	-81.317	-0.186	0.061
-86.699	-20.579	0.223	0.136
-85.684	255.431	-0.150	0.257
-84.670	-26.592	0.163	0.095
-83.655	106.050	-0.221	-0.261
-82.640	123.419	0.076	0.094
-81.626	-37.356	0.247	-0.132
-80.611	800.000	0.088	-0.244
-79.597	34.616	0.116	-0.101
-78.582	37.113	0.285	0.252
-77.567	171.489	0.149	0.214
-76.553	-77.465	-0.128	-0.044
-75.538	16.856	-0.118	0.094
-74.524	39.604	0.010	0.009
-73.509	-17.295	-0.245	0.154
-72.494	-27.105	0.061	0.036
-71.480	800.000	0.099	0.372
-70.465	-13.715	-0.137	0.089
-69.451	106.260	-0.039	0.047
-68.436	-149.543	0.330	-0.026
-67.422	-40.572	0.071	0.037
-66.407	-50.514	-0.106	-0.050
-65.392	80.288	-0.104	-0.112
-64.378	-121.793	-0.200	0.033
-63.363	-200.000	-0.007	0.145
-62.349	-180.526	0.177	-0.004
-61.334	-10.968	-0.947	-0.623
-60.319	232.338	0.208	0.340
-59.305	409.759	-0.329	-0.694
-58.290	265.775	0.536	0.933
-57.276	628.750	0.612	1.543
-56.261	-200.000	77.858	507.513
-55.246	505.924	1331.864	3076.690
-54.232	147.073	2563.838	3437.785
-53.217	106.302	2368.905	2797.800
-52.203	46.656	2107.524	1950.287
-51.188	41.837	2013.623	1819.606
-50.173	40.132	1994.128	1786.543
-49.159	52.456	2033.699	1934.487
-48.144	57.073	2053.930	1995.725
-47.130	42.778	2017.886	1831.749
-46.115	40.055	2006.814	1796.918
-45.100	39.973	2003.872	1793.468
-44.086	39.952	2001.650	1791.219
-43.071	39.992	1999.385	1789.485
-42.057	39.868	1997.517	1786.620
-41.042	39.922	1995.317	1785.065
-40.027	39.976	1993.320	1783.699
-39.013	39.991	1991.266	1781.923
-37.998	40.059	1989.016	1780.449
-36.984	40.008	1987.917	1778.941
-35.969	39.923	1985.801	1776.206
-34.954	40.029	1983.568	1775.094
-33.940	40.084	1982.167	1774.269
-32.925	40.071	1980.518	1772.603
-31.911	40.013	1979.110	1770.748
-30.896	40.060	1977.515	1769.673
-29.881	40.110	1975.773	1768.492
-28.867	40.143	1974.051	1767.172
-27.852	40.201	1971.855	1765.655
-26.838	40.133	1970.246	1763.539
-25.823	40.096	1968.269	1761.374
-24.809	40.115	1966.412	1759.811
-23.794	40.088	1965.118	1758.342
-22.779	40.089	1962.926	1756.316
-21.765	40.103	1961.595	1755.185
-20.750	40.192	1959.577	1754.096
-19.736	40.042	1958.267	1751.521
-18.721	40.031	1957.496	1750.670
-17.706	40.082	1955.514	1749.278
-16.692	40.047	1953.356	1746.969
-15.677	40.023	1951.514	1745.038
-14.663	40.081	1950.178	1744.291
-13.648	40.077	1948.890	1743.029
-12.633	40.164	1947.256	1742.263
-11.619	40.057	1946.400	1740.485
-10.604	40.083	1944.770	1739.190
-9.590	40.039	1943.885	1737.946
-8.575	40.044	1942.242	1736.450
-7.560	39.991	1941.254	1735.033
-6.546	40.066	1939.415	1733.974
-5.531	40.035	1938.081	1732.449
-4.517	40.108	1936.860	1731.920
-3.502	40.101	1935.851	1730.891
-2.487	40.000	1934.800	1729.001
-1.473	40.045	1933.561	1728.220
-0.458	40.169	1929.319	1725.437
0.556	40.486	1909.591	1698.489
1.571	36.362	1889.317	1645.254
2.586	32.043	1911.632	1627.199
3.600	30.805	1949.288	1648.152
4.615	29.828	1944.478	1635.316
5.629	22.357	1836.795	1481.966
6.644	9.399	1706.279	1274.507
7.659	2.896	1662.400	1191.298
8.673	2.346	1658.741	1184.318
9.688	2.311	1657.128	1182.788
10.702	2.289	1655.665	1181.468
11.717	2.095	1652.799	1177.823
12.731	2.507	1652.192	1180.464
13.746	10.019	1670.569	1251.868
14.761	21.431	1695.901	1360.001
15.775	26.542	1705.266	1407.241
16.790	27.097	1705.309	1411.464
17.804	27.251	1704.710	1412.038
18.819	27.282	1703.818	1411.415
19.834	27.428	1702.948	1411.704
20.848	27.625	1702.812	1412.993
21.863	27.656	1701.378	1411.919
22.877	27.582	1700.663	1410.623
23.892	27.639	1699.520	1409.996
24.907	27.582	1699.046	1409.031
25.921	27.532	1698.087	1407.725
26.936	27.550	1696.479	1406.412
27.950	27.629	1695.816	1406.347
28.965	27.577	1695.394	1405.471
29.980	27.627	1694.410	1404.915
30.994	27.598	1693.305	1403.652
32.009	27.654	1691.596	1402.542
33.023	27.584	1691.106	1401.471
34.038	27.669	1689.455	1400.636
35.053	27.565	1689.141	1399.447
36.067	27.636	1687.779	1398.743
37.082	27.594	1686.780	1397.469
38.096	27.636	1686.189	1397.175
39.111	27.657	1685.261	1396.443
40.126	27.621	1684.536	1395.445
41.140	27.539	1684.049	1394.292
42.155	27.564	1682.536	1393.105
43.169	27.624	1681.171	1392.308
44.184	27.648	1680.226	1391.586
45.199	27.515	1680.047	1390.301
46.213	27.624	1678.458	1389.697
47.228	27.622	1676.746	1388.135
48.242	27.660	1675.537	1387.302
49.257	27.569	1674.742	1385.835
50.271	27.613	1673.483	1385.002
51.286	27.568	1672.608	1383.809
52.301	27.660	1670.828	1382.912
53.315	27.633	1669.622	1381.592
54.330	27.684	1668.228	1380.699
55.344	27.624	1667.111	1379.201
56.359	27.665	1665.533	1378.081
57.374	27.644	1664.779	1377.180
58.388	27.571	1664.029	1375.882
59.403	27.582	1662.833	1374.860
60.417	27.589	1661.617	1373.782
61.432	27.626	1660.526	1373.034
62.447	27.600	1659.891	1372.197
63.461	27.502	1658.825	1370.455
64.476	27.566	1657.554	1369.768
65.490	27.575	1656.795	1369.088
66.505	27.664	1655.494	1368.560
67.520	27.656	1654.478	1367.536
68.534	27.700	1653.326	1366.789
69.549	27.626	1652.647	1365.558
70.563	27.745	1650.883	1364.863
71.578	27.724	1650.077	1363.924
72.593	27.694	1649.249	1362.895
73.607	27.712	1648.532	1362.318
74.622	27.721	1647.428	1361.350
75.636	27.637	1646.466	1359.806
76.651	27.755	1645.722	1359.953
77.666	27.644	1644.618	1358.094
78.680	27.708	1644.149	1358.064
79.695	27.604	1643.306	1356.473
80.709	27.662	1642.122	1355.806
81.724	27.641	1641.628	1355.121
82.739	27.623	1641.204	1354.519
83.753	27.672	1639.899	1353.687
84.768	27.658	1639.068	1352.777
85.782	27.716	1637.791	1352.031
86.797	27.650	1637.067	1350.822
87.812	27.624	1636.483	1350.028
88.826	27.627	1635.601	1349.209
89.841	27.679	1634.569	1348.617
90.855	27.654	1633.806	1347.683
91.870	27.704	1632.238	1346.643
92.884	27.618	1631.131	1344.976
93.899	27.690	1630.299	1344.699
94.914	27.667	1629.210	1343.513
95.928	27.670	1627.859	1342.307
96.943	27.754	1626.443	1341.634
97.957	27.646	1625.910	1340.282
98.972	27.687	1624.409	1339.231
99.987	27.683	1623.216	1338.099
101.001	27.739	1621.550	1337.015
102.016	27.686	1619.988	1335.225
103.030	27.585	1618.855	1333.433
104.045	27.645	1617.716	1332.816
105.060	27.696	1616.217	1331.834
106.074	27.655	1615.318	1330.675
107.089	27.704	1614.265	1330.045
108.103	27.754	1613.144	1329.367
109.118	27.714	1612.338	1328.298
110.133	27.727	1610.909	1327.095
111.147	27.716	1609.965	1326.124
112.162	27.753	1608.678	1325.214
113.176	27.769	1607.639	1324.357
114.191	27.685	1606.414	1322.622
115.206	27.720	1605.445	1321.960
116.220	27.721	1604.894	1321.397
117.235	27.735	1603.414	1320.161
118.249	27.794	1602.099	1319.390
119.264	27.730	1601.087	1317.978
120.279	27.725	1599.839	1316.797
121.293	27.751	1598.797	1316.007
122.308	27.769	1598.067	1315.419
123.322	27.768	1596.535	1314.033
124.337	27.836	1595.451	1313.517
125.352	27.822	1593.925	1312.042
126.366	27.822	1593.526	1311.600
127.381	27.843	1592.570	1310.850
128.395	27.834	1591.814	1310.047
129.410	27.879	1590.646	1309.293
130.424	27.746	1589.677	1307.424
131.439	27.838	1588.220	1306.769
132.454	27.758	1587.056	1305.123
133.468	27.834	1585.531	1304.296
134.483	27.863	1584.542	1303.575
135.497	27.899	1583.510	1302.865
136.512	27.886	1582.107	1301.503
137.527	27.837	1580.907	1300.055
138.541	27.889	1579.302	1298.987
139.556	27.869	1578.413	1298.004
140.570	27.760	1577.350	1296.241
141.585	27.768	1576.108	1295.159
142.600	27.791	1575.241	1294.499
143.614	27.994	1573.832	1294.662
144.629	27.848	1572.938	1292.777
145.643	27.736	1571.870	1290.993
146.658	27.861	1570.238	1290.422
147.673	27.748	1569.130	1288.596
148.687	27.764	1568.261	1287.883
149.702	27.827	1567.290	1287.415
150.716	27.822	1565.721	1285.980
151.731	27.751	1564.649	1284.487
152.746	27.814	1564.038	1284.311
153.760	27.757	1562.696	1282.698
154.775	27.750	1561.820	1281.814
155.789	27.860	1560.630	1281.495
156.804	27.835	1559.783	1280.512
157.819	27.894	1558.273	1279.574
158.833	27.836	1557.328	1278.276
159.848	27.834	1556.723	1277.653
160.862	27.831	1555.943	1276.882
161.877	27.898	1554.574	1276.113
162.892	27.770	1554.226	1274.817
163.906	27.811	1553.155	1274.112
164.921	27.907	1551.930	1273.662
165.935	27.929	1550.915	1272.873
166.950	27.869	1550.308	1271.846
167.964	27.862	1549.343	1270.893
168.979	27.993	1548.046	1270.628
169.994	27.958	1547.485	1269.809
171.008	27.928	1546.184	1268.419
172.023	27.989	1545.279	1267.991
173.037	27.997	1543.961	1266.854
174.052	27.922	1543.256	1265.642
175.067	27.976	1541.922	1264.812
176.081	27.954	1541.413	1264.129
177.096	27.977	1540.234	1263.209
178.110	27.951	1539.118	1262.001
179.125	27.904	1538.361	1260.946
180.140	27.978	1537.295	1260.470
181.154	27.950	1536.655	1259.638
182.169	28.073	1535.562	1259.481
183.183	28.035	1534.516	1258.249
184.198	27.918	1534.092	1256.983
185.213	28.003	1533.184	1256.718
186.227	28.021	1532.058	1255.803
187.242	28.028	1531.625	1255.386
188.256	28.085	1530.324	1254.599
189.271	28.072	1529.628	1253.831
190.286	28.132	1528.321	1253.061
191.300	28.082	1527.837	1252.205
192.315	28.117	1526.638	1251.353
193.329	28.097	1525.866	1250.471
194.344	28.076	1524.769	1249.321
195.359	28.162	1524.139	1249.278
196.373	28.160	1523.349	1248.511
197.388	28.035	1522.716	1247.025
198.402	27.966	1521.549	1245.491
199.417	27.899	1520.923	1244.414
200.432	28.114	1519.850	1244.889
201.446	27.996	1519.533	1243.718
202.461	27.982	1518.769	1242.881
203.475	28.065	1517.298	1242.137
204.490	28.074	1516.955	1241.804
205.504	28.020	1516.166	1240.683
206.519	27.989	1515.637	1239.929
207.534	28.032	1514.249	1238.978
208.548	28.082	1513.733	1238.779
209.563	28.031	1512.250	1237.111
210.577	28.063	1511.657	1236.738
211.592	28.045	1511.147	1236.085
212.607	28.016	1510.812	1235.508
213.621	28.109	1509.722	1235.134
214.636	28.214	1509.013	1235.153
215.650	28.257	1507.506	1234.101
216.665	28.209	1506.765	1233.065
217.680	28.169	1506.733	1232.654
218.694	28.184	1505.523	1231.663
219.709	28.290	1504.422	1231.366
220.723	28.242	1503.647	1230.298
221.738	28.172	1503.179	1229.332
222.753	28.168	1502.120	1228.331
223.767	28.049	1501.814	1227.174
224.782	28.068	1500.480	1226.106
225.796	28.213	1499.623	1226.267
226.811	28.237	1498.815	1225.657
227.826	28.323	1497.718	1225.231
228.840	28.215	1497.354	1224.099
229.855	28.313	1496.415	1223.878
230.869	28.217	1495.601	1222.467
231.884	28.216	1494.636	1221.562
232.899	28.222	1493.437	1220.510
233.913	28.275	1492.419	1219.925
234.928	28.303	1491.444	1219.205
235.942	28.303	1490.852	1218.618
236.957	28.320	1489.696	1217.678
237.972	28.270	1488.831	1216.525
238.986	28.350	1487.531	1215.887
240.001	28.337	1486.935	1215.206
241.015	28.300	1485.994	1214.087
242.030	28.408	1484.845	1213.758
243.045	28.443	1484.022	1213.205
244.059	28.458	1483.030	1212.392
245.074	28.510	1482.210	1211.955
246.088	28.448	1481.618	1210.951
247.103	28.432	1481.122	1210.334
248.117	28.427	1480.326	1209.542
249.132	28.494	1479.176	1208.941
250.147	28.409	1478.422	1207.654
251.161	28.557	1477.724	1207.954
252.176	28.554	1477.209	1207.406
253.190	28.536	1476.785	1206.834
254.205	28.481	1475.670	1205.453
255.220	28.495	1475.222	1205.073
256.234	28.480	1473.992	1203.867
257.249	28.653	1473.017	1204.099
258.263	28.445	1472.650	1202.323
259.278	28.665	1471.362	1202.606
260.293	28.588	1470.793	1201.535
261.307	28.533	1470.583	1200.894
262.322	28.540	1469.725	1200.134
263.336	28.560	1468.986	1199.555
264.351	28.625	1467.612	1198.752
265.366	28.590	1467.032	1197.945
266.380	28.559	1466.176	1196.935
267.395	28.629	1465.115	1196.421
268.409	28.563	1464.443	1195.337
269.424	28.607	1463.177	1194.484
270.439	28.519	1462.838	1193.528
271.453	28.642	1461.417	1193.060
272.468	28.743	1460.838	1193.142
273.482	28.621	1460.364	1191.855
274.497	28.564	1459.608	1190.765
275.512	28.644	1458.354	1190.151
276.526	28.701	1457.818	1189.983
277.541	28.700	1456.850	1189.079
278.555	28.649	1456.469	1188.331
279.570	28.754	1455.321	1187.973
280.585	28.794	1454.438	1187.404
281.599	28.762	1453.729	1186.511
282.614	28.692	1453.110	1185.451
283.628	28.691	1451.840	1184.301
284.643	28.742	1450.851	1183.717
285.657	28.781	1449.919	1183.105
286.672	28.738	1449.472	1182.357
287.687	28.652	1448.920	1181.249
288.701	28.719	1447.392	1180.330
289.716	28.698	1447.245	1179.973
290.730	28.661	1446.862	1179.318
291.745	28.755	1445.406	1178.627
292.760	28.753	1445.043	1178.215
293.774	28.773	1443.825	1177.249
294.789	28.905	1442.516	1176.919
295.803	28.981	1441.860	1176.767
296.818	28.814	1441.329	1175.160
297.833	28.875	1440.250	1174.571
298.847	28.780	1439.822	1173.508
299.862	28.886	1438.866	1173.299
300.876	28.832	1438.220	1172.324
301.891	28.836	1437.015	1171.266
302.906	28.909	1436.430	1171.150
303.920	28.856	1436.316	1170.618
304.935	28.953	1435.315	1170.317
305.949	29.020	1434.039	1169.599
306.964	28.903	1433.707	1168.476
307.979	28.911	1432.735	1167.634
308.993	28.945	1431.864	1167.037
310.008	28.896	1431.281	1166.148
311.022	29.085	1429.883	1166.101
312.037	28.994	1429.147	1164.823
313.052	29.057	1428.247	1164.384
314.066	29.030	1427.260	1163.308
315.081	28.985	1426.650	1162.423
316.095	29.058	1425.249	1161.638
317.110	28.971	1425.037	1160.815
318.125	29.052	1423.767	1160.187
319.139	29.028	1423.235	1159.498
320.154	29.008	1422.283	1158.496
321.168	29.105	1421.464	1158.333
322.183	29.149	1420.474	1157.707
323.197	29.028	1419.173	1155.779
324.212	29.150	1418.585	1155.967
325.227	29.143	1418.173	1155.484
326.241	29.116	1417.479	1154.646
327.256	29.278	1415.786	1154.183
328.270	29.270	1415.361	1153.678
329.285	29.114	1415.086	1152.378
330.300	29.109	1414.163	1151.495
331.314	29.217	1413.539	1151.561
332.329	29.242	1412.676	1150.910
333.343	29.157	1411.791	1149.559
334.358	29.212	1411.242	1149.353
335.373	29.352	1410.417	1149.450
336.387	29.346	1409.784	1148.792
337.402	29.425	1408.965	1148.518
338.416	29.270	1408.763	1147.287
339.431	29.364	1407.811	1146.997
340.446	29.362	1407.304	1146.470
341.460	29.297	1406.315	1145.156
342.475	29.331	1405.285	1144.426
343.489	29.461	1404.438	1144.446
344.504	29.419	1403.215	1143.088
345.519	29.384	1403.022	1142.608
346.533	29.420	1401.724	1141.676
347.548	29.386	1400.916	1140.703
348.562	29.548	1400.319	1141.121
349.577	29.450	1399.472	1139.721
350.592	29.504	1398.630	1139.269
351.606	29.425	1397.950	1138.129
352.621	29.349	1396.837	1136.652
353.635	29.474	1395.621	1136.335
354.650	29.430	1395.296	1135.699
355.665	29.491	1394.119	1135.014
356.679	29.491	1393.096	1134.080
357.694	29.545	1392.288	1133.655
358.708	29.498	1390.934	1132.163
359.723	29.450	1390.504	1131.419
360.738	29.464	1389.121	1130.275
361.752	29.479	1388.099	1129.438
362.767	29.532	1387.084	1128.833
363.781	29.550	1386.038	1127.997
364.796	29.508	1385.325	1127.056
365.810	29.588	1384.732	1126.963
366.825	29.595	1384.244	1126.513
367.840	29.636	1383.459	1126.023
368.854	29.561	1382.841	1124.961
369.869	29.699	1382.194	1125.176
370.883	29.675	1381.782	1124.595
371.898	29.711	1380.321	1123.524
372.913	29.664	1379.915	1122.812
373.927	29.706	1379.232	1122.412
374.942	29.811	1378.278	1122.169
375.956	29.727	1378.212	1121.506
376.971	29.717	1377.206	1120.532
377.986	29.704	1376.537	1119.808
379.000	29.781	1375.431	1119.272
380.015	29.765	1374.847	1118.601
381.029	29.772	1374.030	1117.880
382.044	29.731	1373.495	1117.101
383.059	29.789	1372.899	1116.865
384.073	29.722	1372.504	1116.041
385.088	29.778	1371.917	1115.807
386.102	29.734	1371.659	1115.231
387.117	29.838	1370.741	1115.012
388.132	29.832	1369.859	1114.162
389.146	29.813	1369.034	1113.277
390.161	29.923	1368.129	1113.105
391.175	29.949	1367.767	1112.866
392.190	29.860	1367.507	1112.023
393.205	29.917	1366.041	1111.073
394.219	30.045	1365.294	1111.137
395.234	29.969	1364.378	1109.837
396.248	29.981	1363.540	1109.129
397.263	30.011	1362.368	1108.257
398.278	29.933	1361.264	1106.795
399.292	30.001	1360.245	1106.271
400.307	29.952	1359.548	1105.315
401.321	30.013	1358.355	1104.614
402.336	30.027	1357.419	1103.836
403.350	29.989	1356.685	1102.916
404.365	30.091	1355.773	1102.685
405.380	30.117	1355.058	1102.161
406.394	30.044	1354.278	1100.990
407.409	30.051	1353.889	1100.619
408.423	30.060	1353.127	1099.957
409.438	30.123	1352.577	1099.789
410.453	30.118	1351.480	1098.769
411.467	30.157	1350.871	1098.408
412.482	30.135	1350.528	1097.899
413.496	30.133	1349.772	1097.179
414.511	30.156	1348.818	1096.441
415.526	30.197	1348.253	1096.124
416.540	30.152	1347.664	1095.288
417.555	30.192	1347.150	1095.009
418.569	30.287	1346.219	1094.713
419.584	30.269	1345.850	1094.209
420.599	30.240	1345.216	1093.428
421.613	84.249	1335.457	1389.732
422.628	84.567	1334.037	1389.844
