DTS Sentinel unit serial number:	SN413079Multiplexer serial number:	ORYXHardware model number:	OX4-SRSoftware version number:	ORYX F/W v4.00 Oryx Data Collector v3.7.2.0data status	okinstallation	princeton_trtdifferential loss correction	single-endedforward channel	channel 4reverse channel	N/Adate	2019/09/11time	15:15:11forward acquisition time	60.00reverse acquisition time	0.00gamma	496.2192k internal	0.2278k external	0.2278temperature offset calibration	1.0014default loss term (dB/km)	0.3790temperature slope calibration	1.0000multiplexer offset coefficient	1.0000multiplexer slope coefficient	1.0000fibre end	0.00T internal ref (°C)	42.95T ext. ref 1 (°C)	0.98T ext. ref 2 (°C)	36.43length (m)	temperature (°C)	Stokes	anti-Stokes-747.200	54.785	-0.173	0.172
-746.185	5.092	-0.148	0.112
-745.171	800.000	-0.093	-0.292
-744.156	636.999	0.114	0.299
-743.142	-200.000	-0.036	0.203
-742.127	604.281	0.123	0.316
-741.112	-118.370	0.427	0.078
-740.098	-168.380	0.204	-0.008
-739.083	-65.733	-0.288	-0.119
-738.069	-114.707	0.062	0.012
-737.054	-48.415	-0.384	0.190
-736.039	-122.876	-0.496	0.082
-735.025	-22.328	0.086	0.054
-734.010	-118.598	0.400	-0.073
-732.996	58.541	-0.381	0.385
-731.981	7.331	-0.323	-0.248
-730.966	800.000	-0.014	-0.042
-729.952	52.771	-0.128	0.126
-728.937	160.479	0.183	-0.263
-727.923	-6.050	0.083	0.058
-726.908	-3.820	-0.167	0.119
-725.894	5.301	-0.081	-0.061
-724.879	-10.357	-0.224	0.153
-723.864	-128.374	0.129	-0.019
-722.850	-27.170	0.060	0.036
-721.835	-157.731	-0.280	-0.017
-720.821	-29.982	0.306	0.179
-719.806	205.333	0.074	-0.119
-718.791	-200.000	0.020	0.148
-717.777	-200.000	-0.038	-0.216
-716.762	-200.000	-0.031	-0.307
-715.748	67.702	-0.093	-0.098
-714.733	-77.092	-0.413	-0.148
-713.718	292.251	0.038	-0.072
-712.704	-167.922	0.336	0.014
-711.689	-157.222	-0.120	-0.007
-710.675	129.515	0.121	0.158
-709.660	55.967	0.130	-0.130
-708.645	-153.586	0.243	0.017
-707.631	532.923	-0.106	-0.258
-706.616	-123.907	0.167	0.027
-705.602	262.091	-0.111	0.197
-704.587	171.239	-0.143	0.211
-703.572	800.000	0.027	0.093
-702.558	549.863	-0.193	-0.477
-701.543	-29.338	0.082	0.048
-700.529	-40.774	-0.171	-0.091
-699.514	-154.944	0.169	0.011
-698.499	-136.777	-0.425	0.050
-697.485	-68.398	-0.287	-0.115
-696.470	-154.203	0.337	-0.023
-695.456	-89.184	-0.315	-0.096
-694.441	-131.847	0.499	0.067
-693.426	-179.711	0.302	0.007
-692.412	-103.498	-0.259	0.063
-691.397	184.993	0.210	-0.321
-690.383	-200.000	0.036	-0.194
-689.368	298.672	-0.053	0.101
-688.354	-200.000	0.024	0.142
-687.339	-28.904	-0.322	0.190
-686.324	800.000	-0.042	0.148
-685.310	-200.000	-0.057	0.335
-684.295	-56.953	0.211	-0.096
-683.281	-200.000	0.032	-0.316
-682.266	-143.510	-0.301	-0.030
-681.251	-183.971	-0.064	0.001
-680.237	800.000	-0.153	-0.507
-679.222	-200.000	-0.044	0.328
-678.208	-200.000	-0.014	-0.113
-677.193	-103.619	-0.165	-0.040
-676.178	-79.796	-0.160	-0.055
-675.164	-200.000	0.012	-0.250
-674.149	228.300	0.064	0.108
-673.135	47.905	-0.254	0.244
-672.120	-125.530	0.191	-0.030
-671.105	-103.179	-0.283	-0.069
-670.091	-53.782	0.053	0.025
-669.076	0.992	-0.093	0.068
-668.062	800.000	0.062	0.184
-667.047	63.982	0.100	0.103
-666.032	-20.866	-0.219	0.138
-665.018	20.504	0.098	-0.081
-664.003	-77.113	0.302	0.108
-662.989	-200.000	0.017	0.107
-661.974	-130.179	0.251	-0.035
-660.959	-50.366	-0.360	0.175
-659.945	-115.816	0.404	0.078
-658.930	52.049	-0.225	-0.220
-657.916	297.468	-0.070	-0.132
-656.901	39.731	0.232	0.214
-655.886	535.416	-0.102	0.248
-654.872	-122.756	0.274	0.046
-653.857	-117.271	-0.105	0.020
-652.843	67.910	-0.201	0.211
-651.828	211.532	0.172	-0.278
-650.814	-58.863	-0.278	-0.123
-649.799	93.531	0.240	-0.279
-648.784	800.000	0.064	0.233
-647.770	403.316	-0.109	0.235
-646.755	-112.431	-0.098	0.020
-645.741	223.123	-0.133	-0.220
-644.726	46.041	-0.255	-0.242
-643.711	707.974	0.116	0.315
-642.697	-173.175	0.446	-0.014
-641.682	-200.000	0.032	0.315
-640.668	-75.648	0.402	-0.146
-639.653	-49.060	0.263	0.129
-638.638	271.954	0.027	0.049
-637.624	219.113	0.303	-0.497
-636.609	-29.628	-0.039	0.023
-635.595	800.000	-0.017	0.072
-634.580	800.000	-0.050	0.151
-633.565	-200.000	0.017	0.335
-632.551	-200.000	0.025	-0.118
-631.536	348.526	-0.038	0.077
-630.522	800.000	-0.106	-0.330
-629.507	800.000	-0.057	0.202
-628.492	-141.408	-0.189	0.020
-627.478	-34.670	0.307	0.172
-626.463	-95.591	-0.163	-0.045
-625.449	-168.495	-0.065	-0.003
-624.434	17.373	-0.197	-0.160
-623.419	-200.000	-0.007	-0.032
-622.405	800.000	-0.031	-0.091
-621.390	800.000	-0.073	0.322
-620.376	-14.062	-0.170	-0.112
-619.361	800.000	0.016	0.064
-618.346	4.752	-0.206	0.155
-617.332	110.540	0.071	-0.088
-616.317	13.456	-0.176	-0.140
-615.303	8.191	0.161	0.124
-614.288	-200.000	0.063	0.396
-613.273	446.917	-0.205	0.463
-612.259	-200.000	-0.013	-0.072
-611.244	-200.000	0.063	-0.297
-610.230	322.786	-0.096	-0.188
-609.215	143.345	0.222	-0.303
-608.201	-66.301	-0.055	-0.023
-607.186	-80.144	-0.196	-0.067
-606.171	-200.000	0.003	-0.168
-605.157	64.422	-0.090	-0.093
-604.142	16.609	0.094	-0.076
-603.128	-16.008	0.101	0.066
-602.113	-74.230	0.197	0.073
-601.098	-180.590	-0.398	0.008
-600.084	-149.482	-0.308	-0.025
-599.069	-200.000	-0.018	-0.395
-598.055	-200.000	0.075	0.337
-597.040	131.598	-0.106	0.139
-596.025	-82.794	-0.230	0.076
-595.011	800.000	-0.016	0.061
-593.996	1.986	-0.162	-0.120
-592.982	-76.569	-0.084	0.030
-591.967	667.271	-0.056	-0.149
-590.952	351.744	0.074	0.150
-589.938	-87.810	-0.293	-0.090
-588.923	-121.173	-0.065	0.011
-587.909	339.392	-0.148	-0.295
-586.894	-64.963	0.165	-0.068
-585.879	800.000	-0.080	0.274
-584.865	28.028	-0.218	0.188
-583.850	173.552	-0.123	-0.181
-582.836	-45.480	-0.056	0.029
-581.821	-137.304	-0.114	0.013
-580.806	11.068	-0.121	0.095
-579.792	-200.000	0.002	-0.180
-578.777	-93.167	0.192	0.055
-577.763	-67.456	-0.254	-0.102
-576.748	786.733	-0.012	0.033
-575.733	202.328	0.110	-0.173
-574.719	262.593	-0.119	0.211
-573.704	-20.118	-0.168	0.106
-572.690	-200.000	-0.016	-0.203
-571.675	444.558	0.059	-0.132
-570.661	-69.133	-0.330	0.130
-569.646	121.904	0.285	-0.363
-568.631	-57.135	0.239	0.108
-567.617	-200.000	-0.010	0.152
-566.602	-200.000	-0.018	-0.123
-565.588	44.112	-0.109	-0.102
-564.573	-84.114	-0.231	-0.075
-563.558	89.825	0.205	0.235
-562.544	-200.000	0.006	0.120
-561.529	-6.247	-0.285	-0.199
-560.515	88.585	0.117	-0.132
-559.500	-200.000	0.008	-0.086
-558.485	-88.567	0.285	-0.087
-557.471	-159.234	-0.092	-0.005
-556.456	348.017	0.066	0.133
-555.442	311.822	-0.076	0.146
-554.427	310.167	-0.076	-0.145
-553.412	-200.000	0.001	-0.438
-552.398	161.426	-0.227	-0.324
-551.383	236.663	-0.069	0.117
-550.369	140.712	0.244	-0.329
-549.354	-145.131	-0.106	-0.010
-548.339	-200.000	0.010	0.074
-547.325	325.605	-0.142	0.278
-546.310	-57.252	0.185	0.083
-545.296	-110.893	-0.042	-0.009
-544.281	-98.491	-0.053	-0.014
-543.266	-86.700	0.200	0.062
-542.252	90.472	-0.106	0.121
-541.237	503.687	0.109	-0.258
-540.223	-138.134	0.177	0.020
-539.208	-138.708	0.228	-0.025
-538.193	44.270	-0.148	-0.139
-537.179	519.523	0.046	0.110
-536.164	231.414	0.156	0.261
-535.150	107.941	-0.193	-0.235
-534.135	315.569	-0.040	-0.076
-533.121	-131.457	0.258	0.035
-532.106	-67.446	0.197	-0.079
-531.091	-109.830	0.217	-0.046
-530.077	-200.000	-0.011	0.163
-529.062	-106.999	0.162	-0.037
-528.048	800.000	-0.007	0.027
-527.033	227.865	0.108	0.180
-526.018	20.539	-0.318	0.263
-525.004	129.995	0.240	-0.314
-523.989	-114.906	-0.563	0.109
-522.975	-28.477	-0.120	-0.071
-521.960	297.896	-0.113	0.211
-520.945	21.924	0.192	-0.160
-519.931	-134.041	0.208	-0.026
-518.916	-197.794	-0.369	0.002
-517.902	-200.000	0.033	-0.164
-516.887	48.711	0.066	-0.063
-515.872	-103.960	0.212	0.051
-514.858	-200.000	-0.020	-0.286
-513.843	462.690	-0.037	0.083
-512.829	-200.000	-0.036	0.163
-511.814	-200.000	-0.012	-0.313
-510.799	17.159	-0.078	-0.063
-509.785	-116.048	-0.305	0.058
-508.770	800.000	0.093	0.308
-507.756	-39.868	-0.168	-0.090
-506.741	-200.000	0.056	0.339
-505.726	800.000	-0.111	0.372
-504.712	-135.959	-0.051	-0.006
-503.697	465.390	-0.068	0.156
-502.683	-143.507	-0.419	0.041
-501.668	298.712	-0.070	0.131
-500.653	435.534	-0.086	0.190
-499.639	-8.621	-0.180	0.123
-498.624	85.716	-0.128	0.144
-497.610	-11.909	-0.190	-0.127
-496.595	16.823	-0.134	0.108
-495.581	568.666	-0.158	-0.392
-494.566	649.993	-0.063	-0.165
-493.551	290.711	0.089	0.165
-492.537	-4.043	0.215	0.152
-491.522	-2.038	0.113	0.081
-490.508	7.971	0.060	0.046
-489.493	96.651	-0.243	0.283
-488.478	800.000	-0.084	-0.258
-487.464	-147.545	-0.363	0.031
-486.449	38.516	-0.221	0.201
-485.435	-200.000	0.024	0.133
-484.420	-65.486	0.134	0.055
-483.405	-82.817	0.076	-0.025
-482.391	-127.725	0.263	-0.039
-481.376	800.000	0.092	0.286
-480.362	99.902	-0.021	-0.024
-479.347	-34.613	0.143	0.080
-478.332	144.636	-0.229	0.311
-477.318	-33.852	-0.098	-0.055
-476.303	25.783	-0.185	-0.157
-475.289	-58.613	-0.045	-0.020
-474.274	-61.771	-0.123	-0.052
-473.259	-200.000	0.021	-0.201
-472.245	-16.883	-0.235	0.152
-471.230	-96.787	-0.160	0.043
-470.216	800.000	0.059	0.178
-469.201	-15.150	-0.154	0.100
-468.186	197.585	-0.133	-0.207
-467.172	-77.084	-0.108	0.038
-466.157	-136.659	-0.420	-0.049
-465.143	-200.000	0.005	-0.064
-464.128	-43.763	-0.175	-0.090
-463.113	178.090	0.187	-0.279
-462.099	101.725	0.149	-0.177
-461.084	-65.372	-0.168	-0.069
-460.070	-200.000	0.006	-0.092
-459.055	-136.751	-0.300	0.035
-458.040	126.668	-0.145	-0.187
-457.026	-200.000	-0.020	-0.410
-456.011	96.567	0.128	0.149
-454.997	-200.000	0.023	-0.173
-453.982	94.065	-0.221	0.255
-452.968	384.889	0.122	-0.256
-451.953	-200.000	-0.039	-0.304
-450.938	325.981	0.111	-0.217
-449.924	800.000	-0.067	-0.190
-448.909	800.000	-0.037	-0.140
-447.895	-18.340	0.162	0.103
-446.880	10.578	0.257	0.200
-445.865	-200.000	0.021	0.328
-444.851	-200.000	-0.009	-0.201
-443.836	85.770	-0.109	0.123
-442.822	18.472	0.183	0.149
-441.807	800.000	0.066	-0.205
-440.792	3.184	-0.237	-0.175
-439.778	257.017	0.029	-0.050
-438.763	201.852	-0.147	0.231
-437.749	-140.349	-0.391	-0.042
-436.734	-200.000	-0.009	-0.166
-435.719	800.000	0.095	0.286
-434.705	800.000	-0.110	-0.332
-433.690	800.000	-0.080	-0.292
-432.676	109.927	0.265	-0.324
-431.661	-71.705	0.195	-0.074
-430.646	-200.000	0.062	-0.593
-429.632	473.526	-0.057	0.131
-428.617	618.787	0.047	0.121
-427.603	722.822	-0.082	-0.223
-426.588	800.000	0.024	0.091
-425.573	65.909	0.137	-0.141
-424.559	-56.199	0.280	-0.126
-423.544	-200.000	-0.013	0.063
-422.530	-84.644	-0.332	-0.106
-421.515	23.958	-0.242	-0.203
-420.500	-32.197	0.107	0.061
-419.486	71.793	0.150	-0.159
-418.471	-95.196	-0.229	0.063
-417.457	-200.000	0.015	-0.094
-416.442	-21.134	-0.062	0.038
-415.428	-21.426	0.090	-0.056
-414.413	800.000	0.035	0.110
-413.398	484.849	-0.035	0.081
-412.384	-77.772	0.052	0.018
-411.369	58.759	0.231	-0.231
-410.355	351.154	0.120	-0.241
-409.340	143.940	0.095	-0.129
-408.325	-200.000	0.048	-0.282
-407.311	-26.396	-0.099	-0.059
-406.296	-21.371	-0.180	-0.112
-405.282	-95.089	-0.199	0.055
-404.267	93.139	-0.032	0.036
-403.252	27.862	0.176	-0.151
-402.238	-71.535	-0.142	-0.054
-401.223	-200.000	-0.027	0.142
-400.209	-182.356	-0.081	-0.002
-399.194	521.511	0.105	-0.251
-398.179	80.927	0.227	0.249
-397.165	-164.617	0.308	-0.014
-396.150	201.226	-0.156	-0.245
-395.136	113.990	0.153	-0.190
-394.121	800.000	0.084	0.295
-393.106	233.212	0.054	0.091
-392.092	-107.012	-0.293	-0.066
-391.077	91.256	0.103	-0.118
-390.063	-120.181	0.214	0.037
-389.048	-200.000	-0.015	-0.113
-388.033	236.749	0.126	-0.212
-387.019	800.000	0.077	0.245
-386.004	280.573	-0.091	-0.165
-384.990	6.266	-0.266	-0.201
-383.975	-140.284	-0.327	0.035
-382.960	-23.501	-0.161	-0.098
-381.946	-55.881	-0.516	0.234
-380.931	49.626	0.146	0.140
-379.917	-168.674	0.336	-0.013
-378.902	-103.463	-0.269	-0.064
-377.888	3.732	0.117	0.087
-376.873	775.106	0.126	0.349
-375.858	-138.203	0.119	0.013
-374.844	419.528	0.014	0.030
-373.829	518.790	-0.200	0.474
-372.815	54.804	-0.201	0.197
-371.800	-36.474	-0.167	0.091
-370.785	-104.453	-0.192	-0.045
-369.771	-200.000	-0.025	-0.328
-368.756	-170.883	0.156	-0.005
-367.742	-31.233	-0.189	-0.108
-366.727	-25.103	0.214	-0.129
-365.712	-200.000	-0.021	-0.247
-364.698	-200.000	0.002	-0.040
-363.683	-36.284	0.131	-0.072
-362.669	432.683	-0.105	-0.232
-361.654	174.326	-0.021	0.031
-360.639	66.144	0.173	0.179
-359.625	-42.645	-0.256	0.132
-358.610	-97.979	0.090	0.023
-357.596	194.412	-0.048	0.074
-356.581	147.001	-0.094	0.128
-355.566	800.000	-0.018	0.057
-354.552	79.410	-0.326	0.355
-353.537	176.842	0.120	-0.178
-352.523	-115.698	-0.277	-0.053
-351.508	455.742	-0.187	-0.421
-350.493	60.167	0.156	0.157
-349.479	-122.974	-0.142	-0.023
-348.464	-18.167	0.097	0.062
-347.450	140.530	-0.192	-0.258
-346.435	156.842	0.137	-0.191
-345.420	-87.531	-0.065	0.020
-344.406	76.607	0.100	0.108
-343.391	-10.539	0.263	-0.177
-342.377	800.000	0.051	0.147
-341.362	-27.119	-0.239	-0.141
-340.348	800.000	0.066	-0.190
-339.333	-57.781	0.254	0.112
-338.318	800.000	0.091	-0.389
-337.304	-94.958	0.296	0.081
-336.289	209.664	-0.152	0.242
-335.275	241.692	0.146	0.247
-334.260	-200.000	0.007	0.257
-333.245	33.745	0.065	-0.057
-332.231	-72.685	0.181	-0.067
-331.216	-132.105	-0.366	-0.048
-330.202	-200.000	-0.017	-0.086
-329.187	37.688	0.330	-0.297
-328.172	-25.970	-0.129	-0.077
-327.158	-162.080	0.193	-0.010
-326.143	-26.270	0.170	-0.101
-325.129	-19.695	0.177	0.111
-324.114	-165.862	0.151	0.007
-323.099	-200.000	-0.038	-0.276
-322.085	121.370	-0.056	0.071
-321.070	-89.584	-0.070	-0.021
-320.056	-200.000	0.032	-0.482
-319.041	90.558	0.170	-0.193
-318.026	1.306	0.190	-0.138
-317.012	275.553	0.022	0.040
-315.997	800.000	0.008	0.022
-314.983	69.004	-0.222	0.231
-313.968	62.775	-0.069	0.070
-312.953	52.307	-0.092	0.089
-311.939	461.195	0.045	-0.102
-310.924	-200.000	0.001	0.203
-309.910	800.000	-0.023	-0.096
-308.895	800.000	-0.128	0.543
-307.880	422.991	0.063	-0.137
-306.866	-160.833	0.337	0.018
-305.851	533.264	-0.026	0.062
-304.837	119.180	0.040	-0.050
-303.822	-27.813	0.087	0.051
-302.807	36.685	0.128	-0.115
-301.793	60.770	0.077	0.077
-300.778	-200.000	0.008	0.216
-299.764	800.000	0.081	0.281
-298.749	-200.000	0.003	-0.279
-297.735	70.588	0.225	-0.235
-296.720	-37.660	-0.150	0.081
-295.705	-89.451	0.424	-0.126
-294.691	-87.680	0.016	0.005
-293.676	-78.232	0.512	-0.178
-292.662	69.871	0.074	0.077
-291.647	-200.000	-0.034	0.491
-290.632	114.957	-0.217	0.267
-289.618	-200.000	-0.055	0.281
-288.603	-200.000	0.080	0.508
-287.589	-124.025	-0.090	-0.014
-286.574	-100.772	0.452	-0.113
-285.559	683.832	0.065	0.171
-284.545	-199.513	0.104	0.001
-283.530	-200.000	-0.002	0.123
-282.516	-145.285	-0.167	-0.015
-281.501	800.000	0.044	-0.130
-280.486	-200.000	0.011	0.293
-279.472	-116.975	0.052	-0.010
-278.457	277.575	0.035	-0.063
-277.443	-136.318	0.412	0.049
-276.428	-24.177	0.194	-0.117
-275.413	533.502	0.047	0.113
-274.399	78.561	0.064	0.069
-273.384	-24.481	-0.106	0.064
-272.370	284.633	-0.157	-0.286
-271.355	64.546	0.257	-0.262
-270.340	-135.903	0.325	0.039
-269.326	-80.484	-0.207	0.070
-268.311	-200.000	-0.047	-0.237
-267.297	398.994	0.130	0.274
-266.282	-200.000	-0.012	0.180
-265.267	183.758	0.157	0.235
-264.253	157.460	0.194	0.271
-263.238	518.736	-0.008	0.020
-262.224	671.105	0.139	-0.364
-261.209	138.140	-0.061	0.080
-260.195	64.763	0.108	-0.111
-259.180	800.000	-0.051	-0.205
-258.165	134.274	0.044	-0.058
-257.151	1.416	-0.191	0.139
-256.136	-39.891	-0.163	0.086
-255.122	-55.926	-0.127	0.057
-254.107	215.451	0.115	-0.185
-253.092	-200.000	-0.004	-0.230
-252.078	54.665	0.021	-0.021
-251.063	-200.000	-0.068	0.334
-250.049	800.000	-0.037	-0.163
-249.034	171.213	0.001	-0.001
-248.019	800.000	-0.091	0.298
-247.005	-200.000	0.037	0.353
-245.990	-129.526	0.201	0.028
-244.976	19.276	0.132	0.107
-243.961	240.229	0.135	0.228
-242.946	18.220	-0.104	0.084
-241.932	-33.839	0.367	0.204
-240.917	3.792	0.156	0.115
-239.903	800.000	-0.062	-0.185
-238.888	-108.395	-0.192	-0.042
-237.873	113.424	-0.088	0.108
-236.859	-88.125	0.067	0.020
-235.844	-167.952	0.132	-0.005
-234.830	488.206	-0.013	0.030
-233.815	611.147	0.008	-0.020
-232.800	295.687	-0.156	0.288
-231.786	286.777	0.106	0.193
-230.771	-45.520	-0.251	-0.125
-229.757	-14.497	-0.153	0.100
-228.742	400.336	0.120	0.253
-227.727	80.101	0.162	-0.176
-226.713	67.525	-0.073	0.075
-225.698	58.765	-0.162	0.161
-224.684	8.123	0.256	0.194
-223.669	306.188	0.088	-0.165
-222.655	195.895	0.045	0.068
-221.640	-200.000	0.006	0.187
-220.625	-45.810	0.262	0.131
-219.611	-51.376	0.128	0.060
-218.596	-104.210	-0.076	-0.018
-217.582	-108.135	0.252	0.055
-216.567	39.420	0.135	0.122
-215.552	-125.469	0.311	0.048
-214.538	84.759	-0.187	-0.206
-213.523	800.000	-0.067	0.208
-212.509	800.000	-0.012	-0.040
-211.494	96.150	-0.253	0.292
-210.479	256.364	0.108	-0.187
-209.465	-200.000	0.038	0.399
-208.450	-91.321	0.123	-0.035
-207.436	-200.000	-0.045	-0.305
-206.421	-200.000	-0.011	-0.062
-205.406	-35.188	0.272	0.150
-204.392	542.939	-0.165	0.396
-203.377	138.821	-0.147	-0.194
-202.363	53.835	0.358	-0.346
-201.348	-76.420	0.214	-0.076
-200.333	-142.236	-0.342	-0.034
-199.319	-65.811	0.299	0.121
-198.304	68.324	-0.069	-0.071
-197.290	-89.942	0.440	0.130
-196.275	27.345	0.204	-0.173
-195.260	-92.612	0.041	-0.012
-194.246	-200.000	-0.013	-0.234
-193.231	121.249	-0.215	-0.270
-192.217	800.000	0.074	-0.266
-191.202	240.744	-0.265	-0.445
-190.187	114.856	-0.050	0.061
-189.173	143.457	0.029	-0.039
-188.158	-59.699	0.045	0.020
-187.144	118.291	0.317	0.394
-186.129	147.617	0.268	0.363
-185.114	-72.473	0.159	-0.059
-184.100	58.261	-0.143	0.142
-183.085	610.216	0.019	0.047
-182.071	247.596	-0.039	0.067
-181.056	23.290	-0.159	0.132
-180.042	0.569	-0.188	0.136
-179.027	180.914	-0.074	-0.109
-178.012	-101.100	-0.326	-0.080
-176.998	-200.000	0.024	-0.125
-175.983	79.066	0.181	-0.195
-174.969	-46.578	-0.282	0.139
-173.954	-64.064	0.146	0.060
-172.939	763.532	-0.109	0.297
-171.925	59.713	0.307	0.306
-170.910	-200.000	0.017	0.083
-169.896	57.584	0.272	0.267
-168.881	40.627	-0.121	-0.110
-167.866	-93.193	-0.292	0.082
-166.852	624.982	-0.070	-0.178
-165.837	6.991	-0.024	-0.018
-164.823	-200.000	-0.003	0.097
-163.808	-200.000	0.027	-0.128
-162.793	800.000	-0.048	0.145
-161.779	-36.960	0.253	0.136
-160.764	800.000	-0.145	-0.583
-159.750	-86.609	-0.079	-0.024
-158.735	227.117	-0.174	-0.285
-157.720	-22.676	0.185	-0.113
-156.706	-112.575	0.180	-0.036
-155.691	-3.116	0.012	-0.008
-154.677	800.000	0.068	-0.250
-153.662	-37.908	0.168	0.090
-152.647	340.565	-0.088	0.173
-151.633	-200.000	-0.066	0.498
-150.618	-200.000	-0.004	0.304
-149.604	18.637	-0.150	0.121
-148.589	430.437	-0.060	0.130
-147.574	29.064	0.049	-0.041
-146.560	-104.345	-0.074	-0.017
-145.545	-200.000	-0.049	0.447
-144.531	232.336	0.275	0.455
-143.516	-200.000	0.078	0.350
-142.502	347.667	-0.067	0.132
-141.487	-67.402	0.213	-0.084
-140.472	-7.546	-0.151	-0.103
-139.458	-55.939	0.213	0.096
-138.443	800.000	0.058	0.211
-137.429	-200.000	0.032	0.262
-136.414	-143.893	-0.403	-0.038
-135.399	-45.331	-0.160	-0.080
-134.385	178.738	-0.013	0.020
-133.370	-200.000	0.041	0.246
-132.356	800.000	-0.036	-0.115
-131.341	800.000	0.058	0.225
-130.326	-86.845	0.237	0.073
-129.312	9.991	0.246	0.188
-128.297	7.793	0.376	-0.283
-127.283	-99.125	0.183	-0.046
-126.268	309.351	0.202	0.380
-125.253	-200.000	-0.023	0.118
-124.239	-141.703	0.085	0.009
-123.224	135.323	-0.082	-0.107
-122.210	-200.000	0.036	-0.200
-121.195	12.675	-0.437	-0.339
-120.180	-100.658	0.178	-0.044
-119.166	82.232	0.148	0.161
-118.151	-113.806	-0.458	0.090
-117.137	-8.979	-0.333	-0.224
-116.122	800.000	0.066	-0.268
-115.107	36.682	-0.301	-0.267
-114.093	-200.000	0.038	-0.212
-113.078	-200.000	-0.013	0.212
-112.064	-200.000	-0.058	0.367
-111.049	17.222	0.212	-0.169
-110.034	104.644	-0.030	0.035
-109.020	338.001	0.071	0.138
-108.005	800.000	-0.079	-0.266
-106.991	49.210	0.032	0.031
-105.976	-200.000	-0.009	0.108
-104.962	-6.783	0.208	0.142
-103.947	226.316	0.039	0.063
-102.932	-192.471	-0.230	-0.002
-101.918	-42.292	0.125	-0.064
-100.903	217.466	0.107	-0.171
-99.889	12.143	-0.045	0.035
-98.874	-200.000	0.010	0.189
-97.859	-144.000	-0.026	-0.002
-96.845	-3.705	0.105	-0.073
-95.830	524.062	-0.036	-0.086
-94.816	372.257	0.103	0.210
-93.801	14.236	-0.149	0.117
-92.786	309.761	0.084	0.159
-91.772	-200.000	-0.015	0.173
-90.757	-166.294	-0.299	0.013
-89.743	-200.000	0.059	-0.288
-88.728	800.000	0.047	-0.180
-87.713	771.542	-0.023	-0.064
-86.699	-53.175	-0.300	0.138
-85.684	-20.965	-0.158	0.097
-84.670	-78.927	-0.127	-0.043
-83.655	-169.112	-0.213	0.008
-82.640	800.000	0.044	0.152
-81.626	-28.664	-0.095	0.055
-80.611	-200.000	-0.007	-0.053
-79.597	-200.000	-0.005	-0.177
-78.582	-111.493	0.181	0.037
-77.567	478.437	0.067	-0.153
-76.553	-106.709	-0.283	0.063
-75.538	180.636	0.082	-0.121
-74.524	138.801	0.082	-0.108
-73.509	-200.000	-0.012	-0.256
-72.494	122.553	0.156	0.196
-71.480	140.724	-0.089	0.118
-70.465	800.000	0.120	-0.395
-69.451	-183.244	-0.098	0.002
-68.436	104.559	0.224	0.264
-67.422	-20.723	0.134	-0.082
-66.407	-100.659	0.218	0.054
-65.392	-177.409	0.160	0.004
-64.378	211.819	-0.056	0.088
-63.363	-41.136	-0.104	-0.054
-62.349	800.000	-0.105	0.337
-61.334	2.103	-0.861	-0.623
-60.319	29.506	0.142	0.121
-59.305	-56.009	-0.294	-0.131
-58.290	77.305	0.528	0.563
-57.276	423.286	0.753	1.622
-56.261	-200.000	74.342	535.567
-55.246	566.911	1300.578	3164.273
-54.232	143.369	2531.561	3377.913
-53.217	111.877	2374.053	2873.521
-52.203	50.410	2111.378	2000.519
-51.188	45.165	2018.856	1865.045
-50.173	43.294	1999.468	1830.117
-49.159	55.417	2035.972	1974.449
-48.144	60.976	2056.195	2044.724
-47.130	45.880	2021.262	1873.508
-46.115	43.076	2010.455	1837.890
-45.100	42.874	2007.993	1833.732
-44.086	42.908	2005.506	1831.693
-43.071	42.855	2002.921	1828.783
-42.057	42.816	2000.646	1826.278
-41.042	42.872	1999.433	1825.610
-40.027	42.923	1997.071	1823.840
-39.013	42.950	1994.565	1821.722
-37.998	42.849	1993.496	1819.761
-36.984	42.930	1991.575	1818.662
-35.969	42.907	1989.507	1816.499
-34.954	42.947	1987.688	1815.127
-33.940	42.910	1987.060	1814.143
-32.925	43.023	1984.665	1812.900
-31.911	42.995	1982.767	1810.846
-30.896	42.946	1981.419	1809.105
-29.881	43.036	1979.159	1807.779
-28.867	43.029	1978.392	1806.940
-27.852	42.984	1975.969	1804.253
-26.838	42.984	1974.208	1802.571
-25.823	42.960	1972.832	1801.031
-24.809	42.978	1970.804	1799.273
-23.794	43.042	1969.080	1798.194
-22.779	42.919	1967.531	1795.610
-21.765	42.991	1965.985	1794.770
-20.750	42.883	1964.732	1792.599
-19.736	42.961	1962.948	1791.589
-18.721	42.975	1961.195	1790.040
-17.706	42.974	1959.587	1788.492
-16.692	42.979	1957.889	1786.924
-15.677	42.996	1956.040	1785.308
-14.663	42.942	1954.653	1783.493
-13.648	42.940	1953.326	1782.200
-12.633	42.958	1952.036	1781.108
-11.619	43.007	1950.499	1780.066
-10.604	42.970	1949.292	1778.573
-9.590	42.961	1947.974	1777.218
-8.575	42.878	1946.836	1775.373
-7.560	42.901	1945.430	1774.227
-6.546	42.991	1943.836	1773.498
-5.531	42.965	1942.413	1771.896
-4.517	42.916	1941.704	1770.751
-3.502	42.955	1940.415	1769.846
-2.487	42.900	1938.842	1767.856
-1.473	42.988	1937.830	1767.640
-0.458	43.093	1933.967	1764.967
0.556	42.125	1914.788	1739.180
1.571	38.057	1894.115	1685.222
2.586	33.704	1915.185	1665.711
3.600	32.370	1952.436	1686.012
4.615	31.541	1950.257	1676.561
5.629	24.030	1843.597	1520.817
6.644	9.738	1709.061	1295.668
7.659	1.910	1661.428	1198.115
8.673	1.054	1657.787	1188.670
9.688	1.050	1655.805	1187.116
10.702	0.981	1654.076	1185.232
11.717	0.815	1652.012	1182.350
12.731	1.432	1651.341	1186.584
13.746	10.099	1673.705	1270.918
14.761	21.917	1699.710	1384.353
15.775	25.342	1704.252	1414.973
16.790	24.819	1702.352	1409.151
17.804	24.755	1701.230	1407.595
18.819	24.814	1700.412	1407.258
19.834	24.942	1699.533	1407.409
20.848	25.104	1699.415	1408.466
21.863	25.102	1698.208	1407.324
22.877	25.122	1697.191	1406.510
23.892	25.113	1696.038	1405.364
24.907	25.096	1695.101	1404.332
25.921	25.123	1694.132	1403.616
26.936	25.055	1693.218	1402.202
27.950	25.184	1691.954	1402.041
28.965	25.060	1692.055	1401.023
29.980	25.092	1691.118	1400.378
30.994	25.161	1689.619	1399.550
32.009	25.110	1688.323	1397.952
33.023	25.069	1687.744	1397.033
34.038	25.125	1686.254	1396.113
35.053	25.149	1684.995	1395.136
36.067	25.124	1684.143	1394.107
37.082	25.146	1683.352	1393.502
38.096	25.223	1682.520	1393.285
39.111	25.213	1681.525	1392.263
40.126	25.124	1680.947	1390.970
41.140	25.176	1679.857	1390.352
42.155	25.131	1679.140	1389.287
43.169	25.096	1678.084	1388.018
44.184	25.093	1677.519	1387.405
45.199	25.125	1676.376	1386.585
46.213	25.164	1674.736	1385.402
47.228	25.107	1673.708	1383.992
48.242	25.079	1672.861	1382.953
49.257	25.186	1671.255	1382.329
50.271	25.111	1670.209	1380.762
51.286	25.149	1669.000	1379.936
52.301	25.142	1667.750	1378.723
53.315	25.238	1666.178	1378.040
54.330	25.125	1665.151	1376.203
55.344	25.116	1663.856	1374.943
56.359	25.154	1662.298	1373.824
57.374	25.109	1661.547	1372.738
58.388	25.173	1660.446	1372.189
59.403	25.166	1658.925	1370.762
60.417	25.167	1658.031	1369.905
61.432	25.138	1657.366	1369.015
62.447	25.144	1656.209	1367.984
63.461	25.202	1655.231	1367.497
64.476	25.116	1654.714	1366.299
65.490	25.178	1653.149	1365.356
66.505	25.139	1652.116	1364.088
67.520	25.108	1651.470	1363.195
68.534	25.164	1650.178	1362.430
69.549	25.150	1649.417	1361.581
70.563	25.211	1648.072	1360.806
71.578	25.175	1646.840	1359.396
72.593	25.203	1645.963	1358.766
73.607	25.066	1645.971	1357.615
74.622	25.215	1644.274	1357.219
75.636	25.188	1643.481	1356.245
76.651	25.202	1642.334	1355.287
77.666	25.239	1641.393	1354.668
78.680	25.162	1640.920	1353.578
79.695	25.238	1639.669	1352.995
80.709	25.222	1638.921	1352.137
81.724	25.155	1638.570	1351.222
82.739	25.200	1637.221	1350.328
83.753	25.195	1635.931	1349.112
84.768	25.272	1635.347	1349.084
85.782	25.171	1634.422	1347.450
86.797	25.186	1633.782	1346.912
87.812	25.148	1632.738	1345.646
88.826	25.214	1631.626	1345.108
89.841	25.196	1630.416	1343.860
90.855	25.149	1629.967	1343.016
91.870	25.182	1628.719	1342.112
92.884	25.200	1627.342	1340.992
93.899	25.214	1626.840	1340.570
94.914	25.235	1625.415	1339.435
95.928	25.204	1624.457	1338.293
96.943	25.207	1623.062	1337.047
97.957	25.207	1621.889	1335.966
98.972	25.255	1620.423	1334.994
99.987	25.244	1619.061	1333.673
101.001	25.258	1617.535	1332.404
102.016	25.309	1615.822	1331.252
103.030	25.203	1614.557	1329.303
104.045	25.239	1613.862	1328.878
105.060	25.200	1612.508	1327.363
106.074	25.150	1611.534	1326.071
107.089	25.256	1610.353	1325.765
108.103	25.160	1609.631	1324.349
109.118	25.283	1608.293	1324.031
110.133	25.295	1606.574	1322.587
111.147	25.153	1605.802	1320.794
112.162	25.290	1603.834	1320.066
113.176	25.286	1603.354	1319.522
114.191	25.271	1602.283	1318.413
115.206	25.312	1601.371	1317.852
116.220	25.352	1600.101	1316.982
117.235	25.275	1598.607	1315.067
118.249	25.235	1597.787	1313.985
119.264	25.331	1596.732	1313.701
120.279	25.302	1595.832	1312.632
121.293	25.236	1594.546	1310.981
122.308	25.352	1593.161	1310.572
123.322	25.340	1592.284	1309.643
124.337	25.372	1590.821	1308.562
125.352	25.321	1589.948	1307.359
126.366	25.392	1588.674	1306.711
127.381	25.341	1587.962	1305.634
128.395	25.340	1587.033	1304.752
129.410	25.362	1586.189	1304.104
130.424	25.304	1585.090	1302.659
131.439	25.338	1583.683	1301.638
132.454	25.408	1582.317	1300.906
133.468	25.366	1581.092	1299.476
134.483	25.301	1580.141	1298.114
135.497	25.341	1578.882	1297.251
136.512	25.390	1577.778	1296.580
137.527	25.345	1576.730	1295.282
138.541	25.369	1575.761	1294.545
139.556	25.420	1574.193	1293.508
140.570	25.345	1573.322	1292.140
141.585	25.335	1572.540	1291.313
142.600	25.355	1570.738	1289.858
143.614	25.450	1569.635	1289.524
144.629	25.355	1568.605	1287.883
145.643	25.409	1567.532	1287.277
146.658	25.315	1566.052	1285.270
147.673	25.289	1565.122	1284.205
148.687	25.327	1563.609	1283.123
149.702	25.378	1562.645	1282.582
150.716	25.312	1561.191	1280.808
151.731	25.380	1560.145	1280.323
152.746	25.317	1559.328	1279.085
153.760	25.350	1558.089	1278.193
154.775	25.403	1557.253	1277.773
155.789	25.372	1556.398	1276.734
156.804	25.452	1554.880	1275.946
157.819	25.362	1553.870	1274.364
158.833	25.331	1553.309	1273.572
159.848	25.407	1551.980	1272.909
160.862	25.439	1550.817	1272.068
161.877	25.474	1549.593	1271.203
162.892	25.422	1549.102	1270.316
163.906	25.400	1548.100	1269.229
164.921	25.435	1547.246	1268.664
165.935	25.443	1546.109	1267.672
166.950	25.411	1545.405	1266.757
167.964	25.439	1544.374	1265.998
168.979	25.385	1543.331	1264.656
169.994	25.435	1542.539	1264.243
171.008	25.502	1541.530	1263.773
172.023	25.460	1540.480	1262.506
173.037	25.532	1539.035	1261.717
174.052	25.445	1538.370	1260.448
175.067	25.522	1537.566	1260.221
176.081	25.445	1536.863	1258.990
177.096	25.497	1535.586	1258.202
178.110	25.440	1534.511	1256.809
179.125	25.452	1533.425	1255.888
180.140	25.520	1532.404	1255.420
181.154	25.565	1531.837	1255.159
182.169	25.452	1530.751	1253.370
183.183	25.526	1529.730	1252.936
184.198	25.439	1529.200	1251.786
185.213	25.551	1528.258	1251.684
186.227	25.581	1526.755	1250.552
187.242	25.590	1526.399	1250.211
188.256	25.582	1525.602	1249.389
189.271	25.556	1524.985	1248.596
190.286	25.543	1523.617	1247.278
191.300	25.589	1522.908	1246.902
192.315	25.606	1521.687	1245.915
193.329	25.586	1521.418	1245.441
194.344	25.446	1520.358	1243.496
195.359	25.484	1520.001	1243.356
196.373	25.603	1519.132	1243.359
197.388	25.598	1517.796	1242.123
198.402	25.528	1516.583	1240.537
199.417	25.408	1516.173	1239.264
200.432	25.521	1514.911	1238.896
201.446	25.563	1514.509	1238.748
202.461	25.548	1513.791	1237.953
203.475	25.494	1512.460	1236.378
204.490	25.609	1511.533	1236.303
205.504	25.504	1511.300	1235.282
206.519	25.561	1510.044	1234.536
207.534	25.564	1509.160	1233.725
208.548	25.567	1508.518	1233.113
209.563	25.717	1507.270	1233.011
210.577	25.600	1506.908	1231.805
211.592	25.560	1505.780	1230.502
212.607	25.558	1505.532	1230.172
213.621	25.657	1504.661	1230.032
214.636	25.738	1503.737	1229.720
215.650	25.712	1502.999	1228.828
216.665	25.742	1501.265	1227.509
217.680	25.705	1501.064	1226.985
218.694	25.579	1500.626	1225.658
219.709	25.601	1500.154	1225.315
220.723	25.753	1498.412	1224.817
221.738	25.652	1497.942	1223.638
222.753	25.799	1496.863	1223.649
223.767	25.576	1496.204	1221.487
224.782	25.645	1495.173	1221.002
225.796	25.716	1494.328	1220.687
226.811	25.721	1493.796	1220.181
227.826	25.765	1492.954	1219.680
228.840	25.711	1492.475	1218.818
229.855	25.772	1491.621	1218.426
230.869	25.702	1490.999	1217.331
231.884	25.752	1489.545	1216.380
232.899	25.772	1488.528	1215.572
233.913	25.772	1487.417	1214.556
234.928	25.778	1486.441	1213.693
235.942	25.816	1485.068	1212.724
236.957	25.793	1484.584	1212.066
237.972	25.771	1483.588	1210.998
238.986	25.920	1482.010	1210.599
240.001	25.754	1481.722	1209.144
241.015	25.793	1480.716	1208.476
242.030	25.916	1479.817	1208.463
243.045	25.833	1479.191	1207.290
244.059	25.965	1477.973	1207.069
245.074	25.928	1477.377	1206.231
246.088	25.850	1476.859	1205.180
247.103	26.053	1475.158	1205.039
248.117	25.945	1474.965	1204.052
249.132	26.051	1474.043	1203.900
250.147	26.050	1473.386	1203.251
251.161	25.907	1472.836	1201.745
252.176	26.060	1471.932	1201.918
253.190	25.971	1471.241	1200.658
254.205	25.969	1470.841	1200.213
255.220	26.015	1469.848	1199.599
256.234	26.125	1468.459	1199.092
257.249	26.087	1468.195	1198.519
258.263	26.010	1467.550	1197.370
259.278	26.069	1466.114	1196.485
260.293	26.103	1465.826	1196.371
261.307	26.120	1464.617	1195.390
262.322	26.093	1464.506	1195.014
263.336	26.104	1463.450	1194.118
264.351	26.142	1462.442	1193.441
265.366	26.056	1461.838	1192.280
266.380	26.113	1460.745	1191.659
267.395	26.096	1459.807	1190.674
268.409	26.160	1459.243	1190.527
269.424	26.177	1458.215	1189.699
270.439	26.107	1457.206	1188.312
271.453	26.119	1456.547	1187.743
272.468	26.199	1455.557	1187.359
273.482	26.217	1454.783	1186.740
274.497	26.088	1454.532	1185.584
275.512	26.199	1453.584	1185.433
276.526	26.202	1452.580	1184.532
277.541	26.236	1451.912	1184.107
278.555	26.191	1451.009	1182.966
279.570	26.230	1450.294	1182.539
280.585	26.191	1449.349	1181.403
281.599	26.192	1448.667	1180.752
282.614	26.215	1447.571	1179.906
283.628	26.222	1446.409	1178.900
284.643	26.258	1445.794	1178.530
285.657	26.258	1445.025	1177.796
286.672	26.296	1443.950	1177.064
287.687	26.283	1443.002	1176.103
288.701	26.238	1442.626	1175.396
289.716	26.298	1441.757	1174.975
290.730	26.315	1441.453	1174.732
291.745	26.335	1439.737	1173.365
292.760	26.232	1439.483	1172.381
293.774	26.359	1438.425	1172.239
294.789	26.401	1437.454	1171.620
295.803	26.354	1436.446	1170.391
296.818	26.335	1436.006	1169.803
297.833	26.401	1435.108	1169.396
298.847	26.267	1434.149	1167.643
299.862	26.475	1433.581	1168.422
300.876	26.362	1432.866	1167.010
301.891	26.323	1431.975	1165.928
302.906	26.266	1431.186	1164.813
303.920	26.424	1430.599	1165.249
304.935	26.488	1429.989	1165.064
305.949	26.403	1429.494	1164.011
306.964	26.437	1428.532	1163.341
307.979	26.541	1427.278	1162.886
308.993	26.475	1426.398	1161.644
310.008	26.515	1425.895	1161.389
311.022	26.502	1424.564	1160.116
312.037	26.509	1423.529	1159.217
313.052	26.478	1423.057	1158.533
314.066	26.463	1422.544	1157.912
315.081	26.495	1420.994	1156.757
316.095	26.540	1420.307	1156.379
317.110	26.587	1419.213	1155.685
318.125	26.524	1418.429	1154.545
319.139	26.516	1417.754	1153.842
320.154	26.591	1416.738	1153.394
321.168	26.641	1415.396	1152.517
322.183	26.645	1414.885	1152.020
323.197	26.567	1414.219	1150.883
324.212	26.612	1413.570	1150.537
325.227	26.598	1412.785	1149.711
326.241	26.635	1411.838	1149.071
327.256	26.672	1410.988	1148.512
328.270	26.721	1410.183	1148.067
329.285	26.698	1409.404	1147.186
330.300	26.669	1408.398	1146.081
331.314	26.757	1407.787	1146.038
332.329	26.666	1406.901	1144.638
333.343	26.742	1406.609	1144.782
334.358	26.740	1405.794	1144.007
335.373	26.774	1405.336	1143.743
336.387	26.829	1403.966	1142.878
337.402	26.795	1403.612	1142.269
338.416	26.785	1403.351	1141.895
339.431	26.843	1402.651	1141.589
340.446	26.825	1401.937	1140.794
341.460	26.880	1400.980	1140.262
342.475	26.861	1399.859	1139.129
343.489	26.874	1399.182	1138.555
344.504	26.882	1398.174	1137.684
345.519	26.776	1397.710	1136.543
346.533	26.822	1396.846	1136.028
347.548	26.940	1395.538	1135.604
348.562	26.985	1394.554	1134.983
349.577	26.925	1394.100	1134.138
350.592	26.953	1393.486	1133.712
351.606	26.936	1392.529	1132.729
352.621	26.826	1391.295	1130.936
353.635	26.932	1390.369	1130.746
354.650	26.947	1389.948	1130.399
355.665	26.939	1389.205	1129.641
356.679	26.931	1387.795	1128.349
357.694	26.996	1387.031	1128.027
358.708	27.073	1385.543	1127.200
359.723	27.082	1384.610	1126.395
360.738	27.085	1383.473	1125.389
361.752	27.038	1382.361	1124.092
362.767	27.037	1381.293	1123.117
363.781	27.024	1380.645	1122.412
364.796	27.143	1379.829	1122.388
365.810	27.090	1379.224	1121.469
366.825	27.087	1378.536	1120.787
367.840	27.140	1377.755	1120.379
368.854	27.078	1377.297	1119.530
369.869	27.288	1376.514	1120.086
370.883	27.222	1375.802	1119.005
371.898	27.122	1375.316	1117.891
372.913	27.207	1374.566	1117.705
373.927	27.264	1373.600	1117.172
374.942	27.107	1373.211	1115.794
375.956	27.274	1372.225	1115.921
376.971	27.221	1371.418	1114.839
377.986	27.201	1370.414	1113.799
379.000	27.269	1369.490	1113.365
380.015	27.301	1368.969	1113.040
381.029	27.355	1368.394	1112.802
382.044	27.223	1367.793	1111.410
383.059	27.236	1367.247	1110.949
384.073	27.337	1366.467	1110.833
385.088	27.430	1365.842	1110.795
386.102	27.417	1365.158	1110.060
387.117	27.416	1364.453	1109.385
388.132	27.252	1364.137	1108.031
389.146	27.317	1363.266	1107.618
390.161	27.361	1362.674	1107.308
391.175	27.459	1361.891	1107.171
392.190	27.305	1361.172	1105.548
393.205	27.415	1360.661	1105.706
394.219	27.532	1359.583	1105.439
395.234	27.525	1358.467	1104.394
396.248	27.423	1358.037	1103.327
397.263	27.376	1356.956	1102.069
398.278	27.456	1355.064	1100.918
399.292	27.505	1354.317	1100.509
400.307	27.576	1353.434	1100.121
401.321	27.586	1352.682	1099.477
402.336	27.627	1351.550	1098.702
403.350	27.577	1350.941	1097.809
404.365	27.519	1349.722	1096.374
405.380	27.510	1349.136	1095.747
406.394	27.637	1348.333	1095.761
407.409	27.616	1347.407	1094.784
408.423	27.631	1347.082	1094.514
409.438	27.691	1346.335	1094.174
410.453	27.669	1345.401	1093.183
411.467	27.750	1344.705	1093.009
412.482	27.756	1343.936	1092.320
413.496	27.746	1343.755	1092.019
414.511	27.743	1343.069	1091.345
415.526	27.756	1342.095	1090.533
416.540	27.724	1341.559	1089.812
417.555	27.781	1340.558	1089.243
418.569	27.610	1340.281	1087.899
419.584	27.851	1339.828	1088.874
420.599	27.768	1339.163	1087.744
421.613	73.576	1316.799	1329.809
422.628	74.228	1313.511	1329.938
