DTS Sentinel unit serial number:	SN413079Multiplexer serial number:	ORYXHardware model number:	OX4-SRSoftware version number:	ORYX F/W v4.00 Oryx Data Collector v3.7.2.0data status	okinstallation	princeton_trtdifferential loss correction	single-endedforward channel	channel 4reverse channel	N/Adate	2019/09/14time	08:57:35forward acquisition time	60.00reverse acquisition time	0.00gamma	496.2192k internal	0.2310k external	0.2310temperature offset calibration	1.0128default loss term (dB/km)	0.3790temperature slope calibration	1.0000multiplexer offset coefficient	1.0000multiplexer slope coefficient	1.0000fibre end	0.00T internal ref (°C)	29.77T ext. ref 1 (°C)	3.72T ext. ref 2 (°C)	27.92length (m)	temperature (°C)	Stokes	anti-Stokes-747.200	-0.059	-0.217	0.157
-746.185	524.151	0.115	0.274
-745.171	41.528	0.171	0.157
-744.156	-119.160	-0.375	-0.066
-743.142	-63.033	-0.176	-0.074
-742.127	-161.896	-0.125	-0.006
-741.112	-5.246	-0.137	-0.096
-740.098	-112.739	-0.302	-0.061
-739.083	-177.564	-0.338	0.008
-738.069	-88.335	0.342	0.104
-737.054	800.000	0.005	-0.017
-736.039	-26.997	0.102	0.061
-735.025	146.417	0.155	0.211
-734.010	26.117	0.284	-0.240
-732.996	475.358	-0.121	-0.278
-731.981	-26.290	-0.412	0.246
-730.966	21.095	-0.116	0.095
-729.952	79.514	-0.274	-0.298
-728.937	-8.082	-0.168	0.115
-727.923	108.874	-0.109	-0.133
-726.908	-160.579	-0.073	-0.004
-725.894	-200.000	-0.002	-0.039
-724.879	-25.009	-0.051	0.030
-723.864	-118.454	0.321	0.058
-722.850	800.000	0.022	0.084
-721.835	800.000	0.007	0.031
-720.821	-200.000	0.038	-0.176
-719.806	57.983	-0.086	-0.085
-718.791	-127.064	-0.095	0.014
-717.777	-200.000	0.045	-0.290
-716.762	-186.527	-0.138	0.002
-715.748	545.500	0.181	-0.438
-714.733	249.320	-0.102	-0.176
-713.718	-134.006	0.100	-0.013
-712.704	-60.584	-0.384	0.165
-711.689	326.421	-0.147	-0.285
-710.675	-29.429	0.136	-0.079
-709.660	-200.000	0.018	-0.164
-708.645	56.155	-0.210	-0.207
-707.631	-54.499	0.250	0.115
-706.616	-200.000	-0.024	0.218
-705.602	-46.778	-0.107	-0.053
-704.587	-200.000	0.037	-0.194
-703.572	-78.987	0.198	-0.068
-702.558	169.476	0.232	-0.336
-701.543	-179.228	-0.114	-0.003
-700.529	567.832	0.067	0.164
-699.514	-90.450	-0.290	0.085
-698.499	63.334	-0.209	0.213
-697.485	43.495	-0.169	-0.157
-696.470	438.911	-0.188	0.415
-695.456	87.550	-0.156	0.175
-694.441	-136.656	0.191	-0.022
-693.426	-46.302	-0.291	0.145
-692.412	13.978	0.140	-0.110
-691.397	628.663	-0.070	-0.179
-690.383	129.974	0.122	0.159
-689.368	-200.000	0.001	0.199
-688.354	86.413	0.233	0.261
-687.339	-200.000	-0.040	-0.213
-686.324	-63.487	0.321	0.134
-685.310	92.733	-0.120	0.137
-684.295	36.559	-0.040	-0.036
-683.281	22.903	0.136	0.113
-682.266	48.477	-0.145	0.137
-681.251	-105.506	0.147	0.034
-680.237	-112.329	-0.202	-0.041
-679.222	-200.000	-0.022	0.250
-678.208	-34.914	-0.137	0.076
-677.193	-172.238	0.108	0.004
-676.178	96.504	0.086	-0.099
-675.164	-0.046	-0.180	-0.130
-674.149	-53.988	0.239	-0.110
-673.135	-26.493	-0.063	-0.037
-672.120	491.151	-0.134	-0.311
-671.105	-125.965	-0.408	0.062
-670.091	-98.164	-0.320	-0.083
-669.076	-200.000	-0.040	0.202
-668.062	23.020	-0.080	0.067
-667.047	-81.264	0.523	0.175
-666.032	-49.810	-0.253	-0.122
-665.018	-200.000	-0.032	0.209
-664.003	227.032	0.065	0.106
-662.989	-43.159	0.160	0.082
-661.974	92.014	0.052	-0.059
-660.959	32.860	-0.165	-0.145
-659.945	151.232	-0.210	0.289
-658.930	592.111	-0.080	0.199
-657.916	-51.443	-0.039	-0.018
-656.901	267.232	0.050	-0.089
-655.886	-135.951	0.171	-0.020
-654.872	-200.000	0.051	-0.323
-653.857	-115.330	-0.348	-0.066
-652.843	208.892	-0.051	-0.081
-651.828	187.390	-0.064	-0.096
-650.814	76.393	-0.155	-0.166
-649.799	-84.201	0.189	0.061
-648.784	39.721	-0.040	-0.036
-647.770	800.000	-0.071	-0.226
-646.755	176.181	0.087	-0.128
-645.741	-154.682	-0.184	0.012
-644.726	344.267	-0.150	-0.298
-643.711	-200.000	-0.043	-0.267
-642.697	4.740	0.052	0.039
-641.682	23.149	-0.037	-0.030
-640.668	-200.000	0.012	0.108
-639.653	-200.000	-0.080	-0.392
-638.638	46.890	-0.113	0.106
-637.624	-200.000	0.026	-0.160
-636.609	525.794	-0.071	0.169
-635.595	77.718	0.233	-0.251
-634.580	-127.080	0.171	-0.025
-633.565	-53.803	-0.148	-0.068
-632.551	148.666	0.179	0.245
-631.536	-200.000	0.000	0.246
-630.522	-80.958	0.301	0.101
-629.507	800.000	-0.079	0.321
-628.492	492.874	0.161	-0.372
-627.478	89.959	-0.243	-0.275
-626.463	-200.000	0.013	-0.312
-625.449	193.751	-0.039	-0.060
-624.434	-93.172	-0.165	-0.046
-623.419	-120.218	-0.212	-0.037
-622.405	-14.704	0.173	-0.113
-621.390	71.098	-0.088	0.092
-620.376	241.057	0.114	-0.192
-619.361	800.000	0.012	0.036
-618.346	-61.266	0.251	-0.107
-617.332	-200.000	0.003	0.254
-616.317	-75.251	0.293	-0.106
-615.303	-145.488	-0.136	-0.012
-614.288	800.000	0.073	0.213
-613.273	-143.783	-0.289	0.028
-612.259	46.639	0.146	-0.137
-611.244	-22.351	0.317	0.194
-610.230	-200.000	-0.000	-0.053
-609.215	256.520	0.258	-0.447
-608.201	-148.224	-0.095	-0.008
-607.186	-139.823	-0.091	0.010
-606.171	-200.000	-0.022	-0.166
-605.157	-111.610	0.253	-0.052
-604.142	-200.000	0.001	-0.394
-603.128	800.000	-0.020	0.071
-602.113	133.582	-0.131	-0.171
-601.098	314.366	0.042	-0.079
-600.084	-25.471	-0.071	-0.042
-599.069	43.898	0.121	0.112
-598.055	81.616	0.118	-0.129
-597.040	8.577	0.177	0.134
-596.025	50.004	-0.133	0.127
-595.011	-200.000	0.050	-0.404
-593.996	-200.000	-0.016	-0.181
-592.982	16.063	-0.216	-0.172
-591.967	144.159	0.077	0.104
-590.952	-16.884	0.363	-0.232
-589.938	-68.568	-0.232	-0.091
-588.923	447.283	-0.086	0.190
-587.909	328.270	0.085	0.165
-586.894	52.697	-0.103	-0.100
-585.879	-108.757	-0.211	-0.046
-584.865	-97.302	-0.580	0.153
-583.850	-70.471	0.445	-0.170
-582.836	122.064	0.133	0.167
-581.821	72.678	-0.278	-0.293
-580.806	-200.000	-0.011	-0.331
-579.792	416.274	-0.111	0.239
-578.777	344.742	0.148	0.293
-577.763	9.381	0.294	0.224
-576.748	800.000	-0.082	-0.270
-575.733	14.202	0.064	-0.050
-574.719	-168.472	-0.355	-0.014
-573.704	-99.455	0.254	0.065
-572.690	-200.000	-0.030	0.182
-571.675	-163.814	-0.440	-0.021
-570.661	71.770	0.208	0.218
-569.646	-200.000	0.035	-0.211
-568.631	-30.871	-0.176	-0.100
-567.617	67.230	0.261	0.268
-566.602	364.051	-0.068	-0.138
-565.588	-200.000	0.027	0.272
-564.573	-200.000	0.048	-0.444
-563.558	-4.512	-0.168	-0.117
-562.544	-108.857	-0.238	-0.051
-561.529	-149.347	-0.108	-0.009
-560.515	187.566	0.085	-0.129
-559.500	-112.256	-0.162	0.033
-558.485	147.676	0.117	-0.158
-557.471	84.597	0.153	-0.169
-556.456	85.548	-0.118	-0.130
-555.442	428.303	-0.037	0.080
-554.427	234.975	-0.088	-0.146
-553.412	-144.770	0.437	0.040
-552.398	500.727	-0.070	-0.164
-551.383	-200.000	-0.033	-0.156
-550.369	-0.927	0.049	0.035
-549.354	361.559	-0.064	-0.130
-548.339	-13.665	-0.176	-0.115
-547.325	-153.299	-0.179	0.013
-546.310	-200.000	0.038	0.463
-545.296	711.457	-0.135	-0.360
-544.281	-86.632	0.241	0.074
-543.266	800.000	-0.087	0.243
-542.252	-12.574	0.255	0.168
-541.237	-200.000	0.045	0.212
-540.223	29.035	0.375	0.320
-539.208	-80.995	-0.102	0.034
-538.193	96.163	-0.074	-0.085
-537.179	800.000	-0.086	-0.331
-536.164	327.593	0.141	0.273
-535.150	-70.074	0.154	-0.059
-534.135	-89.956	-0.362	0.106
-533.121	54.692	0.069	-0.067
-532.106	-200.000	0.084	-0.418
-531.091	-104.454	-0.266	-0.062
-530.077	-55.157	0.136	-0.062
-529.062	16.854	-0.152	0.121
-528.048	-200.000	0.029	0.470
-527.033	121.129	0.243	-0.304
-526.018	-130.187	-0.279	-0.038
-525.004	297.143	0.167	-0.308
-523.989	10.862	-0.102	0.079
-522.975	70.375	-0.064	0.066
-521.960	-55.644	-0.243	-0.109
-520.945	-200.000	-0.005	0.178
-519.931	-51.592	-0.072	-0.034
-518.916	309.897	0.161	-0.303
-517.902	-118.804	0.177	-0.031
-516.887	149.078	-0.107	-0.146
-515.872	480.154	0.099	-0.226
-514.858	-200.000	0.022	0.177
-513.843	-62.239	-0.067	0.028
-512.829	-200.000	0.044	-0.362
-511.814	-9.587	0.016	-0.011
-510.799	-62.344	0.247	0.103
-509.785	19.543	-0.191	0.155
-508.770	-101.657	-0.188	-0.046
-507.756	16.956	0.234	0.186
-506.741	402.738	-0.117	0.247
-505.726	81.863	0.419	-0.457
-504.712	-72.236	0.036	0.014
-503.697	321.917	0.067	0.129
-502.683	206.287	0.086	0.135
-501.668	-170.836	0.110	-0.004
-500.653	39.732	0.350	-0.315
-499.639	-200.000	0.025	-0.118
-498.624	-175.447	-0.196	-0.005
-497.610	-115.609	0.110	0.021
-496.595	476.303	-0.069	0.157
-495.581	26.257	-0.273	0.230
-494.566	198.859	-0.059	0.090
-493.551	-200.000	0.014	0.332
-492.537	800.000	0.085	0.299
-491.522	-200.000	-0.040	0.243
-490.508	69.807	-0.321	-0.332
-489.493	-33.308	-0.299	-0.166
-488.478	-78.439	0.206	-0.071
-487.464	476.514	-0.110	-0.250
-486.449	71.046	-0.050	-0.052
-485.435	22.613	0.129	0.106
-484.420	-166.950	-0.013	0.001
-483.405	20.913	0.219	0.179
-482.391	-102.112	0.275	-0.067
-481.376	-180.431	0.238	-0.005
-480.362	167.647	-0.140	-0.200
-479.347	-200.000	0.054	-0.244
-478.332	190.288	-0.096	-0.145
-477.318	356.653	-0.168	-0.337
-476.303	98.092	-0.112	0.129
-475.289	-200.000	0.000	-0.203
-474.274	-200.000	0.083	0.000
-473.259	-33.195	-0.155	0.086
-472.245	307.348	-0.155	-0.290
-471.230	-200.000	0.027	-0.176
-470.216	800.000	0.076	-0.269
-469.201	38.555	-0.206	-0.185
-468.186	-33.252	0.157	-0.087
-467.172	-200.000	-0.034	-0.155
-466.157	-17.248	-0.140	0.089
-465.143	800.000	-0.141	0.392
-464.128	97.766	0.173	-0.200
-463.113	44.864	0.161	0.149
-462.099	104.042	0.142	0.167
-461.084	-37.659	-0.202	0.108
-460.070	182.475	-0.086	0.128
-459.055	273.868	0.050	0.089
-458.040	742.222	-0.108	-0.290
-457.026	31.623	0.195	-0.168
-456.011	242.853	0.008	-0.013
-454.997	800.000	0.052	-0.206
-453.982	-173.404	0.154	0.005
-452.968	800.000	0.132	0.381
-451.953	-200.000	0.004	0.213
-450.938	-161.328	0.190	-0.010
-449.924	134.772	-0.090	0.117
-448.909	-3.104	-0.340	0.238
-447.895	217.780	0.068	0.109
-446.880	-6.391	0.267	-0.183
-445.865	-200.000	-0.004	0.122
-444.851	-200.000	-0.012	-0.211
-443.836	58.893	0.248	-0.244
-442.822	765.655	0.074	-0.202
-441.807	157.566	0.043	-0.059
-440.792	-110.561	0.147	0.030
-439.778	616.865	-0.082	-0.207
-438.763	202.889	0.055	0.085
-437.749	-118.217	0.196	-0.035
-436.734	305.418	-0.066	-0.123
-435.719	515.423	-0.150	0.352
-434.705	-94.627	0.030	-0.008
-433.690	-103.016	0.162	0.039
-432.676	24.019	-0.118	-0.097
-431.661	800.000	0.046	0.139
-430.646	-101.593	-0.176	-0.043
-429.632	-107.273	0.331	-0.073
-428.617	800.000	-0.067	0.233
-427.603	237.569	0.138	0.230
-426.588	-200.000	-0.004	-0.103
-425.573	-106.926	0.309	0.069
-424.559	-30.126	0.080	0.046
-423.544	800.000	0.051	-0.166
-422.530	-200.000	0.015	-0.156
-421.515	-71.462	0.390	-0.146
-420.500	-200.000	0.012	-0.240
-419.486	-67.975	0.225	-0.088
-418.471	75.812	0.151	0.160
-417.457	66.336	-0.234	-0.238
-416.442	-200.000	0.013	-0.118
-415.428	152.406	-0.041	-0.056
-414.413	-58.472	-0.147	0.064
-413.398	-200.000	0.019	-0.094
-412.384	202.776	0.139	-0.215
-411.369	-116.100	0.120	-0.022
-410.355	-20.104	0.186	-0.115
-409.340	800.000	0.058	0.175
-408.325	13.464	0.274	-0.213
-407.311	41.997	-0.122	0.111
-406.296	99.914	0.324	0.376
-405.282	-200.000	-0.040	0.363
-404.267	24.728	0.177	0.147
-403.252	-187.615	-0.194	-0.003
-402.238	446.227	0.121	-0.267
-401.223	800.000	0.003	0.013
-400.209	-6.686	0.264	0.180
-399.194	-59.841	-0.392	-0.168
-398.179	97.286	-0.212	-0.244
-397.165	-128.068	-0.253	0.036
-396.150	190.083	0.025	-0.037
-395.136	-40.905	0.084	0.044
-394.121	-52.416	-0.228	0.106
-393.106	-144.140	0.102	-0.010
-392.092	-139.230	0.251	0.027
-391.077	800.000	-0.012	0.037
-390.063	-11.027	0.048	-0.032
-389.048	511.304	-0.019	0.045
-388.033	307.666	-0.138	0.257
-387.019	-110.143	-0.190	-0.040
-386.004	12.230	-0.212	-0.164
-384.990	256.182	0.193	-0.331
-383.975	-200.000	-0.017	0.249
-382.960	-41.910	-0.116	-0.059
-381.946	-48.998	-0.105	-0.050
-380.931	9.940	-0.084	0.064
-379.917	-146.255	-0.289	0.025
-378.902	65.603	-0.196	-0.199
-377.888	251.971	0.155	-0.264
-376.873	111.679	0.164	0.198
-375.858	800.000	-0.047	0.132
-374.844	91.561	0.119	-0.134
-373.829	-92.121	0.450	0.127
-372.815	130.149	-0.117	0.150
-371.800	13.204	0.164	0.127
-370.785	600.956	0.134	0.333
-369.771	173.497	-0.067	0.097
-368.756	-200.000	-0.020	0.326
-367.742	81.995	-0.374	0.405
-366.727	-105.852	0.190	0.043
-365.712	21.473	-0.237	-0.193
-364.698	-26.345	-0.196	-0.115
-363.683	167.995	-0.071	0.101
-362.669	-57.486	-0.356	0.156
-361.654	166.452	-0.134	0.190
-360.639	60.828	0.057	0.057
-359.625	92.332	-0.130	0.147
-358.610	256.992	0.092	0.158
-357.596	-158.488	-0.186	-0.011
-356.581	546.087	0.050	0.120
-355.566	781.435	0.028	-0.078
-354.552	-200.000	0.014	0.170
-353.537	-24.408	0.027	0.016
-352.523	-140.190	0.183	0.019
-351.508	85.076	0.193	-0.212
-350.493	-42.605	-0.199	-0.101
-349.479	-97.146	0.448	-0.117
-348.464	-62.995	-0.161	-0.066
-347.450	-59.182	0.303	-0.131
-346.435	-116.430	0.191	0.035
-345.420	293.286	0.126	0.230
-344.406	-200.000	-0.043	0.332
-343.391	-62.412	-0.253	0.105
-342.377	-143.976	0.189	0.018
-341.362	-43.966	0.217	0.109
-340.348	-177.688	-0.377	0.009
-339.333	670.652	-0.033	0.085
-338.318	284.168	0.110	-0.198
-337.304	-58.781	0.280	-0.121
-336.289	183.312	0.012	0.018
-335.275	-91.405	0.372	0.106
-334.260	-200.000	0.009	0.169
-333.245	-43.115	0.308	-0.156
-332.231	-12.501	-0.061	0.040
-331.216	-106.281	-0.088	-0.020
-330.202	-200.000	-0.019	0.272
-329.187	-108.782	0.101	-0.022
-328.172	-25.128	0.190	-0.113
-327.158	800.000	-0.041	-0.174
-326.143	107.570	0.227	0.270
-325.129	15.224	-0.142	-0.111
-324.114	-200.000	-0.004	0.268
-323.099	-200.000	-0.037	0.180
-322.085	-200.000	-0.003	-0.135
-321.070	800.000	0.012	0.033
-320.056	77.448	-0.039	0.041
-319.041	152.258	-0.234	-0.319
-318.026	-200.000	-0.003	0.268
-317.012	800.000	-0.065	0.178
-315.997	-200.000	-0.007	0.201
-314.983	-63.633	0.226	-0.093
-313.968	650.380	-0.138	0.353
-312.953	-200.000	-0.054	0.350
-311.939	27.051	-0.191	0.160
-310.924	-200.000	-0.055	0.307
-309.910	587.041	-0.047	-0.116
-308.895	800.000	0.069	0.225
-307.880	800.000	-0.142	0.536
-306.866	-200.000	-0.083	0.384
-305.851	9.403	-0.361	0.273
-304.837	122.337	-0.103	0.129
-303.822	-200.000	-0.025	-0.184
-302.807	234.713	-0.119	0.195
-301.793	800.000	0.029	0.103
-300.778	49.976	-0.222	-0.209
-299.764	-200.000	-0.033	0.446
-298.749	48.015	-0.389	0.363
-297.735	83.188	0.129	0.140
-296.720	197.935	-0.047	0.072
-295.705	-22.905	0.042	-0.025
-294.691	96.938	0.232	-0.265
-293.676	-200.000	-0.012	0.115
-292.662	-200.000	0.048	0.214
-291.647	387.455	-0.176	0.363
-290.632	-200.000	0.024	0.295
-289.618	-11.836	-0.199	-0.130
-288.603	143.034	-0.227	0.301
-287.589	800.000	0.057	-0.232
-286.574	-35.941	-0.148	-0.080
-285.559	-200.000	0.011	-0.253
-284.545	-200.000	-0.002	-0.035
-283.530	-35.960	0.122	-0.066
-282.516	-172.304	0.156	-0.005
-281.501	-153.377	-0.155	-0.011
-280.486	-79.550	0.157	0.053
-279.472	-68.360	-0.101	0.039
-278.457	-131.421	-0.063	0.008
-277.443	269.889	-0.094	0.164
-276.428	-80.227	0.115	0.038
-275.413	-34.875	-0.117	0.064
-274.399	22.218	0.161	0.131
-273.384	364.843	0.042	-0.084
-272.370	-14.874	0.143	-0.092
-271.355	379.964	-0.075	-0.154
-270.340	-148.149	-0.165	-0.014
-269.326	-0.234	-0.218	-0.155
-268.311	-87.503	-0.118	0.036
-267.297	-131.186	0.278	-0.037
-266.282	290.109	-0.278	0.503
-265.267	407.685	-0.050	0.106
-264.253	101.023	0.050	-0.058
-263.238	231.743	-0.093	-0.152
-262.224	59.171	-0.169	-0.166
-261.209	33.242	0.117	-0.101
-260.195	-40.110	-0.359	-0.186
-259.180	47.164	-0.118	0.109
-258.165	49.092	0.081	-0.076
-257.151	800.000	-0.029	0.086
-256.136	173.379	0.030	-0.043
-255.122	266.216	0.115	-0.200
-254.107	800.000	-0.062	-0.216
-253.092	365.701	-0.058	-0.116
-252.078	-67.193	0.073	0.029
-251.063	-134.096	0.302	0.037
-250.049	-76.058	-0.163	-0.057
-249.034	-100.411	0.175	-0.043
-248.019	-142.525	0.269	0.026
-247.005	-101.054	-0.414	-0.101
-245.990	-32.964	-0.412	0.228
-244.976	800.000	-0.116	0.343
-243.961	471.554	-0.165	-0.369
-242.946	290.881	0.034	0.062
-241.932	39.967	0.222	0.198
-240.917	147.396	-0.170	0.228
-239.903	-200.000	-0.024	-0.121
-238.888	-30.719	-0.129	-0.073
-237.873	84.682	0.081	-0.088
-236.859	-77.179	0.130	0.045
-235.844	-77.312	0.166	-0.058
-234.830	130.924	0.043	0.055
-233.815	-200.000	0.083	-0.384
-232.800	469.561	-0.049	0.110
-231.786	-200.000	0.028	0.217
-230.771	1.711	-0.151	0.108
-229.757	74.375	0.181	-0.190
-228.742	-55.363	-0.259	-0.116
-227.727	-48.407	0.142	-0.068
-226.713	-200.000	0.059	-0.312
-225.698	-35.473	0.177	-0.096
-224.684	-126.110	0.246	-0.037
-223.669	50.766	-0.138	-0.130
-222.655	176.413	0.242	0.351
-221.640	-200.000	-0.013	0.245
-220.625	717.114	0.067	-0.176
-219.611	514.681	-0.021	-0.049
-218.596	30.439	-0.097	-0.082
-217.582	106.840	0.060	0.070
-216.567	-175.486	0.128	-0.003
-215.552	-186.995	0.307	0.004
-214.538	499.390	-0.152	-0.349
-213.523	-200.000	-0.003	0.120
-212.509	-119.836	-0.343	0.059
-211.494	-51.405	-0.185	0.086
-210.479	-200.000	0.013	-0.075
-209.465	-200.000	-0.002	-0.033
-208.450	-77.213	-0.026	-0.009
-207.436	6.816	0.167	-0.123
-206.421	-200.000	0.006	-0.041
-205.406	78.555	0.085	-0.090
-204.392	800.000	0.060	0.180
-203.377	58.443	-0.108	0.105
-202.363	148.470	-0.208	0.279
-201.348	-127.567	-0.394	0.057
-200.333	110.168	0.216	0.258
-199.319	-107.262	-0.268	-0.059
-198.304	-200.000	-0.012	-0.216
-197.290	800.000	-0.055	0.215
-196.275	800.000	0.094	-0.349
-195.260	-49.649	-0.186	-0.088
-194.246	591.098	-0.037	0.092
-193.231	-200.000	-0.010	0.057
-192.217	43.729	-0.073	0.067
-191.202	193.666	0.131	0.198
-190.187	250.444	0.072	-0.121
-189.173	-123.321	-0.144	0.023
-188.158	11.155	0.060	-0.046
-187.144	-42.576	-0.341	-0.173
-186.129	15.216	0.153	-0.119
-185.114	-82.233	-0.135	-0.044
-184.100	334.907	0.139	0.268
-183.085	-99.126	-0.101	-0.025
-182.071	207.615	-0.111	0.172
-181.056	-200.000	-0.003	-0.125
-180.042	40.536	0.130	0.116
-179.027	-192.754	-0.074	-0.001
-178.012	-0.843	0.120	0.084
-176.998	-6.692	0.119	0.080
-175.983	-200.000	0.059	0.283
-174.969	53.919	-0.169	0.161
-173.954	-200.000	0.051	-0.353
-172.939	-145.618	0.236	0.021
-171.925	800.000	0.021	0.071
-170.910	456.003	0.160	0.353
-169.896	-140.070	-0.192	-0.020
-168.881	-3.380	-0.257	-0.178
-167.866	-89.342	-0.318	-0.093
-166.852	-200.000	0.004	-0.119
-165.837	61.141	0.254	-0.251
-164.823	-108.000	0.121	0.026
-163.808	-80.139	-0.151	0.050
-162.793	194.571	-0.083	-0.125
-161.779	87.294	-0.243	-0.267
-160.764	288.301	-0.044	-0.079
-159.750	-27.431	0.260	0.150
-158.735	-200.000	0.030	0.284
-157.720	-57.468	-0.208	0.091
-156.706	75.987	-0.057	-0.060
-155.691	-16.748	-0.133	-0.083
-154.677	-43.293	0.315	-0.158
-153.662	117.794	-0.142	-0.173
-152.647	-124.046	0.325	-0.051
-151.633	-134.736	-0.177	0.021
-150.618	332.764	0.101	-0.193
-149.604	247.646	0.184	0.309
-148.589	-53.608	-0.072	-0.033
-147.574	-5.127	-0.123	0.084
-146.560	-53.829	0.365	0.165
-145.545	185.591	0.052	-0.076
-144.531	-200.000	-0.076	0.419
-143.516	-136.311	-0.199	-0.023
-142.502	-42.541	0.129	0.065
-141.487	187.656	0.032	-0.047
-140.472	3.070	-0.175	-0.126
-139.458	-19.562	-0.169	-0.104
-138.443	-200.000	0.021	-0.158
-137.429	107.113	-0.187	0.221
-136.414	800.000	-0.037	-0.123
-135.399	-200.000	0.039	-0.308
-134.385	800.000	-0.038	0.132
-133.370	-86.732	-0.278	-0.084
-132.356	-200.000	0.004	-0.120
-131.341	-27.421	-0.174	0.100
-130.326	256.780	-0.130	0.222
-129.312	58.110	0.077	0.075
-128.297	800.000	0.054	0.235
-127.283	174.346	0.030	0.043
-126.268	-4.340	0.231	-0.158
-125.253	800.000	-0.044	-0.132
-124.239	-200.000	0.016	0.073
-123.224	800.000	0.097	0.311
-122.210	26.250	0.048	-0.040
-121.195	469.216	0.056	-0.124
-120.180	-93.563	0.331	0.091
-119.166	-96.280	0.318	0.084
-118.151	-200.000	-0.040	0.218
-117.137	521.091	0.160	0.371
-116.122	800.000	-0.039	0.109
-115.107	14.665	-0.182	0.141
-114.093	-135.980	-0.214	0.025
-113.078	252.927	-0.172	0.291
-112.064	-200.000	-0.024	0.312
-111.049	-129.324	0.134	-0.018
-110.034	800.000	-0.060	-0.197
-109.020	-194.046	0.048	0.000
-108.005	115.644	0.277	0.335
-106.991	111.885	-0.153	0.183
-105.976	-200.000	-0.020	-0.224
-104.962	-200.000	0.001	-0.171
-103.947	-29.817	0.172	0.097
-102.932	800.000	-0.075	0.321
-101.918	151.196	-0.064	-0.086
-100.903	-85.148	0.274	0.085
-99.889	-38.220	0.198	0.104
-98.874	-200.000	0.079	-0.797
-97.859	-41.197	-0.267	-0.136
-96.845	-21.104	0.047	0.028
-95.830	-48.926	0.118	0.056
-94.816	-35.183	0.241	-0.130
-93.801	-160.531	-0.270	-0.014
-92.786	-200.000	-0.243	0.000
-91.772	-200.000	-0.006	0.199
-90.757	488.367	-0.118	0.268
-89.743	67.454	-0.147	-0.148
-88.728	-88.947	0.358	-0.105
-87.713	-162.277	0.404	0.020
-86.699	-35.089	0.225	0.121
-85.684	96.178	0.132	0.149
-84.670	-200.000	0.020	-0.321
-83.655	681.880	-0.210	-0.542
-82.640	-93.669	-0.114	0.031
-81.626	-47.223	-0.333	-0.160
-80.611	393.257	-0.065	-0.134
-79.597	187.592	0.059	-0.088
-78.582	-2.872	0.110	0.076
-77.567	-166.772	-0.158	-0.006
-76.553	90.967	0.265	-0.294
-75.538	-200.000	0.112	-0.485
-74.524	329.431	0.124	-0.237
-73.509	331.403	0.091	0.173
-72.494	32.323	-0.271	0.232
-71.480	-122.003	0.144	0.023
-70.465	-19.192	-0.142	0.087
-69.451	239.781	0.170	0.279
-68.436	38.184	-0.259	0.228
-67.422	-150.484	-0.245	-0.019
-66.407	-200.000	-0.024	-0.136
-65.392	-21.959	0.614	-0.369
-64.378	-200.000	-0.014	0.222
-63.363	-88.357	0.034	-0.010
-62.349	190.481	-0.146	0.217
-61.334	77.280	-0.990	-1.041
-60.319	-19.704	0.531	0.325
-59.305	800.000	-0.333	-1.325
-58.290	50.391	0.735	0.687
-57.276	243.070	0.919	1.521
-56.261	-200.000	102.564	581.864
-55.246	510.391	1457.368	3350.425
-54.232	176.568	2673.786	3841.308
-53.217	103.014	2344.007	2713.898
-52.203	36.112	2091.788	1820.542
-51.188	31.378	2003.878	1700.996
-50.173	29.913	1986.100	1672.615
-49.159	45.113	2041.317	1858.869
-48.144	45.779	2058.853	1880.878
-47.130	32.018	2018.084	1718.644
-46.115	29.831	2006.552	1688.815
-45.100	29.777	2003.971	1686.088
-44.086	29.607	2001.820	1682.663
-43.071	29.680	1998.870	1680.781
-42.057	29.576	1997.098	1678.273
-41.042	29.633	1995.012	1676.979
-40.027	29.604	1993.234	1675.154
-39.013	29.701	1990.681	1673.822
-37.998	29.703	1989.386	1672.684
-36.984	29.667	1987.354	1670.579
-35.969	29.740	1985.140	1669.314
-34.954	29.742	1983.312	1667.730
-33.940	29.725	1982.391	1666.733
-32.925	29.796	1980.281	1665.528
-31.911	29.831	1978.403	1664.200
-30.896	29.806	1976.540	1662.348
-29.881	29.759	1975.636	1661.099
-28.867	29.782	1973.910	1659.782
-27.852	29.777	1972.444	1658.444
-26.838	29.844	1969.793	1656.746
-25.823	29.732	1968.689	1654.752
-24.809	29.771	1966.536	1653.226
-23.794	29.782	1965.712	1652.561
-22.779	29.832	1963.689	1651.242
-21.765	29.737	1961.640	1648.608
-20.750	29.736	1960.406	1647.493
-19.736	29.766	1958.204	1645.844
-18.721	29.805	1956.732	1644.889
-17.706	29.766	1955.535	1643.473
-16.692	29.734	1953.675	1641.562
-15.677	29.736	1952.087	1640.180
-14.663	29.769	1950.805	1639.325
-13.648	29.884	1949.398	1639.097
-12.633	29.814	1947.975	1637.218
-11.619	29.846	1946.689	1636.358
-10.604	29.747	1945.619	1634.520
-9.590	29.764	1944.140	1633.364
-8.575	29.779	1942.676	1632.193
-7.560	29.767	1941.399	1630.958
-6.546	29.789	1939.794	1629.737
-5.531	29.843	1938.481	1629.039
-4.517	29.800	1937.585	1627.850
-3.502	29.834	1936.298	1627.001
-2.487	29.859	1934.996	1626.065
-1.473	29.746	1934.648	1624.708
-0.458	29.969	1929.948	1622.651
0.556	31.335	1911.544	1600.960
1.571	28.042	1895.079	1559.008
2.586	24.753	1919.676	1550.639
3.600	24.028	1956.635	1573.939
4.615	23.205	1949.746	1561.002
5.629	17.171	1844.495	1426.103
6.644	8.014	1724.508	1261.034
7.659	4.033	1688.542	1203.722
8.673	3.696	1685.722	1198.989
9.688	3.747	1684.017	1198.066
10.702	3.760	1682.428	1196.932
11.717	3.686	1679.738	1194.340
12.731	4.246	1679.148	1198.137
13.746	10.295	1693.672	1255.419
14.761	18.309	1710.236	1330.099
15.775	20.718	1713.797	1351.474
16.790	20.234	1711.592	1345.861
17.804	19.270	1708.308	1335.696
18.819	18.286	1705.244	1325.562
19.834	17.632	1702.772	1318.467
20.848	17.466	1700.957	1315.660
21.863	17.262	1699.655	1312.967
22.877	17.071	1698.311	1310.333
23.892	16.833	1696.773	1307.196
24.907	16.800	1695.544	1305.880
25.921	16.771	1694.178	1304.487
26.936	16.698	1694.023	1303.688
27.950	16.664	1693.027	1302.551
28.965	16.754	1692.400	1302.646
29.980	16.778	1691.528	1302.043
30.994	16.965	1690.139	1302.290
32.009	17.032	1689.388	1302.114
33.023	17.074	1688.492	1301.630
34.038	17.171	1687.096	1301.179
35.053	17.010	1686.405	1299.300
36.067	16.988	1685.493	1298.310
37.082	16.897	1684.086	1296.422
38.096	16.942	1683.050	1295.847
39.111	16.977	1682.434	1295.525
40.126	16.995	1681.794	1295.059
41.140	17.005	1680.711	1294.186
42.155	16.888	1678.774	1291.688
43.169	16.640	1677.707	1288.866
44.184	16.735	1675.956	1288.131
45.199	16.624	1675.446	1286.778
46.213	16.543	1674.116	1285.026
47.228	16.594	1673.458	1284.795
48.242	16.757	1671.749	1284.606
49.257	16.910	1670.960	1285.049
50.271	16.919	1669.290	1283.717
51.286	16.838	1668.721	1282.552
52.301	16.835	1667.080	1281.154
53.315	16.845	1665.872	1280.191
54.330	16.850	1664.000	1278.675
55.344	16.736	1662.633	1276.649
56.359	16.700	1661.295	1275.241
57.374	16.706	1659.591	1273.863
58.388	16.746	1658.640	1273.324
59.403	16.564	1657.503	1270.973
60.417	16.634	1656.027	1270.254
61.432	16.541	1655.146	1268.762
62.447	16.578	1653.899	1267.971
63.461	16.574	1652.375	1266.667
64.476	16.440	1651.605	1264.956
65.490	16.493	1650.299	1264.242
66.505	16.465	1648.967	1262.904
67.520	16.441	1648.067	1261.921
68.534	16.468	1647.504	1261.581
69.549	16.536	1646.354	1261.092
70.563	16.498	1644.931	1259.607
71.578	16.471	1643.983	1258.575
72.593	16.494	1642.458	1257.464
73.607	16.375	1641.681	1255.873
74.622	16.301	1640.668	1254.438
75.636	16.328	1639.516	1253.646
76.651	16.323	1639.108	1253.186
77.666	16.339	1637.981	1252.333
78.680	16.359	1636.841	1251.501
79.695	16.381	1636.552	1251.330
80.709	16.435	1635.657	1250.935
81.724	16.479	1634.679	1250.402
82.739	16.557	1633.888	1250.262
83.753	16.599	1633.421	1250.104
84.768	16.701	1631.855	1249.546
85.782	16.801	1631.750	1250.095
86.797	16.913	1631.240	1250.419
87.812	16.870	1630.019	1249.058
88.826	16.934	1628.260	1248.067
89.841	16.787	1627.903	1246.601
90.855	16.869	1626.265	1245.842
91.870	16.886	1625.511	1245.281
92.884	16.996	1624.462	1245.171
93.899	16.993	1623.739	1244.488
94.914	16.937	1622.385	1242.929
95.928	16.993	1621.454	1242.516
96.943	17.041	1619.800	1241.490
97.957	17.094	1618.576	1240.828
98.972	16.955	1616.828	1238.361
99.987	16.966	1615.367	1237.211
101.001	16.795	1614.278	1235.023
102.016	16.873	1612.382	1234.034
103.030	16.926	1610.896	1233.174
104.045	16.921	1610.115	1232.425
105.060	16.914	1608.379	1230.942
106.074	16.926	1606.889	1229.781
107.089	16.742	1605.126	1226.984
108.103	16.594	1604.013	1224.956
109.118	16.424	1602.185	1222.219
110.133	16.507	1600.626	1221.526
111.147	16.495	1598.878	1219.995
112.162	16.503	1597.843	1219.156
113.176	16.498	1596.569	1218.037
114.191	16.532	1595.237	1217.160
115.206	16.633	1594.011	1216.844
116.220	16.674	1592.823	1216.123
117.235	16.606	1591.312	1214.374
118.249	16.665	1589.972	1213.666
119.264	16.651	1588.475	1212.313
120.279	16.590	1587.323	1210.894
121.293	16.566	1585.299	1209.072
122.308	16.538	1584.189	1207.915
123.322	16.512	1582.160	1206.074
124.337	16.386	1581.145	1204.302
125.352	16.327	1580.115	1202.989
126.366	16.347	1579.187	1202.321
127.381	16.411	1577.668	1201.507
128.395	16.321	1576.807	1200.106
129.410	16.440	1575.208	1199.627
130.424	16.371	1574.017	1198.125
131.439	16.487	1572.750	1197.879
132.454	16.550	1571.383	1197.180
133.468	16.600	1570.060	1196.415
134.483	16.653	1568.594	1195.572
135.497	16.659	1566.965	1194.263
136.512	16.576	1566.143	1192.943
137.527	16.723	1564.503	1192.624
138.541	16.665	1563.492	1191.344
139.556	16.683	1562.055	1190.271
140.570	16.777	1560.115	1189.347
141.585	16.818	1559.187	1188.819
142.600	16.832	1558.687	1188.435
143.614	16.930	1557.437	1188.062
144.629	17.025	1556.346	1187.787
145.643	17.065	1555.057	1186.982
146.658	17.096	1553.515	1185.914
147.673	17.042	1551.763	1184.092
148.687	16.937	1550.312	1182.153
149.702	16.888	1548.501	1180.322
150.716	16.690	1547.194	1177.849
151.731	16.713	1545.739	1176.796
152.746	16.843	1544.212	1176.429
153.760	16.827	1542.976	1175.271
154.775	16.747	1541.825	1173.735
155.789	16.819	1540.505	1173.131
156.804	16.829	1539.561	1172.373
157.819	17.023	1537.786	1172.262
158.833	16.927	1537.330	1171.144
159.848	17.050	1535.742	1170.681
160.862	17.142	1534.463	1170.232
161.877	17.141	1533.566	1169.441
162.892	17.054	1531.961	1167.515
163.906	16.884	1530.962	1165.483
164.921	16.789	1529.553	1163.655
165.935	16.917	1528.144	1163.357
166.950	16.914	1526.998	1162.360
167.964	16.942	1525.974	1161.669
168.979	16.991	1525.297	1161.390
169.994	16.950	1523.930	1159.966
171.008	16.989	1523.246	1159.609
172.023	16.973	1521.893	1158.364
173.037	17.069	1521.241	1158.424
174.052	17.058	1520.333	1157.550
175.067	17.107	1519.113	1156.858
176.081	17.204	1517.244	1155.992
177.096	16.931	1516.048	1153.122
178.110	16.898	1514.612	1151.704
179.125	16.881	1514.227	1151.194
180.140	17.009	1512.544	1150.679
181.154	16.964	1511.642	1149.587
182.169	17.041	1510.459	1149.104
183.183	17.108	1509.790	1148.951
184.198	17.236	1508.507	1148.734
185.213	17.154	1507.905	1147.622
186.227	17.286	1506.367	1147.238
187.242	17.239	1505.615	1146.252
188.256	17.354	1504.401	1146.001
189.271	17.280	1503.531	1144.737
190.286	17.398	1502.390	1144.561
191.300	17.362	1501.218	1143.321
192.315	17.113	1500.035	1140.652
193.329	16.925	1498.716	1138.283
194.344	16.849	1497.035	1136.398
195.359	16.915	1496.410	1136.266
196.373	17.007	1495.087	1135.774
197.388	17.200	1494.500	1136.520
198.402	17.201	1493.507	1135.674
199.417	17.335	1492.470	1135.676
200.432	17.500	1491.122	1135.650
201.446	17.497	1490.908	1135.366
202.461	17.575	1489.772	1134.923
203.475	17.623	1488.167	1133.917
204.490	17.628	1487.834	1133.599
205.504	17.531	1486.692	1131.981
206.519	17.522	1485.168	1130.663
207.534	17.407	1483.878	1128.814
208.548	17.354	1482.705	1127.471
209.563	17.329	1481.630	1126.390
210.577	17.384	1480.781	1126.010
211.592	17.469	1479.628	1125.592
212.607	17.465	1479.054	1125.034
213.621	17.624	1478.455	1125.529
214.636	17.761	1477.334	1125.479
215.650	17.639	1476.757	1124.135
216.665	17.584	1475.761	1122.917
217.680	17.642	1475.153	1122.735
218.694	17.836	1474.306	1123.267
219.709	17.870	1473.147	1122.511
220.723	17.814	1472.387	1121.461
221.738	17.779	1471.322	1120.321
222.753	17.701	1470.615	1119.170
223.767	17.807	1468.827	1118.405
224.782	17.669	1468.471	1117.132
225.796	17.762	1467.687	1117.049
226.811	17.877	1467.007	1117.184
227.826	17.923	1466.226	1116.789
228.840	17.902	1465.581	1116.066
229.855	17.773	1464.045	1113.951
230.869	17.889	1462.634	1113.534
231.884	17.810	1461.787	1112.279
232.899	17.761	1461.384	1111.556
233.913	17.659	1460.172	1109.869
234.928	17.732	1458.536	1109.002
235.942	17.599	1457.452	1107.216
236.957	17.654	1455.691	1106.137
237.972	17.735	1454.339	1105.538
238.986	17.703	1453.783	1104.808
240.001	17.713	1452.651	1103.917
241.015	17.678	1451.819	1102.962
242.030	17.766	1450.026	1102.070
243.045	17.779	1449.873	1101.941
244.059	17.769	1449.171	1101.241
245.074	17.938	1447.612	1101.054
246.088	17.888	1447.355	1100.438
247.103	18.001	1446.604	1100.497
248.117	18.007	1445.976	1099.959
249.132	17.998	1445.346	1099.326
250.147	18.134	1444.795	1099.680
251.161	18.254	1444.113	1099.838
252.176	18.376	1443.657	1100.180
253.190	18.470	1442.584	1099.867
254.205	18.451	1441.581	1098.882
255.220	18.466	1441.150	1098.552
256.234	18.559	1439.953	1098.137
257.249	18.527	1439.127	1097.203
258.263	18.473	1438.506	1096.291
259.278	18.480	1437.554	1095.511
260.293	18.573	1436.433	1095.152
261.307	18.515	1436.071	1094.411
262.322	18.616	1435.057	1094.188
263.336	18.592	1434.408	1093.442
264.351	18.600	1433.203	1092.475
265.366	18.591	1432.253	1091.602
266.380	18.668	1431.543	1091.454
267.395	18.692	1430.544	1090.747
268.409	18.657	1429.547	1089.665
269.424	18.680	1428.228	1088.713
270.439	18.627	1427.260	1087.542
271.453	18.515	1426.170	1085.902
272.468	18.559	1425.231	1085.370
273.482	18.556	1424.589	1084.769
274.497	18.400	1423.928	1083.184
275.512	18.512	1422.758	1082.902
276.526	18.482	1421.946	1082.002
277.541	18.530	1420.845	1081.368
278.555	18.469	1420.261	1080.443
279.570	18.545	1419.428	1080.195
280.585	18.535	1418.352	1079.214
281.599	18.640	1417.995	1079.509
282.614	18.773	1416.744	1079.296
283.628	18.719	1415.141	1077.643
284.643	18.699	1414.390	1076.849
285.657	18.640	1413.188	1075.468
286.672	18.632	1412.375	1074.703
287.687	18.773	1411.196	1074.595
288.701	18.757	1409.952	1073.451
289.716	18.664	1409.808	1072.665
290.730	18.773	1408.726	1072.433
291.745	18.768	1407.548	1071.405
292.760	18.742	1406.940	1070.686
293.774	18.776	1405.789	1069.931
294.789	18.739	1405.291	1069.224
295.803	18.878	1404.174	1069.143
296.818	18.995	1403.361	1069.158
297.833	18.843	1402.368	1067.361
298.847	18.831	1401.151	1066.270
299.862	18.810	1400.073	1065.222
300.876	18.852	1399.437	1064.903
301.891	18.840	1398.637	1064.127
302.906	18.871	1397.697	1063.512
303.920	19.035	1396.896	1063.821
304.935	19.031	1396.313	1063.256
305.949	19.057	1396.000	1063.089
306.964	19.196	1394.627	1062.805
307.979	19.293	1393.577	1062.509
308.993	19.175	1393.083	1061.310
310.008	19.146	1391.766	1060.038
311.022	19.173	1390.656	1059.263
312.037	19.240	1389.587	1058.765
313.052	19.221	1388.854	1058.000
314.066	19.202	1387.916	1057.073
315.081	19.036	1387.055	1055.303
316.095	19.006	1385.629	1053.942
317.110	18.836	1384.904	1052.254
318.125	18.965	1383.360	1051.783
319.139	19.024	1382.882	1051.683
320.154	18.975	1381.924	1050.560
321.168	19.046	1380.773	1050.027
322.183	18.964	1380.013	1048.860
323.197	19.007	1379.103	1048.337
324.212	19.063	1377.883	1047.659
325.227	19.065	1377.733	1047.463
326.241	19.066	1376.372	1046.343
327.256	19.129	1375.346	1045.850
328.270	19.036	1374.831	1044.799
329.285	19.055	1373.709	1043.970
330.300	19.044	1373.022	1043.288
331.314	19.084	1372.010	1042.670
332.329	19.073	1370.981	1041.730
333.343	19.109	1369.953	1041.075
334.358	19.100	1369.125	1040.300
335.373	19.168	1369.260	1040.718
336.387	19.275	1367.713	1040.098
337.402	19.275	1367.048	1039.498
338.416	19.314	1365.976	1038.827
339.431	19.358	1365.659	1038.758
340.446	19.384	1365.027	1038.345
341.460	19.461	1364.057	1037.981
342.475	19.495	1363.084	1037.352
343.489	19.591	1362.237	1037.188
344.504	19.704	1361.091	1036.907
345.519	19.655	1360.215	1035.850
346.533	19.753	1359.224	1035.595
347.548	19.714	1358.436	1034.666
348.562	19.767	1357.544	1034.211
349.577	19.865	1357.064	1034.341
350.592	19.818	1356.060	1033.201
351.606	19.617	1355.148	1031.217
352.621	19.602	1353.704	1029.936
353.635	19.436	1352.597	1028.013
354.650	19.599	1351.798	1028.285
355.665	19.502	1350.976	1026.996
356.679	19.481	1349.837	1025.914
357.694	19.528	1348.724	1025.258
358.708	19.691	1347.413	1025.136
359.723	19.700	1346.473	1024.382
360.738	19.686	1345.741	1023.650
361.752	19.670	1345.003	1022.905
362.767	19.761	1343.223	1021.999
363.781	19.700	1343.041	1021.407
364.796	19.735	1341.909	1020.663
365.810	19.809	1341.398	1020.625
366.825	19.862	1340.855	1020.433
367.840	19.896	1340.002	1019.895
368.854	19.991	1339.300	1019.831
369.869	20.164	1339.103	1020.603
370.883	20.221	1338.261	1020.208
371.898	20.137	1337.167	1018.791
372.913	20.011	1336.280	1017.287
373.927	19.929	1335.924	1016.444
374.942	19.901	1334.704	1015.260
375.956	19.992	1334.342	1015.429
376.971	20.115	1333.126	1015.134
377.986	20.049	1332.369	1014.079
379.000	20.057	1331.777	1013.591
380.015	20.087	1330.922	1013.022
381.029	20.209	1330.004	1012.950
382.044	20.354	1329.099	1013.016
383.059	20.307	1328.564	1012.245
384.073	20.362	1327.731	1011.842
385.088	20.193	1327.476	1010.570
386.102	20.331	1326.768	1010.743
387.117	20.403	1325.785	1010.329
388.132	20.303	1324.835	1008.932
389.146	20.167	1324.009	1007.422
390.161	20.107	1323.292	1006.443
391.175	20.092	1322.277	1005.495
392.190	20.071	1321.859	1004.964
393.205	20.185	1320.804	1004.731
394.219	20.203	1320.178	1004.271
395.234	20.311	1318.436	1003.482
396.248	20.293	1316.940	1002.149
397.263	20.313	1315.316	1000.945
398.278	20.311	1314.455	1000.186
399.292	20.276	1313.406	999.097
400.307	20.102	1312.305	997.171
401.321	20.059	1311.181	995.982
402.336	20.065	1310.290	995.249
403.350	19.969	1309.665	994.136
404.365	20.102	1308.519	993.943
405.380	20.026	1307.740	992.828
406.394	20.160	1306.819	992.810
407.409	20.170	1305.736	991.957
408.423	20.377	1305.365	992.768
409.438	20.354	1305.360	992.548
410.453	20.557	1304.344	992.844
411.467	20.579	1303.385	992.152
412.482	20.633	1303.104	992.160
413.496	20.704	1302.333	991.886
414.511	20.666	1301.098	990.645
415.526	20.609	1300.925	990.101
416.540	20.752	1300.175	990.254
417.555	20.847	1299.298	990.040
418.569	20.873	1298.950	989.837
419.584	20.832	1298.338	989.048
420.599	20.675	1297.665	987.558
421.613	143.301	1433.995	1794.221
422.628	138.597	1453.860	1794.323
