DTS Sentinel unit serial number:	SN413079Multiplexer serial number:	ORYXHardware model number:	OX4-SRSoftware version number:	ORYX F/W v4.00 Oryx Data Collector v3.7.2.0data status	okinstallation	princeton_trtdifferential loss correction	single-endedforward channel	channel 4reverse channel	N/Adate	2019/09/15time	22:05:34forward acquisition time	60.00reverse acquisition time	0.00gamma	496.2192k internal	0.2319k external	0.2319temperature offset calibration	0.9951default loss term (dB/km)	0.3790temperature slope calibration	1.0000multiplexer offset coefficient	1.0000multiplexer slope coefficient	1.0000fibre end	0.00T internal ref (°C)	29.70T ext. ref 1 (°C)	8.56T ext. ref 2 (°C)	22.95length (m)	temperature (°C)	Stokes	anti-Stokes-747.200	-14.344	-0.093	-0.061
-746.185	507.941	0.082	0.192
-745.171	484.603	-0.120	-0.276
-744.156	204.730	0.054	0.085
-743.142	800.000	0.100	-0.288
-742.127	800.000	0.043	0.145
-741.112	800.000	-0.078	-0.237
-740.098	15.852	0.060	0.047
-739.083	-200.000	-0.044	-0.202
-738.069	76.206	-0.396	-0.424
-737.054	681.378	-0.031	-0.081
-736.039	800.000	0.039	-0.110
-735.025	25.725	0.308	-0.259
-734.010	-11.386	-0.312	-0.207
-732.996	800.000	-0.046	0.133
-731.981	-92.191	-0.100	-0.029
-730.966	-33.101	-0.176	-0.099
-729.952	374.022	0.104	0.214
-728.937	19.273	-0.225	0.183
-727.923	-109.577	-0.359	-0.077
-726.908	-200.000	0.012	-0.305
-725.894	800.000	-0.096	-0.284
-724.879	370.080	0.092	-0.189
-723.864	124.706	0.143	0.182
-722.850	713.724	0.007	-0.017
-721.835	-103.150	-0.255	-0.061
-720.821	-19.318	-0.041	0.026
-719.806	6.502	0.114	-0.085
-718.791	-72.969	0.261	-0.097
-717.777	20.940	0.218	-0.179
-716.762	150.936	-0.146	-0.201
-715.748	-102.632	-0.391	0.094
-714.733	-125.527	0.317	-0.049
-713.718	-200.000	-0.046	-0.259
-712.704	-200.000	-0.023	-0.108
-711.689	-200.000	0.008	0.189
-710.675	-19.922	-0.208	-0.130
-709.660	-125.897	0.100	-0.015
-708.645	800.000	-0.040	0.121
-707.631	-154.037	0.323	0.022
-706.616	33.981	0.046	-0.040
-705.602	-146.189	0.442	0.039
-704.587	-163.893	0.370	-0.017
-703.572	-118.614	0.054	-0.010
-702.558	-5.890	-0.115	0.079
-701.543	-1.027	-0.391	0.280
-700.529	-103.391	-0.327	-0.078
-699.514	11.983	0.281	-0.218
-698.499	-109.333	-0.044	0.009
-697.485	7.756	0.105	0.080
-696.470	129.751	-0.183	0.236
-695.456	512.141	-0.130	-0.307
-694.441	57.716	0.214	-0.212
-693.426	-200.000	0.004	0.020
-692.412	800.000	-0.048	0.160
-691.397	-109.162	-0.105	0.022
-690.383	-107.259	-0.095	-0.021
-689.368	-133.793	-0.286	-0.036
-688.354	800.000	0.046	-0.187
-687.339	800.000	0.068	0.212
-686.324	-47.054	-0.330	-0.162
-685.310	144.513	-0.212	0.286
-684.295	-117.980	-0.378	-0.068
-683.281	-145.270	0.243	-0.022
-682.266	-167.474	-0.177	0.007
-681.251	800.000	-0.076	-0.211
-680.237	-72.615	0.228	0.085
-679.222	-34.492	0.025	0.014
-678.208	597.720	-0.027	0.068
-677.193	516.951	-0.039	0.092
-676.178	216.478	-0.120	-0.192
-675.164	596.613	-0.068	0.170
-674.149	199.391	-0.090	0.138
-673.135	-88.984	-0.076	-0.023
-672.120	-200.000	0.072	-0.455
-671.105	-76.157	0.186	0.066
-670.091	-136.652	-0.236	0.027
-669.076	-95.128	0.269	-0.073
-668.062	-22.236	0.099	0.061
-667.047	-49.911	-0.171	0.082
-666.032	-18.161	-0.297	-0.188
-665.018	-33.838	-0.027	-0.015
-664.003	-200.000	-0.057	-0.277
-662.989	-2.277	-0.149	0.105
-661.974	-99.483	-0.184	-0.047
-660.959	-67.982	-0.266	0.105
-659.945	-65.151	-0.221	-0.090
-658.930	154.028	0.152	0.210
-657.916	-52.762	-0.211	-0.098
-656.901	-195.862	-0.136	0.001
-655.886	800.000	0.122	-0.370
-654.872	189.164	-0.094	0.142
-653.857	-125.998	0.303	-0.046
-652.843	103.595	-0.202	-0.239
-651.828	-200.000	-0.002	-0.058
-650.814	-200.000	-0.010	-0.056
-649.799	663.283	0.119	0.309
-648.784	-1.872	0.263	-0.186
-647.770	-28.064	-0.131	-0.077
-646.755	183.718	-0.156	0.233
-645.741	-71.731	-0.375	-0.141
-644.726	109.067	0.065	0.078
-643.711	-46.647	-0.270	-0.134
-642.697	8.959	0.093	-0.071
-641.682	253.453	-0.042	0.072
-640.668	471.430	-0.018	0.040
-639.653	70.750	-0.119	-0.125
-638.638	-90.011	-0.158	-0.046
-637.624	-110.194	0.120	0.025
-636.609	78.975	0.021	-0.022
-635.595	-200.000	-0.020	0.109
-634.580	-94.373	0.258	-0.071
-633.565	453.732	-0.132	-0.294
-632.551	-62.133	-0.262	0.110
-631.536	172.418	0.060	-0.087
-630.522	-20.528	-0.259	0.160
-629.507	-96.388	0.123	0.033
-628.492	139.565	-0.088	0.116
-627.478	-108.003	-0.228	-0.050
-626.463	-50.542	0.111	-0.053
-625.449	-45.223	0.139	-0.069
-624.434	217.519	0.073	0.118
-623.419	309.365	0.144	-0.270
-622.405	-58.321	-0.197	-0.086
-621.390	-124.100	0.277	-0.044
-620.376	-173.686	0.028	0.001
-619.361	-156.488	-0.240	-0.015
-618.346	16.379	0.212	0.169
-617.332	-43.622	0.297	0.151
-616.317	-2.035	-0.273	0.193
-615.303	-200.000	-0.007	-0.210
-614.288	-200.000	0.050	0.442
-613.273	-200.000	0.037	0.474
-612.259	14.668	-0.076	-0.060
-611.244	-133.633	-0.130	0.016
-610.230	-98.931	-0.095	-0.024
-609.215	2.047	-0.333	-0.242
-608.201	59.704	-0.294	-0.292
-607.186	800.000	0.014	-0.040
-606.171	-56.129	-0.238	-0.106
-605.157	-55.273	-0.185	-0.084
-604.142	276.645	-0.049	0.088
-603.128	497.619	-0.060	-0.140
-602.113	-60.373	-0.024	-0.010
-601.098	-55.284	0.311	-0.140
-600.084	-164.971	-0.328	-0.015
-599.069	96.158	-0.057	0.065
-598.055	513.627	0.018	-0.043
-597.040	-103.666	-0.122	0.029
-596.025	3.087	-0.065	-0.047
-595.011	-18.627	0.210	0.132
-593.996	123.441	-0.148	0.187
-592.982	-16.570	0.072	-0.046
-591.967	319.228	0.138	-0.262
-590.952	493.741	0.052	-0.119
-589.938	-66.895	0.181	-0.072
-588.923	-200.000	0.018	-0.107
-587.909	-123.672	0.169	-0.027
-586.894	138.010	-0.134	0.177
-585.879	350.334	0.175	-0.348
-584.865	-145.547	-0.256	-0.023
-583.850	-56.014	0.112	0.050
-582.836	-190.348	0.197	-0.002
-581.821	-2.415	-0.136	-0.096
-580.806	58.119	0.324	-0.319
-579.792	112.372	-0.105	0.128
-578.777	800.000	-0.014	-0.044
-577.763	505.581	0.057	-0.133
-576.748	-76.566	-0.040	-0.014
-575.733	151.784	0.144	-0.197
-574.719	195.136	0.192	-0.293
-573.704	35.431	-0.066	0.058
-572.690	43.921	0.233	0.214
-571.675	-171.935	-0.198	0.006
-570.661	-21.073	0.045	-0.028
-569.646	-166.333	0.440	0.019
-568.631	336.555	-0.122	-0.238
-567.617	117.437	-0.311	-0.384
-566.602	-200.000	0.006	-0.333
-565.588	-111.699	-0.185	0.038
-564.573	-109.041	-0.239	0.051
-563.558	340.928	-0.157	-0.309
-562.544	-123.035	-0.160	0.026
-561.529	-37.328	-0.104	-0.056
-560.515	-75.092	-0.323	-0.116
-559.500	328.821	0.219	0.422
-558.485	-138.470	0.074	0.008
-557.471	-15.447	-0.112	0.072
-556.456	-102.356	0.111	0.027
-555.442	-110.887	-0.188	-0.039
-554.427	30.876	0.159	-0.137
-553.412	151.809	0.060	-0.082
-552.398	-3.057	-0.132	-0.092
-551.383	-200.000	0.027	0.179
-550.369	-110.244	-0.112	0.023
-549.354	-137.764	0.276	-0.031
-548.339	800.000	-0.104	-0.400
-547.325	-200.000	0.009	-0.131
-546.310	-32.071	0.150	0.084
-545.296	53.177	-0.134	0.129
-544.281	-5.041	-0.156	0.108
-543.266	-138.521	0.478	-0.053
-542.252	-21.281	0.166	0.102
-541.237	-200.000	0.005	-0.084
-540.223	-137.940	0.506	0.057
-539.208	-200.000	0.001	-0.086
-538.193	800.000	-0.037	0.140
-537.179	82.041	0.037	0.041
-536.164	-200.000	0.013	-0.149
-535.150	415.206	0.079	0.169
-534.135	-72.221	0.233	-0.087
-533.121	76.872	-0.180	-0.191
-532.106	234.573	0.134	0.221
-531.091	115.559	0.094	-0.116
-530.077	800.000	0.059	-0.220
-529.062	-136.904	-0.212	0.024
-528.048	173.937	0.153	0.222
-527.033	305.045	0.156	0.292
-526.018	148.439	0.066	0.090
-525.004	122.811	0.145	-0.182
-523.989	-41.367	0.240	0.124
-522.975	92.200	0.069	0.077
-521.960	720.922	0.165	-0.440
-520.945	800.000	0.099	0.278
-519.931	47.575	0.127	0.119
-518.916	-200.000	-0.030	-0.313
-517.902	-20.546	-0.237	-0.146
-516.887	-86.528	0.352	-0.108
-515.872	-133.438	-0.204	0.026
-514.858	800.000	-0.039	0.119
-513.843	-11.365	-0.253	-0.167
-512.829	9.940	-0.190	-0.145
-511.814	58.028	-0.225	0.221
-510.799	41.822	0.195	0.177
-509.785	-200.000	0.004	0.267
-508.770	-31.502	-0.211	0.119
-507.756	-73.644	-0.169	-0.062
-506.741	485.500	0.110	-0.251
-505.726	-18.457	0.295	-0.185
-504.712	-152.043	0.405	0.030
-503.697	526.586	-0.104	-0.246
-502.683	20.209	-0.172	-0.139
-501.668	-133.205	0.156	0.020
-500.653	-8.605	-0.058	-0.039
-499.639	45.136	-0.127	-0.117
-498.624	-20.142	-0.195	0.120
-497.610	-200.000	-0.041	-0.340
-496.595	-55.642	-0.311	-0.140
-495.581	753.192	0.125	0.339
-494.566	800.000	-0.074	0.214
-493.551	-200.000	-0.026	0.185
-492.537	332.217	0.198	-0.383
-491.522	-149.714	0.260	0.021
-490.508	-200.000	0.000	-0.060
-489.493	201.264	0.250	-0.385
-488.478	-10.429	0.073	0.048
-487.464	-62.269	0.359	-0.150
-486.449	188.881	-0.110	0.165
-485.435	721.745	-0.117	0.312
-484.420	85.021	-0.165	-0.181
-483.405	-78.219	-0.165	0.057
-482.391	800.000	0.033	0.116
-481.376	67.958	-0.303	-0.310
-480.362	800.000	0.128	-0.367
-479.347	-96.399	0.089	-0.024
-478.332	-107.216	0.235	0.052
-477.318	14.411	0.245	-0.192
-476.303	32.833	-0.122	0.106
-475.289	-200.000	-0.030	-0.185
-474.274	-172.081	-0.127	0.004
-473.259	-200.000	-0.052	-0.239
-472.245	-83.780	-0.381	-0.122
-471.230	-109.020	-0.143	-0.030
-470.216	-200.000	0.005	0.186
-469.201	800.000	0.012	0.042
-468.186	800.000	0.026	0.112
-467.172	99.708	0.116	-0.135
-466.157	123.792	-0.147	-0.185
-465.143	-200.000	-0.015	0.111
-464.128	-76.233	-0.087	0.031
-463.113	508.449	0.149	0.346
-462.099	800.000	-0.069	-0.245
-461.084	-92.948	-0.406	0.113
-460.070	263.195	-0.070	-0.121
-459.055	2.247	0.219	0.159
-458.040	96.417	0.108	0.123
-457.026	165.420	-0.164	-0.232
-456.011	-126.089	0.109	-0.016
-454.997	-82.987	-0.368	0.119
-453.982	800.000	-0.039	-0.131
-452.968	-200.000	-0.057	0.260
-451.953	800.000	-0.050	0.218
-450.938	550.651	-0.049	0.118
-449.924	-145.218	0.385	0.035
-448.909	-200.000	-0.039	-0.408
-447.895	-200.000	-0.017	-0.112
-446.880	-200.000	0.000	0.145
-445.865	-122.728	0.247	0.040
-444.851	115.736	-0.051	0.062
-443.836	800.000	-0.055	0.175
-442.822	-125.670	-0.055	0.008
-441.807	-81.437	-0.115	0.038
-440.792	254.332	0.045	-0.077
-439.778	-123.512	0.138	0.022
-438.763	95.950	0.163	0.187
-437.749	800.000	-0.038	-0.128
-436.734	361.136	-0.173	-0.347
-435.719	-200.000	0.115	0.001
-434.705	800.000	0.088	0.302
-433.690	55.307	0.107	-0.104
-432.676	-80.529	0.174	0.058
-431.661	73.569	0.105	0.110
-430.646	-74.057	0.271	0.098
-429.632	24.280	-0.140	-0.116
-428.617	-200.000	0.026	-0.397
-427.603	-200.000	0.000	0.098
-426.588	-200.000	0.021	-0.155
-425.573	26.274	-0.171	0.143
-424.559	-200.000	-0.005	-0.113
-423.544	9.146	-0.172	-0.130
-422.530	-182.922	-0.420	-0.008
-421.515	-200.000	-0.063	-0.283
-420.500	-200.000	-0.049	-0.221
-419.486	-200.000	-0.042	0.274
-418.471	-80.434	-0.178	0.059
-417.457	78.223	-0.161	-0.172
-416.442	-200.000	0.013	0.113
-415.428	-6.204	-0.248	0.169
-414.413	-108.193	-0.293	-0.063
-413.398	-18.919	-0.116	0.072
-412.384	-129.946	0.229	-0.031
-411.369	83.999	-0.156	-0.170
-410.355	-161.939	-0.274	0.014
-409.340	269.193	-0.276	-0.484
-408.325	404.091	0.066	0.138
-407.311	10.860	-0.201	0.154
-406.296	-200.000	0.045	-0.272
-405.282	544.313	0.101	-0.242
-404.267	-55.734	0.183	-0.082
-403.252	-81.112	-0.112	-0.037
-402.238	139.129	-0.149	-0.195
-401.223	110.945	0.221	0.265
-400.209	72.812	-0.263	-0.274
-399.194	686.145	0.056	0.146
-398.179	37.881	-0.298	-0.265
-397.165	33.541	0.173	-0.150
-396.150	190.330	0.031	-0.047
-395.136	165.952	0.092	-0.130
-394.121	800.000	-0.009	-0.040
-393.106	-27.056	0.148	-0.086
-392.092	291.013	-0.121	0.220
-391.077	321.787	0.050	0.096
-390.063	-85.209	-0.263	0.082
-389.048	-43.763	-0.127	-0.064
-388.033	-200.000	0.083	0.446
-387.019	-20.544	0.062	-0.038
-386.004	-79.458	-0.124	-0.042
-384.990	-127.739	-0.112	-0.016
-383.975	528.669	-0.069	0.162
-382.960	461.598	-0.089	-0.199
-381.946	34.814	-0.114	0.099
-380.931	800.000	-0.027	-0.084
-379.917	-200.000	0.036	-0.217
-378.902	800.000	0.039	-0.147
-377.888	800.000	0.031	0.131
-376.873	-54.882	-0.075	-0.034
-375.858	-75.231	0.304	0.108
-374.844	800.000	-0.009	0.026
-373.829	-107.042	0.272	-0.060
-372.815	91.260	-0.125	-0.140
-371.800	82.588	0.069	-0.075
-370.785	-200.000	-0.009	-0.213
-369.771	-133.264	-0.291	0.037
-368.756	-104.391	-0.149	-0.034
-367.742	248.132	0.152	0.257
-366.727	23.910	0.129	0.106
-365.712	4.299	0.241	-0.176
-364.698	-24.600	-0.089	-0.053
-363.683	132.705	-0.214	-0.275
-362.669	800.000	0.039	0.169
-361.654	800.000	0.096	-0.332
-360.639	-13.773	0.341	0.220
-359.625	-200.000	0.036	0.236
-358.610	-200.000	-0.020	0.116
-357.596	-17.265	0.080	-0.050
-356.581	800.000	0.054	0.152
-355.566	-78.862	-0.231	-0.078
-354.552	-35.879	0.122	0.066
-353.537	-23.273	-0.092	0.055
-352.523	-200.000	0.014	0.109
-351.508	415.526	0.188	0.399
-350.493	-200.000	0.055	0.470
-349.479	-128.108	0.291	0.042
-348.464	396.961	-0.094	-0.195
-347.450	216.495	0.051	-0.080
-346.435	-200.000	-0.027	0.476
-345.420	-88.177	-0.176	-0.052
-344.406	-200.000	-0.044	-0.344
-343.391	-200.000	0.047	0.353
-342.377	-26.299	0.093	-0.054
-341.362	-200.000	0.005	0.115
-340.348	48.335	-0.085	-0.080
-339.333	647.089	-0.169	0.430
-338.318	-27.171	0.236	-0.137
-337.304	407.831	0.101	-0.213
-336.289	-200.000	-0.009	-0.086
-335.275	-111.356	-0.283	0.057
-334.260	-200.000	-0.027	0.193
-333.245	16.387	-0.003	0.003
-332.231	-174.054	-0.038	-0.001
-331.216	800.000	-0.065	0.193
-330.202	318.457	-0.132	0.249
-329.187	800.000	0.017	0.048
-328.172	-177.788	-0.367	-0.009
-327.158	-127.151	0.316	-0.046
-326.143	-56.689	0.095	0.042
-325.129	800.000	-0.027	-0.097
-324.114	800.000	-0.100	0.314
-323.099	258.698	0.109	-0.188
-322.085	-200.000	0.027	0.255
-321.070	359.292	0.160	0.319
-320.056	-77.897	0.206	-0.071
-319.041	517.930	-0.092	-0.215
-318.026	-200.000	-0.004	0.183
-317.012	800.000	0.061	0.218
-315.997	-200.000	-0.026	0.181
-314.983	15.070	-0.145	0.113
-313.968	141.378	0.087	0.114
-312.953	-200.000	-0.050	0.000
-311.939	-200.000	-0.006	-0.342
-310.924	341.632	-0.060	-0.116
-309.910	-200.000	-0.012	0.206
-308.895	89.076	0.122	-0.136
-307.880	-31.071	0.298	0.167
-306.866	-200.000	0.016	0.088
-305.851	-197.606	0.039	0.000
-304.837	96.675	-0.266	0.303
-303.822	64.639	0.101	-0.102
-302.807	-200.000	0.001	0.507
-301.793	-57.094	0.285	0.125
-300.778	-12.223	0.292	0.190
-299.764	441.980	0.020	0.043
-298.749	-146.906	-0.250	0.021
-297.735	-9.644	-0.050	0.033
-296.720	-119.541	-0.186	-0.032
-295.705	28.373	-0.166	0.139
-294.691	38.721	0.121	-0.108
-293.676	18.289	-0.219	-0.174
-292.662	291.622	-0.137	0.248
-291.647	186.043	0.156	0.230
-290.632	-200.000	0.031	0.195
-289.618	-32.718	0.019	-0.010
-288.603	686.552	-0.137	-0.355
-287.589	-200.000	-0.060	0.472
-286.574	-200.000	-0.021	-0.165
-285.559	-200.000	-0.003	-0.332
-284.545	-98.717	0.111	0.028
-283.530	-200.000	0.010	0.243
-282.516	-28.634	-0.071	-0.041
-281.501	167.893	0.211	-0.299
-280.486	-200.000	-0.023	-0.123
-279.472	70.916	-0.224	-0.231
-278.457	-73.394	-0.346	0.126
-277.443	800.000	0.120	-0.345
-276.428	-200.000	0.092	0.463
-275.413	-103.535	0.199	0.046
-274.399	-17.057	-0.134	0.084
-273.384	614.575	-0.045	0.113
-272.370	557.959	-0.181	0.433
-271.355	103.048	-0.118	-0.137
-270.340	411.485	-0.227	0.479
-269.326	-50.544	-0.233	-0.109
-268.311	43.782	0.071	-0.064
-267.297	2.662	-0.099	0.072
-266.282	-57.601	0.132	-0.058
-265.267	-34.223	0.143	-0.078
-264.253	-166.124	-0.416	0.018
-263.238	252.350	0.077	-0.131
-262.224	-200.000	-0.002	0.250
-261.209	186.973	-0.076	0.113
-260.195	-8.261	-0.160	-0.107
-259.180	800.000	0.076	0.290
-258.165	663.435	-0.109	-0.279
-257.151	-200.000	-0.014	0.151
-256.136	-126.448	0.427	0.063
-255.122	-34.763	-0.125	0.068
-254.107	-41.012	0.074	0.038
-253.092	77.825	0.113	-0.120
-252.078	-200.000	-0.034	0.160
-251.063	-94.573	0.432	0.117
-250.049	-200.000	-0.051	0.313
-249.034	800.000	-0.019	0.076
-248.019	-137.775	0.221	-0.025
-247.005	-200.000	0.063	0.395
-245.990	-12.774	0.085	0.055
-244.976	-200.000	0.003	0.225
-243.961	800.000	-0.064	-0.233
-242.946	-116.956	0.142	0.026
-241.932	-91.833	0.272	0.077
-240.917	-200.000	-0.002	-0.132
-239.903	-13.945	0.242	0.155
-238.888	-118.583	0.037	-0.006
-237.873	-200.000	0.028	0.155
-236.859	196.120	-0.258	0.390
-235.844	-200.000	-0.030	0.169
-234.830	-109.483	0.346	0.073
-233.815	-34.879	0.436	0.236
-232.800	-26.984	-0.244	-0.141
-231.786	6.384	-0.174	-0.128
-230.771	800.000	0.071	-0.286
-229.757	48.458	0.032	-0.029
-228.742	-92.278	0.157	0.044
-227.727	629.846	0.057	-0.143
-226.713	-86.173	0.131	-0.040
-225.698	-200.000	0.024	0.141
-224.684	122.958	-0.094	-0.117
-223.669	58.858	0.188	0.183
-222.655	-200.000	0.082	0.360
-221.640	440.781	0.073	-0.159
-220.625	-10.191	-0.195	0.128
-219.611	396.059	-0.117	-0.243
-218.596	218.810	0.230	-0.364
-217.582	800.000	0.068	0.235
-216.567	-200.000	-0.012	0.232
-215.552	-71.120	0.253	0.094
-214.538	154.970	-0.233	0.318
-213.523	342.173	0.174	0.337
-212.509	584.005	0.042	0.101
-211.494	-200.000	-0.052	-0.238
-210.479	-106.354	-0.222	-0.049
-209.465	-98.337	0.267	-0.068
-208.450	-200.000	-0.029	-0.231
-207.436	-63.607	0.215	-0.088
-206.421	-200.000	-0.056	-0.310
-205.406	284.677	-0.117	0.209
-204.392	284.452	0.097	0.173
-203.377	-93.085	0.204	0.056
-202.363	800.000	-0.082	-0.340
-201.348	24.225	0.077	-0.063
-200.333	703.717	0.046	0.121
-199.319	-26.647	-0.215	0.124
-198.304	800.000	-0.030	0.087
-197.290	39.802	-0.066	-0.058
-196.275	-7.504	0.216	0.145
-195.260	-200.000	0.006	0.103
-194.246	-50.214	0.238	0.111
-193.231	800.000	0.040	0.166
-192.217	-200.000	0.038	0.345
-191.202	-96.568	-0.242	-0.063
-190.187	-82.380	0.217	0.070
-189.173	10.928	0.059	-0.045
-188.158	-54.551	0.414	-0.185
-187.144	100.471	0.084	-0.097
-186.129	-200.000	0.019	0.155
-185.114	800.000	-0.058	0.250
-184.100	-5.476	-0.145	0.098
-183.085	800.000	0.100	-0.327
-182.071	145.262	-0.161	-0.213
-181.056	-29.762	0.016	0.009
-180.042	0.454	0.094	0.066
-179.027	-200.000	-0.031	-0.329
-178.012	338.890	-0.089	-0.171
-176.998	251.323	-0.080	0.134
-175.983	188.244	-0.146	-0.216
-174.969	-118.021	-0.246	0.043
-173.954	55.992	-0.196	-0.188
-172.939	-73.138	-0.126	-0.046
-171.925	-31.670	0.172	-0.096
-170.910	-172.448	-0.228	0.007
-169.896	133.186	-0.064	0.081
-168.881	432.592	0.160	-0.343
-167.866	800.000	-0.139	-0.399
-166.852	-173.990	0.155	0.004
-165.837	800.000	-0.080	0.302
-164.823	-171.380	0.241	-0.008
-163.808	-200.000	-0.072	-0.387
-162.793	168.105	-0.188	0.264
-161.779	-68.847	0.178	0.068
-160.764	237.292	0.040	-0.066
-159.750	-200.000	-0.066	-0.386
-158.735	45.800	-0.058	0.053
-157.720	-146.646	-0.084	-0.007
-156.706	-52.525	0.098	-0.045
-155.691	637.498	0.020	-0.050
-154.677	32.330	-0.195	-0.166
-153.662	-106.081	0.225	0.050
-152.647	-2.298	0.287	-0.199
-151.633	-70.785	0.043	0.016
-150.618	-109.118	-0.275	-0.058
-149.604	52.309	0.213	-0.200
-148.589	59.692	0.079	-0.077
-147.574	-200.000	0.022	0.163
-146.560	478.105	0.044	-0.099
-145.545	800.000	0.099	-0.369
-144.531	136.174	-0.050	-0.064
-143.516	-179.549	-0.332	-0.007
-142.502	221.118	0.053	-0.084
-141.487	800.000	0.077	-0.234
-140.472	-200.000	-0.036	-0.318
-139.458	33.331	0.198	0.169
-138.443	-144.143	-0.229	-0.021
-137.429	-54.243	-0.309	0.139
-136.414	331.391	0.102	-0.193
-135.399	446.621	-0.046	0.100
-134.385	120.582	0.146	0.179
-133.370	800.000	-0.056	0.188
-132.356	434.568	0.178	0.383
-131.341	-96.513	-0.232	-0.060
-130.326	-200.000	0.052	-0.433
-129.312	-62.600	-0.393	0.161
-128.297	-126.457	0.388	-0.057
-127.283	-110.609	-0.216	-0.044
-126.268	800.000	0.065	0.243
-125.253	-115.377	-0.137	0.026
-124.239	109.967	-0.133	0.158
-123.224	-200.000	-0.001	0.094
-122.210	-139.023	0.139	0.015
-121.195	54.996	-0.096	-0.092
-120.180	13.076	-0.056	-0.043
-119.166	81.217	0.159	0.169
-118.151	293.092	0.088	-0.158
-117.137	238.909	0.040	-0.065
-116.122	5.919	-0.188	0.137
-115.107	-143.582	-0.347	0.033
-114.093	-163.235	0.268	-0.013
-113.078	-175.033	0.321	0.009
-112.064	227.794	0.143	0.229
-111.049	-200.000	0.054	0.254
-110.034	244.270	0.149	0.248
-109.020	-149.150	0.201	-0.016
-108.005	401.953	-0.201	0.417
-106.991	176.534	-0.100	0.144
-105.976	358.889	-0.218	-0.429
-104.962	83.862	-0.112	-0.120
-103.947	62.317	0.309	0.304
-102.932	-200.000	0.048	-0.259
-101.918	-40.951	-0.409	0.209
-100.903	-76.166	0.139	-0.049
-99.889	-32.870	-0.174	0.095
-98.874	65.799	0.073	-0.073
-97.859	11.092	0.164	0.124
-96.845	-42.279	0.124	-0.062
-95.830	67.863	-0.201	-0.203
-94.816	-104.169	-0.346	-0.079
-93.801	142.721	-0.106	0.139
-92.786	6.335	-0.210	-0.153
-91.772	32.096	0.037	0.032
-90.757	398.627	0.195	-0.402
-89.743	116.461	-0.132	-0.159
-88.728	-134.646	-0.134	-0.016
-87.713	153.058	0.050	0.067
-86.699	75.142	0.170	0.177
-85.684	15.334	-0.263	-0.203
-84.670	-79.810	0.053	0.018
-83.655	160.024	-0.169	-0.232
-82.640	322.442	-0.115	0.217
-81.626	-127.023	0.241	0.035
-80.611	166.930	-0.154	-0.215
-79.597	159.094	-0.132	0.181
-78.582	415.503	-0.032	0.067
-77.567	-200.000	-0.006	-0.220
-76.553	633.459	0.054	0.135
-75.538	744.515	-0.177	0.471
-74.524	-69.382	0.090	0.034
-73.509	51.093	-0.130	-0.122
-72.494	436.853	0.163	0.349
-71.480	-140.727	-0.354	0.036
-70.465	800.000	0.010	0.038
-69.451	363.862	0.095	-0.188
-68.436	-77.206	-0.024	-0.008
-67.422	-200.000	-0.014	0.172
-66.407	-49.282	-0.254	0.119
-65.392	-50.029	0.230	-0.107
-64.378	-200.000	-0.003	-0.092
-63.363	-168.428	0.375	-0.014
-62.349	-200.000	-0.001	-0.241
-61.334	31.058	-1.025	-0.865
-60.319	53.671	0.647	0.611
-59.305	-200.000	-0.061	-1.224
-58.290	164.419	0.836	1.161
-57.276	790.456	0.585	1.583
-56.261	-200.000	108.782	608.114
-55.246	453.540	1483.676	3233.949
-54.232	145.751	2666.435	3518.934
-53.217	97.335	2305.270	2605.875
-52.203	35.997	2057.169	1782.678
-51.188	31.462	1975.300	1671.245
-50.173	30.046	1958.812	1644.675
-49.159	46.795	2016.214	1844.231
-48.144	47.069	2032.913	1861.895
-47.130	32.041	1991.914	1690.248
-46.115	29.762	1980.832	1660.350
-45.100	29.644	1977.824	1656.697
-44.086	29.668	1975.565	1654.956
-43.071	29.541	1973.035	1651.633
-42.057	29.472	1971.275	1649.486
-41.042	29.643	1968.953	1648.995
-40.027	29.627	1967.249	1647.359
-39.013	29.557	1965.249	1644.996
-37.998	29.719	1962.746	1644.279
-36.984	29.635	1961.769	1642.650
-35.969	29.629	1959.971	1641.023
-34.954	29.611	1958.547	1639.611
-33.940	29.637	1956.853	1638.356
-32.925	29.711	1955.128	1637.500
-31.911	29.709	1953.210	1635.811
-30.896	29.727	1951.909	1634.818
-29.881	29.747	1950.632	1633.860
-28.867	29.723	1948.640	1631.919
-27.852	29.787	1947.074	1631.102
-26.838	29.783	1945.290	1629.506
-25.823	29.789	1943.589	1628.074
-24.809	29.785	1941.789	1626.467
-23.794	29.685	1940.328	1624.302
-22.779	29.821	1938.195	1623.639
-21.765	29.719	1936.412	1621.188
-20.750	29.655	1935.492	1619.793
-19.736	29.726	1933.490	1618.675
-18.721	29.709	1931.957	1617.176
-17.706	29.703	1930.369	1615.735
-16.692	29.760	1928.475	1614.578
-15.677	29.736	1927.162	1613.206
-14.663	29.716	1925.817	1611.844
-13.648	29.680	1924.617	1610.464
-12.633	29.748	1922.906	1609.556
-11.619	29.630	1922.241	1607.908
-10.604	29.786	1920.624	1607.852
-9.590	29.767	1918.920	1606.196
-8.575	29.708	1917.504	1604.435
-7.560	29.683	1916.875	1603.631
-6.546	29.655	1915.182	1601.904
-5.531	29.706	1914.058	1601.344
-4.517	29.789	1912.504	1600.698
-3.502	29.732	1911.641	1599.421
-2.487	29.736	1909.983	1598.004
-1.473	29.736	1909.090	1597.196
-0.458	29.759	1904.147	1593.192
0.556	26.975	1884.587	1562.973
1.571	22.451	1864.950	1507.909
2.586	18.265	1886.113	1488.548
3.600	17.162	1920.884	1506.085
4.615	16.850	1915.096	1498.652
5.629	14.765	1823.371	1409.175
6.644	11.114	1717.381	1298.091
7.659	8.962	1685.132	1256.757
8.673	8.567	1682.826	1251.836
9.688	8.679	1680.931	1251.190
10.702	8.606	1679.590	1249.507
11.717	8.409	1676.173	1245.319
12.731	8.771	1674.485	1246.775
13.746	11.513	1680.445	1272.495
14.761	15.516	1688.306	1309.616
15.775	17.306	1690.552	1325.205
16.790	16.867	1688.451	1320.026
17.804	15.725	1685.941	1309.057
18.819	14.771	1682.306	1298.707
19.834	14.096	1679.414	1291.117
20.848	13.821	1677.892	1287.703
21.863	13.646	1675.819	1284.646
22.877	13.247	1674.721	1280.596
23.892	13.115	1673.223	1278.318
24.907	12.975	1672.405	1276.494
25.921	12.969	1671.311	1275.499
26.936	13.062	1670.140	1275.212
27.950	13.073	1669.344	1274.579
28.965	13.107	1668.669	1274.211
29.980	13.075	1668.012	1273.350
30.994	13.129	1666.993	1272.878
32.009	13.193	1666.071	1272.553
33.023	13.302	1664.968	1272.433
34.038	13.265	1664.039	1271.326
35.053	13.302	1662.827	1270.574
36.067	13.249	1661.752	1269.234
37.082	13.204	1660.755	1268.018
38.096	13.174	1659.536	1266.742
39.111	13.280	1658.332	1266.520
40.126	13.191	1658.179	1265.614
41.140	13.235	1657.112	1265.022
42.155	13.154	1655.601	1263.138
43.169	13.027	1654.303	1261.061
44.184	13.062	1652.846	1260.106
45.199	12.986	1651.785	1258.606
46.213	13.000	1650.752	1257.821
47.228	13.018	1649.523	1256.910
48.242	13.006	1648.721	1256.096
49.257	13.117	1647.635	1255.995
50.271	13.078	1646.511	1254.736
51.286	13.159	1645.004	1254.094
52.301	13.132	1643.694	1252.773
53.315	13.171	1642.179	1251.805
54.330	13.222	1639.906	1250.346
55.344	13.055	1638.857	1248.176
56.359	13.053	1637.256	1246.832
57.374	13.062	1636.068	1245.881
58.388	13.058	1635.406	1245.242
59.403	13.039	1633.742	1243.720
60.417	12.907	1632.542	1241.703
61.432	12.933	1631.692	1241.138
62.447	12.942	1630.403	1240.121
63.461	12.943	1629.099	1239.021
64.476	12.922	1628.154	1238.040
65.490	12.945	1627.135	1237.328
66.505	12.853	1625.861	1235.561
67.520	12.789	1625.093	1234.389
68.534	12.963	1623.684	1234.510
69.549	12.921	1622.666	1233.312
70.563	12.892	1621.917	1232.414
71.578	12.867	1621.156	1231.542
72.593	12.928	1619.234	1230.425
73.607	12.881	1618.330	1229.285
74.622	12.807	1617.259	1227.808
75.636	12.846	1616.311	1227.270
76.651	12.870	1615.710	1226.883
77.666	12.776	1615.197	1225.687
78.680	12.812	1613.981	1224.924
79.695	12.825	1613.153	1224.280
80.709	12.868	1612.585	1224.062
81.724	12.877	1611.519	1223.209
82.739	13.023	1610.273	1223.237
83.753	12.987	1609.656	1222.395
84.768	13.078	1608.300	1221.933
85.782	13.123	1608.101	1222.007
86.797	13.191	1607.135	1221.667
87.812	13.202	1606.279	1220.988
88.826	13.167	1605.208	1219.806
89.841	12.977	1604.413	1217.694
90.855	13.054	1602.979	1217.063
91.870	13.104	1601.874	1216.487
92.884	13.135	1600.607	1215.646
93.899	13.106	1599.725	1214.657
94.914	13.136	1598.508	1213.842
95.928	13.220	1597.219	1213.375
96.943	13.250	1595.892	1212.478
97.957	13.231	1594.589	1211.243
98.972	13.190	1593.086	1209.692
99.987	13.152	1591.464	1208.074
101.001	13.248	1589.422	1207.120
102.016	13.197	1587.974	1205.545
103.030	13.134	1587.518	1204.630
104.045	13.204	1585.462	1203.473
105.060	13.200	1584.228	1202.402
106.074	13.144	1582.915	1200.891
107.089	13.165	1581.199	1199.634
108.103	12.994	1579.795	1197.224
109.118	12.943	1578.386	1195.679
110.133	12.986	1577.075	1194.895
111.147	12.998	1575.692	1193.826
112.162	12.928	1574.694	1192.455
113.176	12.963	1573.150	1191.440
114.191	12.992	1572.012	1190.680
115.206	13.099	1570.124	1189.911
116.220	13.044	1569.204	1188.713
117.235	13.025	1567.750	1187.372
118.249	13.072	1566.884	1186.951
119.264	12.966	1565.521	1185.053
120.279	13.007	1564.038	1184.114
121.293	12.897	1563.245	1182.621
122.308	12.943	1561.219	1181.313
123.322	12.978	1559.582	1180.222
124.337	12.917	1558.201	1178.635
125.352	12.863	1556.978	1177.223
126.366	12.917	1555.861	1176.659
127.381	12.975	1554.150	1175.672
128.395	12.965	1553.263	1174.825
129.410	12.898	1552.522	1173.687
130.424	13.029	1550.506	1172.991
131.439	13.025	1549.349	1171.983
132.454	12.999	1548.147	1170.787
133.468	13.088	1546.517	1170.082
134.483	13.160	1545.026	1169.357
135.497	13.062	1543.806	1167.638
136.512	13.098	1542.439	1166.754
137.527	13.125	1541.067	1165.803
138.541	13.027	1540.253	1164.392
139.556	13.107	1539.045	1163.944
140.570	13.148	1537.630	1163.057
141.585	13.117	1536.249	1161.694
142.600	13.177	1534.974	1161.047
143.614	13.234	1533.716	1160.389
144.629	13.347	1532.227	1159.958
145.643	13.298	1531.154	1158.698
146.658	13.309	1529.676	1157.556
147.673	13.377	1527.700	1156.428
148.687	13.256	1526.712	1154.733
149.702	13.245	1524.742	1153.064
150.716	13.281	1523.849	1152.538
151.731	13.202	1522.340	1150.748
152.746	13.230	1521.208	1149.985
153.760	13.182	1519.327	1148.126
154.775	13.140	1518.705	1147.266
155.789	13.287	1517.322	1147.141
156.804	13.275	1516.319	1146.195
157.819	13.368	1515.127	1145.834
158.833	13.275	1513.710	1144.022
159.848	13.381	1512.761	1143.936
160.862	13.499	1511.735	1143.875
161.877	13.478	1510.230	1142.489
162.892	13.422	1508.850	1140.956
163.906	13.335	1508.080	1139.676
164.921	13.279	1506.882	1138.282
165.935	13.284	1505.485	1137.159
166.950	13.370	1504.266	1136.728
167.964	13.293	1503.652	1135.636
168.979	13.459	1502.382	1135.714
169.994	13.362	1501.696	1134.432
171.008	13.250	1500.905	1132.965
172.023	13.397	1499.557	1132.854
173.037	13.538	1497.808	1132.395
174.052	13.464	1496.842	1131.064
175.067	13.506	1496.417	1130.929
176.081	13.491	1494.881	1129.561
177.096	13.392	1493.349	1127.630
178.110	13.414	1491.868	1126.561
179.125	13.409	1490.751	1125.582
180.140	13.420	1490.177	1125.131
181.154	13.447	1488.909	1124.255
182.169	13.453	1487.634	1123.233
183.183	13.385	1486.638	1121.921
184.198	13.606	1485.242	1122.267
185.213	13.658	1484.546	1121.993
186.227	13.563	1483.617	1120.547
187.242	13.710	1482.130	1120.317
188.256	13.608	1481.423	1118.998
189.271	13.668	1480.429	1118.553
190.286	13.724	1479.420	1118.065
191.300	13.692	1478.029	1116.704
192.315	13.468	1476.878	1114.227
193.329	13.455	1475.274	1112.827
194.344	13.394	1474.171	1111.487
195.359	13.398	1473.397	1110.831
196.373	13.529	1472.534	1110.967
197.388	13.491	1471.827	1110.074
198.402	13.638	1470.480	1109.948
199.417	13.672	1469.357	1109.231
200.432	13.746	1468.855	1109.249
201.446	13.756	1467.569	1108.243
202.461	13.944	1466.070	1108.268
203.475	13.897	1465.231	1107.221
204.490	13.969	1463.829	1106.544
205.504	13.943	1462.803	1105.496
206.519	13.875	1461.846	1104.225
207.534	13.908	1460.617	1103.418
208.548	13.800	1459.582	1101.824
209.563	13.808	1458.344	1100.841
210.577	13.800	1457.714	1100.216
211.592	13.832	1456.605	1099.493
212.607	13.907	1455.987	1099.429
213.621	13.919	1455.739	1099.220
214.636	14.077	1453.902	1098.786
215.650	13.974	1453.646	1097.813
216.665	13.999	1452.479	1096.997
217.680	14.037	1451.720	1096.575
218.694	14.070	1450.861	1096.052
219.709	14.119	1450.200	1095.777
220.723	14.165	1448.675	1094.831
221.738	14.133	1447.693	1093.781
222.753	14.073	1447.055	1092.806
223.767	14.004	1446.371	1091.740
224.782	14.042	1445.150	1090.974
225.796	14.086	1444.429	1090.623
226.811	14.240	1443.219	1090.618
227.826	14.250	1442.404	1089.972
228.840	14.162	1441.954	1088.960
229.855	14.138	1440.971	1087.961
230.869	14.167	1439.559	1086.991
231.884	14.205	1438.464	1086.316
232.899	14.195	1437.290	1085.271
233.913	14.075	1436.346	1083.676
234.928	14.099	1435.115	1082.811
235.942	14.010	1433.956	1081.258
236.957	14.146	1432.187	1080.714
237.972	14.049	1431.488	1079.462
238.986	14.075	1430.294	1078.635
240.001	14.070	1429.969	1078.262
241.015	14.088	1428.722	1077.338
242.030	14.126	1427.296	1076.414
243.045	14.209	1426.090	1075.950
244.059	14.280	1424.979	1075.472
245.074	14.235	1424.464	1074.701
246.088	14.312	1423.396	1074.296
247.103	14.298	1423.351	1074.078
248.117	14.257	1422.476	1073.056
249.132	14.360	1421.540	1072.920
250.147	14.442	1420.993	1072.937
251.161	14.563	1420.356	1073.143
252.176	14.651	1419.591	1073.035
253.190	14.597	1419.165	1072.271
254.205	14.702	1417.844	1071.853
255.220	14.725	1417.351	1071.534
256.234	14.780	1416.201	1070.920
257.249	14.738	1415.623	1070.121
258.263	14.842	1414.521	1069.854
259.278	14.689	1413.503	1068.012
260.293	14.773	1412.501	1067.696
261.307	14.742	1412.598	1067.477
262.322	14.787	1411.797	1067.067
263.336	14.802	1411.075	1066.522
264.351	14.836	1409.361	1065.350
265.366	14.934	1408.537	1065.255
266.380	14.966	1407.592	1064.652
267.395	14.946	1406.857	1063.872
268.409	15.033	1405.505	1063.310
269.424	14.862	1404.648	1061.479
270.439	14.858	1403.680	1060.632
271.453	14.886	1402.857	1060.090
272.468	14.946	1401.972	1059.713
273.482	14.920	1401.011	1058.725
274.497	14.844	1400.375	1057.673
275.512	14.869	1399.310	1056.931
276.526	14.896	1398.607	1056.476
277.541	14.915	1397.186	1055.430
278.555	14.939	1396.651	1055.083
279.570	14.919	1395.863	1054.267
280.585	14.974	1394.890	1053.786
281.599	15.055	1393.644	1053.264
282.614	15.097	1393.346	1053.206
283.628	14.969	1392.413	1051.604
284.643	14.900	1391.542	1050.418
285.657	14.985	1390.103	1049.773
286.672	15.026	1389.025	1049.127
287.687	15.013	1388.538	1048.583
288.701	15.008	1387.448	1047.635
289.716	15.015	1386.884	1047.160
290.730	15.064	1385.734	1046.509
291.745	15.132	1384.231	1045.705
292.760	15.033	1383.635	1044.546
293.774	15.021	1383.027	1043.919
294.789	15.106	1381.876	1043.485
295.803	15.269	1381.044	1043.779
296.818	15.387	1379.703	1043.411
297.833	15.234	1379.081	1041.891
298.847	15.180	1377.961	1040.617
299.862	15.176	1377.292	1040.001
300.876	15.268	1376.275	1039.708
301.891	15.141	1375.493	1038.239
302.906	15.346	1374.277	1038.496
303.920	15.369	1374.042	1038.372
304.935	15.418	1372.961	1037.767
305.949	15.366	1372.652	1037.120
306.964	15.446	1371.672	1036.783
307.979	15.407	1370.868	1035.843
308.993	15.495	1369.338	1035.135
310.008	15.420	1368.852	1034.213
311.022	15.455	1367.850	1033.579
312.037	15.457	1367.080	1032.919
313.052	15.489	1365.792	1032.054
314.066	15.564	1364.375	1031.351
315.081	15.453	1364.024	1030.313
316.095	15.416	1362.678	1028.977
317.110	15.384	1361.363	1027.696
318.125	15.378	1360.200	1026.690
319.139	15.391	1359.701	1026.304
320.154	15.462	1358.582	1025.800
321.168	15.474	1357.842	1025.226
322.183	15.353	1357.078	1023.822
323.197	15.414	1356.193	1023.436
324.212	15.517	1355.052	1023.114
325.227	15.543	1354.152	1022.501
326.241	15.527	1353.500	1021.818
327.256	15.540	1352.398	1020.973
328.270	15.545	1351.590	1020.305
329.285	15.588	1350.544	1019.685
330.300	15.552	1349.582	1018.655
331.314	15.575	1348.479	1017.870
332.329	15.511	1347.981	1017.015
333.343	15.590	1347.094	1016.732
334.358	15.451	1346.163	1015.099
335.373	15.618	1345.333	1015.397
336.387	15.665	1344.628	1015.056
337.402	15.747	1343.550	1014.649
338.416	15.779	1343.099	1014.409
339.431	15.710	1342.496	1013.449
340.446	15.801	1341.915	1013.469
341.460	15.754	1341.030	1012.424
342.475	15.936	1339.627	1012.373
343.489	15.885	1339.369	1011.779
344.504	15.901	1338.422	1011.073
345.519	15.917	1337.564	1010.432
346.533	15.926	1336.774	1009.797
347.548	16.024	1335.690	1009.477
348.562	16.088	1334.746	1009.056
349.577	16.024	1334.135	1008.122
350.592	16.038	1333.122	1007.352
351.606	16.039	1332.100	1006.500
352.621	15.907	1331.459	1005.138
353.635	15.949	1330.017	1004.212
354.650	15.982	1328.722	1003.337
355.665	15.948	1328.352	1002.768
356.679	15.998	1326.885	1001.868
357.694	15.927	1326.335	1000.942
358.708	16.068	1324.798	1000.532
359.723	16.058	1324.162	999.903
360.738	16.118	1323.013	999.305
361.752	16.055	1322.108	998.158
362.767	16.154	1320.788	997.660
363.781	16.094	1320.117	996.712
364.796	16.174	1319.174	996.380
365.810	16.103	1318.819	995.609
366.825	16.114	1318.399	995.266
367.840	16.298	1317.119	995.298
368.854	16.331	1316.822	995.179
369.869	16.363	1316.378	994.944
370.883	16.243	1316.415	994.174
371.898	16.349	1314.709	993.422
372.913	16.307	1313.887	992.467
373.927	16.388	1313.016	992.195
374.942	16.382	1312.005	991.313
375.956	16.383	1311.562	990.893
376.971	16.541	1310.644	991.041
377.986	16.304	1310.040	989.109
379.000	16.437	1309.147	989.124
380.015	16.479	1308.174	988.544
381.029	16.428	1307.814	987.888
382.044	16.435	1307.323	987.469
383.059	16.503	1306.256	986.975
384.073	16.685	1305.480	987.361
385.088	16.518	1304.791	985.781
386.102	16.576	1304.485	985.802
387.117	16.501	1303.677	984.668
388.132	16.604	1302.612	984.372
389.146	16.455	1302.022	982.974
390.161	16.432	1301.336	982.236
391.175	16.544	1299.991	981.782
392.190	16.584	1299.120	981.268
393.205	16.639	1298.403	980.962
394.219	16.707	1297.199	980.357
395.234	16.633	1296.140	979.045
396.248	16.552	1295.301	977.851
397.263	16.679	1293.480	977.127
398.278	16.622	1292.608	976.054
399.292	16.562	1291.504	974.785
400.307	16.518	1290.361	973.586
401.321	16.737	1289.009	973.739
402.336	16.725	1287.703	972.594
403.350	16.528	1287.252	971.036
404.365	16.658	1286.336	971.007
405.380	16.654	1285.547	970.302
406.394	16.749	1284.266	969.795
407.409	16.713	1284.304	969.532
408.423	16.753	1283.649	969.179
409.438	16.932	1282.759	969.444
410.453	16.905	1281.997	968.631
411.467	16.885	1281.034	967.704
412.482	16.898	1280.849	967.553
413.496	16.930	1280.515	967.396
414.511	17.062	1279.270	967.119
415.526	17.047	1278.503	966.369
416.540	17.062	1277.908	965.922
417.555	17.106	1277.420	965.714
418.569	17.133	1276.620	965.177
419.584	17.124	1275.752	964.388
420.599	17.099	1275.186	963.734
421.613	95.309	1354.155	1471.007
422.628	93.065	1365.611	1471.128
