DTS Sentinel unit serial number:	SN413079Multiplexer serial number:	ORYXHardware model number:	OX4-SRSoftware version number:	ORYX F/W v4.00 Oryx Data Collector v3.7.2.0data status	okinstallation	princeton_trtdifferential loss correction	single-endedforward channel	channel 4reverse channel	N/Adate	2019/09/15time	08:33:34forward acquisition time	60.00reverse acquisition time	0.00gamma	496.2192k internal	0.2305k external	0.2305temperature offset calibration	1.0025default loss term (dB/km)	0.3790temperature slope calibration	1.0000multiplexer offset coefficient	1.0000multiplexer slope coefficient	1.0000fibre end	0.00T internal ref (°C)	31.70T ext. ref 1 (°C)	4.97T ext. ref 2 (°C)	28.91length (m)	temperature (°C)	Stokes	anti-Stokes-747.200	85.246	-0.078	0.087
-746.185	507.440	0.135	0.319
-745.171	66.701	0.100	0.104
-744.156	120.955	-0.141	0.179
-743.142	-59.966	-0.109	-0.047
-742.127	800.000	0.048	0.140
-741.112	-160.713	-0.426	0.023
-740.098	58.160	-0.213	0.212
-739.083	-37.723	0.295	0.160
-738.069	75.443	-0.096	0.103
-737.054	800.000	-0.074	-0.274
-736.039	472.425	-0.112	-0.258
-735.025	295.688	-0.074	0.138
-734.010	-200.000	0.001	-0.219
-732.996	-186.110	0.414	-0.006
-731.981	-60.571	0.156	-0.067
-730.966	-200.000	0.016	-0.263
-729.952	-79.070	-0.278	0.096
-728.937	-88.458	-0.324	0.098
-727.923	66.302	-0.183	0.189
-726.908	-105.834	-0.218	0.050
-725.894	17.375	-0.171	-0.138
-724.879	-85.566	-0.160	-0.051
-723.864	-200.000	0.012	-0.090
-722.850	5.573	-0.207	-0.155
-721.835	98.343	0.114	-0.133
-720.821	-200.000	-0.088	-0.462
-719.806	-41.892	0.274	-0.143
-718.791	199.241	-0.038	-0.059
-717.777	-200.000	0.034	0.193
-716.762	-200.000	-0.046	0.354
-715.748	-61.421	0.195	0.083
-714.733	24.568	-0.319	-0.268
-713.718	44.559	0.081	-0.076
-712.704	168.423	-0.026	-0.037
-711.689	262.616	0.061	-0.107
-710.675	1.410	0.201	-0.147
-709.660	116.031	-0.211	0.263
-708.645	-158.694	0.319	0.019
-707.631	-52.773	0.185	-0.087
-706.616	-200.000	0.004	0.296
-705.602	-86.320	0.218	-0.068
-704.587	26.474	0.073	0.062
-703.572	337.756	0.077	0.152
-702.558	-34.210	0.348	-0.194
-701.543	800.000	0.054	-0.169
-700.529	800.000	-0.142	-0.444
-699.514	-200.000	0.034	-0.334
-698.499	211.707	0.074	-0.119
-697.485	-200.000	0.009	-0.122
-696.470	-91.479	0.198	0.057
-695.456	-15.189	-0.300	0.195
-694.441	-200.000	0.042	-0.229
-693.426	-172.539	-0.340	-0.011
-692.412	-200.000	0.006	0.147
-691.397	78.449	-0.155	0.168
-690.383	-81.451	0.142	0.047
-689.368	26.707	-0.191	0.163
-688.354	-111.253	0.132	0.027
-687.339	-200.000	-0.023	-0.106
-686.324	102.131	0.063	-0.075
-685.310	-200.000	-0.042	0.347
-684.295	-200.000	-0.050	0.243
-683.281	153.250	-0.106	0.148
-682.266	-144.124	0.101	-0.010
-681.251	-124.522	-0.243	0.038
-680.237	-200.000	0.042	-0.208
-679.222	-77.248	0.159	-0.056
-678.208	333.046	-0.043	0.085
-677.193	9.539	0.128	-0.099
-676.178	-110.583	0.299	-0.063
-675.164	-64.539	0.022	0.009
-674.149	68.117	-0.196	-0.204
-673.135	92.191	-0.319	-0.365
-672.120	73.740	0.152	-0.161
-671.105	361.481	0.056	-0.114
-670.091	-200.000	-0.014	0.231
-669.076	16.017	-0.192	0.154
-668.062	-104.014	0.082	-0.020
-667.047	110.737	-0.149	-0.182
-666.032	-200.000	0.022	0.109
-665.018	668.915	-0.149	0.392
-664.003	219.294	-0.131	-0.212
-662.989	-89.185	-0.355	-0.106
-661.974	-200.000	-0.008	-0.037
-660.959	-48.741	-0.210	0.102
-659.945	118.292	-0.028	0.034
-658.930	-200.000	0.061	-0.279
-657.916	39.798	-0.163	0.148
-656.901	370.858	0.081	-0.167
-655.886	-103.053	-0.381	0.092
-654.872	-200.000	0.076	-0.456
-653.857	-147.432	0.267	0.023
-652.843	18.559	0.249	-0.202
-651.828	-200.000	-0.003	-0.175
-650.814	-44.536	-0.366	-0.186
-649.799	-113.660	-0.182	0.036
-648.784	-123.691	-0.406	-0.065
-647.770	-147.269	-0.120	-0.010
-646.755	-50.852	-0.225	0.107
-645.741	800.000	0.018	-0.068
-644.726	-36.465	-0.143	0.078
-643.711	30.592	0.190	0.164
-642.697	-14.540	-0.411	0.268
-641.682	-58.188	0.290	0.128
-640.668	-98.446	0.312	0.081
-639.653	144.307	0.089	-0.121
-638.638	83.312	0.141	-0.156
-637.624	-4.113	-0.072	0.050
-636.609	52.101	-0.337	-0.326
-635.595	-38.489	-0.081	0.043
-634.580	-34.143	-0.150	0.084
-633.565	800.000	0.011	-0.030
-632.551	-80.958	0.298	0.100
-631.536	800.000	0.106	0.354
-630.522	587.954	0.089	-0.221
-629.507	-200.000	-0.003	-0.019
-628.492	-200.000	-0.035	0.179
-627.478	-157.364	-0.173	0.011
-626.463	96.022	0.147	-0.170
-625.449	-68.638	-0.216	0.085
-624.434	-58.443	0.027	0.012
-623.419	-107.113	0.141	0.031
-622.405	-200.000	0.016	-0.075
-621.390	-171.228	0.462	0.016
-620.376	-41.998	-0.107	-0.056
-619.361	-63.026	0.166	-0.070
-618.346	-120.585	0.105	0.018
-617.332	52.216	0.081	0.079
-616.317	780.202	-0.041	-0.115
-615.303	800.000	0.051	0.155
-614.288	-200.000	0.000	-0.049
-613.273	123.779	0.025	0.032
-612.259	-106.206	0.302	0.069
-611.244	-105.062	0.115	0.027
-610.230	800.000	0.020	0.066
-609.215	-26.158	-0.293	0.174
-608.201	-40.443	0.193	-0.101
-607.186	-200.000	0.011	0.165
-606.171	239.358	0.064	-0.108
-605.157	-39.697	0.156	-0.082
-604.142	-32.576	-0.027	0.015
-603.128	-200.000	0.004	-0.117
-602.113	-17.683	0.049	-0.031
-601.098	-20.465	-0.221	0.138
-600.084	-128.880	0.365	-0.052
-599.069	-38.674	0.352	-0.188
-598.055	800.000	0.008	0.030
-597.040	-153.531	-0.376	0.026
-596.025	-200.000	0.014	0.078
-595.011	-61.833	-0.254	0.108
-593.996	42.671	-0.137	0.127
-592.982	110.233	-0.061	-0.074
-591.967	88.181	-0.191	-0.215
-590.952	300.956	-0.122	-0.228
-589.938	800.000	0.035	-0.141
-588.923	-103.088	-0.267	0.064
-587.909	-200.000	-0.010	0.077
-586.894	-48.435	-0.257	-0.125
-585.879	65.674	-0.362	-0.371
-584.865	397.134	0.010	0.022
-583.850	134.897	-0.249	0.327
-582.836	-101.427	-0.282	-0.070
-581.821	773.319	-0.089	-0.245
-580.806	-53.608	-0.058	-0.027
-579.792	-169.890	0.251	0.009
-578.777	800.000	-0.093	-0.272
-577.763	-200.000	-0.030	-0.172
-576.748	105.755	0.018	0.022
-575.733	-200.000	-0.304	0.001
-574.719	-82.807	0.246	-0.080
-573.704	-126.258	-0.137	-0.021
-572.690	-68.944	-0.088	-0.034
-571.675	-34.633	-0.240	-0.133
-570.661	-70.728	0.142	0.054
-569.646	263.099	0.222	-0.389
-568.631	-93.653	0.127	0.035
-567.617	-110.069	-0.050	-0.011
-566.602	-41.993	0.154	0.080
-565.588	509.132	0.092	-0.217
-564.573	-106.186	0.296	-0.067
-563.558	15.518	0.175	0.139
-562.544	603.033	0.043	-0.107
-561.529	13.576	0.157	-0.123
-560.515	-64.795	-0.135	0.055
-559.500	-26.848	-0.179	0.106
-558.485	-50.749	-0.190	-0.090
-557.471	25.645	0.247	0.208
-556.456	26.102	0.250	0.211
-555.442	-9.978	0.186	0.125
-554.427	-124.312	-0.163	-0.026
-553.412	-139.412	-0.150	0.016
-552.398	146.311	0.220	-0.298
-551.383	69.564	0.152	0.158
-550.369	86.511	-0.057	-0.064
-549.354	81.063	0.157	-0.171
-548.339	-115.677	0.054	-0.010
-547.325	-0.041	0.213	0.153
-546.310	-131.647	0.237	0.031
-545.296	-52.652	0.119	-0.056
-544.281	800.000	-0.044	-0.157
-543.266	-140.959	0.454	0.047
-542.252	186.019	0.047	0.071
-541.237	-200.000	0.013	0.242
-540.223	-149.720	0.152	0.012
-539.208	-200.000	0.008	0.059
-538.193	84.701	-0.085	-0.094
-537.179	49.753	-0.350	-0.333
-536.164	-123.269	0.390	0.063
-535.150	-102.609	0.191	-0.046
-534.135	326.411	0.151	-0.293
-533.121	-164.796	-0.370	0.017
-532.106	-89.230	0.184	0.055
-531.091	-161.842	0.177	0.009
-530.077	800.000	0.007	0.020
-529.062	277.659	-0.202	0.363
-528.048	800.000	0.085	-0.246
-527.033	100.794	-0.192	-0.225
-526.018	-61.506	0.367	-0.156
-525.004	544.849	0.053	0.129
-523.989	491.064	-0.241	0.557
-522.975	80.252	0.155	0.168
-521.960	188.921	0.208	0.314
-520.945	-84.346	-0.229	-0.073
-519.931	158.062	-0.033	-0.046
-518.916	-68.278	-0.139	-0.054
-517.902	-95.356	0.407	0.110
-516.887	-58.794	-0.038	0.017
-515.872	-200.000	0.010	-0.213
-514.858	-185.420	-0.425	0.007
-513.843	504.298	0.016	0.037
-512.829	-2.150	0.134	-0.095
-511.814	48.205	0.123	0.116
-510.799	150.804	0.211	0.289
-509.785	121.859	0.107	-0.135
-508.770	800.000	-0.009	-0.032
-507.756	125.103	0.060	0.077
-506.741	48.116	-0.176	-0.166
-505.726	-61.091	0.417	-0.177
-504.712	800.000	-0.025	-0.073
-503.697	-69.628	-0.198	-0.076
-502.683	-71.272	-0.086	0.032
-501.668	124.063	0.074	0.094
-500.653	305.316	0.201	-0.377
-499.639	169.896	0.110	0.158
-498.624	-177.128	0.179	0.004
-497.610	-146.307	-0.336	0.030
-496.595	-136.022	-0.311	0.037
-495.581	18.292	-0.038	0.031
-494.566	-83.172	-0.146	-0.047
-493.551	239.193	-0.133	-0.223
-492.537	-200.000	0.007	0.226
-491.522	490.700	0.145	-0.334
-490.508	-113.602	0.040	0.008
-489.493	5.876	-0.305	-0.228
-488.478	201.321	-0.010	-0.015
-487.464	-200.000	0.037	0.260
-486.449	-86.377	0.155	0.048
-485.435	-200.000	0.043	-0.206
-484.420	800.000	-0.029	-0.129
-483.405	-92.928	-0.289	-0.081
-482.391	-92.522	0.288	-0.082
-481.376	800.000	0.064	0.259
-480.362	800.000	-0.051	-0.172
-479.347	-85.978	0.136	0.042
-478.332	449.337	-0.155	-0.344
-477.318	-200.000	-0.036	-0.365
-476.303	42.708	-0.207	-0.190
-475.289	527.576	-0.091	0.215
-474.274	800.000	-0.073	0.220
-473.259	147.106	0.190	0.257
-472.245	800.000	-0.064	0.262
-471.230	-200.000	0.023	0.336
-470.216	531.501	0.059	-0.141
-469.201	-200.000	-0.018	0.154
-468.186	-36.784	-0.409	-0.221
-467.172	359.024	0.058	0.117
-466.157	-74.844	0.195	0.070
-465.143	800.000	-0.095	-0.343
-464.128	-200.000	-0.006	0.041
-463.113	421.322	0.129	-0.278
-462.099	-31.270	0.078	-0.044
-461.084	9.097	0.027	-0.021
-460.070	81.770	-0.270	-0.294
-459.055	90.241	0.123	-0.138
-458.040	59.385	-0.010	-0.010
-457.026	-22.641	0.177	0.108
-456.011	139.013	-0.207	-0.273
-454.997	-200.000	0.017	0.127
-453.982	60.277	-0.031	0.031
-452.968	84.222	-0.090	-0.099
-451.953	-200.000	-0.038	0.193
-450.938	-169.930	0.393	0.014
-449.924	261.119	-0.091	0.159
-448.909	-82.959	0.221	-0.072
-447.895	29.241	0.200	0.171
-446.880	800.000	-0.079	0.298
-445.865	-13.381	-0.164	0.107
-444.851	769.434	0.083	0.227
-443.836	-200.000	0.031	0.172
-442.822	-1.514	-0.136	0.097
-441.807	166.372	-0.068	-0.097
-440.792	65.373	-0.149	0.151
-439.778	-158.504	0.054	0.003
-438.763	-200.000	-0.030	0.135
-437.749	-146.425	0.014	0.001
-436.734	-72.877	-0.143	-0.053
-435.719	170.381	0.251	0.361
-434.705	141.515	-0.278	0.370
-433.690	98.119	0.147	-0.171
-432.676	48.230	-0.201	-0.189
-431.661	-200.000	-0.045	0.345
-430.646	351.162	-0.072	-0.143
-429.632	27.046	-0.103	0.087
-428.617	-138.079	-0.072	0.008
-427.603	52.857	0.036	0.035
-426.588	-200.000	0.031	0.181
-425.573	-200.000	-0.028	-0.247
-424.559	-200.000	0.454	0.001
-423.544	-168.354	0.286	-0.011
-422.530	-130.429	0.149	0.020
-421.515	-200.000	-0.016	-0.296
-420.500	-70.832	-0.121	0.046
-419.486	-200.000	-0.007	0.041
-418.471	-11.784	-0.229	-0.151
-417.457	-1.623	-0.177	-0.125
-416.442	-200.000	0.045	0.212
-415.428	-94.060	0.160	-0.044
-414.413	359.150	-0.084	0.169
-413.398	737.889	-0.014	-0.038
-412.384	248.447	0.055	-0.093
-411.369	-167.779	0.139	0.006
-410.355	-128.134	-0.341	-0.049
-409.340	-108.955	0.158	-0.034
-408.325	94.821	0.026	-0.030
-407.311	-173.448	0.285	0.009
-406.296	39.290	0.066	-0.059
-405.282	33.776	0.225	0.197
-404.267	-49.284	-0.057	-0.027
-403.252	-59.763	0.387	0.167
-402.238	639.784	-0.063	0.161
-401.223	-200.000	0.051	0.377
-400.209	-28.544	0.238	-0.138
-399.194	-140.381	-0.175	-0.018
-398.179	450.234	0.130	-0.289
-397.165	800.000	0.080	-0.277
-396.150	121.629	0.102	-0.128
-395.136	-170.810	-0.156	0.005
-394.121	-106.059	-0.129	-0.029
-393.106	50.500	-0.016	-0.016
-392.092	237.729	0.184	-0.307
-391.077	-200.000	0.015	0.177
-390.063	173.029	0.130	0.188
-389.048	268.470	0.069	0.122
-388.033	356.598	-0.058	-0.117
-387.019	800.000	0.030	0.102
-386.004	84.975	0.051	-0.056
-384.990	81.314	0.091	-0.099
-383.975	19.502	-0.094	-0.076
-382.960	174.561	-0.057	-0.083
-381.946	-124.663	-0.282	0.044
-380.931	15.011	0.157	0.124
-379.917	154.586	0.238	-0.329
-378.902	20.882	-0.411	-0.335
-377.888	24.641	0.139	-0.115
-376.873	68.296	0.047	-0.049
-375.858	-144.310	-0.177	0.017
-374.844	77.787	0.013	-0.014
-373.829	303.277	-0.079	-0.146
-372.815	800.000	-0.031	0.106
-371.800	-43.058	-0.149	-0.076
-370.785	-53.020	-0.068	0.031
-369.771	166.426	0.082	-0.116
-368.756	61.924	0.147	0.147
-367.742	-200.000	-0.034	-0.181
-366.727	-28.379	-0.142	0.082
-365.712	-87.975	-0.097	0.029
-364.698	113.472	0.202	-0.246
-363.683	-80.292	-0.313	0.105
-362.669	-3.205	-0.258	-0.181
-361.654	137.677	0.081	-0.107
-360.639	-200.000	-0.014	0.072
-359.625	800.000	0.060	0.202
-358.610	683.404	0.035	0.091
-357.596	596.684	-0.078	-0.193
-356.581	800.000	-0.044	-0.189
-355.566	22.306	-0.330	-0.271
-354.552	33.329	0.342	0.297
-353.537	800.000	0.033	-0.114
-352.523	242.851	0.017	0.028
-351.508	-166.711	0.255	0.011
-350.493	46.110	-0.073	-0.068
-349.479	-112.370	0.136	-0.027
-348.464	421.123	0.068	-0.146
-347.450	64.919	0.251	0.254
-346.435	-34.288	0.189	-0.104
-345.420	76.252	-0.065	-0.069
-344.406	-200.000	-0.002	-0.126
-343.391	-102.152	-0.163	0.039
-342.377	-4.798	0.227	-0.157
-341.362	-29.354	-0.194	-0.111
-340.348	-25.359	-0.181	0.107
-339.333	-61.058	-0.249	0.105
-338.318	419.484	0.086	-0.185
-337.304	-200.000	-0.014	0.196
-336.289	-158.354	-0.200	-0.012
-335.275	5.347	0.245	-0.181
-334.260	-135.708	-0.252	-0.030
-333.245	58.635	-0.066	0.065
-332.231	-20.590	-0.070	0.043
-331.216	-60.797	0.198	-0.084
-330.202	-31.923	0.272	-0.152
-329.187	-2.790	0.201	-0.141
-328.172	2.445	-0.089	0.065
-327.158	800.000	0.122	-0.415
-326.143	208.062	-0.231	0.361
-325.129	-30.124	0.226	-0.129
-324.114	30.008	0.221	0.189
-323.099	800.000	-0.058	0.171
-322.085	232.052	-0.077	0.127
-321.070	800.000	0.100	0.349
-320.056	-200.000	0.002	0.084
-319.041	-200.000	-0.002	-0.183
-318.026	-124.386	-0.197	-0.031
-317.012	-0.492	0.304	-0.216
-315.997	-200.000	-0.229	-0.001
-314.983	115.726	0.140	-0.171
-313.968	800.000	0.042	0.155
-312.953	-96.996	0.132	0.035
-311.939	-77.878	0.066	-0.023
-310.924	294.910	0.059	0.108
-309.910	42.631	-0.192	-0.175
-308.895	81.452	-0.105	-0.113
-307.880	-200.000	0.003	-0.062
-306.866	-154.312	-0.261	0.018
-305.851	363.716	0.144	-0.290
-304.837	117.494	0.155	-0.191
-303.822	514.870	-0.189	-0.441
-302.807	108.996	-0.165	-0.198
-301.793	-200.000	-0.027	0.361
-300.778	105.328	-0.079	-0.093
-299.764	46.355	0.023	-0.021
-298.749	-27.471	-0.036	0.021
-297.735	236.982	0.167	0.276
-296.720	419.519	-0.047	0.101
-295.705	-58.916	-0.085	-0.037
-294.691	353.229	0.076	-0.151
-293.676	-35.342	0.201	0.109
-292.662	-4.372	-0.374	0.258
-291.647	800.000	-0.117	-0.362
-290.632	800.000	0.043	0.169
-289.618	-200.000	-0.010	-0.230
-288.603	51.029	0.165	0.156
-287.589	1.128	0.231	-0.166
-286.574	800.000	-0.015	0.046
-285.559	-200.000	-0.000	0.447
-284.545	-200.000	0.019	-0.199
-283.530	37.870	-0.203	-0.180
-282.516	510.805	-0.046	0.108
-281.501	-200.000	0.002	-0.220
-280.486	272.686	-0.117	-0.207
-279.472	25.101	0.191	-0.159
-278.457	-74.709	-0.249	0.089
-277.443	106.428	0.114	-0.135
-276.428	183.631	-0.031	0.046
-275.413	125.705	0.209	-0.264
-274.399	-200.000	-0.013	-0.075
-273.384	313.589	0.111	0.209
-272.370	56.703	-0.306	0.298
-271.355	35.523	-0.064	0.056
-270.340	418.432	0.023	0.049
-269.326	-108.439	0.376	0.081
-268.311	800.000	-0.095	0.270
-267.297	-121.222	-0.198	-0.033
-266.282	-36.281	0.235	-0.127
-265.267	600.895	-0.049	0.122
-264.253	347.658	0.028	0.056
-263.238	-200.000	-0.006	0.208
-262.224	-200.000	-0.031	0.173
-261.209	83.390	-0.066	-0.072
-260.195	258.825	0.047	-0.081
-259.180	368.340	0.045	0.091
-258.165	282.522	0.093	0.167
-257.151	288.852	0.073	0.131
-256.136	528.782	-0.067	-0.157
-255.122	167.694	0.071	-0.101
-254.107	7.474	-0.480	0.358
-253.092	-200.000	-0.028	0.405
-252.078	80.704	0.165	0.178
-251.063	-200.000	0.041	0.208
-250.049	83.563	0.042	-0.046
-249.034	123.526	-0.054	0.067
-248.019	-162.480	-0.088	0.004
-247.005	-133.856	-0.078	-0.010
-245.990	-200.000	-0.040	0.203
-244.976	-107.416	-0.397	-0.087
-243.961	800.000	-0.016	-0.064
-242.946	-200.000	-0.013	0.205
-241.932	533.994	-0.058	0.137
-240.917	43.339	0.066	-0.060
-239.903	-46.282	0.115	0.057
-238.888	-200.000	0.006	0.417
-237.873	-200.000	-0.010	0.304
-236.859	-130.576	0.095	-0.013
-235.844	-61.795	-0.304	-0.127
-234.830	36.298	0.147	0.129
-233.815	60.512	-0.201	-0.199
-232.800	347.755	-0.108	-0.212
-231.786	238.355	0.148	0.246
-230.771	-200.000	-0.030	0.187
-229.757	332.827	-0.124	-0.240
-228.742	-114.349	-0.205	0.039
-227.727	-161.977	-0.343	0.017
-226.713	-163.329	0.074	-0.004
-225.698	-143.430	0.125	-0.012
-224.684	347.915	-0.066	0.129
-223.669	664.051	-0.129	0.332
-222.655	-59.814	-0.245	0.105
-221.640	-11.978	-0.182	0.119
-220.625	-149.682	-0.082	-0.006
-219.611	800.000	-0.060	-0.177
-218.596	36.270	0.301	-0.265
-217.582	-200.000	0.041	-0.297
-216.567	451.556	-0.197	-0.435
-215.552	-200.000	-0.007	-0.146
-214.538	-200.000	-0.033	-0.257
-213.523	377.788	-0.059	-0.119
-212.509	56.414	-0.153	0.149
-211.494	264.653	-0.079	0.137
-210.479	16.643	-0.064	-0.050
-209.465	-20.942	0.316	0.193
-208.450	-181.312	0.033	0.001
-207.436	800.000	0.040	0.167
-206.421	29.103	-0.157	0.133
-205.406	-200.000	-0.033	-0.219
-204.392	-75.667	0.096	0.034
-203.377	83.295	-0.139	-0.151
-202.363	17.768	0.179	0.142
-201.348	-102.948	-0.136	-0.032
-200.333	-69.444	0.397	0.152
-199.319	-112.972	-0.170	0.033
-198.304	-4.414	0.045	0.031
-197.290	800.000	-0.038	-0.155
-196.275	100.099	-0.157	0.181
-195.260	800.000	0.092	0.261
-194.246	-200.000	-0.057	0.338
-193.231	-143.532	-0.120	-0.011
-192.217	-200.000	-0.051	-0.271
-191.202	-72.190	0.181	-0.067
-190.187	694.748	0.085	0.223
-189.173	-75.582	0.095	0.034
-188.158	-200.000	0.001	-0.105
-187.144	77.738	-0.182	0.193
-186.129	-200.000	0.062	0.353
-185.114	-200.000	0.030	0.130
-184.100	-200.000	0.058	-0.434
-183.085	83.912	0.276	-0.300
-182.071	593.202	-0.047	-0.115
-181.056	-200.000	-0.026	-0.159
-180.042	800.000	-0.047	-0.174
-179.027	-78.135	0.240	-0.082
-178.012	172.027	0.111	0.159
-176.998	515.771	0.058	-0.136
-175.983	-200.000	-0.022	0.153
-174.969	-200.000	-0.011	0.355
-173.954	244.727	0.078	0.131
-172.939	132.526	0.042	-0.054
-171.925	55.163	-0.069	-0.066
-170.910	-82.151	-0.149	0.048
-169.896	-197.908	0.116	-0.001
-168.881	-200.000	0.038	-0.219
-167.866	800.000	0.047	0.194
-166.852	-200.000	-0.002	0.171
-165.837	-200.000	-0.018	-0.185
-164.823	1.582	0.072	-0.052
-163.808	-99.979	-0.154	0.038
-162.793	77.942	0.171	0.181
-161.779	-80.531	-0.235	-0.078
-160.764	-118.954	-0.122	-0.021
-159.750	-44.426	0.260	0.130
-158.735	105.708	-0.198	-0.233
-157.720	-200.000	-0.020	-0.090
-156.706	11.881	-0.174	0.133
-155.691	-40.122	0.088	-0.045
-154.677	-35.426	-0.445	0.240
-153.662	-200.000	0.009	0.116
-152.647	-200.000	-0.043	0.196
-151.633	-200.000	-0.006	0.200
-150.618	-155.094	0.167	0.011
-149.604	409.757	-0.136	0.286
-148.589	-17.275	0.304	-0.191
-147.574	3.938	-0.211	0.153
-146.560	65.835	-0.068	0.069
-145.545	-127.193	-0.312	0.045
-144.531	238.477	0.146	0.240
-143.516	66.062	0.250	-0.252
-142.502	55.841	0.300	0.289
-141.487	-1.319	-0.087	0.061
-140.472	-29.985	0.059	0.033
-139.458	-28.182	0.214	-0.123
-138.443	578.639	0.030	0.073
-137.429	-137.712	-0.301	-0.034
-136.414	-85.785	0.193	0.059
-135.399	438.142	-0.018	0.038
-134.385	-200.000	0.120	-0.603
-133.370	69.178	-0.246	-0.251
-132.356	202.536	-0.132	-0.202
-131.341	85.317	0.307	-0.335
-130.326	-200.000	0.011	0.102
-129.312	-2.728	0.275	0.191
-128.297	241.522	0.073	-0.121
-127.283	86.592	0.078	0.086
-126.268	-28.347	-0.237	0.136
-125.253	26.657	-0.146	-0.121
-124.239	217.318	0.023	-0.036
-123.224	-139.589	0.262	-0.028
-122.210	-51.809	0.160	-0.074
-121.195	-200.000	0.004	0.174
-120.180	449.305	0.086	-0.188
-119.166	-200.000	0.025	-0.145
-118.151	129.830	0.205	0.260
-117.137	-102.646	-0.329	-0.078
-116.122	-34.089	-0.053	0.029
-115.107	-86.172	-0.128	-0.039
-114.093	-175.603	0.428	-0.011
-113.078	493.760	-0.129	-0.294
-112.064	-200.000	0.052	-0.263
-111.049	640.329	-0.042	0.106
-110.034	-152.572	0.235	0.017
-109.020	4.218	-0.320	-0.233
-108.005	71.231	-0.019	-0.020
-106.991	-172.068	0.209	0.007
-105.976	47.528	0.050	0.046
-104.962	-140.886	-0.133	0.014
-103.947	-167.514	-0.234	-0.009
-102.932	800.000	0.075	0.220
-101.918	51.384	0.181	0.170
-100.903	-134.355	0.165	-0.020
-99.889	73.686	-0.033	-0.034
-98.874	56.447	0.208	-0.201
-97.859	152.223	-0.239	-0.324
-96.845	-85.472	0.154	-0.048
-95.830	-140.401	0.219	-0.023
-94.816	800.000	0.066	0.228
-93.801	-138.874	0.369	-0.040
-92.786	-54.809	0.107	-0.048
-91.772	-33.919	0.383	0.209
-90.757	-50.937	0.160	-0.075
-89.743	-156.726	-0.086	-0.005
-88.728	-114.664	0.089	-0.017
-87.713	-49.626	0.232	0.110
-86.699	-200.000	0.012	-0.440
-85.684	-150.032	0.047	-0.004
-84.670	285.639	0.104	-0.185
-83.655	31.462	-0.176	-0.150
-82.640	-51.712	-0.226	-0.104
-81.626	800.000	0.044	0.146
-80.611	-200.000	-0.007	-0.068
-79.597	480.724	-0.082	0.184
-78.582	201.822	-0.123	-0.188
-77.567	135.568	0.132	0.171
-76.553	272.896	-0.050	0.088
-75.538	-142.974	-0.371	-0.036
-74.524	-39.084	-0.200	-0.104
-73.509	-172.498	0.200	0.006
-72.494	98.946	0.122	-0.139
-71.480	6.785	-0.136	-0.100
-70.465	800.000	0.046	0.157
-69.451	-88.252	0.372	0.110
-68.436	-85.744	0.235	0.072
-67.422	-138.607	-0.111	-0.012
-66.407	6.784	0.208	0.153
-65.392	-200.000	0.001	0.007
-64.378	168.100	0.194	-0.273
-63.363	470.131	-0.086	0.191
-62.349	-40.817	0.270	-0.138
-61.334	-7.639	-1.144	-0.767
-60.319	447.206	0.386	0.841
-59.305	201.161	-0.539	-0.822
-58.290	196.762	0.611	0.923
-57.276	325.914	0.738	1.400
-56.261	-200.000	96.177	603.337
-55.246	650.506	1387.518	3520.108
-54.232	190.696	2578.294	3840.126
-53.217	109.918	2315.849	2752.544
-52.203	38.502	2074.781	1832.580
-51.188	33.454	1989.234	1711.483
-50.173	31.787	1971.298	1681.051
-49.159	47.092	2020.120	1861.931
-48.144	48.428	2037.182	1889.708
-47.130	34.061	1999.861	1725.868
-46.115	31.704	1989.507	1695.555
-45.100	31.671	1986.225	1692.391
-44.086	31.546	1984.117	1689.403
-43.071	31.512	1981.473	1686.779
-42.057	31.475	1979.239	1684.475
-41.042	31.397	1977.904	1682.567
-40.027	31.545	1975.280	1681.600
-39.013	31.589	1973.342	1680.279
-37.998	31.616	1971.393	1678.793
-36.984	31.659	1969.974	1677.906
-35.969	31.588	1967.822	1675.370
-34.954	31.693	1965.885	1674.595
-33.940	31.681	1964.554	1673.284
-32.925	31.781	1962.807	1672.621
-31.911	31.829	1961.134	1671.559
-30.896	31.731	1959.620	1669.332
-29.881	31.663	1958.473	1667.682
-28.867	31.751	1956.449	1666.677
-27.852	31.806	1954.902	1665.781
-26.838	31.745	1953.161	1663.687
-25.823	31.777	1950.804	1661.903
-24.809	31.689	1949.726	1660.132
-23.794	31.716	1947.480	1658.398
-22.779	31.685	1946.012	1656.807
-21.765	31.587	1944.606	1654.677
-20.750	31.704	1942.535	1653.885
-19.736	31.702	1941.001	1652.488
-18.721	31.744	1939.161	1651.229
-17.706	31.709	1937.912	1649.789
-16.692	31.735	1935.521	1647.918
-15.677	31.700	1934.870	1646.990
-14.663	31.765	1933.194	1646.072
-13.648	31.692	1932.288	1644.595
-12.633	31.804	1930.700	1644.160
-11.619	31.771	1929.558	1642.834
-10.604	31.665	1928.485	1640.924
-9.590	31.698	1926.561	1639.513
-8.575	31.737	1924.561	1638.085
-7.560	31.764	1923.828	1637.629
-6.546	31.718	1922.190	1635.775
-5.531	31.651	1921.737	1634.740
-4.517	31.734	1920.038	1633.948
-3.502	31.727	1919.348	1633.242
-2.487	31.731	1917.842	1631.929
-1.473	31.795	1917.009	1631.710
-0.458	31.875	1912.455	1628.466
0.556	31.079	1894.200	1604.441
1.571	27.509	1876.073	1558.469
2.586	24.034	1899.875	1547.937
3.600	23.247	1936.289	1570.492
4.615	22.625	1931.447	1560.922
5.629	17.588	1829.311	1435.901
6.644	9.236	1712.065	1277.598
7.659	5.263	1676.660	1220.088
8.673	5.007	1673.545	1215.717
9.688	4.962	1672.127	1214.227
10.702	4.958	1670.387	1212.825
11.717	4.953	1667.029	1210.245
12.731	5.494	1666.701	1214.092
13.746	11.037	1680.487	1267.297
14.761	17.935	1694.943	1332.079
15.775	19.397	1695.020	1343.416
16.790	18.373	1691.855	1332.823
17.804	17.282	1688.082	1321.254
18.819	16.324	1684.944	1311.249
19.834	15.621	1682.920	1304.103
20.848	15.337	1681.221	1300.474
21.863	15.089	1679.479	1297.091
22.877	14.843	1678.045	1293.959
23.892	14.649	1676.462	1291.122
24.907	14.542	1675.548	1289.476
25.921	14.498	1674.932	1288.551
26.936	14.511	1673.425	1287.380
27.950	14.530	1672.505	1286.708
28.965	14.566	1671.926	1286.423
29.980	14.741	1671.139	1287.055
30.994	14.759	1670.184	1286.343
32.009	14.827	1669.109	1285.922
33.023	14.811	1668.610	1285.304
34.038	14.799	1667.506	1284.248
35.053	14.749	1666.216	1282.750
36.067	14.687	1665.328	1281.481
37.082	14.735	1663.488	1280.316
38.096	14.643	1663.002	1279.128
39.111	14.710	1662.086	1278.820
40.126	14.732	1661.238	1278.227
41.140	14.733	1660.675	1277.683
42.155	14.633	1658.866	1275.414
43.169	14.466	1657.527	1273.003
44.184	14.480	1656.177	1271.954
45.199	14.411	1655.035	1270.439
46.213	14.402	1653.937	1269.421
47.228	14.412	1653.241	1268.850
48.242	14.506	1652.268	1268.706
49.257	14.640	1650.657	1268.370
50.271	14.624	1649.184	1267.010
51.286	14.573	1648.205	1265.753
52.301	14.583	1646.743	1264.594
53.315	14.711	1645.035	1264.146
54.330	14.633	1643.670	1262.393
55.344	14.508	1642.439	1260.389
56.359	14.515	1640.876	1259.133
57.374	14.522	1640.059	1258.449
58.388	14.500	1638.842	1257.237
59.403	14.416	1637.776	1255.676
60.417	14.303	1636.414	1253.669
61.432	14.374	1635.070	1253.060
62.447	14.425	1633.969	1252.493
63.461	14.365	1632.710	1250.965
64.476	14.348	1631.591	1249.871
65.490	14.324	1630.628	1248.842
66.505	14.319	1629.754	1248.023
67.520	14.371	1627.653	1246.690
68.534	14.426	1627.043	1246.523
69.549	14.406	1626.553	1245.888
70.563	14.477	1625.016	1245.135
71.578	14.387	1623.813	1243.427
72.593	14.370	1622.654	1242.305
73.607	14.339	1622.008	1241.469
74.622	14.234	1620.762	1239.626
75.636	14.221	1619.874	1238.736
76.651	14.205	1619.545	1238.257
77.666	14.278	1618.236	1237.687
78.680	14.248	1617.690	1236.939
79.695	14.208	1616.747	1235.809
80.709	14.382	1615.650	1236.156
81.724	14.372	1615.032	1235.500
82.739	14.465	1613.941	1235.243
83.753	14.510	1612.846	1234.632
84.768	14.588	1611.858	1234.343
85.782	14.531	1611.895	1233.837
86.797	14.648	1610.808	1233.763
87.812	14.714	1609.523	1233.159
88.826	14.617	1608.736	1231.730
89.841	14.649	1607.077	1230.586
90.855	14.588	1606.380	1229.493
91.870	14.589	1605.162	1228.458
92.884	14.699	1604.314	1228.509
93.899	14.696	1604.089	1228.212
94.914	14.727	1601.759	1226.546
95.928	14.678	1600.531	1225.134
96.943	14.916	1599.317	1225.840
97.957	14.746	1597.992	1223.474
98.972	14.633	1596.535	1221.424
99.987	14.666	1595.073	1220.440
101.001	14.715	1593.263	1219.302
102.016	14.665	1592.107	1217.944
103.030	14.649	1590.635	1216.592
104.045	14.680	1589.430	1215.790
105.060	14.732	1588.126	1215.066
106.074	14.707	1586.496	1213.529
107.089	14.529	1585.264	1211.184
108.103	14.452	1583.257	1208.990
109.118	14.303	1582.487	1207.211
110.133	14.356	1580.832	1206.226
111.147	14.430	1579.094	1205.326
112.162	14.402	1578.140	1204.295
113.176	14.352	1576.944	1202.913
114.191	14.443	1575.433	1202.309
115.206	14.438	1574.577	1201.516
116.220	14.545	1572.799	1200.820
117.235	14.508	1571.566	1199.510
118.249	14.406	1570.597	1197.930
119.264	14.467	1569.352	1197.312
120.279	14.445	1568.124	1196.111
121.293	14.400	1566.283	1194.277
122.308	14.359	1564.442	1192.475
123.322	14.385	1563.453	1191.802
124.337	14.298	1562.328	1190.215
125.352	14.382	1560.722	1189.485
126.366	14.333	1559.437	1188.053
127.381	14.312	1558.638	1187.187
128.395	14.297	1557.768	1186.317
129.410	14.388	1556.075	1185.570
130.424	14.389	1554.211	1184.048
131.439	14.388	1553.630	1183.497
132.454	14.381	1552.473	1182.460
133.468	14.471	1550.372	1181.395
134.483	14.537	1548.814	1180.568
135.497	14.566	1547.738	1179.847
136.512	14.576	1546.493	1178.864
137.527	14.490	1545.269	1177.218
138.541	14.516	1544.358	1176.604
139.556	14.579	1542.505	1175.537
140.570	14.630	1540.917	1174.583
141.585	14.653	1539.593	1173.629
142.600	14.668	1538.873	1173.078
143.614	14.789	1537.747	1172.969
144.629	14.837	1536.344	1172.134
145.643	14.823	1535.200	1171.053
146.658	14.845	1533.567	1169.858
147.673	14.788	1532.294	1168.386
148.687	14.735	1530.717	1166.711
149.702	14.810	1528.702	1165.594
150.716	14.700	1527.368	1163.707
151.731	14.674	1525.844	1162.261
152.746	14.650	1524.766	1161.172
153.760	14.693	1523.383	1160.317
154.775	14.741	1522.370	1159.778
155.789	14.734	1521.375	1158.869
156.804	14.883	1519.532	1158.391
157.819	14.829	1518.433	1157.074
158.833	14.802	1517.630	1156.178
159.848	14.904	1516.028	1155.556
160.862	14.932	1514.948	1154.825
161.877	15.053	1513.910	1154.767
162.892	14.873	1512.921	1152.671
163.906	14.844	1511.566	1151.338
164.921	14.665	1510.230	1148.985
165.935	14.713	1509.232	1148.456
166.950	14.742	1508.074	1147.671
167.964	14.737	1507.159	1146.841
168.979	14.840	1505.997	1146.561
169.994	14.816	1504.831	1145.406
171.008	14.805	1503.941	1144.552
172.023	14.735	1503.021	1143.275
173.037	14.767	1502.019	1142.625
174.052	14.935	1500.507	1142.520
175.067	14.977	1499.807	1142.174
176.081	14.965	1497.764	1140.440
177.096	14.856	1496.782	1138.846
178.110	14.822	1495.545	1137.572
179.125	14.845	1494.162	1136.578
180.140	14.944	1493.376	1136.551
181.154	14.900	1492.232	1135.281
182.169	14.951	1491.260	1134.785
183.183	15.076	1489.848	1134.459
184.198	15.020	1488.812	1133.192
185.213	15.104	1487.691	1132.806
186.227	15.075	1487.377	1132.271
187.242	15.092	1485.670	1130.986
188.256	15.048	1484.994	1130.073
189.271	15.164	1483.854	1129.888
190.286	15.216	1482.448	1129.066
191.300	15.132	1481.952	1128.023
192.315	15.065	1479.962	1125.961
193.329	14.824	1479.037	1123.538
194.344	14.905	1477.764	1123.012
195.359	14.878	1476.765	1121.977
196.373	14.944	1476.178	1121.872
197.388	14.980	1475.063	1121.168
198.402	15.177	1473.772	1121.404
199.417	15.170	1473.205	1120.826
200.432	15.256	1472.010	1120.391
201.446	15.368	1471.179	1120.410
202.461	15.391	1470.002	1119.569
203.475	15.388	1469.256	1118.883
204.490	15.438	1467.841	1118.037
205.504	15.470	1466.855	1117.399
206.519	15.333	1465.885	1115.649
207.534	15.267	1464.235	1113.861
208.548	15.343	1463.413	1113.641
209.563	15.294	1462.667	1112.648
210.577	15.319	1461.379	1111.737
211.592	15.364	1460.411	1111.200
212.607	15.335	1460.006	1110.599
213.621	15.421	1459.379	1110.595
214.636	15.444	1458.540	1110.009
215.650	15.505	1457.033	1109.170
216.665	15.464	1456.092	1108.085
217.680	15.420	1455.964	1107.598
218.694	15.572	1454.966	1107.740
219.709	15.488	1454.383	1106.648
220.723	15.578	1453.021	1106.103
221.738	15.572	1452.100	1105.264
222.753	15.583	1451.049	1104.441
223.767	15.595	1449.854	1103.512
224.782	15.614	1449.009	1102.894
225.796	15.589	1448.966	1102.599
226.811	15.683	1447.691	1102.149
227.826	15.710	1446.968	1101.681
228.840	15.799	1445.145	1100.776
229.855	15.620	1445.033	1099.422
230.869	15.580	1443.621	1097.987
231.884	15.593	1443.023	1097.523
232.899	15.655	1441.609	1096.753
233.913	15.587	1440.333	1095.244
234.928	15.526	1439.386	1094.027
235.942	15.488	1438.195	1092.782
236.957	15.521	1437.050	1092.030
237.972	15.492	1435.793	1090.790
238.986	15.510	1434.753	1090.015
240.001	15.645	1433.569	1089.896
241.015	15.623	1432.676	1088.976
242.030	15.599	1431.789	1088.049
243.045	15.711	1430.277	1087.531
244.059	15.758	1429.449	1087.112
245.074	15.762	1428.700	1086.472
246.088	15.791	1428.181	1086.166
247.103	15.795	1427.237	1085.379
248.117	15.870	1426.412	1085.139
249.132	15.920	1425.663	1084.795
250.147	15.933	1425.380	1084.568
251.161	16.007	1424.697	1084.428
252.176	16.119	1423.887	1084.432
253.190	16.227	1423.357	1084.627
254.205	16.112	1422.556	1083.186
255.220	16.216	1421.569	1083.007
256.234	16.281	1420.673	1082.642
257.249	16.322	1419.827	1082.167
258.263	16.324	1419.124	1081.547
259.278	16.316	1417.816	1080.400
260.293	16.334	1417.286	1080.020
261.307	16.343	1416.291	1079.223
262.322	16.316	1415.864	1078.627
263.336	16.451	1414.996	1078.731
264.351	16.359	1414.099	1077.368
265.366	16.404	1413.269	1076.928
266.380	16.439	1412.049	1076.127
267.395	16.386	1411.433	1075.222
268.409	16.524	1409.920	1074.855
269.424	16.505	1409.093	1074.005
270.439	16.369	1408.485	1072.587
271.453	16.430	1407.224	1071.919
272.468	16.379	1406.309	1070.802
273.482	16.425	1405.514	1070.390
274.497	16.349	1404.672	1069.172
275.512	16.391	1403.940	1068.792
276.526	16.404	1402.696	1067.827
277.541	16.401	1402.035	1067.215
278.555	16.402	1401.097	1066.409
279.570	16.376	1400.405	1065.626
280.585	16.549	1398.992	1065.545
281.599	16.526	1398.590	1065.001
282.614	16.553	1397.902	1064.554
283.628	16.631	1396.411	1063.813
284.643	16.598	1395.451	1062.779
285.657	16.472	1394.034	1060.818
286.672	16.512	1393.626	1060.666
287.687	16.527	1392.753	1059.998
288.701	16.614	1391.053	1059.157
289.716	16.482	1390.705	1057.970
290.730	16.573	1389.879	1057.818
291.745	16.593	1388.988	1057.174
292.760	16.568	1388.095	1056.246
293.774	16.597	1386.915	1055.435
294.789	16.702	1385.863	1055.192
295.803	16.704	1385.387	1054.751
296.818	16.720	1384.608	1054.162
297.833	16.715	1383.199	1052.966
298.847	16.608	1382.465	1051.650
299.862	16.635	1381.748	1051.176
300.876	16.645	1380.583	1050.258
301.891	16.729	1379.360	1049.757
302.906	16.692	1379.447	1049.504
303.920	16.863	1378.045	1049.402
304.935	16.812	1377.694	1048.722
305.949	16.904	1376.723	1048.465
306.964	16.929	1376.009	1047.983
307.979	16.960	1375.243	1047.495
308.993	16.968	1374.063	1046.555
310.008	16.936	1373.475	1045.817
311.022	16.907	1372.480	1044.786
312.037	17.060	1370.862	1044.403
313.052	17.005	1370.644	1043.810
314.066	17.056	1369.280	1042.991
315.081	16.996	1368.057	1041.598
316.095	16.898	1367.396	1040.401
317.110	16.863	1366.124	1039.127
318.125	16.819	1365.139	1038.014
319.139	16.892	1364.487	1037.877
320.154	16.853	1363.497	1036.790
321.168	16.860	1362.522	1036.001
322.183	16.904	1361.677	1035.534
323.197	16.813	1360.731	1034.171
324.212	16.958	1359.438	1033.982
325.227	17.002	1358.464	1033.416
326.241	16.910	1357.812	1032.268
327.256	16.974	1357.085	1032.015
328.270	17.080	1356.163	1031.867
329.285	16.958	1355.644	1030.636
330.300	16.960	1354.699	1029.837
331.314	16.975	1353.742	1029.113
332.329	17.062	1352.623	1028.696
333.343	17.049	1351.452	1027.637
334.358	17.067	1350.772	1027.141
335.373	17.090	1350.371	1026.882
336.387	17.096	1349.357	1026.053
337.402	17.234	1348.402	1026.072
338.416	17.198	1347.754	1025.270
339.431	17.312	1347.028	1025.314
340.446	17.288	1346.417	1024.617
341.460	17.342	1345.327	1024.021
342.475	17.396	1344.575	1023.684
343.489	17.401	1343.908	1023.115
344.504	17.399	1343.103	1022.395
345.519	17.521	1341.844	1022.084
346.533	17.471	1341.101	1021.126
347.548	17.546	1340.211	1020.806
348.562	17.574	1339.227	1020.134
349.577	17.573	1338.512	1019.494
350.592	17.564	1337.643	1018.687
351.606	17.499	1336.749	1017.530
352.621	17.530	1335.413	1016.606
353.635	17.461	1334.319	1015.275
354.650	17.413	1333.698	1014.425
355.665	17.423	1332.299	1013.329
356.679	17.542	1331.269	1013.163
357.694	17.444	1330.439	1011.863
358.708	17.517	1329.368	1011.392
359.723	17.502	1328.325	1010.419
360.738	17.533	1327.639	1009.994
361.752	17.418	1327.004	1008.736
362.767	17.481	1325.389	1007.792
363.781	17.581	1324.642	1007.728
364.796	17.524	1324.143	1006.922
365.810	17.510	1323.353	1006.150
366.825	17.584	1322.981	1006.212
367.840	17.776	1321.732	1006.307
368.854	17.860	1321.038	1006.188
369.869	17.883	1320.442	1005.775
370.883	17.858	1319.840	1005.082
371.898	17.867	1319.285	1004.627
372.913	17.812	1318.223	1003.403
373.927	17.747	1317.137	1002.108
374.942	17.873	1316.259	1002.088
375.956	17.866	1315.701	1001.534
376.971	17.865	1315.124	1000.999
377.986	17.974	1313.754	1000.511
379.000	17.901	1313.174	999.553
380.015	18.070	1312.252	999.749
381.029	18.010	1311.783	998.954
382.044	17.971	1310.877	997.947
383.059	18.007	1310.592	997.852
384.073	18.112	1309.417	997.480
385.088	18.071	1308.851	996.725
386.102	18.096	1308.367	996.410
387.117	18.203	1307.535	996.313
388.132	18.098	1306.665	994.952
389.146	18.101	1305.583	994.055
390.161	17.993	1304.925	992.840
391.175	18.034	1304.080	992.346
392.190	17.908	1303.521	991.102
393.205	18.002	1302.417	990.719
394.219	18.131	1301.272	990.508
395.234	18.153	1300.250	989.773
396.248	18.074	1298.728	988.068
397.263	18.239	1297.175	987.752
398.278	18.134	1296.197	986.315
399.292	18.066	1295.378	985.212
400.307	17.987	1294.305	983.852
401.321	18.038	1293.337	983.327
402.336	17.991	1292.419	982.267
403.350	18.012	1291.409	981.538
404.365	18.079	1290.099	980.835
405.380	18.163	1289.103	980.476
406.394	18.138	1288.337	979.660
407.409	18.135	1287.905	979.229
408.423	18.171	1287.628	979.140
409.438	18.331	1286.557	979.155
410.453	18.351	1285.437	978.327
411.467	18.315	1285.092	977.772
412.482	18.406	1284.824	978.004
413.496	18.411	1284.223	977.489
414.511	18.531	1283.182	977.293
415.526	18.352	1282.537	975.697
416.540	18.558	1281.971	976.349
417.555	18.716	1281.031	976.446
418.569	18.669	1280.140	975.412
419.584	18.577	1279.845	974.581
420.599	18.614	1279.389	974.358
421.613	139.114	1432.010	1792.736
422.628	133.961	1454.202	1792.834
