DTS Sentinel unit serial number:	SN413079Multiplexer serial number:	ORYXHardware model number:	OX4-SRSoftware version number:	ORYX F/W v4.00 Oryx Data Collector v3.7.2.0data status	okinstallation	princeton_trtdifferential loss correction	single-endedforward channel	channel 4reverse channel	N/Adate	2019/09/15time	01:53:35forward acquisition time	60.00reverse acquisition time	0.00gamma	496.2192k internal	0.2307k external	0.2307temperature offset calibration	1.0032default loss term (dB/km)	0.3790temperature slope calibration	1.0000multiplexer offset coefficient	1.0000multiplexer slope coefficient	1.0000fibre end	0.00T internal ref (°C)	31.77T ext. ref 1 (°C)	4.51T ext. ref 2 (°C)	26.71length (m)	temperature (°C)	Stokes	anti-Stokes-747.200	800.000	0.039	0.168
-746.185	-57.248	0.357	0.160
-745.171	800.000	0.071	0.221
-744.156	-179.240	-0.314	0.007
-743.142	756.642	-0.040	0.111
-742.127	-71.958	-0.249	0.094
-741.112	-200.000	-0.036	-0.207
-740.098	-175.426	0.357	0.010
-739.083	-40.562	-0.166	0.087
-738.069	97.369	-0.123	0.144
-737.054	-114.447	-0.304	-0.059
-736.039	-62.352	-0.189	-0.080
-735.025	-154.326	0.239	0.016
-734.010	-200.000	-0.029	-0.503
-732.996	-105.304	0.072	0.017
-731.981	-157.874	-0.143	0.009
-730.966	-119.245	-0.419	0.074
-729.952	41.667	-0.256	0.236
-728.937	-113.274	-0.195	0.039
-727.923	-129.484	-0.373	-0.053
-726.908	331.667	-0.070	-0.137
-725.894	102.533	0.362	-0.430
-724.879	-53.810	-0.082	0.038
-723.864	-146.914	-0.140	-0.012
-722.850	-200.000	-0.009	-0.166
-721.835	41.599	0.097	0.089
-720.821	45.943	-0.180	0.169
-719.806	-131.951	-0.308	0.041
-718.791	-200.000	0.053	-0.308
-717.777	168.724	0.087	0.125
-716.762	-47.136	-0.296	0.147
-715.748	-31.994	-0.132	0.075
-714.733	-200.000	-0.003	-0.066
-713.718	390.188	-0.061	-0.128
-712.704	-81.540	-0.147	-0.049
-711.689	-53.455	0.196	-0.091
-710.675	-6.190	0.112	0.078
-709.660	-33.998	0.295	0.165
-708.645	28.974	0.148	0.128
-707.631	-162.680	-0.086	0.004
-706.616	472.874	0.175	0.401
-705.602	-89.025	0.108	0.032
-704.587	-38.812	-0.035	0.019
-703.572	80.912	-0.086	-0.094
-702.558	-131.718	0.040	-0.005
-701.543	294.661	-0.126	0.233
-700.529	-97.484	0.290	0.077
-699.514	751.158	-0.071	0.193
-698.499	422.069	-0.092	0.200
-697.485	-127.158	-0.358	0.053
-696.470	-200.000	-0.013	-0.121
-695.456	-200.000	-0.011	-0.403
-694.441	-110.256	-0.356	-0.075
-693.426	-44.893	0.224	-0.114
-692.412	413.331	0.106	-0.230
-691.397	-70.576	-0.222	0.085
-690.383	4.202	0.212	-0.158
-689.368	-92.805	0.263	-0.075
-688.354	148.619	0.108	0.147
-687.339	-48.875	-0.237	0.115
-686.324	-125.957	-0.194	0.030
-685.310	-112.345	-0.154	0.031
-684.295	-200.000	0.020	-0.194
-683.281	-146.525	-0.243	0.021
-682.266	-107.442	-0.065	-0.015
-681.251	52.627	-0.024	0.023
-680.237	4.922	-0.266	0.198
-679.222	291.994	-0.168	0.310
-678.208	-100.009	-0.259	0.065
-677.193	-200.000	0.001	0.163
-676.178	-200.000	0.003	-0.166
-675.164	-42.935	-0.209	-0.107
-674.149	-134.990	-0.213	0.026
-673.135	432.700	-0.146	-0.321
-672.120	315.899	0.106	-0.202
-671.105	-114.809	0.305	-0.059
-670.091	-51.349	0.059	-0.028
-669.076	-200.000	-0.095	-0.484
-668.062	120.496	-0.085	-0.107
-667.047	-68.326	-0.239	0.094
-666.032	125.412	0.116	-0.148
-665.018	-22.122	-0.182	-0.112
-664.003	-101.255	0.057	0.014
-662.989	-200.000	0.022	0.130
-661.974	-162.901	-0.144	-0.007
-660.959	-200.000	-0.005	-0.203
-659.945	68.595	0.212	-0.221
-658.930	-29.253	0.083	-0.048
-657.916	-200.000	0.007	-0.162
-656.901	800.000	0.076	-0.241
-655.886	-200.000	-0.031	0.206
-654.872	180.533	0.046	0.068
-653.857	-54.834	-0.249	-0.114
-652.843	-127.631	-0.181	0.027
-651.828	800.000	-0.077	-0.341
-650.814	-200.000	0.006	-0.038
-649.799	-200.000	0.007	0.038
-648.784	364.190	0.177	-0.360
-647.770	-200.000	0.003	-0.044
-646.755	800.000	-0.055	0.168
-645.741	-143.007	-0.212	-0.021
-644.726	74.186	0.168	-0.179
-643.711	-60.754	0.097	-0.042
-642.697	-23.373	0.283	-0.172
-641.682	-26.397	0.175	-0.104
-640.668	-200.000	-0.019	0.155
-639.653	-154.406	-0.225	0.015
-638.638	-106.339	-0.384	-0.087
-637.624	-77.697	-0.121	-0.043
-636.609	800.000	-0.116	-0.356
-635.595	33.177	0.201	-0.177
-634.580	-113.626	-0.262	0.052
-633.565	-78.748	-0.097	-0.033
-632.551	-200.000	0.003	-0.154
-631.536	394.889	-0.063	-0.134
-630.522	-117.427	0.103	-0.019
-629.507	63.969	-0.044	0.045
-628.492	85.466	-0.157	0.174
-627.478	-200.000	0.064	-0.433
-626.463	-200.000	-0.011	-0.157
-625.449	65.453	0.059	-0.060
-624.434	-73.017	0.064	-0.024
-623.419	-99.212	0.354	-0.091
-622.405	55.804	0.133	-0.130
-621.390	129.295	-0.062	-0.080
-620.376	727.522	0.071	-0.192
-619.361	101.865	0.083	-0.098
-618.346	595.273	-0.085	0.214
-617.332	-83.757	-0.389	0.126
-616.317	83.353	-0.216	0.239
-615.303	-128.118	-0.416	0.060
-614.288	800.000	-0.128	0.359
-613.273	175.694	-0.098	0.144
-612.259	-71.405	0.242	0.091
-611.244	-200.000	0.042	-0.362
-610.230	-200.000	0.008	-0.305
-609.215	-200.000	0.434	0.001
-608.201	-200.000	0.002	0.017
-607.186	-200.000	0.008	-0.297
-606.171	800.000	-0.077	-0.235
-605.157	95.041	0.232	-0.267
-604.142	800.000	-0.005	0.018
-603.128	-32.439	0.352	0.198
-602.113	-66.295	0.193	0.078
-601.098	-143.307	-0.071	0.007
-600.084	204.368	0.021	0.033
-599.069	-127.123	0.204	-0.030
-598.055	66.328	-0.148	0.152
-597.040	-200.000	0.039	0.238
-596.025	21.063	0.180	0.148
-595.011	-200.000	0.053	-0.278
-593.996	169.319	-0.070	0.101
-592.982	581.574	0.132	-0.328
-591.967	110.052	0.122	-0.148
-590.952	4.230	0.126	-0.093
-589.938	-115.004	0.072	-0.014
-588.923	-67.546	-0.121	0.048
-587.909	-134.418	-0.146	-0.018
-586.894	-200.000	0.001	0.222
-585.879	53.412	-0.165	-0.160
-584.865	203.221	0.156	-0.243
-583.850	-82.693	0.196	0.064
-582.836	733.247	-0.019	-0.051
-581.821	-90.481	-0.155	0.045
-580.806	-140.177	0.146	0.015
-579.792	2.633	-0.059	0.043
-578.777	457.769	0.101	0.227
-577.763	-10.428	0.070	0.047
-576.748	800.000	-0.133	0.441
-575.733	-28.791	0.232	0.135
-574.719	-96.281	-0.252	0.067
-573.704	-106.681	-0.146	-0.033
-572.690	-113.847	-0.203	-0.040
-571.675	-132.632	0.030	0.004
-570.661	-200.000	0.001	-0.017
-569.646	356.128	0.289	-0.582
-568.631	-200.000	0.014	0.246
-567.617	-200.000	-0.033	0.207
-566.602	-53.414	-0.153	0.071
-565.588	239.952	0.088	0.149
-564.573	329.960	-0.040	0.078
-563.558	565.024	-0.084	-0.207
-562.544	-111.929	-0.071	0.014
-561.529	-90.674	-0.165	0.048
-560.515	-200.000	-0.032	-0.259
-559.500	517.338	-0.086	-0.204
-558.485	296.440	0.043	0.080
-557.471	120.541	-0.072	0.091
-556.456	-105.940	-0.313	-0.071
-555.442	-200.000	-0.028	-0.312
-554.427	63.919	0.128	-0.130
-553.412	459.846	0.056	0.126
-552.398	-44.737	0.334	-0.168
-551.383	800.000	0.076	-0.333
-550.369	264.370	-0.050	-0.088
-549.354	29.683	-0.076	-0.066
-548.339	92.918	0.218	0.249
-547.325	529.508	0.087	-0.207
-546.310	58.055	-0.352	-0.348
-545.296	-54.414	0.207	-0.095
-544.281	78.082	-0.337	-0.362
-543.266	-200.000	-0.044	0.315
-542.252	-200.000	-0.030	0.153
-541.237	150.418	0.175	-0.240
-540.223	-105.407	-0.383	-0.088
-539.208	46.970	-0.201	0.189
-538.193	217.663	-0.108	0.173
-537.179	110.814	0.265	-0.321
-536.164	2.886	0.253	-0.185
-535.150	-133.528	-0.283	-0.036
-534.135	-142.989	-0.216	-0.021
-533.121	-200.000	0.007	-0.123
-532.106	-200.000	0.017	0.088
-531.091	115.166	-0.240	-0.296
-530.077	9.454	0.209	-0.159
-529.062	-64.386	-0.127	-0.052
-528.048	129.256	0.191	0.245
-527.033	-80.487	-0.201	-0.068
-526.018	-137.542	-0.198	-0.023
-525.004	-74.189	0.312	0.114
-523.989	122.727	-0.072	0.091
-522.975	344.879	0.152	0.300
-521.960	683.470	-0.035	-0.093
-520.945	312.889	-0.113	-0.213
-519.931	-59.139	-0.241	0.105
-518.916	1.210	-0.314	-0.228
-517.902	30.833	0.335	-0.290
-516.887	118.215	-0.036	0.045
-515.872	-115.107	-0.230	-0.044
-514.858	-156.751	0.319	0.020
-513.843	136.369	-0.167	0.219
-512.829	-119.360	0.272	0.048
-511.814	248.328	-0.080	0.136
-510.799	800.000	-0.077	0.237
-509.785	-63.906	0.246	0.101
-508.770	-63.988	0.172	-0.071
-507.756	-79.988	-0.199	0.067
-506.741	106.322	0.188	-0.224
-505.726	800.000	0.020	-0.070
-504.712	800.000	0.086	0.373
-503.697	30.391	0.149	0.128
-502.683	27.574	-0.171	0.145
-501.668	-87.011	0.243	-0.074
-500.653	-168.364	0.108	-0.004
-499.639	131.771	0.053	0.069
-498.624	800.000	-0.180	0.591
-497.610	282.473	0.079	-0.143
-496.595	223.963	-0.089	-0.144
-495.581	-44.719	-0.054	-0.027
-494.566	-200.000	-0.043	-0.233
-493.551	143.563	-0.122	0.164
-492.537	-98.565	0.231	-0.059
-491.522	-142.410	0.339	-0.034
-490.508	-97.368	0.253	0.066
-489.493	-22.753	-0.285	-0.173
-488.478	-103.720	-0.390	-0.092
-487.464	-0.255	0.066	-0.048
-486.449	-150.491	0.150	-0.012
-485.435	60.413	0.207	0.206
-484.420	-10.671	-0.364	0.242
-483.405	119.342	-0.139	0.173
-482.391	-200.000	-0.020	-0.165
-481.376	31.728	-0.254	-0.220
-480.362	-200.000	0.005	-0.101
-479.347	-200.000	-0.028	0.231
-478.332	140.947	-0.163	0.217
-477.318	103.460	0.063	-0.074
-476.303	-136.370	0.157	-0.018
-475.289	-91.979	-0.419	0.119
-474.274	-200.000	-0.016	-0.149
-473.259	140.942	0.303	-0.403
-472.245	-200.000	0.007	0.274
-471.230	-18.504	-0.379	0.238
-470.216	-140.516	0.139	0.015
-469.201	-200.000	0.022	0.187
-468.186	33.410	0.220	0.192
-467.172	92.925	0.041	-0.047
-466.157	-47.280	-0.251	-0.123
-465.143	-72.372	-0.208	0.077
-464.128	-133.724	-0.226	0.028
-463.113	-200.000	-0.036	-0.383
-462.099	295.380	0.158	-0.290
-461.084	-88.458	-0.201	-0.060
-460.070	-10.170	-0.222	0.148
-459.055	800.000	-0.046	-0.158
-458.040	-114.267	0.093	-0.018
-457.026	800.000	0.076	-0.275
-456.011	-73.173	0.136	0.050
-454.997	30.752	0.165	-0.142
-453.982	-200.000	0.017	-0.334
-452.968	36.884	-0.025	0.022
-451.953	36.848	0.084	0.075
-450.938	219.023	0.030	0.047
-449.924	186.542	-0.170	0.255
-448.909	-200.000	-0.002	0.081
-447.895	503.832	0.165	-0.383
-446.880	86.773	-0.185	-0.205
-445.865	-141.572	-0.088	-0.009
-444.851	-70.020	-0.163	0.062
-443.836	111.423	-0.235	0.284
-442.822	-127.723	-0.139	-0.020
-441.807	54.324	-0.115	0.111
-440.792	-200.000	0.007	0.106
-439.778	800.000	-0.068	0.217
-438.763	411.884	0.140	0.298
-437.749	42.798	-0.036	-0.033
-436.734	106.095	-0.050	-0.060
-435.719	99.793	0.235	0.274
-434.705	-200.000	0.002	0.065
-433.690	-200.000	0.011	-0.298
-432.676	-200.000	0.040	-0.300
-431.661	65.650	0.227	0.231
-430.646	-110.766	-0.135	0.028
-429.632	-54.642	-0.156	0.071
-428.617	-13.702	-0.415	0.270
-427.603	800.000	0.057	-0.203
-426.588	-52.494	-0.246	-0.114
-425.573	-110.979	0.270	0.056
-424.559	-200.000	0.074	-0.414
-423.544	-145.759	0.169	-0.015
-422.530	259.243	0.134	0.233
-421.515	800.000	0.062	-0.265
-420.500	422.839	-0.089	0.191
-419.486	-200.000	0.027	-0.136
-418.471	-200.000	-0.035	-0.271
-417.457	421.277	0.105	-0.226
-416.442	-200.000	0.022	-0.169
-415.428	26.272	0.131	0.110
-414.413	-173.146	-0.462	-0.014
-413.398	229.311	-0.069	0.113
-412.384	157.122	0.102	-0.142
-411.369	174.230	0.060	0.087
-410.355	50.222	-0.167	0.158
-409.340	144.174	0.207	-0.277
-408.325	127.775	0.142	0.181
-407.311	-44.967	-0.113	-0.057
-406.296	246.478	0.032	0.054
-405.282	506.511	-0.100	0.232
-404.267	-200.000	0.028	-0.327
-403.252	-114.444	0.241	-0.046
-402.238	-22.833	0.444	0.269
-401.223	57.787	0.099	0.097
-400.209	262.717	0.158	0.275
-399.194	-98.825	0.259	0.066
-398.179	-200.000	0.014	0.065
-397.165	240.895	0.145	0.243
-396.150	-7.967	0.100	0.068
-395.136	-54.012	0.170	0.078
-394.121	800.000	-0.051	-0.150
-393.106	-36.469	0.234	-0.126
-392.092	-111.466	0.022	-0.004
-391.077	123.041	0.198	0.249
-390.063	66.538	0.173	0.177
-389.048	-200.000	-0.004	0.255
-388.033	56.134	0.086	-0.084
-387.019	-37.349	0.356	-0.191
-386.004	274.843	0.043	-0.077
-384.990	-107.368	-0.229	-0.050
-383.975	-110.211	0.142	-0.030
-382.960	-26.077	-0.246	0.145
-381.946	742.609	-0.066	0.179
-380.931	-57.030	0.283	0.125
-379.917	37.192	-0.053	-0.047
-378.902	446.046	-0.064	0.140
-377.888	9.915	-0.191	0.145
-376.873	800.000	0.040	0.120
-375.858	-47.315	0.123	0.060
-374.844	-86.340	0.176	0.054
-373.829	310.767	-0.146	-0.274
-372.815	-17.129	0.136	0.086
-371.800	33.082	0.051	-0.044
-370.785	666.255	-0.089	0.232
-369.771	129.453	-0.156	-0.199
-368.756	-24.205	-0.140	0.084
-367.742	-37.981	-0.183	0.097
-366.727	-200.000	-0.008	0.066
-365.712	-200.000	-0.009	0.283
-364.698	157.999	0.045	-0.062
-363.683	-200.000	0.013	-0.521
-362.669	800.000	-0.095	0.348
-361.654	-97.828	-0.231	-0.060
-360.639	-200.000	-0.013	0.077
-359.625	556.644	-0.055	0.134
-358.610	133.399	0.200	-0.259
-357.596	84.123	-0.052	0.057
-356.581	-38.708	-0.301	0.159
-355.566	-40.083	-0.258	0.135
-354.552	-86.204	-0.266	0.082
-353.537	-23.512	0.029	0.017
-352.523	72.446	-0.099	-0.104
-351.508	800.000	0.082	0.274
-350.493	800.000	-0.054	-0.201
-349.479	774.525	0.020	-0.056
-348.464	-11.985	0.249	0.163
-347.450	661.833	-0.067	0.173
-346.435	-200.000	-0.002	0.109
-345.420	-200.000	0.020	0.129
-344.406	-91.305	-0.114	-0.033
-343.391	-200.000	0.009	0.216
-342.377	-85.726	-0.339	0.105
-341.362	-75.353	0.162	-0.058
-340.348	-8.224	0.158	0.107
-339.333	-200.000	0.362	-0.001
-338.318	85.606	0.094	-0.103
-337.304	361.088	-0.265	0.532
-336.289	145.961	-0.013	-0.017
-335.275	74.224	-0.377	0.396
-334.260	207.854	0.137	0.214
-333.245	653.782	-0.048	-0.124
-332.231	186.005	-0.133	0.198
-331.216	-30.641	0.077	0.044
-330.202	52.562	0.298	0.284
-329.187	-38.094	-0.037	0.020
-328.172	520.843	-0.024	0.057
-327.158	114.078	0.161	-0.196
-326.143	-84.023	-0.135	-0.043
-325.129	141.302	0.187	0.247
-324.114	-129.012	0.123	0.017
-323.099	160.498	0.114	0.159
-322.085	-200.000	-0.002	0.018
-321.070	-184.313	-0.125	-0.002
-320.056	7.867	-0.144	-0.108
-319.041	-1.226	-0.104	0.073
-318.026	-119.956	-0.172	-0.030
-317.012	-119.695	0.224	0.039
-315.997	-26.574	-0.224	-0.131
-314.983	126.765	-0.164	-0.208
-313.968	202.710	0.154	-0.238
-312.953	-147.569	-0.171	-0.014
-311.939	-200.000	0.065	0.395
-310.924	-68.771	-0.374	0.145
-309.910	-200.000	0.011	-0.209
-308.895	0.567	0.218	-0.156
-307.880	38.103	-0.044	0.039
-306.866	-40.806	0.265	-0.137
-305.851	158.177	-0.130	-0.181
-304.837	127.654	0.136	0.172
-303.822	800.000	-0.070	-0.308
-302.807	-200.000	-0.013	-0.073
-301.793	199.080	-0.133	0.204
-300.778	-22.273	0.171	-0.104
-299.764	25.252	0.146	0.121
-298.749	116.062	-0.135	-0.166
-297.735	-200.000	0.028	0.350
-296.720	-200.000	-0.004	-0.132
-295.705	456.767	-0.113	0.250
-294.691	-200.000	-0.039	0.252
-293.676	-200.000	-0.013	-0.369
-292.662	-73.602	0.159	0.058
-291.647	-79.113	0.260	0.088
-290.632	800.000	0.027	-0.101
-289.618	-200.000	0.065	-0.496
-288.603	328.979	-0.085	-0.162
-287.589	4.211	0.282	-0.206
-286.574	120.339	-0.114	-0.141
-285.559	-105.390	0.075	0.017
-284.545	55.046	0.073	-0.071
-283.530	-59.876	-0.151	0.065
-282.516	345.088	0.180	0.352
-281.501	122.832	-0.160	-0.200
-280.486	800.000	-0.021	-0.061
-279.472	-200.000	-0.007	-0.153
-278.457	-135.232	0.196	0.023
-277.443	93.538	0.092	0.104
-276.428	-200.000	-0.013	-0.342
-275.413	-92.986	-0.158	0.044
-274.399	-65.227	0.112	0.045
-273.384	10.443	-0.084	-0.064
-272.370	-30.000	0.201	0.114
-271.355	-200.000	0.019	0.247
-270.340	-8.700	-0.287	-0.193
-269.326	-200.000	0.006	-0.057
-268.311	478.060	0.068	-0.153
-267.297	35.815	0.269	0.236
-266.282	800.000	-0.013	-0.055
-265.267	800.000	0.059	-0.220
-264.253	-32.803	-0.087	-0.048
-263.238	246.826	-0.352	0.592
-262.224	-174.498	-0.328	0.009
-261.209	-200.000	-0.037	0.373
-260.195	235.844	-0.083	-0.137
-259.180	-54.957	-0.306	-0.138
-258.165	-200.000	-0.009	-0.056
-257.151	-44.520	0.174	0.087
-256.136	-35.074	0.219	0.119
-255.122	246.293	-0.128	-0.215
-254.107	800.000	-0.054	0.188
-253.092	-160.809	-0.332	-0.018
-252.078	-57.557	0.237	0.104
-251.063	-124.744	-0.190	0.029
-250.049	800.000	0.074	-0.281
-249.034	146.203	-0.150	-0.200
-248.019	88.724	0.081	-0.090
-247.005	800.000	-0.049	0.198
-245.990	8.939	0.214	0.161
-244.976	404.743	0.018	0.038
-243.961	800.000	0.104	0.345
-242.946	-90.672	-0.277	-0.080
-241.932	122.077	0.103	-0.129
-240.917	182.245	-0.024	-0.036
-239.903	21.891	0.205	-0.167
-238.888	800.000	-0.058	-0.172
-237.873	66.828	0.166	-0.169
-236.859	-140.028	-0.177	-0.019
-235.844	-52.221	0.270	-0.125
-234.830	-59.032	-0.310	0.133
-233.815	-200.000	0.055	-0.270
-232.800	-110.871	0.118	0.024
-231.786	-93.365	0.355	0.098
-230.771	-44.533	0.122	-0.061
-229.757	-61.076	0.249	-0.105
-228.742	259.005	0.098	0.168
-227.727	4.491	0.178	0.130
-226.713	76.870	-0.278	-0.294
-225.698	-86.473	-0.205	0.063
-224.684	-99.201	-0.306	0.077
-223.669	-72.744	0.408	0.150
-222.655	-200.000	0.039	0.230
-221.640	800.000	-0.139	-0.401
-220.625	-39.292	-0.106	0.055
-219.611	-125.398	-0.003	-0.000
-218.596	-200.000	-0.041	-0.253
-217.582	-200.000	0.044	0.437
-216.567	162.022	-0.155	-0.216
-215.552	594.516	-0.140	-0.346
-214.538	800.000	-0.064	-0.247
-213.523	800.000	-0.059	0.233
-212.509	-8.120	-0.376	-0.253
-211.494	782.958	-0.075	0.204
-210.479	800.000	-0.069	0.227
-209.465	278.374	-0.184	0.326
-208.450	-76.382	0.259	0.091
-207.436	-49.130	0.173	-0.082
-206.421	800.000	0.023	0.088
-205.406	274.960	0.013	-0.023
-204.392	154.780	0.168	0.229
-203.377	-11.662	-0.067	0.044
-202.363	104.667	0.164	0.192
-201.348	391.230	-0.055	0.113
-200.333	-200.000	0.053	-0.333
-199.319	-90.564	0.317	0.091
-198.304	42.652	0.170	0.154
-197.290	524.675	-0.097	0.227
-196.275	-200.000	-0.062	-0.326
-195.260	-45.028	-0.033	-0.016
-194.246	302.783	-0.101	0.185
-193.231	800.000	-0.096	0.301
-192.217	370.274	0.171	-0.345
-191.202	199.700	0.044	0.067
-190.187	137.888	-0.072	0.094
-189.173	-105.840	-0.119	-0.027
-188.158	9.148	-0.210	0.158
-187.144	245.071	0.123	0.205
-186.129	-98.703	-0.063	-0.016
-185.114	114.994	-0.063	-0.077
-184.100	-108.191	0.136	-0.029
-183.085	-122.963	-0.259	-0.042
-182.071	3.649	-0.258	-0.187
-181.056	-175.903	-0.458	-0.012
-180.042	164.268	-0.094	-0.132
-179.027	40.231	0.075	0.067
-178.012	800.000	0.052	-0.158
-176.998	-31.574	-0.130	-0.073
-175.983	419.952	0.035	0.074
-174.969	-162.209	0.150	0.007
-173.954	2.126	-0.121	-0.087
-172.939	62.380	-0.201	0.200
-171.925	-0.947	0.225	0.158
-170.910	-51.805	0.184	0.085
-169.896	-36.183	-0.096	-0.052
-168.881	125.537	0.080	-0.101
-167.866	800.000	0.056	0.184
-166.852	287.187	0.132	-0.237
-165.837	-200.000	-0.017	0.138
-164.823	-48.359	0.080	-0.038
-163.808	800.000	-0.055	-0.177
-162.793	119.681	-0.089	0.109
-161.779	-200.000	0.064	-0.294
-160.764	162.530	0.104	-0.145
-159.750	8.540	0.267	0.200
-158.735	-200.000	-0.009	0.230
-157.720	-117.173	0.186	0.034
-156.706	-200.000	0.000	0.206
-155.691	-200.000	0.010	0.077
-154.677	-172.828	0.282	-0.009
-153.662	800.000	-0.016	-0.056
-152.647	134.997	0.090	0.116
-151.633	-24.172	0.417	-0.247
-150.618	799.567	-0.099	0.272
-149.604	206.572	-0.030	-0.046
-148.589	332.092	0.098	-0.188
-147.574	-60.812	0.101	-0.042
-146.560	-148.747	-0.316	-0.025
-145.545	-20.531	0.041	0.025
-144.531	-114.523	0.343	0.065
-143.516	800.000	-0.140	-0.498
-142.502	-131.410	0.459	-0.060
-141.487	674.590	0.032	0.083
-140.472	-69.077	0.080	-0.031
-139.458	-94.203	-0.430	-0.117
-138.443	111.874	-0.036	0.043
-137.429	110.075	-0.263	-0.314
-136.414	-95.847	0.449	0.119
-135.399	552.667	-0.019	-0.045
-134.385	800.000	-0.050	0.138
-133.370	-200.000	0.008	0.137
-132.356	-72.557	0.091	0.033
-131.341	119.128	0.336	0.412
-130.326	-179.578	-0.191	-0.004
-129.312	-59.718	0.124	0.053
-128.297	-79.507	0.249	0.083
-127.283	-38.041	0.447	0.235
-126.268	377.661	0.076	0.154
-125.253	-89.987	0.514	-0.149
-124.239	108.828	0.232	0.275
-123.224	-66.795	0.166	-0.065
-122.210	169.115	0.072	-0.102
-121.195	-190.995	0.132	-0.001
-120.180	301.492	0.190	0.348
-119.166	-64.869	-0.429	-0.172
-118.151	-104.722	-0.099	-0.023
-117.137	107.739	0.032	-0.038
-116.122	15.272	0.206	0.160
-115.107	-200.000	0.035	-0.176
-114.093	-200.000	0.136	-0.000
-113.078	800.000	-0.019	-0.061
-112.064	30.740	0.102	-0.086
-111.049	16.919	-0.235	0.185
-110.034	-74.166	-0.315	0.113
-109.020	151.159	-0.065	-0.087
-108.005	278.757	-0.126	-0.223
-106.991	-92.473	-0.169	0.047
-105.976	53.317	-0.212	0.201
-104.962	622.713	0.092	-0.230
-103.947	-68.339	0.183	0.070
-102.932	387.118	0.026	0.052
-101.918	-31.221	0.123	-0.069
-100.903	-11.670	0.166	-0.108
-99.889	-98.880	0.102	0.026
-98.874	-120.007	-0.341	-0.058
-97.859	-89.518	0.082	0.024
-96.845	-200.000	0.030	-0.246
-95.830	-200.000	-0.003	-0.059
-94.816	-110.991	0.291	0.059
-93.801	222.277	-0.219	0.350
-92.786	-80.896	0.235	0.077
-91.772	324.388	-0.166	-0.314
-90.757	187.654	0.181	-0.268
-89.743	-127.069	0.384	-0.056
-88.728	-144.663	0.174	-0.016
-87.713	297.967	0.044	-0.079
-86.699	-132.522	-0.286	0.036
-85.684	-125.523	0.136	-0.020
-84.670	83.289	-0.216	-0.233
-83.655	688.355	-0.052	-0.134
-82.640	-184.739	-0.208	-0.003
-81.626	-200.000	-0.015	0.345
-80.611	41.045	-0.130	0.116
-79.597	30.342	0.080	-0.068
-78.582	408.529	0.111	-0.232
-77.567	-24.956	-0.259	-0.152
-76.553	572.811	-0.027	0.064
-75.538	-127.426	-0.156	-0.023
-74.524	-200.000	0.027	0.146
-73.509	57.933	-0.229	-0.222
-72.494	-200.000	-0.029	-0.340
-71.480	-133.284	-0.157	0.020
-70.465	-200.000	-0.040	-0.254
-69.451	-69.345	0.184	0.070
-68.436	-114.877	-0.389	-0.073
-67.422	-200.000	-0.005	0.307
-66.407	-51.394	0.268	-0.124
-65.392	-15.996	0.389	0.245
-64.378	800.000	-0.063	-0.212
-63.363	800.000	-0.031	0.112
-62.349	131.265	-0.052	-0.066
-61.334	56.606	-0.893	-0.860
-60.319	9.172	0.598	0.448
-59.305	-200.000	-0.136	-0.938
-58.290	608.758	0.417	1.031
-57.276	800.000	0.545	1.662
-56.261	-200.000	96.250	601.043
-55.246	639.656	1375.165	3462.941
-54.232	194.203	2561.402	3841.697
-53.217	110.245	2302.839	2737.238
-52.203	38.482	2064.919	1821.773
-51.188	33.538	1980.075	1702.578
-50.173	31.963	1961.676	1672.669
-49.159	46.825	2011.575	1849.727
-48.144	48.297	2029.552	1879.479
-47.130	34.148	1991.728	1717.837
-46.115	31.680	1981.608	1686.846
-45.100	31.674	1978.840	1684.370
-44.086	31.652	1975.839	1681.545
-43.071	31.591	1973.459	1678.904
-42.057	31.545	1971.076	1676.404
-41.042	31.582	1969.016	1674.913
-40.027	31.693	1966.789	1673.948
-39.013	31.700	1965.325	1672.696
-37.998	31.709	1963.362	1671.041
-36.984	31.704	1961.725	1669.539
-35.969	31.699	1959.707	1667.704
-34.954	31.804	1957.721	1666.888
-33.940	31.801	1955.981	1665.311
-32.925	31.787	1954.940	1664.230
-31.911	31.853	1952.967	1663.076
-30.896	31.826	1951.586	1661.592
-29.881	31.785	1950.287	1660.055
-28.867	31.834	1948.599	1658.988
-27.852	31.848	1946.171	1656.979
-26.838	31.805	1944.604	1655.198
-25.823	31.740	1942.551	1652.816
-24.809	31.731	1941.524	1651.790
-23.794	31.776	1939.594	1650.483
-22.779	31.816	1937.494	1648.980
-21.765	31.740	1935.862	1646.859
-20.750	31.777	1934.392	1645.872
-19.736	31.767	1932.576	1644.168
-18.721	31.830	1930.977	1643.298
-17.706	31.739	1929.386	1641.079
-16.692	31.760	1928.099	1640.101
-15.677	31.832	1926.554	1639.354
-14.663	31.749	1925.115	1637.343
-13.648	31.772	1924.203	1636.697
-12.633	31.784	1922.749	1635.501
-11.619	31.774	1921.515	1634.300
-10.604	31.801	1919.612	1632.857
-9.590	31.755	1918.704	1631.619
-8.575	31.737	1917.365	1630.253
-7.560	31.780	1915.897	1629.320
-6.546	31.678	1914.743	1627.386
-5.531	31.782	1913.062	1626.792
-4.517	31.743	1912.367	1625.804
-3.502	31.719	1911.362	1624.676
-2.487	31.727	1909.550	1623.135
-1.473	31.718	1909.210	1622.706
-0.458	31.751	1904.499	1618.926
0.556	30.835	1884.938	1591.770
1.571	26.692	1865.911	1540.426
2.586	22.905	1887.664	1525.608
3.600	21.835	1923.764	1545.222
4.615	21.303	1918.244	1535.972
5.629	16.388	1817.628	1414.244
6.644	8.401	1701.729	1261.118
7.659	4.808	1666.921	1207.392
8.673	4.555	1663.668	1202.967
9.688	4.504	1661.869	1201.170
10.702	4.462	1661.046	1200.140
11.717	4.519	1657.390	1197.836
12.731	4.876	1656.673	1199.962
13.746	10.094	1668.931	1249.135
14.761	17.092	1684.197	1314.831
15.775	19.303	1685.990	1333.234
16.790	18.416	1683.640	1324.406
17.804	17.464	1679.838	1313.954
18.819	16.354	1676.550	1302.711
19.834	15.711	1674.452	1296.006
20.848	15.486	1672.900	1292.961
21.863	15.246	1671.285	1289.753
22.877	14.951	1670.086	1286.446
23.892	14.762	1669.033	1284.063
24.907	14.644	1667.341	1281.742
25.921	14.633	1666.005	1280.520
26.936	14.699	1665.344	1280.405
27.950	14.749	1664.571	1280.076
28.965	14.722	1664.092	1279.392
29.980	14.752	1663.541	1279.088
30.994	14.844	1662.257	1278.687
32.009	15.027	1660.906	1278.934
33.023	15.105	1660.063	1278.771
34.038	14.983	1659.477	1277.274
35.053	14.981	1657.998	1276.003
36.067	14.942	1657.377	1275.119
37.082	14.969	1655.720	1273.938
38.096	14.875	1654.756	1272.366
39.111	14.947	1654.092	1272.289
40.126	14.938	1653.466	1271.625
41.140	14.893	1652.368	1270.332
42.155	14.821	1650.908	1268.547
43.169	14.673	1649.405	1266.156
44.184	14.612	1648.127	1264.603
45.199	14.551	1647.044	1263.200
46.213	14.677	1645.801	1263.088
47.228	14.691	1644.302	1261.927
48.242	14.681	1643.780	1261.343
49.257	14.791	1642.871	1261.363
50.271	14.859	1641.336	1260.588
51.286	14.801	1640.224	1259.179
52.301	14.788	1638.850	1257.915
53.315	14.768	1638.083	1257.068
54.330	14.847	1636.060	1255.999
55.344	14.765	1633.763	1253.509
56.359	14.670	1632.555	1251.756
57.374	14.688	1632.253	1251.552
58.388	14.650	1631.068	1250.249
59.403	14.755	1628.725	1249.122
60.417	14.573	1627.880	1247.006
61.432	14.564	1627.230	1246.329
62.447	14.613	1625.821	1245.505
63.461	14.584	1624.799	1244.395
64.476	14.613	1623.477	1243.488
65.490	14.445	1622.851	1241.654
66.505	14.463	1621.104	1240.339
67.520	14.500	1620.544	1240.077
68.534	14.460	1619.970	1239.232
69.549	14.555	1618.120	1238.410
70.563	14.519	1617.203	1237.332
71.578	14.588	1616.110	1236.897
72.593	14.481	1614.676	1234.894
73.607	14.407	1613.546	1233.379
74.622	14.399	1612.692	1232.554
75.636	14.389	1611.977	1231.824
76.651	14.386	1611.062	1230.994
77.666	14.437	1609.862	1230.348
78.680	14.450	1609.222	1229.846
79.695	14.459	1608.086	1228.930
80.709	14.511	1607.012	1228.384
81.724	14.553	1606.653	1228.314
82.739	14.586	1605.759	1227.767
83.753	14.683	1604.791	1227.625
84.768	14.754	1603.976	1227.421
85.782	14.804	1603.306	1227.166
86.797	14.947	1602.779	1227.705
87.812	14.929	1601.787	1226.702
88.826	14.842	1600.478	1224.955
89.841	14.796	1599.434	1223.704
90.855	14.855	1597.939	1222.887
91.870	14.861	1597.031	1222.130
92.884	14.875	1596.173	1221.466
93.899	14.807	1595.759	1220.546
94.914	14.911	1594.182	1219.990
95.928	14.976	1592.453	1219.032
96.943	15.000	1591.379	1218.275
97.957	14.939	1589.944	1216.628
98.972	14.956	1588.832	1215.788
99.987	14.917	1587.126	1214.097
101.001	14.880	1585.669	1212.601
102.016	14.831	1584.372	1211.148
103.030	14.913	1582.268	1210.025
104.045	14.883	1581.544	1209.152
105.060	14.830	1580.664	1207.988
106.074	14.863	1579.291	1207.071
107.089	14.777	1577.395	1204.896
108.103	14.629	1576.035	1202.681
109.118	14.523	1574.557	1200.687
110.133	14.636	1572.564	1199.869
111.147	14.556	1571.971	1198.736
112.162	14.593	1570.436	1197.727
113.176	14.578	1568.869	1196.321
114.191	14.676	1567.440	1195.824
115.206	14.670	1566.324	1194.820
116.220	14.598	1565.863	1193.850
117.235	14.596	1564.266	1192.515
118.249	14.584	1562.516	1190.989
119.264	14.591	1561.411	1190.092
120.279	14.628	1560.134	1189.276
121.293	14.587	1558.272	1187.460
122.308	14.567	1556.753	1186.055
123.322	14.448	1555.985	1184.520
124.337	14.506	1553.741	1183.116
125.352	14.534	1552.279	1182.101
126.366	14.530	1551.068	1181.043
127.381	14.479	1550.317	1180.008
128.395	14.494	1549.447	1179.348
129.410	14.546	1548.230	1178.681
130.424	14.549	1546.708	1177.439
131.439	14.624	1545.551	1176.988
132.454	14.630	1544.203	1175.899
133.468	14.674	1542.549	1174.845
134.483	14.648	1541.244	1173.560
135.497	14.707	1539.806	1172.774
136.512	14.700	1538.631	1171.729
137.527	14.791	1537.183	1171.163
138.541	14.805	1535.855	1170.141
139.556	14.742	1534.715	1168.733
140.570	14.828	1533.476	1168.287
141.585	14.823	1532.376	1167.311
142.600	14.889	1531.534	1167.024
143.614	15.035	1529.728	1166.566
144.629	14.995	1528.568	1165.297
145.643	15.023	1527.550	1164.613
146.658	15.005	1525.970	1163.177
147.673	15.052	1524.461	1162.250
148.687	14.946	1523.348	1160.565
149.702	14.862	1522.041	1158.886
150.716	14.867	1520.335	1157.521
151.731	14.808	1519.368	1156.268
152.746	14.840	1517.593	1155.038
153.760	14.952	1515.835	1154.370
154.775	14.918	1514.929	1153.347
155.789	14.957	1513.984	1152.796
156.804	14.988	1513.108	1152.241
157.819	14.975	1511.797	1151.047
158.833	14.995	1510.571	1150.150
159.848	15.079	1509.304	1149.662
160.862	15.160	1508.287	1149.337
161.877	15.153	1507.022	1148.224
162.892	15.116	1505.687	1146.854
163.906	14.966	1504.656	1144.937
164.921	14.890	1503.169	1143.186
165.935	14.800	1502.353	1141.851
166.950	14.854	1501.763	1141.668
167.964	14.975	1500.023	1141.073
168.979	15.015	1499.414	1140.784
169.994	14.984	1498.103	1139.471
171.008	15.053	1496.995	1138.996
172.023	14.942	1496.392	1137.682
173.037	15.073	1495.140	1137.519
174.052	15.102	1493.661	1136.489
175.067	15.259	1492.888	1136.869
176.081	15.081	1492.049	1134.920
177.096	14.996	1490.590	1133.139
178.110	14.971	1489.063	1131.703
179.125	15.013	1487.985	1131.069
180.140	15.139	1486.905	1131.003
181.154	15.129	1485.715	1129.927
182.169	15.202	1484.574	1129.450
183.183	15.112	1483.714	1128.091
184.198	15.200	1482.569	1127.711
185.213	15.267	1481.488	1127.242
186.227	15.363	1480.055	1126.695
187.242	15.343	1478.968	1125.634
188.256	15.357	1478.127	1124.991
189.271	15.342	1477.382	1124.223
190.286	15.410	1476.220	1123.692
191.300	15.224	1475.342	1121.684
192.315	15.171	1473.856	1120.101
193.329	15.014	1472.250	1117.733
194.344	15.055	1471.028	1116.977
195.359	14.979	1470.602	1116.047
196.373	15.030	1469.366	1115.354
197.388	15.215	1468.472	1115.806
198.402	15.244	1467.610	1115.245
199.417	15.431	1466.478	1115.526
200.432	15.551	1465.284	1115.321
201.446	15.553	1464.233	1114.432
202.461	15.600	1463.343	1113.968
203.475	15.536	1462.537	1112.831
204.490	15.649	1461.254	1112.504
205.504	15.696	1460.076	1111.824
206.519	15.559	1459.315	1110.240
207.534	15.520	1457.827	1108.753
208.548	15.487	1457.070	1107.857
209.563	15.480	1455.449	1106.480
210.577	15.501	1454.592	1105.874
211.592	15.474	1454.126	1105.245
212.607	15.459	1453.317	1104.429
213.621	15.620	1453.097	1105.222
214.636	15.653	1452.022	1104.523
215.650	15.727	1450.478	1103.738
216.665	15.640	1449.813	1102.564
217.680	15.697	1448.994	1102.217
218.694	15.670	1448.791	1101.788
219.709	15.738	1447.821	1101.401
220.723	15.785	1446.548	1100.642
221.738	15.844	1445.441	1100.086
222.753	15.723	1444.622	1098.579
223.767	15.820	1443.623	1098.350
224.782	15.738	1442.619	1096.959
225.796	15.817	1441.763	1096.725
226.811	15.925	1440.886	1096.661
227.826	15.855	1439.989	1095.428
228.840	15.844	1439.650	1094.999
229.855	15.777	1438.631	1093.695
230.869	15.899	1437.406	1093.457
231.884	15.807	1436.189	1091.840
232.899	15.836	1434.935	1090.978
233.913	15.799	1433.816	1089.792
234.928	15.806	1432.618	1088.824
235.942	15.752	1431.278	1087.364
236.957	15.687	1430.225	1086.044
237.972	15.706	1429.410	1085.458
238.986	15.729	1428.170	1084.563
240.001	15.693	1427.590	1083.797
241.015	15.739	1426.286	1083.005
242.030	15.828	1424.751	1082.320
243.045	15.872	1423.922	1081.874
244.059	15.919	1423.413	1081.693
245.074	15.980	1422.315	1081.157
246.088	15.878	1422.016	1080.180
247.103	16.025	1421.004	1080.258
248.117	16.025	1420.255	1079.591
249.132	16.057	1419.839	1079.388
250.147	16.207	1419.201	1079.762
251.161	16.327	1418.524	1079.923
252.176	16.261	1418.128	1079.106
253.190	16.407	1416.846	1078.962
254.205	16.386	1416.044	1078.125
255.220	16.437	1415.501	1077.940
256.234	16.521	1414.629	1077.719
257.249	16.491	1413.887	1076.863
258.263	16.539	1412.988	1076.392
259.278	16.464	1412.178	1075.201
260.293	16.452	1411.001	1074.130
261.307	16.545	1410.032	1073.891
262.322	16.555	1409.723	1073.625
263.336	16.564	1408.959	1073.006
264.351	16.660	1407.863	1072.685
265.366	16.570	1407.207	1071.517
266.380	16.665	1405.826	1070.974
267.395	16.708	1404.758	1070.336
268.409	16.573	1404.283	1069.025
269.424	16.540	1403.292	1067.971
270.439	16.596	1401.734	1067.040
271.453	16.501	1400.997	1065.788
272.468	16.596	1400.031	1065.556
273.482	16.582	1398.897	1064.510
274.497	16.495	1399.020	1063.966
275.512	16.496	1397.614	1062.805
276.526	16.515	1396.944	1062.324
277.541	16.569	1395.593	1061.541
278.555	16.621	1394.669	1061.068
279.570	16.603	1394.139	1060.458
280.585	16.665	1392.705	1059.664
281.599	16.714	1392.262	1059.541
282.614	16.738	1391.421	1058.955
283.628	16.794	1390.319	1058.370
284.643	16.702	1389.403	1057.007
285.657	16.736	1388.281	1056.275
286.672	16.609	1387.563	1054.843
287.687	16.660	1386.745	1054.442
288.701	16.715	1385.252	1053.559
289.716	16.677	1385.214	1053.200
290.730	16.760	1383.957	1052.663
291.745	16.836	1382.900	1052.238
292.760	16.851	1382.138	1051.663
293.774	16.888	1381.121	1051.021
294.789	16.859	1380.156	1050.014
295.803	16.948	1379.598	1050.048
296.818	16.905	1379.001	1049.234
297.833	16.896	1377.501	1047.948
298.847	16.876	1376.710	1047.126
299.862	16.838	1375.598	1045.953
300.876	16.950	1374.579	1045.779
301.891	17.056	1373.390	1045.432
302.906	16.953	1372.959	1044.377
303.920	17.028	1372.142	1044.128
304.935	16.965	1371.894	1043.460
305.949	17.035	1370.896	1043.040
306.964	17.126	1369.934	1042.775
307.979	17.231	1369.045	1042.649
308.993	17.159	1368.252	1041.510
310.008	17.156	1366.886	1040.359
311.022	17.174	1366.313	1039.939
312.037	17.149	1365.336	1038.952
313.052	17.234	1364.711	1038.906
314.066	17.206	1362.955	1037.308
315.081	17.148	1362.233	1036.312
316.095	17.106	1361.090	1035.093
317.110	17.011	1360.190	1033.738
318.125	17.053	1359.539	1033.406
319.139	17.036	1358.333	1032.294
320.154	17.110	1357.208	1031.802
321.168	17.057	1356.382	1030.760
322.183	17.069	1355.697	1030.217
323.197	17.187	1354.358	1029.829
324.212	17.191	1353.580	1029.168
325.227	17.220	1353.104	1028.889
326.241	17.212	1351.690	1027.677
327.256	17.167	1351.126	1026.884
328.270	17.284	1350.089	1026.713
329.285	17.162	1349.520	1025.451
330.300	17.205	1348.285	1024.683
331.314	17.192	1347.533	1023.943
332.329	17.227	1346.494	1023.273
333.343	17.233	1345.506	1022.466
334.358	17.211	1345.221	1022.029
335.373	17.338	1343.879	1021.678
336.387	17.391	1342.989	1021.229
337.402	17.325	1342.971	1020.733
338.416	17.447	1342.064	1020.685
339.431	17.433	1341.324	1019.948
340.446	17.456	1340.766	1019.568
341.460	17.455	1339.786	1018.728
342.475	17.497	1338.990	1018.283
343.489	17.620	1338.056	1018.219
344.504	17.603	1337.122	1017.317
345.519	17.654	1335.929	1016.620
346.533	17.673	1335.193	1016.089
347.548	17.698	1334.679	1015.753
348.562	17.813	1333.571	1015.506
349.577	17.745	1332.984	1014.561
350.592	17.831	1332.264	1014.438
351.606	17.652	1331.029	1012.346
352.621	17.652	1329.555	1011.136
353.635	17.561	1328.859	1009.974
354.650	17.623	1327.986	1009.589
355.665	17.643	1326.784	1008.705
356.679	17.611	1325.995	1007.827
357.694	17.542	1325.296	1006.800
358.708	17.749	1323.918	1006.887
359.723	17.748	1322.574	1005.766
360.738	17.792	1321.775	1005.328
361.752	17.826	1320.654	1004.586
362.767	17.716	1320.004	1003.356
363.781	17.692	1319.374	1002.649
364.796	17.685	1318.706	1002.014
365.810	17.723	1318.023	1001.630
366.825	17.883	1317.064	1001.748
367.840	17.970	1315.939	1001.316
368.854	17.987	1315.595	1001.067
369.869	17.946	1315.214	1000.446
370.883	18.073	1314.589	1000.623
371.898	18.110	1313.679	1000.058
372.913	18.098	1312.755	999.198
373.927	17.942	1312.356	997.894
374.942	18.050	1311.151	997.523
375.956	18.079	1310.023	996.743
376.971	18.118	1309.373	996.388
377.986	18.133	1308.602	995.800
379.000	18.197	1307.483	995.235
380.015	18.216	1306.668	994.634
381.029	18.210	1306.597	994.456
382.044	18.163	1305.837	993.520
383.059	18.308	1304.883	993.549
384.073	18.254	1304.598	992.927
385.088	18.327	1303.534	992.453
386.102	18.377	1302.948	992.208
387.117	18.393	1302.248	991.680
388.132	18.343	1300.737	990.156
389.146	18.279	1300.463	989.487
390.161	18.165	1299.802	988.236
391.175	18.136	1299.029	987.397
392.190	18.153	1298.399	986.926
393.205	18.255	1297.068	986.415
394.219	18.306	1296.298	986.039
395.234	18.315	1295.258	985.209
396.248	18.220	1294.138	983.727
397.263	18.207	1292.336	982.197
398.278	18.232	1291.027	981.255
399.292	18.289	1289.902	980.639
400.307	18.213	1288.754	979.249
401.321	18.134	1288.116	978.223
402.336	18.240	1286.645	977.626
403.350	18.169	1285.981	976.631
404.365	18.229	1285.045	976.172
405.380	18.203	1284.192	975.292
406.394	18.287	1283.417	975.093
407.409	18.330	1282.787	974.772
408.423	18.438	1282.058	974.746
409.438	18.536	1281.603	974.875
410.453	18.475	1280.787	973.822
411.467	18.516	1279.931	973.314
412.482	18.548	1279.947	973.421
413.496	18.578	1279.053	972.827
414.511	18.670	1278.321	972.705
415.526	18.760	1277.005	972.127
416.540	18.763	1276.689	971.820
417.555	18.772	1275.990	971.252
418.569	18.809	1275.544	971.037
419.584	18.815	1274.821	970.432
420.599	18.704	1274.197	969.246
421.613	140.120	1431.516	1794.290
422.628	134.777	1454.406	1794.373
