DTS Sentinel unit serial number:	SN413079Multiplexer serial number:	ORYXHardware model number:	OX4-SRSoftware version number:	ORYX F/W v4.00 Oryx Data Collector v3.7.2.0data status	okinstallation	princeton_trtdifferential loss correction	single-endedforward channel	channel 4reverse channel	N/Adate	2019/09/12time	18:54:19forward acquisition time	15.00reverse acquisition time	0.00gamma	496.2192k internal	0.2308k external	0.2308temperature offset calibration	1.0140default loss term (dB/km)	0.3790temperature slope calibration	1.0000multiplexer offset coefficient	1.0000multiplexer slope coefficient	1.0000fibre end	0.00T internal ref (°C)	32.87T ext. ref 1 (°C)	3.05T ext. ref 2 (°C)	27.40length (m)	temperature (°C)	Stokes	anti-Stokes-747.200	-86.234	0.700	-0.219
-746.185	138.412	0.275	0.368
-745.171	-112.103	0.822	-0.168
-744.156	-104.385	0.593	0.140
-743.142	-42.093	-0.156	0.081
-742.127	800.000	0.236	-0.738
-741.112	-31.929	0.398	0.227
-740.098	189.227	-0.179	-0.273
-739.083	800.000	0.151	0.513
-738.069	382.158	0.342	-0.714
-737.054	-55.779	0.261	0.118
-736.039	800.000	0.067	0.283
-735.025	-74.703	-0.698	0.255
-734.010	-200.000	-0.106	-0.904
-732.996	21.252	-0.736	-0.607
-731.981	-108.231	0.637	0.140
-730.966	-200.000	-0.060	0.360
-729.952	-183.800	-0.214	-0.004
-728.937	145.928	0.373	-0.508
-727.923	89.160	-0.659	0.746
-726.908	-128.420	0.347	0.050
-725.894	-63.535	0.585	-0.244
-724.879	137.668	0.381	-0.507
-723.864	-11.877	-0.208	-0.138
-722.850	74.992	-0.355	-0.380
-721.835	57.007	0.448	0.444
-720.821	22.750	0.222	0.185
-719.806	-109.765	-0.988	-0.211
-718.791	-200.000	0.053	0.993
-717.777	-14.935	-0.603	0.393
-716.762	-6.141	-0.201	0.139
-715.748	191.093	-0.416	-0.636
-714.733	-143.114	-0.526	0.052
-713.718	220.071	-0.298	0.485
-712.704	22.445	0.503	-0.418
-711.689	111.404	0.588	-0.720
-710.675	800.000	0.075	-0.240
-709.660	-4.362	-0.161	0.113
-708.645	4.753	-0.428	-0.320
-707.631	800.000	0.106	0.304
-706.616	2.795	0.336	0.247
-705.602	95.902	-0.234	0.271
-704.587	-44.817	-0.126	-0.064
-703.572	148.370	-0.157	-0.216
-702.558	-37.671	-0.336	0.182
-701.543	-7.419	-0.864	0.594
-700.529	-200.000	-0.239	1.154
-699.514	-114.944	-0.816	0.158
-698.499	800.000	-0.273	-0.891
-697.485	-69.043	-0.877	0.343
-696.470	-86.254	0.219	-0.069
-695.456	-108.193	-0.530	0.116
-694.441	-106.759	0.181	-0.041
-693.426	81.037	-0.220	-0.241
-692.412	65.471	0.288	0.295
-691.397	-47.205	0.287	-0.142
-690.383	106.631	-0.533	0.642
-689.368	16.099	-0.549	-0.439
-688.354	76.770	-0.658	-0.708
-687.339	175.245	-0.081	0.119
-686.324	5.133	-0.666	-0.497
-685.310	-136.535	-0.458	0.054
-684.295	-120.577	-0.540	0.093
-683.281	124.753	-0.118	-0.151
-682.266	-91.142	-0.510	-0.148
-681.251	458.391	0.352	-0.794
-680.237	-145.492	-0.737	-0.067
-679.222	354.628	0.379	-0.765
-678.208	-200.000	-0.034	0.417
-677.193	-41.375	0.148	0.077
-676.178	-93.069	-0.772	-0.218
-675.164	29.174	-0.749	-0.645
-674.149	85.781	0.053	-0.059
-673.135	-27.597	0.479	-0.282
-672.120	201.671	0.113	-0.176
-671.105	-33.566	1.346	-0.753
-670.091	335.770	0.186	0.366
-669.076	-200.000	-0.058	0.277
-668.062	195.056	-0.138	-0.212
-667.047	686.191	-0.370	-0.980
-666.032	-54.847	-0.064	0.029
-665.018	-12.429	-0.651	0.431
-664.003	800.000	0.223	0.947
-662.989	-200.000	0.016	-0.155
-661.974	2.672	0.419	-0.308
-660.959	206.063	0.626	-0.987
-659.945	608.581	0.236	0.598
-658.930	-107.977	-0.792	-0.174
-657.916	-62.122	-0.477	0.202
-656.901	192.759	-0.163	0.249
-655.886	-116.724	-0.378	-0.070
-654.872	208.675	-0.157	-0.249
-653.857	13.403	-0.318	-0.250
-652.843	-200.000	-0.016	0.579
-651.828	-200.000	-0.183	-0.999
-650.814	121.223	0.346	-0.436
-649.799	800.000	-0.128	-0.543
-648.784	-121.436	-0.400	0.067
-647.770	-71.923	-0.208	0.078
-646.755	-47.103	-0.527	-0.260
-645.741	180.387	0.111	-0.165
-644.726	-192.611	0.838	0.008
-643.711	-80.393	-0.909	-0.307
-642.697	-200.000	0.011	-0.100
-641.682	31.535	-0.308	0.268
-640.668	-8.832	-0.770	0.523
-639.653	-49.413	0.707	0.341
-638.638	-78.696	0.297	-0.103
-637.624	-137.970	0.577	0.065
-636.609	800.000	0.114	0.324
-635.595	47.193	0.745	-0.702
-634.580	-200.000	0.011	-0.314
-633.565	-114.597	0.368	0.071
-632.551	-10.933	-0.522	-0.349
-631.536	-72.282	0.171	0.064
-630.522	497.797	0.007	-0.017
-629.507	84.041	0.547	-0.605
-628.492	649.966	-0.229	0.593
-627.478	-173.166	0.463	-0.014
-626.463	800.000	0.129	0.478
-625.449	17.168	0.138	-0.111
-624.434	-200.000	0.161	-1.046
-623.419	-200.000	0.000	-0.293
-622.405	-200.000	0.106	-0.689
-621.390	-118.998	-0.723	-0.128
-620.376	247.518	-0.497	-0.849
-619.361	800.000	0.120	0.463
-618.346	45.520	-0.801	-0.748
-617.332	-143.486	-0.780	-0.075
-616.317	-117.791	0.666	-0.121
-615.303	-107.220	0.293	-0.065
-614.288	-164.033	-0.578	0.027
-613.273	-65.144	0.262	0.107
-612.259	-36.625	-0.481	-0.262
-611.244	-37.481	-0.469	0.253
-610.230	-37.862	-0.487	-0.262
-609.215	800.000	-0.138	-0.587
-608.201	-108.665	0.628	-0.136
-607.186	-155.128	-0.261	-0.017
-606.171	800.000	-0.129	0.543
-605.157	-75.983	-0.243	0.087
-604.142	150.717	-0.134	-0.185
-603.128	800.000	0.248	-0.781
-602.113	-200.000	0.039	-0.528
-601.098	1.434	-0.426	0.310
-600.084	-4.647	0.417	-0.291
-599.069	-137.205	0.613	-0.071
-598.055	274.605	0.058	-0.104
-597.040	-40.925	-0.490	0.256
-596.025	613.013	-0.213	-0.539
-595.011	43.028	-0.552	0.509
-593.996	-37.418	-0.332	0.179
-592.982	-2.913	-0.431	0.304
-591.967	-200.000	0.045	0.535
-590.952	-16.362	-0.262	-0.168
-589.938	461.410	-0.208	-0.468
-588.923	136.727	-0.611	0.807
-587.909	800.000	0.077	0.295
-586.894	157.795	0.352	0.493
-585.879	-28.474	0.620	0.361
-584.865	-18.540	0.178	0.112
-583.850	-162.965	-0.949	-0.047
-582.836	-200.000	0.044	-0.434
-581.821	-78.081	0.372	0.129
-580.806	-112.827	-0.717	0.144
-579.792	62.690	0.633	-0.639
-578.777	137.706	-0.434	-0.575
-577.763	-132.398	0.426	0.055
-576.748	21.720	-0.415	-0.341
-575.733	220.871	0.226	-0.367
-574.719	800.000	0.180	-0.718
-573.704	-200.000	-0.002	-0.024
-572.690	78.332	-0.539	-0.581
-571.675	-64.494	-0.849	-0.348
-570.661	2.918	-0.324	-0.238
-569.646	-200.000	-0.030	0.192
-568.631	274.514	-0.580	-1.037
-567.617	-31.237	0.366	0.208
-566.602	-29.736	-0.343	-0.198
-565.588	-43.699	0.137	0.070
-564.573	-200.000	0.024	0.117
-563.558	312.566	0.186	-0.353
-562.544	-117.412	1.347	-0.246
-561.529	-77.783	-0.167	0.058
-560.515	313.154	0.199	-0.377
-559.500	8.649	-0.245	0.186
-558.485	-115.496	-0.228	-0.043
-557.471	163.920	0.279	0.396
-556.456	-200.000	0.054	0.838
-555.442	-200.000	-0.112	0.655
-554.427	-123.627	1.299	0.208
-553.412	-200.000	0.070	-0.626
-552.398	-117.748	-0.320	-0.058
-551.383	-162.320	-0.997	-0.050
-550.369	236.891	-0.254	0.425
-549.354	-200.000	-0.008	0.208
-548.339	-183.585	-0.568	0.010
-547.325	800.000	0.056	0.235
-546.310	13.448	0.078	0.061
-545.296	800.000	-0.070	-0.304
-544.281	-142.184	0.646	-0.065
-543.266	800.000	0.123	0.358
-542.252	6.308	0.745	0.557
-541.237	-85.360	0.484	0.152
-540.223	186.365	0.644	-0.967
-539.208	-66.910	0.380	-0.152
-538.193	78.348	0.380	0.409
-537.179	74.559	-0.532	-0.564
-536.164	260.759	0.221	-0.385
-535.150	-97.208	-0.588	0.155
-534.135	-68.689	-0.164	0.064
-533.121	-68.829	0.492	-0.192
-532.106	-114.721	0.435	-0.084
-531.091	198.569	0.441	-0.680
-530.077	800.000	0.140	0.590
-529.062	-58.023	0.292	-0.129
-528.048	-155.119	0.360	0.024
-527.033	-154.019	0.136	-0.009
-526.018	-200.000	0.110	0.893
-525.004	-34.036	0.226	0.125
-523.989	-132.623	0.062	0.008
-522.975	-102.076	-0.731	-0.178
-521.960	382.563	-0.698	-1.445
-520.945	-6.407	-0.216	0.148
-519.931	-114.078	0.845	-0.165
-518.916	-127.067	0.710	0.105
-517.902	13.861	-0.081	-0.063
-516.887	800.000	0.298	0.836
-515.872	611.308	-0.366	0.922
-514.858	2.591	0.882	-0.644
-513.843	-200.000	0.127	-0.781
-512.829	-75.286	0.155	0.056
-511.814	66.986	-0.830	0.852
-510.799	27.173	0.683	-0.577
-509.785	456.577	-0.132	-0.295
-508.770	263.293	-0.520	0.910
-507.756	-46.572	-0.721	-0.356
-506.741	51.194	-0.151	-0.144
-505.726	-106.626	-0.416	-0.093
-504.712	800.000	-0.143	-0.474
-503.697	-200.000	-0.026	0.945
-502.683	-30.012	-0.801	-0.459
-501.668	597.859	0.235	0.587
-500.653	-173.063	0.152	0.005
-499.639	109.778	-0.516	0.623
-498.624	176.272	0.457	-0.669
-497.610	-54.184	-0.276	0.126
-496.595	104.811	-0.365	-0.434
-495.581	-200.000	0.021	-0.447
-494.566	-46.291	0.567	-0.280
-493.551	482.304	-0.092	0.211
-492.537	-117.957	-0.783	0.141
-491.522	-39.752	-0.293	0.154
-490.508	-53.790	-0.686	-0.315
-489.493	-150.806	0.933	0.071
-488.478	27.288	0.507	0.429
-487.464	194.574	-0.334	0.510
-486.449	-7.803	-0.607	0.413
-485.435	-200.000	-0.028	0.255
-484.420	-80.288	0.313	-0.105
-483.405	17.045	0.671	-0.535
-482.391	-200.000	-0.048	1.070
-481.376	10.880	0.307	-0.236
-480.362	225.712	0.415	-0.676
-479.347	295.969	-0.154	0.284
-478.332	-200.000	0.088	0.529
-477.318	-31.849	-0.467	-0.263
-476.303	-200.000	0.048	-0.824
-475.289	-105.692	0.474	0.108
-474.274	-200.000	-0.089	-0.785
-473.259	-127.322	0.642	-0.094
-472.245	51.977	0.366	0.351
-471.230	-200.000	-0.003	0.186
-470.216	-200.000	0.041	0.184
-469.201	-56.054	0.199	0.089
-468.186	94.170	-0.293	0.334
-467.172	377.307	0.292	-0.599
-466.157	-200.000	0.148	-0.813
-465.143	800.000	0.177	-0.503
-464.128	-40.359	-0.535	-0.280
-463.113	31.654	-0.188	-0.162
-462.099	-132.124	-0.069	-0.009
-461.084	-200.000	0.065	1.019
-460.070	-5.168	-0.417	0.289
-459.055	-200.000	0.070	0.642
-458.040	-200.000	0.025	0.194
-457.026	-111.231	-0.694	0.143
-456.011	-65.514	-0.469	0.189
-454.997	-172.421	-0.400	-0.013
-453.982	800.000	-0.188	-0.807
-452.968	-164.853	1.099	-0.050
-451.953	-111.979	0.141	-0.029
-450.938	56.771	0.247	-0.242
-449.924	-51.582	0.962	0.451
-448.909	72.915	0.295	-0.310
-447.895	-200.000	0.056	0.272
-446.880	347.286	-0.138	0.273
-445.865	787.629	-0.345	0.951
-444.851	312.494	-0.157	-0.295
-443.836	-200.000	-0.027	-0.505
-442.822	-14.860	-0.730	-0.471
-441.807	-128.156	0.268	-0.038
-440.792	-200.000	0.041	-0.448
-439.778	-31.397	0.339	-0.192
-438.763	-1.815	-0.811	-0.574
-437.749	-107.519	-0.571	-0.126
-436.734	114.714	-0.629	-0.771
-435.719	459.643	0.256	0.573
-434.705	-132.252	0.880	0.114
-433.690	345.705	-0.455	-0.898
-432.676	800.000	-0.145	0.423
-431.661	-92.104	-0.374	0.106
-430.646	242.073	-0.179	-0.300
-429.632	10.992	0.297	-0.228
-428.617	-137.722	0.415	0.047
-427.603	-22.911	-1.115	0.675
-426.588	-139.538	-0.276	0.030
-425.573	4.166	1.153	-0.848
-424.559	-200.000	-0.067	-0.409
-423.544	595.176	-0.362	-0.898
-422.530	102.797	0.284	0.334
-421.515	800.000	-0.054	-0.182
-420.500	-200.000	0.038	-0.186
-419.486	219.152	0.238	-0.382
-418.471	-70.628	0.382	-0.145
-417.457	-52.110	0.372	0.173
-416.442	-154.328	0.616	0.042
-415.428	-9.903	0.260	0.173
-414.413	63.277	0.312	0.314
-413.398	-44.098	-0.811	0.409
-412.384	800.000	-0.174	-0.711
-411.369	-45.160	0.762	-0.380
-410.355	-68.532	-0.765	-0.298
-409.340	-107.278	0.176	0.039
-408.325	31.593	0.235	0.203
-407.311	800.000	0.050	0.185
-406.296	-101.095	-0.477	-0.117
-405.282	182.757	-0.236	0.350
-404.267	-200.000	-0.006	0.696
-403.252	-111.909	-0.385	-0.078
-402.238	137.136	-0.338	-0.443
-401.223	800.000	0.005	-0.019
-400.209	-200.000	-0.024	0.564
-399.194	-123.540	0.752	-0.120
-398.179	495.060	0.030	-0.070
-397.165	-200.000	0.104	0.701
-396.150	303.415	0.384	0.713
-395.136	-97.879	0.114	0.029
-394.121	64.839	-0.304	-0.307
-393.106	-111.494	0.562	0.115
-392.092	800.000	-0.160	0.652
-391.077	-149.971	-0.136	-0.011
-390.063	-12.322	0.368	0.241
-389.048	-56.160	0.595	0.266
-388.033	299.345	0.215	0.397
-387.019	-51.803	0.659	-0.308
-386.004	90.474	-0.149	0.168
-384.990	15.366	-0.370	0.291
-383.975	391.034	-0.430	-0.895
-382.960	-161.542	-0.616	0.032
-381.946	-30.789	-0.595	-0.337
-380.931	228.133	0.113	0.185
-379.917	-40.592	-0.663	0.345
-378.902	-148.267	0.510	0.042
-377.888	-64.740	-0.454	-0.184
-376.873	-200.000	-0.089	0.614
-375.858	166.660	0.334	0.474
-374.844	278.906	-0.425	-0.759
-373.829	-131.845	0.797	-0.104
-372.815	-83.357	0.333	0.107
-371.800	-178.709	-0.449	0.010
-370.785	-61.666	0.214	-0.090
-369.771	-65.471	-0.653	-0.263
-368.756	370.956	-0.303	-0.616
-367.742	1.202	0.762	0.548
-366.727	373.528	0.479	-0.975
-365.712	-200.000	0.031	-0.406
-364.698	478.618	0.236	0.536
-363.683	-37.466	0.526	0.281
-362.669	445.606	-0.175	0.386
-361.654	-93.626	-0.484	0.134
-360.639	800.000	-0.129	0.535
-359.625	-47.489	0.540	0.263
-358.610	-200.000	0.072	-0.351
-357.596	-53.833	0.326	-0.149
-356.581	-158.400	-0.390	0.023
-355.566	365.223	0.088	0.176
-354.552	627.834	0.283	0.715
-353.537	136.629	-0.196	-0.256
-352.523	98.508	0.224	0.259
-351.508	-110.629	0.969	-0.201
-350.493	800.000	-0.272	-0.876
-349.479	135.271	-0.705	0.917
-348.464	7.928	-0.662	-0.497
-347.450	-200.000	-0.138	-0.761
-346.435	205.153	-0.140	-0.217
-345.420	-65.208	-0.128	-0.051
-344.406	-85.625	-0.753	0.234
-343.391	41.014	-0.601	0.543
-342.377	305.199	0.467	0.868
-341.362	20.550	0.191	-0.155
-340.348	-74.000	0.254	0.092
-339.333	-35.234	-0.245	0.133
-338.318	-200.000	-0.092	0.604
-337.304	-200.000	0.017	-0.088
-336.289	-40.756	-0.758	0.393
-335.275	-200.000	0.040	1.207
-334.260	57.088	0.185	-0.181
-333.245	800.000	-0.160	-0.450
-332.231	-200.000	0.121	0.550
-331.216	-33.606	0.413	0.228
-330.202	147.234	0.200	0.269
-329.187	1.750	-0.513	0.369
-328.172	-90.660	0.451	0.130
-327.158	321.074	-0.068	0.130
-326.143	261.811	0.571	-0.989
-325.129	-64.239	0.290	-0.118
-324.114	12.866	-0.522	0.403
-323.099	-163.051	-0.269	0.013
-322.085	226.554	0.283	0.459
-321.070	-76.086	0.426	0.151
-320.056	-50.994	-0.283	-0.133
-319.041	-103.696	1.108	-0.260
-318.026	-134.059	0.699	-0.086
-317.012	-146.179	0.315	-0.028
-315.997	-39.977	0.750	0.391
-314.983	29.759	0.488	0.416
-313.968	-33.918	0.205	0.113
-312.953	151.850	0.116	0.157
-311.939	-65.870	0.604	0.242
-310.924	765.535	-0.170	0.462
-309.910	758.339	-0.181	-0.490
-308.895	-48.396	-0.469	-0.226
-307.880	713.667	-0.294	0.778
-306.866	-35.098	0.149	-0.081
-305.851	374.559	0.169	-0.343
-304.837	71.079	-0.359	0.372
-303.822	22.021	-0.290	-0.236
-302.807	800.000	-0.289	-0.893
-301.793	-200.000	0.014	-0.165
-300.778	-11.579	0.211	-0.139
-299.764	523.381	0.138	0.324
-298.749	-27.447	-0.516	0.300
-297.735	51.793	0.439	0.417
-296.720	-15.644	0.614	0.391
-295.705	-56.479	0.907	-0.402
-294.691	-78.042	0.703	-0.242
-293.676	-115.625	-0.970	0.182
-292.662	-122.528	0.331	0.054
-291.647	149.221	-0.330	0.445
-290.632	57.448	-0.302	-0.295
-289.618	172.497	-0.141	-0.202
-288.603	-139.285	-0.952	0.102
-287.589	-200.000	0.041	1.014
-286.574	800.000	0.102	0.368
-285.559	-200.000	0.046	0.835
-284.545	36.081	0.348	-0.306
-283.530	-69.118	-0.431	0.166
-282.516	96.408	0.074	0.084
-281.501	28.684	0.451	-0.381
-280.486	107.277	0.328	0.389
-279.472	-63.377	0.775	0.318
-278.457	-57.061	-0.487	0.214
-277.443	-200.000	-0.051	-0.454
-276.428	-82.887	-0.256	-0.083
-275.413	275.211	-0.117	-0.208
-274.399	-75.156	0.148	0.053
-273.384	-182.345	-1.029	-0.019
-272.370	43.639	0.178	0.162
-271.355	-29.342	-0.696	0.398
-270.340	800.000	0.095	0.270
-269.326	72.543	-0.400	0.416
-268.311	-200.000	0.001	-0.322
-267.297	363.085	0.259	0.518
-266.282	507.571	0.211	0.488
-265.267	76.010	0.209	-0.221
-264.253	108.827	0.205	-0.244
-263.238	356.370	0.276	-0.549
-262.224	-200.000	-0.001	-0.508
-261.209	179.833	0.240	-0.351
-260.195	-164.005	0.295	0.014
-259.180	-200.000	-0.065	-0.810
-258.165	-112.433	-0.392	-0.078
-257.151	98.236	-0.320	0.368
-256.136	425.469	0.371	-0.796
-255.122	-112.250	-0.187	0.037
-254.107	-66.281	0.574	-0.228
-253.092	115.587	0.295	-0.360
-252.078	-200.000	-0.054	-0.646
-251.063	-110.790	-0.737	0.151
-250.049	-200.000	0.035	0.294
-249.034	273.037	-0.375	0.661
-248.019	-61.307	-0.369	-0.155
-247.005	42.432	0.425	0.385
-245.990	-170.983	0.627	-0.021
-244.976	194.877	-0.487	-0.737
-243.961	-200.000	0.014	-0.361
-242.946	411.712	-0.351	0.742
-241.932	122.511	0.562	0.700
-240.917	-200.000	0.102	0.697
-239.903	54.891	-0.416	0.400
-238.888	447.467	-0.361	-0.792
-237.873	1.265	0.431	-0.309
-236.859	180.544	0.166	0.243
-235.844	-200.000	-0.064	0.702
-234.830	-55.708	0.209	0.093
-233.815	160.404	0.361	0.502
-232.800	128.671	0.076	0.096
-231.786	-200.000	0.184	-0.915
-230.771	657.869	0.118	0.302
-229.757	-184.569	-0.661	-0.011
-228.742	-107.294	0.261	0.057
-227.727	-148.554	0.795	-0.065
-226.713	29.576	0.550	0.466
-225.698	-84.207	-0.854	0.270
-224.684	94.709	-0.423	0.479
-223.669	-200.000	-0.079	0.590
-222.655	-112.611	-0.432	-0.086
-221.640	235.453	-0.358	0.589
-220.625	800.000	-0.109	0.450
-219.611	573.239	0.089	0.216
-218.596	-71.664	-0.502	0.187
-217.582	658.624	-0.374	-0.958
-216.567	-57.881	0.315	-0.137
-215.552	-17.171	-0.301	0.189
-214.538	-200.000	-0.009	0.407
-213.523	-76.622	0.091	0.032
-212.509	-52.417	0.112	0.052
-211.494	5.043	0.222	0.163
-210.479	-200.000	0.043	0.726
-209.465	-200.000	0.078	0.351
-208.450	511.886	0.135	0.312
-207.436	35.647	-0.070	-0.061
-206.421	19.060	0.154	0.123
-205.406	117.631	0.349	0.428
-204.392	-117.476	-0.921	0.166
-203.377	141.324	0.205	-0.270
-202.363	-173.883	-1.021	-0.030
-201.348	655.497	-0.462	-1.181
-200.333	-113.389	0.391	0.076
-199.319	-73.135	0.142	-0.052
-198.304	-171.110	-0.406	0.014
-197.290	88.515	-0.278	0.307
-196.275	-158.190	-0.890	0.052
-195.260	-50.472	-0.703	0.330
-194.246	-144.769	0.841	-0.077
-193.231	-51.569	-0.473	0.220
-192.217	191.382	0.428	0.641
-191.202	472.195	0.206	-0.461
-190.187	57.338	-0.762	-0.740
-189.173	93.501	-0.653	-0.735
-188.158	-109.364	-0.232	-0.049
-187.144	-73.218	0.680	0.248
-186.129	-43.525	0.776	-0.390
-185.114	-200.000	0.003	-0.180
-184.100	87.854	0.294	-0.324
-183.085	40.059	0.304	0.272
-182.071	307.380	0.228	0.423
-181.056	29.486	0.346	-0.293
-180.042	335.272	-0.118	0.228
-179.027	-2.530	-0.363	0.253
-178.012	193.355	0.309	-0.465
-176.998	699.627	-0.032	0.085
-175.983	-200.000	-0.005	0.057
-174.969	-130.961	-0.805	0.107
-173.954	-82.859	0.157	0.050
-172.939	-200.000	0.088	-0.655
-171.925	-49.765	1.050	-0.496
-170.910	1.016	0.443	-0.316
-169.896	-35.699	-0.615	-0.331
-168.881	-113.282	-0.959	0.187
-167.866	-200.000	0.075	-0.383
-166.852	-7.120	-0.067	-0.045
-165.837	-73.421	-0.426	0.155
-164.823	696.927	0.405	1.058
-163.808	-200.000	0.042	0.634
-162.793	71.222	-0.277	0.286
-161.779	-200.000	0.093	-0.687
-160.764	378.370	-0.027	-0.055
-159.750	-131.487	-0.370	-0.049
-158.735	380.879	-0.095	-0.195
-157.720	221.157	-0.362	0.577
-156.706	426.948	0.156	-0.334
-155.691	-58.377	0.735	0.318
-154.677	6.674	0.515	-0.381
-153.662	38.639	0.683	-0.606
-152.647	-200.000	0.006	0.105
-151.633	145.470	0.424	-0.564
-150.618	52.568	-0.421	-0.399
-149.604	-14.794	-0.278	-0.177
-148.589	65.320	0.317	0.319
-147.574	7.579	-0.756	0.562
-146.560	441.967	-0.228	-0.495
-145.545	350.572	-0.094	0.185
-144.531	-122.309	-1.126	0.183
-143.516	-200.000	0.015	0.705
-142.502	115.424	0.070	-0.085
-141.487	-36.506	0.383	-0.205
-140.472	-126.434	-0.430	-0.064
-139.458	-200.000	-0.110	1.043
-138.443	13.492	-0.856	-0.659
-137.429	-83.123	0.583	0.186
-136.414	-200.000	0.147	0.658
-135.399	-168.581	0.596	-0.023
-134.385	-200.000	-0.067	0.548
-133.370	-127.096	-0.501	-0.073
-132.356	-200.000	0.182	-1.058
-131.341	-74.290	-0.424	0.152
-130.326	-103.939	-0.663	0.154
-129.312	62.936	-0.609	-0.605
-128.297	-104.471	-0.835	0.192
-127.283	424.506	0.097	-0.208
-126.268	-200.000	0.020	0.367
-125.253	-8.914	0.343	0.228
-124.239	459.890	-0.213	0.470
-123.224	-13.124	-0.160	0.103
-122.210	-157.766	0.553	0.033
-121.195	169.197	-0.669	0.947
-120.180	-200.000	0.035	-0.179
-119.166	75.952	0.270	-0.283
-118.151	-23.326	0.318	0.190
-117.137	-159.873	-0.150	0.008
-116.122	37.278	-0.682	0.599
-115.107	87.956	-0.360	-0.395
-114.093	-196.286	0.394	-0.003
-113.078	290.355	-0.475	-0.855
-112.064	-200.000	-0.090	0.838
-111.049	-37.361	-0.532	-0.282
-110.034	1.625	-0.227	-0.162
-109.020	-46.104	0.231	-0.113
-108.005	-31.303	-0.460	-0.257
-106.991	-93.461	-0.854	0.235
-105.976	800.000	-0.197	-0.539
-104.962	60.342	-0.147	-0.144
-103.947	-200.000	0.015	-0.342
-102.932	-18.349	0.279	0.173
-101.918	-54.754	0.946	0.423
-100.903	-200.000	-0.003	0.409
-99.889	-200.000	0.108	-0.915
-98.874	209.827	-0.229	0.355
-97.859	-200.000	-0.015	-0.384
-96.845	58.075	-0.839	-0.814
-95.830	276.686	0.418	-0.737
-94.816	109.131	-0.282	0.335
-93.801	-200.000	-0.058	-0.556
-92.786	-126.435	-0.632	0.093
-91.772	-69.407	0.640	0.243
-90.757	747.033	-0.134	0.358
-89.743	252.205	0.192	-0.324
-88.728	-14.215	-0.457	-0.292
-87.713	-86.097	-0.248	-0.076
-86.699	12.958	-0.525	0.403
-85.684	-12.856	-0.237	0.153
-84.670	13.133	0.894	0.686
-83.655	-35.788	0.268	0.144
-82.640	-200.000	-0.028	0.216
-81.626	-88.462	0.946	-0.280
-80.611	800.000	0.176	0.616
-79.597	-141.423	-0.194	0.019
-78.582	-91.269	0.487	-0.138
-77.567	800.000	0.176	0.686
-76.553	51.888	0.548	0.517
-75.538	-14.089	0.610	0.390
-74.524	239.044	0.409	-0.674
-73.509	-200.000	-0.087	-0.602
-72.494	-99.928	0.626	0.155
-71.480	-17.728	-0.984	-0.612
-70.465	88.408	0.622	-0.684
-69.451	-127.302	0.249	-0.036
-68.436	155.615	0.310	-0.422
-67.422	-143.945	0.366	-0.034
-66.407	-200.000	0.023	0.504
-65.392	-110.591	0.452	0.093
-64.378	-114.081	-0.173	-0.033
-63.363	800.000	-0.278	0.798
-62.349	800.000	-0.180	0.694
-61.334	107.244	-0.549	-0.646
-60.319	-40.093	0.526	0.271
-59.305	116.388	-0.424	-0.514
-58.290	-200.000	0.161	0.990
-57.276	-200.000	0.275	1.330
-56.261	-200.000	95.363	579.348
-55.246	651.476	1360.354	3448.944
-54.232	198.890	2533.024	3838.742
-53.217	108.395	2282.938	2696.154
-52.203	39.189	2047.725	1812.821
-51.188	34.496	1963.671	1696.713
-50.173	32.967	1945.716	1667.647
-49.159	48.765	1997.143	1853.379
-48.144	49.533	2015.024	1876.775
-47.130	35.280	1976.451	1714.505
-46.115	32.949	1966.110	1684.696
-45.100	32.706	1964.717	1681.269
-44.086	32.589	1962.282	1678.078
-43.071	32.681	1958.846	1675.889
-42.057	32.790	1955.364	1673.810
-41.042	32.901	1954.000	1673.565
-40.027	32.876	1951.514	1671.142
-39.013	32.828	1948.945	1668.457
-37.998	32.688	1948.476	1666.750
-36.984	32.897	1946.597	1666.922
-35.969	32.916	1943.967	1664.772
-34.954	32.762	1943.222	1662.707
-33.940	33.026	1941.088	1663.146
-32.925	32.866	1939.924	1660.667
-31.911	32.867	1938.767	1659.626
-30.896	32.767	1936.732	1656.939
-29.881	32.869	1935.891	1657.049
-28.867	32.689	1934.312	1654.048
-27.852	33.012	1930.692	1653.722
-26.838	32.902	1929.733	1651.871
-25.823	32.998	1927.740	1650.940
-24.809	32.991	1926.202	1649.496
-23.794	32.948	1925.136	1648.141
-22.779	32.796	1922.833	1644.776
-21.765	32.739	1921.425	1643.011
-20.750	32.803	1920.056	1642.334
-19.736	32.931	1918.469	1642.023
-18.721	32.970	1915.824	1640.029
-17.706	32.984	1914.867	1639.268
-16.692	32.946	1912.650	1636.974
-15.677	32.848	1911.841	1635.371
-14.663	32.868	1909.695	1633.643
-13.648	32.959	1908.832	1633.624
-12.633	32.944	1907.297	1632.120
-11.619	32.847	1906.864	1630.844
-10.604	32.871	1905.126	1629.502
-9.590	32.751	1904.091	1627.520
-8.575	33.047	1901.226	1627.550
-7.560	32.840	1901.646	1626.062
-6.546	32.930	1899.042	1624.549
-5.531	32.900	1898.736	1623.964
-4.517	32.909	1897.816	1623.190
-3.502	32.874	1896.497	1621.691
-2.487	32.807	1895.464	1620.169
-1.473	32.936	1893.957	1619.929
-0.458	32.872	1890.863	1616.669
0.556	33.918	1869.541	1587.535
1.571	29.614	1850.137	1535.244
2.586	25.539	1870.816	1517.939
3.600	24.537	1905.714	1537.496
4.615	23.865	1900.686	1527.535
5.629	18.329	1800.660	1401.821
6.644	8.455	1681.896	1233.382
7.659	3.504	1644.127	1168.153
8.673	3.051	1641.794	1162.966
9.688	3.144	1639.982	1162.281
10.702	2.970	1638.906	1160.107
11.717	3.035	1635.050	1157.764
12.731	3.382	1633.615	1159.253
13.746	10.146	1650.427	1222.345
14.761	19.997	1670.513	1312.115
15.775	24.487	1679.059	1352.816
16.790	25.152	1680.118	1358.592
17.804	25.106	1679.108	1357.304
18.819	25.110	1677.529	1355.943
19.834	25.153	1677.328	1355.986
20.848	25.086	1676.745	1354.886
21.863	25.268	1674.833	1354.594
22.877	25.223	1674.709	1354.033
23.892	25.291	1674.582	1354.322
24.907	25.356	1673.426	1353.762
25.921	25.455	1672.633	1353.744
26.936	25.436	1671.814	1352.821
27.950	25.506	1669.625	1351.457
28.965	25.321	1669.713	1350.019
29.980	25.212	1669.172	1348.636
30.994	25.455	1666.593	1348.261
32.009	25.530	1666.011	1348.233
33.023	25.479	1665.708	1347.486
34.038	25.713	1664.473	1348.121
35.053	25.527	1663.205	1345.578
36.067	25.425	1662.306	1343.973
37.082	25.408	1662.440	1343.832
38.096	25.473	1661.560	1343.488
39.111	25.284	1660.864	1341.393
40.126	25.372	1659.306	1340.677
41.140	25.307	1659.021	1339.838
42.155	25.234	1657.657	1338.081
43.169	25.419	1655.481	1337.579
44.184	25.286	1655.056	1336.127
45.199	25.615	1653.257	1337.005
46.213	25.180	1653.642	1333.962
47.228	25.484	1651.108	1334.057
48.242	25.405	1651.185	1333.419
49.257	25.491	1650.525	1333.403
50.271	25.313	1648.250	1330.125
51.286	25.312	1647.153	1329.114
52.301	25.620	1646.271	1330.563
53.315	25.340	1644.909	1327.278
54.330	25.467	1643.336	1326.831
55.344	25.468	1642.272	1325.861
56.359	25.430	1640.521	1324.047
57.374	25.384	1640.241	1323.367
58.388	25.399	1638.720	1322.133
59.403	25.355	1638.105	1321.195
60.417	25.396	1636.786	1320.315
61.432	25.375	1636.115	1319.501
62.447	25.456	1634.595	1318.760
63.461	25.280	1633.003	1316.068
64.476	25.455	1632.572	1316.884
65.490	25.668	1630.705	1316.823
66.505	25.392	1630.334	1314.385
67.520	25.406	1629.476	1313.682
68.534	25.151	1628.865	1311.207
69.549	25.401	1627.384	1311.724
70.563	25.349	1625.759	1309.921
71.578	25.391	1625.637	1310.009
72.593	25.533	1622.866	1308.695
73.607	25.455	1624.119	1309.023
74.622	25.327	1623.214	1307.241
75.636	25.463	1621.613	1306.831
76.651	25.428	1620.763	1305.770
77.666	25.379	1621.259	1305.702
78.680	25.435	1618.931	1304.117
79.695	25.663	1618.448	1305.264
80.709	25.242	1618.180	1301.884
81.724	25.252	1617.938	1301.647
82.739	25.482	1615.798	1301.473
83.753	25.432	1616.100	1301.236
84.768	25.410	1615.519	1300.497
85.782	25.542	1614.870	1300.815
86.797	25.815	1613.088	1301.236
87.812	25.605	1612.808	1299.376
88.826	25.631	1611.179	1298.137
89.841	25.488	1610.154	1296.167
90.855	25.465	1609.026	1294.977
91.870	25.496	1608.187	1294.412
92.884	25.736	1606.904	1294.993
93.899	25.691	1606.761	1294.435
94.914	25.550	1606.597	1293.174
95.928	25.535	1605.372	1291.973
96.943	25.708	1603.695	1291.744
97.957	25.780	1600.602	1289.659
98.972	25.622	1600.835	1288.602
99.987	25.559	1598.650	1286.272
101.001	25.559	1597.533	1285.266
102.016	25.669	1595.932	1284.643
103.030	25.327	1595.290	1281.573
104.045	25.479	1593.527	1281.130
105.060	25.618	1591.971	1280.758
106.074	25.476	1592.388	1279.963
107.089	25.583	1589.840	1278.562
108.103	25.343	1589.005	1276.077
109.118	25.675	1587.620	1277.209
110.133	25.130	1586.380	1272.231
111.147	25.112	1585.665	1271.417
112.162	25.239	1585.502	1272.071
113.176	25.300	1583.654	1270.911
114.191	25.439	1582.124	1270.556
115.206	25.595	1579.728	1269.615
116.220	25.532	1579.709	1269.046
117.235	25.260	1579.071	1266.503
118.249	25.338	1577.697	1265.841
119.264	25.276	1574.672	1262.864
120.279	25.116	1574.135	1261.191
121.293	25.005	1573.762	1260.001
122.308	25.341	1572.454	1261.204
123.322	25.510	1570.546	1260.751
124.337	25.472	1570.038	1259.964
125.352	25.289	1569.124	1257.832
126.366	25.050	1568.471	1255.529
127.381	25.245	1567.223	1255.782
128.395	25.460	1566.097	1256.273
129.410	25.343	1565.192	1254.616
130.424	25.191	1565.053	1253.330
131.439	25.178	1563.190	1251.638
132.454	25.183	1561.304	1250.053
133.468	25.454	1560.384	1251.092
134.483	25.353	1559.485	1249.560
135.497	25.506	1558.328	1249.585
136.512	25.582	1557.497	1249.336
137.527	25.477	1556.208	1247.462
138.541	25.322	1555.598	1245.787
139.556	25.512	1553.750	1245.516
140.570	25.834	1552.361	1246.518
141.585	25.513	1550.968	1243.072
142.600	25.733	1550.249	1243.904
143.614	25.894	1548.452	1243.465
144.629	25.593	1549.017	1241.731
145.643	25.844	1546.867	1241.627
146.658	25.551	1546.854	1239.487
147.673	25.635	1544.125	1237.767
148.687	25.489	1543.364	1236.042
149.702	25.861	1542.659	1237.925
150.716	25.664	1542.046	1235.974
151.731	25.377	1539.670	1231.990
152.746	25.166	1538.269	1229.314
153.760	25.085	1537.960	1228.406
154.775	25.305	1536.685	1228.783
155.789	25.604	1535.827	1230.033
156.804	25.744	1535.042	1230.252
157.819	25.729	1532.765	1228.218
158.833	25.493	1532.172	1226.025
159.848	25.326	1530.852	1223.716
160.862	25.789	1529.761	1225.891
161.877	25.713	1529.740	1225.248
162.892	25.572	1528.268	1223.004
163.906	25.569	1528.599	1223.136
164.921	25.555	1526.853	1221.541
165.935	25.483	1525.716	1220.032
166.950	25.496	1525.005	1219.440
167.964	25.739	1523.459	1219.746
168.979	25.566	1523.440	1218.450
169.994	25.800	1521.641	1218.485
171.008	25.592	1520.751	1216.261
172.023	25.575	1518.946	1214.592
173.037	25.462	1518.453	1213.330
174.052	25.458	1518.094	1212.909
175.067	25.573	1516.447	1212.263
176.081	25.596	1516.176	1212.090
177.096	25.566	1515.243	1211.038
178.110	25.443	1512.841	1208.182
179.125	25.399	1512.972	1207.882
180.140	25.438	1511.380	1206.766
181.154	25.449	1510.386	1205.945
182.169	25.612	1509.159	1205.947
183.183	25.483	1508.963	1204.820
184.198	25.501	1507.744	1203.859
185.213	25.571	1506.218	1203.007
186.227	25.712	1505.516	1203.280
187.242	25.758	1505.668	1203.601
188.256	25.724	1503.739	1201.730
189.271	25.950	1503.030	1202.565
190.286	25.600	1502.364	1199.591
191.300	26.114	1500.971	1201.796
192.315	25.529	1500.115	1197.106
193.329	25.543	1498.750	1196.005
194.344	25.614	1499.345	1196.850
195.359	25.747	1498.313	1196.800
196.373	25.576	1496.732	1194.295
197.388	25.368	1495.640	1191.937
198.402	25.347	1493.990	1190.378
199.417	25.389	1493.076	1189.822
200.432	25.627	1492.083	1190.506
201.446	25.913	1492.234	1192.413
202.461	25.772	1491.926	1191.126
203.475	25.538	1490.685	1188.484
204.490	25.607	1490.286	1188.515
205.504	25.626	1487.682	1186.459
206.519	25.349	1487.117	1184.080
207.534	25.658	1486.349	1185.396
208.548	25.474	1485.071	1183.062
209.563	25.105	1484.417	1180.010
210.577	25.217	1483.591	1179.988
211.592	25.211	1482.172	1178.714
212.607	25.199	1481.259	1177.804
213.621	25.465	1482.066	1180.085
214.636	25.991	1480.694	1182.343
215.650	25.640	1479.433	1178.931
216.665	25.614	1478.198	1177.672
217.680	25.352	1478.976	1176.468
218.694	25.523	1478.262	1176.917
219.709	25.760	1477.352	1177.640
220.723	25.600	1476.115	1175.506
221.738	25.546	1475.064	1174.211
222.753	25.478	1474.525	1173.234
223.767	25.675	1472.231	1172.589
224.782	25.290	1471.937	1169.742
225.796	25.277	1472.143	1169.715
226.811	25.809	1470.732	1171.958
227.826	25.732	1470.824	1171.426
228.840	25.511	1470.152	1169.346
229.855	25.540	1468.236	1167.909
230.869	25.391	1468.708	1167.211
231.884	25.540	1465.807	1165.768
232.899	25.329	1466.054	1164.492
233.913	25.178	1464.215	1161.955
234.928	25.231	1462.558	1160.875
235.942	25.282	1462.781	1161.280
236.957	25.364	1461.292	1160.523
237.972	25.390	1460.104	1159.647
238.986	25.197	1458.712	1157.193
240.001	25.334	1457.672	1157.154
241.015	25.365	1456.669	1156.450
242.030	25.425	1455.529	1155.830
243.045	25.313	1453.523	1153.414
244.059	25.584	1453.967	1155.405
245.074	25.676	1453.326	1155.383
246.088	25.532	1452.866	1153.991
247.103	25.794	1451.864	1154.780
248.117	25.805	1452.231	1155.033
249.132	25.802	1450.740	1153.726
250.147	25.579	1450.696	1152.163
251.161	25.886	1449.635	1153.183
252.176	26.030	1449.319	1153.751
253.190	25.972	1449.208	1153.189
254.205	25.982	1448.029	1152.214
255.220	26.017	1447.527	1151.937
256.234	26.308	1446.161	1152.604
257.249	26.235	1446.023	1151.923
258.263	26.253	1445.248	1151.321
259.278	25.889	1444.871	1148.597
260.293	26.074	1443.008	1148.196
261.307	26.244	1442.409	1148.699
262.322	26.347	1440.971	1148.103
263.336	26.315	1440.533	1147.448
264.351	26.157	1439.087	1145.195
265.366	26.315	1438.439	1145.580
266.380	26.407	1437.426	1145.253
267.395	26.110	1437.228	1143.114
268.409	25.862	1436.447	1140.823
269.424	25.884	1435.056	1139.755
270.439	25.902	1434.615	1139.418
271.453	26.008	1433.093	1138.780
272.468	26.033	1432.483	1138.351
273.482	25.971	1431.723	1137.256
274.497	25.913	1430.539	1135.846
275.512	26.004	1428.751	1134.900
276.526	26.102	1428.582	1135.285
277.541	25.793	1427.913	1132.706
278.555	25.806	1427.146	1132.082
279.570	26.146	1426.106	1133.292
280.585	26.161	1426.138	1133.311
281.599	26.105	1426.174	1132.883
282.614	26.051	1425.339	1131.783
283.628	25.979	1423.088	1129.444
284.643	25.912	1422.188	1128.213
285.657	26.026	1419.721	1126.867
286.672	25.967	1420.445	1126.972
287.687	26.041	1419.584	1126.650
288.701	25.957	1418.170	1124.909
289.716	26.175	1418.751	1126.626
290.730	25.761	1418.896	1124.061
291.745	26.109	1416.615	1124.325
292.760	26.138	1415.065	1123.173
293.774	25.896	1413.977	1120.706
294.789	25.933	1413.615	1120.550
295.803	26.085	1413.464	1121.278
296.818	26.255	1413.098	1121.943
297.833	26.363	1410.297	1120.285
298.847	26.143	1411.071	1119.439
299.862	26.064	1408.694	1116.962
300.876	26.055	1408.678	1116.797
301.891	26.030	1407.214	1115.384
302.906	25.958	1406.860	1114.559
303.920	25.890	1406.800	1113.992
304.935	26.107	1406.996	1115.391
305.949	26.309	1405.189	1115.106
306.964	26.361	1404.272	1114.603
307.979	26.426	1402.983	1113.877
308.993	26.335	1402.988	1113.226
310.008	26.160	1400.943	1110.423
311.022	26.293	1400.007	1110.405
312.037	26.462	1398.918	1110.479
313.052	26.591	1398.062	1110.493
314.066	26.227	1398.303	1108.355
315.081	26.109	1396.419	1106.039
316.095	26.249	1395.014	1105.683
317.110	26.041	1393.234	1102.906
318.125	25.895	1394.182	1102.665
319.139	25.865	1393.751	1102.042
320.154	25.843	1392.578	1100.882
321.168	25.909	1390.691	1099.695
322.183	25.929	1390.513	1099.581
323.197	25.832	1389.299	1097.934
324.212	25.824	1388.335	1097.027
325.227	25.933	1388.840	1097.989
326.241	26.184	1387.403	1098.286
327.256	26.135	1386.466	1097.148
328.270	26.028	1385.715	1095.807
329.285	26.026	1384.301	1094.577
330.300	26.188	1383.308	1094.676
331.314	26.005	1383.483	1093.612
332.329	26.140	1382.230	1093.341
333.343	26.321	1380.052	1092.618
334.358	26.014	1380.659	1091.142
335.373	26.128	1380.592	1091.684
336.387	26.218	1379.786	1091.495
337.402	26.353	1379.472	1091.963
338.416	26.472	1378.631	1091.921
339.431	26.422	1377.247	1090.425
340.446	26.621	1376.192	1090.690
341.460	26.219	1376.730	1088.601
342.475	26.662	1374.699	1089.563
343.489	26.375	1374.748	1087.781
344.504	26.805	1372.643	1088.597
345.519	26.503	1372.322	1086.436
346.533	26.556	1372.344	1086.676
347.548	26.542	1371.722	1086.000
348.562	26.771	1371.008	1086.714
349.577	26.726	1369.390	1085.063
350.592	26.437	1369.734	1083.508
351.606	26.149	1368.024	1080.336
352.621	26.246	1367.224	1080.194
353.635	26.253	1365.348	1078.657
354.650	26.164	1364.299	1077.203
355.665	26.170	1363.296	1076.347
356.679	26.276	1361.757	1075.672
357.694	26.228	1361.310	1074.936
358.708	26.344	1360.363	1074.783
359.723	26.300	1359.045	1073.384
360.738	26.365	1358.289	1073.082
361.752	26.083	1358.188	1071.232
362.767	26.345	1355.072	1070.230
363.781	26.141	1354.619	1068.571
364.796	26.295	1354.560	1069.337
365.810	26.426	1353.932	1069.525
366.825	26.463	1354.785	1070.322
367.840	26.509	1352.839	1068.964
368.854	26.737	1351.617	1069.247
369.869	26.955	1351.353	1070.230
370.883	26.695	1351.668	1068.849
371.898	26.646	1350.411	1067.473
372.913	26.542	1349.568	1066.101
373.927	26.429	1348.577	1064.558
374.942	26.523	1347.106	1063.854
375.956	26.596	1346.552	1063.753
376.971	26.763	1346.824	1064.856
377.986	26.467	1346.058	1062.413
379.000	26.623	1344.770	1062.218
380.015	26.693	1344.655	1062.447
381.029	26.726	1343.374	1061.536
382.044	26.921	1342.636	1061.999
383.059	26.869	1342.215	1061.268
384.073	26.723	1341.576	1059.814
385.088	26.894	1340.664	1060.001
386.102	26.643	1340.057	1057.961
387.117	26.674	1339.199	1057.366
388.132	26.681	1339.014	1057.169
389.146	26.916	1337.180	1056.997
390.161	26.492	1337.628	1054.789
391.175	26.424	1336.655	1053.531
392.190	26.420	1335.281	1052.329
393.205	26.401	1334.770	1051.722
394.219	26.775	1333.618	1052.899
395.234	26.945	1333.374	1053.595
396.248	26.709	1332.174	1051.189
397.263	26.444	1330.992	1048.628
398.278	26.475	1328.715	1046.918
399.292	26.682	1327.087	1046.738
400.307	26.496	1327.745	1046.088
401.321	26.353	1326.926	1044.526
402.336	26.690	1325.619	1045.348
403.350	26.354	1324.442	1042.391
404.365	26.208	1323.205	1040.486
405.380	26.516	1321.930	1041.162
406.394	26.650	1321.277	1041.328
407.409	26.649	1321.070	1041.068
408.423	26.304	1320.743	1038.736
409.438	26.348	1321.018	1039.108
410.453	26.913	1319.274	1040.891
411.467	26.920	1318.265	1040.040
412.482	26.811	1319.013	1039.916
413.496	26.833	1317.590	1038.828
414.511	26.976	1316.544	1038.725
415.526	26.785	1316.568	1037.559
416.540	26.835	1314.704	1036.286
417.555	27.033	1315.027	1037.579
418.569	27.101	1314.744	1037.654
419.584	26.948	1313.627	1035.805
420.599	26.890	1312.254	1034.303
421.613	142.444	1435.896	1792.348
422.628	138.198	1453.897	1792.430
