DTS Sentinel unit serial number:	SN413079Multiplexer serial number:	ORYXHardware model number:	OX4-SRSoftware version number:	ORYX F/W v4.00 Oryx Data Collector v3.7.2.0data status	okinstallation	princeton_trtdifferential loss correction	single-endedforward channel	channel 4reverse channel	N/Adate	2019/09/13time	23:09:35forward acquisition time	60.00reverse acquisition time	0.00gamma	496.2192k internal	0.2322k external	0.2322temperature offset calibration	1.0136default loss term (dB/km)	0.3790temperature slope calibration	1.0000multiplexer offset coefficient	1.0000multiplexer slope coefficient	1.0000fibre end	0.00T internal ref (°C)	27.19T ext. ref 1 (°C)	3.20T ext. ref 2 (°C)	21.15length (m)	temperature (°C)	Stokes	anti-Stokes-747.200	800.000	0.043	0.168
-746.185	164.499	-0.219	0.312
-745.171	-89.829	0.267	0.079
-744.156	-126.897	-0.225	-0.033
-743.142	-128.194	0.254	-0.037
-742.127	-65.013	-0.080	0.033
-741.112	800.000	0.045	0.169
-740.098	186.570	-0.283	0.426
-739.083	173.210	0.127	0.185
-738.069	10.694	0.147	0.113
-737.054	-44.964	-0.205	0.103
-736.039	-38.876	-0.167	0.089
-735.025	800.000	0.078	0.288
-734.010	-162.446	-0.194	0.010
-732.996	-73.788	-0.299	0.110
-731.981	71.269	-0.071	0.075
-730.966	634.039	-0.049	0.125
-729.952	-135.283	-0.459	0.056
-728.937	-91.565	-0.322	0.093
-727.923	-52.783	-0.182	-0.085
-726.908	-158.503	-0.167	0.010
-725.894	800.000	-0.021	0.073
-724.879	13.522	-0.154	0.120
-723.864	800.000	-0.082	-0.314
-722.850	-200.000	-0.032	-0.170
-721.835	173.007	0.287	-0.417
-720.821	-140.329	0.315	0.033
-719.806	297.423	-0.114	-0.212
-718.791	-200.000	0.006	-0.334
-717.777	-116.008	0.380	-0.071
-716.762	64.733	0.045	0.045
-715.748	-97.550	-0.382	-0.100
-714.733	-200.000	0.005	0.209
-713.718	-200.000	0.025	0.304
-712.704	-200.000	-0.059	0.358
-711.689	-200.000	0.022	0.156
-710.675	-107.935	-0.068	-0.015
-709.660	298.864	0.042	-0.079
-708.645	-200.000	0.169	-0.001
-707.631	-176.810	-0.362	0.009
-706.616	259.353	-0.099	0.171
-705.602	711.766	-0.112	-0.298
-704.587	774.326	0.114	-0.313
-703.572	-200.000	0.065	-0.491
-702.558	-62.098	-0.189	-0.079
-701.543	-3.736	-0.238	0.167
-700.529	800.000	-0.062	-0.180
-699.514	-200.000	-0.035	-0.293
-698.499	-39.456	-0.199	-0.105
-697.485	30.596	0.122	0.106
-696.470	-20.446	0.263	-0.163
-695.456	635.897	0.036	-0.092
-694.441	-128.196	-0.417	0.060
-693.426	-85.113	-0.219	-0.069
-692.412	146.134	-0.077	-0.104
-691.397	-200.000	-0.040	0.317
-690.383	410.157	0.181	-0.387
-689.368	9.233	0.172	-0.131
-688.354	-200.000	0.025	0.389
-687.339	313.713	0.122	0.232
-686.324	41.967	-0.113	-0.104
-685.310	27.166	-0.153	0.130
-684.295	-12.274	0.114	-0.075
-683.281	-79.551	0.104	0.035
-682.266	29.894	0.113	-0.097
-681.251	800.000	-0.038	-0.110
-680.237	150.121	-0.018	-0.024
-679.222	77.989	-0.222	-0.238
-678.208	-0.712	0.297	0.212
-677.193	-98.586	0.144	-0.037
-676.178	-10.589	0.095	-0.063
-675.164	-139.044	-0.059	0.006
-674.149	-38.310	0.156	-0.083
-673.135	56.131	-0.206	-0.201
-672.120	-96.862	0.231	-0.061
-671.105	196.513	0.211	-0.323
-670.091	-57.046	-0.463	-0.205
-669.076	97.809	0.179	-0.207
-668.062	-53.341	-0.180	-0.083
-667.047	-109.294	0.124	-0.026
-666.032	-36.231	-0.217	0.118
-665.018	223.716	-0.061	-0.099
-664.003	107.511	-0.276	-0.330
-662.989	-200.000	-0.015	-0.252
-661.974	-80.614	-0.128	0.043
-660.959	44.191	-0.040	-0.037
-659.945	-73.257	-0.284	-0.105
-658.930	-82.886	-0.433	-0.141
-657.916	-41.997	0.085	-0.044
-656.901	800.000	-0.080	-0.228
-655.886	56.404	-0.211	-0.207
-654.872	18.620	-0.101	0.082
-653.857	800.000	0.033	0.096
-652.843	-115.004	-0.293	0.056
-651.828	588.372	-0.066	0.163
-650.814	-32.507	-0.254	-0.143
-649.799	-133.909	-0.289	0.036
-648.784	-106.272	-0.147	-0.033
-647.770	-77.043	0.250	-0.088
-646.755	800.000	-0.123	-0.342
-645.741	-200.000	-0.008	-0.250
-644.726	-113.264	-0.128	-0.025
-643.711	200.209	-0.164	0.254
-642.697	-61.130	0.089	-0.038
-641.682	-125.268	-0.205	-0.032
-640.668	-76.483	0.266	-0.094
-639.653	-103.930	-0.225	0.053
-638.638	-200.000	-0.035	0.285
-637.624	549.121	-0.110	0.265
-636.609	-200.000	0.003	0.206
-635.595	-6.235	0.247	-0.170
-634.580	-34.469	0.096	0.053
-633.565	-139.816	0.210	-0.022
-632.551	-50.113	0.175	0.084
-631.536	81.492	-0.183	0.199
-630.522	-104.516	0.350	-0.081
-629.507	-200.000	0.001	-0.011
-628.492	79.055	0.133	-0.143
-627.478	800.000	0.083	-0.257
-626.463	800.000	-0.062	-0.177
-625.449	-153.493	-0.154	-0.011
-624.434	-13.963	-0.082	-0.053
-623.419	-56.285	-0.202	-0.090
-622.405	-114.834	0.101	0.019
-621.390	-122.118	0.130	-0.021
-620.376	-59.735	-0.210	0.091
-619.361	-200.000	0.023	-0.103
-618.346	11.008	0.119	0.092
-617.332	358.137	0.050	-0.101
-616.317	-90.988	-0.065	-0.019
-615.303	800.000	-0.068	-0.197
-614.288	-73.464	0.195	-0.072
-613.273	557.187	-0.126	-0.306
-612.259	-75.438	-0.318	-0.114
-611.244	-124.464	-0.096	0.015
-610.230	800.000	-0.111	0.361
-609.215	31.629	-0.101	0.088
-608.201	268.270	0.086	0.151
-607.186	90.024	0.048	-0.054
-606.171	-200.000	-0.003	0.168
-605.157	349.395	-0.019	-0.038
-604.142	-82.418	-0.076	-0.025
-603.128	-200.000	0.014	-0.205
-602.113	5.959	0.135	-0.100
-601.098	265.070	-0.069	-0.121
-600.084	28.834	0.142	-0.121
-599.069	11.236	-0.027	-0.021
-598.055	21.281	-0.426	-0.348
-597.040	-200.000	-0.026	0.117
-596.025	188.476	0.040	-0.060
-595.011	-89.693	0.145	0.043
-593.996	390.827	-0.051	-0.106
-592.982	-63.310	0.038	0.016
-591.967	-200.000	0.046	-0.465
-590.952	176.840	-0.143	0.209
-589.938	800.000	-0.113	0.352
-588.923	120.864	-0.164	0.205
-587.909	-80.591	0.470	-0.157
-586.894	-43.442	-0.022	0.011
-585.879	526.072	0.079	0.186
-584.865	-52.601	-0.156	-0.072
-583.850	-27.085	0.394	0.230
-582.836	-153.398	-0.158	-0.011
-581.821	517.946	-0.121	0.283
-580.806	-200.000	-0.002	0.169
-579.792	-11.296	0.216	-0.143
-578.777	-22.713	0.257	0.156
-577.763	-102.063	0.332	0.080
-576.748	-200.000	-0.064	-0.284
-575.733	-44.271	0.074	0.037
-574.719	66.924	0.126	-0.129
-573.704	-200.000	0.014	-0.184
-572.690	800.000	-0.046	0.146
-571.675	98.269	0.078	-0.090
-570.661	-90.240	-0.163	-0.047
-569.646	-138.813	0.288	0.032
-568.631	-64.628	0.496	-0.202
-567.617	-12.207	-0.263	-0.173
-566.602	-104.019	-0.321	0.075
-565.588	19.624	0.030	0.025
-564.573	800.000	0.069	0.205
-563.558	-200.000	0.057	-0.335
-562.544	800.000	0.067	0.251
-561.529	-200.000	0.001	-0.080
-560.515	-200.000	0.028	-0.126
-559.500	222.913	-0.120	0.195
-558.485	-197.819	-0.248	-0.002
-557.471	-200.000	-0.020	0.136
-556.456	-200.000	-0.025	-0.165
-555.442	-51.819	0.326	0.152
-554.427	800.000	0.137	0.413
-553.412	109.134	-0.074	0.089
-552.398	-158.298	-0.187	0.011
-551.383	-14.338	0.091	-0.059
-550.369	-200.000	-0.048	0.246
-549.354	15.108	-0.160	-0.126
-548.339	-26.755	-0.290	0.170
-547.325	-129.849	0.171	0.024
-546.310	800.000	-0.101	-0.290
-545.296	-116.512	-0.466	-0.086
-544.281	-200.000	-0.001	0.223
-543.266	-109.068	0.441	0.094
-542.252	-78.445	-0.353	-0.121
-541.237	-128.065	-0.298	-0.043
-540.223	108.095	0.195	-0.233
-539.208	-187.418	0.337	0.005
-538.193	506.492	0.133	-0.308
-537.179	65.121	-0.182	-0.185
-536.164	-84.047	0.079	0.025
-535.150	288.602	-0.115	0.208
-534.135	-176.946	0.240	0.006
-533.121	-200.000	0.002	0.127
-532.106	-200.000	-0.011	-0.209
-531.091	-116.828	-0.017	0.003
-530.077	-174.250	-0.045	0.001
-529.062	-47.856	-0.242	0.117
-528.048	450.950	0.199	0.439
-527.033	-63.572	-0.213	0.087
-526.018	-73.123	-0.124	-0.045
-525.004	79.725	-0.090	0.097
-523.989	-107.227	0.377	-0.083
-522.975	23.989	-0.231	-0.191
-521.960	-200.000	0.013	0.109
-520.945	-179.188	-0.210	0.005
-519.931	-148.033	0.236	-0.020
-518.916	-108.658	0.388	0.083
-517.902	290.638	0.161	-0.292
-516.887	-200.000	0.001	0.089
-515.872	-102.951	-0.370	0.088
-514.858	-104.647	0.123	-0.028
-513.843	-200.000	0.015	-0.105
-512.829	18.363	0.067	-0.054
-511.814	128.993	-0.099	0.127
-510.799	79.954	-0.214	0.231
-509.785	-200.000	0.012	0.158
-508.770	-164.073	0.171	0.008
-507.756	219.849	0.076	-0.122
-506.741	70.308	-0.194	-0.200
-505.726	163.477	-0.123	0.174
-504.712	-48.028	0.300	-0.145
-503.697	-44.696	0.224	-0.112
-502.683	122.872	-0.155	-0.195
-501.668	-4.927	0.475	0.328
-500.653	676.160	-0.037	-0.096
-499.639	48.662	-0.102	-0.095
-498.624	150.439	-0.126	0.171
-497.610	605.068	-0.047	0.116
-496.595	182.190	-0.054	-0.079
-495.581	113.762	0.102	-0.124
-494.566	-200.000	0.059	0.280
-493.551	-135.687	-0.279	-0.033
-492.537	-94.807	0.164	0.045
-491.522	-123.721	-0.185	0.029
-490.508	-113.668	-0.066	0.013
-489.493	270.198	0.101	-0.178
-488.478	-200.000	0.030	0.287
-487.464	59.126	0.361	-0.355
-486.449	287.180	-0.115	0.207
-485.435	-148.117	-0.173	0.014
-484.420	192.338	-0.057	0.086
-483.405	-26.913	0.320	-0.187
-482.391	-52.153	0.246	-0.114
-481.376	9.738	0.150	0.114
-480.362	198.990	0.061	-0.094
-479.347	-200.000	-0.034	-0.186
-478.332	-31.202	-0.129	0.073
-477.318	73.081	-0.248	0.259
-476.303	-1.823	-0.116	-0.082
-475.289	-95.394	0.458	0.123
-474.274	-81.966	0.265	-0.086
-473.259	48.309	-0.130	-0.121
-472.245	29.320	-0.179	-0.152
-471.230	687.285	-0.036	-0.094
-470.216	-87.976	0.451	-0.135
-469.201	247.239	-0.068	0.114
-468.186	20.161	0.196	0.158
-467.172	-49.445	0.314	0.149
-466.157	313.966	-0.171	-0.322
-465.143	800.000	0.025	-0.094
-464.128	179.160	0.098	-0.144
-463.113	345.366	0.078	-0.153
-462.099	353.422	0.122	-0.243
-461.084	-79.412	0.234	-0.079
-460.070	63.883	0.148	-0.148
-459.055	-145.403	0.086	-0.008
-458.040	453.249	0.099	-0.219
-457.026	151.519	-0.077	0.104
-456.011	-200.000	0.025	0.122
-454.997	-200.000	-0.026	-0.142
-453.982	800.000	0.077	-0.239
-452.968	-176.412	-0.096	0.002
-451.953	90.763	-0.425	-0.475
-450.938	298.773	-0.049	0.090
-449.924	149.338	0.049	-0.066
-448.909	3.586	-0.104	-0.076
-447.895	800.000	0.044	-0.191
-446.880	42.692	0.290	-0.263
-445.865	800.000	-0.059	0.189
-444.851	-101.804	0.124	-0.030
-443.836	-38.625	0.071	0.037
-442.822	-62.667	-0.292	-0.121
-441.807	56.086	0.223	0.216
-440.792	-75.942	-0.354	-0.125
-439.778	-151.311	-0.098	-0.007
-438.763	-200.000	-0.004	-0.297
-437.749	204.934	-0.161	-0.249
-436.734	140.879	-0.098	0.129
-435.719	-103.681	0.272	0.064
-434.705	-3.616	0.340	-0.236
-433.690	436.091	0.072	-0.157
-432.676	-200.000	-0.006	-0.040
-431.661	-104.728	0.189	0.044
-430.646	-200.000	-0.020	-0.383
-429.632	413.673	0.086	0.182
-428.617	-99.381	-0.120	0.030
-427.603	800.000	0.080	-0.231
-426.588	235.024	0.088	-0.144
-425.573	-98.366	-0.175	-0.045
-424.559	-180.635	0.081	-0.002
-423.544	-91.399	0.063	0.018
-422.530	-200.000	0.034	0.161
-421.515	-12.962	-0.015	-0.010
-420.500	-66.935	0.104	-0.041
-419.486	800.000	-0.025	-0.084
-418.471	79.762	-0.188	-0.202
-417.457	-60.352	0.148	-0.063
-416.442	105.736	-0.194	-0.228
-415.428	-200.000	-0.018	-0.089
-414.413	800.000	-0.075	-0.209
-413.398	-134.066	-0.063	0.008
-412.384	222.770	-0.173	0.277
-411.369	800.000	0.074	-0.261
-410.355	638.596	-0.062	0.158
-409.340	292.986	-0.043	0.079
-408.325	262.527	0.039	-0.068
-407.311	800.000	0.070	-0.230
-406.296	800.000	0.039	0.139
-405.282	-191.448	-0.064	-0.001
-404.267	221.002	0.081	-0.129
-403.252	-200.000	0.037	0.184
-402.238	-65.363	-0.280	0.112
-401.223	244.339	0.065	0.109
-400.209	-60.236	-0.188	-0.080
-399.194	-108.667	0.299	0.064
-398.179	-133.710	-0.128	-0.016
-397.165	-79.152	-0.150	0.051
-396.150	-200.000	0.009	-0.048
-395.136	119.876	0.192	-0.237
-394.121	-158.453	0.046	0.003
-393.106	-181.871	-0.338	-0.006
-392.092	-200.000	0.026	-0.170
-391.077	800.000	0.021	0.075
-390.063	-139.522	0.149	0.016
-389.048	-200.000	-0.023	0.260
-388.033	114.003	0.082	-0.100
-387.019	-142.988	-0.176	-0.017
-386.004	29.755	-0.101	-0.086
-384.990	-200.000	-0.004	0.164
-383.975	-7.695	0.119	-0.080
-382.960	39.216	0.312	0.278
-381.946	181.383	-0.108	0.158
-380.931	12.938	0.187	-0.144
-379.917	-81.778	-0.371	0.121
-378.902	800.000	-0.076	0.259
-377.888	800.000	0.057	-0.181
-376.873	-87.261	-0.167	-0.050
-375.858	22.744	0.315	0.257
-374.844	21.603	-0.216	0.175
-373.829	506.977	-0.045	0.104
-372.815	0.430	-0.249	0.177
-371.800	59.799	0.194	0.191
-370.785	800.000	-0.040	0.115
-369.771	-200.000	0.001	0.432
-368.756	324.729	-0.068	-0.130
-367.742	137.658	-0.095	0.124
-366.727	800.000	-0.101	-0.299
-365.712	-137.370	-0.163	0.018
-364.698	77.697	-0.250	-0.265
-363.683	72.941	0.181	0.188
-362.669	800.000	0.079	0.223
-361.654	508.215	0.029	-0.068
-360.639	800.000	-0.108	0.390
-359.625	-200.000	-0.024	0.126
-358.610	27.016	-0.206	0.172
-357.596	-198.244	0.234	-0.001
-356.581	160.878	-0.233	0.324
-355.566	-115.284	-0.266	-0.050
-354.552	-78.324	-0.342	0.117
-353.537	800.000	-0.075	0.295
-352.523	800.000	0.144	0.448
-351.508	306.098	0.011	-0.020
-350.493	-42.349	0.460	0.234
-349.479	96.421	0.069	-0.079
-348.464	-55.340	0.173	-0.077
-347.450	-110.781	0.117	-0.024
-346.435	171.350	-0.159	0.227
-345.420	153.951	0.409	-0.557
-344.406	351.472	-0.068	-0.134
-343.391	-29.157	0.213	0.121
-342.377	-200.000	0.057	-0.260
-341.362	800.000	0.112	-0.436
-340.348	130.124	-0.127	-0.161
-339.333	-200.000	-0.028	0.216
-338.318	-30.376	-0.120	-0.068
-337.304	-60.748	0.105	-0.044
-336.289	159.606	-0.120	0.166
-335.275	128.275	-0.085	-0.108
-334.260	-79.262	-0.164	0.055
-333.245	800.000	-0.038	0.109
-332.231	-62.782	-0.147	-0.061
-331.216	219.355	0.273	-0.434
-330.202	-12.665	0.156	-0.101
-329.187	366.300	-0.123	0.246
-328.172	613.336	0.058	-0.145
-327.158	-200.000	-0.003	0.028
-326.143	-111.823	-0.347	0.070
-325.129	34.173	-0.132	0.114
-324.114	41.228	-0.082	-0.074
-323.099	8.154	-0.128	0.095
-322.085	-134.607	-0.144	0.017
-321.070	-76.844	0.132	-0.046
-320.056	-82.351	0.174	-0.056
-319.041	800.000	0.033	0.118
-318.026	27.964	0.141	-0.118
-317.012	26.996	-0.069	-0.057
-315.997	-61.559	0.091	-0.038
-314.983	-32.273	0.190	0.105
-313.968	-5.191	-0.154	0.105
-312.953	-15.134	-0.280	-0.178
-311.939	199.077	-0.071	0.108
-310.924	100.592	-0.132	-0.152
-309.910	402.586	0.076	-0.158
-308.895	800.000	0.088	0.336
-307.880	115.863	-0.140	-0.170
-306.866	800.000	0.093	-0.259
-305.851	-169.897	-0.385	-0.014
-304.837	784.809	0.089	-0.241
-303.822	56.747	-0.077	0.074
-302.807	326.391	-0.059	0.113
-301.793	148.667	0.101	0.136
-300.778	345.128	0.090	-0.176
-299.764	800.000	0.056	-0.172
-298.749	235.731	-0.200	0.328
-297.735	-200.000	-0.017	-0.100
-296.720	-200.000	-0.034	0.162
-295.705	10.500	-0.054	-0.041
-294.691	-11.467	-0.269	0.176
-293.676	339.479	-0.057	0.110
-292.662	-94.707	-0.229	0.062
-291.647	-117.260	-0.129	0.023
-290.632	64.539	0.167	0.167
-289.618	266.687	-0.099	-0.172
-288.603	384.004	0.116	0.237
-287.589	-200.000	-0.006	0.208
-286.574	-79.287	-0.235	-0.079
-285.559	-172.630	-0.111	-0.003
-284.545	-200.000	-0.033	-0.255
-283.530	-41.724	0.099	-0.051
-282.516	-200.000	-0.020	-0.101
-281.501	24.803	-0.100	-0.082
-280.486	-108.214	-0.340	-0.073
-279.472	-200.000	-0.016	-0.193
-278.457	-129.046	0.402	0.056
-277.443	-57.250	-0.158	0.069
-276.428	43.481	-0.031	-0.028
-275.413	133.127	-0.113	-0.145
-274.399	76.296	-0.075	-0.079
-273.384	446.219	-0.105	0.230
-272.370	-200.000	0.033	-0.186
-271.355	14.390	-0.367	0.284
-270.340	-82.336	0.096	-0.031
-269.326	55.452	0.179	0.172
-268.311	661.602	0.042	-0.107
-267.297	153.757	0.084	0.114
-266.282	-0.599	-0.186	0.131
-265.267	-200.000	-0.008	-0.090
-264.253	229.298	-0.045	0.073
-263.238	92.098	-0.103	0.115
-262.224	53.953	0.055	0.053
-261.209	-200.000	0.025	0.215
-260.195	94.147	0.109	0.122
-259.180	564.327	-0.045	-0.107
-258.165	-36.103	0.084	0.045
-257.151	455.652	0.161	-0.355
-256.136	141.548	0.119	-0.156
-255.122	800.000	0.105	-0.300
-254.107	287.957	-0.182	0.327
-253.092	-140.399	-0.236	0.024
-252.078	128.604	0.183	-0.231
-251.063	-200.000	-0.002	0.043
-250.049	361.009	-0.165	0.328
-249.034	78.094	-0.152	-0.161
-248.019	-108.330	-0.139	-0.030
-247.005	-31.053	0.262	0.147
-245.990	-76.516	0.067	-0.023
-244.976	167.592	0.134	-0.189
-243.961	36.052	-0.149	-0.130
-242.946	-134.860	-0.329	-0.039
-241.932	-200.000	0.004	-0.116
-240.917	126.290	0.018	-0.022
-239.903	671.860	0.133	0.342
-238.888	-137.660	0.233	-0.026
-237.873	-193.512	0.240	0.002
-236.859	-85.520	-0.169	0.052
-235.844	-49.776	0.396	-0.186
-234.830	800.000	-0.140	-0.391
-233.815	-68.605	-0.190	-0.073
-232.800	-86.408	0.257	-0.078
-231.786	-118.797	-0.193	-0.034
-230.771	-200.000	0.014	0.218
-229.757	-68.974	0.368	-0.141
-228.742	-98.788	0.176	-0.044
-227.727	-157.529	-0.199	0.012
-226.713	-14.055	0.136	-0.087
-225.698	-200.000	0.010	0.166
-224.684	24.244	0.457	0.373
-223.669	800.000	-0.097	0.329
-222.655	-130.713	0.310	0.041
-221.640	800.000	0.062	0.185
-220.625	-162.157	0.089	0.004
-219.611	-101.310	-0.110	-0.027
-218.596	800.000	0.047	0.128
-217.582	-49.287	-0.213	0.101
-216.567	800.000	-0.072	0.222
-215.552	800.000	0.054	0.149
-214.538	472.268	0.140	0.312
-213.523	336.020	-0.102	0.197
-212.509	-14.080	0.059	0.038
-211.494	-150.730	-0.191	-0.014
-210.479	-5.635	0.185	0.125
-209.465	800.000	-0.036	0.116
-208.450	60.411	-0.229	0.225
-207.436	800.000	0.057	0.226
-206.421	-152.074	0.380	0.027
-205.406	203.619	-0.291	-0.445
-204.392	-43.820	0.302	-0.151
-203.377	299.909	-0.097	0.178
-202.363	-200.000	-0.013	-0.168
-201.348	291.124	0.088	0.157
-200.333	229.331	-0.086	0.138
-199.319	-70.288	0.079	0.030
-198.304	256.005	0.086	0.146
-197.290	-187.337	-0.179	-0.002
-196.275	-113.176	0.035	0.007
-195.260	-45.819	0.192	-0.094
-194.246	-161.887	-0.128	-0.006
-193.231	-69.070	0.212	0.081
-192.217	-20.911	0.150	-0.091
-191.202	-200.000	-0.067	-0.485
-190.187	-49.814	-0.258	-0.121
-189.173	-96.716	0.084	0.022
-188.158	1.221	0.184	0.130
-187.144	-99.218	0.143	-0.036
-186.129	51.076	-0.055	0.051
-185.114	-200.000	0.048	0.274
-184.100	547.927	-0.118	-0.278
-183.085	800.000	-0.019	-0.079
-182.071	327.383	-0.058	0.110
-181.056	-103.074	0.102	-0.024
-180.042	69.125	-0.145	-0.148
-179.027	-200.000	-0.021	0.167
-178.012	800.000	-0.080	0.287
-176.998	-25.551	0.338	0.197
-175.983	-83.560	-0.208	0.066
-174.969	-200.000	-0.006	0.079
-173.954	-66.177	-0.476	0.187
-172.939	-200.000	-0.099	0.460
-171.925	-200.000	-0.006	0.154
-170.910	-125.966	0.240	-0.036
-169.896	-131.371	0.282	0.037
-168.881	-26.266	0.402	0.233
-167.866	-200.000	-0.024	-0.140
-166.852	-200.000	0.013	-0.088
-165.837	115.124	-0.076	0.092
-164.823	-44.546	-0.122	-0.060
-163.808	800.000	-0.063	0.207
-162.793	157.015	0.135	-0.184
-161.779	170.199	-0.191	-0.270
-160.764	-21.172	-0.160	0.097
-159.750	-35.404	-0.067	-0.036
-158.735	4.269	0.130	0.094
-157.720	115.769	0.052	-0.063
-156.706	-88.084	0.194	0.057
-155.691	-57.942	-0.091	-0.039
-154.677	106.441	-0.241	-0.282
-153.662	405.504	0.150	-0.312
-152.647	-99.160	-0.499	0.124
-151.633	-91.240	-0.035	-0.010
-150.618	240.327	0.099	-0.163
-149.604	-33.564	-0.421	-0.229
-148.589	-21.466	0.287	-0.173
-147.574	-173.485	0.057	-0.002
-146.560	-16.691	0.259	-0.162
-145.545	-156.429	-0.059	0.004
-144.531	274.639	-0.186	0.326
-143.516	-200.000	-0.204	-0.000
-142.502	384.585	0.130	0.264
-141.487	-99.744	0.234	0.058
-140.472	-5.137	0.334	-0.227
-139.458	-21.202	-0.259	-0.156
-138.443	-162.837	0.170	-0.008
-137.429	-76.504	-0.127	0.044
-136.414	22.250	-0.289	0.233
-135.399	-200.000	-0.026	-0.129
-134.385	23.368	-0.066	0.053
-133.370	800.000	-0.054	-0.229
-132.356	-88.062	-0.135	-0.040
-131.341	-200.000	0.032	-0.151
-130.326	800.000	-0.082	0.317
-129.312	128.173	0.094	-0.118
-128.297	-145.663	-0.131	-0.012
-127.283	-200.000	-0.053	0.409
-126.268	-15.119	0.177	-0.112
-125.253	717.581	0.059	-0.154
-124.239	32.476	-0.209	-0.178
-123.224	119.974	-0.170	0.208
-122.210	243.633	-0.178	0.294
-121.195	800.000	-0.077	-0.294
-120.180	-0.462	0.106	-0.074
-119.166	-0.772	-0.249	0.174
-118.151	42.919	0.067	0.060
-117.137	111.441	-0.193	-0.229
-116.122	-149.119	0.090	0.007
-115.107	57.060	0.154	0.148
-114.093	619.191	0.065	-0.162
-113.078	-71.591	0.430	0.158
-112.064	800.000	-0.039	0.161
-111.049	-117.317	0.238	-0.043
-110.034	294.824	0.162	-0.292
-109.020	-200.000	0.008	0.228
-108.005	-160.215	0.226	-0.012
-106.991	-35.201	-0.073	-0.039
-105.976	10.959	0.228	0.171
-104.962	-200.000	0.009	0.187
-103.947	80.203	-0.075	0.079
-102.932	-50.441	0.350	0.163
-101.918	-128.963	-0.176	0.024
-100.903	-59.573	0.234	0.099
-99.889	50.225	-0.104	0.097
-98.874	84.346	0.226	0.243
-97.859	44.416	-0.190	-0.172
-96.845	-58.402	0.315	0.135
-95.830	548.783	0.105	0.247
-94.816	122.808	-0.155	0.191
-93.801	-200.000	-0.024	-0.106
-92.786	-191.423	-0.277	0.003
-91.772	-40.338	0.178	-0.091
-90.757	77.233	-0.255	-0.267
-89.743	73.695	-0.105	-0.108
-88.728	-151.349	-0.395	0.029
-87.713	-89.950	0.320	0.092
-86.699	-200.000	-0.040	0.436
-85.684	142.425	0.104	0.135
-84.670	-155.227	-0.323	0.021
-83.655	-200.000	0.072	-0.348
-82.640	-86.719	0.168	0.051
-81.626	-65.586	-0.196	-0.078
-80.611	379.204	0.021	0.042
-79.597	-22.092	0.108	0.065
-78.582	-200.000	-0.011	-0.179
-77.567	124.830	0.107	-0.133
-76.553	59.730	0.039	0.038
-75.538	800.000	0.059	-0.244
-74.524	135.226	-0.206	-0.263
-73.509	156.217	-0.272	0.369
-72.494	-200.000	0.004	0.212
-71.480	-69.389	0.309	0.116
-70.465	131.250	0.097	0.123
-69.451	69.930	0.104	0.105
-68.436	-200.000	0.018	0.122
-67.422	10.469	0.112	0.084
-66.407	-59.125	-0.092	-0.039
-65.392	-94.224	0.145	0.039
-64.378	-7.525	0.282	-0.188
-63.363	-154.746	-0.306	0.020
-62.349	337.254	-0.136	0.260
-61.334	48.093	-0.987	-0.908
-60.319	66.114	0.544	0.544
-59.305	800.000	-0.274	-0.979
-58.290	190.775	0.836	1.236
-57.276	461.131	0.659	1.445
-56.261	-200.000	115.855	660.977
-55.246	527.445	1523.099	3530.983
-54.232	174.971	2698.970	3842.561
-53.217	98.111	2319.064	2625.181
-52.203	33.658	2065.315	1765.518
-51.188	28.946	1981.211	1651.367
-50.173	27.613	1963.472	1624.643
-49.159	45.654	2023.488	1838.084
-48.144	44.351	2038.882	1840.204
-47.130	29.462	1997.582	1669.420
-46.115	27.205	1986.769	1639.983
-45.100	27.124	1984.437	1637.259
-44.086	27.161	1981.837	1635.385
-43.071	27.040	1979.746	1632.503
-42.057	26.944	1977.620	1629.830
-41.042	27.045	1975.248	1628.709
-40.027	27.044	1973.014	1626.795
-39.013	27.056	1971.648	1625.715
-37.998	27.135	1969.853	1624.873
-36.984	27.130	1968.181	1623.389
-35.969	27.066	1966.051	1620.997
-34.954	27.163	1964.483	1620.500
-33.940	27.197	1962.568	1619.165
-32.925	27.144	1961.449	1617.706
-31.911	27.207	1959.809	1616.850
-30.896	27.148	1958.166	1614.902
-29.881	27.193	1956.628	1613.971
-28.867	27.268	1954.530	1612.838
-27.852	27.267	1952.808	1611.347
-26.838	27.239	1951.505	1609.961
-25.823	27.169	1949.436	1607.565
-24.809	27.235	1947.927	1606.841
-23.794	27.317	1945.865	1605.805
-22.779	27.209	1943.932	1603.191
-21.765	27.157	1942.753	1601.699
-20.750	27.239	1940.607	1600.591
-19.736	27.237	1939.413	1599.517
-18.721	27.207	1937.379	1597.516
-17.706	27.215	1936.024	1596.405
-16.692	27.239	1934.081	1594.949
-15.677	27.174	1932.889	1593.339
-14.663	27.285	1931.402	1593.021
-13.648	27.190	1930.300	1591.211
-12.633	27.210	1929.135	1590.368
-11.619	27.152	1927.838	1588.730
-10.604	27.202	1926.064	1587.640
-9.590	27.240	1924.618	1586.711
-8.575	27.161	1923.747	1585.240
-7.560	27.230	1921.751	1584.137
-6.546	27.197	1920.950	1583.125
-5.531	27.122	1919.955	1581.589
-4.517	27.156	1918.724	1580.811
-3.502	27.124	1917.543	1579.495
-2.487	27.087	1916.517	1578.270
-1.473	27.197	1915.143	1578.029
-0.458	27.313	1909.508	1574.323
0.556	27.934	1889.569	1544.551
1.571	23.397	1869.818	1490.214
2.586	19.248	1892.221	1472.555
3.600	18.149	1926.743	1489.720
4.615	17.541	1919.704	1478.865
5.629	13.324	1820.023	1367.165
6.644	6.530	1706.822	1229.191
7.659	3.449	1674.489	1182.199
8.673	3.201	1671.648	1178.192
9.688	3.124	1670.391	1176.616
10.702	3.247	1668.383	1176.038
11.717	3.228	1665.452	1173.718
12.731	3.634	1664.325	1175.916
13.746	8.300	1675.333	1219.298
14.761	16.030	1692.139	1290.839
15.775	20.161	1698.882	1327.573
16.790	20.450	1697.852	1328.859
17.804	19.406	1696.192	1319.462
18.819	18.522	1691.877	1309.237
19.834	17.977	1689.659	1303.249
20.848	17.707	1688.439	1300.130
21.863	17.646	1687.179	1298.585
22.877	17.424	1685.897	1295.793
23.892	17.245	1684.238	1293.038
24.907	17.172	1683.476	1291.785
25.921	17.166	1682.304	1290.723
26.936	17.135	1681.346	1289.642
27.950	17.146	1680.594	1289.037
28.965	17.159	1679.501	1288.178
29.980	17.260	1678.672	1288.198
30.994	17.333	1678.238	1288.299
32.009	17.374	1677.193	1287.696
33.023	17.468	1676.384	1287.674
34.038	17.530	1675.360	1287.242
35.053	17.461	1673.867	1285.457
36.067	17.361	1672.634	1283.646
37.082	17.269	1671.547	1282.004
38.096	17.293	1670.590	1281.333
39.111	17.400	1669.935	1281.529
40.126	17.450	1668.869	1280.974
41.140	17.395	1667.939	1279.730
42.155	17.188	1666.361	1276.852
43.169	17.056	1664.370	1274.218
44.184	16.874	1663.688	1272.217
45.199	16.892	1662.484	1271.320
46.213	16.995	1661.191	1270.991
47.228	16.999	1659.623	1269.713
48.242	17.097	1659.131	1269.956
49.257	17.242	1658.092	1270.131
50.271	17.334	1656.439	1269.442
51.286	17.199	1655.236	1267.395
52.301	17.310	1654.097	1267.241
53.315	17.197	1652.976	1265.431
54.330	17.229	1651.301	1264.269
55.344	17.045	1649.782	1261.630
56.359	17.089	1648.148	1260.593
57.374	17.101	1646.730	1259.485
58.388	17.083	1645.916	1258.620
59.403	16.930	1644.943	1256.633
60.417	16.876	1643.255	1254.828
61.432	16.756	1642.030	1252.898
62.447	16.833	1640.758	1252.387
63.461	16.794	1639.685	1251.163
64.476	16.783	1638.712	1250.230
65.490	16.692	1637.270	1248.348
66.505	16.794	1635.879	1247.931
67.520	16.726	1634.986	1246.640
68.534	16.804	1633.903	1246.274
69.549	16.825	1633.249	1245.819
70.563	16.816	1631.637	1244.416
71.578	16.867	1630.355	1243.703
72.593	16.725	1629.321	1241.760
73.607	16.574	1628.417	1239.858
74.622	16.723	1627.097	1239.834
75.636	16.610	1626.183	1238.202
76.651	16.593	1625.639	1237.551
77.666	16.588	1624.700	1236.689
78.680	16.648	1624.241	1236.672
79.695	16.721	1622.831	1236.022
80.709	16.735	1622.307	1235.613
81.724	16.898	1621.015	1235.708
82.739	16.966	1620.466	1235.673
83.753	17.048	1619.407	1235.358
84.768	17.106	1618.708	1235.138
85.782	17.211	1618.184	1235.392
86.797	17.338	1617.145	1235.408
87.812	17.315	1616.800	1234.869
88.826	17.292	1615.525	1233.622
89.841	17.147	1614.393	1231.595
90.855	17.224	1613.461	1231.331
91.870	17.250	1612.277	1230.506
92.884	17.357	1611.484	1230.570
93.899	17.371	1610.776	1230.024
94.914	17.391	1609.090	1228.772
95.928	17.482	1607.626	1228.197
96.943	17.495	1606.329	1227.192
97.957	17.392	1605.021	1225.342
98.972	17.220	1603.587	1222.902
99.987	17.354	1602.046	1222.579
101.001	17.311	1600.314	1220.847
102.016	17.328	1599.097	1219.930
103.030	17.298	1597.912	1218.700
104.045	17.240	1597.130	1217.582
105.060	17.229	1595.689	1216.294
106.074	17.261	1594.008	1215.136
107.089	17.134	1592.254	1212.784
108.103	16.934	1590.350	1209.804
109.118	16.753	1588.866	1207.278
110.133	16.767	1586.859	1205.741
111.147	16.784	1585.645	1204.839
112.162	16.795	1584.883	1204.230
113.176	16.792	1583.367	1202.948
114.191	16.850	1581.921	1202.154
115.206	16.956	1580.836	1201.976
116.220	16.894	1579.302	1200.264
117.235	16.884	1578.205	1199.250
118.249	16.908	1576.560	1198.065
119.264	16.828	1574.944	1196.171
120.279	16.724	1574.297	1194.834
121.293	16.872	1572.402	1194.337
122.308	16.829	1570.412	1192.417
123.322	16.660	1569.094	1190.118
124.337	16.660	1568.274	1189.393
125.352	16.644	1566.809	1188.068
126.366	16.602	1565.802	1186.904
127.381	16.701	1563.894	1186.044
128.395	16.731	1562.944	1185.432
129.410	16.635	1562.003	1183.942
130.424	16.669	1560.731	1183.105
131.439	16.770	1559.151	1182.509
132.454	16.806	1558.204	1181.938
133.468	16.773	1557.639	1181.175
134.483	16.875	1555.689	1180.302
135.497	16.898	1554.210	1179.238
136.512	16.902	1553.290	1178.461
137.527	16.959	1551.989	1177.765
138.541	16.976	1550.533	1176.671
139.556	17.039	1549.075	1175.902
140.570	16.999	1547.952	1174.668
141.585	17.084	1547.020	1174.441
142.600	17.183	1545.924	1174.191
143.614	17.248	1545.008	1173.841
144.629	17.330	1543.815	1173.394
145.643	17.309	1542.682	1172.290
146.658	17.396	1541.202	1171.657
147.673	17.355	1539.772	1170.186
148.687	17.275	1537.571	1167.859
149.702	17.230	1536.078	1166.314
150.716	17.039	1534.360	1163.600
151.731	17.049	1533.479	1162.896
152.746	17.085	1532.046	1161.953
153.760	17.033	1530.583	1160.385
154.775	17.066	1529.398	1159.608
155.789	17.228	1527.979	1159.534
156.804	17.351	1527.263	1159.730
157.819	17.306	1526.303	1158.588
158.833	17.321	1524.385	1157.134
159.848	17.277	1523.989	1156.432
160.862	17.435	1522.595	1156.346
161.877	17.570	1521.466	1156.299
162.892	17.364	1520.399	1153.988
163.906	17.199	1518.427	1151.271
164.921	17.115	1516.756	1149.337
165.935	17.193	1516.225	1149.360
166.950	17.172	1515.492	1148.562
167.964	17.203	1514.354	1147.806
168.979	17.293	1513.084	1147.351
169.994	17.251	1511.544	1145.793
171.008	17.100	1511.127	1144.360
172.023	17.223	1510.059	1144.278
173.037	17.278	1509.037	1143.771
174.052	17.465	1507.836	1144.019
175.067	17.570	1506.926	1143.935
176.081	17.380	1505.604	1141.553
177.096	17.234	1503.955	1139.226
178.110	17.142	1502.328	1137.275
179.125	17.100	1501.600	1136.344
180.140	17.250	1500.594	1136.486
181.154	17.170	1500.196	1135.544
182.169	17.373	1498.389	1135.432
183.183	17.423	1497.465	1134.969
184.198	17.468	1496.711	1134.594
185.213	17.603	1495.626	1134.574
186.227	17.647	1494.681	1134.042
187.242	17.542	1493.596	1132.423
188.256	17.664	1492.882	1132.596
189.271	17.671	1491.531	1131.517
190.286	17.717	1490.768	1131.141
191.300	17.579	1489.942	1129.499
192.315	17.397	1488.445	1127.056
193.329	17.132	1486.839	1123.986
194.344	17.076	1485.261	1122.324
195.359	17.291	1484.515	1123.088
196.373	17.313	1484.304	1122.972
197.388	17.316	1483.540	1122.310
198.402	17.519	1481.804	1122.237
199.417	17.563	1481.049	1121.855
200.432	17.681	1480.106	1121.821
201.446	17.881	1478.978	1122.181
202.461	17.946	1477.897	1121.690
203.475	17.990	1477.035	1121.224
204.490	18.047	1476.101	1120.789
205.504	17.931	1475.124	1119.189
206.519	17.770	1473.852	1117.067
207.534	17.736	1472.223	1115.512
208.548	17.678	1471.276	1114.315
209.563	17.672	1470.345	1113.477
210.577	17.695	1469.521	1112.906
211.592	17.711	1468.088	1111.827
212.607	17.741	1467.323	1111.344
213.621	17.865	1467.230	1111.978
214.636	17.894	1466.401	1111.446
215.650	17.883	1464.992	1110.208
216.665	17.859	1464.640	1109.683
217.680	17.917	1463.301	1108.946
218.694	17.991	1462.942	1109.059
219.709	18.102	1461.993	1108.958
220.723	18.163	1460.854	1108.396
221.738	18.027	1460.237	1106.945
222.753	18.028	1459.063	1105.963
223.767	17.998	1458.266	1105.069
224.782	17.978	1457.286	1104.099
225.796	18.083	1456.317	1103.948
226.811	18.171	1455.945	1104.137
227.826	18.170	1455.005	1103.317
228.840	18.084	1453.904	1101.828
229.855	18.061	1452.844	1100.782
230.869	18.108	1451.646	1100.077
231.884	17.961	1450.943	1098.503
232.899	18.021	1449.670	1097.831
233.913	17.951	1448.322	1096.260
234.928	17.917	1447.130	1095.045
235.942	17.950	1445.657	1094.046
236.957	17.845	1444.684	1092.540
237.972	17.710	1444.111	1091.144
238.986	17.849	1442.027	1090.362
240.001	17.905	1441.697	1090.376
241.015	17.936	1440.376	1089.473
242.030	17.913	1439.429	1088.518
243.045	18.043	1438.040	1088.197
244.059	18.055	1437.555	1087.813
245.074	18.039	1436.873	1087.099
246.088	18.002	1436.186	1086.247
247.103	18.149	1435.589	1086.628
248.117	18.217	1434.875	1086.429
249.132	18.276	1434.077	1086.102
250.147	18.392	1433.108	1086.003
251.161	18.563	1433.134	1087.016
252.176	18.688	1432.596	1087.303
253.190	18.823	1431.409	1087.157
254.205	18.745	1431.165	1086.384
255.220	18.874	1430.134	1086.320
256.234	18.855	1429.275	1085.454
257.249	18.817	1428.523	1084.547
258.263	18.850	1427.353	1083.770
259.278	18.863	1426.423	1083.050
260.293	18.913	1425.365	1082.467
261.307	18.833	1424.701	1081.362
262.322	18.896	1424.191	1081.277
263.336	18.893	1423.724	1080.802
264.351	18.981	1422.278	1080.164
265.366	18.956	1421.664	1079.447
266.380	19.014	1420.524	1078.850
267.395	18.997	1419.860	1078.140
268.409	19.060	1418.715	1077.571
269.424	18.949	1417.990	1076.232
270.439	18.831	1416.643	1074.373
271.453	18.923	1415.408	1073.917
272.468	18.738	1415.115	1072.449
273.482	18.758	1414.226	1071.802
274.497	18.666	1413.320	1070.444
275.512	18.687	1412.048	1069.521
276.526	18.788	1411.325	1069.505
277.541	18.825	1410.144	1068.746
278.555	18.770	1409.448	1067.780
279.570	18.890	1408.490	1067.706
280.585	18.880	1407.726	1066.972
281.599	19.081	1406.865	1067.474
282.614	19.046	1406.150	1066.616
283.628	19.030	1404.834	1065.429
284.643	18.965	1403.741	1064.102
285.657	18.949	1402.499	1062.966
286.672	18.920	1401.783	1062.152
287.687	18.963	1400.597	1061.423
288.701	18.995	1399.468	1060.672
289.716	18.926	1399.329	1060.046
290.730	18.866	1398.032	1058.598
291.745	18.968	1397.282	1058.567
292.760	18.993	1396.730	1058.209
293.774	19.027	1394.862	1056.910
294.789	19.099	1394.410	1056.918
295.803	19.182	1393.431	1056.588
296.818	19.253	1392.826	1056.473
297.833	19.053	1392.104	1054.602
298.847	19.070	1390.856	1053.668
299.862	18.909	1389.848	1051.825
300.876	18.997	1388.816	1051.490
301.891	19.038	1387.888	1050.946
302.906	19.139	1386.922	1050.741
303.920	19.218	1386.419	1050.747
304.935	19.309	1385.802	1050.740
305.949	19.372	1385.091	1050.494
306.964	19.544	1384.678	1051.135
307.979	19.591	1383.401	1050.360
308.993	19.473	1382.374	1048.766
310.008	19.389	1381.514	1047.514
311.022	19.362	1380.683	1046.627
312.037	19.457	1379.439	1046.165
313.052	19.480	1378.900	1045.807
314.066	19.569	1377.277	1045.018
315.081	19.388	1376.289	1043.080
316.095	19.195	1375.509	1041.234
317.110	19.135	1374.368	1039.914
318.125	19.250	1372.912	1039.412
319.139	19.140	1372.453	1038.309
320.154	19.137	1371.897	1037.779
321.168	19.140	1370.646	1036.763
322.183	19.190	1369.412	1036.036
323.197	19.196	1368.374	1035.196
324.212	19.218	1367.667	1034.701
325.227	19.280	1366.878	1034.385
326.241	19.422	1365.857	1034.373
327.256	19.391	1365.251	1033.635
328.270	19.320	1364.418	1032.486
329.285	19.192	1363.840	1031.195
330.300	19.305	1362.303	1030.614
331.314	19.305	1361.378	1029.824
332.329	19.293	1360.589	1029.064
333.343	19.323	1359.359	1028.220
334.358	19.350	1358.614	1027.731
335.373	19.341	1358.444	1027.457
336.387	19.439	1357.790	1027.452
337.402	19.471	1356.911	1026.889
338.416	19.558	1356.019	1026.638
339.431	19.537	1355.781	1026.244
340.446	19.723	1354.663	1026.411
341.460	19.641	1354.345	1025.590
342.475	19.883	1353.001	1025.920
343.489	19.788	1352.820	1025.128
344.504	19.795	1351.863	1024.355
345.519	19.958	1350.717	1024.358
346.533	20.163	1349.519	1024.570
347.548	20.125	1348.561	1023.529
348.562	20.068	1348.048	1022.715
349.577	20.093	1347.158	1022.097
350.592	19.982	1346.297	1020.696
351.606	19.804	1345.216	1018.741
352.621	19.691	1343.777	1016.893
353.635	19.652	1342.884	1015.900
354.650	19.605	1341.774	1014.693
355.665	19.602	1340.717	1013.786
356.679	19.727	1339.829	1013.757
357.694	19.745	1338.734	1012.948
358.708	19.756	1337.950	1012.327
359.723	19.973	1336.790	1012.630
360.738	19.897	1336.266	1011.699
361.752	19.952	1335.010	1010.982
362.767	19.919	1333.914	1009.865
363.781	19.989	1332.729	1009.288
364.796	19.935	1332.362	1008.608
365.810	20.026	1331.372	1008.300
366.825	20.205	1330.562	1008.639
367.840	20.254	1329.943	1008.362
368.854	20.301	1329.430	1008.157
369.869	20.268	1329.922	1008.251
370.883	20.352	1328.405	1007.499
371.898	20.303	1327.708	1006.594
372.913	20.293	1327.003	1005.917
373.927	20.250	1325.643	1004.547
374.942	20.198	1324.807	1003.520
375.956	20.263	1324.583	1003.643
376.971	20.285	1323.519	1002.871
377.986	20.304	1322.561	1002.167
379.000	20.333	1322.031	1001.842
380.015	20.401	1321.208	1001.524
381.029	20.477	1320.493	1001.333
382.044	20.487	1320.225	1001.098
383.059	20.639	1318.893	1000.874
384.073	20.506	1318.525	999.742
385.088	20.536	1317.659	999.170
386.102	20.580	1317.285	999.051
387.117	20.535	1316.643	998.215
388.132	20.581	1315.458	997.493
389.146	20.464	1314.336	995.880
390.161	20.225	1313.804	994.022
391.175	20.336	1312.837	993.840
392.190	20.249	1312.280	992.831
393.205	20.370	1310.983	992.452
394.219	20.526	1310.065	992.560
395.234	20.594	1309.043	992.084
396.248	20.596	1307.576	990.898
397.263	20.445	1305.987	988.750
398.278	20.450	1304.343	987.444
399.292	20.393	1303.642	986.504
400.307	20.303	1302.395	984.962
401.321	20.248	1301.438	983.835
402.336	20.247	1300.722	983.202
403.350	20.347	1299.411	982.694
404.365	20.294	1298.634	981.715
405.380	20.384	1297.964	981.632
406.394	20.365	1297.020	980.722
407.409	20.471	1296.474	980.824
408.423	20.513	1295.726	980.405
409.438	20.630	1294.857	980.324
410.453	20.799	1294.272	980.743
411.467	20.672	1294.179	979.875
412.482	20.813	1293.679	980.204
413.496	20.775	1293.172	979.516
414.511	20.836	1292.309	979.117
415.526	20.965	1291.246	978.954
416.540	21.013	1290.709	978.725
417.555	21.236	1289.932	979.303
418.569	21.090	1289.467	978.044
419.584	21.160	1288.338	977.494
420.599	20.960	1288.163	976.153
421.613	145.574	1435.048	1796.558
422.628	140.469	1456.394	1796.646
