DTS Sentinel unit serial number:	SN413079Multiplexer serial number:	ORYXHardware model number:	OX4-SRSoftware version number:	ORYX F/W v4.00 Oryx Data Collector v3.7.2.0data status	okinstallation	princeton_trtdifferential loss correction	single-endedforward channel	channel 4reverse channel	N/Adate	2019/09/13time	13:33:35forward acquisition time	60.00reverse acquisition time	0.00gamma	496.2192k internal	0.2297k external	0.2297temperature offset calibration	1.0213default loss term (dB/km)	0.3790temperature slope calibration	1.0000multiplexer offset coefficient	1.0000multiplexer slope coefficient	1.0000fibre end	0.00T internal ref (°C)	35.06T ext. ref 1 (°C)	4.57T ext. ref 2 (°C)	31.17length (m)	temperature (°C)	Stokes	anti-Stokes-747.200	-156.623	-0.226	0.014
-746.185	522.669	-0.076	0.182
-745.171	249.705	0.039	0.068
-744.156	-49.494	0.251	0.122
-743.142	800.000	0.088	-0.268
-742.127	800.000	-0.058	0.179
-741.112	800.000	-0.040	-0.148
-740.098	40.673	0.139	0.128
-739.083	-150.014	0.053	0.004
-738.069	-200.000	0.063	0.308
-737.054	327.467	-0.211	0.414
-736.039	800.000	-0.066	-0.258
-735.025	33.954	0.086	0.076
-734.010	-92.087	-0.353	0.102
-732.996	-24.402	0.110	0.067
-731.981	800.000	0.081	0.251
-730.966	-200.000	0.002	-0.312
-729.952	-200.000	-0.007	0.046
-728.937	-96.033	-0.206	0.056
-727.923	800.000	-0.050	0.207
-726.908	800.000	-0.092	-0.284
-725.894	79.722	-0.243	-0.266
-724.879	-122.147	-0.033	-0.005
-723.864	162.738	0.181	-0.259
-722.850	337.294	0.131	-0.259
-721.835	137.620	-0.301	-0.402
-720.821	-22.004	0.113	0.070
-719.806	-59.839	0.175	-0.077
-718.791	800.000	0.036	0.117
-717.777	-39.264	-0.240	-0.128
-716.762	-116.060	-0.280	-0.053
-715.748	-200.000	-0.002	-0.009
-714.733	155.543	-0.092	0.130
-713.718	-200.000	-0.021	0.300
-712.704	-33.920	0.230	0.129
-711.689	-200.000	-0.018	-0.085
-710.675	-200.000	0.077	-0.380
-709.660	102.019	-0.195	-0.232
-708.645	154.474	0.101	-0.141
-707.631	166.541	-0.177	0.256
-706.616	-200.000	0.015	-0.279
-705.602	-200.000	-0.004	-0.062
-704.587	-200.000	0.003	-0.174
-703.572	800.000	-0.097	-0.334
-702.558	-140.438	0.156	-0.017
-701.543	43.606	0.141	-0.132
-700.529	-46.959	-0.163	0.081
-699.514	800.000	-0.043	-0.139
-698.499	366.062	0.083	0.171
-697.485	-92.178	-0.147	-0.042
-696.470	37.905	-0.305	-0.277
-695.456	196.102	0.165	-0.256
-694.441	-45.296	0.133	-0.067
-693.426	51.055	0.098	-0.095
-692.412	-200.000	-0.028	-0.225
-691.397	5.006	-0.086	-0.064
-690.383	13.819	-0.070	0.056
-689.368	-52.314	0.204	-0.097
-688.354	619.034	-0.096	-0.246
-687.339	-140.867	0.156	-0.016
-686.324	-45.977	0.337	0.169
-685.310	8.295	0.202	-0.154
-684.295	-126.008	0.171	-0.026
-683.281	300.773	0.142	-0.267
-682.266	251.496	0.104	-0.180
-681.251	218.035	0.177	0.287
-680.237	256.483	-0.060	-0.105
-679.222	-186.042	0.344	0.005
-678.208	-54.778	-0.280	-0.129
-677.193	503.595	-0.153	-0.359
-676.178	-200.000	-0.001	-0.227
-675.164	-200.000	0.004	-0.106
-674.149	223.185	-0.099	-0.163
-673.135	91.284	0.167	-0.191
-672.120	800.000	-0.043	-0.141
-671.105	-126.589	-0.443	-0.067
-670.091	38.754	0.274	-0.250
-669.076	800.000	-0.020	-0.085
-668.062	91.527	-0.253	-0.289
-667.047	-165.546	-0.073	0.003
-666.032	-7.116	0.069	0.048
-665.018	531.891	0.192	-0.463
-664.003	800.000	-0.076	-0.229
-662.989	-169.844	0.070	-0.003
-661.974	26.543	0.081	-0.069
-660.959	800.000	-0.024	-0.084
-659.945	800.000	-0.121	-0.437
-658.930	-53.515	0.325	0.152
-657.916	204.522	0.162	0.255
-656.901	-141.101	0.337	0.035
-655.886	750.954	-0.122	0.335
-654.872	-18.188	0.396	0.252
-653.857	-200.000	0.063	-0.284
-652.843	-200.000	0.001	-0.033
-651.828	305.274	0.168	-0.318
-650.814	-8.480	-0.334	-0.229
-649.799	-200.000	-0.042	-0.298
-648.784	-119.082	0.090	-0.016
-647.770	768.410	-0.078	0.216
-646.755	-94.260	-0.404	-0.112
-645.741	-111.823	0.201	-0.041
-644.726	216.852	0.148	-0.240
-643.711	-53.668	0.302	-0.140
-642.697	-200.000	-0.001	-0.113
-641.682	-200.000	0.025	-0.155
-640.668	2.278	0.199	0.146
-639.653	-91.992	0.233	-0.067
-638.638	557.932	-0.066	0.163
-637.624	-21.710	-0.023	-0.014
-636.609	-200.000	-0.018	0.176
-635.595	-23.071	0.167	0.102
-634.580	111.649	-0.104	0.127
-633.565	-96.631	0.374	-0.100
-632.551	92.871	0.160	0.184
-631.536	-75.640	-0.156	0.056
-630.522	-200.000	0.097	-0.634
-629.507	63.025	-0.127	0.130
-628.492	800.000	-0.080	-0.286
-627.478	129.131	0.164	0.213
-626.463	262.083	-0.109	0.192
-625.449	353.547	0.212	0.429
-624.434	-200.000	0.075	0.341
-623.419	-200.000	0.040	-0.222
-622.405	800.000	0.061	-0.220
-621.390	519.386	-0.035	-0.084
-620.376	-70.666	0.134	0.052
-619.361	45.840	-0.224	0.210
-618.346	-132.717	-0.265	-0.034
-617.332	733.008	0.102	-0.276
-616.317	-68.784	0.116	-0.046
-615.303	374.955	0.192	-0.397
-614.288	266.493	0.178	-0.316
-613.273	139.440	-0.225	0.301
-612.259	-21.910	-0.115	0.071
-611.244	-43.801	-0.159	0.081
-610.230	-200.000	0.041	0.228
-609.215	-200.000	-0.021	-0.104
-608.201	94.695	-0.128	0.148
-607.186	-80.542	-0.191	0.065
-606.171	-121.725	-0.308	-0.052
-605.157	15.243	-0.289	-0.230
-604.142	133.878	-0.277	-0.364
-603.128	-145.715	0.297	-0.027
-602.113	-15.227	0.313	0.204
-601.098	-200.000	-0.010	0.190
-600.084	-148.270	-0.294	0.025
-599.069	98.234	0.068	-0.080
-598.055	4.530	-0.349	-0.260
-597.040	-37.364	-0.299	0.162
-596.025	-200.000	0.009	0.135
-595.011	-116.180	-0.130	0.025
-593.996	120.567	-0.199	-0.251
-592.982	180.382	-0.141	-0.210
-591.967	-85.859	-0.057	0.018
-590.952	-24.379	0.134	-0.081
-589.938	-191.913	0.176	0.002
-588.923	62.367	0.132	-0.134
-587.909	-27.121	-0.040	0.024
-586.894	-200.000	-0.009	-0.097
-585.879	121.559	-0.109	-0.138
-584.865	-91.238	0.312	-0.091
-583.850	36.600	-0.123	0.110
-582.836	-86.108	-0.170	0.053
-581.821	-192.453	-0.176	-0.002
-580.806	-166.343	-0.522	0.022
-579.792	198.308	-0.067	0.103
-578.777	-200.000	0.026	-0.202
-577.763	-200.000	0.019	0.217
-576.748	-100.546	0.264	-0.066
-575.733	-200.000	0.037	0.239
-574.719	-200.000	-0.010	0.069
-573.704	-3.965	-0.268	0.188
-572.690	323.146	0.110	0.213
-571.675	106.195	-0.259	-0.311
-570.661	-118.164	-0.252	0.046
-569.646	-85.360	0.171	-0.054
-568.631	-77.002	0.248	-0.088
-567.617	193.097	0.159	-0.244
-566.602	-200.000	0.048	-0.288
-565.588	800.000	0.070	0.246
-564.573	-40.674	0.247	0.130
-563.558	51.982	0.035	-0.033
-562.544	800.000	-0.139	-0.409
-561.529	-22.800	-0.193	-0.118
-560.515	472.834	-0.011	-0.025
-559.500	10.687	0.031	-0.024
-558.485	-154.914	-0.403	-0.027
-557.471	-79.431	0.102	0.035
-556.456	69.772	0.168	-0.175
-555.442	456.685	-0.122	-0.274
-554.427	-200.000	-0.023	0.408
-553.412	-37.370	-0.217	-0.118
-552.398	128.889	0.014	0.018
-551.383	-200.000	-0.042	0.208
-550.369	-24.216	-0.285	0.172
-549.354	80.330	0.153	-0.167
-548.339	800.000	-0.024	-0.071
-547.325	-88.852	0.090	0.027
-546.310	-24.219	0.013	-0.008
-545.296	15.346	-0.149	0.118
-544.281	-70.583	-0.445	-0.171
-543.266	-3.268	-0.301	-0.213
-542.252	14.966	0.326	0.258
-541.237	-200.000	-0.005	0.076
-540.223	-200.000	0.029	0.339
-539.208	639.418	0.067	-0.173
-538.193	-155.381	-0.058	-0.004
-537.179	606.264	-0.060	-0.152
-536.164	-14.882	-0.125	-0.081
-535.150	-124.414	-0.083	0.013
-534.135	-145.219	-0.131	0.012
-533.121	40.106	0.034	0.031
-532.106	-98.025	-0.160	0.042
-531.091	67.793	-0.146	0.151
-530.077	236.756	0.092	-0.154
-529.062	-22.184	-0.186	0.115
-528.048	-80.327	0.232	0.079
-527.033	-125.264	0.081	-0.013
-526.018	-7.536	-0.128	-0.088
-525.004	-117.141	-0.199	0.037
-523.989	61.691	0.231	0.233
-522.975	-200.000	0.023	0.160
-521.960	-200.000	-0.035	0.172
-520.945	-200.000	0.002	-0.281
-519.931	-81.872	-0.273	-0.090
-518.916	256.764	0.102	-0.177
-517.902	-60.295	-0.253	-0.109
-516.887	-119.335	-0.535	-0.094
-515.872	-54.035	0.187	-0.086
-514.858	0.469	0.135	-0.097
-513.843	-200.000	0.000	-0.024
-512.829	415.203	-0.027	0.057
-511.814	-10.013	-0.127	-0.086
-510.799	-96.580	0.405	-0.108
-509.785	-173.123	0.333	-0.010
-508.770	608.478	-0.101	-0.255
-507.756	-200.000	0.010	0.176
-506.741	800.000	0.075	-0.237
-505.726	-98.660	-0.144	-0.037
-504.712	-22.122	0.471	0.289
-503.697	74.195	0.113	0.120
-502.683	117.439	0.214	-0.267
-501.668	800.000	-0.110	0.389
-500.653	-6.759	0.131	-0.090
-499.639	-200.000	-0.047	0.243
-498.624	655.195	0.038	0.098
-497.610	362.073	0.056	0.115
-496.595	-69.541	-0.081	0.031
-495.581	-139.986	-0.049	0.005
-494.566	-61.654	0.327	0.139
-493.551	325.886	0.182	0.353
-492.537	-32.989	-0.058	0.032
-491.522	-67.463	0.014	-0.005
-490.508	-128.217	0.079	0.011
-489.493	491.417	-0.081	0.189
-488.478	35.774	0.226	-0.201
-487.464	-127.013	0.203	0.030
-486.449	-37.522	0.112	-0.060
-485.435	-200.000	0.075	-0.456
-484.420	-200.000	-0.019	-0.349
-483.405	-149.747	-0.109	0.009
-482.391	113.981	-0.073	-0.089
-481.376	-21.588	-0.124	0.076
-480.362	-5.375	-0.350	-0.243
-479.347	-191.397	0.366	0.004
-478.332	96.683	0.095	-0.110
-477.318	-17.400	-0.234	0.149
-476.303	11.278	0.320	-0.247
-475.289	240.547	-0.053	-0.089
-474.274	-188.594	0.466	-0.006
-473.259	59.914	-0.194	0.194
-472.245	50.602	-0.266	0.254
-471.230	800.000	0.023	0.090
-470.216	-200.000	0.023	0.245
-469.201	-200.000	-0.026	0.256
-468.186	215.922	-0.068	0.109
-467.172	-69.849	-0.156	-0.060
-466.157	-72.443	0.228	0.085
-465.143	800.000	-0.020	-0.066
-464.128	-84.231	0.107	-0.034
-463.113	-50.670	0.117	-0.056
-462.099	800.000	0.029	0.097
-461.084	69.829	-0.177	0.184
-460.070	-200.000	0.049	0.234
-459.055	241.223	-0.070	-0.118
-458.040	-93.145	-0.085	-0.024
-457.026	71.671	-0.152	0.159
-456.011	800.000	-0.034	-0.106
-454.997	-200.000	0.006	-0.086
-453.982	-200.000	-0.008	-0.214
-452.968	-51.551	-0.146	0.069
-451.953	160.928	-0.131	-0.185
-450.938	-25.291	0.303	0.181
-449.924	290.052	0.080	0.146
-448.909	120.429	0.125	0.157
-447.895	-49.311	0.396	0.191
-446.880	-200.000	0.019	0.208
-445.865	574.820	-0.105	-0.258
-444.851	516.281	-0.097	0.228
-443.836	-200.000	0.008	0.105
-442.822	185.155	0.155	0.232
-441.807	66.680	-0.164	0.168
-440.792	-3.521	-0.288	0.202
-439.778	-200.000	-0.076	-0.417
-438.763	-22.177	-0.117	-0.072
-437.749	-129.934	0.329	0.046
-436.734	45.681	-0.249	-0.232
-435.719	64.293	-0.059	-0.060
-434.705	-200.000	-0.145	0.000
-433.690	-79.300	0.104	0.035
-432.676	55.417	0.087	-0.085
-431.661	-47.539	-0.169	0.083
-430.646	800.000	-0.036	-0.135
-429.632	800.000	-0.091	-0.287
-428.617	404.575	-0.026	0.056
-427.603	-81.471	-0.142	0.047
-426.588	29.372	-0.242	-0.208
-425.573	-55.153	-0.021	0.010
-424.559	127.364	-0.233	0.298
-423.544	800.000	0.045	-0.184
-422.530	-200.000	0.003	0.239
-421.515	242.551	0.163	0.275
-420.500	800.000	0.015	-0.063
-419.486	197.698	-0.201	0.310
-418.471	-120.035	-0.083	0.014
-417.457	-107.137	-0.362	0.081
-416.442	2.449	0.073	0.053
-415.428	84.270	0.012	0.014
-414.413	51.974	0.068	0.065
-413.398	-200.000	-0.040	-0.195
-412.384	-128.960	-0.299	0.042
-411.369	287.166	0.072	0.130
-410.355	56.132	-0.055	-0.054
-409.340	477.882	0.027	-0.062
-408.325	196.874	-0.072	0.111
-407.311	800.000	0.011	-0.044
-406.296	-165.587	-0.077	-0.003
-405.282	-200.000	-0.006	0.480
-404.267	-89.691	0.190	0.056
-403.252	-200.000	-0.025	0.217
-402.238	-200.000	-0.049	-0.232
-401.223	484.437	-0.104	-0.239
-400.209	464.807	-0.146	-0.330
-399.194	-200.000	0.016	0.181
-398.179	800.000	-0.121	-0.408
-397.165	-136.342	-0.015	0.002
-396.150	173.055	-0.261	-0.379
-395.136	50.942	-0.074	-0.071
-394.121	156.618	0.284	-0.395
-393.106	-35.837	0.304	-0.166
-392.092	-67.475	-0.141	-0.056
-391.077	-42.949	-0.181	-0.093
-390.063	78.670	-0.000	-0.000
-389.048	-138.851	0.323	0.035
-388.033	-200.000	-0.030	-0.134
-387.019	279.249	-0.108	0.195
-386.004	146.691	-0.173	-0.234
-384.990	-47.438	-0.046	0.023
-383.975	-200.000	-0.009	0.193
-382.960	-88.966	0.078	-0.023
-381.946	-40.100	0.296	-0.155
-380.931	702.296	-0.140	-0.370
-379.917	103.401	-0.180	0.212
-378.902	-200.000	-0.016	-0.249
-377.888	800.000	0.097	-0.303
-376.873	-200.000	0.052	-0.255
-375.858	40.898	0.063	-0.057
-374.844	-136.583	0.164	0.019
-373.829	40.830	0.259	-0.235
-372.815	-59.590	-0.059	-0.026
-371.800	-146.595	0.302	-0.026
-370.785	-91.406	-0.128	-0.037
-369.771	88.053	0.167	-0.186
-368.756	-118.079	0.224	0.040
-367.742	-54.860	-0.224	0.102
-366.727	-1.414	0.042	0.030
-365.712	-31.510	-0.217	-0.123
-364.698	87.522	0.096	0.107
-363.683	-5.469	-0.123	-0.085
-362.669	-154.574	0.369	0.025
-361.654	-87.749	-0.145	0.044
-360.639	512.148	0.067	-0.158
-359.625	-44.249	-0.031	-0.016
-358.610	-125.971	0.101	-0.015
-357.596	800.000	-0.036	0.144
-356.581	-16.613	0.227	0.145
-355.566	-120.349	0.252	-0.043
-354.552	299.658	0.072	-0.134
-353.537	-200.000	0.007	0.360
-352.523	-200.000	-0.009	0.362
-351.508	800.000	0.043	0.136
-350.493	26.097	-0.184	0.155
-349.479	34.423	-0.164	-0.144
-348.464	276.710	0.108	-0.192
-347.450	-61.981	-0.156	0.066
-346.435	57.217	-0.088	0.086
-345.420	-200.000	-0.039	-0.260
-344.406	-58.226	-0.194	0.085
-343.391	-200.000	-0.003	-0.204
-342.377	555.760	0.121	0.292
-341.362	50.782	-0.215	0.205
-340.348	138.454	0.111	0.146
-339.333	-160.488	0.205	0.011
-338.318	-200.000	-0.002	-0.126
-337.304	246.857	0.114	-0.193
-336.289	240.089	0.146	0.244
-335.275	-118.902	0.123	-0.022
-334.260	-95.799	-0.273	-0.073
-333.245	-185.766	-0.214	-0.003
-332.231	-200.000	0.030	-0.455
-331.216	-17.343	-0.189	0.119
-330.202	115.916	0.161	0.198
-329.187	64.452	0.265	0.269
-328.172	-29.201	-0.203	-0.117
-327.158	-150.650	-0.313	-0.024
-326.143	658.785	0.115	-0.297
-325.129	-63.308	0.262	-0.108
-324.114	-2.826	0.259	0.182
-323.099	-80.583	-0.159	0.053
-322.085	68.679	-0.079	-0.081
-321.070	25.479	-0.177	0.148
-320.056	111.221	0.074	0.089
-319.041	-81.405	0.013	0.004
-318.026	160.315	-0.071	-0.100
-317.012	-38.052	-0.154	-0.082
-315.997	-46.733	0.216	0.106
-314.983	-126.258	0.359	-0.054
-313.968	34.742	-0.146	0.129
-312.953	437.188	-0.095	-0.208
-311.939	-56.131	-0.162	-0.072
-310.924	-200.000	0.018	-0.141
-309.910	219.008	0.212	0.341
-308.895	800.000	-0.004	0.012
-307.880	119.755	-0.127	-0.158
-306.866	12.794	0.068	0.053
-305.851	-200.000	0.038	0.361
-304.837	-200.000	-0.020	-0.200
-303.822	-200.000	-0.012	0.280
-302.807	1.782	-0.102	-0.074
-301.793	74.346	-0.066	-0.070
-300.778	7.475	-0.080	-0.060
-299.764	112.253	-0.094	0.114
-298.749	-127.621	0.435	-0.063
-297.735	-116.159	0.161	0.030
-296.720	-200.000	0.029	-0.202
-295.705	-57.538	-0.299	-0.132
-294.691	-200.000	-0.017	0.173
-293.676	20.568	-0.299	0.243
-292.662	15.942	-0.444	0.351
-291.647	-73.222	0.278	0.102
-290.632	159.164	0.122	0.170
-289.618	-30.660	0.256	0.146
-288.603	-9.347	0.150	0.101
-287.589	800.000	-0.090	-0.288
-286.574	128.460	-0.133	-0.170
-285.559	74.407	0.332	-0.351
-284.545	36.665	-0.153	0.135
-283.530	16.559	-0.319	0.253
-282.516	293.980	-0.078	-0.143
-281.501	-144.260	-0.190	0.018
-280.486	10.834	-0.071	-0.054
-279.472	657.389	-0.103	0.266
-278.457	641.436	0.072	-0.184
-277.443	-47.255	-0.250	0.122
-276.428	-153.435	-0.139	0.010
-275.413	85.857	0.236	-0.260
-274.399	-102.419	0.264	0.063
-273.384	-44.560	-0.310	0.156
-272.370	-200.000	-0.041	0.226
-271.355	-170.240	-0.253	-0.009
-270.340	82.969	0.093	0.101
-269.326	800.000	0.063	0.224
-268.311	110.981	0.143	-0.172
-267.297	-1.083	0.130	-0.092
-266.282	-200.000	0.037	0.267
-265.267	426.298	0.057	0.124
-264.253	272.971	-0.157	-0.278
-263.238	800.000	0.010	0.044
-262.224	544.299	0.049	0.117
-261.209	800.000	0.108	-0.400
-260.195	-129.522	-0.168	-0.023
-259.180	21.390	0.153	-0.125
-258.165	95.017	0.147	-0.167
-257.151	-96.719	0.245	0.065
-256.136	744.907	0.057	-0.154
-255.122	-137.893	0.297	-0.033
-254.107	-65.300	0.196	0.079
-253.092	1.886	-0.115	-0.083
-252.078	-200.000	-0.058	-0.339
-251.063	-178.245	-0.332	0.008
-250.049	-95.696	-0.253	0.068
-249.034	184.070	0.118	-0.175
-248.019	70.853	-0.119	-0.124
-247.005	-200.000	0.025	-0.317
-245.990	800.000	-0.096	0.301
-244.976	-78.095	0.211	0.073
-243.961	68.070	0.140	0.144
-242.946	-64.925	-0.131	0.053
-241.932	-83.242	0.366	-0.118
-240.917	30.768	0.262	0.225
-239.903	-76.625	0.265	0.093
-238.888	354.496	-0.076	0.151
-237.873	800.000	0.023	0.066
-236.859	-95.700	0.287	0.077
-235.844	133.732	-0.033	0.043
-234.830	408.753	0.077	0.164
-233.815	-162.115	-0.404	-0.020
-232.800	744.596	0.119	0.320
-231.786	-200.000	-0.010	0.206
-230.771	-200.000	0.087	0.858
-229.757	800.000	0.173	-0.480
-228.742	-68.196	-0.215	-0.084
-227.727	255.032	-0.158	0.271
-226.713	800.000	0.026	-0.072
-225.698	-68.291	-0.231	-0.090
-224.684	93.180	0.034	-0.038
-223.669	-64.489	0.216	-0.088
-222.655	6.969	0.134	0.100
-221.640	15.104	0.055	-0.043
-220.625	-77.802	-0.171	-0.059
-219.611	-200.000	0.066	-0.323
-218.596	-200.000	-0.039	0.178
-217.582	-186.530	0.153	-0.002
-216.567	-121.506	0.278	-0.046
-215.552	-131.129	0.273	0.036
-214.538	265.948	0.219	-0.382
-213.523	-29.593	-0.154	0.088
-212.509	-102.299	0.216	0.052
-211.494	160.277	0.135	0.189
-210.479	413.699	0.069	-0.147
-209.465	-200.000	-0.029	0.279
-208.450	800.000	0.073	-0.308
-207.436	147.516	0.085	0.114
-206.421	157.360	-0.113	-0.156
-205.406	-200.000	-0.043	0.315
-204.392	-96.758	-0.074	0.020
-203.377	47.210	0.240	0.223
-202.363	-119.456	-0.113	0.020
-201.348	-14.753	-0.202	0.130
-200.333	800.000	0.061	0.196
-199.319	-47.040	0.387	0.189
-198.304	165.705	0.149	-0.211
-197.290	373.765	-0.065	0.133
-196.275	451.152	-0.111	0.244
-195.260	116.403	0.162	0.198
-194.246	53.287	0.095	-0.091
-193.231	-200.000	-0.004	0.147
-192.217	370.025	-0.187	-0.379
-191.202	75.693	0.220	-0.232
-190.187	-85.197	-0.159	-0.050
-189.173	-200.000	0.016	-0.129
-188.158	800.000	0.030	0.086
-187.144	753.595	0.128	-0.347
-186.129	119.892	0.269	-0.333
-185.114	-200.000	-0.007	0.076
-184.100	-200.000	-0.072	0.453
-183.085	54.897	0.304	0.293
-182.071	87.966	-0.150	0.166
-181.056	-200.000	-0.045	0.214
-180.042	-93.038	-0.163	-0.045
-179.027	-71.721	0.268	-0.100
-178.012	189.230	0.052	0.077
-176.998	-200.000	0.051	0.346
-175.983	-200.000	-0.032	0.504
-174.969	214.409	0.042	-0.066
-173.954	324.349	0.073	0.140
-172.939	-60.120	-0.154	-0.066
-171.925	800.000	0.061	0.227
-170.910	-99.734	0.210	0.053
-169.896	85.002	-0.175	0.191
-168.881	-41.162	0.461	-0.238
-167.866	-114.429	-0.210	-0.040
-166.852	143.518	-0.140	0.186
-165.837	593.731	-0.054	0.132
-164.823	759.191	0.070	-0.189
-163.808	572.523	-0.180	-0.437
-162.793	253.467	0.175	-0.299
-161.779	347.834	-0.052	-0.102
-160.764	35.780	-0.107	-0.094
-159.750	-198.642	-0.310	0.002
-158.735	-200.000	0.011	-0.066
-157.720	-136.389	-0.220	-0.026
-156.706	-200.000	-0.020	-0.263
-155.691	-127.247	-0.094	0.014
-154.677	-11.825	-0.169	-0.110
-153.662	106.319	0.180	0.213
-152.647	257.691	0.104	-0.179
-151.633	-200.000	0.047	-0.222
-150.618	429.763	0.126	-0.272
-149.604	-59.762	-0.230	0.098
-148.589	194.856	0.062	0.093
-147.574	15.571	0.148	-0.116
-146.560	-16.282	-0.341	0.216
-145.545	448.582	0.054	-0.120
-144.531	-118.113	0.290	0.052
-143.516	-20.524	0.224	0.138
-142.502	247.820	0.054	-0.091
-141.487	71.394	0.363	-0.376
-140.472	800.000	-0.081	0.279
-139.458	60.544	-0.194	-0.191
-138.443	53.072	-0.200	-0.191
-137.429	-200.000	-0.020	0.092
-136.414	-130.178	0.239	0.033
-135.399	800.000	0.033	0.132
-134.385	-110.952	-0.118	-0.024
-133.370	800.000	-0.101	-0.298
-132.356	299.095	-0.049	-0.090
-131.341	-200.000	-0.019	0.084
-130.326	-157.952	0.112	0.007
-129.312	-27.956	-0.038	0.022
-128.297	-132.669	0.298	-0.038
-127.283	-160.892	0.213	-0.011
-126.268	-200.000	0.004	0.199
-125.253	-61.746	-0.166	-0.069
-124.239	-114.917	-0.150	0.028
-123.224	73.710	-0.112	0.117
-122.210	-2.109	0.359	-0.251
-121.195	37.433	-0.104	0.092
-120.180	-53.822	-0.221	0.101
-119.166	-200.000	-0.005	-0.121
-118.151	-102.531	0.106	0.025
-117.137	225.429	0.105	-0.170
-116.122	-52.505	-0.273	0.126
-115.107	27.884	0.215	-0.181
-114.093	422.152	0.035	-0.075
-113.078	-101.800	0.179	-0.043
-112.064	278.220	-0.132	-0.234
-111.049	-88.798	-0.294	0.087
-110.034	568.984	-0.183	-0.444
-109.020	-124.696	0.125	-0.019
-108.005	800.000	0.052	0.212
-106.991	-124.389	0.133	0.021
-105.976	708.498	0.071	0.188
-104.962	-24.494	0.157	0.093
-103.947	-148.417	0.128	-0.010
-102.932	-35.868	0.313	0.169
-101.918	-23.782	0.299	0.179
-100.903	-83.121	0.155	0.050
-99.889	-112.644	-0.414	-0.082
-98.874	800.000	-0.025	0.088
-97.859	34.401	-0.218	0.190
-96.845	317.349	0.143	0.270
-95.830	800.000	0.017	0.065
-94.816	83.539	-0.124	-0.134
-93.801	718.875	0.038	-0.100
-92.786	711.591	-0.113	-0.298
-91.772	800.000	0.053	0.208
-90.757	437.237	-0.134	-0.291
-89.743	-200.000	0.045	0.227
-88.728	664.549	0.112	-0.288
-87.713	-85.298	-0.056	0.018
-86.699	-25.873	0.188	-0.110
-85.684	-118.170	0.393	-0.070
-84.670	-140.940	-0.185	-0.019
-83.655	-53.795	-0.236	0.107
-82.640	-200.000	0.067	0.381
-81.626	800.000	-0.072	0.200
-80.611	14.375	0.267	0.207
-79.597	3.729	-0.058	0.042
-78.582	374.243	-0.102	0.207
-77.567	10.483	0.330	0.250
-76.553	800.000	-0.097	0.280
-75.538	205.902	0.178	0.275
-74.524	-81.982	0.149	-0.048
-73.509	-200.000	-0.021	-0.223
-72.494	313.127	0.040	0.074
-71.480	78.636	0.096	-0.102
-70.465	14.025	0.245	-0.190
-69.451	174.066	0.066	0.095
-68.436	-109.836	0.272	-0.057
-67.422	-117.558	-0.074	-0.013
-66.407	-3.492	-0.133	0.092
-65.392	-191.695	0.026	-0.000
-64.378	800.000	-0.105	-0.299
-63.363	-170.091	0.220	0.008
-62.349	-66.691	-0.346	0.136
-61.334	19.595	-0.843	-0.675
-60.319	-114.783	0.553	0.105
-59.305	800.000	-0.190	-0.613
-58.290	292.248	0.523	0.948
-57.276	553.009	0.679	1.622
-56.261	-200.000	94.504	558.122
-55.246	625.747	1383.562	3470.896
-54.232	182.904	2613.706	3836.044
-53.217	112.499	2353.360	2831.579
-52.203	41.841	2100.381	1893.525
-51.188	36.771	2012.856	1768.381
-50.173	35.257	1994.058	1738.076
-49.159	48.849	2045.730	1908.350
-48.144	51.756	2065.247	1953.233
-47.130	37.566	2022.265	1783.653
-46.115	35.072	2010.158	1750.141
-45.100	34.975	2007.202	1746.614
-44.086	34.952	2004.541	1744.024
-43.071	34.936	2002.233	1741.798
-42.057	34.862	2000.734	1739.753
-41.042	34.886	1998.851	1738.266
-40.027	34.908	1996.695	1736.516
-39.013	34.952	1994.252	1734.724
-37.998	34.960	1992.669	1733.349
-36.984	34.970	1990.814	1731.763
-35.969	34.953	1989.041	1729.991
-34.954	35.040	1986.588	1728.581
-33.940	35.093	1985.081	1727.679
-32.925	34.968	1984.566	1726.034
-31.911	35.118	1982.170	1725.227
-30.896	35.172	1979.439	1723.274
-29.881	35.066	1978.472	1721.412
-28.867	35.101	1977.272	1720.613
-27.852	35.119	1975.584	1719.235
-26.838	35.021	1973.604	1716.560
-25.823	35.065	1971.883	1715.397
-24.809	35.113	1969.892	1714.026
-23.794	35.080	1968.350	1712.322
-22.779	35.096	1966.329	1710.632
-21.765	35.002	1964.693	1708.306
-20.750	35.137	1962.485	1707.521
-19.736	35.128	1961.331	1706.373
-18.721	35.117	1960.405	1705.394
-17.706	35.096	1958.610	1703.580
-16.692	35.046	1956.423	1701.165
-15.677	35.114	1954.434	1699.973
-14.663	35.130	1953.180	1698.961
-13.648	35.030	1952.818	1697.692
-12.633	35.022	1951.529	1696.429
-11.619	35.069	1949.825	1695.293
-10.604	35.073	1948.385	1694.017
-9.590	35.137	1946.448	1692.831
-8.575	35.054	1945.346	1691.064
-7.560	35.110	1944.114	1690.423
-6.546	35.081	1943.151	1689.267
-5.531	35.129	1941.863	1688.499
-4.517	35.131	1939.965	1686.798
-3.502	35.093	1939.212	1685.745
-2.487	35.037	1938.194	1684.296
-1.473	35.113	1937.183	1684.027
-0.458	35.166	1932.850	1680.656
0.556	37.799	1912.864	1653.403
1.571	33.152	1892.073	1596.171
2.586	28.520	1913.328	1574.304
3.600	27.048	1948.471	1590.201
4.615	25.517	1941.674	1571.145
5.629	19.555	1838.902	1438.349
6.644	9.944	1717.824	1268.381
7.659	5.050	1678.685	1201.739
8.673	4.527	1675.905	1195.619
9.688	4.532	1674.226	1194.352
10.702	4.618	1672.893	1193.957
11.717	4.593	1669.896	1191.520
12.731	5.376	1670.074	1197.541
13.746	11.933	1685.823	1259.286
14.761	20.322	1703.622	1337.382
15.775	22.907	1706.810	1359.692
16.790	22.576	1704.608	1355.274
17.804	21.580	1701.887	1345.340
18.819	20.540	1698.463	1334.535
19.834	19.957	1695.893	1327.926
20.848	19.710	1694.581	1324.891
21.863	19.673	1693.553	1323.684
22.877	19.411	1692.602	1320.821
23.892	19.316	1690.707	1318.496
24.907	19.144	1690.212	1316.682
25.921	19.144	1688.936	1315.566
26.936	19.155	1687.397	1314.340
27.950	19.153	1686.340	1313.384
28.965	19.195	1686.063	1313.373
29.980	19.295	1685.345	1313.459
30.994	19.432	1684.696	1313.877
32.009	19.462	1683.453	1313.024
33.023	19.598	1682.193	1312.955
34.038	19.597	1681.436	1312.242
35.053	19.526	1680.648	1310.972
36.067	19.466	1678.924	1309.058
37.082	19.394	1677.836	1307.544
38.096	19.424	1677.171	1307.143
39.111	19.445	1676.399	1306.583
40.126	19.523	1675.586	1306.421
41.140	19.507	1674.319	1305.196
42.155	19.246	1672.744	1301.884
43.169	19.053	1671.009	1298.963
44.184	18.967	1669.495	1297.019
45.199	18.947	1668.431	1295.929
46.213	18.850	1667.865	1294.641
47.228	18.962	1666.597	1294.390
48.242	19.222	1665.411	1295.305
49.257	19.233	1664.824	1294.820
50.271	19.441	1662.978	1294.833
51.286	19.256	1662.011	1292.572
52.301	19.320	1661.120	1292.245
53.315	19.363	1659.656	1291.317
54.330	19.247	1657.906	1288.974
55.344	19.139	1656.274	1286.784
56.359	19.016	1655.042	1284.795
57.374	19.000	1653.657	1283.484
58.388	19.063	1652.365	1282.834
59.403	19.042	1651.062	1281.554
60.417	18.972	1649.601	1279.785
61.432	18.808	1649.020	1278.007
62.447	18.883	1647.792	1277.496
63.461	18.872	1646.518	1276.317
64.476	18.770	1645.560	1274.702
65.490	18.677	1644.675	1273.215
66.505	18.686	1642.912	1271.801
67.520	18.702	1642.408	1271.417
68.534	18.715	1641.297	1270.540
69.549	18.762	1640.044	1269.810
70.563	18.721	1639.054	1268.622
71.578	18.818	1637.290	1267.862
72.593	18.659	1636.703	1266.122
73.607	18.565	1635.428	1264.335
74.622	18.472	1634.552	1262.855
75.636	18.496	1633.125	1261.820
76.651	18.576	1632.321	1261.678
77.666	18.625	1631.799	1261.520
78.680	18.671	1631.012	1261.142
79.695	18.636	1630.313	1260.228
80.709	18.771	1629.540	1260.512
81.724	18.832	1628.942	1260.383
82.739	18.932	1628.041	1260.310
83.753	19.037	1627.006	1260.170
84.768	19.187	1626.327	1260.628
85.782	19.228	1625.694	1260.322
86.797	19.451	1624.658	1261.038
87.812	19.455	1623.917	1260.382
88.826	19.368	1622.601	1258.618
89.841	19.301	1621.678	1257.302
90.855	19.293	1620.662	1256.340
91.870	19.367	1619.872	1256.159
92.884	19.432	1619.300	1256.077
93.899	19.424	1618.268	1255.104
94.914	19.493	1616.605	1254.207
95.928	19.635	1615.079	1253.940
96.943	19.469	1614.632	1252.276
97.957	19.512	1612.611	1250.913
98.972	19.485	1610.940	1249.313
99.987	19.331	1609.979	1247.340
101.001	19.415	1607.824	1246.165
102.016	19.384	1606.506	1244.813
103.030	19.374	1605.479	1243.834
104.045	19.495	1604.112	1243.534
105.060	19.431	1602.728	1241.890
106.074	19.400	1601.428	1240.554
107.089	19.154	1599.712	1237.348
108.103	18.860	1597.888	1233.712
109.118	18.749	1596.007	1231.362
110.133	18.733	1594.676	1230.106
111.147	18.697	1593.218	1228.618
112.162	18.718	1592.165	1227.848
113.176	18.779	1590.811	1227.132
114.191	18.860	1589.369	1226.488
115.206	18.911	1588.308	1225.920
116.220	19.001	1587.058	1225.489
117.235	18.932	1585.482	1223.672
118.249	18.934	1584.248	1222.626
119.264	18.883	1582.596	1220.885
120.279	18.884	1581.683	1220.077
121.293	18.750	1580.087	1217.788
122.308	18.628	1578.826	1215.843
123.322	18.665	1576.980	1214.577
124.337	18.551	1575.643	1212.630
125.352	18.564	1574.462	1211.706
126.366	18.519	1573.385	1210.453
127.381	18.577	1572.165	1209.821
128.395	18.539	1570.885	1208.459
129.410	18.572	1569.385	1207.430
130.424	18.580	1568.515	1206.712
131.439	18.706	1566.853	1206.207
132.454	18.760	1566.235	1206.008
133.468	18.885	1564.556	1205.484
134.483	18.856	1563.678	1204.501
135.497	18.872	1562.076	1203.271
136.512	18.845	1560.372	1201.662
137.527	18.920	1559.139	1201.130
138.541	18.973	1557.871	1200.414
139.556	19.022	1556.603	1199.678
140.570	19.033	1555.611	1198.882
141.585	19.109	1554.565	1198.498
142.600	19.095	1553.499	1197.475
143.614	19.404	1551.961	1198.328
144.629	19.421	1551.315	1197.840
145.643	19.423	1550.481	1197.103
146.658	19.532	1548.934	1196.563
147.673	19.439	1546.801	1194.166
148.687	19.330	1545.483	1192.288
149.702	19.141	1544.337	1189.994
150.716	19.135	1542.164	1188.169
151.731	19.023	1540.933	1186.343
152.746	18.966	1539.630	1184.846
153.760	18.947	1538.361	1183.631
154.775	19.001	1537.109	1182.935
155.789	19.165	1536.002	1183.105
156.804	19.239	1534.780	1182.569
157.819	19.318	1533.586	1182.085
158.833	19.297	1532.348	1180.880
159.848	19.297	1531.940	1180.460
160.862	19.569	1530.387	1181.024
161.877	19.619	1529.469	1180.552
162.892	19.455	1527.722	1177.979
163.906	19.180	1526.586	1175.124
164.921	19.095	1524.996	1173.215
165.935	19.070	1524.134	1172.276
166.950	19.015	1523.190	1171.072
167.964	19.152	1521.975	1170.967
168.979	19.332	1520.663	1171.078
169.994	19.119	1520.048	1169.054
171.008	19.245	1518.647	1168.729
172.023	19.239	1517.674	1167.837
173.037	19.186	1517.175	1166.985
174.052	19.396	1515.798	1167.245
175.067	19.477	1514.665	1166.822
176.081	19.255	1513.610	1164.404
177.096	19.148	1512.311	1162.578
178.110	19.071	1510.363	1160.456
179.125	19.111	1509.715	1160.128
180.140	19.134	1508.360	1159.136
181.154	19.199	1507.747	1158.999
182.169	19.324	1506.965	1159.141
183.183	19.419	1505.573	1158.601
184.198	19.477	1504.974	1158.428
185.213	19.535	1503.619	1157.675
186.227	19.622	1502.230	1157.085
187.242	19.550	1501.876	1156.226
188.256	19.661	1500.707	1155.970
189.271	19.616	1500.180	1155.161
190.286	19.705	1499.134	1154.848
191.300	19.745	1497.632	1153.855
192.315	19.366	1495.919	1149.902
193.329	19.104	1494.510	1146.972
194.344	19.031	1493.532	1145.636
195.359	19.120	1492.668	1145.463
196.373	19.229	1491.517	1145.202
197.388	19.357	1490.842	1145.433
198.402	19.408	1489.728	1144.818
199.417	19.537	1488.885	1144.925
200.432	19.785	1488.085	1145.850
201.446	19.903	1487.622	1146.170
202.461	19.988	1486.798	1145.998
203.475	19.997	1485.518	1144.970
204.490	20.093	1484.463	1144.688
205.504	19.990	1483.100	1142.861
206.519	19.799	1481.943	1140.608
207.534	19.625	1481.371	1138.917
208.548	19.613	1479.597	1137.376
209.563	19.554	1478.493	1136.034
210.577	19.533	1477.737	1135.218
211.592	19.570	1476.841	1134.670
212.607	19.732	1475.897	1134.909
213.621	19.858	1475.738	1135.514
214.636	19.936	1474.992	1135.350
215.650	19.854	1473.667	1133.694
216.665	19.856	1472.206	1132.482
217.680	19.907	1471.624	1132.266
218.694	20.032	1471.023	1132.522
219.709	20.090	1470.746	1132.588
220.723	20.083	1469.852	1131.752
221.738	20.091	1468.582	1130.727
222.753	20.080	1467.352	1129.608
223.767	19.963	1466.773	1128.301
224.782	19.993	1465.491	1127.410
225.796	20.059	1464.467	1126.955
226.811	20.220	1463.788	1127.375
227.826	20.204	1463.266	1126.772
228.840	20.159	1462.326	1125.653
229.855	19.947	1461.412	1123.478
230.869	19.905	1459.805	1121.871
231.884	19.985	1459.230	1121.845
232.899	19.945	1457.475	1120.142
233.913	19.891	1456.576	1119.002
234.928	19.785	1455.504	1117.395
235.942	19.689	1454.277	1115.729
236.957	19.732	1452.624	1114.643
237.972	19.795	1451.259	1113.901
238.986	19.766	1450.420	1112.974
240.001	19.811	1449.437	1112.411
241.015	19.797	1448.712	1111.667
242.030	19.730	1447.464	1110.179
243.045	19.905	1446.334	1110.340
244.059	19.909	1445.854	1109.893
245.074	19.954	1444.928	1109.375
246.088	20.041	1444.453	1109.472
247.103	20.081	1443.561	1108.943
248.117	20.121	1443.261	1108.867
249.132	20.312	1442.466	1109.379
250.147	20.462	1441.999	1109.880
251.161	20.540	1441.448	1109.859
252.176	20.748	1440.981	1110.728
253.190	20.818	1440.257	1110.519
254.205	20.851	1439.598	1110.121
255.220	20.963	1438.692	1110.041
256.234	20.990	1437.997	1109.577
257.249	20.899	1437.335	1108.390
258.263	20.981	1436.358	1108.060
259.278	20.910	1435.773	1107.056
260.293	20.839	1434.335	1105.401
261.307	20.887	1433.527	1104.982
262.322	20.856	1433.108	1104.369
263.336	20.957	1432.078	1104.112
264.351	21.005	1431.111	1103.573
265.366	21.109	1429.989	1103.267
266.380	21.015	1429.249	1102.006
267.395	21.031	1428.185	1101.191
268.409	21.026	1427.353	1100.419
269.424	20.980	1426.308	1099.225
270.439	20.923	1424.666	1097.507
271.453	20.883	1423.932	1096.593
272.468	20.877	1423.026	1095.761
273.482	20.817	1421.880	1094.404
274.497	20.749	1421.062	1093.247
275.512	20.615	1420.209	1091.655
276.526	20.663	1419.341	1091.194
277.541	20.729	1417.943	1090.433
278.555	20.709	1417.740	1090.058
279.570	20.806	1416.734	1089.793
280.585	20.912	1415.548	1089.448
281.599	21.017	1415.147	1089.701
282.614	21.155	1414.554	1090.005
283.628	21.024	1413.134	1088.001
284.643	20.907	1411.770	1086.125
285.657	20.923	1410.589	1085.221
286.672	20.908	1409.779	1084.408
287.687	20.851	1409.173	1083.492
288.701	20.902	1407.656	1082.546
289.716	20.874	1407.271	1081.980
290.730	20.971	1406.663	1082.020
291.745	20.926	1405.351	1080.631
292.760	20.885	1404.509	1079.636
293.774	20.947	1403.873	1079.436
294.789	20.986	1402.815	1078.770
295.803	21.005	1402.499	1078.545
296.818	21.189	1401.520	1078.839
297.833	21.081	1400.017	1076.916
298.847	21.011	1399.226	1075.780
299.862	20.855	1398.317	1074.028
300.876	20.989	1397.150	1073.858
301.891	21.008	1396.257	1073.194
302.906	21.084	1395.393	1072.905
303.920	21.279	1394.816	1073.566
304.935	21.239	1394.977	1073.348
305.949	21.286	1394.034	1072.812
306.964	21.465	1392.717	1072.802
307.979	21.571	1391.872	1072.710
308.993	21.523	1390.728	1071.437
310.008	21.428	1389.765	1070.020
311.022	21.270	1389.003	1068.370
312.037	21.466	1387.776	1068.529
313.052	21.566	1387.098	1068.525
314.066	21.427	1385.645	1066.464
315.081	21.422	1384.201	1065.224
316.095	21.235	1383.090	1063.137
317.110	21.014	1382.185	1061.004
318.125	21.052	1381.212	1060.397
319.139	21.012	1380.499	1059.511
320.154	21.143	1379.286	1059.279
321.168	21.047	1378.804	1058.238
322.183	21.073	1377.768	1057.504
323.197	21.060	1376.865	1056.641
324.212	21.248	1375.515	1056.647
325.227	21.138	1375.070	1055.547
326.241	21.202	1374.161	1055.144
327.256	21.221	1373.395	1054.573
328.270	21.242	1372.325	1053.787
329.285	21.191	1371.398	1052.672
330.300	21.162	1370.181	1051.475
331.314	21.192	1369.563	1051.088
332.329	21.228	1368.571	1050.449
333.343	21.161	1367.874	1049.415
334.358	21.181	1367.318	1049.019
335.373	21.195	1366.561	1048.427
336.387	21.438	1365.475	1048.963
337.402	21.453	1364.740	1048.393
338.416	21.517	1364.282	1048.328
339.431	21.440	1363.879	1047.467
340.446	21.643	1362.902	1047.842
341.460	21.761	1361.762	1047.576
342.475	21.815	1361.018	1047.232
343.489	21.860	1360.632	1047.109
344.504	21.911	1359.733	1046.632
345.519	21.957	1358.584	1045.930
346.533	21.964	1358.105	1045.512
347.548	22.108	1356.699	1045.191
348.562	22.290	1356.116	1045.732
349.577	22.173	1355.602	1044.551
350.592	21.979	1354.581	1042.517
351.606	21.821	1353.210	1040.430
352.621	21.646	1352.102	1038.451
353.635	21.671	1350.400	1037.198
354.650	21.579	1349.931	1036.200
355.665	21.605	1348.835	1035.423
356.679	21.622	1347.536	1034.436
357.694	21.658	1346.823	1034.010
358.708	21.749	1345.954	1033.789
359.723	21.779	1344.859	1033.032
360.738	21.844	1344.118	1032.750
361.752	21.750	1343.187	1031.395
362.767	21.805	1341.808	1030.565
363.781	21.822	1341.045	1029.992
364.796	21.701	1340.557	1028.810
365.810	21.962	1340.087	1029.893
366.825	22.046	1339.096	1029.532
367.840	22.262	1338.308	1030.101
368.854	22.206	1338.025	1029.463
369.869	22.331	1337.375	1029.602
370.883	22.399	1336.954	1029.588
371.898	22.341	1336.231	1028.601
372.913	22.277	1334.709	1026.965
373.927	22.133	1334.088	1025.556
374.942	22.174	1333.167	1024.995
375.956	22.197	1332.844	1024.788
376.971	22.320	1331.883	1024.678
377.986	22.222	1330.984	1023.326
379.000	22.249	1329.998	1022.632
380.015	22.339	1329.459	1022.650
381.029	22.402	1328.895	1022.491
382.044	22.524	1328.214	1022.588
383.059	22.596	1327.587	1022.428
384.073	22.564	1327.108	1021.784
385.088	22.520	1326.056	1020.632
386.102	22.519	1325.376	1020.010
387.117	22.475	1324.792	1019.215
388.132	22.521	1323.507	1018.405
389.146	22.299	1322.430	1016.201
390.161	22.218	1321.644	1015.041
391.175	22.270	1320.641	1014.478
392.190	22.121	1320.534	1013.450
393.205	22.170	1319.409	1012.779
394.219	22.510	1317.988	1013.558
395.234	22.554	1317.261	1013.161
396.248	22.465	1315.411	1011.137
397.263	22.391	1313.848	1009.423
398.278	22.348	1312.686	1008.191
399.292	22.348	1311.591	1007.259
400.307	22.201	1310.421	1005.433
401.321	22.104	1309.803	1004.314
402.336	22.138	1308.702	1003.574
403.350	22.112	1307.834	1002.675
404.365	22.069	1306.590	1001.388
405.380	22.117	1305.702	1000.889
406.394	22.190	1305.428	1001.009
407.409	22.308	1304.648	1000.993
408.423	22.410	1303.927	1000.933
409.438	22.601	1303.093	1001.289
410.453	22.638	1302.679	1001.093
411.467	22.655	1302.034	1000.604
412.482	22.765	1301.473	1000.707
413.496	22.913	1300.493	1000.706
414.511	22.919	1299.962	1000.240
415.526	22.866	1299.309	999.349
416.540	23.005	1298.645	999.537
417.555	23.043	1297.918	999.102
418.569	23.122	1297.677	999.274
419.584	22.947	1296.635	997.399
420.599	22.964	1296.281	997.134
421.613	143.508	1431.741	1788.276
422.628	138.832	1451.461	1788.406
