DTS Sentinel unit serial number:	SN413079Multiplexer serial number:	ORYXHardware model number:	OX4-SRSoftware version number:	ORYX F/W v4.00 Oryx Data Collector v3.7.2.0data status	okinstallation	princeton_trtdifferential loss correction	single-endedforward channel	channel 4reverse channel	N/Adate	2019/09/16time	04:45:35forward acquisition time	60.00reverse acquisition time	0.00gamma	496.2192k internal	0.2321k external	0.2321temperature offset calibration	0.9979default loss term (dB/km)	0.3790temperature slope calibration	1.0000multiplexer offset coefficient	1.0000multiplexer slope coefficient	1.0000fibre end	0.00T internal ref (°C)	27.19T ext. ref 1 (°C)	10.92T ext. ref 2 (°C)	21.47length (m)	temperature (°C)	Stokes	anti-Stokes-747.200	401.805	0.175	0.372
-746.185	180.044	-0.176	0.261
-745.171	-151.810	0.398	-0.030
-744.156	-70.174	-0.102	-0.039
-743.142	46.605	-0.132	0.124
-742.127	-146.796	-0.403	0.035
-741.112	-139.230	0.203	-0.022
-740.098	-31.954	0.005	0.003
-739.083	-154.194	-0.442	0.030
-738.069	-54.447	-0.426	0.195
-737.054	62.473	-0.381	0.385
-736.039	-190.230	-0.412	-0.005
-735.025	-125.178	0.184	0.028
-734.010	-135.028	0.235	-0.029
-732.996	-132.724	-0.212	-0.027
-731.981	4.976	-0.137	-0.102
-730.966	-31.585	-0.224	-0.127
-729.952	-80.417	-0.203	-0.068
-728.937	-200.000	0.021	0.096
-727.923	-148.981	-0.177	-0.014
-726.908	-126.788	0.123	-0.018
-725.894	344.077	0.066	-0.131
-724.879	-86.183	0.325	0.101
-723.864	-76.604	-0.258	0.091
-722.850	13.931	0.247	-0.194
-721.835	85.163	-0.173	0.192
-720.821	294.653	-0.142	0.262
-719.806	-15.510	-0.086	-0.056
-718.791	-148.366	-0.155	0.013
-717.777	181.706	-0.124	0.185
-716.762	154.335	-0.088	-0.122
-715.748	281.922	-0.115	-0.209
-714.733	-128.354	0.115	-0.016
-713.718	-200.000	0.050	0.252
-712.704	-46.269	-0.231	0.115
-711.689	-71.263	0.261	-0.099
-710.675	51.295	-0.018	0.017
-709.660	-136.067	-0.179	0.021
-708.645	-146.998	-0.187	-0.016
-707.631	56.690	0.175	-0.172
-706.616	329.284	0.222	0.430
-705.602	-46.445	-0.182	-0.090
-704.587	-33.577	0.162	-0.090
-703.572	178.840	-0.138	-0.203
-702.558	-145.604	-0.245	-0.022
-701.543	-200.000	0.019	-0.101
-700.529	-104.478	-0.050	-0.012
-699.514	800.000	0.066	-0.276
-698.499	-70.143	-0.091	0.035
-697.485	-125.807	0.105	-0.016
-696.470	471.311	-0.087	-0.199
-695.456	7.393	0.044	-0.033
-694.441	63.236	0.068	-0.069
-693.426	-35.220	0.145	0.080
-692.412	-78.711	-0.415	0.143
-691.397	-200.000	0.044	-0.203
-690.383	12.646	0.240	0.187
-689.368	-99.076	-0.284	0.073
-688.354	87.165	-0.345	0.384
-687.339	-160.791	-0.208	-0.011
-686.324	-36.357	0.394	-0.214
-685.310	-138.751	0.259	-0.028
-684.295	-95.606	0.134	0.036
-683.281	-200.000	-0.021	-0.245
-682.266	-33.692	0.186	0.103
-681.251	37.400	-0.180	0.161
-680.237	-45.275	-0.251	0.126
-679.222	4.732	-0.340	-0.252
-678.208	800.000	-0.030	-0.091
-677.193	-200.000	0.045	-0.212
-676.178	-37.378	0.098	0.053
-675.164	256.318	0.074	-0.128
-674.149	26.103	-0.264	-0.222
-673.135	-38.095	-0.110	0.059
-672.120	-8.849	0.149	0.101
-671.105	-200.000	0.005	0.284
-670.091	354.642	-0.045	0.090
-669.076	-50.744	0.020	-0.009
-668.062	-138.079	0.335	0.037
-667.047	-64.030	-0.320	-0.132
-666.032	124.534	0.176	-0.223
-665.018	800.000	-0.088	-0.334
-664.003	237.536	0.014	-0.023
-662.989	-103.754	-0.097	0.023
-661.974	-89.411	-0.563	-0.167
-660.959	-124.710	-0.315	-0.049
-659.945	-56.529	-0.147	-0.066
-658.930	-110.012	-0.490	-0.103
-657.916	-6.998	-0.382	-0.261
-656.901	334.343	-0.164	-0.320
-655.886	-86.268	0.263	0.082
-654.872	800.000	-0.113	0.347
-653.857	-200.000	0.011	-0.276
-652.843	-200.000	-0.004	-0.393
-651.828	-200.000	0.029	0.178
-650.814	-50.250	-0.153	0.073
-649.799	-200.000	0.010	-0.435
-648.784	-130.225	0.250	0.034
-647.770	-39.826	-0.479	-0.252
-646.755	17.380	-0.291	0.232
-645.741	26.523	-0.146	0.123
-644.726	126.984	-0.190	-0.242
-643.711	800.000	0.104	-0.382
-642.697	-38.706	0.098	0.052
-641.682	755.572	0.060	-0.163
-640.668	-79.093	0.116	0.040
-639.653	800.000	-0.067	0.199
-638.638	-200.000	0.010	0.330
-637.624	36.208	-0.169	0.150
-636.609	-170.110	-0.029	0.001
-635.595	800.000	0.035	-0.112
-634.580	-200.000	0.013	-0.187
-633.565	-51.983	-0.191	0.089
-632.551	-29.494	-0.220	-0.127
-631.536	-91.083	-0.212	0.061
-630.522	-76.260	-0.197	0.070
-629.507	-200.000	0.012	0.118
-628.492	32.305	-0.052	-0.045
-627.478	800.000	0.121	0.361
-626.463	225.144	-0.156	0.254
-625.449	800.000	0.062	-0.189
-624.434	-200.000	0.014	0.128
-623.419	32.465	-0.182	0.158
-622.405	-200.000	0.035	0.191
-621.390	-28.834	-0.323	0.187
-620.376	79.205	0.086	0.093
-619.361	-115.632	0.272	-0.051
-618.346	-11.176	0.156	-0.103
-617.332	-200.000	0.003	-0.134
-616.317	-83.339	-0.176	-0.057
-615.303	-200.000	-0.041	0.190
-614.288	255.184	-0.119	-0.205
-613.273	-67.500	0.031	-0.012
-612.259	-129.548	-0.029	0.004
-611.244	73.765	-0.201	0.212
-610.230	-40.358	-0.111	0.058
-609.215	129.887	-0.043	-0.055
-608.201	41.056	0.183	-0.166
-607.186	-120.297	0.154	0.026
-606.171	94.929	-0.104	-0.119
-605.157	-130.909	0.197	0.027
-604.142	-95.269	-0.259	0.070
-603.128	166.308	-0.186	-0.264
-602.113	800.000	-0.103	-0.294
-601.098	-51.592	0.219	-0.103
-600.084	-78.121	-0.233	-0.081
-599.069	10.377	0.146	-0.111
-598.055	-21.678	-0.173	-0.106
-597.040	-200.000	0.071	0.320
-596.025	-200.000	0.008	0.157
-595.011	-200.000	0.020	-0.183
-593.996	36.630	-0.101	0.090
-592.982	-46.789	-0.187	0.092
-591.967	50.157	0.106	0.101
-590.952	-63.014	-0.212	0.088
-589.938	114.412	-0.164	-0.201
-588.923	87.022	-0.206	0.229
-587.909	-125.046	0.397	0.061
-586.894	29.477	-0.219	0.187
-585.879	-33.675	-0.095	-0.053
-584.865	166.355	0.246	-0.351
-583.850	-24.350	-0.149	-0.089
-582.836	-9.152	-0.188	-0.126
-581.821	676.259	-0.128	0.335
-580.806	-113.524	-0.225	0.044
-579.792	-111.817	0.377	0.076
-578.777	-70.419	0.417	0.159
-577.763	122.046	0.106	0.133
-576.748	-200.000	0.043	-0.240
-575.733	-70.849	-0.195	-0.074
-574.719	-200.000	0.051	-0.317
-573.704	-106.661	0.212	-0.047
-572.690	85.308	0.146	-0.160
-571.675	-200.000	-0.007	0.266
-570.661	-62.775	-0.119	-0.049
-569.646	184.884	-0.029	0.044
-568.631	-57.879	0.214	-0.094
-567.617	324.136	-0.080	0.154
-566.602	4.256	-0.154	-0.113
-565.588	32.535	0.085	0.074
-564.573	-120.149	-0.339	-0.058
-563.558	114.113	-0.338	-0.413
-562.544	-200.000	0.001	0.033
-561.529	-200.000	-0.062	-0.295
-560.515	-159.270	-0.429	-0.024
-559.500	237.817	0.107	0.178
-558.485	742.651	0.021	-0.057
-557.471	-200.000	-0.085	0.493
-556.456	563.675	0.046	0.111
-555.442	246.763	-0.105	0.178
-554.427	238.507	-0.151	0.252
-553.412	-39.261	0.117	-0.062
-552.398	-115.519	0.310	-0.058
-551.383	-91.377	-0.103	0.030
-550.369	53.142	-0.117	0.112
-549.354	93.180	0.076	0.087
-548.339	800.000	-0.038	-0.150
-547.325	35.520	0.247	0.217
-546.310	507.489	-0.073	0.170
-545.296	-25.996	0.008	-0.004
-544.281	38.419	-0.068	-0.061
-543.266	-200.000	-0.038	-0.182
-542.252	-138.583	-0.156	0.017
-541.237	-69.577	0.108	0.041
-540.223	-43.975	0.280	-0.141
-539.208	10.516	-0.038	-0.029
-538.193	-166.427	0.240	-0.010
-537.179	-169.498	0.085	0.003
-536.164	577.139	0.138	-0.338
-535.150	114.344	0.186	-0.227
-534.135	-82.445	-0.145	-0.047
-533.121	-141.665	-0.437	0.044
-532.106	-99.455	0.187	0.047
-531.091	63.425	-0.242	0.244
-530.077	-200.000	0.007	-0.431
-529.062	43.849	-0.168	-0.154
-528.048	-174.252	-0.459	0.013
-527.033	362.753	0.041	0.082
-526.018	38.596	0.154	0.137
-525.004	70.127	-0.210	-0.217
-523.989	800.000	-0.069	-0.192
-522.975	64.006	-0.074	-0.075
-521.960	36.959	-0.051	-0.045
-520.945	-66.030	0.256	-0.102
-519.931	-76.962	0.173	-0.061
-518.916	-200.000	0.001	-0.088
-517.902	458.031	0.044	0.097
-516.887	508.677	0.110	0.257
-515.872	-40.819	0.116	-0.060
-514.858	-110.977	0.266	0.055
-513.843	-170.322	-0.341	0.012
-512.829	-145.382	0.215	-0.019
-511.814	-73.154	0.200	0.074
-510.799	-40.993	0.072	-0.037
-509.785	-26.901	0.460	0.269
-508.770	800.000	-0.075	-0.218
-507.756	60.937	0.182	-0.181
-506.741	800.000	0.040	-0.135
-505.726	685.395	0.019	-0.049
-504.712	283.621	0.022	-0.039
-503.697	-116.894	0.404	0.074
-502.683	141.612	-0.120	0.159
-501.668	-40.259	0.124	-0.065
-500.653	64.902	-0.067	-0.067
-499.639	-29.048	0.123	-0.070
-498.624	-200.000	0.014	-0.157
-497.610	-200.000	0.037	0.165
-496.595	-162.662	0.277	0.014
-495.581	-200.000	-0.081	0.409
-494.566	-15.594	-0.214	-0.137
-493.551	-163.166	-0.394	0.019
-492.537	-70.453	0.191	0.072
-491.522	-102.348	-0.153	0.037
-490.508	-200.000	0.010	-0.219
-489.493	-130.904	0.343	-0.046
-488.478	-107.457	0.069	-0.015
-487.464	800.000	-0.111	0.357
-486.449	-141.256	-0.175	-0.018
-485.435	800.000	-0.077	-0.233
-484.420	-132.396	-0.273	-0.035
-483.405	-62.580	0.314	-0.130
-482.391	333.825	0.070	0.136
-481.376	800.000	-0.053	-0.205
-480.362	800.000	-0.070	0.231
-479.347	-54.612	0.320	-0.145
-478.332	692.658	-0.062	-0.163
-477.318	274.147	-0.156	0.276
-476.303	271.793	0.087	0.153
-475.289	-116.116	0.170	-0.032
-474.274	-200.000	0.035	-0.210
-473.259	-75.414	0.074	-0.026
-472.245	-113.672	0.084	-0.016
-471.230	-200.000	0.004	-0.255
-470.216	610.696	-0.143	-0.357
-469.201	-200.000	-0.023	-0.253
-468.186	4.032	0.248	0.181
-467.172	763.411	-0.040	-0.108
-466.157	-200.000	-0.037	0.213
-465.143	-60.286	0.078	-0.033
-464.128	121.975	0.111	-0.139
-463.113	-184.242	0.323	0.005
-462.099	-200.000	-0.008	-0.284
-461.084	-83.731	-0.083	0.027
-460.070	-200.000	0.053	-0.349
-459.055	352.005	0.037	-0.073
-458.040	122.946	-0.130	-0.162
-457.026	-101.345	0.225	-0.055
-456.011	-55.430	-0.126	-0.057
-454.997	367.256	0.237	-0.478
-453.982	257.272	-0.095	-0.164
-452.968	240.541	0.242	0.404
-451.953	-169.778	-0.140	0.005
-450.938	331.234	0.108	-0.209
-449.924	122.055	0.068	0.085
-448.909	219.548	-0.007	0.011
-447.895	800.000	0.055	0.233
-446.880	-109.190	-0.181	0.038
-445.865	-25.446	-0.163	-0.096
-444.851	800.000	0.138	-0.435
-443.836	71.446	0.310	-0.321
-442.822	-200.000	-0.044	0.205
-441.807	-83.788	0.122	-0.039
-440.792	496.460	0.042	-0.095
-439.778	528.523	0.129	-0.303
-438.763	-135.602	0.036	-0.004
-437.749	148.788	-0.091	0.122
-436.734	-11.634	-0.146	0.096
-435.719	16.095	-0.265	-0.209
-434.705	800.000	0.115	0.393
-433.690	-200.000	0.004	0.272
-432.676	-68.787	-0.175	0.067
-431.661	-200.000	0.083	0.473
-430.646	-200.000	-0.007	-0.183
-429.632	-23.281	0.419	-0.252
-428.617	92.399	-0.135	-0.152
-427.603	-200.000	0.031	0.139
-426.588	-200.000	-0.063	0.296
-425.573	800.000	0.047	0.159
-424.559	5.259	-0.145	-0.107
-423.544	568.715	0.086	-0.208
-422.530	-81.004	-0.119	-0.039
-421.515	-200.000	0.010	-0.182
-420.500	-109.945	0.240	-0.050
-419.486	-175.395	-0.168	-0.005
-418.471	281.146	-0.213	-0.381
-417.457	99.270	-0.106	-0.122
-416.442	58.759	-0.136	0.134
-415.428	87.624	0.118	-0.130
-414.413	237.829	-0.169	-0.280
-413.398	-33.727	-0.258	0.142
-412.384	-76.186	-0.151	0.053
-411.369	-200.000	-0.041	-0.292
-410.355	17.165	-0.133	-0.105
-409.340	4.876	0.179	0.131
-408.325	-66.887	-0.417	0.164
-407.311	58.920	-0.301	0.296
-406.296	800.000	0.071	0.302
-405.282	104.688	0.130	0.153
-404.267	800.000	-0.105	0.329
-403.252	-34.739	-0.141	0.077
-402.238	800.000	-0.060	0.199
-401.223	-185.475	-0.204	-0.003
-400.209	-72.744	0.156	-0.057
-399.194	-47.727	0.286	0.138
-398.179	-68.283	-0.188	0.073
-397.165	800.000	0.031	-0.102
-396.150	-200.000	-0.014	-0.114
-395.136	-200.000	-0.017	0.131
-394.121	-117.974	-0.043	0.008
-393.106	-90.715	0.263	-0.076
-392.092	-200.000	0.020	-0.309
-391.077	374.091	0.196	0.397
-390.063	53.335	0.060	0.057
-389.048	-169.324	-0.222	0.008
-388.033	-29.411	-0.303	0.173
-387.019	-79.525	0.270	-0.091
-386.004	277.104	-0.196	-0.347
-384.990	-63.556	-0.189	-0.077
-383.975	-56.536	-0.052	-0.023
-382.960	419.335	0.100	-0.213
-381.946	49.257	0.157	-0.147
-380.931	-156.284	0.128	0.008
-379.917	-86.151	0.133	-0.041
-378.902	-84.077	0.227	-0.072
-377.888	63.188	-0.186	0.185
-376.873	-38.421	-0.196	-0.103
-375.858	-200.000	-0.020	-0.191
-374.844	-200.000	-0.045	-0.368
-373.829	264.246	-0.100	0.173
-372.815	800.000	-0.065	0.252
-371.800	349.226	0.247	-0.485
-370.785	-112.115	0.324	-0.065
-369.771	-143.199	0.407	-0.039
-368.756	-14.762	0.174	0.111
-367.742	-200.000	0.006	-0.170
-366.727	-112.487	0.324	0.064
-365.712	-200.000	0.001	0.155
-364.698	171.673	-0.065	0.093
-363.683	-128.885	-0.418	-0.059
-362.669	800.000	0.076	-0.226
-361.654	-117.483	0.130	-0.023
-360.639	-49.404	-0.369	0.175
-359.625	-63.526	-0.144	-0.059
-358.610	-93.445	0.281	0.078
-357.596	800.000	0.158	-0.471
-356.581	800.000	0.018	0.071
-355.566	-133.920	0.082	-0.010
-354.552	-200.000	-0.036	-0.279
-353.537	-90.424	-0.220	-0.064
-352.523	-35.202	-0.246	0.133
-351.508	-121.780	0.135	0.022
-350.493	145.867	0.089	0.119
-349.479	150.522	-0.073	-0.099
-348.464	-89.799	-0.177	0.052
-347.450	220.370	0.060	0.095
-346.435	-171.370	-0.209	-0.007
-345.420	-200.000	-0.037	-0.254
-344.406	-200.000	-0.015	-0.164
-343.391	-200.000	-0.036	-0.202
-342.377	800.000	0.123	0.348
-341.362	-98.201	0.302	0.077
-340.348	-71.012	-0.211	-0.079
-339.333	46.256	0.040	-0.037
-338.318	-92.422	-0.196	0.055
-337.304	-200.000	0.045	0.338
-336.289	52.383	-0.248	0.235
-335.275	-71.348	-0.217	0.081
-334.260	-63.642	0.113	0.046
-333.245	-15.260	-0.227	-0.144
-332.231	47.157	-0.088	-0.082
-331.216	-165.452	-0.331	-0.014
-330.202	400.383	-0.029	-0.060
-329.187	800.000	-0.107	0.392
-328.172	19.627	-0.224	-0.179
-327.158	13.007	-0.206	0.158
-326.143	-98.293	0.432	0.110
-325.129	-200.000	0.011	0.217
-324.114	93.524	0.051	0.057
-323.099	-200.000	0.020	0.273
-322.085	-200.000	-0.038	-0.327
-321.070	-167.370	0.256	-0.010
-320.056	115.835	0.130	0.158
-319.041	800.000	-0.077	-0.288
-318.026	169.357	0.279	-0.396
-317.012	-26.433	-0.238	0.139
-315.997	720.877	-0.028	0.075
-314.983	-200.000	0.073	0.417
-313.968	-33.125	-0.263	-0.145
-312.953	154.254	-0.040	-0.054
-311.939	76.631	0.179	0.189
-310.924	-200.000	0.012	-0.072
-309.910	45.629	0.253	0.232
-308.895	11.398	-0.152	0.115
-307.880	-200.000	0.014	-0.071
-306.866	800.000	0.116	0.399
-305.851	38.709	0.034	0.030
-304.837	106.108	-0.189	-0.223
-303.822	-200.000	-0.038	-0.214
-302.807	47.239	-0.093	-0.086
-301.793	43.837	0.210	0.191
-300.778	800.000	0.083	-0.255
-299.764	-60.267	-0.167	-0.071
-298.749	800.000	0.028	0.115
-297.735	46.106	-0.118	-0.109
-296.720	252.175	0.154	-0.261
-295.705	49.468	0.088	0.082
-294.691	-200.000	-0.002	0.281
-293.676	-31.358	0.287	-0.161
-292.662	218.760	-0.043	0.068
-291.647	672.550	0.128	0.330
-290.632	146.120	-0.029	-0.039
-289.618	-70.584	-0.326	-0.123
-288.603	0.101	0.265	0.187
-287.589	-39.683	-0.387	0.201
-286.574	800.000	0.049	-0.151
-285.559	800.000	0.030	-0.125
-284.545	2.769	0.278	0.200
-283.530	-103.057	0.197	0.046
-282.516	491.770	-0.076	0.173
-281.501	108.032	-0.102	0.121
-280.486	-90.990	0.237	-0.068
-279.472	-200.000	0.012	-0.156
-278.457	-200.000	0.046	-0.217
-277.443	25.131	0.102	-0.084
-276.428	-4.656	-0.249	-0.171
-275.413	-122.463	0.362	-0.058
-274.399	-178.474	0.289	0.007
-273.384	-22.182	-0.130	0.078
-272.370	-27.139	-0.296	-0.171
-271.355	-39.164	-0.279	-0.146
-270.340	11.337	0.210	-0.159
-269.326	-120.650	0.305	-0.051
-268.311	800.000	-0.062	-0.228
-267.297	-69.653	-0.094	0.036
-266.282	-106.299	-0.285	-0.063
-265.267	-200.000	-0.022	-0.132
-264.253	69.834	0.149	0.153
-263.238	24.583	0.150	0.123
-262.224	-144.291	0.419	0.039
-261.209	800.000	0.060	-0.178
-260.195	-14.691	0.048	-0.031
-259.180	50.931	0.091	-0.085
-258.165	172.155	-0.130	0.185
-257.151	-75.924	0.443	-0.155
-256.136	-200.000	0.004	-0.185
-255.122	-200.000	0.037	-0.218
-254.107	-200.000	-0.007	0.360
-253.092	-87.263	-0.390	-0.117
-252.078	-52.171	-0.290	0.134
-251.063	8.756	0.085	-0.063
-250.049	-7.886	-0.312	0.209
-249.034	95.433	-0.113	0.127
-248.019	-200.000	-0.058	0.388
-247.005	800.000	-0.034	0.099
-245.990	138.946	-0.149	-0.195
-244.976	22.560	0.243	0.197
-243.961	41.061	0.204	0.182
-242.946	800.000	0.076	0.315
-241.932	-200.000	-0.055	-0.283
-240.917	-161.922	-0.245	-0.012
-239.903	-200.000	-0.016	-0.293
-238.888	-103.691	0.236	-0.055
-237.873	-200.000	0.019	-0.116
-236.859	-59.053	0.277	-0.119
-235.844	800.000	-0.026	-0.102
-234.830	-19.210	0.270	-0.166
-233.815	123.654	0.174	-0.216
-232.800	-9.818	0.155	0.102
-231.786	-107.522	0.098	-0.021
-230.771	-40.630	0.228	-0.117
-229.757	564.963	0.070	-0.169
-228.742	179.161	0.108	-0.157
-227.727	123.269	0.318	0.394
-226.713	800.000	-0.069	-0.273
-225.698	-96.448	-0.290	0.076
-224.684	350.743	-0.257	-0.504
-223.669	20.202	0.342	-0.274
-222.655	130.401	-0.173	0.219
-221.640	-44.828	-0.235	-0.116
-220.625	107.536	-0.097	-0.114
-219.611	-200.000	-0.041	0.388
-218.596	209.755	-0.118	0.183
-217.582	-200.000	-0.012	0.166
-216.567	19.013	-0.244	0.193
-215.552	159.241	0.034	0.047
-214.538	-186.108	-0.358	-0.005
-213.523	800.000	0.061	-0.227
-212.509	272.404	0.172	0.300
-211.494	-179.571	0.377	0.008
-210.479	13.214	0.046	0.035
-209.465	138.670	-0.066	-0.086
-208.450	-200.000	0.068	-0.306
-207.436	55.095	0.058	0.055
-206.421	-139.948	-0.376	-0.039
-205.406	-90.102	-0.321	-0.093
-204.392	-200.000	0.059	-0.299
-203.377	228.726	-0.138	0.222
-202.363	-200.000	-0.011	0.516
-201.348	76.243	0.264	0.277
-200.333	-21.637	-0.164	0.099
-199.319	-101.502	0.099	-0.024
-198.304	-9.911	0.218	0.143
-197.290	786.194	-0.005	-0.012
-196.275	9.244	-0.010	-0.007
-195.260	74.139	0.208	0.216
-194.246	800.000	0.041	-0.125
-193.231	66.503	-0.079	0.079
-192.217	50.974	0.223	0.209
-191.202	800.000	0.045	0.169
-190.187	-200.000	0.017	0.189
-189.173	21.345	-0.078	-0.062
-188.158	46.391	-0.313	-0.287
-187.144	367.230	0.171	0.342
-186.129	-14.517	0.230	0.147
-185.114	562.366	0.168	0.402
-184.100	-2.591	0.109	0.076
-183.085	800.000	0.134	0.417
-182.071	-128.365	-0.314	-0.044
-181.056	-109.202	0.153	0.032
-180.042	542.708	0.069	-0.162
-179.027	-48.130	-0.161	-0.077
-178.012	-200.000	0.030	0.477
-176.998	32.667	0.168	-0.143
-175.983	-43.222	-0.332	-0.166
-174.969	-156.088	0.301	0.019
-173.954	-200.000	-0.050	0.237
-172.939	-161.265	-0.136	-0.007
-171.925	-200.000	-0.019	0.201
-170.910	523.118	-0.201	0.467
-169.896	81.351	-0.141	0.151
-168.881	25.314	0.257	-0.211
-167.866	-18.495	-0.098	0.060
-166.852	24.777	0.211	0.173
-165.837	613.766	-0.086	0.212
-164.823	275.809	0.249	0.437
-163.808	800.000	0.150	0.456
-162.793	-104.413	-0.244	0.056
-161.779	422.481	0.108	0.229
-160.764	-62.454	-0.252	0.103
-159.750	27.818	0.097	0.081
-158.735	-157.321	-0.425	-0.025
-157.720	62.818	0.199	-0.196
-156.706	171.982	0.139	-0.197
-155.691	638.114	-0.043	-0.108
-154.677	132.671	0.225	-0.287
-153.662	46.201	-0.150	-0.137
-152.647	-200.000	-0.018	0.237
-151.633	153.981	0.147	-0.199
-150.618	-101.710	0.142	-0.034
-149.604	-117.701	0.324	-0.058
-148.589	-48.438	-0.069	-0.033
-147.574	53.722	0.233	0.221
-146.560	-27.412	-0.331	0.190
-145.545	626.546	-0.119	-0.297
-144.531	800.000	0.049	0.189
-143.516	-200.000	-0.014	-0.105
-142.502	-37.377	-0.163	0.086
-141.487	121.665	0.154	-0.190
-140.472	-200.000	0.049	0.262
-139.458	800.000	-0.092	0.342
-138.443	205.401	0.140	0.214
-137.429	-143.577	-0.300	0.028
-136.414	-200.000	0.019	0.156
-135.399	-7.780	-0.124	-0.082
-134.385	96.299	-0.125	-0.141
-133.370	800.000	0.117	-0.458
-132.356	-111.324	-0.235	-0.047
-131.341	-91.523	-0.286	0.080
-130.326	-200.000	0.036	0.322
-129.312	99.545	0.277	-0.317
-128.297	22.516	0.208	0.168
-127.283	729.497	-0.053	-0.139
-126.268	456.882	0.103	-0.225
-125.253	-200.000	-0.069	-0.384
-124.239	-158.646	0.131	-0.007
-123.224	15.810	-0.166	0.129
-122.210	-80.861	0.285	-0.093
-121.195	-200.000	-0.017	-0.153
-120.180	154.165	0.058	-0.078
-119.166	-121.880	0.035	0.006
-118.151	-118.353	0.417	-0.073
-117.137	708.548	-0.084	-0.220
-116.122	96.247	-0.242	-0.272
-115.107	550.756	-0.153	0.362
-114.093	36.137	-0.083	-0.072
-113.078	151.181	0.294	0.394
-112.064	72.683	-0.088	-0.090
-111.049	-148.976	-0.168	0.013
-110.034	208.753	-0.087	-0.134
-109.020	6.137	-0.198	0.145
-108.005	-113.801	0.148	-0.028
-106.991	47.085	0.141	0.129
-105.976	800.000	0.052	-0.174
-104.962	282.840	0.058	-0.103
-103.947	-200.000	-0.062	-0.372
-102.932	128.829	0.082	0.103
-101.918	-14.839	0.409	0.259
-100.903	110.756	0.141	0.167
-99.889	81.061	0.051	0.054
-98.874	-132.574	0.180	-0.023
-97.859	567.230	-0.141	0.336
-96.845	1.249	-0.191	-0.135
-95.830	221.868	-0.100	-0.159
-94.816	-100.201	-0.105	0.026
-93.801	-81.679	0.380	-0.123
-92.786	-200.000	-0.011	0.163
-91.772	800.000	0.051	-0.205
-90.757	521.545	-0.035	0.081
-89.743	800.000	-0.081	0.273
-88.728	-22.796	-0.261	-0.155
-87.713	231.792	0.204	0.330
-86.699	-55.586	-0.112	-0.050
-85.684	-126.596	0.082	-0.012
-84.670	-200.000	0.017	-0.211
-83.655	-55.357	-0.378	0.167
-82.640	-200.000	-0.045	-0.238
-81.626	5.994	0.327	-0.239
-80.611	-3.929	-0.215	0.147
-79.597	203.563	-0.200	0.305
-78.582	33.143	0.132	0.112
-77.567	800.000	0.046	0.184
-76.553	-112.130	-0.204	-0.040
-75.538	-105.766	-0.302	-0.067
-74.524	-200.000	0.025	0.210
-73.509	18.110	0.113	-0.089
-72.494	-25.522	-0.211	0.123
-71.480	-181.999	0.152	-0.003
-70.465	668.722	0.158	-0.403
-69.451	-90.366	-0.287	0.082
-68.436	-200.000	-0.001	0.087
-67.422	13.504	-0.133	-0.102
-66.407	800.000	0.115	0.374
-65.392	-97.559	-0.096	-0.025
-64.378	10.579	-0.121	0.090
-63.363	-30.684	0.283	0.158
-62.349	800.000	0.102	0.335
-61.334	506.631	-0.646	-1.474
-60.319	18.698	0.699	0.550
-59.305	311.667	-0.471	-0.869
-58.290	88.423	0.870	0.951
-57.276	764.885	0.577	1.542
-56.261	-200.000	115.057	647.257
-55.246	461.665	1512.852	3319.402
-54.232	143.676	2688.579	3523.972
-53.217	92.975	2323.663	2582.674
-52.203	33.590	2072.343	1771.675
-51.188	28.909	1987.453	1656.971
-50.173	27.604	1970.521	1631.118
-49.159	45.656	2028.541	1843.512
-48.144	44.461	2044.345	1846.950
-47.130	29.534	2003.363	1675.648
-46.115	27.291	1992.822	1646.486
-45.100	27.190	1990.326	1643.448
-44.086	27.153	1987.938	1641.072
-43.071	27.083	1985.780	1638.600
-42.057	27.012	1983.240	1635.794
-41.042	27.011	1982.399	1635.033
-40.027	27.069	1979.884	1633.414
-39.013	27.140	1977.812	1632.271
-37.998	27.086	1976.183	1630.382
-36.984	27.042	1974.654	1628.662
-35.969	27.090	1972.313	1627.092
-34.954	27.081	1971.505	1626.282
-33.940	27.140	1969.604	1625.182
-32.925	27.129	1967.652	1623.407
-31.911	27.175	1965.932	1622.335
-30.896	27.224	1963.812	1620.957
-29.881	27.196	1962.660	1619.692
-28.867	27.268	1960.951	1618.855
-27.852	27.254	1959.157	1617.187
-26.838	27.247	1957.842	1615.975
-25.823	27.309	1955.623	1614.632
-24.809	27.268	1954.027	1612.889
-23.794	27.243	1952.615	1611.434
-22.779	27.243	1950.465	1609.591
-21.765	27.240	1948.546	1607.919
-20.750	27.154	1947.414	1606.166
-19.736	27.233	1945.719	1605.402
-18.721	27.178	1944.537	1603.872
-17.706	27.211	1942.644	1602.543
-16.692	27.183	1940.459	1600.426
-15.677	27.215	1939.236	1599.636
-14.663	27.150	1937.904	1597.908
-13.648	27.212	1936.935	1597.586
-12.633	27.291	1934.939	1596.572
-11.619	27.253	1933.910	1595.322
-10.604	27.235	1933.266	1594.571
-9.590	27.174	1931.243	1592.310
-8.575	27.171	1929.852	1591.072
-7.560	27.113	1928.901	1589.711
-6.546	27.215	1927.549	1589.433
-5.531	27.238	1925.935	1588.239
-4.517	27.213	1924.496	1586.771
-3.502	27.164	1924.034	1585.897
-2.487	27.134	1922.689	1584.466
-1.473	27.157	1921.552	1583.662
-0.458	27.266	1916.705	1580.550
0.556	25.340	1896.593	1552.936
1.571	21.202	1877.854	1501.942
2.586	17.404	1901.452	1487.539
3.600	16.530	1936.511	1507.044
4.615	16.574	1930.439	1502.579
5.629	15.445	1839.032	1421.748
6.644	12.785	1735.375	1320.203
7.659	11.184	1705.413	1284.675
8.673	10.926	1703.040	1280.747
9.688	10.971	1701.397	1279.751
10.702	10.940	1699.847	1278.231
11.717	10.833	1696.748	1274.943
12.731	10.998	1694.550	1274.476
13.746	12.898	1698.911	1292.548
14.761	16.015	1704.756	1321.360
15.775	17.540	1706.216	1334.332
16.790	17.248	1704.791	1330.813
17.804	16.234	1701.489	1320.188
18.819	15.221	1698.263	1309.658
19.834	14.530	1695.117	1301.722
20.848	14.305	1693.327	1298.477
21.863	14.049	1691.939	1295.309
22.877	13.699	1690.363	1291.259
23.892	13.550	1688.552	1288.601
24.907	13.444	1687.879	1287.155
25.921	13.424	1686.613	1285.917
26.936	13.400	1685.439	1284.721
27.950	13.476	1684.959	1284.831
28.965	13.439	1684.351	1283.966
29.980	13.540	1683.380	1283.893
30.994	13.560	1682.348	1283.152
32.009	13.576	1680.978	1282.116
33.023	13.641	1680.304	1281.994
34.038	13.705	1679.000	1281.378
35.053	13.614	1678.216	1279.962
36.067	13.607	1676.401	1278.414
37.082	13.591	1675.606	1277.565
38.096	13.530	1674.803	1276.374
39.111	13.523	1674.157	1275.717
40.126	13.654	1673.229	1275.900
41.140	13.554	1672.602	1274.543
42.155	13.492	1670.195	1272.121
43.169	13.393	1669.346	1270.601
44.184	13.437	1667.984	1269.785
45.199	13.387	1666.637	1268.266
46.213	13.313	1666.204	1267.259
47.228	13.332	1664.343	1265.874
48.242	13.452	1663.306	1265.893
49.257	13.547	1662.216	1265.674
50.271	13.499	1661.254	1264.465
51.286	13.499	1659.497	1263.015
52.301	13.467	1658.329	1261.771
53.315	13.476	1657.160	1260.843
54.330	13.411	1655.655	1259.086
55.344	13.427	1653.605	1257.537
56.359	13.409	1652.001	1256.075
57.374	13.399	1651.048	1255.160
58.388	13.418	1650.351	1254.665
59.403	13.407	1648.514	1253.073
60.417	13.337	1647.126	1251.376
61.432	13.334	1646.385	1250.683
62.447	13.254	1645.455	1249.257
63.461	13.264	1644.078	1248.179
64.476	13.187	1643.143	1246.777
65.490	13.236	1641.621	1245.883
66.505	13.225	1640.489	1244.829
67.520	13.247	1639.516	1244.147
68.534	13.345	1638.130	1243.722
69.549	13.310	1637.161	1242.616
70.563	13.284	1636.365	1241.703
71.578	13.365	1634.996	1241.163
72.593	13.266	1633.853	1239.446
73.607	13.284	1632.674	1238.572
74.622	13.266	1632.000	1237.817
75.636	13.147	1630.942	1236.018
76.651	13.155	1630.407	1235.564
77.666	13.172	1629.116	1234.598
78.680	13.256	1627.951	1234.234
79.695	13.208	1627.442	1233.379
80.709	13.222	1626.923	1232.986
81.724	13.285	1625.650	1232.380
82.739	13.370	1624.719	1232.199
83.753	13.316	1624.074	1231.199
84.768	13.415	1623.346	1231.276
85.782	13.494	1622.555	1231.153
86.797	13.561	1621.026	1230.379
87.812	13.608	1620.111	1229.928
88.826	13.485	1618.964	1228.032
89.841	13.422	1617.765	1226.550
90.855	13.470	1617.052	1226.258
91.870	13.452	1615.643	1224.944
92.884	13.541	1614.899	1224.933
93.899	13.494	1613.844	1223.672
94.914	13.598	1612.478	1223.295
95.928	13.583	1611.291	1222.183
96.943	13.579	1609.900	1220.985
97.957	13.582	1608.341	1219.722
98.972	13.567	1607.134	1218.585
99.987	13.530	1605.373	1216.869
101.001	13.575	1603.520	1215.687
102.016	13.543	1601.754	1214.009
103.030	13.457	1600.978	1212.678
104.045	13.564	1599.630	1212.333
105.060	13.486	1598.491	1210.793
106.074	13.519	1596.613	1209.506
107.089	13.402	1595.135	1207.425
108.103	13.281	1593.829	1205.450
109.118	13.251	1592.264	1203.940
110.133	13.296	1590.774	1203.035
111.147	13.401	1589.237	1202.530
112.162	13.298	1587.783	1200.574
113.176	13.464	1586.071	1200.375
114.191	13.348	1585.255	1198.816
115.206	13.407	1583.911	1198.117
116.220	13.419	1582.374	1196.937
117.235	13.353	1581.314	1195.553
118.249	13.415	1579.739	1194.703
119.264	13.337	1578.652	1193.209
120.279	13.315	1577.128	1191.796
121.293	13.359	1575.225	1190.571
122.308	13.347	1574.185	1189.588
123.322	13.337	1572.708	1188.296
124.337	13.252	1571.041	1186.325
125.352	13.208	1569.926	1185.062
126.366	13.290	1568.595	1184.541
127.381	13.314	1567.641	1183.889
128.395	13.205	1566.786	1182.353
129.410	13.308	1564.789	1181.478
130.424	13.287	1563.269	1180.079
131.439	13.267	1562.151	1178.990
132.454	13.313	1560.961	1178.309
133.468	13.277	1559.514	1176.857
134.483	13.415	1557.970	1176.569
135.497	13.385	1556.489	1175.136
136.512	13.404	1555.476	1174.403
137.527	13.385	1553.982	1173.034
138.541	13.486	1552.267	1172.349
139.556	13.515	1551.037	1171.521
140.570	13.457	1549.764	1170.049
141.585	13.489	1548.141	1168.947
142.600	13.513	1547.330	1168.402
143.614	13.660	1545.509	1167.955
144.629	13.652	1545.174	1167.546
145.643	13.664	1543.499	1166.257
146.658	13.624	1542.079	1164.806
147.673	13.700	1540.648	1164.154
148.687	13.548	1538.679	1161.494
149.702	13.617	1537.231	1160.782
150.716	13.549	1535.650	1159.010
151.731	13.535	1534.296	1157.786
152.746	13.587	1533.039	1157.098
153.760	13.499	1532.097	1155.673
154.775	13.624	1530.876	1155.521
155.789	13.588	1529.523	1154.144
156.804	13.586	1528.364	1153.155
157.819	13.671	1527.051	1152.654
158.833	13.798	1526.250	1152.833
159.848	13.669	1525.523	1151.285
160.862	13.809	1523.712	1150.788
161.877	13.882	1522.576	1150.332
162.892	13.764	1521.425	1148.542
163.906	13.610	1520.645	1146.789
164.921	13.548	1519.185	1145.158
165.935	13.657	1518.029	1144.940
166.950	13.695	1516.834	1144.195
167.964	13.725	1515.564	1143.347
168.979	13.672	1515.130	1142.554
169.994	13.809	1513.548	1142.200
171.008	13.736	1512.358	1140.701
172.023	13.826	1511.430	1140.514
173.037	13.846	1510.398	1139.773
174.052	13.746	1509.817	1138.545
175.067	13.875	1508.471	1138.317
176.081	13.863	1507.202	1137.175
177.096	13.815	1505.465	1135.435
178.110	13.691	1503.927	1133.328
179.125	13.726	1503.436	1133.100
180.140	13.849	1501.992	1132.748
181.154	13.830	1501.378	1132.057
182.169	13.818	1500.341	1131.093
183.183	13.874	1498.813	1130.223
184.198	13.961	1497.715	1129.884
185.213	13.958	1496.128	1128.569
186.227	13.995	1495.789	1128.462
187.242	13.946	1494.779	1127.267
188.256	14.016	1493.528	1126.698
189.271	14.062	1492.283	1125.975
190.286	14.041	1491.073	1124.818
191.300	14.063	1489.931	1124.009
192.315	13.948	1488.666	1122.175
193.329	13.746	1487.750	1120.024
194.344	13.756	1486.514	1119.060
195.359	13.766	1485.547	1118.298
196.373	13.849	1484.589	1118.037
197.388	13.975	1483.591	1118.039
198.402	13.978	1482.554	1117.178
199.417	14.079	1481.394	1116.880
200.432	14.145	1480.341	1116.429
201.446	14.220	1479.713	1116.366
202.461	14.187	1478.489	1115.117
203.475	14.239	1477.031	1114.272
204.490	14.309	1475.825	1113.729
205.504	14.347	1474.834	1113.136
206.519	14.226	1473.376	1111.127
207.534	14.155	1472.440	1109.854
208.548	14.150	1471.185	1108.778
209.563	14.323	1469.880	1108.843
210.577	14.129	1469.769	1107.369
211.592	14.186	1468.337	1106.573
212.607	14.276	1467.773	1106.648
213.621	14.366	1467.037	1106.596
214.636	14.340	1466.374	1105.823
215.650	14.396	1465.441	1105.396
216.665	14.271	1464.462	1103.727
217.680	14.466	1463.092	1103.892
218.694	14.400	1462.995	1103.284
219.709	14.398	1461.994	1102.418
220.723	14.462	1460.870	1101.891
221.738	14.393	1460.220	1100.850
222.753	14.443	1458.873	1100.065
223.767	14.427	1458.011	1099.213
224.782	14.478	1457.090	1098.762
225.796	14.400	1456.349	1097.591
226.811	14.509	1455.422	1097.512
227.826	14.594	1454.748	1097.462
228.840	14.570	1453.342	1096.148
229.855	14.533	1452.863	1095.450
230.869	14.579	1451.312	1094.485
231.884	14.607	1450.618	1094.048
232.899	14.547	1449.509	1092.723
233.913	14.628	1448.089	1092.086
234.928	14.536	1446.688	1090.331
235.942	14.488	1445.764	1089.220
236.957	14.429	1444.771	1087.995
237.972	14.561	1443.005	1087.426
238.986	14.493	1442.485	1086.498
240.001	14.543	1441.399	1085.905
241.015	14.553	1440.209	1084.978
242.030	14.553	1438.857	1083.867
243.045	14.567	1438.110	1083.295
244.059	14.672	1437.135	1083.146
245.074	14.667	1436.639	1082.643
246.088	14.664	1436.255	1082.240
247.103	14.770	1435.061	1081.934
248.117	14.616	1434.596	1080.488
249.132	14.784	1433.544	1080.688
250.147	14.916	1432.693	1080.804
251.161	14.992	1432.029	1080.700
252.176	14.920	1431.940	1080.074
253.190	15.066	1430.808	1080.060
254.205	15.084	1429.970	1079.452
255.220	15.168	1428.992	1079.160
256.234	15.131	1427.599	1077.774
257.249	15.142	1427.700	1077.825
258.263	15.039	1427.104	1076.619
259.278	15.136	1425.698	1076.081
260.293	15.140	1424.780	1075.320
261.307	15.186	1424.111	1075.016
262.322	15.247	1423.066	1074.524
263.336	15.214	1422.349	1073.673
264.351	15.223	1421.250	1072.807
265.366	15.348	1420.281	1072.780
266.380	15.280	1420.112	1072.128
267.395	15.300	1418.577	1071.001
268.409	15.202	1417.702	1069.616
269.424	15.301	1416.887	1069.542
270.439	15.274	1415.657	1068.345
271.453	15.269	1414.627	1067.441
272.468	15.240	1413.779	1066.523
273.482	15.289	1412.928	1066.096
274.497	15.207	1412.092	1064.849
275.512	15.242	1411.229	1064.328
276.526	15.334	1410.399	1064.192
277.541	15.263	1409.574	1063.023
278.555	15.184	1408.831	1061.871
279.570	15.327	1407.423	1061.621
280.585	15.395	1406.814	1061.498
281.599	15.436	1406.046	1061.081
282.614	15.347	1405.466	1059.991
283.628	15.415	1403.755	1059.031
284.643	15.348	1402.723	1057.741
285.657	15.374	1401.453	1056.854
286.672	15.472	1400.330	1056.528
287.687	15.433	1399.789	1055.781
288.701	15.392	1398.707	1054.612
289.716	15.432	1397.902	1054.166
290.730	15.504	1397.231	1054.016
291.745	15.528	1396.270	1053.350
292.760	15.506	1395.407	1052.466
293.774	15.547	1394.281	1051.781
294.789	15.495	1393.314	1050.633
295.803	15.535	1392.750	1050.370
296.818	15.558	1391.798	1049.702
297.833	15.593	1390.446	1048.806
298.847	15.568	1389.399	1047.766
299.862	15.625	1388.595	1047.421
300.876	15.612	1387.760	1046.619
301.891	15.594	1386.440	1045.422
302.906	15.570	1386.098	1044.922
303.920	15.651	1385.455	1044.844
304.935	15.804	1384.182	1044.744
305.949	15.755	1383.745	1044.019
306.964	15.824	1383.270	1043.994
307.979	15.909	1381.629	1043.192
308.993	15.911	1381.218	1042.800
310.008	15.828	1379.715	1041.057
311.022	15.880	1378.708	1040.530
312.037	15.798	1378.219	1039.561
313.052	15.907	1377.025	1039.242
314.066	15.902	1376.232	1038.518
315.081	15.888	1374.852	1037.303
316.095	15.829	1374.094	1036.274
317.110	15.796	1373.028	1035.175
318.125	15.820	1371.996	1034.451
319.139	15.872	1370.667	1033.679
320.154	15.770	1370.299	1032.684
321.168	15.820	1369.056	1031.961
322.183	15.828	1368.166	1031.247
323.197	15.843	1367.159	1030.490
324.212	15.806	1366.407	1029.606
325.227	15.967	1365.268	1029.640
326.241	15.993	1364.769	1029.331
327.256	15.879	1363.714	1027.751
328.270	15.890	1363.151	1027.303
329.285	15.907	1362.273	1026.650
330.300	15.910	1361.109	1025.705
331.314	15.981	1360.415	1025.522
332.329	15.977	1359.452	1024.680
333.343	15.976	1358.438	1023.817
334.358	15.979	1357.773	1023.246
335.373	16.039	1356.798	1022.783
336.387	16.073	1356.109	1022.379
337.402	16.051	1355.419	1021.638
338.416	16.140	1354.581	1021.454
339.431	16.124	1353.872	1020.730
340.446	16.095	1353.243	1019.992
341.460	16.184	1352.188	1019.643
342.475	16.190	1351.334	1018.945
343.489	16.247	1350.696	1018.717
344.504	16.259	1349.892	1018.094
345.519	16.419	1348.643	1018.025
346.533	16.343	1347.949	1016.956
347.548	16.365	1346.976	1016.267
348.562	16.432	1346.192	1015.984
349.577	16.486	1345.049	1015.356
350.592	16.386	1344.654	1014.367
351.606	16.323	1343.670	1013.159
352.621	16.342	1342.327	1012.170
353.635	16.363	1341.119	1011.297
354.650	16.348	1340.911	1010.961
355.665	16.248	1339.937	1009.536
356.679	16.343	1338.802	1009.160
357.694	16.355	1337.431	1008.110
358.708	16.415	1336.112	1007.385
359.723	16.412	1335.559	1006.863
360.738	16.455	1334.300	1006.078
361.752	16.448	1333.335	1005.218
362.767	16.472	1331.794	1004.110
363.781	16.476	1331.289	1003.666
364.796	16.458	1331.070	1003.305
365.810	16.481	1330.163	1002.669
366.825	16.589	1329.380	1002.629
367.840	16.618	1328.566	1002.102
368.854	16.771	1327.618	1002.202
369.869	16.782	1327.065	1001.762
370.883	16.718	1326.598	1000.938
371.898	16.729	1326.004	1000.471
372.913	16.768	1324.816	999.714
373.927	16.724	1323.903	998.678
374.942	16.745	1323.341	998.286
375.956	16.771	1322.650	997.832
376.971	16.696	1322.191	996.953
377.986	16.750	1320.933	996.235
379.000	16.760	1320.337	995.755
380.015	16.893	1319.415	995.758
381.029	16.899	1318.477	994.996
382.044	16.966	1317.996	994.937
383.059	16.988	1317.040	994.255
384.073	17.000	1316.413	993.767
385.088	16.954	1315.712	992.879
386.102	17.071	1314.739	992.742
387.117	16.954	1314.353	991.678
388.132	16.969	1313.565	991.082
389.146	16.891	1312.737	989.916
390.161	16.876	1312.092	989.256
391.175	16.986	1310.936	988.937
392.190	16.981	1310.224	988.281
393.205	17.024	1309.481	987.883
394.219	17.069	1308.400	987.242
395.234	17.029	1307.438	986.195
396.248	17.066	1305.985	985.227
397.263	16.947	1305.048	983.745
398.278	16.991	1303.437	982.699
399.292	17.010	1302.190	981.782
400.307	17.096	1301.319	981.535
401.321	16.899	1300.577	979.750
402.336	17.042	1298.935	979.250
403.350	17.047	1298.391	978.783
404.365	16.900	1297.854	977.444
405.380	16.948	1296.757	976.809
406.394	17.029	1296.031	976.640
407.409	17.220	1294.627	976.595
408.423	17.104	1294.457	975.712
409.438	17.293	1293.435	975.943
410.453	17.360	1292.546	975.568
411.467	17.292	1292.494	975.054
412.482	17.245	1291.847	974.212
413.496	17.376	1290.853	974.123
414.511	17.446	1289.901	973.721
415.526	17.481	1289.295	973.375
416.540	17.429	1288.671	972.525
417.555	17.490	1288.060	972.321
418.569	17.457	1288.044	972.039
419.584	17.549	1286.923	971.629
420.599	17.542	1286.170	970.936
421.613	96.862	1356.405	1476.276
422.628	94.854	1366.553	1476.349
