DTS Sentinel unit serial number:	SN413079Multiplexer serial number:	ORYXHardware model number:	OX4-SRSoftware version number:	ORYX F/W v4.00 Oryx Data Collector v3.7.2.0data status	okinstallation	princeton_trtdifferential loss correction	single-endedforward channel	channel 4reverse channel	N/Adate	2019/09/15time	13:05:35forward acquisition time	60.00reverse acquisition time	0.00gamma	496.2192k internal	0.2292k external	0.2292temperature offset calibration	1.0005default loss term (dB/km)	0.3790temperature slope calibration	1.0000multiplexer offset coefficient	1.0000multiplexer slope coefficient	1.0000fibre end	0.00T internal ref (°C)	36.69T ext. ref 1 (°C)	4.97T ext. ref 2 (°C)	35.02length (m)	temperature (°C)	Stokes	anti-Stokes-747.200	267.808	-0.036	-0.064
-746.185	-104.448	-0.258	-0.061
-745.171	800.000	0.080	-0.318
-744.156	800.000	0.012	-0.053
-743.142	800.000	-0.054	0.239
-742.127	-200.000	-0.024	0.112
-741.112	-152.408	0.255	-0.019
-740.098	-90.159	-0.181	0.054
-739.083	-83.661	-0.131	0.043
-738.069	683.333	0.097	0.259
-737.054	-127.750	0.196	0.029
-736.039	-83.692	-0.191	-0.063
-735.025	800.000	-0.015	0.047
-734.010	165.655	0.054	-0.079
-732.996	-200.000	-0.033	-0.247
-731.981	800.000	-0.044	-0.145
-730.966	-200.000	-0.025	-0.122
-729.952	800.000	0.026	-0.100
-728.937	235.905	-0.092	-0.155
-727.923	280.546	0.156	0.285
-726.908	-60.199	-0.248	-0.108
-725.894	230.578	-0.161	-0.270
-724.879	-162.099	-0.194	0.010
-723.864	-168.110	-0.363	0.014
-722.850	262.926	-0.172	-0.305
-721.835	41.186	-0.225	0.208
-720.821	-66.215	-0.205	-0.083
-719.806	38.062	-0.135	0.123
-718.791	800.000	-0.019	0.072
-717.777	-200.000	0.035	0.248
-716.762	800.000	0.134	0.488
-715.748	800.000	0.055	0.161
-714.733	-66.939	-0.433	0.175
-713.718	-185.102	0.217	0.003
-712.704	724.438	0.045	0.123
-711.689	-115.421	0.209	-0.040
-710.675	193.741	0.050	0.077
-709.660	19.637	-0.225	0.185
-708.645	539.832	0.061	-0.149
-707.631	-79.075	0.186	-0.064
-706.616	78.869	0.058	0.064
-705.602	-149.108	0.314	0.026
-704.587	-200.000	-0.030	-0.201
-703.572	800.000	-0.179	-0.522
-702.558	-200.000	0.045	0.208
-701.543	800.000	-0.043	0.176
-700.529	287.309	-0.107	0.198
-699.514	-70.622	-0.178	-0.069
-698.499	293.914	-0.147	-0.275
-697.485	164.130	0.060	0.087
-696.470	-57.037	-0.185	-0.083
-695.456	-88.478	-0.285	-0.087
-694.441	800.000	0.027	0.086
-693.426	193.438	-0.023	0.036
-692.412	39.585	-0.084	-0.077
-691.397	-97.605	-0.334	-0.088
-690.383	108.568	-0.107	-0.130
-689.368	-68.214	0.373	-0.148
-688.354	800.000	-0.011	0.039
-687.339	275.622	-0.151	-0.273
-686.324	707.101	0.018	0.049
-685.310	-47.298	0.174	0.086
-684.295	260.322	-0.183	-0.323
-683.281	90.129	-0.101	-0.115
-682.266	8.105	-0.071	-0.054
-681.251	-65.015	0.253	-0.104
-680.237	-93.690	-0.350	-0.099
-679.222	-191.794	-0.124	0.001
-678.208	800.000	-0.048	-0.200
-677.193	-200.000	0.010	0.099
-676.178	-49.824	-0.108	-0.052
-675.164	-200.000	-0.033	0.000
-674.149	392.984	0.058	-0.124
-673.135	-151.904	0.327	-0.024
-672.120	102.465	-0.081	-0.096
-671.105	-200.000	-0.024	0.316
-670.091	586.265	-0.112	-0.281
-669.076	402.423	0.162	-0.348
-668.062	300.817	-0.191	-0.360
-667.047	-92.558	0.144	0.041
-666.032	-116.841	-0.180	0.034
-665.018	111.989	-0.195	-0.240
-664.003	10.617	0.239	-0.186
-662.989	-200.000	-0.002	-0.052
-661.974	-108.378	-0.179	-0.039
-660.959	-1.074	-0.180	-0.130
-659.945	-4.523	-0.070	-0.049
-658.930	264.971	0.102	-0.181
-657.916	-63.666	0.056	0.023
-656.901	167.796	-0.141	0.204
-655.886	-200.000	-0.038	-0.442
-654.872	-113.971	0.060	0.012
-653.857	-6.530	-0.218	-0.151
-652.843	-114.487	-0.041	-0.008
-651.828	800.000	0.036	-0.111
-650.814	-200.000	-0.041	0.201
-649.799	-200.000	0.030	-0.338
-648.784	-115.261	-0.371	-0.072
-647.770	296.530	-0.066	0.124
-646.755	800.000	-0.036	0.151
-645.741	800.000	-0.065	-0.208
-644.726	14.223	-0.034	0.027
-643.711	-142.511	0.195	0.019
-642.697	-91.831	0.489	-0.141
-641.682	-176.500	0.223	-0.006
-640.668	-148.962	0.057	-0.005
-639.653	-98.739	0.273	-0.071
-638.638	56.085	-0.154	-0.152
-637.624	14.590	-0.284	0.226
-636.609	-200.000	-0.003	-0.117
-635.595	747.830	0.089	-0.245
-634.580	-102.465	-0.130	-0.032
-633.565	181.533	-0.089	-0.133
-632.551	-112.279	0.283	0.058
-631.536	-92.050	-0.197	0.057
-630.522	100.214	0.194	0.229
-629.507	105.560	0.066	-0.080
-628.492	800.000	-0.057	0.171
-627.478	-142.307	-0.201	0.020
-626.463	15.086	0.273	-0.218
-625.449	800.000	-0.029	0.100
-624.434	-200.000	-0.023	0.277
-623.419	40.025	-0.292	-0.267
-622.405	651.234	-0.059	-0.153
-621.390	-200.000	-0.033	-0.266
-620.376	-120.094	0.201	-0.035
-619.361	800.000	-0.118	-0.454
-618.346	225.415	0.283	0.466
-617.332	150.996	0.025	0.034
-616.317	-130.299	0.053	-0.007
-615.303	128.016	0.025	0.032
-614.288	-48.298	0.191	-0.094
-613.273	-149.991	-0.212	0.017
-612.259	-131.579	-0.477	0.064
-611.244	163.928	-0.111	0.159
-610.230	800.000	0.012	-0.038
-609.215	403.029	0.042	-0.091
-608.201	-76.858	-0.096	-0.034
-607.186	-80.378	-0.100	-0.034
-606.171	-200.000	-0.038	-0.260
-605.157	-96.644	0.232	0.062
-604.142	-200.000	0.025	-0.114
-603.128	326.622	-0.098	-0.191
-602.113	58.333	0.064	-0.064
-601.098	-200.000	-0.049	0.238
-600.084	409.876	-0.086	-0.185
-599.069	584.147	0.149	-0.372
-598.055	-67.847	0.370	-0.147
-597.040	67.023	-0.214	-0.222
-596.025	169.159	0.191	0.277
-595.011	343.103	-0.050	0.099
-593.996	31.578	0.263	0.230
-592.982	-60.497	0.124	-0.054
-591.967	418.118	0.023	0.049
-590.952	-54.581	0.175	-0.080
-589.938	800.000	0.032	0.143
-588.923	-50.418	-0.130	0.063
-587.909	800.000	0.066	-0.196
-586.894	405.787	0.200	0.430
-585.879	-83.761	-0.088	-0.029
-584.865	-130.625	0.122	-0.017
-583.850	-59.683	0.234	0.102
-582.836	-76.771	0.325	0.116
-581.821	-88.766	-0.239	-0.072
-580.806	-74.965	0.172	-0.063
-579.792	-127.312	0.127	-0.019
-578.777	-11.860	0.424	0.283
-577.763	52.239	0.111	-0.108
-576.748	-127.227	0.331	-0.049
-575.733	-94.847	-0.109	0.030
-574.719	-89.759	-0.085	0.025
-573.704	-151.020	-0.473	0.036
-572.690	208.195	0.156	-0.248
-571.675	-13.977	0.245	-0.161
-570.661	94.462	0.197	0.228
-569.646	104.930	0.182	0.218
-568.631	-91.820	-0.243	0.070
-567.617	-68.527	-0.100	0.039
-566.602	-29.247	0.242	-0.141
-565.588	-13.651	-0.096	0.063
-564.573	-149.328	-0.248	-0.020
-563.558	-79.146	-0.185	0.064
-562.544	63.775	-0.028	0.029
-561.529	-65.886	0.100	0.041
-560.515	558.923	0.124	-0.305
-559.500	39.215	-0.302	-0.275
-558.485	18.173	-0.152	0.123
-557.471	124.253	-0.172	-0.220
-556.456	-78.361	-0.234	0.082
-555.442	41.997	0.148	-0.136
-554.427	253.301	-0.143	0.247
-553.412	150.152	0.111	-0.153
-552.398	270.860	-0.023	0.042
-551.383	59.371	0.190	0.190
-550.369	800.000	0.010	0.041
-549.354	-142.791	0.261	0.026
-548.339	166.902	-0.051	0.073
-547.325	-200.000	-0.049	0.452
-546.310	283.746	0.146	0.267
-545.296	84.066	0.129	0.143
-544.281	-200.000	0.020	-0.361
-543.266	800.000	0.143	-0.526
-542.252	-71.950	-0.331	0.125
-541.237	275.949	-0.117	-0.212
-540.223	-113.765	-0.152	0.030
-539.208	-200.000	0.075	-0.366
-538.193	25.446	-0.214	-0.181
-537.179	-200.000	0.013	-0.312
-536.164	65.532	-0.199	-0.205
-535.150	95.841	-0.355	0.411
-534.135	-200.000	-0.003	0.129
-533.121	-27.024	-0.207	0.122
-532.106	500.312	0.011	0.027
-531.091	501.504	0.064	0.150
-530.077	31.118	-0.312	-0.272
-529.062	-64.096	-0.194	0.080
-528.048	141.590	0.108	-0.145
-527.033	15.630	-0.076	0.061
-526.018	153.223	0.078	-0.109
-525.004	-48.222	-0.356	0.174
-523.989	-151.180	-0.346	0.026
-522.975	587.640	0.007	0.018
-521.960	800.000	-0.044	0.175
-520.945	288.401	0.141	-0.260
-519.931	-105.222	-0.377	0.087
-518.916	-100.973	0.193	-0.048
-517.902	-132.979	-0.050	0.006
-516.887	-80.186	-0.240	0.081
-515.872	-200.000	0.368	0.001
-514.858	800.000	0.090	-0.369
-513.843	281.191	-0.118	-0.215
-512.829	-93.917	-0.350	-0.098
-511.814	34.335	-0.214	-0.189
-510.799	-104.718	-0.301	0.070
-509.785	-174.629	-0.327	-0.009
-508.770	61.921	0.101	-0.102
-507.756	-14.164	-0.160	-0.104
-506.741	285.059	-0.108	-0.198
-505.726	51.385	0.296	-0.285
-504.712	-127.359	-0.223	0.033
-503.697	38.762	-0.241	0.218
-502.683	-134.716	-0.304	0.037
-501.668	12.093	0.258	-0.201
-500.653	56.936	-0.281	-0.278
-499.639	-92.496	0.089	0.025
-498.624	-165.996	-0.177	-0.008
-497.610	-200.000	-0.010	-0.090
-496.595	-47.390	0.221	0.109
-495.581	-200.000	0.047	-0.254
-494.566	-200.000	0.001	0.022
-493.551	548.828	0.086	0.209
-492.537	-129.175	-0.325	-0.046
-491.522	90.146	0.305	0.346
-490.508	-200.000	0.043	0.248
-489.493	-33.836	0.315	-0.176
-488.478	-200.000	-0.087	0.427
-487.464	-140.137	-0.035	0.004
-486.449	-84.153	-0.062	-0.020
-485.435	800.000	0.035	-0.121
-484.420	91.771	0.151	0.172
-483.405	234.497	0.156	0.260
-482.391	265.826	-0.087	0.153
-481.376	53.498	0.172	-0.168
-480.362	-74.964	-0.034	0.013
-479.347	-200.000	0.045	0.262
-478.332	-143.367	-0.326	0.032
-477.318	772.291	-0.083	-0.229
-476.303	-26.962	0.072	0.042
-475.289	-46.790	0.190	-0.094
-474.274	-139.312	-0.356	-0.039
-473.259	-62.606	-0.193	0.081
-472.245	-18.559	0.178	-0.112
-471.230	623.060	-0.082	0.209
-470.216	800.000	0.046	-0.154
-469.201	-3.245	-0.393	0.278
-468.186	176.667	0.069	-0.102
-467.172	-7.664	-0.112	-0.077
-466.157	800.000	-0.028	-0.110
-465.143	-60.248	-0.090	0.039
-464.128	46.263	-0.144	0.135
-463.113	-200.000	0.052	-0.254
-462.099	-163.174	-0.264	-0.013
-461.084	-64.492	-0.169	0.070
-460.070	-119.763	0.123	0.021
-459.055	43.003	-0.173	-0.160
-458.040	709.906	0.179	0.479
-457.026	325.921	-0.118	0.229
-456.011	61.114	0.123	0.123
-454.997	-99.349	0.415	0.106
-453.982	-131.145	-0.192	-0.026
-452.968	157.752	-0.093	0.130
-451.953	98.268	-0.232	-0.270
-450.938	-200.000	0.062	-0.295
-449.924	72.588	0.123	0.130
-448.909	348.850	0.064	-0.127
-447.895	-200.000	-0.050	0.364
-446.880	1.178	0.141	0.102
-445.865	-139.253	-0.215	-0.023
-444.851	325.528	0.124	-0.241
-443.836	126.406	-0.137	-0.176
-442.822	-22.247	0.361	0.222
-441.807	-154.727	-0.337	-0.023
-440.792	420.333	-0.137	0.296
-439.778	800.000	0.084	0.265
-438.763	267.640	-0.143	-0.253
-437.749	161.871	-0.201	-0.285
-436.734	17.977	0.150	0.121
-435.719	-51.552	-0.233	0.110
-434.705	-144.014	-0.293	-0.028
-433.690	187.279	-0.122	0.184
-432.676	28.128	0.107	-0.091
-431.661	-101.164	-0.225	0.056
-430.646	800.000	0.044	0.130
-429.632	-83.375	0.203	-0.066
-428.617	-200.000	-0.014	0.067
-427.603	63.791	0.066	0.068
-426.588	224.357	-0.215	-0.352
-425.573	-68.214	0.039	0.015
-424.559	145.614	-0.196	-0.265
-423.544	577.862	-0.087	-0.214
-422.530	-44.271	0.097	-0.049
-421.515	-172.800	0.153	-0.005
-420.500	-96.521	-0.126	0.034
-419.486	-200.000	-0.039	-0.199
-418.471	-104.114	-0.047	-0.011
-417.457	-12.669	0.351	-0.231
-416.442	-130.732	0.299	-0.041
-415.428	-27.646	0.230	0.135
-414.413	-182.147	-0.325	-0.006
-413.398	-200.000	-0.000	0.216
-412.384	-124.726	0.090	0.014
-411.369	755.916	-0.018	-0.049
-410.355	-200.000	-0.000	-0.105
-409.340	365.795	0.077	0.157
-408.325	-98.081	0.162	0.042
-407.311	16.958	0.087	-0.069
-406.296	-87.837	-0.209	-0.064
-405.282	-64.374	-0.150	0.061
-404.267	-69.086	-0.217	0.084
-403.252	-49.785	-0.141	-0.068
-402.238	800.000	-0.043	0.186
-401.223	-76.997	-0.372	0.131
-400.209	-75.787	-0.179	0.064
-399.194	-200.000	-0.020	-0.111
-398.179	-46.594	0.228	-0.113
-397.165	765.197	0.098	0.269
-396.150	-15.076	0.123	-0.079
-395.136	73.130	0.169	0.178
-394.121	10.205	0.254	0.195
-393.106	-200.000	0.029	-0.153
-392.092	-145.810	0.154	0.014
-391.077	385.494	-0.168	0.350
-390.063	-105.094	-0.215	0.050
-389.048	-174.760	-0.106	0.003
-388.033	-56.988	0.127	0.057
-387.019	-78.631	-0.371	-0.128
-386.004	-70.780	-0.162	-0.062
-384.990	-102.998	0.065	0.016
-383.975	220.206	0.160	0.259
-382.960	196.562	0.077	-0.119
-381.946	-200.000	0.044	0.452
-380.931	605.161	0.081	-0.204
-379.917	-66.915	0.289	0.115
-378.902	-92.607	-0.215	-0.061
-377.888	800.000	-0.041	-0.169
-376.873	457.110	-0.152	0.341
-375.858	800.000	-0.074	-0.296
-374.844	119.172	0.204	0.255
-373.829	310.896	-0.215	0.406
-372.815	-200.000	-0.053	0.293
-371.800	-140.668	-0.187	0.019
-370.785	99.666	0.164	-0.191
-369.771	-46.015	-0.444	0.221
-368.756	-200.000	-0.041	0.247
-367.742	-200.000	0.051	-0.260
-366.727	-89.073	0.576	-0.172
-365.712	79.367	0.283	-0.306
-364.698	78.140	-0.103	-0.111
-363.683	800.000	0.107	0.409
-362.669	309.660	0.133	0.250
-361.654	-44.730	0.315	-0.158
-360.639	-200.000	0.000	-0.032
-359.625	-93.475	-0.180	0.050
-358.610	-93.776	0.165	-0.046
-357.596	-200.000	0.020	-0.139
-356.581	-200.000	-0.067	-0.392
-355.566	-141.108	0.349	-0.036
-354.552	800.000	-0.038	0.139
-353.537	140.255	0.199	0.265
-352.523	504.707	0.127	0.295
-351.508	82.799	-0.120	0.131
-350.493	329.245	0.108	-0.208
-349.479	173.522	-0.114	-0.166
-348.464	-131.683	0.152	0.020
-347.450	-110.052	-0.346	-0.073
-346.435	228.546	0.059	-0.097
-345.420	800.000	-0.056	-0.173
-344.406	415.056	-0.055	0.118
-343.391	-91.178	-0.409	0.118
-342.377	130.002	-0.220	0.283
-341.362	227.799	0.023	0.038
-340.348	154.696	0.098	0.136
-339.333	-193.214	-0.261	-0.002
-338.318	-113.960	0.289	0.057
-337.304	-82.149	-0.433	-0.142
-336.289	800.000	0.066	-0.254
-335.275	-200.000	-0.007	-0.289
-334.260	-78.008	0.255	0.089
-333.245	208.167	-0.138	0.217
-332.231	-133.171	-0.194	-0.025
-331.216	144.667	0.050	-0.068
-330.202	-103.754	-0.219	0.052
-329.187	562.840	0.020	-0.048
-328.172	800.000	-0.006	-0.022
-327.158	92.343	-0.218	-0.247
-326.143	-46.402	-0.173	0.085
-325.129	-125.339	0.294	0.045
-324.114	-200.000	0.279	-0.000
-323.099	18.930	-0.173	0.140
-322.085	-200.000	-0.003	-0.348
-321.070	-200.000	-0.025	0.120
-320.056	-200.000	-0.039	-0.381
-319.041	422.237	0.062	-0.134
-318.026	114.956	0.124	0.152
-317.012	-185.452	-0.199	-0.003
-315.997	-151.423	0.157	0.012
-314.983	-200.000	-0.050	0.241
-313.968	-200.000	0.072	-0.370
-312.953	-200.000	0.034	-0.315
-311.939	210.939	-0.207	-0.327
-310.924	800.000	-0.022	0.078
-309.910	-45.083	0.208	0.104
-308.895	6.343	0.040	-0.030
-307.880	342.503	-0.180	-0.355
-306.866	86.303	-0.097	-0.108
-305.851	-200.000	0.105	0.589
-304.837	800.000	0.049	0.161
-303.822	-59.161	0.204	-0.088
-302.807	-200.000	-0.046	0.226
-301.793	-125.890	0.202	0.031
-300.778	-200.000	0.021	0.233
-299.764	641.799	0.088	-0.226
-298.749	-35.965	-0.297	-0.161
-297.735	27.089	0.080	0.067
-296.720	-200.000	0.025	0.422
-295.705	-200.000	0.015	0.167
-294.691	-85.249	0.161	0.051
-293.676	-93.001	0.371	0.104
-292.662	-35.681	-0.070	-0.038
-291.647	317.755	0.051	0.097
-290.632	-200.000	0.035	-0.194
-289.618	-200.000	0.027	0.152
-288.603	176.716	-0.044	0.064
-287.589	-122.466	-0.475	0.078
-286.574	-200.000	0.006	0.103
-285.559	-173.638	-0.056	0.002
-284.545	454.519	0.196	0.436
-283.530	28.098	0.243	-0.206
-282.516	147.858	-0.121	-0.164
-281.501	800.000	-0.016	-0.057
-280.486	-200.000	0.005	0.190
-279.472	388.784	-0.120	-0.249
-278.457	474.388	0.122	0.277
-277.443	101.494	-0.065	0.076
-276.428	800.000	-0.069	-0.213
-275.413	-31.266	0.147	0.083
-274.399	-55.529	0.029	-0.013
-273.384	-70.065	0.253	-0.097
-272.370	-111.234	0.291	-0.060
-271.355	-147.157	-0.074	-0.006
-270.340	375.389	0.022	0.045
-269.326	40.261	0.174	0.157
-268.311	196.921	-0.070	-0.108
-267.297	109.142	-0.187	-0.225
-266.282	-83.504	0.137	-0.044
-265.267	-25.702	0.076	-0.045
-264.253	169.644	0.211	-0.302
-263.238	-200.000	0.005	-0.039
-262.224	-200.000	0.002	-0.113
-261.209	800.000	-0.078	0.235
-260.195	-78.345	-0.152	-0.052
-259.180	-178.544	0.156	0.004
-258.165	111.775	-0.145	-0.176
-257.151	-154.895	-0.234	0.015
-256.136	-200.000	0.058	-0.315
-255.122	-200.000	-0.018	-0.249
-254.107	-128.488	0.222	-0.032
-253.092	438.513	-0.083	0.181
-252.078	-200.000	0.027	-0.176
-251.063	440.803	0.102	0.224
-250.049	-54.138	-0.156	0.071
-249.034	-40.368	0.331	0.173
-248.019	-117.273	0.492	0.090
-247.005	-35.543	0.158	-0.086
-245.990	-29.318	0.058	-0.033
-244.976	152.902	-0.170	-0.233
-243.961	93.058	0.110	-0.125
-242.946	-48.912	0.135	0.065
-241.932	800.000	-0.080	0.294
-240.917	30.689	-0.135	-0.116
-239.903	255.078	-0.207	-0.355
-238.888	134.471	-0.061	-0.080
-237.873	309.703	0.057	0.108
-236.859	-200.000	-0.008	-0.112
-235.844	729.733	0.084	0.226
-234.830	-135.694	-0.231	-0.028
-233.815	-200.000	-0.021	0.152
-232.800	176.637	-0.062	0.091
-231.786	218.162	0.192	0.308
-230.771	44.831	-0.122	-0.112
-229.757	-200.000	-0.019	-0.327
-228.742	13.558	-0.034	0.026
-227.727	-124.341	-0.210	-0.033
-226.713	45.157	-0.220	-0.203
-225.698	-18.091	0.172	0.108
-224.684	67.927	-0.127	-0.130
-223.669	-146.922	0.188	0.016
-222.655	-151.595	0.101	-0.008
-221.640	-1.899	0.151	0.107
-220.625	408.647	-0.111	-0.236
-219.611	800.000	0.062	-0.236
-218.596	800.000	-0.050	0.169
-217.582	800.000	-0.057	0.188
-216.567	70.627	-0.183	-0.190
-215.552	504.884	0.145	0.337
-214.538	70.976	0.115	0.120
-213.523	-200.000	0.038	0.238
-212.509	399.797	0.089	-0.187
-211.494	39.020	-0.058	0.052
-210.479	-46.475	0.122	-0.060
-209.465	151.065	0.051	0.069
-208.450	-2.679	-0.021	-0.015
-207.436	34.107	-0.043	-0.038
-206.421	91.741	0.216	0.243
-205.406	-200.000	0.018	0.152
-204.392	377.283	0.093	-0.190
-203.377	800.000	-0.088	-0.314
-202.363	-133.288	0.300	-0.038
-201.348	122.156	0.169	0.212
-200.333	-144.452	0.068	-0.006
-199.319	90.898	0.037	0.042
-198.304	315.942	-0.166	0.315
-197.290	247.705	0.040	0.067
-196.275	77.163	0.129	-0.137
-195.260	800.000	0.037	0.141
-194.246	-108.143	-0.177	-0.038
-193.231	-39.826	0.061	0.032
-192.217	474.569	0.106	-0.239
-191.202	-200.000	0.018	0.100
-190.187	173.012	0.217	0.312
-189.173	-200.000	-0.017	0.153
-188.158	-31.166	0.352	0.199
-187.144	-100.651	-0.231	0.057
-186.129	151.568	-0.123	-0.168
-185.114	-73.433	-0.010	0.004
-184.100	-136.046	0.098	0.011
-183.085	39.218	0.290	0.259
-182.071	-26.054	0.238	-0.140
-181.056	-151.552	0.501	0.037
-180.042	100.014	-0.074	0.086
-179.027	6.788	0.211	-0.157
-178.012	-200.000	-0.017	-0.404
-176.998	208.047	-0.059	-0.093
-175.983	-77.565	0.202	-0.070
-174.969	800.000	0.026	0.102
-173.954	359.996	0.031	0.063
-172.939	-200.000	0.018	-0.340
-171.925	-35.539	-0.162	-0.088
-170.910	800.000	0.093	-0.290
-169.896	800.000	0.059	0.183
-168.881	-97.327	0.079	-0.021
-167.866	62.567	-0.108	-0.108
-166.852	-113.891	0.089	0.017
-165.837	-200.000	0.057	-0.448
-164.823	311.070	0.058	-0.108
-163.808	8.541	0.226	0.170
-162.793	799.929	0.094	0.259
-161.779	800.000	-0.121	0.377
-160.764	-71.256	-0.053	0.020
-159.750	-63.019	0.213	-0.088
-158.735	-4.802	-0.210	-0.145
-157.720	35.473	0.016	0.014
-156.706	175.578	-0.093	0.135
-155.691	382.430	-0.048	0.100
-154.677	-115.936	0.194	0.036
-153.662	345.713	-0.183	0.360
-152.647	-39.878	-0.379	0.198
-151.633	-12.905	-0.198	0.129
-150.618	193.260	-0.139	0.210
-149.604	58.796	-0.120	-0.118
-148.589	183.898	0.140	0.208
-147.574	-83.044	-0.221	0.071
-146.560	193.954	0.078	0.118
-145.545	-200.000	-0.024	0.295
-144.531	74.327	-0.194	0.204
-143.516	285.347	-0.093	0.168
-142.502	-116.714	0.283	-0.052
-141.487	-200.000	0.018	0.127
-140.472	-26.105	-0.214	-0.126
-139.458	61.575	0.135	0.134
-138.443	515.256	0.082	0.191
-137.429	287.109	-0.018	0.033
-136.414	-6.953	0.184	-0.125
-135.399	-15.573	0.106	-0.068
-134.385	-107.894	0.095	-0.021
-133.370	11.260	-0.098	-0.075
-132.356	23.951	0.149	0.122
-131.341	-163.073	0.343	-0.017
-130.326	221.643	0.120	0.192
-129.312	-66.647	-0.297	-0.118
-128.297	200.948	-0.070	-0.108
-127.283	-132.067	0.140	-0.018
-126.268	-200.000	-0.014	0.100
-125.253	800.000	-0.125	0.398
-124.239	800.000	-0.032	0.118
-123.224	800.000	0.054	-0.167
-122.210	47.948	0.387	0.361
-121.195	-200.000	0.014	0.201
-120.180	351.049	-0.071	0.141
-119.166	-48.234	0.338	0.163
-118.151	800.000	0.045	0.167
-117.137	183.449	0.088	0.129
-116.122	-124.259	0.208	0.033
-115.107	272.126	0.178	-0.313
-114.093	2.882	-0.267	0.193
-113.078	-50.217	-0.287	0.135
-112.064	-85.422	0.176	-0.055
-111.049	800.000	-0.059	0.173
-110.034	171.594	0.137	-0.196
-109.020	68.905	0.146	0.150
-108.005	800.000	0.119	0.401
-106.991	-48.775	0.093	-0.045
-105.976	384.436	-0.047	-0.096
-104.962	-158.803	-0.105	0.006
-103.947	-93.604	-0.299	-0.083
-102.932	-78.443	-0.444	0.152
-101.918	-115.402	0.182	-0.034
-100.903	800.000	-0.043	-0.150
-99.889	-200.000	-0.032	0.143
-98.874	-200.000	-0.005	0.139
-97.859	-17.003	0.398	-0.251
-96.845	253.690	-0.178	-0.303
-95.830	4.577	0.230	-0.168
-94.816	-80.578	-0.266	0.088
-93.801	-19.996	0.112	-0.069
-92.786	-166.842	-0.273	-0.011
-91.772	800.000	-0.106	0.325
-90.757	71.926	-0.137	0.142
-89.743	-200.000	0.022	-0.213
-88.728	-200.000	0.017	-0.290
-87.713	193.258	0.092	-0.139
-86.699	-200.000	0.013	0.075
-85.684	523.356	-0.034	0.080
-84.670	36.254	0.203	-0.179
-83.655	-200.000	-0.012	0.181
-82.640	-56.699	0.300	-0.133
-81.626	17.945	-0.162	0.128
-80.611	800.000	-0.156	0.430
-79.597	163.654	-0.211	0.296
-78.582	800.000	-0.054	-0.209
-77.567	235.167	-0.108	-0.177
-76.553	-111.234	-0.133	0.027
-75.538	-166.496	-0.475	0.020
-74.524	800.000	0.055	-0.177
-73.509	114.202	0.059	-0.072
-72.494	-123.302	-0.137	0.022
-71.480	207.391	-0.069	0.108
-70.465	-200.000	-0.027	-0.207
-69.451	-123.068	0.155	0.025
-68.436	-21.180	0.319	0.195
-67.422	527.608	0.070	-0.164
-66.407	6.132	0.391	0.289
-65.392	32.311	-0.347	0.299
-64.378	-29.509	0.153	-0.087
-63.363	-86.999	0.050	-0.015
-62.349	-200.000	-0.058	0.292
-61.334	133.349	-0.694	-0.894
-60.319	-200.000	0.072	0.379
-59.305	-200.000	-0.077	-0.788
-58.290	221.797	0.489	0.784
-57.276	800.000	0.504	1.746
-56.261	-200.000	86.929	491.222
-55.246	490.647	1404.994	3202.783
-54.232	179.940	2623.377	3830.111
-53.217	107.022	2382.306	2819.051
-52.203	42.636	2118.541	1921.090
-51.188	38.175	2028.660	1798.554
-50.173	36.822	2008.684	1768.427
-49.159	49.609	2054.792	1927.393
-48.144	52.594	2074.857	1973.747
-47.130	39.257	2035.041	1813.912
-46.115	36.724	2023.754	1780.507
-45.100	36.677	2020.614	1777.243
-44.086	36.659	2018.404	1775.067
-43.071	36.630	2015.290	1771.987
-42.057	36.537	2013.054	1769.106
-41.042	36.529	2011.829	1767.884
-40.027	36.562	2009.322	1765.910
-39.013	36.631	2007.588	1764.945
-37.998	36.591	2005.955	1763.073
-36.984	36.604	2004.077	1761.479
-35.969	36.691	2001.383	1759.826
-34.954	36.646	2000.385	1758.470
-33.940	36.653	1998.877	1757.135
-32.925	36.791	1996.812	1756.508
-31.911	36.775	1994.933	1754.639
-30.896	36.691	1993.926	1752.923
-29.881	36.665	1992.301	1751.190
-28.867	36.679	1990.744	1749.879
-27.852	36.719	1988.015	1747.774
-26.838	36.753	1986.117	1746.339
-25.823	36.608	1984.579	1743.610
-24.809	36.690	1982.798	1742.715
-23.794	36.686	1981.482	1741.453
-22.779	36.714	1979.371	1739.778
-21.765	36.675	1977.752	1737.937
-20.750	36.701	1976.139	1736.683
-19.736	36.651	1974.491	1734.718
-18.721	36.754	1972.868	1734.151
-17.706	36.686	1971.132	1731.943
-16.692	36.739	1969.313	1730.752
-15.677	36.729	1967.595	1729.082
-14.663	36.814	1966.174	1728.529
-13.648	36.732	1965.078	1726.761
-12.633	36.698	1964.209	1725.625
-11.619	36.683	1962.737	1724.131
-10.604	36.632	1961.512	1722.530
-9.590	36.694	1960.073	1721.749
-8.575	36.691	1958.453	1720.236
-7.560	36.670	1957.248	1718.923
-6.546	36.739	1955.308	1717.759
-5.531	36.744	1954.734	1717.235
-4.517	36.679	1953.183	1715.228
-3.502	36.648	1952.383	1714.182
-2.487	36.684	1950.798	1713.043
-1.473	36.669	1950.350	1712.443
-0.458	36.791	1945.792	1709.450
0.556	35.901	1927.535	1687.375
1.571	32.440	1908.625	1640.573
2.586	28.351	1931.534	1623.954
3.600	27.064	1968.254	1643.049
4.615	25.772	1963.582	1627.330
5.629	19.798	1858.955	1489.215
6.644	10.200	1735.777	1312.881
7.659	5.386	1696.004	1244.441
8.673	5.076	1692.575	1239.349
9.688	5.011	1691.673	1238.063
10.702	4.963	1690.034	1236.377
11.717	4.841	1686.586	1232.775
12.731	5.398	1686.786	1237.226
13.746	11.746	1702.334	1299.070
14.761	18.918	1717.483	1367.788
15.775	19.673	1715.668	1372.213
16.790	18.025	1711.463	1355.662
17.804	16.860	1708.064	1343.621
18.819	15.813	1704.964	1332.775
19.834	15.152	1702.290	1325.341
20.848	14.860	1700.214	1321.302
21.863	14.632	1699.284	1318.663
22.877	14.356	1697.353	1314.864
23.892	14.155	1696.068	1312.167
24.907	14.076	1694.811	1310.455
25.921	14.030	1693.765	1309.169
26.936	14.125	1692.492	1308.816
27.950	14.043	1691.578	1307.350
28.965	14.103	1691.696	1307.798
29.980	14.195	1690.329	1307.345
30.994	14.151	1689.638	1306.354
32.009	14.253	1688.347	1306.041
33.023	14.469	1686.855	1306.464
34.038	14.364	1686.499	1305.249
35.053	14.356	1685.168	1304.041
36.067	14.289	1683.949	1302.460
37.082	14.232	1682.795	1301.007
38.096	14.188	1681.995	1299.931
39.111	14.228	1681.219	1299.524
40.126	14.309	1680.353	1299.371
41.140	14.291	1678.997	1298.068
42.155	14.118	1677.907	1295.763
43.169	14.110	1676.297	1294.339
44.184	14.041	1675.162	1292.815
45.199	14.068	1673.958	1291.978
46.213	14.006	1673.423	1290.973
47.228	14.072	1671.439	1289.839
48.242	14.182	1670.316	1289.713
49.257	14.143	1669.620	1288.759
50.271	14.198	1668.310	1288.062
51.286	14.174	1666.916	1286.685
52.301	14.193	1665.693	1285.775
53.315	14.265	1664.196	1285.059
54.330	14.154	1662.709	1282.937
55.344	14.061	1661.165	1280.921
56.359	14.155	1659.165	1279.988
57.374	14.122	1658.273	1278.934
58.388	14.056	1657.635	1277.818
59.403	14.168	1655.716	1277.084
60.417	14.058	1654.579	1275.250
61.432	14.020	1653.725	1274.187
62.447	14.019	1652.276	1272.953
63.461	13.979	1651.171	1271.684
64.476	13.870	1650.541	1270.254
65.490	13.844	1649.576	1269.201
66.505	13.991	1647.805	1268.847
67.520	13.925	1647.333	1267.867
68.534	13.983	1645.772	1266.998
69.549	14.015	1644.777	1266.364
70.563	13.937	1643.776	1264.882
71.578	13.965	1642.408	1263.936
72.593	13.913	1640.971	1262.317
73.607	13.835	1640.502	1261.256
74.622	13.900	1639.141	1260.587
75.636	13.846	1638.312	1259.433
76.651	13.771	1637.672	1258.259
77.666	13.856	1636.503	1257.890
78.680	13.733	1636.006	1256.472
79.695	13.805	1635.193	1256.279
80.709	13.840	1633.943	1255.469
81.724	13.888	1633.168	1255.128
82.739	13.968	1632.274	1254.932
83.753	14.044	1631.401	1254.727
84.768	14.092	1630.621	1254.373
85.782	14.165	1629.525	1253.969
86.797	14.222	1628.425	1253.441
87.812	14.274	1627.663	1253.135
88.826	14.227	1626.615	1251.870
89.841	14.091	1625.645	1249.988
90.855	14.104	1624.619	1249.186
91.870	14.206	1623.458	1248.949
92.884	14.236	1622.589	1248.392
93.899	14.184	1622.163	1247.567
94.914	14.284	1620.091	1246.611
95.928	14.287	1619.276	1245.896
96.943	14.312	1618.113	1245.080
97.957	14.327	1615.943	1243.410
98.972	14.216	1614.970	1241.725
99.987	14.241	1613.238	1240.465
101.001	14.209	1611.647	1238.895
102.016	14.267	1610.008	1237.957
103.030	14.195	1609.192	1236.683
104.045	14.197	1607.852	1235.560
105.060	14.182	1606.717	1234.466
106.074	14.117	1605.377	1232.847
107.089	14.141	1603.422	1231.419
108.103	13.991	1602.024	1229.122
109.118	13.949	1600.357	1227.425
110.133	14.067	1598.927	1227.090
111.147	13.947	1597.167	1224.747
112.162	14.020	1595.959	1224.252
113.176	14.019	1594.561	1223.064
114.191	14.017	1593.224	1221.914
115.206	14.070	1592.226	1221.428
116.220	14.097	1590.835	1220.455
117.235	14.057	1589.543	1219.063
118.249	13.974	1588.177	1217.297
119.264	14.048	1586.624	1216.543
120.279	13.939	1585.859	1215.045
121.293	14.066	1583.796	1214.291
122.308	13.946	1583.023	1212.716
123.322	14.051	1580.847	1211.703
124.337	13.944	1579.757	1209.981
125.352	13.957	1578.063	1208.674
126.366	13.924	1577.875	1208.184
127.381	14.019	1576.275	1207.542
128.395	14.025	1575.283	1206.714
129.410	13.996	1573.862	1205.313
130.424	13.994	1572.389	1204.061
131.439	13.986	1571.198	1202.985
132.454	14.036	1569.948	1202.285
133.468	14.021	1568.530	1200.982
134.483	14.075	1567.000	1200.091
135.497	14.165	1565.492	1199.485
136.512	14.186	1563.913	1198.319
137.527	14.146	1562.692	1196.989
138.541	14.084	1561.910	1195.839
139.556	14.167	1560.363	1195.146
140.570	14.278	1558.804	1194.641
141.585	14.222	1557.241	1192.931
142.600	14.270	1556.004	1192.222
143.614	14.283	1555.068	1191.493
144.629	14.316	1553.916	1190.746
145.643	14.405	1552.311	1190.044
146.658	14.390	1551.358	1189.103
147.673	14.418	1549.580	1187.831
148.687	14.327	1548.162	1185.989
149.702	14.191	1547.124	1184.122
150.716	14.186	1544.766	1182.180
151.731	14.146	1543.991	1181.200
152.746	14.274	1541.920	1180.416
153.760	14.241	1540.672	1179.123
154.775	14.274	1539.531	1178.378
155.789	14.277	1538.181	1177.266
156.804	14.373	1536.806	1176.784
157.819	14.329	1535.747	1175.560
158.833	14.401	1534.718	1175.177
159.848	14.427	1533.787	1174.544
160.862	14.451	1532.798	1173.850
161.877	14.594	1530.884	1173.288
162.892	14.449	1529.882	1171.395
163.906	14.352	1528.692	1169.696
164.921	14.278	1527.610	1168.246
165.935	14.275	1526.160	1167.017
166.950	14.262	1525.532	1166.340
167.964	14.347	1523.670	1165.411
168.979	14.371	1523.103	1165.038
169.994	14.405	1521.897	1164.251
171.008	14.442	1520.795	1163.566
172.023	14.315	1520.269	1162.175
173.037	14.358	1519.071	1161.453
174.052	14.520	1517.753	1161.474
175.067	14.459	1517.194	1160.518
176.081	14.547	1515.251	1159.541
177.096	14.419	1514.093	1157.664
178.110	14.369	1512.997	1156.371
179.125	14.331	1512.103	1155.327
180.140	14.458	1510.706	1155.034
181.154	14.425	1510.027	1154.183
182.169	14.454	1508.915	1153.435
183.183	14.517	1507.462	1152.653
184.198	14.565	1506.641	1152.260
185.213	14.661	1505.492	1151.939
186.227	14.671	1504.290	1150.990
187.242	14.632	1503.357	1149.901
188.256	14.750	1502.320	1149.820
189.271	14.686	1501.317	1148.513
190.286	14.713	1500.481	1147.954
191.300	14.666	1499.468	1146.754
192.315	14.588	1498.095	1145.069
193.329	14.374	1496.430	1142.230
194.344	14.414	1495.239	1141.494
195.359	14.415	1494.357	1140.727
196.373	14.536	1493.579	1140.855
197.388	14.485	1492.731	1139.760
198.402	14.609	1491.419	1139.505
199.417	14.697	1490.848	1139.565
200.432	14.853	1489.346	1139.384
201.446	14.910	1488.401	1138.943
202.461	14.950	1487.667	1138.557
203.475	14.999	1486.539	1137.923
204.490	15.033	1485.241	1137.060
205.504	14.946	1484.176	1135.558
206.519	14.907	1482.894	1134.208
207.534	14.871	1481.862	1133.078
208.548	14.890	1480.387	1131.974
209.563	14.846	1479.522	1130.918
210.577	14.857	1478.763	1130.311
211.592	14.809	1478.209	1129.462
212.607	14.810	1477.414	1128.766
213.621	14.959	1476.292	1128.812
214.636	15.009	1475.643	1128.553
215.650	15.143	1473.671	1127.846
216.665	15.023	1473.445	1126.768
217.680	15.048	1472.473	1126.088
218.694	15.041	1472.059	1125.628
219.709	15.211	1470.954	1125.826
220.723	15.103	1470.045	1124.308
221.738	15.167	1468.643	1123.565
222.753	15.170	1468.168	1123.118
223.767	15.132	1467.221	1122.041
224.782	15.216	1465.726	1121.359
225.796	15.212	1465.096	1120.753
226.811	15.275	1464.119	1120.326
227.826	15.163	1463.501	1119.005
228.840	15.148	1463.015	1118.437
229.855	15.148	1461.653	1117.294
230.869	15.170	1460.675	1116.594
231.884	15.201	1459.332	1115.678
232.899	15.218	1458.021	1114.691
233.913	15.201	1457.006	1113.700
234.928	15.067	1455.715	1111.726
235.942	15.075	1454.591	1110.826
236.957	15.066	1453.452	1109.795
237.972	15.109	1452.351	1109.139
238.986	15.183	1451.020	1108.515
240.001	15.241	1450.051	1108.059
241.015	15.099	1449.309	1106.458
242.030	15.284	1447.599	1106.273
243.045	15.209	1447.073	1105.284
244.059	15.220	1446.668	1104.946
245.074	15.285	1445.288	1104.220
246.088	15.295	1444.617	1103.679
247.103	15.330	1443.768	1103.162
248.117	15.311	1443.471	1102.714
249.132	15.377	1442.193	1102.070
250.147	15.437	1441.594	1101.909
251.161	15.584	1441.078	1102.381
252.176	15.671	1440.387	1102.325
253.190	15.703	1439.537	1101.787
254.205	15.781	1438.488	1101.398
255.220	15.777	1438.100	1100.983
256.234	15.832	1437.003	1100.402
257.249	15.828	1436.235	1099.693
258.263	15.759	1435.392	1098.495
259.278	15.841	1434.121	1097.959
260.293	15.847	1433.341	1097.309
261.307	15.801	1432.598	1096.338
262.322	15.867	1432.191	1096.365
263.336	15.876	1431.421	1095.737
264.351	15.835	1429.886	1094.196
265.366	15.954	1429.183	1094.336
266.380	16.011	1428.131	1093.800
267.395	15.974	1427.169	1092.731
268.409	15.982	1426.475	1092.152
269.424	15.985	1425.318	1091.193
270.439	15.911	1424.329	1089.854
271.453	15.837	1424.003	1089.035
272.468	15.894	1422.475	1088.135
273.482	15.869	1421.662	1087.258
274.497	15.980	1420.412	1086.918
275.512	15.943	1419.675	1086.020
276.526	15.874	1419.165	1085.089
277.541	15.900	1418.005	1084.273
278.555	15.904	1417.137	1083.542
279.570	15.926	1416.351	1082.983
280.585	16.030	1415.390	1082.824
281.599	16.086	1414.668	1082.538
282.614	16.088	1413.766	1081.763
283.628	16.160	1412.375	1081.059
284.643	16.014	1411.555	1079.405
285.657	16.049	1410.481	1078.714
286.672	16.078	1409.267	1077.874
287.687	16.051	1408.922	1077.343
288.701	16.101	1407.728	1076.655
289.716	16.144	1406.527	1075.915
290.730	16.121	1405.493	1074.878
291.745	16.106	1405.012	1074.322
292.760	16.150	1403.721	1073.522
293.774	16.110	1402.824	1072.484
294.789	16.171	1402.239	1072.331
295.803	16.238	1401.190	1071.860
296.818	16.345	1400.050	1071.571
297.833	16.193	1399.839	1070.350
298.847	16.080	1398.595	1068.588
299.862	16.217	1397.372	1068.425
300.876	16.167	1396.266	1067.166
301.891	16.251	1395.122	1066.734
302.906	16.265	1394.651	1066.366
303.920	16.370	1393.867	1066.331
304.935	16.419	1393.098	1065.964
305.949	16.402	1392.077	1064.975
306.964	16.516	1391.518	1065.177
307.979	16.505	1390.653	1064.351
308.993	16.460	1389.363	1062.986
310.008	16.525	1388.559	1062.685
311.022	16.523	1387.409	1061.695
312.037	16.592	1386.326	1061.210
313.052	16.522	1385.726	1060.216
314.066	16.516	1384.531	1059.167
315.081	16.507	1383.831	1058.483
316.095	16.433	1382.269	1056.732
317.110	16.375	1381.563	1055.736
318.125	16.394	1380.353	1054.839
319.139	16.391	1379.387	1053.990
320.154	16.436	1378.540	1053.527
321.168	16.376	1377.895	1052.569
322.183	16.435	1376.748	1051.967
323.197	16.412	1375.740	1050.961
324.212	16.498	1374.465	1050.426
325.227	16.494	1374.095	1050.025
326.241	16.504	1373.320	1049.403
327.256	16.485	1372.309	1048.419
328.270	16.532	1371.388	1047.913
329.285	16.593	1370.587	1047.586
330.300	16.497	1369.901	1046.375
331.314	16.461	1369.080	1045.432
332.329	16.564	1367.498	1044.771
333.343	16.695	1366.299	1044.570
334.358	16.523	1365.852	1043.076
335.373	16.612	1365.004	1042.881
336.387	16.680	1364.138	1042.547
337.402	16.690	1363.635	1042.133
338.416	16.727	1362.579	1041.464
339.431	16.746	1362.644	1041.534
340.446	16.706	1361.953	1040.671
341.460	16.833	1360.484	1040.233
342.475	16.913	1359.521	1039.897
343.489	16.985	1358.820	1039.710
344.504	17.001	1357.710	1038.867
345.519	16.966	1356.678	1037.771
346.533	17.104	1355.608	1037.705
347.548	16.919	1355.570	1036.452
348.562	17.047	1354.355	1036.215
349.577	17.132	1353.649	1036.099
350.592	16.990	1352.756	1034.461
351.606	16.921	1352.106	1033.450
352.621	16.892	1350.651	1032.071
353.635	16.897	1349.572	1031.187
354.650	16.822	1348.972	1030.178
355.665	16.966	1347.712	1030.002
356.679	16.968	1346.758	1029.192
357.694	16.948	1345.416	1027.954
358.708	16.972	1344.389	1027.224
359.723	17.088	1343.400	1027.076
360.738	17.048	1342.560	1026.102
361.752	17.081	1341.581	1025.462
362.767	17.175	1340.126	1024.828
363.781	16.965	1339.749	1023.185
364.796	17.193	1338.781	1023.729
365.810	17.138	1338.223	1022.879
366.825	17.207	1337.587	1022.720
367.840	17.263	1336.833	1022.388
368.854	17.223	1335.927	1021.364
369.869	17.419	1335.076	1021.802
370.883	17.385	1334.990	1021.442
371.898	17.350	1334.281	1020.596
372.913	17.302	1333.272	1019.448
373.927	17.353	1332.131	1018.789
374.942	17.387	1331.205	1018.195
375.956	17.373	1330.864	1017.761
376.971	17.364	1329.840	1016.832
377.986	17.403	1328.875	1016.236
379.000	17.378	1328.136	1015.435
380.015	17.555	1327.314	1015.774
381.029	17.513	1326.343	1014.689
382.044	17.535	1326.331	1014.719
383.059	17.604	1325.048	1014.057
384.073	17.621	1324.621	1013.747
385.088	17.614	1324.188	1013.283
386.102	17.569	1323.240	1012.198
387.117	17.583	1322.559	1011.671
388.132	17.593	1321.966	1011.191
389.146	17.533	1320.936	1009.957
390.161	17.571	1319.955	1009.338
391.175	17.501	1319.333	1008.362
392.190	17.484	1318.275	1007.361
393.205	17.679	1317.304	1007.687
394.219	17.757	1316.381	1007.349
395.234	17.739	1314.943	1006.052
396.248	17.625	1314.093	1004.641
397.263	17.627	1312.728	1003.521
398.278	17.587	1311.837	1002.517
399.292	17.645	1310.088	1001.433
400.307	17.602	1309.134	1000.363
401.321	17.543	1307.897	998.980
402.336	17.578	1307.254	998.606
403.350	17.610	1306.000	997.749
404.365	17.612	1305.306	997.140
405.380	17.637	1304.036	996.230
406.394	17.596	1303.517	995.507
407.409	17.694	1302.626	995.310
408.423	17.762	1301.882	995.049
409.438	17.773	1301.246	994.540
410.453	17.826	1300.734	994.367
411.467	17.958	1299.960	994.460
412.482	17.984	1299.462	994.143
413.496	17.984	1298.900	993.621
414.511	18.040	1297.991	993.164
415.526	18.064	1297.088	992.527
416.540	18.044	1296.956	992.223
417.555	18.130	1295.656	991.634
418.569	18.068	1295.547	991.107
419.584	18.020	1294.975	990.300
420.599	18.046	1294.464	989.973
421.613	135.068	1430.674	1783.155
422.628	130.553	1450.499	1783.292
