DTS Sentinel unit serial number:	SN413079Multiplexer serial number:	ORYXHardware model number:	OX4-SRSoftware version number:	ORYX F/W v4.00 Oryx Data Collector v3.7.2.0data status	okinstallation	princeton_trtdifferential loss correction	single-endedforward channel	channel 4reverse channel	N/Adate	2019/09/13time	18:41:35forward acquisition time	60.00reverse acquisition time	0.00gamma	496.2192k internal	0.2307k external	0.2307temperature offset calibration	1.0183default loss term (dB/km)	0.3790temperature slope calibration	1.0000multiplexer offset coefficient	1.0000multiplexer slope coefficient	1.0000fibre end	0.00T internal ref (°C)	32.81T ext. ref 1 (°C)	4.16T ext. ref 2 (°C)	25.96length (m)	temperature (°C)	Stokes	anti-Stokes-747.200	150.323	-0.112	0.155
-746.185	250.400	0.120	0.207
-745.171	519.665	0.036	0.086
-744.156	297.219	-0.168	0.314
-743.142	-200.000	0.048	-0.353
-742.127	-105.577	0.269	-0.062
-741.112	-23.929	0.214	-0.130
-740.098	306.568	0.020	-0.038
-739.083	-200.000	0.006	-0.198
-738.069	-54.094	-0.252	0.117
-737.054	-91.240	-0.042	-0.012
-736.039	790.539	0.094	-0.264
-735.025	129.055	0.148	0.192
-734.010	48.782	0.045	0.043
-732.996	353.404	-0.066	0.132
-731.981	1.859	-0.355	-0.260
-730.966	800.000	0.024	-0.099
-729.952	37.949	-0.086	-0.078
-728.937	137.752	0.023	0.030
-727.923	800.000	-0.043	0.141
-726.908	-14.948	0.146	0.095
-725.894	64.633	-0.317	-0.324
-724.879	-200.000	0.065	-0.372
-723.864	18.340	-0.248	-0.202
-722.850	-200.000	-0.012	0.282
-721.835	-94.090	0.127	-0.035
-720.821	-72.984	-0.098	0.037
-719.806	-8.079	0.034	0.023
-718.791	-13.923	-0.290	0.191
-717.777	800.000	0.018	-0.054
-716.762	151.033	-0.111	-0.153
-715.748	698.168	0.056	0.149
-714.733	134.122	-0.172	0.226
-713.718	800.000	-0.048	-0.154
-712.704	800.000	-0.059	-0.181
-711.689	13.045	-0.117	-0.092
-710.675	165.973	-0.076	-0.109
-709.660	800.000	0.099	0.327
-708.645	-107.465	-0.447	-0.100
-707.631	-31.842	0.203	-0.116
-706.616	-144.297	0.211	-0.020
-705.602	174.174	-0.121	-0.177
-704.587	-200.000	0.076	-0.345
-703.572	-60.995	0.259	-0.111
-702.558	185.949	0.137	0.207
-701.543	33.348	-0.223	0.197
-700.529	-126.775	-0.160	0.024
-699.514	-24.958	-0.143	0.086
-698.499	-200.000	-0.079	-0.494
-697.485	525.360	-0.033	-0.079
-696.470	-156.972	-0.270	0.017
-695.456	-115.362	0.237	-0.045
-694.441	311.906	-0.162	-0.309
-693.426	-95.632	-0.258	-0.070
-692.412	-171.154	0.203	-0.007
-691.397	491.173	0.193	-0.449
-690.383	-5.500	-0.044	-0.030
-689.368	-53.382	-0.240	-0.112
-688.354	800.000	-0.110	0.402
-687.339	-200.000	-0.055	0.252
-686.324	800.000	-0.067	-0.195
-685.310	-135.367	0.283	-0.034
-684.295	280.875	-0.054	0.098
-683.281	-132.892	0.234	0.030
-682.266	-162.520	-0.417	-0.021
-681.251	198.774	0.104	0.162
-680.237	-81.638	-0.433	0.144
-679.222	-45.768	0.257	0.129
-678.208	39.188	-0.170	-0.155
-677.193	657.452	0.134	-0.349
-676.178	800.000	-0.075	-0.328
-675.164	-200.000	-0.039	0.322
-674.149	-200.000	-0.026	-0.285
-673.135	-72.543	0.203	0.076
-672.120	-38.437	-0.339	0.182
-671.105	-200.000	-0.001	0.012
-670.091	96.346	0.148	-0.172
-669.076	800.000	0.054	-0.168
-668.062	800.000	-0.011	-0.035
-667.047	304.718	-0.029	0.054
-666.032	-1.382	-0.048	0.035
-665.018	-200.000	0.029	0.194
-664.003	89.357	-0.254	0.287
-662.989	31.985	-0.177	-0.155
-661.974	138.521	-0.077	-0.103
-660.959	-159.922	-0.119	0.007
-659.945	-169.492	0.337	0.012
-658.930	-53.691	-0.206	0.095
-657.916	800.000	-0.113	-0.362
-656.901	161.186	-0.032	-0.045
-655.886	-200.000	0.012	-0.172
-654.872	570.526	-0.115	-0.283
-653.857	323.869	-0.104	0.201
-652.843	-103.092	0.244	0.059
-651.828	-200.000	0.023	-0.145
-650.814	-181.177	0.130	0.003
-649.799	-200.000	0.000	-0.045
-648.784	477.373	0.083	0.191
-647.770	162.414	0.178	-0.253
-646.755	257.658	-0.095	0.166
-645.741	800.000	0.075	0.247
-644.726	-75.501	0.099	0.036
-643.711	-85.492	-0.303	0.095
-642.697	135.470	0.026	0.034
-641.682	60.052	-0.097	-0.097
-640.668	264.691	-0.070	-0.124
-639.653	286.231	-0.093	-0.171
-638.638	-168.323	-0.360	0.014
-637.624	-56.178	-0.179	0.081
-636.609	-164.775	0.307	-0.014
-635.595	235.187	-0.129	0.216
-634.580	133.063	0.096	-0.126
-633.565	-200.000	0.052	0.350
-632.551	800.000	-0.038	0.154
-631.536	139.545	-0.077	0.103
-630.522	-200.000	0.037	0.382
-629.507	81.991	0.199	0.218
-628.492	-90.457	-0.294	0.086
-627.478	102.113	-0.123	0.145
-626.463	-134.956	0.092	-0.011
-625.449	8.187	-0.206	0.157
-624.434	-162.433	-0.299	-0.015
-623.419	-200.000	-0.147	-0.001
-622.405	-181.266	0.338	0.007
-621.390	-123.812	0.356	-0.057
-620.376	-151.160	0.379	-0.029
-619.361	724.069	-0.168	-0.452
-618.346	-32.744	0.136	-0.077
-617.332	-129.984	0.180	-0.025
-616.317	800.000	0.057	-0.196
-615.303	-127.919	-0.069	0.010
-614.288	197.959	-0.100	0.155
-613.273	435.314	-0.071	0.156
-612.259	-35.624	-0.410	-0.225
-611.244	-101.231	0.114	-0.028
-610.230	133.950	-0.194	0.254
-609.215	364.124	-0.110	0.224
-608.201	-91.121	0.440	0.128
-607.186	131.450	-0.106	-0.138
-606.171	480.953	-0.082	0.189
-605.157	459.490	0.124	0.279
-604.142	-200.000	-0.059	-0.321
-603.128	141.388	0.201	-0.269
-602.113	204.568	-0.188	-0.294
-601.098	-102.134	-0.270	-0.066
-600.084	-150.180	-0.310	0.024
-599.069	70.733	0.077	0.081
-598.055	39.109	0.162	-0.146
-597.040	-164.837	0.225	-0.010
-596.025	-126.715	0.373	0.056
-595.011	-200.000	-0.070	-0.343
-593.996	-102.745	0.262	-0.063
-592.982	-109.446	0.228	0.049
-591.967	88.728	-0.188	0.211
-590.952	716.991	0.055	-0.148
-589.938	-157.966	0.196	0.012
-588.923	-200.000	0.017	-0.588
-587.909	340.855	-0.137	-0.271
-586.894	48.191	-0.069	-0.065
-585.879	-32.138	0.070	-0.040
-584.865	-71.684	0.155	0.058
-583.850	-49.569	-0.146	0.070
-582.836	-110.606	0.100	0.021
-581.821	-118.073	0.285	-0.051
-580.806	-117.205	-0.319	-0.059
-579.792	-200.000	0.008	0.075
-578.777	-92.240	-0.372	0.106
-577.763	-200.000	0.030	0.195
-576.748	800.000	0.024	-0.103
-575.733	15.460	-0.305	-0.242
-574.719	-200.000	0.047	-0.299
-573.704	-96.610	-0.137	-0.036
-572.690	800.000	0.057	0.202
-571.675	44.728	-0.158	0.147
-570.661	-200.000	-0.009	0.051
-569.646	-200.000	-0.069	0.351
-568.631	-8.218	0.279	0.190
-567.617	-129.032	-0.371	0.052
-566.602	-200.000	0.047	-0.222
-565.588	415.744	-0.058	0.126
-564.573	307.985	0.222	0.418
-563.558	-39.488	-0.138	-0.073
-562.544	-200.000	0.059	-0.358
-561.529	-200.000	-0.034	-0.164
-560.515	-64.218	-0.232	-0.095
-559.500	-31.348	0.023	0.013
-558.485	-118.238	0.087	0.016
-557.471	800.000	0.070	0.242
-556.456	800.000	0.016	0.072
-555.442	-115.734	0.282	0.053
-554.427	112.525	-0.235	0.287
-553.412	-34.485	0.171	0.095
-552.398	265.001	0.077	-0.135
-551.383	58.190	-0.095	-0.094
-550.369	-200.000	0.036	-0.181
-549.354	9.743	-0.062	-0.047
-548.339	-28.352	0.035	0.021
-547.325	800.000	0.068	0.241
-546.310	-41.196	0.264	0.137
-545.296	95.969	-0.144	-0.166
-544.281	-75.541	-0.047	0.017
-543.266	603.316	-0.121	0.303
-542.252	354.323	0.066	-0.133
-541.237	-70.324	0.206	-0.079
-540.223	-122.551	-0.225	0.037
-539.208	-73.912	0.132	-0.048
-538.193	-7.823	0.237	0.162
-537.179	-200.000	-0.042	-0.209
-536.164	82.304	-0.224	-0.245
-535.150	-80.056	0.051	-0.017
-534.135	-22.265	0.321	0.196
-533.121	209.351	-0.124	-0.195
-532.106	235.000	0.080	-0.134
-531.091	111.461	-0.190	-0.231
-530.077	-126.886	-0.192	-0.029
-529.062	-97.831	-0.418	0.109
-528.048	800.000	-0.060	-0.262
-527.033	-200.000	0.007	0.167
-526.018	800.000	-0.040	-0.169
-525.004	61.812	0.098	0.099
-523.989	295.965	0.109	-0.201
-522.975	-200.000	-0.069	-0.333
-521.960	39.992	0.083	-0.075
-520.945	532.815	-0.136	0.324
-519.931	-117.525	-0.433	-0.079
-518.916	433.546	-0.052	0.114
-517.902	800.000	-0.043	-0.135
-516.887	17.542	0.126	-0.101
-515.872	-78.009	0.229	-0.079
-514.858	-126.900	0.364	0.054
-513.843	-200.000	0.005	0.243
-512.829	112.196	-0.149	-0.181
-511.814	-154.197	-0.202	-0.014
-510.799	408.525	-0.125	-0.267
-509.785	21.912	-0.181	-0.149
-508.770	-66.843	0.139	0.055
-507.756	335.878	-0.179	-0.350
-506.741	800.000	-0.049	0.214
-505.726	-31.397	-0.130	0.074
-504.712	7.977	0.371	-0.280
-503.697	-200.000	-0.027	-0.294
-502.683	-84.242	0.073	-0.023
-501.668	-200.000	0.008	-0.101
-500.653	210.564	0.069	0.109
-499.639	185.630	-0.177	0.265
-498.624	88.370	0.137	-0.153
-497.610	79.863	0.126	-0.137
-496.595	414.170	0.048	0.104
-495.581	122.440	-0.165	-0.208
-494.566	342.337	-0.126	-0.249
-493.551	-61.557	-0.208	0.088
-492.537	-200.000	0.036	0.242
-491.522	239.640	-0.028	0.046
-490.508	-6.522	-0.204	-0.140
-489.493	-55.375	0.080	-0.036
-488.478	104.855	-0.298	0.354
-487.464	166.362	-0.177	0.252
-486.449	800.000	-0.059	-0.212
-485.435	601.855	0.039	0.099
-484.420	-52.589	0.075	0.035
-483.405	-200.000	0.002	0.037
-482.391	61.285	0.221	-0.221
-481.376	151.096	0.120	0.165
-480.362	291.802	-0.181	-0.333
-479.347	169.078	0.064	0.092
-478.332	-188.556	0.269	0.003
-477.318	24.721	-0.175	0.146
-476.303	558.495	-0.175	0.426
-475.289	-200.000	0.012	-0.166
-474.274	55.083	-0.056	0.055
-473.259	-47.257	-0.260	-0.127
-472.245	620.819	0.070	0.177
-471.230	-200.000	-0.038	0.232
-470.216	214.199	0.186	0.297
-469.201	-200.000	0.003	0.051
-468.186	800.000	0.056	-0.245
-467.172	-61.963	0.191	-0.080
-466.157	800.000	0.082	0.341
-465.143	-111.488	-0.329	0.067
-464.128	226.715	-0.064	-0.104
-463.113	-101.563	0.352	-0.086
-462.099	111.324	0.070	0.085
-461.084	-65.914	0.261	0.105
-460.070	-129.623	-0.285	0.040
-459.055	-171.717	0.117	0.004
-458.040	-101.459	-0.155	0.038
-457.026	238.702	-0.153	0.256
-456.011	213.159	0.139	-0.222
-454.997	-163.165	0.193	0.009
-453.982	800.000	-0.090	-0.291
-452.968	-200.000	0.036	0.248
-451.953	12.838	0.091	-0.071
-450.938	-38.342	-0.063	-0.034
-449.924	-64.223	-0.214	-0.088
-448.909	-156.013	-0.244	-0.016
-447.895	-79.891	0.378	0.128
-446.880	619.636	-0.133	-0.337
-445.865	113.253	-0.099	-0.121
-444.851	-200.000	0.010	-0.091
-443.836	118.760	0.178	0.222
-442.822	-56.255	-0.239	0.107
-441.807	137.582	0.113	-0.149
-440.792	115.069	-0.150	-0.183
-439.778	93.395	-0.227	0.258
-438.763	232.333	0.206	0.339
-437.749	-200.000	0.024	0.171
-436.734	84.059	-0.019	-0.021
-435.719	-17.905	0.128	-0.081
-434.705	-84.576	-0.159	0.050
-433.690	-88.913	-0.209	-0.062
-432.676	216.169	-0.111	0.177
-431.661	229.252	0.025	0.042
-430.646	-197.905	0.200	0.001
-429.632	-50.825	0.092	0.044
-428.617	-180.731	0.324	-0.007
-427.603	-71.240	-0.028	-0.011
-426.588	537.398	-0.152	-0.362
-425.573	-200.000	0.031	-0.241
-424.559	-26.278	0.253	-0.149
-423.544	499.935	-0.053	0.122
-422.530	67.278	0.182	-0.187
-421.515	-200.000	0.038	-0.171
-420.500	800.000	-0.102	0.325
-419.486	-14.905	-0.066	0.043
-418.471	-98.534	0.049	0.012
-417.457	-200.000	-0.028	-0.379
-416.442	-200.000	-0.020	-0.271
-415.428	-140.092	0.309	-0.033
-414.413	530.605	0.131	0.311
-413.398	800.000	-0.032	0.116
-412.384	-110.680	0.274	0.057
-411.369	17.075	0.145	0.116
-410.355	206.236	-0.100	0.156
-409.340	-47.764	0.244	-0.118
-408.325	-115.262	0.269	-0.051
-407.311	140.708	-0.085	0.113
-406.296	193.892	0.141	0.214
-405.282	359.542	-0.060	-0.120
-404.267	-132.091	0.215	0.028
-403.252	-200.000	-0.014	-0.269
-402.238	-200.000	-0.036	0.260
-401.223	-82.394	-0.262	0.085
-400.209	-111.979	-0.224	0.045
-399.194	68.816	0.309	0.318
-398.179	651.344	0.057	-0.148
-397.165	324.295	0.078	-0.150
-396.150	67.928	-0.187	0.191
-395.136	-200.000	-0.017	0.098
-394.121	-139.807	0.167	-0.018
-393.106	66.837	-0.237	-0.243
-392.092	-200.000	-0.017	-0.143
-391.077	77.688	-0.067	-0.072
-390.063	409.870	0.125	0.265
-389.048	95.762	-0.119	-0.136
-388.033	-114.216	-0.060	-0.012
-387.019	74.805	0.207	0.219
-386.004	-141.138	-0.101	-0.010
-384.990	-41.221	0.253	-0.131
-383.975	-17.890	-0.269	-0.169
-382.960	181.071	-0.079	-0.116
-381.946	425.132	0.056	0.122
-380.931	532.710	0.047	-0.112
-379.917	-62.114	-0.237	0.099
-378.902	-200.000	0.021	-0.212
-377.888	-200.000	-0.028	-0.126
-376.873	75.582	0.221	-0.234
-375.858	32.507	0.238	0.206
-374.844	-100.271	-0.087	0.022
-373.829	21.083	-0.169	0.138
-372.815	-190.583	0.197	-0.002
-371.800	-200.000	-0.006	0.165
-370.785	-193.918	0.225	0.002
-369.771	-97.685	0.140	0.036
-368.756	-109.016	0.293	0.063
-367.742	-3.357	0.107	-0.075
-366.727	-96.397	-0.165	-0.044
-365.712	800.000	-0.032	-0.137
-364.698	-200.000	-0.053	0.319
-363.683	800.000	-0.106	0.335
-362.669	-40.683	-0.085	0.044
-361.654	-5.944	-0.313	0.215
-360.639	46.483	-0.190	0.177
-359.625	97.369	-0.087	-0.101
-358.610	-181.987	0.247	0.005
-357.596	-200.000	-0.063	0.485
-356.581	149.348	-0.169	-0.229
-355.566	-67.058	0.254	0.100
-354.552	-124.722	0.157	-0.024
-353.537	101.601	0.039	-0.045
-352.523	800.000	0.022	-0.067
-351.508	273.680	0.029	0.052
-350.493	-27.822	0.203	0.118
-349.479	-200.000	-0.000	-0.101
-348.464	-183.025	-0.064	0.001
-347.450	800.000	-0.090	0.313
-346.435	789.940	0.096	0.265
-345.420	-118.239	-0.310	0.055
-344.406	-23.491	0.157	-0.095
-343.391	5.254	-0.121	0.089
-342.377	216.752	-0.091	0.146
-341.362	-139.702	0.315	0.034
-340.348	25.419	-0.074	0.061
-339.333	-13.766	-0.255	-0.165
-338.318	-65.654	0.222	0.089
-337.304	116.376	0.147	0.181
-336.289	-10.398	-0.273	0.181
-335.275	-200.000	0.037	0.168
-334.260	-19.168	-0.149	0.093
-333.245	304.990	0.138	0.257
-332.231	93.600	0.151	0.171
-331.216	-92.475	0.195	-0.055
-330.202	-200.000	-0.057	-0.383
-329.187	176.510	0.177	-0.257
-328.172	-200.000	-0.007	0.110
-327.158	560.283	0.051	-0.122
-326.143	-124.947	-0.316	0.049
-325.129	14.723	0.131	-0.102
-324.114	-200.000	-0.009	-0.055
-323.099	-68.150	-0.190	-0.074
-322.085	628.108	-0.085	0.214
-321.070	49.646	0.128	0.120
-320.056	-200.000	0.002	-0.139
-319.041	-131.528	0.185	0.024
-318.026	225.406	0.087	-0.140
-317.012	-38.329	0.181	0.096
-315.997	-25.478	-0.053	0.031
-314.983	800.000	0.057	0.247
-313.968	-159.422	-0.046	-0.003
-312.953	800.000	-0.066	-0.183
-311.939	800.000	0.049	-0.153
-310.924	-52.404	0.283	-0.131
-309.910	216.179	0.030	-0.048
-308.895	800.000	0.071	-0.214
-307.880	-6.506	-0.177	-0.121
-306.866	-138.476	-0.180	-0.020
-305.851	-49.633	0.010	0.005
-304.837	73.199	0.105	0.110
-303.822	-200.000	0.075	-0.360
-302.807	19.028	0.060	-0.048
-301.793	-128.965	-0.308	0.043
-300.778	188.857	0.112	-0.168
-299.764	124.810	0.179	0.225
-298.749	-200.000	-0.006	-0.045
-297.735	-100.356	-0.068	-0.017
-296.720	94.727	0.352	0.400
-295.705	-66.790	-0.141	-0.056
-294.691	-114.923	0.314	0.060
-293.676	-129.117	0.219	0.031
-292.662	800.000	0.138	0.412
-291.647	273.296	-0.159	0.281
-290.632	73.761	-0.109	-0.114
-289.618	-150.104	0.425	0.033
-288.603	259.297	-0.131	-0.226
-287.589	-75.282	0.263	0.094
-286.574	110.173	-0.097	-0.116
-285.559	-98.187	-0.089	-0.023
-284.545	-200.000	-0.002	-0.058
-283.530	155.052	-0.185	0.255
-282.516	-200.000	-0.010	-0.234
-281.501	-200.000	0.014	-0.315
-280.486	-45.400	0.167	0.083
-279.472	-84.168	-0.054	-0.017
-278.457	-200.000	-0.046	-0.219
-277.443	-10.036	-0.241	0.160
-276.428	-200.000	-0.015	-0.193
-275.413	800.000	-0.058	-0.187
-274.399	-34.900	0.094	0.051
-273.384	-200.000	-0.010	-0.199
-272.370	-200.000	0.030	-0.418
-271.355	-87.894	0.346	-0.104
-270.340	-200.000	-0.023	-0.107
-269.326	-200.000	-0.049	-0.277
-268.311	591.859	0.113	0.279
-267.297	-140.193	-0.518	0.054
-266.282	-116.990	-0.169	-0.031
-265.267	8.330	0.172	0.129
-264.253	800.000	-0.039	-0.136
-263.238	-128.162	0.226	-0.032
-262.224	479.298	0.120	0.271
-261.209	271.707	0.096	0.169
-260.195	-75.629	-0.085	-0.030
-259.180	-71.277	-0.184	0.069
-258.165	800.000	-0.080	-0.281
-257.151	-168.411	0.264	-0.010
-256.136	-200.000	0.054	-0.335
-255.122	800.000	-0.024	-0.093
-254.107	141.716	0.146	-0.192
-253.092	321.188	-0.121	-0.229
-252.078	-200.000	-0.001	0.047
-251.063	-200.000	0.004	-0.050
-250.049	7.312	0.142	-0.106
-249.034	194.099	-0.097	0.147
-248.019	-200.000	0.064	-0.436
-247.005	108.967	0.276	-0.329
-245.990	-117.878	-0.276	0.049
-244.976	-35.335	0.129	0.070
-243.961	-200.000	-0.013	0.378
-242.946	-64.325	0.209	-0.085
-241.932	565.526	-0.195	-0.471
-240.917	800.000	-0.071	0.212
-239.903	-200.000	-0.005	0.084
-238.888	18.795	-0.152	-0.121
-237.873	-200.000	-0.004	0.037
-236.859	-200.000	0.037	-0.169
-235.844	110.982	-0.028	-0.033
-234.830	-99.530	-0.144	0.036
-233.815	530.006	-0.074	-0.175
-232.800	93.992	0.146	0.165
-231.786	-44.506	-0.126	-0.063
-230.771	-200.000	0.068	0.298
-229.757	-16.209	0.161	0.102
-228.742	800.000	-0.047	-0.176
-227.727	-142.156	-0.228	-0.023
-226.713	-113.595	0.444	0.087
-225.698	-171.188	-0.070	-0.002
-224.684	-200.000	0.010	0.153
-223.669	-200.000	-0.002	0.267
-222.655	172.901	-0.148	0.213
-221.640	800.000	0.019	0.063
-220.625	800.000	-0.011	0.041
-219.611	174.630	-0.116	-0.167
-218.596	1.206	-0.300	0.214
-217.582	-151.330	-0.447	-0.033
-216.567	-126.089	0.227	0.034
-215.552	212.952	-0.163	-0.257
-214.538	-200.000	-0.011	-0.152
-213.523	-200.000	-0.029	0.248
-212.509	132.972	0.086	-0.111
-211.494	-76.783	0.025	-0.009
-210.479	777.601	0.039	0.107
-209.465	-21.923	-0.120	0.073
-208.450	70.534	0.101	-0.104
-207.436	800.000	-0.052	-0.151
-206.421	-145.147	-0.181	0.016
-205.406	255.267	0.139	-0.236
-204.392	-48.514	-0.362	0.173
-203.377	-84.009	0.295	-0.093
-202.363	-140.072	-0.329	0.034
-201.348	-200.000	0.061	-0.335
-200.333	-87.758	-0.034	0.010
-199.319	-133.711	0.353	0.044
-198.304	-200.000	0.033	0.196
-197.290	136.275	0.161	-0.209
-196.275	-113.847	-0.299	0.058
-195.260	98.096	-0.238	0.272
-194.246	69.043	-0.220	-0.225
-193.231	-16.216	-0.314	0.199
-192.217	-67.771	0.150	0.059
-191.202	800.000	0.097	0.289
-190.187	125.971	0.129	-0.162
-189.173	11.605	-0.291	-0.222
-188.158	-8.985	-0.059	0.040
-187.144	-104.602	-0.353	-0.081
-186.129	-136.148	-0.150	-0.018
-185.114	-200.000	0.033	-0.171
-184.100	5.514	0.183	0.135
-183.085	28.619	-0.070	-0.059
-182.071	-86.189	0.061	-0.019
-181.056	285.670	-0.043	-0.078
-180.042	-174.823	0.305	0.009
-179.027	800.000	-0.036	0.147
-178.012	-193.956	-0.066	0.001
-176.998	175.985	0.108	-0.156
-175.983	-92.746	0.214	-0.060
-174.969	-200.000	-0.015	-0.116
-173.954	4.116	-0.095	0.069
-172.939	-66.901	-0.062	0.024
-171.925	134.651	0.086	-0.111
-170.910	136.449	0.168	0.218
-169.896	-148.046	0.285	0.024
-168.881	231.932	-0.179	0.293
-167.866	54.482	-0.258	-0.247
-166.852	-139.551	-0.363	-0.039
-165.837	-97.112	-0.266	0.069
-164.823	128.742	0.028	0.036
-163.808	-200.000	-0.013	0.085
-162.793	41.013	-0.086	0.077
-161.779	-40.915	0.156	-0.080
-160.764	26.885	0.246	0.205
-159.750	-174.495	0.189	-0.005
-158.735	-61.149	0.243	0.102
-157.720	-200.000	-0.018	0.263
-156.706	-13.697	0.353	0.227
-155.691	-127.239	-0.437	0.063
-154.677	782.808	0.100	0.272
-153.662	-33.057	-0.307	-0.169
-152.647	18.324	0.110	-0.087
-151.633	-200.000	-0.004	-0.290
-150.618	-110.365	-0.124	0.026
-149.604	-200.000	-0.047	0.348
-148.589	27.234	-0.147	0.123
-147.574	556.203	0.063	0.151
-146.560	-200.000	0.015	0.273
-145.545	580.247	0.073	0.179
-144.531	-110.690	0.072	0.015
-143.516	-130.797	-0.444	-0.059
-142.502	94.871	0.277	0.313
-141.487	72.385	-0.211	-0.218
-140.472	156.186	0.184	-0.252
-139.458	47.320	-0.267	-0.247
-138.443	-95.636	0.104	0.028
-137.429	34.287	0.101	0.088
-136.414	238.241	0.129	0.212
-135.399	60.469	-0.385	0.379
-134.385	728.105	0.182	0.482
-133.370	40.340	0.218	0.194
-132.356	71.164	-0.105	0.108
-131.341	800.000	-0.083	-0.237
-130.326	-200.000	0.006	-0.144
-129.312	-111.814	0.249	-0.050
-128.297	72.812	0.151	0.157
-127.283	-7.449	-0.142	-0.096
-126.268	-20.112	0.359	0.220
-125.253	800.000	0.088	-0.278
-124.239	-85.208	-0.147	-0.046
-123.224	-200.000	0.035	-0.362
-122.210	-200.000	0.065	-0.289
-121.195	91.123	0.163	0.181
-120.180	-85.939	0.202	-0.062
-119.166	-200.000	0.016	0.102
-118.151	3.029	0.194	-0.140
-117.137	554.956	0.056	-0.134
-116.122	-97.663	0.168	-0.043
-115.107	508.348	-0.089	0.205
-114.093	390.055	-0.092	0.190
-113.078	-99.213	-0.196	-0.049
-112.064	90.847	-0.112	0.125
-111.049	800.000	-0.072	-0.253
-110.034	15.879	0.324	-0.253
-109.020	20.179	0.205	0.164
-108.005	94.490	0.039	0.044
-106.991	-46.385	0.316	-0.154
-105.976	28.250	-0.147	-0.123
-104.962	800.000	0.163	0.489
-103.947	45.013	0.200	0.183
-102.932	590.038	-0.036	0.089
-101.918	250.474	0.053	0.089
-100.903	161.520	-0.114	-0.158
-99.889	-82.717	-0.230	0.074
-98.874	306.955	-0.100	0.184
-97.859	169.969	-0.249	0.353
-96.845	367.957	0.028	-0.056
-95.830	449.455	-0.199	0.434
-94.816	79.728	0.176	0.187
-93.801	-200.000	-0.007	0.086
-92.786	-139.576	0.162	-0.017
-91.772	-161.446	-0.127	-0.007
-90.757	-68.223	-0.294	-0.113
-89.743	-15.061	-0.341	-0.217
-88.728	800.000	-0.118	0.348
-87.713	34.191	-0.176	0.152
-86.699	-36.398	-0.236	-0.126
-85.684	181.908	-0.167	0.244
-84.670	-134.557	0.057	0.007
-83.655	75.256	-0.088	0.092
-82.640	-200.000	0.049	-0.310
-81.626	800.000	-0.037	0.106
-80.611	-48.610	0.349	-0.166
-79.597	-55.523	-0.400	0.178
-78.582	-27.563	-0.012	-0.007
-77.567	739.730	-0.057	-0.153
-76.553	84.702	-0.210	0.228
-75.538	235.534	0.154	-0.252
-74.524	-2.037	-0.155	-0.108
-73.509	-67.878	0.126	0.049
-72.494	-87.742	-0.164	-0.049
-71.480	-200.000	-0.020	-0.264
-70.465	218.409	-0.212	0.336
-69.451	-50.253	-0.154	-0.072
-68.436	300.226	-0.073	0.134
-67.422	-158.019	0.249	-0.015
-66.407	800.000	0.073	-0.203
-65.392	10.214	-0.081	-0.061
-64.378	366.951	-0.008	-0.016
-63.363	-105.218	0.223	-0.050
-62.349	174.320	0.110	-0.158
-61.334	346.999	-0.539	-1.050
-60.319	-200.000	-0.058	0.427
-59.305	800.000	-0.246	-1.042
-58.290	264.473	0.922	1.589
-57.276	301.625	0.767	1.403
-56.261	-200.000	95.637	593.997
-55.246	659.336	1365.967	3480.195
-54.232	196.757	2545.733	3841.089
-53.217	110.343	2296.662	2731.373
-52.203	39.562	2062.170	1829.764
-51.188	34.556	1978.248	1710.499
-50.173	33.074	1960.120	1681.579
-49.159	47.796	2009.506	1856.898
-48.144	49.162	2027.217	1885.509
-47.130	35.219	1989.514	1725.943
-46.115	32.936	1978.423	1695.774
-45.100	32.660	1977.020	1692.024
-44.086	32.681	1974.523	1690.013
-43.071	32.704	1971.447	1687.513
-42.057	32.605	1969.325	1684.750
-41.042	32.680	1967.047	1683.405
-40.027	32.671	1964.807	1681.336
-39.013	32.664	1963.565	1680.147
-37.998	32.744	1961.410	1678.946
-36.984	32.686	1959.649	1676.854
-35.969	32.751	1957.524	1675.553
-34.954	32.838	1955.734	1674.725
-33.940	32.783	1954.710	1673.296
-32.925	32.786	1953.704	1672.387
-31.911	32.794	1951.868	1670.824
-30.896	32.844	1949.356	1669.047
-29.881	32.865	1948.416	1668.368
-28.867	32.925	1946.058	1666.810
-27.852	32.819	1944.820	1664.749
-26.838	32.862	1942.596	1663.154
-25.823	32.879	1940.583	1661.518
-24.809	32.788	1939.683	1659.882
-23.794	32.821	1937.656	1658.371
-22.779	32.870	1935.459	1656.853
-21.765	32.805	1934.251	1655.181
-20.750	32.826	1932.614	1653.897
-19.736	32.788	1931.250	1652.338
-18.721	32.917	1929.142	1651.597
-17.706	32.870	1927.759	1649.931
-16.692	32.842	1926.150	1648.245
-15.677	32.863	1924.203	1646.703
-14.663	32.860	1923.215	1645.761
-13.648	32.908	1921.296	1644.474
-12.633	32.794	1920.745	1642.938
-11.619	32.838	1919.409	1642.117
-10.604	32.771	1918.381	1640.588
-9.590	32.815	1916.249	1639.080
-8.575	32.794	1915.267	1638.000
-7.560	32.864	1913.690	1637.193
-6.546	32.842	1912.835	1636.199
-5.531	32.743	1911.811	1634.406
-4.517	32.807	1910.287	1633.592
-3.502	32.887	1908.883	1633.019
-2.487	32.767	1908.250	1631.372
-1.473	32.868	1906.830	1630.964
-0.458	32.890	1902.166	1627.104
0.556	34.245	1881.246	1594.082
1.571	28.970	1859.377	1531.633
2.586	24.149	1878.609	1506.666
3.600	22.671	1913.184	1521.519
4.615	21.786	1906.946	1508.808
5.629	16.569	1807.403	1387.255
6.644	8.317	1691.919	1234.903
7.659	4.408	1656.558	1179.339
8.673	4.116	1652.794	1174.342
9.688	4.157	1651.683	1173.764
10.702	4.151	1650.537	1172.800
11.717	4.216	1647.706	1171.172
12.731	4.636	1646.841	1173.627
13.746	9.886	1659.192	1222.158
14.761	18.029	1676.120	1296.554
15.775	21.732	1682.662	1329.648
16.790	21.622	1681.232	1327.568
17.804	20.614	1678.144	1317.383
18.819	19.661	1674.634	1307.300
19.834	19.056	1672.727	1301.120
20.848	18.833	1670.910	1297.908
21.863	18.741	1669.597	1296.080
22.877	18.550	1668.388	1293.584
23.892	18.361	1667.089	1291.040
24.907	18.328	1665.750	1289.642
25.921	18.351	1664.422	1288.669
26.936	18.242	1664.036	1287.438
27.950	18.350	1662.633	1287.048
28.965	18.365	1662.575	1287.006
29.980	18.391	1661.639	1286.364
30.994	18.502	1660.566	1286.252
32.009	18.650	1659.441	1286.375
33.023	18.602	1658.654	1285.288
34.038	18.649	1657.608	1284.717
35.053	18.639	1656.312	1283.522
36.067	18.574	1654.809	1281.758
37.082	18.422	1654.243	1280.077
38.096	18.482	1653.244	1279.638
39.111	18.536	1652.375	1279.251
40.126	18.593	1651.870	1279.175
41.140	18.595	1650.410	1277.945
42.155	18.412	1648.816	1275.237
43.169	18.239	1647.580	1272.882
44.184	18.025	1646.361	1270.237
45.199	18.028	1645.096	1269.167
46.213	18.036	1644.164	1268.395
47.228	18.087	1642.735	1267.558
48.242	18.245	1641.698	1267.822
49.257	18.430	1640.642	1268.259
50.271	18.388	1639.582	1267.020
51.286	18.421	1638.125	1266.025
52.301	18.376	1637.229	1264.889
53.315	18.415	1635.936	1264.061
54.330	18.404	1633.923	1262.318
55.344	18.293	1632.451	1260.250
56.359	18.178	1631.213	1258.338
57.374	18.168	1630.102	1257.295
58.388	18.190	1629.167	1256.627
59.403	18.146	1627.552	1254.943
60.417	18.028	1626.376	1253.058
61.432	18.045	1625.450	1252.364
62.447	18.021	1624.192	1251.103
63.461	17.950	1623.196	1249.712
64.476	17.868	1621.866	1247.971
65.490	17.858	1621.279	1247.337
66.505	17.864	1619.770	1246.111
67.520	17.895	1618.527	1245.274
68.534	17.883	1618.037	1244.697
69.549	18.053	1616.118	1244.346
70.563	17.967	1615.452	1243.102
71.578	17.986	1613.652	1241.739
72.593	17.881	1612.833	1240.239
73.607	17.766	1611.891	1238.570
74.622	17.692	1610.810	1237.090
75.636	17.664	1610.251	1236.350
76.651	17.698	1609.472	1235.892
77.666	17.722	1608.994	1235.586
78.680	17.778	1608.062	1235.171
79.695	17.849	1606.877	1234.665
80.709	17.907	1605.822	1234.163
81.724	17.980	1605.157	1234.068
82.739	18.016	1604.535	1233.745
83.753	18.185	1603.364	1233.950
84.768	18.337	1603.061	1234.707
85.782	18.374	1602.455	1234.396
86.797	18.538	1601.394	1234.647
87.812	18.442	1600.818	1233.407
88.826	18.466	1599.574	1232.510
89.841	18.317	1598.765	1230.710
90.855	18.456	1597.132	1230.339
91.870	18.478	1596.603	1229.985
92.884	18.552	1595.670	1229.683
93.899	18.549	1594.336	1228.529
94.914	18.568	1593.043	1227.558
95.928	18.653	1592.115	1227.341
96.943	18.715	1590.653	1226.549
97.957	18.681	1589.210	1225.085
98.972	18.497	1587.803	1222.582
99.987	18.436	1586.813	1221.273
101.001	18.437	1585.105	1219.856
102.016	18.430	1583.573	1218.522
103.030	18.451	1582.202	1217.510
104.045	18.514	1581.021	1216.936
105.060	18.497	1579.455	1215.506
106.074	18.480	1577.991	1214.150
107.089	18.287	1576.020	1211.159
108.103	18.066	1574.672	1208.458
109.118	17.905	1573.128	1206.029
110.133	17.873	1571.833	1204.702
111.147	17.924	1570.105	1203.631
112.162	17.923	1568.771	1202.495
113.176	17.945	1567.406	1201.496
114.191	18.051	1566.223	1201.227
115.206	18.132	1564.756	1200.568
116.220	18.103	1564.034	1199.703
117.235	18.044	1562.569	1198.058
118.249	18.058	1561.246	1197.036
119.264	18.079	1559.646	1195.848
120.279	17.895	1559.109	1194.045
121.293	17.881	1557.337	1192.482
122.308	17.846	1555.994	1191.107
123.322	17.748	1554.672	1189.305
124.337	17.721	1552.707	1187.512
125.352	17.825	1551.181	1186.962
126.366	17.815	1549.986	1185.874
127.381	17.787	1548.857	1184.707
128.395	17.767	1548.313	1184.047
129.410	17.811	1546.546	1182.895
130.424	17.896	1545.198	1182.351
131.439	17.863	1544.164	1181.229
132.454	17.901	1543.418	1180.812
133.468	17.990	1541.663	1179.982
134.483	18.030	1539.930	1178.827
135.497	18.123	1538.573	1178.326
136.512	18.060	1537.976	1177.328
137.527	18.103	1536.327	1176.261
138.541	18.071	1535.736	1175.480
139.556	18.179	1533.662	1174.535
140.570	18.241	1532.099	1173.657
141.585	18.207	1531.733	1173.042
142.600	18.330	1530.584	1172.897
143.614	18.482	1529.448	1172.965
144.629	18.495	1528.138	1171.947
145.643	18.707	1526.604	1172.116
146.658	18.632	1525.703	1170.804
147.673	18.571	1523.903	1168.905
148.687	18.535	1522.046	1167.134
149.702	18.291	1520.554	1164.226
150.716	18.194	1519.337	1162.534
151.731	18.239	1517.653	1161.446
152.746	18.212	1516.308	1160.128
153.760	18.161	1515.126	1158.778
154.775	18.185	1514.019	1157.989
155.789	18.324	1513.097	1158.126
156.804	18.362	1511.772	1157.266
157.819	18.444	1510.640	1156.849
158.833	18.369	1509.847	1155.637
159.848	18.544	1508.578	1155.739
160.862	18.601	1507.448	1155.153
161.877	18.743	1506.311	1155.139
162.892	18.541	1505.445	1153.014
163.906	18.348	1503.297	1149.967
164.921	18.241	1501.807	1148.010
165.935	18.211	1501.070	1147.144
166.950	18.204	1500.351	1146.450
167.964	18.355	1499.035	1146.347
168.979	18.354	1498.612	1145.918
169.994	18.357	1496.957	1144.569
171.008	18.332	1495.853	1143.460
172.023	18.463	1494.359	1143.089
173.037	18.484	1493.975	1142.837
174.052	18.550	1492.955	1142.396
175.067	18.542	1492.188	1141.649
176.081	18.532	1490.335	1140.069
177.096	18.399	1488.734	1137.861
178.110	18.203	1487.578	1135.574
179.125	18.295	1486.156	1134.998
180.140	18.402	1485.516	1135.120
181.154	18.313	1484.899	1133.953
182.169	18.432	1483.672	1133.707
183.183	18.563	1482.556	1133.620
184.198	18.577	1481.557	1132.846
185.213	18.658	1480.939	1132.810
186.227	18.741	1479.182	1131.915
187.242	18.750	1478.231	1131.146
188.256	18.790	1477.662	1130.869
189.271	18.829	1476.796	1130.365
190.286	18.877	1476.209	1130.132
191.300	18.853	1474.477	1128.547
192.315	18.496	1473.091	1125.046
193.329	18.279	1471.417	1122.246
194.344	18.199	1470.552	1120.960
195.359	18.271	1469.115	1120.238
196.373	18.524	1468.462	1121.296
197.388	18.571	1467.685	1120.908
198.402	18.635	1467.113	1120.793
199.417	18.699	1465.771	1120.083
200.432	18.879	1465.419	1120.892
201.446	19.071	1464.145	1121.067
202.461	19.183	1463.031	1120.847
203.475	19.129	1462.388	1119.900
204.490	19.118	1461.375	1118.957
205.504	19.148	1460.194	1118.147
206.519	18.854	1458.968	1115.200
207.534	18.837	1457.581	1113.931
208.548	18.753	1456.535	1112.491
209.563	18.866	1455.238	1112.133
210.577	18.825	1454.758	1111.401
211.592	18.875	1453.882	1110.961
212.607	18.890	1453.145	1110.392
213.621	18.951	1452.939	1110.529
214.636	19.134	1451.773	1110.723
215.650	19.094	1450.328	1109.263
216.665	18.920	1450.149	1107.903
217.680	19.117	1448.589	1107.882
218.694	19.250	1448.122	1108.287
219.709	19.263	1447.377	1107.700
220.723	19.240	1446.711	1106.944
221.738	19.158	1445.626	1105.488
222.753	19.223	1444.323	1104.814
223.767	19.093	1444.005	1103.640
224.782	19.162	1442.221	1102.618
225.796	19.179	1441.474	1102.060
226.811	19.342	1440.831	1102.508
227.826	19.358	1439.956	1101.844
228.840	19.333	1438.971	1100.839
229.855	19.180	1438.217	1099.182
230.869	19.076	1437.227	1097.665
231.884	19.130	1436.079	1097.040
232.899	19.133	1434.483	1095.742
233.913	18.954	1433.792	1093.981
234.928	19.021	1432.143	1093.049
235.942	18.984	1430.803	1091.693
236.957	18.905	1430.160	1090.605
237.972	18.860	1429.191	1089.488
238.986	18.943	1427.789	1088.846
240.001	18.979	1426.640	1088.102
241.015	18.978	1425.735	1087.306
242.030	19.058	1424.487	1086.765
243.045	19.095	1423.629	1086.246
244.059	19.090	1423.098	1085.713
245.074	19.155	1422.681	1085.710
246.088	19.177	1422.079	1085.294
247.103	19.315	1420.516	1084.875
248.117	19.327	1420.260	1084.656
249.132	19.356	1419.931	1084.494
250.147	19.490	1418.699	1084.297
251.161	19.672	1418.348	1085.078
252.176	19.824	1418.284	1085.884
253.190	19.889	1417.612	1085.683
254.205	19.959	1416.407	1085.103
255.220	20.041	1415.297	1084.672
256.234	20.143	1414.449	1084.564
257.249	19.968	1414.518	1083.424
258.263	20.051	1412.916	1082.620
259.278	19.931	1412.065	1081.125
260.293	19.979	1411.441	1080.850
261.307	19.976	1410.666	1080.139
262.322	20.157	1409.745	1080.470
263.336	20.163	1408.914	1079.775
264.351	20.112	1408.040	1078.693
265.366	20.190	1406.677	1078.036
266.380	20.240	1406.206	1077.887
267.395	20.181	1405.430	1076.831
268.409	20.102	1404.703	1075.688
269.424	20.029	1403.583	1074.283
270.439	19.998	1402.289	1073.008
271.453	20.028	1401.097	1072.189
272.468	19.997	1399.974	1071.037
273.482	19.990	1399.395	1070.458
274.497	19.903	1398.553	1069.185
275.512	19.946	1397.318	1068.410
276.526	19.952	1396.607	1067.809
277.541	19.871	1395.816	1066.610
278.555	19.887	1395.013	1066.000
279.570	19.881	1394.164	1065.221
280.585	20.057	1393.285	1065.539
281.599	20.217	1393.016	1066.219
282.614	20.285	1391.686	1065.528
283.628	20.153	1390.360	1063.605
284.643	20.000	1389.813	1062.158
285.657	20.057	1388.462	1061.376
286.672	19.970	1387.441	1059.973
287.687	20.026	1386.326	1059.368
288.701	20.020	1385.651	1058.726
289.716	20.075	1385.134	1058.569
290.730	20.085	1384.025	1057.690
291.745	20.127	1382.951	1057.031
292.760	20.119	1382.290	1056.384
293.774	20.235	1380.812	1055.867
294.789	20.216	1380.285	1055.254
295.803	20.276	1379.745	1055.112
296.818	20.326	1379.103	1054.833
297.833	20.243	1377.615	1053.096
298.847	20.089	1376.830	1051.472
299.862	20.223	1375.539	1051.204
300.876	20.224	1374.734	1050.503
301.891	20.258	1373.618	1049.761
302.906	20.232	1373.173	1049.174
303.920	20.402	1372.371	1049.493
304.935	20.408	1372.011	1049.160
305.949	20.456	1371.404	1048.897
306.964	20.635	1370.366	1049.088
307.979	20.696	1369.647	1048.810
308.993	20.698	1368.012	1047.476
310.008	20.537	1367.113	1045.729
311.022	20.523	1366.168	1044.828
312.037	20.614	1365.469	1044.747
313.052	20.661	1364.551	1044.234
314.066	20.558	1363.995	1043.098
315.081	20.402	1362.802	1041.164
316.095	20.350	1361.231	1039.555
317.110	20.236	1360.311	1038.083
318.125	20.258	1359.333	1037.376
319.139	20.280	1358.186	1036.535
320.154	20.312	1357.213	1035.897
321.168	20.265	1356.107	1034.679
322.183	20.273	1355.329	1034.040
323.197	20.201	1354.892	1033.187
324.212	20.430	1353.619	1033.490
325.227	20.385	1353.136	1032.759
326.241	20.476	1352.218	1032.506
327.256	20.442	1351.360	1031.562
328.270	20.408	1350.834	1030.868
329.285	20.418	1349.725	1029.985
330.300	20.434	1348.473	1029.038
331.314	20.377	1347.770	1028.073
332.329	20.451	1346.544	1027.485
333.343	20.269	1345.992	1025.896
334.358	20.477	1345.267	1026.478
335.373	20.588	1344.459	1026.430
336.387	20.564	1343.827	1025.714
337.402	20.676	1343.245	1025.839
338.416	20.732	1342.397	1025.429
339.431	20.676	1342.071	1024.761
340.446	20.802	1341.244	1024.781
341.460	20.824	1340.027	1023.889
342.475	20.992	1339.244	1024.186
343.489	21.082	1338.615	1024.145
344.504	21.110	1337.630	1023.461
345.519	21.162	1336.690	1022.961
346.533	21.137	1336.035	1022.218
347.548	21.190	1335.243	1021.833
348.562	21.226	1334.419	1021.322
349.577	21.290	1333.546	1020.937
350.592	21.075	1332.870	1019.077
351.606	20.861	1331.783	1016.906
352.621	20.898	1330.034	1015.693
353.635	20.862	1328.612	1014.310
354.650	20.818	1328.147	1013.611
355.665	20.791	1327.012	1012.497
356.679	20.758	1326.265	1011.642
357.694	20.822	1325.552	1011.383
358.708	20.907	1324.352	1010.874
359.723	20.967	1323.361	1010.375
360.738	21.106	1322.103	1010.128
361.752	21.049	1321.271	1009.071
362.767	21.001	1320.312	1007.976
363.781	20.959	1319.745	1007.212
364.796	21.095	1318.753	1007.146
365.810	21.081	1317.858	1006.297
366.825	21.286	1317.361	1007.006
367.840	21.268	1316.833	1006.411
368.854	21.502	1316.153	1007.149
369.869	21.532	1315.820	1006.981
370.883	21.616	1315.174	1006.880
371.898	21.539	1314.552	1005.869
372.913	21.436	1313.046	1004.037
373.927	21.382	1312.128	1002.936
374.942	21.464	1311.392	1002.756
375.956	21.491	1310.751	1002.332
376.971	21.519	1310.197	1001.980
377.986	21.490	1308.922	1000.751
379.000	21.492	1308.518	1000.361
380.015	21.520	1307.990	1000.034
381.029	21.650	1307.046	999.963
382.044	21.654	1307.057	999.907
383.059	21.807	1305.724	999.673
384.073	21.640	1305.387	998.372
385.088	21.622	1304.835	997.757
386.102	21.599	1304.276	997.111
387.117	21.738	1303.177	996.975
388.132	21.673	1301.920	995.554
389.146	21.556	1301.387	994.398
390.161	21.454	1300.186	992.809
391.175	21.541	1299.478	992.674
392.190	21.442	1298.473	991.257
393.205	21.429	1297.581	990.415
394.219	21.657	1296.664	990.916
395.234	21.729	1295.696	990.501
396.248	21.568	1294.748	988.775
397.263	21.541	1293.211	987.364
398.278	21.436	1292.261	985.962
399.292	21.411	1291.021	984.783
400.307	21.380	1289.702	983.518
401.321	21.355	1288.478	982.356
402.336	21.318	1287.723	981.487
403.350	21.319	1286.797	980.701
404.365	21.351	1285.750	979.992
405.380	21.411	1284.747	979.481
406.394	21.480	1284.086	979.273
407.409	21.558	1283.620	979.268
408.423	21.617	1283.004	979.041
409.438	21.725	1282.445	979.133
410.453	21.898	1281.714	979.454
411.467	21.847	1281.387	978.830
412.482	22.034	1280.535	979.140
413.496	22.030	1279.850	978.505
414.511	22.060	1279.120	978.025
415.526	22.093	1278.575	977.707
416.540	22.066	1278.177	977.166
417.555	22.226	1277.490	977.447
418.569	22.262	1276.633	976.901
419.584	22.222	1276.129	976.210
420.599	22.099	1275.430	974.902
421.613	145.035	1431.976	1793.816
422.628	139.596	1454.744	1793.908
