DTS Sentinel unit serial number:	SN413079Multiplexer serial number:	ORYXHardware model number:	OX4-SRSoftware version number:	ORYX F/W v4.00 Oryx Data Collector v3.7.2.0data status	okinstallation	princeton_trtdifferential loss correction	single-endedforward channel	channel 4reverse channel	N/Adate	2019/09/17time	07:41:35forward acquisition time	60.00reverse acquisition time	0.00gamma	496.2192k internal	0.2320k external	0.2320temperature offset calibration	0.9985default loss term (dB/km)	0.3790temperature slope calibration	1.0000multiplexer offset coefficient	1.0000multiplexer slope coefficient	1.0000fibre end	0.00T internal ref (°C)	27.16T ext. ref 1 (°C)	0.12T ext. ref 2 (°C)	21.96length (m)	temperature (°C)	Stokes	anti-Stokes-747.200	800.000	-0.086	0.264
-746.185	-200.000	-0.029	0.453
-745.171	800.000	-0.054	0.231
-744.156	184.232	-0.123	0.184
-743.142	84.619	-0.168	0.186
-742.127	800.000	-0.112	0.355
-741.112	-200.000	-0.048	0.291
-740.098	355.600	0.066	0.132
-739.083	81.836	-0.132	0.144
-738.069	-40.809	-0.172	0.090
-737.054	-38.583	0.370	0.198
-736.039	-77.525	-0.075	0.026
-735.025	-200.000	-0.020	-0.109
-734.010	-20.573	-0.189	-0.117
-732.996	-200.000	0.028	-0.135
-731.981	40.788	-0.150	0.137
-730.966	-79.186	0.094	-0.032
-729.952	-56.596	-0.113	0.051
-728.937	-19.479	-0.141	-0.088
-727.923	-50.260	0.245	0.117
-726.908	74.808	-0.168	0.178
-725.894	-81.343	-0.226	0.075
-724.879	-200.000	-0.021	-0.162
-723.864	-200.000	0.002	-0.414
-722.850	800.000	-0.045	-0.146
-721.835	466.298	0.139	0.316
-720.821	-75.588	-0.252	0.090
-719.806	-75.362	-0.225	-0.081
-718.791	-200.000	-0.020	0.093
-717.777	800.000	0.069	0.239
-716.762	-95.069	-0.427	-0.116
-715.748	-107.618	-0.430	-0.095
-714.733	-44.394	-0.251	-0.127
-713.718	-200.000	0.007	-0.203
-712.704	-200.000	0.032	0.175
-711.689	-156.655	-0.434	-0.027
-710.675	81.717	-0.455	-0.497
-709.660	147.909	0.140	0.191
-708.645	-63.340	-0.219	0.091
-707.631	-34.947	-0.266	0.147
-706.616	-48.507	-0.213	0.104
-705.602	-200.000	-0.005	0.202
-704.587	107.090	-0.101	0.121
-703.572	-200.000	-0.013	-0.378
-702.558	-48.258	-0.220	-0.107
-701.543	800.000	0.046	-0.192
-700.529	480.851	0.049	-0.113
-699.514	112.452	-0.022	-0.027
-698.499	31.200	0.110	-0.095
-697.485	800.000	-0.065	0.187
-696.470	67.825	-0.212	-0.219
-695.456	-200.000	-0.041	0.190
-694.441	-200.000	0.016	-0.329
-693.426	-47.261	-0.129	0.064
-692.412	680.706	0.138	0.362
-691.397	246.153	-0.147	0.249
-690.383	55.186	-0.120	0.117
-689.368	251.653	-0.027	-0.046
-688.354	58.789	0.155	0.153
-687.339	83.059	0.063	-0.069
-686.324	-119.740	0.175	-0.031
-685.310	-200.000	-0.007	-0.277
-684.295	800.000	-0.051	-0.193
-683.281	-74.120	0.142	-0.052
-682.266	-200.000	-0.007	-0.145
-681.251	-119.648	-0.303	-0.053
-680.237	146.650	-0.021	-0.028
-679.222	-105.414	-0.320	-0.073
-678.208	-200.000	-0.006	-0.291
-677.193	54.516	-0.124	0.121
-676.178	609.234	0.022	0.056
-675.164	800.000	-0.076	0.321
-674.149	38.781	0.147	0.132
-673.135	-125.919	0.179	-0.027
-672.120	44.079	0.157	0.145
-671.105	-29.032	0.099	0.057
-670.091	-91.342	0.568	0.164
-669.076	322.293	-0.163	0.313
-668.062	247.102	-0.057	0.096
-667.047	-200.000	0.027	-0.260
-666.032	38.656	-0.294	-0.265
-665.018	-96.612	-0.189	-0.050
-664.003	373.648	-0.053	0.109
-662.989	109.259	-0.222	-0.267
-661.974	28.559	-0.168	-0.144
-660.959	800.000	0.049	0.213
-659.945	88.991	-0.068	-0.076
-658.930	174.226	-0.227	-0.330
-657.916	-200.000	-0.006	-0.222
-656.901	800.000	-0.074	0.253
-655.886	-125.776	-0.185	-0.028
-654.872	39.503	-0.143	0.129
-653.857	518.581	0.117	-0.275
-652.843	453.162	-0.101	0.226
-651.828	-61.261	0.149	-0.063
-650.814	101.005	-0.210	0.246
-649.799	-200.000	-0.015	-0.235
-648.784	566.879	0.107	-0.263
-647.770	-110.244	-0.156	0.033
-646.755	-45.209	-0.288	-0.144
-645.741	-104.971	-0.159	0.037
-644.726	-112.847	0.217	-0.043
-643.711	-200.000	0.136	-0.000
-642.697	-150.228	0.268	0.021
-641.682	53.784	0.151	-0.146
-640.668	-200.000	-0.007	0.213
-639.653	-62.364	-0.154	0.064
-638.638	800.000	-0.073	0.218
-637.624	16.409	-0.208	0.165
-636.609	-98.008	-0.435	0.113
-635.595	62.875	-0.226	-0.228
-634.580	-31.096	0.122	0.069
-633.565	7.667	-0.259	-0.195
-632.551	34.523	-0.156	-0.137
-631.536	87.319	-0.058	0.064
-630.522	81.363	0.118	0.128
-629.507	41.684	-0.125	-0.114
-628.492	113.852	0.149	-0.183
-627.478	-48.396	0.081	0.039
-626.463	649.766	-0.074	-0.192
-625.449	229.401	-0.023	-0.037
-624.434	-1.797	0.226	0.160
-623.419	310.217	0.141	-0.265
-622.405	-200.000	0.013	0.324
-621.390	4.310	-0.336	-0.248
-620.376	23.543	-0.087	0.072
-619.361	800.000	0.032	0.128
-618.346	-161.677	0.133	-0.007
-617.332	-108.056	-0.284	0.062
-616.317	121.467	-0.147	-0.184
-615.303	-45.457	0.084	-0.042
-614.288	-29.193	-0.108	-0.062
-613.273	-152.996	0.262	0.019
-612.259	-140.725	-0.389	0.040
-611.244	32.397	0.165	-0.144
-610.230	-200.000	0.001	0.023
-609.215	-200.000	-0.022	0.228
-608.201	-200.000	-0.057	0.315
-607.186	222.884	-0.124	-0.200
-606.171	800.000	-0.055	0.238
-605.157	593.765	-0.079	-0.196
-604.142	58.556	-0.095	-0.094
-603.128	78.046	0.076	0.081
-602.113	-200.000	0.015	0.100
-601.098	95.548	0.204	-0.234
-600.084	800.000	0.020	-0.078
-599.069	-78.889	0.190	-0.065
-598.055	-17.527	0.115	-0.073
-597.040	-31.602	0.119	-0.067
-596.025	390.572	0.187	0.390
-595.011	-43.552	0.285	-0.145
-593.996	-143.743	-0.234	-0.022
-592.982	-82.365	0.171	0.056
-591.967	-3.044	0.111	-0.078
-590.952	-116.947	-0.059	-0.011
-589.938	-34.499	-0.233	-0.128
-588.923	260.764	-0.086	-0.149
-587.909	-82.121	0.147	0.048
-586.894	-4.603	0.102	-0.071
-585.879	-186.507	-0.146	-0.002
-584.865	-78.613	-0.317	0.109
-583.850	-95.013	-0.450	0.122
-582.836	-200.000	0.023	0.271
-581.821	-200.000	-0.087	-0.479
-580.806	38.083	-0.188	0.168
-579.792	-114.583	-0.270	-0.052
-578.777	800.000	0.076	-0.271
-577.763	25.803	0.311	-0.260
-576.748	207.762	-0.162	0.254
-575.733	-62.988	0.160	0.066
-574.719	-200.000	0.001	0.015
-573.704	-65.384	0.055	-0.022
-572.690	95.037	0.153	0.175
-571.675	343.535	-0.145	0.285
-570.661	-200.000	-0.016	0.136
-569.646	-54.287	0.130	-0.059
-568.631	-108.890	0.108	-0.023
-567.617	17.498	-0.063	0.050
-566.602	-200.000	0.073	0.392
-565.588	-42.094	0.231	0.119
-564.573	272.623	-0.099	-0.175
-563.558	-27.674	-0.154	-0.090
-562.544	236.440	-0.066	-0.109
-561.529	-200.000	-0.005	0.252
-560.515	-200.000	-0.025	-0.201
-559.500	352.803	0.159	0.317
-558.485	-200.000	0.018	-0.218
-557.471	-8.622	0.250	0.169
-556.456	233.805	0.151	0.250
-555.442	-91.728	0.349	-0.099
-554.427	388.343	0.198	0.411
-553.412	-31.598	-0.186	0.105
-552.398	5.792	0.271	0.201
-551.383	800.000	0.096	-0.399
-550.369	800.000	-0.085	-0.310
-549.354	-118.823	-0.140	-0.025
-548.339	-200.000	-0.031	-0.242
-547.325	-200.000	0.020	0.267
-546.310	-27.454	0.222	0.130
-545.296	309.423	0.098	-0.184
-544.281	149.829	-0.095	0.129
-543.266	-4.188	0.192	0.133
-542.252	-122.941	-0.217	0.035
-541.237	157.648	0.099	0.138
-540.223	729.729	0.039	0.105
-539.208	194.473	0.144	-0.220
-538.193	-78.702	0.165	0.056
-537.179	-44.179	0.172	-0.087
-536.164	-130.807	0.295	0.040
-535.150	369.270	-0.075	0.152
-534.135	-200.000	-0.025	0.151
-533.121	-95.241	0.093	0.025
-532.106	-200.000	-0.013	0.231
-531.091	-67.483	-0.058	0.023
-530.077	44.282	-0.111	0.102
-529.062	-98.477	0.324	-0.083
-528.048	-67.786	-0.299	-0.117
-527.033	-123.740	-0.309	-0.049
-526.018	-19.023	0.108	0.067
-525.004	-114.975	-0.236	0.045
-523.989	800.000	0.050	-0.189
-522.975	85.251	-0.168	0.185
-521.960	-107.262	-0.328	0.072
-520.945	795.770	-0.056	-0.156
-519.931	-138.034	0.129	-0.014
-518.916	-95.036	-0.114	0.031
-517.902	-151.079	0.251	-0.019
-516.887	292.909	0.093	0.169
-515.872	141.301	0.144	0.191
-514.858	-200.000	-0.063	-0.358
-513.843	-200.000	-0.006	0.043
-512.829	148.648	0.040	0.054
-511.814	-45.396	0.159	-0.079
-510.799	167.204	0.110	-0.157
-509.785	-200.000	-0.000	-0.069
-508.770	105.994	-0.147	-0.175
-507.756	-2.965	-0.098	-0.068
-506.741	800.000	-0.111	-0.391
-505.726	800.000	-0.073	0.257
-504.712	712.885	0.109	-0.289
-503.697	306.699	0.089	0.166
-502.683	-200.000	-0.010	0.197
-501.668	-41.116	-0.248	-0.128
-500.653	-103.347	0.234	0.055
-499.639	19.060	-0.262	-0.210
-498.624	-5.296	0.183	0.126
-497.610	-200.000	-0.000	0.094
-496.595	294.138	0.082	0.151
-495.581	17.734	-0.196	-0.156
-494.566	-119.896	-0.052	-0.009
-493.551	-99.806	0.349	0.087
-492.537	404.770	0.010	0.021
-491.522	443.962	-0.057	0.125
-490.508	73.905	0.134	-0.141
-489.493	88.651	-0.213	0.237
-488.478	250.168	-0.126	-0.213
-487.464	246.814	0.100	0.169
-486.449	14.761	0.400	0.313
-485.435	491.260	0.077	-0.177
-484.420	-86.350	-0.243	-0.075
-483.405	-11.318	0.130	-0.086
-482.391	-200.000	0.038	0.193
-481.376	-92.329	-0.060	-0.017
-480.362	-158.842	-0.158	0.009
-479.347	522.492	0.102	-0.239
-478.332	-61.019	-0.244	0.103
-477.318	-96.510	0.344	-0.091
-476.303	-200.000	0.037	-0.312
-475.289	194.268	-0.136	-0.206
-474.274	-15.767	-0.232	-0.148
-473.259	167.850	0.219	-0.312
-472.245	22.976	-0.297	-0.244
-471.230	-123.519	-0.089	-0.014
-470.216	-175.913	0.207	-0.006
-469.201	62.776	0.157	-0.158
-468.186	-84.889	0.193	0.061
-467.172	199.112	-0.033	0.050
-466.157	-200.000	-0.009	0.148
-465.143	-60.390	0.228	0.097
-464.128	48.762	-0.269	-0.252
-463.113	166.154	0.069	-0.097
-462.099	47.661	0.071	0.066
-461.084	230.865	0.110	0.180
-460.070	-76.113	0.149	-0.053
-459.055	-43.734	-0.201	0.101
-458.040	-200.000	0.012	0.122
-457.026	-102.946	0.291	-0.069
-456.011	-200.000	-0.102	-0.500
-454.997	-200.000	0.036	0.184
-453.982	-200.000	0.085	0.533
-452.968	-86.093	0.153	0.047
-451.953	800.000	-0.058	0.162
-450.938	53.810	0.257	0.247
-449.924	-200.000	-0.053	0.268
-448.909	-200.000	0.014	-0.090
-447.895	-154.328	-0.199	-0.013
-446.880	150.631	0.157	0.213
-445.865	2.109	-0.067	0.048
-444.851	-88.935	-0.270	-0.080
-443.836	-74.430	0.354	0.128
-442.822	-71.523	0.143	-0.054
-441.807	495.762	-0.058	0.132
-440.792	-200.000	-0.004	0.173
-439.778	217.984	0.143	-0.227
-438.763	30.400	-0.221	0.189
-437.749	-133.107	0.191	-0.024
-436.734	-200.000	-0.019	-0.247
-435.719	24.385	-0.150	-0.124
-434.705	-10.311	0.071	-0.047
-433.690	409.306	0.034	0.072
-432.676	-200.000	0.025	-0.187
-431.661	77.110	0.078	-0.083
-430.646	-127.101	0.146	0.021
-429.632	106.338	-0.021	0.025
-428.617	800.000	-0.042	0.177
-427.603	46.880	-0.060	-0.056
-426.588	-200.000	-0.037	0.261
-425.573	134.363	0.084	-0.109
-424.559	-107.120	-0.236	0.052
-423.544	-42.633	-0.269	0.137
-422.530	-53.118	-0.071	0.033
-421.515	-129.775	0.180	-0.025
-420.500	800.000	-0.036	0.117
-419.486	-200.000	0.036	0.345
-418.471	-200.000	0.043	-0.390
-417.457	-200.000	-0.003	-0.140
-416.442	94.653	0.134	0.152
-415.428	300.666	0.108	-0.200
-414.413	-92.631	-0.131	-0.037
-413.398	-200.000	-0.000	-0.024
-412.384	27.796	-0.218	-0.184
-411.369	-77.753	0.251	0.087
-410.355	-134.466	-0.236	0.029
-409.340	314.923	0.116	-0.218
-408.325	427.346	-0.145	0.312
-407.311	121.408	0.051	0.063
-406.296	-133.294	0.069	-0.009
-405.282	-95.965	-0.061	0.016
-404.267	85.975	-0.210	-0.230
-403.252	146.813	-0.093	-0.125
-402.238	-107.621	-0.110	0.024
-401.223	-200.000	0.002	0.168
-400.209	50.341	-0.138	-0.130
-399.194	172.849	-0.125	0.180
-398.179	-121.449	0.273	0.045
-397.165	6.175	-0.252	0.186
-396.150	182.512	-0.043	0.063
-395.136	214.714	-0.113	-0.179
-394.121	517.519	-0.078	-0.182
-393.106	-157.107	-0.146	0.009
-392.092	17.446	-0.210	0.166
-391.077	-4.184	-0.189	0.131
-390.063	-139.183	0.212	-0.023
-389.048	-55.385	-0.307	-0.137
-388.033	-200.000	0.008	-0.201
-387.019	72.278	-0.224	-0.233
-386.004	-147.861	-0.106	-0.009
-384.990	259.056	0.186	0.320
-383.975	-55.425	-0.324	0.145
-382.960	87.763	0.237	-0.262
-381.946	-74.388	-0.070	-0.025
-380.931	800.000	-0.177	-0.560
-379.917	-161.030	0.208	0.011
-378.902	125.468	-0.153	-0.193
-377.888	379.180	-0.164	-0.334
-376.873	-140.494	0.289	-0.030
-375.858	-125.359	0.265	0.040
-374.844	-183.603	0.371	0.006
-373.829	170.797	-0.147	0.210
-372.815	800.000	0.041	0.123
-371.800	-108.359	0.294	-0.063
-370.785	-200.000	0.017	-0.087
-369.771	-98.676	0.237	-0.060
-368.756	-200.000	-0.019	0.297
-367.742	-200.000	0.004	0.068
-366.727	71.681	-0.338	-0.350
-365.712	-38.727	0.143	-0.075
-364.698	-110.305	-0.258	0.053
-363.683	435.546	0.050	-0.109
-362.669	-200.000	0.081	-0.406
-361.654	450.494	-0.081	0.179
-360.639	-132.477	0.137	0.018
-359.625	5.595	-0.095	0.070
-358.610	25.385	0.314	-0.260
-357.596	-50.669	-0.246	-0.115
-356.581	-200.000	-0.007	-0.109
-355.566	-110.716	0.229	-0.047
-354.552	-73.853	0.207	-0.075
-353.537	-34.237	0.113	0.062
-352.523	282.228	0.104	0.186
-351.508	-33.010	0.061	0.034
-350.493	365.973	-0.124	0.249
-349.479	344.242	-0.037	0.073
-348.464	-136.609	-0.130	0.015
-347.450	-127.709	-0.151	-0.022
-346.435	128.795	0.233	0.296
-345.420	-102.853	0.363	-0.086
-344.406	-60.885	0.306	-0.129
-343.391	-200.000	0.016	0.230
-342.377	-171.512	-0.176	-0.006
-341.362	-200.000	0.008	-0.091
-340.348	-38.541	0.345	-0.182
-339.333	-100.566	-0.140	0.034
-338.318	800.000	0.048	-0.197
-337.304	-104.581	-0.139	-0.032
-336.289	-52.245	0.311	0.143
-335.275	-200.000	0.012	0.287
-334.260	-200.000	0.045	-0.492
-333.245	631.572	-0.138	-0.348
-332.231	-200.000	-0.029	-0.177
-331.216	-76.075	-0.295	0.104
-330.202	-79.249	-0.088	-0.030
-329.187	-59.462	0.088	0.038
-328.172	150.810	-0.150	0.203
-327.158	-200.000	-0.032	0.157
-326.143	27.880	0.207	0.174
-325.129	-200.000	-0.054	-0.308
-324.114	192.149	-0.223	-0.335
-323.099	1.162	0.133	0.095
-322.085	-69.271	-0.126	-0.048
-321.070	-71.284	-0.207	-0.077
-320.056	107.579	0.101	-0.120
-319.041	-200.000	0.026	0.381
-318.026	336.573	0.067	-0.130
-317.012	-200.000	-0.007	0.146
-315.997	-3.632	-0.163	0.112
-314.983	504.072	0.057	0.132
-313.968	245.220	0.103	-0.173
-312.953	352.857	-0.142	0.281
-311.939	-116.834	0.379	-0.069
-310.924	410.309	0.059	0.125
-309.910	328.426	-0.068	0.131
-308.895	800.000	0.042	0.171
-307.880	-16.421	-0.105	0.066
-306.866	-200.000	-0.386	-0.002
-305.851	-200.000	-0.007	0.216
-304.837	-60.676	-0.154	-0.065
-303.822	-200.000	-0.039	0.170
-302.807	11.977	-0.181	-0.138
-301.793	120.723	-0.100	0.124
-300.778	800.000	-0.071	-0.289
-299.764	800.000	0.104	-0.322
-298.749	800.000	0.030	0.119
-297.735	42.695	-0.071	0.064
-296.720	320.475	0.057	-0.107
-295.705	142.476	-0.024	0.032
-294.691	-5.441	0.328	0.224
-293.676	95.806	-0.121	-0.137
-292.662	77.267	-0.129	0.137
-291.647	0.667	0.146	0.103
-290.632	150.464	-0.072	-0.098
-289.618	762.365	0.160	-0.431
-288.603	50.046	0.228	-0.214
-287.589	126.479	-0.105	-0.132
-286.574	562.161	0.032	0.078
-285.559	161.624	0.188	0.261
-284.545	800.000	0.118	0.363
-283.530	16.672	0.292	0.229
-282.516	-99.463	0.129	0.032
-281.501	320.692	-0.091	-0.172
-280.486	494.805	-0.046	0.105
-279.472	-87.332	-0.169	-0.051
-278.457	-166.448	-0.257	0.011
-277.443	223.505	0.054	0.087
-276.428	-200.000	-0.062	-0.405
-275.413	9.459	0.128	-0.096
-274.399	-138.099	-0.263	-0.029
-273.384	-86.912	0.112	0.034
-272.370	-200.000	0.016	-0.100
-271.355	9.110	0.114	-0.086
-270.340	455.291	0.058	-0.128
-269.326	298.805	-0.061	-0.112
-268.311	-96.287	-0.314	0.082
-267.297	41.690	0.279	-0.251
-266.282	294.356	0.145	-0.264
-265.267	150.437	0.102	0.137
-264.253	302.160	0.063	-0.116
-263.238	-82.553	0.065	-0.021
-262.224	800.000	-0.039	-0.116
-261.209	25.920	-0.274	0.226
-260.195	519.389	0.061	-0.142
-259.180	-11.645	0.177	-0.115
-258.165	-200.000	0.005	-0.236
-257.151	633.192	0.088	0.221
-256.136	-200.000	0.071	-0.329
-255.122	-119.138	-0.343	0.059
-254.107	146.997	0.287	0.383
-253.092	74.154	-0.216	0.225
-252.078	800.000	0.044	-0.131
-251.063	16.348	-0.193	0.151
-250.049	4.987	0.028	0.020
-249.034	14.468	0.255	0.198
-248.019	251.702	0.076	-0.128
-247.005	342.352	-0.184	0.357
-245.990	800.000	-0.039	-0.122
-244.976	82.261	0.205	-0.220
-243.961	225.475	-0.046	-0.075
-242.946	315.003	-0.207	0.386
-241.932	-122.100	-0.224	-0.036
-240.917	-200.000	0.020	-0.121
-239.903	51.866	-0.261	0.246
-238.888	169.966	-0.127	0.180
-237.873	-200.000	0.074	0.457
-236.859	-21.079	-0.270	-0.164
-235.844	-6.075	-0.161	0.109
-234.830	-200.000	0.010	-0.150
-233.815	-9.399	0.068	-0.045
-232.800	578.276	-0.068	0.165
-231.786	266.956	-0.144	-0.249
-230.771	800.000	0.052	0.223
-229.757	800.000	0.029	0.124
-228.742	22.371	0.180	-0.146
-227.727	97.422	0.230	0.262
-226.713	-79.918	-0.127	-0.042
-225.698	32.133	0.189	0.162
-224.684	-200.000	0.036	-0.161
-223.669	-164.574	-0.123	0.006
-222.655	-163.078	-0.447	-0.021
-221.640	-200.000	-0.027	-0.212
-220.625	-102.242	0.128	0.031
-219.611	-200.000	0.031	-0.142
-218.596	-97.189	0.313	0.081
-217.582	-3.914	-0.116	-0.080
-216.567	-34.996	-0.171	-0.092
-215.552	-22.463	-0.321	-0.193
-214.538	-94.104	-0.381	0.104
-213.523	-79.718	-0.086	0.029
-212.509	-72.714	0.331	0.121
-211.494	410.435	-0.103	-0.217
-210.479	-16.825	-0.280	-0.175
-209.465	383.319	-0.027	-0.054
-208.450	-40.337	-0.084	-0.043
-207.436	-90.416	0.203	-0.058
-206.421	-8.251	-0.070	-0.047
-205.406	535.244	-0.041	0.097
-204.392	-200.000	0.024	0.140
-203.377	476.443	0.176	-0.394
-202.363	86.082	0.146	-0.159
-201.348	-20.938	0.109	-0.066
-200.333	275.040	0.056	-0.099
-199.319	-86.284	0.137	0.042
-198.304	-86.125	-0.278	0.085
-197.290	123.390	0.086	0.107
-196.275	-28.522	0.156	0.089
-195.260	-200.000	0.003	0.187
-194.246	198.237	0.069	0.104
-193.231	710.297	-0.073	0.191
-192.217	-109.700	-0.293	0.061
-191.202	176.575	-0.260	0.374
-190.187	-106.570	-0.069	-0.015
-189.173	-76.451	0.233	0.081
-188.158	-104.971	-0.204	0.046
-187.144	-13.922	0.062	0.040
-186.129	160.924	-0.120	0.165
-185.114	32.568	0.139	0.119
-184.100	104.021	-0.023	-0.026
-183.085	-32.588	0.342	-0.189
-182.071	800.000	-0.022	-0.065
-181.056	58.971	0.122	-0.118
-180.042	557.159	-0.096	0.229
-179.027	34.378	-0.295	-0.255
-178.012	160.201	-0.022	-0.030
-176.998	-112.223	0.355	-0.070
-175.983	-72.658	-0.104	-0.038
-174.969	800.000	-0.067	-0.264
-173.954	800.000	0.026	-0.083
-172.939	-185.170	0.224	0.003
-171.925	-97.418	0.182	-0.047
-170.910	187.566	0.136	-0.200
-169.896	-42.169	0.062	-0.031
-168.881	-0.567	-0.298	-0.209
-167.866	-38.102	-0.239	0.125
-166.852	-48.627	-0.136	0.065
-165.837	99.107	0.204	0.233
-164.823	-140.511	0.103	0.011
-163.808	17.179	0.077	0.061
-162.793	643.356	0.160	0.404
-161.779	390.862	-0.117	-0.239
-160.764	11.673	-0.143	0.108
-159.750	-64.364	0.135	0.054
-158.735	-90.505	0.064	-0.018
-157.720	238.889	-0.176	0.290
-156.706	-95.378	-0.206	0.055
-155.691	14.134	0.108	-0.083
-154.677	-200.000	0.027	0.312
-153.662	291.823	0.121	0.217
-152.647	-200.000	-0.009	0.062
-151.633	-82.232	0.251	-0.081
-150.618	754.086	-0.111	-0.297
-149.604	-200.000	-0.014	-0.367
-148.589	628.646	0.062	0.155
-147.574	-36.908	-0.017	-0.009
-146.560	-122.954	0.239	0.038
-145.545	-22.363	-0.052	0.031
-144.531	-200.000	0.010	-0.060
-143.516	-52.383	0.392	-0.179
-142.502	800.000	-0.068	-0.188
-141.487	-56.017	-0.195	0.086
-140.472	36.525	-0.177	-0.154
-139.458	-79.411	-0.077	0.026
-138.443	-136.789	0.304	0.035
-137.429	800.000	0.057	0.197
-136.414	-116.985	0.052	-0.009
-135.399	-58.364	0.136	-0.058
-134.385	-68.055	-0.244	-0.094
-133.370	-36.243	0.432	-0.230
-132.356	-200.000	0.029	-0.174
-131.341	91.182	-0.191	0.212
-130.326	-200.000	0.043	0.243
-129.312	-63.357	0.360	-0.146
-128.297	619.774	-0.038	0.095
-127.283	-127.987	-0.341	-0.048
-126.268	-200.000	-0.015	0.254
-125.253	722.102	0.108	-0.285
-124.239	-91.285	0.180	0.051
-123.224	110.094	0.160	0.189
-122.210	-52.323	-0.049	-0.022
-121.195	800.000	0.067	0.248
-120.180	-200.000	0.039	0.206
-119.166	76.103	0.087	0.091
-118.151	-100.363	-0.349	-0.086
-117.137	-180.999	0.216	0.004
-116.122	186.642	-0.127	0.187
-115.107	7.675	0.216	-0.160
-114.093	648.003	0.044	-0.112
-113.078	-139.417	-0.163	-0.017
-112.064	-200.000	0.028	-0.289
-111.049	-60.403	0.143	-0.060
-110.034	1.239	0.060	0.042
-109.020	125.082	0.210	0.261
-108.005	-124.161	0.118	0.018
-106.991	-80.110	0.057	0.019
-105.976	643.401	0.067	0.167
-104.962	-100.309	-0.228	0.056
-103.947	38.086	0.204	0.179
-102.932	-96.920	0.264	0.068
-101.918	-30.787	-0.175	0.098
-100.903	-200.000	-0.008	-0.073
-99.889	-93.204	-0.341	0.093
-98.874	18.146	-0.141	0.111
-97.859	800.000	0.040	-0.162
-96.845	-102.947	-0.128	0.030
-95.830	145.304	0.108	-0.142
-94.816	-136.976	0.195	0.022
-93.801	-200.000	-0.003	0.144
-92.786	226.099	0.055	0.088
-91.772	80.165	0.193	-0.205
-90.757	63.570	-0.157	-0.155
-89.743	-39.397	0.133	0.069
-88.728	46.313	-0.142	0.129
-87.713	154.136	0.188	-0.254
-86.699	-77.871	0.178	0.061
-85.684	22.438	-0.269	0.217
-84.670	36.650	-0.239	0.208
-83.655	-200.000	-0.025	0.126
-82.640	137.711	0.110	0.142
-81.626	-72.205	-0.381	-0.139
-80.611	9.262	0.220	0.164
-79.597	-47.769	0.114	-0.054
-78.582	1.354	0.247	-0.175
-77.567	-0.079	0.192	-0.135
-76.553	-115.676	0.056	-0.010
-75.538	-138.787	-0.189	0.020
-74.524	800.000	0.120	0.345
-73.509	182.918	-0.135	-0.196
-72.494	-122.742	-0.125	0.020
-71.480	-200.000	0.009	-0.217
-70.465	54.349	-0.107	-0.101
-69.451	-124.598	0.035	-0.005
-68.436	800.000	-0.071	-0.224
-67.422	14.225	0.196	0.151
-66.407	-9.302	0.033	0.022
-65.392	-146.081	-0.197	0.017
-64.378	-119.310	0.338	0.058
-63.363	115.010	0.206	-0.248
-62.349	-200.000	-0.027	0.205
-61.334	-10.282	-1.035	-0.676
-60.319	82.151	0.508	0.542
-59.305	-200.000	-0.071	-1.221
-58.290	232.038	0.821	1.326
-57.276	800.000	0.560	1.571
-56.261	-200.000	113.868	645.418
-55.246	467.916	1505.828	3324.898
-54.232	144.695	2680.284	3525.465
-53.217	93.492	2321.634	2586.932
-52.203	33.524	2069.450	1769.672
-51.188	28.890	1983.270	1654.324
-50.173	27.456	1966.715	1627.642
-49.159	45.795	2024.507	1842.219
-48.144	44.651	2040.347	1846.194
-47.130	29.485	1999.771	1673.222
-46.115	27.088	1990.151	1643.448
-45.100	27.198	1986.177	1641.092
-44.086	27.164	1983.896	1638.841
-43.071	27.046	1981.921	1636.081
-42.057	26.993	1979.407	1633.464
-41.042	27.049	1977.939	1632.690
-40.027	27.053	1975.785	1630.881
-39.013	27.081	1973.668	1629.322
-37.998	26.972	1972.865	1627.617
-36.984	27.131	1970.060	1626.663
-35.969	27.071	1968.073	1624.416
-34.954	27.195	1966.236	1623.944
-33.940	27.090	1965.462	1622.303
-32.925	27.131	1963.468	1620.960
-31.911	27.216	1961.423	1619.966
-30.896	27.119	1960.126	1617.971
-29.881	27.152	1959.238	1617.463
-28.867	27.204	1957.224	1616.200
-27.852	27.093	1956.011	1614.145
-26.838	27.208	1953.473	1613.009
-25.823	27.195	1952.077	1611.677
-24.809	27.232	1950.094	1610.300
-23.794	27.248	1948.150	1608.779
-22.779	27.204	1946.430	1606.905
-21.765	27.246	1944.949	1605.988
-20.750	27.251	1942.707	1604.116
-19.736	27.224	1941.505	1602.827
-18.721	27.237	1940.252	1601.841
-17.706	27.204	1938.494	1600.030
-16.692	27.180	1936.878	1598.429
-15.677	27.184	1935.037	1596.873
-14.663	27.184	1933.894	1595.872
-13.648	27.172	1932.603	1594.635
-12.633	27.208	1931.336	1593.843
-11.619	27.156	1930.317	1592.484
-10.604	27.105	1929.114	1590.979
-9.590	27.134	1927.375	1589.735
-8.575	27.128	1925.748	1588.277
-7.560	27.083	1925.311	1587.466
-6.546	27.153	1923.443	1586.474
-5.531	27.157	1922.159	1585.385
-4.517	27.209	1920.339	1584.275
-3.502	27.148	1920.042	1583.436
-2.487	27.151	1918.518	1582.142
-1.473	27.189	1917.083	1581.229
-0.458	27.207	1912.753	1577.745
0.556	25.328	1892.891	1549.827
1.571	21.138	1874.081	1498.403
2.586	17.265	1895.837	1481.962
3.600	16.198	1930.855	1499.723
4.615	16.102	1924.934	1494.140
5.629	12.703	1825.002	1387.846
6.644	5.025	1708.354	1238.248
7.659	0.680	1672.281	1178.173
8.673	0.271	1669.195	1172.708
9.688	0.185	1668.343	1171.338
10.702	0.086	1667.519	1169.888
11.717	-0.052	1663.370	1165.801
12.731	0.568	1662.376	1169.804
13.746	6.347	1674.823	1223.471
14.761	14.002	1690.983	1295.035
15.775	17.206	1694.548	1322.634
16.790	16.985	1692.556	1319.241
17.804	16.031	1689.194	1309.092
18.819	14.970	1686.192	1298.424
19.834	14.394	1683.900	1292.077
20.848	14.067	1682.508	1288.365
21.863	13.891	1680.617	1285.440
22.877	13.646	1679.015	1282.207
23.892	13.397	1678.092	1279.459
24.907	13.209	1676.952	1277.027
25.921	13.261	1675.736	1276.391
26.936	13.348	1674.852	1276.276
27.950	13.366	1673.733	1275.446
28.965	13.329	1673.827	1275.120
29.980	13.335	1673.386	1274.717
30.994	13.480	1671.579	1274.343
32.009	13.505	1670.469	1273.578
33.023	13.511	1669.871	1273.056
34.038	13.614	1668.614	1272.771
35.053	13.560	1667.774	1271.606
36.067	13.495	1666.486	1270.010
37.082	13.408	1665.631	1268.585
38.096	13.434	1664.563	1267.853
39.111	13.490	1663.921	1267.685
40.126	13.490	1663.242	1267.055
41.140	13.513	1661.973	1266.152
42.155	13.437	1660.487	1264.324
43.169	13.314	1659.126	1262.238
44.184	13.307	1658.232	1261.394
45.199	13.269	1657.119	1260.148
46.213	13.192	1656.220	1258.768
47.228	13.301	1654.321	1258.041
48.242	13.351	1653.528	1257.702
49.257	13.389	1652.416	1257.034
50.271	13.428	1650.776	1255.971
51.286	13.368	1649.977	1254.797
52.301	13.405	1648.493	1253.843
53.315	13.329	1647.220	1252.186
54.330	13.389	1645.475	1251.204
55.344	13.394	1643.534	1249.655
56.359	13.297	1642.387	1247.939
57.374	13.248	1641.619	1246.878
58.388	13.400	1639.914	1246.618
59.403	13.283	1638.715	1244.716
60.417	13.245	1637.038	1243.041
61.432	13.283	1635.988	1242.424
62.447	13.274	1634.839	1241.368
63.461	13.224	1633.329	1239.738
64.476	13.155	1632.477	1238.469
65.490	13.158	1631.019	1237.271
66.505	13.197	1630.263	1236.880
67.520	13.221	1629.082	1236.057
68.534	13.211	1628.351	1235.316
69.549	13.298	1626.762	1234.649
70.563	13.232	1625.500	1233.093
71.578	13.235	1624.416	1232.183
72.593	13.189	1623.501	1231.037
73.607	13.115	1622.670	1229.748
74.622	13.076	1621.422	1228.404
75.636	13.066	1620.561	1227.571
76.651	13.106	1619.652	1227.071
77.666	13.035	1618.873	1225.842
78.680	13.207	1617.040	1225.620
79.695	13.125	1616.637	1224.598
80.709	13.078	1615.989	1223.651
81.724	13.177	1614.711	1223.312
82.739	13.230	1613.694	1222.821
83.753	13.266	1612.790	1222.293
84.768	13.301	1611.733	1221.646
85.782	13.385	1611.208	1221.761
86.797	13.404	1609.977	1220.860
87.812	13.374	1609.084	1219.853
88.826	13.414	1607.549	1218.877
89.841	13.189	1606.920	1216.630
90.855	13.339	1605.708	1216.711
91.870	13.320	1604.584	1215.613
92.884	13.415	1603.320	1215.243
93.899	13.417	1602.187	1214.293
94.914	13.395	1601.162	1213.247
95.928	13.319	1600.402	1212.004
96.943	13.468	1598.715	1211.715
97.957	13.527	1597.244	1210.925
98.972	13.523	1595.537	1209.490
99.987	13.422	1594.391	1207.781
101.001	13.442	1592.217	1206.168
102.016	13.426	1590.508	1204.653
103.030	13.393	1589.967	1203.899
104.045	13.528	1588.253	1203.473
105.060	13.409	1586.927	1201.499
106.074	13.401	1585.261	1200.069
107.089	13.287	1584.267	1198.388
108.103	13.240	1582.723	1196.770
109.118	13.172	1581.692	1195.398
110.133	13.284	1579.663	1194.569
111.147	13.278	1578.447	1193.497
112.162	13.199	1577.672	1192.235
113.176	13.238	1576.012	1191.156
114.191	13.351	1574.558	1190.769
115.206	13.300	1573.912	1189.804
116.220	13.327	1572.431	1188.778
117.235	13.366	1570.968	1187.846
118.249	13.344	1569.736	1186.651
119.264	13.280	1568.578	1185.212
120.279	13.293	1567.207	1184.164
121.293	13.205	1565.697	1182.286
122.308	13.305	1563.562	1181.281
123.322	13.227	1562.484	1179.809
124.337	13.257	1560.886	1178.710
125.352	13.206	1559.829	1177.448
126.366	13.225	1558.448	1176.437
127.381	13.238	1557.621	1175.801
128.395	13.230	1556.594	1174.862
129.410	13.262	1554.744	1173.592
130.424	13.273	1553.579	1172.684
131.439	13.290	1552.457	1171.851
132.454	13.262	1551.259	1170.645
133.468	13.351	1549.792	1170.069
134.483	13.387	1548.282	1169.077
135.497	13.375	1547.126	1168.015
136.512	13.372	1546.088	1167.105
137.527	13.361	1544.530	1165.752
138.541	13.378	1543.293	1164.831
139.556	13.470	1541.432	1163.976
140.570	13.377	1540.188	1162.276
141.585	13.509	1539.069	1162.255
142.600	13.473	1537.819	1160.956
143.614	13.522	1536.304	1160.057
144.629	13.578	1535.355	1159.630
145.643	13.635	1534.171	1159.029
146.658	13.566	1532.511	1157.194
147.673	13.579	1530.782	1155.872
148.687	13.568	1529.703	1154.878
149.702	13.550	1528.254	1153.561
150.716	13.500	1527.045	1152.198
151.731	13.514	1525.196	1150.794
152.746	13.513	1523.752	1149.598
153.760	13.481	1522.910	1148.642
154.775	13.536	1521.547	1147.892
155.789	13.536	1520.319	1146.865
156.804	13.658	1518.737	1146.409
157.819	13.643	1517.743	1145.456
158.833	13.664	1516.391	1144.477
159.848	13.675	1515.674	1143.911
160.862	13.680	1514.671	1143.092
161.877	13.729	1512.947	1142.026
162.892	13.667	1511.833	1140.652
163.906	13.651	1510.406	1139.368
164.921	13.536	1509.002	1137.419
165.935	13.545	1508.359	1136.894
166.950	13.569	1507.149	1136.050
167.964	13.593	1506.220	1135.409
168.979	13.730	1504.753	1135.143
169.994	13.640	1504.000	1133.861
171.008	13.664	1502.355	1132.679
172.023	13.669	1501.919	1132.284
173.037	13.781	1500.629	1131.978
174.052	13.745	1499.479	1130.766
175.067	13.808	1498.242	1130.163
176.081	13.751	1496.960	1128.710
177.096	13.597	1495.920	1126.773
178.110	13.650	1494.118	1125.679
179.125	13.722	1493.189	1125.369
180.140	13.742	1491.934	1124.457
181.154	13.750	1491.602	1124.163
182.169	13.839	1489.594	1123.155
183.183	13.765	1489.036	1122.134
184.198	13.777	1487.797	1121.178
185.213	13.786	1486.734	1120.340
186.227	13.938	1485.250	1120.148
187.242	13.946	1484.593	1119.604
188.256	13.928	1483.325	1118.429
189.271	13.904	1482.403	1117.473
190.286	14.085	1481.043	1117.564
191.300	13.963	1480.413	1116.175
192.315	13.828	1478.371	1113.632
193.329	13.817	1477.302	1112.651
194.344	13.822	1476.341	1111.863
195.359	13.825	1475.554	1111.195
196.373	13.847	1474.779	1110.659
197.388	13.878	1473.463	1109.775
198.402	13.939	1472.507	1109.367
199.417	13.911	1471.706	1108.476
200.432	14.118	1470.476	1108.833
201.446	14.035	1469.550	1107.482
202.461	14.155	1468.119	1107.104
203.475	14.177	1467.364	1106.586
204.490	14.172	1466.212	1105.582
205.504	14.156	1465.154	1104.583
206.519	14.189	1463.768	1103.655
207.534	14.173	1462.952	1102.839
208.548	14.070	1461.903	1101.269
209.563	14.112	1460.752	1100.579
210.577	14.167	1459.718	1100.072
211.592	14.222	1458.719	1099.582
212.607	14.175	1458.086	1098.698
213.621	14.243	1457.591	1098.676
214.636	14.323	1456.459	1098.256
215.650	14.258	1455.218	1096.795
216.665	14.305	1454.561	1096.509
217.680	14.314	1453.793	1095.895
218.694	14.331	1452.645	1095.042
219.709	14.320	1451.944	1094.343
220.723	14.349	1450.638	1093.454
221.738	14.473	1449.675	1093.447
222.753	14.375	1449.095	1092.267
223.767	14.412	1448.202	1091.742
224.782	14.318	1447.058	1090.166
225.796	14.416	1446.442	1090.247
226.811	14.518	1445.097	1089.801
227.826	14.496	1444.487	1089.100
228.840	14.507	1443.905	1088.638
229.855	14.465	1442.697	1087.360
230.869	14.461	1441.528	1086.357
231.884	14.401	1440.703	1085.248
232.899	14.421	1439.517	1084.387
233.913	14.453	1438.055	1083.400
234.928	14.430	1437.196	1082.507
235.942	14.295	1436.127	1080.726
236.957	14.481	1434.717	1080.779
237.972	14.310	1433.848	1078.920
238.986	14.417	1432.668	1078.627
240.001	14.430	1432.034	1078.138
241.015	14.444	1430.719	1077.148
242.030	14.481	1429.153	1076.106
243.045	14.440	1428.604	1075.337
244.059	14.605	1427.073	1075.151
245.074	14.668	1426.471	1075.009
246.088	14.571	1426.226	1074.105
247.103	14.630	1424.986	1073.454
248.117	14.655	1424.442	1073.110
249.132	14.602	1423.957	1072.313
250.147	14.652	1423.417	1072.132
251.161	14.817	1422.721	1072.573
252.176	14.989	1421.431	1072.604
253.190	14.975	1420.942	1072.055
254.205	14.966	1419.853	1071.080
255.220	15.011	1419.196	1070.773
256.234	14.980	1418.425	1069.900
257.249	14.959	1417.776	1069.181
258.263	15.021	1416.526	1068.538
259.278	15.098	1415.522	1068.180
260.293	15.065	1414.412	1067.040
261.307	14.999	1414.101	1066.288
262.322	15.070	1413.436	1066.145
263.336	15.124	1412.588	1065.752
264.351	15.139	1411.422	1064.874
265.366	15.158	1410.173	1063.958
266.380	15.198	1409.366	1063.513
267.395	15.168	1409.082	1063.014
268.409	15.196	1407.933	1062.226
269.424	15.256	1406.330	1061.306
270.439	15.354	1404.882	1060.736
271.453	15.213	1404.657	1059.584
272.468	15.153	1403.900	1058.536
273.482	15.199	1402.847	1057.944
274.497	15.178	1402.343	1057.334
275.512	15.225	1401.184	1056.667
276.526	15.213	1400.385	1055.894
277.541	15.188	1399.113	1054.682
278.555	15.211	1398.155	1054.012
279.570	15.127	1398.051	1053.310
280.585	15.246	1396.737	1052.975
281.599	15.344	1395.809	1052.799
282.614	15.314	1395.257	1052.101
283.628	15.364	1393.629	1051.093
284.643	15.347	1392.947	1050.377
285.657	15.394	1391.722	1049.658
286.672	15.331	1391.133	1048.727
287.687	15.337	1390.082	1047.878
288.701	15.340	1389.090	1047.057
289.716	15.395	1388.464	1046.834
290.730	15.371	1387.967	1046.215
291.745	15.420	1386.441	1045.280
292.760	15.444	1385.321	1044.495
293.774	15.489	1384.143	1043.792
294.789	15.438	1383.359	1042.789
295.803	15.448	1383.134	1042.593
296.818	15.565	1381.931	1042.321
297.833	15.555	1380.557	1041.131
298.847	15.526	1380.042	1040.470
299.862	15.503	1379.128	1039.548
300.876	15.574	1377.515	1038.677
301.891	15.530	1376.721	1037.717
302.906	15.526	1376.246	1037.241
303.920	15.572	1375.815	1037.107
304.935	15.657	1374.737	1036.729
305.949	15.660	1373.814	1035.960
306.964	15.680	1373.507	1035.754
307.979	15.795	1372.203	1035.390
308.993	15.754	1371.296	1034.364
310.008	15.759	1370.367	1033.603
311.022	15.717	1369.164	1032.341
312.037	15.787	1368.123	1031.895
313.052	15.783	1367.439	1031.265
314.066	15.792	1366.416	1030.456
315.081	15.792	1365.179	1029.436
316.095	15.704	1364.267	1028.114
317.110	15.802	1362.990	1027.661
318.125	15.781	1362.063	1026.745
319.139	15.730	1361.643	1026.024
320.154	15.878	1360.513	1025.983
321.168	15.856	1359.380	1024.904
322.183	15.849	1358.488	1024.103
323.197	15.723	1358.013	1022.882
324.212	15.899	1356.643	1022.832
325.227	15.885	1356.082	1022.232
326.241	15.813	1355.514	1021.277
327.256	15.849	1354.195	1020.412
328.270	15.850	1353.621	1019.898
329.285	15.895	1352.189	1018.999
330.300	15.974	1351.291	1018.706
331.314	15.848	1350.906	1017.566
332.329	15.953	1349.681	1017.188
333.343	15.920	1349.082	1016.449
334.358	15.988	1347.989	1015.944
335.373	16.047	1347.134	1015.564
336.387	16.022	1346.324	1014.715
337.402	15.970	1345.941	1014.023
338.416	15.968	1345.203	1013.362
339.431	16.070	1344.486	1013.351
340.446	16.159	1343.341	1012.932
341.460	16.207	1342.453	1012.458
342.475	16.121	1342.033	1011.536
343.489	16.149	1340.923	1010.777
344.504	16.207	1339.737	1010.141
345.519	16.250	1339.039	1009.784
346.533	16.223	1338.230	1008.925
347.548	16.307	1337.129	1008.505
348.562	16.363	1336.213	1008.063
349.577	16.378	1335.503	1007.524
350.592	16.296	1334.896	1006.487
351.606	16.270	1334.231	1005.745
352.621	16.284	1332.813	1004.667
353.635	16.261	1332.036	1003.858
354.650	16.201	1331.021	1002.648
355.665	16.251	1330.283	1002.297
356.679	16.243	1329.297	1001.421
357.694	16.343	1327.798	1000.794
358.708	16.221	1326.935	999.331
359.723	16.370	1326.115	999.508
360.738	16.353	1324.770	998.308
361.752	16.316	1324.089	997.488
362.767	16.450	1322.545	997.028
363.781	16.400	1321.814	996.094
364.796	16.532	1320.982	996.157
365.810	16.496	1320.081	995.172
366.825	16.552	1319.995	995.353
367.840	16.511	1318.697	994.043
368.854	16.527	1318.557	993.947
369.869	16.597	1317.812	993.706
370.883	16.627	1316.948	993.142
371.898	16.619	1316.618	992.761
372.913	16.692	1315.144	991.984
373.927	16.649	1314.384	991.073
374.942	16.641	1313.633	990.375
375.956	16.695	1312.892	990.045
376.971	16.736	1312.068	989.575
377.986	16.703	1311.270	988.694
379.000	16.696	1310.706	988.139
380.015	16.832	1309.491	987.926
381.029	16.770	1309.097	987.179
382.044	16.791	1308.229	986.561
383.059	16.940	1307.239	986.596
384.073	16.836	1306.738	985.525
385.088	16.791	1306.344	984.876
386.102	16.938	1305.699	985.156
387.117	16.976	1305.064	984.813
388.132	16.922	1304.173	983.740
389.146	16.860	1303.224	982.577
390.161	16.880	1302.030	981.708
391.175	16.885	1301.299	981.098
392.190	16.977	1300.904	981.247
393.205	16.895	1300.203	980.157
394.219	17.129	1298.601	980.214
395.234	17.040	1297.526	978.803
396.248	16.907	1296.899	977.478
397.263	16.985	1295.264	976.603
398.278	16.897	1294.165	975.183
399.292	16.980	1292.843	974.579
400.307	16.954	1291.970	973.687
401.321	17.012	1290.363	972.719
402.336	16.949	1289.785	971.838
403.350	16.995	1288.994	971.420
404.365	16.914	1288.072	970.173
405.380	17.028	1287.090	970.004
406.394	16.986	1286.487	969.221
407.409	17.022	1285.383	968.512
408.423	17.082	1285.047	968.513
409.438	17.158	1284.005	968.073
410.453	17.124	1283.437	967.365
411.467	17.257	1282.644	967.442
412.482	17.343	1282.082	967.422
413.496	17.190	1281.706	966.179
414.511	17.287	1280.755	965.927
415.526	17.384	1280.148	965.937
416.540	17.339	1279.321	964.971
417.555	17.349	1278.654	964.441
418.569	17.481	1277.961	964.580
419.584	17.481	1277.522	964.163
420.599	17.400	1277.085	963.290
421.613	97.359	1355.256	1477.707
422.628	95.115	1366.590	1477.823
