DTS Sentinel unit serial number:	SN413079Multiplexer serial number:	ORYXHardware model number:	OX4-SRSoftware version number:	ORYX F/W v4.00 Oryx Data Collector v3.7.2.0data status	okinstallation	princeton_trtdifferential loss correction	single-endedforward channel	channel 4reverse channel	N/Adate	2019/09/19time	09:17:35forward acquisition time	60.00reverse acquisition time	0.00gamma	496.2192k internal	0.2337k external	0.2337temperature offset calibration	1.0015default loss term (dB/km)	0.3790temperature slope calibration	1.0000multiplexer offset coefficient	1.0000multiplexer slope coefficient	1.0000fibre end	0.00T internal ref (°C)	22.23T ext. ref 1 (°C)	0.60T ext. ref 2 (°C)	19.43length (m)	temperature (°C)	Stokes	anti-Stokes-747.200	794.861	-0.079	0.218
-746.185	51.354	-0.382	0.364
-745.171	-11.030	0.094	-0.062
-744.156	800.000	0.099	0.359
-743.142	800.000	-0.123	0.520
-742.127	581.315	-0.098	0.240
-741.112	-177.576	0.224	-0.005
-740.098	50.610	-0.349	0.331
-739.083	52.719	0.247	0.237
-738.069	-200.000	-0.005	-0.031
-737.054	689.571	0.068	0.178
-736.039	-11.281	-0.480	0.317
-735.025	212.798	0.228	-0.362
-734.010	-175.803	-0.398	-0.011
-732.996	-30.943	-0.234	-0.133
-731.981	-54.018	-0.127	0.058
-730.966	-106.817	-0.300	-0.067
-729.952	-53.583	0.156	0.071
-728.937	-200.000	-0.055	-0.287
-727.923	168.119	-0.115	-0.165
-726.908	-75.846	0.404	-0.144
-725.894	443.990	0.095	-0.208
-724.879	-142.762	0.027	-0.003
-723.864	800.000	0.040	0.157
-722.850	-16.904	-0.094	0.059
-721.835	-11.399	-0.252	0.166
-720.821	-200.000	0.014	0.389
-719.806	-12.421	0.328	0.215
-718.791	800.000	-0.057	0.225
-717.777	304.582	-0.068	0.127
-716.762	-22.482	-0.152	0.093
-715.748	-200.000	0.012	-0.141
-714.733	-200.000	0.066	-0.325
-713.718	-142.719	0.147	-0.014
-712.704	-147.087	-0.199	0.017
-711.689	561.902	0.082	0.200
-710.675	55.447	0.130	-0.126
-709.660	64.897	-0.451	0.456
-708.645	367.388	0.038	-0.076
-707.631	-200.000	0.002	-0.310
-706.616	223.884	-0.090	0.145
-705.602	-200.000	0.021	0.130
-704.587	82.539	-0.163	0.177
-703.572	130.686	0.114	0.146
-702.558	530.692	-0.077	-0.182
-701.543	33.286	0.188	-0.163
-700.529	-96.621	-0.449	0.119
-699.514	-93.910	0.115	-0.032
-698.499	-200.000	0.023	-0.378
-697.485	-200.000	0.045	-0.198
-696.470	-20.203	-0.153	-0.094
-695.456	-37.713	0.281	-0.150
-694.441	-93.442	-0.205	0.057
-693.426	354.100	-0.098	-0.195
-692.412	800.000	0.022	0.070
-691.397	-200.000	-0.188	0.000
-690.383	89.248	-0.047	-0.052
-689.368	471.134	0.099	0.222
-688.354	347.503	-0.118	-0.232
-687.339	553.348	-0.159	-0.383
-686.324	2.411	0.254	0.184
-685.310	-200.000	-0.006	-0.089
-684.295	-89.159	0.198	0.058
-683.281	87.165	-0.122	-0.135
-682.266	-200.000	0.034	0.222
-681.251	-200.000	-0.048	0.306
-680.237	41.946	0.026	-0.023
-679.222	447.556	-0.111	0.245
-678.208	-53.000	0.037	0.017
-677.193	-152.638	0.143	0.010
-676.178	-156.114	-0.249	0.016
-675.164	337.881	-0.094	-0.184
-674.149	-106.582	0.029	0.006
-673.135	216.502	0.171	0.273
-672.120	33.842	-0.172	-0.150
-671.105	-12.432	-0.210	0.137
-670.091	-130.398	-0.236	-0.032
-669.076	-89.760	-0.191	0.056
-668.062	495.214	0.051	-0.118
-667.047	-38.062	-0.236	-0.125
-666.032	122.562	0.037	-0.047
-665.018	55.196	0.050	-0.049
-664.003	95.277	0.071	-0.081
-662.989	391.813	-0.057	0.118
-661.974	108.882	-0.063	-0.075
-660.959	56.150	-0.071	-0.069
-659.945	99.127	0.143	-0.165
-658.930	593.675	-0.096	0.237
-657.916	84.331	-0.101	-0.110
-656.901	130.028	0.078	-0.100
-655.886	800.000	0.021	0.065
-654.872	-138.649	0.121	-0.013
-653.857	718.091	0.062	0.165
-652.843	43.824	-0.089	-0.082
-651.828	800.000	-0.059	0.185
-650.814	63.022	-0.184	0.184
-649.799	327.707	-0.151	0.289
-648.784	-118.096	0.081	-0.014
-647.770	-109.682	-0.039	-0.008
-646.755	75.874	-0.096	0.101
-645.741	-200.000	0.002	-0.231
-644.726	126.592	-0.205	0.260
-643.711	-160.208	-0.115	0.006
-642.697	51.625	0.371	-0.352
-641.682	-80.404	-0.082	-0.027
-640.668	-200.000	0.056	0.248
-639.653	-18.105	-0.238	-0.149
-638.638	-8.709	0.192	-0.129
-637.624	422.564	0.120	0.257
-636.609	-200.000	-0.019	-0.107
-635.595	7.462	0.248	-0.185
-634.580	-200.000	-0.077	0.346
-633.565	-103.551	-0.472	0.111
-632.551	-200.000	-0.056	-0.265
-631.536	-147.220	-0.258	-0.022
-630.522	-200.000	-0.011	-0.243
-629.507	4.791	-0.124	-0.091
-628.492	-3.601	0.121	0.084
-627.478	12.330	0.159	0.122
-626.463	99.887	-0.116	-0.134
-625.449	800.000	-0.016	0.064
-624.434	-127.708	0.445	0.064
-623.419	-41.043	0.133	-0.069
-622.405	210.206	-0.048	0.075
-621.390	-200.000	-0.028	0.194
-620.376	-200.000	-0.013	0.099
-619.361	-200.000	0.033	-0.319
-618.346	-82.905	-0.120	0.039
-617.332	-200.000	-0.092	-0.487
-616.317	800.000	0.047	0.182
-615.303	-24.939	-0.233	-0.138
-614.288	-129.495	0.117	-0.016
-613.273	91.304	-0.106	0.119
-612.259	-173.194	0.142	-0.004
-611.244	-112.734	-0.139	-0.028
-610.230	28.026	0.334	0.282
-609.215	171.311	-0.214	-0.307
-608.201	-104.531	0.322	0.074
-607.186	-200.000	-0.085	0.383
-606.171	669.760	0.078	-0.202
-605.157	151.452	-0.061	-0.083
-604.142	175.775	-0.062	-0.090
-603.128	87.373	0.068	-0.075
-602.113	683.056	-0.149	-0.387
-601.098	25.160	-0.275	0.228
-600.084	-24.739	0.026	-0.015
-599.069	298.169	-0.144	-0.265
-598.055	-115.253	-0.089	0.017
-597.040	-76.519	-0.217	0.076
-596.025	-150.616	-0.167	0.013
-595.011	338.340	0.048	0.094
-593.996	65.519	0.081	0.081
-592.982	-19.325	0.209	-0.129
-591.967	-200.000	0.012	0.096
-590.952	-89.082	0.244	-0.072
-589.938	800.000	0.116	0.343
-588.923	-200.000	-0.016	-0.176
-587.909	59.149	-0.265	0.261
-586.894	-200.000	0.028	0.137
-585.879	55.993	0.297	-0.288
-584.865	-133.381	0.250	0.031
-583.850	800.000	0.068	0.191
-582.836	-96.146	-0.326	0.086
-581.821	-200.000	-0.056	0.259
-580.806	636.540	-0.117	-0.296
-579.792	-77.094	-0.095	-0.033
-578.777	307.768	-0.053	0.099
-577.763	-200.000	0.030	0.198
-576.748	32.648	0.148	-0.127
-575.733	800.000	-0.072	-0.232
-574.719	800.000	-0.072	0.238
-573.704	800.000	0.023	-0.077
-572.690	-185.770	-0.378	0.006
-571.675	-46.588	0.064	0.031
-570.661	31.607	-0.128	0.110
-569.646	-121.754	-0.249	0.041
-568.631	200.329	0.078	-0.119
-567.617	30.176	0.283	0.241
-566.602	-72.220	-0.309	0.114
-565.588	-200.000	-0.041	-0.210
-564.573	125.118	0.036	-0.046
-563.558	-200.000	0.012	0.063
-562.544	-136.253	-0.061	-0.007
-561.529	800.000	0.031	0.102
-560.515	-200.000	0.052	0.322
-559.500	-30.837	0.181	-0.102
-558.485	800.000	-0.094	-0.272
-557.471	800.000	-0.034	0.093
-556.456	52.642	0.176	0.168
-555.442	-75.347	0.073	-0.026
-554.427	432.393	-0.078	-0.169
-553.412	704.073	0.078	0.204
-552.398	-108.528	0.158	-0.034
-551.383	502.881	-0.164	-0.377
-550.369	-43.440	-0.196	0.099
-549.354	48.666	0.206	0.192
-548.339	288.206	0.111	0.200
-547.325	-124.080	-0.198	0.031
-546.310	59.658	0.317	0.312
-545.296	161.585	-0.199	0.278
-544.281	800.000	0.056	-0.232
-543.266	-138.396	-0.334	-0.037
-542.252	14.257	0.149	-0.116
-541.237	723.544	-0.123	0.327
-540.223	800.000	0.064	-0.272
-539.208	-200.000	-0.029	-0.243
-538.193	-200.000	-0.010	-0.274
-537.179	-153.715	-0.297	-0.020
-536.164	-200.000	-0.012	0.316
-535.150	-200.000	-0.063	0.303
-534.135	19.175	-0.164	0.131
-533.121	99.413	0.142	0.164
-532.106	130.046	0.159	0.202
-531.091	93.253	-0.198	-0.223
-530.077	-200.000	-0.018	0.118
-529.062	313.012	-0.060	-0.113
-528.048	-73.824	-0.151	0.055
-527.033	-10.779	0.252	-0.166
-526.018	-57.949	-0.077	-0.034
-525.004	-82.696	0.371	0.120
-523.989	265.620	0.130	0.225
-522.975	71.856	-0.102	0.105
-521.960	-175.450	0.093	0.003
-520.945	-54.959	0.236	0.106
-519.931	0.095	0.289	-0.205
-518.916	642.547	-0.024	0.060
-517.902	-200.000	-0.028	-0.355
-516.887	230.979	-0.074	0.120
-515.872	800.000	-0.113	-0.323
-514.858	-139.007	0.132	0.014
-513.843	-182.842	0.348	-0.006
-512.829	-172.203	0.182	-0.006
-511.814	-33.876	-0.413	-0.226
-510.799	163.360	0.212	0.296
-509.785	290.626	-0.156	0.282
-508.770	70.466	0.149	0.153
-507.756	-200.000	-0.014	0.087
-506.741	95.295	0.032	-0.037
-505.726	166.258	-0.139	0.196
-504.712	277.512	0.062	0.109
-503.697	217.966	-0.141	-0.224
-502.683	800.000	0.049	0.176
-501.668	-189.155	0.213	0.003
-500.653	-40.520	-0.250	-0.129
-499.639	30.876	0.232	0.198
-498.624	369.285	0.188	-0.379
-497.610	-200.000	0.052	0.265
-496.595	154.940	-0.158	0.216
-495.581	-200.000	0.013	-0.105
-494.566	-72.947	-0.191	-0.070
-493.551	-106.247	-0.320	0.071
-492.537	-89.534	0.363	-0.106
-491.522	-94.882	-0.156	0.042
-490.508	-30.215	-0.113	-0.064
-489.493	-65.493	-0.120	0.048
-488.478	55.722	-0.148	-0.142
-487.464	-72.977	-0.283	-0.103
-486.449	-111.177	0.342	0.070
-485.435	142.603	-0.139	0.184
-484.420	185.881	0.099	-0.146
-483.405	216.638	-0.051	0.081
-482.391	-37.503	0.252	-0.133
-481.376	-74.217	0.250	-0.090
-480.362	-200.000	0.001	-0.171
-479.347	67.810	0.265	0.269
-478.332	800.000	0.040	0.146
-477.318	-53.707	-0.138	-0.063
-476.303	-200.000	-0.029	-0.264
-475.289	125.147	0.249	-0.311
-474.274	412.324	0.268	-0.566
-473.259	-200.000	-0.009	-0.175
-472.245	-200.000	-0.068	0.350
-471.230	-42.680	-0.272	-0.138
-470.216	-80.792	0.224	-0.074
-469.201	122.288	0.106	0.132
-468.186	-82.110	-0.134	-0.043
-467.172	259.575	0.043	-0.074
-466.157	54.778	0.129	0.124
-465.143	-200.000	0.015	0.074
-464.128	-102.533	-0.297	-0.071
-463.113	-200.000	-0.009	0.067
-462.099	207.046	-0.146	0.225
-461.084	-128.573	0.408	0.057
-460.070	800.000	-0.103	0.409
-459.055	-139.988	0.051	0.005
-458.040	103.169	-0.094	-0.109
-457.026	494.778	-0.087	0.198
-456.011	-81.153	0.414	0.136
-454.997	82.681	-0.021	0.022
-453.982	-200.000	-0.005	-0.045
-452.968	-68.103	-0.297	0.115
-451.953	507.679	-0.083	-0.191
-450.938	-30.752	-0.020	-0.011
-449.924	-24.926	0.278	-0.164
-448.909	185.984	0.190	0.280
-447.895	-68.246	-0.344	-0.133
-446.880	26.299	0.256	-0.212
-445.865	-29.088	0.203	0.116
-444.851	-200.000	0.053	0.331
-443.836	404.163	0.173	0.361
-442.822	330.648	0.083	-0.159
-441.807	501.060	-0.022	-0.050
-440.792	-48.878	0.213	0.101
-439.778	19.244	0.080	0.064
-438.763	-99.089	-0.243	0.061
-437.749	56.317	-0.082	0.079
-436.734	-62.492	0.300	0.124
-435.719	250.623	-0.185	-0.312
-434.705	133.192	0.062	-0.079
-433.690	-15.262	-0.075	-0.048
-432.676	115.478	0.021	-0.026
-431.661	800.000	-0.093	-0.257
-430.646	-131.000	-0.279	-0.037
-429.632	-42.664	0.066	-0.034
-428.617	-51.473	-0.232	-0.108
-427.603	-84.160	0.196	-0.062
-426.588	11.937	-0.228	-0.174
-425.573	287.387	-0.120	-0.216
-424.559	-116.812	0.100	0.018
-423.544	-94.419	-0.357	0.097
-422.530	175.628	0.119	0.171
-421.515	-59.232	-0.200	0.086
-420.500	293.061	-0.190	0.343
-419.486	-17.436	-0.151	-0.094
-418.471	-200.000	-0.022	-0.356
-417.457	218.281	-0.194	0.307
-416.442	800.000	-0.120	0.516
-415.428	800.000	0.078	-0.331
-414.413	-75.527	0.424	-0.149
-413.398	-63.318	0.221	0.090
-412.384	-117.391	0.262	0.047
-411.369	-44.770	-0.306	0.151
-410.355	-4.029	-0.139	0.095
-409.340	3.282	-0.090	-0.065
-408.325	-200.000	-0.029	0.241
-407.311	800.000	-0.074	0.293
-406.296	-200.000	0.004	-0.039
-405.282	66.237	0.172	-0.173
-404.267	-75.240	0.335	0.119
-403.252	-141.883	0.140	0.014
-402.238	-22.735	-0.274	-0.164
-401.223	154.279	-0.044	0.060
-400.209	800.000	-0.119	-0.401
-399.194	-112.147	0.102	-0.020
-398.179	-4.703	0.119	0.081
-397.165	-140.243	-0.191	0.020
-396.150	-200.000	-0.075	-0.454
-395.136	800.000	-0.029	0.081
-394.121	-200.000	-0.021	-0.103
-393.106	-16.055	0.273	0.172
-392.092	249.147	0.091	-0.152
-391.077	30.892	0.296	0.251
-390.063	-71.571	-0.271	-0.100
-389.048	114.966	-0.176	-0.212
-388.033	800.000	0.049	0.202
-387.019	-200.000	0.061	-0.329
-386.004	-82.355	0.320	0.103
-384.990	17.661	-0.130	0.102
-383.975	54.090	0.142	-0.135
-382.960	-200.000	0.054	0.291
-381.946	800.000	-0.117	-0.401
-380.931	-76.260	0.062	-0.022
-379.917	-61.201	-0.223	-0.093
-378.902	248.681	-0.092	-0.154
-377.888	-167.961	0.279	-0.011
-376.873	40.289	-0.204	0.182
-375.858	-108.357	-0.066	0.014
-374.844	92.861	0.335	0.374
-373.829	-200.000	0.021	-0.236
-372.815	-133.689	-0.256	0.032
-371.800	80.879	0.187	-0.200
-370.785	-200.000	0.001	0.011
-369.771	-68.368	0.401	-0.154
-368.756	800.000	-0.136	-0.426
-367.742	112.770	-0.095	-0.114
-366.727	-15.259	0.181	0.115
-365.712	225.354	0.095	-0.152
-364.698	195.073	0.110	-0.165
-363.683	119.014	0.262	-0.321
-362.669	-117.903	-0.569	0.101
-361.654	32.663	-0.211	-0.181
-360.639	-200.000	0.030	-0.184
-359.625	186.107	0.231	-0.339
-358.610	-23.051	0.274	-0.163
-357.596	-200.000	-0.077	0.400
-356.581	-200.000	0.050	0.340
-355.566	278.907	0.065	-0.115
-354.552	-120.745	-0.233	0.039
-353.537	-152.481	-0.071	-0.005
-352.523	800.000	-0.066	-0.268
-351.508	-200.000	0.085	0.386
-350.493	-74.823	-0.211	0.075
-349.479	25.530	0.283	-0.233
-348.464	373.961	-0.158	-0.317
-347.450	-200.000	0.024	0.496
-346.435	-185.165	-0.513	-0.008
-345.420	18.191	0.118	0.093
-344.406	573.561	0.043	0.104
-343.391	-73.416	-0.155	-0.056
-342.377	-18.769	-0.166	-0.102
-341.362	142.380	0.068	-0.089
-340.348	-200.000	0.016	-0.195
-339.333	-151.188	-0.128	-0.009
-338.318	29.124	0.053	-0.045
-337.304	-199.269	0.028	-0.000
-336.289	29.983	-0.120	0.101
-335.275	-8.909	0.051	-0.034
-334.260	-114.783	-0.528	0.100
-333.245	-148.027	-0.108	-0.009
-332.231	241.106	0.061	0.101
-331.216	416.815	0.056	0.119
-330.202	19.170	0.048	-0.038
-329.187	396.682	0.050	-0.102
-328.172	-150.960	-0.191	0.014
-327.158	-9.093	0.289	-0.191
-326.143	90.148	0.190	0.210
-325.129	236.251	0.082	-0.133
-324.114	-120.334	-0.098	-0.016
-323.099	-200.000	-0.024	-0.208
-322.085	-90.023	-0.203	-0.058
-321.070	-200.000	0.039	-0.205
-320.056	-200.000	0.027	0.155
-319.041	-115.357	-0.213	0.040
-318.026	-5.323	-0.249	-0.169
-317.012	17.131	-0.091	-0.071
-315.997	-42.217	-0.338	-0.170
-314.983	112.639	-0.239	0.285
-313.968	132.145	-0.034	-0.043
-312.953	-200.000	0.020	-0.279
-311.939	-2.028	-0.156	-0.108
-310.924	80.423	0.135	0.143
-309.910	-121.260	-0.394	-0.065
-308.895	-88.499	-0.159	-0.047
-307.880	-7.135	0.121	-0.081
-306.866	-51.704	-0.263	-0.121
-305.851	-17.415	-0.056	0.035
-304.837	-200.000	0.038	0.243
-303.822	327.176	-0.135	-0.255
-302.807	-19.400	-0.411	0.252
-301.793	-200.000	0.022	-0.159
-300.778	455.812	0.130	0.284
-299.764	119.892	0.105	0.128
-298.749	-59.687	0.284	0.120
-297.735	-200.000	0.004	-0.247
-296.720	637.469	0.073	-0.184
-295.705	-200.000	-0.030	-0.201
-294.691	-115.359	-0.176	0.033
-293.676	15.713	0.282	0.219
-292.662	51.932	-0.198	0.186
-291.647	-18.448	0.097	-0.060
-290.632	59.810	-0.068	-0.066
-289.618	123.251	-0.219	0.271
-288.603	-200.000	-0.041	-0.219
-287.589	381.488	0.056	0.114
-286.574	-105.250	-0.207	0.047
-285.559	13.570	-0.272	-0.208
-284.545	-175.681	-0.240	-0.006
-283.530	-162.441	0.249	-0.012
-282.516	-45.985	-0.055	-0.027
-281.501	565.404	-0.058	0.138
-280.486	800.000	-0.097	0.300
-279.472	307.203	-0.076	-0.139
-278.457	800.000	0.045	-0.173
-277.443	-42.914	-0.392	-0.196
-276.428	-200.000	0.034	-0.223
-275.413	16.685	-0.170	-0.132
-274.399	9.136	-0.244	-0.182
-273.384	-89.150	0.276	-0.080
-272.370	32.367	0.181	0.154
-271.355	-200.000	0.014	0.088
-270.340	-68.407	-0.176	0.067
-269.326	-26.892	0.188	-0.108
-268.311	-200.000	0.041	0.211
-267.297	-10.039	-0.391	-0.256
-266.282	121.045	0.078	0.096
-265.267	-84.788	-0.066	-0.020
-264.253	-50.670	-0.161	-0.075
-263.238	168.106	0.162	-0.228
-262.224	4.093	0.137	-0.099
-261.209	-200.000	0.003	0.140
-260.195	-0.719	0.058	-0.040
-259.180	491.081	0.092	-0.207
-258.165	41.427	0.185	0.165
-257.151	-57.286	0.275	-0.119
-256.136	420.275	0.177	0.374
-255.122	-145.870	-0.176	0.015
-254.107	52.152	-0.247	0.232
-253.092	800.000	0.018	-0.069
-252.078	-78.348	0.418	-0.141
-251.063	200.724	0.077	-0.117
-250.049	-56.930	0.120	-0.052
-249.034	0.380	-0.096	0.067
-248.019	-104.533	0.223	0.051
-247.005	11.961	-0.381	0.289
-245.990	-25.121	-0.151	0.088
-244.976	172.848	-0.159	-0.226
-243.961	-119.561	0.232	-0.040
-242.946	-45.259	-0.181	0.088
-241.932	-120.901	-0.134	-0.022
-240.917	-162.821	-0.106	-0.005
-239.903	174.400	-0.105	0.150
-238.888	730.887	0.032	-0.084
-237.873	-88.779	-0.118	0.035
-236.859	-45.841	0.210	0.102
-235.844	175.041	-0.077	-0.109
-234.830	-200.000	-0.001	0.038
-233.815	167.347	0.085	-0.118
-232.800	-21.703	0.443	0.266
-231.786	-64.448	-0.179	0.071
-230.771	-67.933	-0.010	0.004
-229.757	45.180	0.033	-0.030
-228.742	-144.337	0.127	-0.012
-227.727	95.742	-0.136	0.153
-226.713	-200.000	0.000	-0.257
-225.698	33.184	0.163	-0.139
-224.684	-86.536	0.362	0.109
-223.669	115.444	-0.047	-0.056
-222.655	379.113	-0.101	-0.203
-221.640	800.000	-0.034	0.145
-220.625	-124.004	0.292	0.045
-219.611	-31.069	0.215	-0.119
-218.596	252.539	0.120	0.201
-217.582	-140.330	0.530	-0.054
-216.567	-200.000	0.012	0.329
-215.552	800.000	0.090	0.332
-214.538	-134.401	-0.188	-0.023
-213.523	-55.907	0.194	-0.085
-212.509	539.014	0.169	-0.396
-211.494	800.000	0.114	-0.343
-210.479	-25.372	-0.102	-0.059
-209.465	17.762	0.202	-0.158
-208.450	-57.682	-0.135	-0.058
-207.436	800.000	0.114	0.444
-206.421	-34.411	0.228	0.123
-205.406	-200.000	-0.003	0.263
-204.392	-142.699	0.053	-0.005
-203.377	182.173	0.040	-0.058
-202.363	-27.283	0.070	0.040
-201.348	800.000	0.093	-0.390
-200.333	-90.377	0.166	0.047
-199.319	205.249	0.086	-0.131
-198.304	-93.787	-0.051	0.014
-197.290	256.393	0.026	0.044
-196.275	83.550	-0.213	0.228
-195.260	114.270	0.251	0.300
-194.246	-200.000	0.054	0.630
-193.231	410.814	-0.083	0.172
-192.217	-153.479	-0.427	-0.029
-191.202	800.000	0.067	-0.190
-190.187	-78.041	0.131	-0.044
-189.173	-156.660	-0.398	0.024
-188.158	104.216	0.092	-0.107
-187.144	-101.105	-0.272	0.065
-186.129	498.485	0.065	-0.148
-185.114	-160.408	-0.250	0.013
-184.100	800.000	-0.035	-0.151
-183.085	-200.000	0.038	0.345
-182.071	800.000	0.053	-0.224
-181.056	181.685	-0.213	-0.308
-180.042	-43.210	0.386	0.192
-179.027	-161.922	0.501	-0.025
-178.012	336.121	0.242	-0.461
-176.998	-60.578	-0.187	0.078
-175.983	-67.593	0.214	-0.082
-174.969	662.773	-0.060	0.151
-173.954	108.531	-0.142	0.167
-172.939	-200.000	0.031	-0.158
-171.925	-25.303	-0.229	0.133
-170.910	-200.000	0.024	-0.396
-169.896	-200.000	0.019	0.225
-168.881	-73.820	-0.208	-0.074
-167.866	-112.279	0.212	0.042
-166.852	130.425	0.218	0.274
-165.837	182.984	-0.135	0.195
-164.823	-119.194	0.307	0.053
-163.808	242.826	0.117	-0.192
-162.793	182.020	0.108	0.156
-161.779	800.000	0.174	0.489
-160.764	48.308	0.100	-0.092
-159.750	-200.000	-0.035	-0.296
-158.735	518.539	-0.110	0.253
-157.720	800.000	0.034	0.147
-156.706	-32.572	0.142	0.078
-155.691	-42.852	-0.147	0.073
-154.677	279.688	-0.142	0.249
-153.662	110.545	0.097	-0.114
-152.647	114.911	-0.050	-0.060
-151.633	68.338	0.292	-0.294
-150.618	330.257	-0.027	0.051
-149.604	30.395	0.152	-0.127
-148.589	21.042	0.193	-0.154
-147.574	63.450	0.133	0.131
-146.560	59.884	-0.047	0.046
-145.545	-12.418	-0.061	-0.039
-144.531	800.000	0.038	-0.141
-143.516	274.789	0.075	0.131
-142.502	-111.720	-0.112	0.022
-141.487	-120.568	0.244	0.041
-140.472	-152.221	0.171	0.012
-139.458	409.868	-0.034	-0.070
-138.443	328.458	0.058	0.109
-137.429	-47.498	-0.148	0.071
-136.414	-172.337	-0.294	-0.009
-135.399	190.313	-0.244	-0.359
-134.385	-90.274	0.085	0.024
-133.370	-21.899	-0.255	-0.152
-132.356	158.022	0.149	0.202
-131.341	116.040	-0.069	-0.083
-130.326	231.734	-0.054	0.088
-129.312	514.257	-0.099	-0.225
-128.297	381.425	0.174	-0.350
-127.283	108.930	-0.261	-0.306
-126.268	-67.239	-0.065	-0.025
-125.253	150.297	0.204	-0.272
-124.239	-62.368	-0.224	-0.092
-123.224	-35.300	0.165	0.088
-122.210	364.034	-0.107	-0.210
-121.195	49.725	-0.172	0.159
-120.180	-173.013	0.343	-0.010
-119.166	346.907	0.093	-0.180
-118.151	478.943	-0.062	0.138
-117.137	-47.072	0.276	-0.132
-116.122	-101.779	0.168	0.040
-115.107	-23.251	-0.142	-0.084
-114.093	-57.328	-0.276	0.119
-113.078	-44.464	-0.033	-0.016
-112.064	-142.266	0.334	-0.032
-111.049	-104.868	0.210	0.047
-110.034	-166.240	-0.143	0.006
-109.020	-142.778	-0.145	-0.014
-108.005	342.180	-0.125	-0.240
-106.991	-91.432	0.188	-0.053
-105.976	-38.047	-0.269	-0.140
-104.962	800.000	0.033	-0.126
-103.947	-200.000	-0.001	0.020
-102.932	70.389	0.075	-0.076
-101.918	321.750	0.075	-0.141
-100.903	194.051	-0.147	0.219
-99.889	300.326	0.038	0.069
-98.874	800.000	-0.014	-0.048
-97.859	-150.920	0.096	0.007
-96.845	800.000	0.081	0.261
-95.830	248.371	-0.059	0.097
-94.816	-49.186	-0.139	-0.065
-93.801	273.724	0.054	-0.094
-92.786	-12.809	0.263	0.168
-91.772	5.879	0.215	-0.155
-90.757	-200.000	0.018	0.251
-89.743	-63.703	0.112	0.045
-88.728	800.000	-0.107	0.382
-87.713	-105.050	-0.232	-0.052
-86.699	800.000	-0.057	0.169
-85.684	395.788	0.143	-0.292
-84.670	136.233	0.020	-0.025
-83.655	321.296	-0.063	-0.117
-82.640	-138.134	-0.282	0.031
-81.626	-200.000	-0.053	0.303
-80.611	749.205	0.142	0.374
-79.597	-18.900	-0.124	-0.075
-78.582	800.000	0.098	0.324
-77.567	-200.000	-0.064	0.281
-76.553	116.803	-0.202	0.242
-75.538	800.000	-0.029	-0.085
-74.524	295.338	0.084	-0.150
-73.509	162.792	-0.162	-0.223
-72.494	-151.391	0.027	-0.002
-71.480	699.256	-0.066	0.171
-70.465	-200.000	-0.031	0.154
-69.451	-88.487	-0.082	0.024
-68.436	264.060	-0.182	-0.310
-67.422	198.725	-0.099	-0.148
-66.407	188.888	-0.071	0.103
-65.392	199.160	-0.241	0.360
-64.378	-126.538	-0.246	0.036
-63.363	-51.819	0.069	0.031
-62.349	-200.000	-0.001	0.090
-61.334	150.443	-0.821	-1.090
-60.319	54.326	0.772	0.726
-59.305	800.000	-0.327	-0.978
-58.290	539.011	0.659	1.531
-57.276	442.570	0.679	1.453
-56.261	-200.000	126.051	627.442
-55.246	368.944	1609.030	3181.057
-54.232	133.981	2793.200	3535.043
-53.217	83.411	2367.593	2520.628
-52.203	28.823	2106.321	1743.616
-51.188	23.916	2019.788	1627.150
-50.173	22.813	2003.919	1604.281
-49.159	40.631	2077.631	1829.362
-48.144	38.603	2089.940	1821.289
-47.130	24.333	2042.294	1648.875
-46.115	22.247	2031.068	1620.544
-45.100	22.216	2027.783	1617.570
-44.086	22.163	2025.376	1615.100
-43.071	22.119	2022.717	1612.510
-42.057	22.080	2021.332	1610.990
-41.042	22.126	2019.502	1609.890
-40.027	22.154	2017.102	1608.164
-39.013	22.121	2015.522	1606.538
-37.998	22.209	2013.555	1605.711
-36.984	22.157	2012.179	1604.073
-35.969	22.157	2010.490	1602.672
-34.954	22.125	2008.782	1600.951
-33.940	22.194	2007.246	1600.292
-32.925	22.223	2005.500	1599.097
-31.911	22.203	2003.668	1597.397
-30.896	22.257	2002.469	1596.869
-29.881	22.235	2000.675	1595.175
-28.867	22.259	1998.753	1593.797
-27.852	22.316	1997.213	1593.015
-26.838	22.325	1994.705	1591.032
-25.823	22.265	1993.786	1589.694
-24.809	22.221	1992.131	1587.919
-23.794	22.253	1990.443	1586.801
-22.779	22.306	1988.392	1585.573
-21.765	22.227	1987.127	1583.794
-20.750	22.362	1984.921	1583.191
-19.736	22.245	1983.407	1580.862
-18.721	22.299	1981.695	1579.924
-17.706	22.138	1980.461	1577.432
-16.692	22.218	1978.482	1576.509
-15.677	22.241	1977.164	1575.603
-14.663	22.282	1975.363	1574.476
-13.648	22.263	1974.360	1573.437
-12.633	22.207	1973.622	1572.286
-11.619	22.221	1972.179	1571.205
-10.604	22.259	1970.496	1570.135
-9.590	22.256	1969.384	1569.166
-8.575	22.226	1967.985	1567.717
-7.560	22.287	1966.130	1566.722
-6.546	22.380	1964.761	1566.398
-5.531	22.263	1964.299	1564.922
-4.517	22.214	1962.764	1563.207
-3.502	22.213	1961.458	1562.091
-2.487	22.257	1960.210	1561.427
-1.473	22.309	1959.261	1561.067
-0.458	22.369	1954.176	1557.492
0.556	21.281	1935.341	1533.005
1.571	17.588	1918.034	1486.986
2.586	14.310	1943.028	1477.200
3.600	13.550	1979.956	1498.272
4.615	13.398	1972.284	1490.960
5.629	10.368	1869.673	1387.356
6.644	4.182	1754.898	1252.221
7.659	0.877	1722.105	1202.482
8.673	0.685	1719.239	1198.851
9.688	0.656	1718.286	1197.847
10.702	0.577	1716.780	1196.066
11.717	0.492	1712.462	1192.283
12.731	0.901	1710.764	1194.220
13.746	5.404	1721.103	1237.019
14.761	12.217	1734.739	1300.876
15.775	16.113	1742.126	1337.255
16.790	16.987	1742.552	1344.389
17.804	16.164	1739.014	1335.027
18.819	15.246	1735.927	1325.288
19.834	14.598	1733.842	1318.459
20.848	14.390	1731.630	1315.022
21.863	14.159	1730.197	1311.993
22.877	13.822	1729.004	1308.315
23.892	13.632	1727.342	1305.448
24.907	13.475	1726.526	1303.479
25.921	13.483	1725.020	1302.285
26.936	13.479	1724.280	1301.585
27.950	13.492	1723.393	1300.897
28.965	13.562	1722.950	1300.998
29.980	13.617	1721.608	1300.306
30.994	13.731	1720.474	1300.223
32.009	13.683	1719.976	1299.357
33.023	13.745	1718.523	1298.634
34.038	13.763	1718.258	1298.457
35.053	13.722	1716.971	1297.048
36.067	13.712	1716.237	1296.302
37.082	13.732	1714.700	1295.185
38.096	13.766	1713.954	1294.765
39.111	13.719	1713.093	1293.641
40.126	13.736	1711.691	1292.597
41.140	13.752	1710.842	1291.963
42.155	13.556	1710.068	1289.745
43.169	13.565	1708.578	1288.574
44.184	13.448	1708.108	1287.196
45.199	13.435	1706.657	1285.884
46.213	13.511	1704.546	1284.769
47.228	13.512	1703.788	1284.094
48.242	13.563	1702.329	1283.276
49.257	13.656	1701.338	1283.133
50.271	13.610	1700.189	1281.797
51.286	13.621	1699.052	1280.916
52.301	13.675	1697.485	1280.034
53.315	13.639	1695.552	1278.188
54.330	13.618	1694.284	1276.957
55.344	13.560	1692.821	1275.292
56.359	13.565	1691.817	1274.462
57.374	13.553	1690.181	1273.029
58.388	13.584	1688.819	1272.128
59.403	13.481	1687.537	1270.257
60.417	13.524	1686.221	1269.483
61.432	13.567	1684.890	1268.702
62.447	13.504	1683.571	1267.114
63.461	13.484	1681.967	1265.642
64.476	13.525	1681.125	1265.208
65.490	13.459	1680.094	1263.816
66.505	13.478	1679.208	1263.184
67.520	13.453	1677.930	1261.917
68.534	13.497	1676.798	1261.293
69.549	13.488	1675.724	1260.303
70.563	13.477	1674.400	1259.114
71.578	13.573	1672.910	1258.609
72.593	13.468	1672.138	1257.120
73.607	13.542	1670.334	1256.217
74.622	13.407	1669.875	1254.735
75.636	13.434	1668.747	1253.984
76.651	13.428	1667.733	1253.065
77.666	13.419	1666.620	1252.050
78.680	13.392	1666.069	1251.320
79.695	13.430	1664.735	1250.495
80.709	13.380	1664.114	1249.538
81.724	13.576	1662.423	1249.633
82.739	13.548	1661.917	1248.935
83.753	13.509	1661.172	1247.968
84.768	13.516	1660.295	1247.255
85.782	13.621	1659.280	1247.171
86.797	13.684	1658.462	1246.917
87.812	13.683	1656.819	1245.569
88.826	13.647	1655.752	1244.386
89.841	13.538	1654.596	1242.586
90.855	13.578	1653.827	1242.202
91.870	13.606	1652.483	1241.291
92.884	13.691	1651.270	1240.902
93.899	13.651	1650.360	1239.810
94.914	13.596	1649.268	1238.471
95.928	13.592	1648.109	1237.464
96.943	13.694	1646.183	1236.669
97.957	13.720	1644.939	1235.820
98.972	13.602	1643.761	1233.947
99.987	13.700	1641.496	1232.862
101.001	13.691	1640.244	1231.747
102.016	13.668	1638.899	1230.458
103.030	13.626	1637.301	1228.834
104.045	13.632	1636.276	1228.005
105.060	13.616	1634.971	1226.796
106.074	13.580	1633.367	1225.220
107.089	13.659	1631.511	1224.299
108.103	13.489	1630.324	1222.048
109.118	13.645	1628.563	1221.770
110.133	13.560	1626.767	1219.686
111.147	13.530	1625.293	1218.252
112.162	13.462	1624.254	1216.871
113.176	13.502	1622.823	1215.984
114.191	13.533	1621.938	1215.441
115.206	13.686	1620.210	1215.156
116.220	13.551	1619.287	1213.367
117.235	13.477	1617.844	1211.642
118.249	13.526	1616.198	1210.660
119.264	13.575	1615.174	1210.143
120.279	13.509	1613.609	1208.383
121.293	13.589	1612.319	1207.888
122.308	13.661	1610.255	1206.762
123.322	13.515	1609.383	1204.943
124.337	13.587	1608.075	1204.375
125.352	13.571	1606.741	1203.155
126.366	13.501	1605.921	1201.929
127.381	13.483	1604.325	1200.491
128.395	13.546	1602.912	1199.787
129.410	13.639	1601.213	1199.080
130.424	13.563	1599.819	1197.382
131.439	13.495	1598.953	1196.137
132.454	13.613	1597.230	1195.595
133.468	13.570	1596.048	1194.294
134.483	13.544	1594.468	1192.818
135.497	13.667	1593.350	1192.765
136.512	13.611	1591.604	1190.947
137.527	13.643	1589.841	1189.750
138.541	13.638	1588.997	1188.982
139.556	13.621	1587.666	1187.759
140.570	13.680	1586.089	1186.894
141.585	13.617	1584.550	1185.190
142.600	13.633	1583.714	1184.573
143.614	13.737	1582.025	1183.948
144.629	13.761	1580.872	1183.150
145.643	13.736	1579.475	1181.819
146.658	13.888	1577.988	1181.683
147.673	13.760	1576.944	1179.886
148.687	13.794	1575.144	1178.682
149.702	13.816	1573.360	1177.394
150.716	13.768	1571.889	1175.854
151.731	13.814	1570.558	1175.076
152.746	13.724	1569.651	1173.658
153.760	13.810	1567.925	1172.873
154.775	13.788	1566.595	1171.619
155.789	13.860	1565.031	1170.850
156.804	13.855	1564.069	1169.992
157.819	13.907	1562.272	1168.910
158.833	13.855	1561.737	1168.038
159.848	14.004	1559.981	1167.669
160.862	14.005	1559.010	1166.851
161.877	14.009	1557.712	1165.800
162.892	13.995	1556.455	1164.662
163.906	13.933	1554.918	1162.976
164.921	13.954	1553.976	1162.311
165.935	13.918	1552.867	1161.129
166.950	13.881	1551.989	1160.113
167.964	13.936	1550.785	1159.490
168.979	13.934	1549.544	1158.447
169.994	13.958	1548.644	1157.841
171.008	14.004	1547.174	1156.958
172.023	13.898	1546.304	1155.469
173.037	13.983	1545.051	1155.017
174.052	14.067	1543.841	1154.597
175.067	14.109	1543.042	1154.185
176.081	14.042	1541.581	1152.529
177.096	14.017	1540.094	1151.140
178.110	13.999	1538.848	1149.982
179.125	13.946	1537.970	1148.857
180.140	13.978	1536.908	1148.189
181.154	14.046	1535.602	1147.576
182.169	14.126	1534.346	1147.088
183.183	14.142	1532.972	1146.072
184.198	14.142	1531.985	1145.230
185.213	14.164	1530.983	1144.532
186.227	14.227	1529.859	1144.025
187.242	14.176	1529.008	1142.939
188.256	14.206	1527.946	1142.245
189.271	14.277	1526.862	1141.821
190.286	14.388	1525.606	1141.543
191.300	14.241	1525.030	1140.004
192.315	14.186	1523.443	1138.342
193.329	14.081	1522.167	1136.569
194.344	14.100	1521.035	1135.752
195.359	14.098	1520.503	1135.241
196.373	14.171	1519.212	1134.678
197.388	14.288	1517.943	1134.427
198.402	14.243	1517.298	1133.535
199.417	14.290	1515.907	1132.714
200.432	14.395	1514.120	1131.991
201.446	14.466	1513.178	1131.675
202.461	14.440	1512.408	1130.821
203.475	14.393	1511.110	1129.427
204.490	14.497	1510.277	1129.410
205.504	14.549	1508.772	1128.540
206.519	14.433	1508.097	1127.147
207.534	14.459	1506.577	1126.091
208.548	14.407	1505.677	1124.964
209.563	14.416	1504.508	1124.055
210.577	14.505	1503.564	1123.849
211.592	14.465	1502.679	1122.817
212.607	14.424	1502.597	1122.379
213.621	14.611	1501.079	1122.407
214.636	14.592	1499.890	1121.287
215.650	14.586	1499.366	1120.758
216.665	14.560	1498.158	1119.583
217.680	14.569	1497.349	1118.936
218.694	14.533	1497.335	1118.587
219.709	14.634	1495.621	1117.883
220.723	14.776	1494.502	1117.901
221.738	14.664	1493.504	1116.308
222.753	14.695	1492.610	1115.743
223.767	14.709	1491.524	1114.928
224.782	14.679	1490.507	1113.871
225.796	14.780	1489.635	1113.795
226.811	14.730	1489.066	1112.938
227.826	14.876	1487.819	1112.878
228.840	14.759	1487.453	1111.724
229.855	14.724	1486.448	1110.642
230.869	14.710	1485.406	1109.673
231.884	14.748	1484.037	1108.804
232.899	14.759	1482.845	1107.887
233.913	14.712	1482.208	1107.003
234.928	14.804	1480.633	1106.342
235.942	14.697	1479.269	1104.512
236.957	14.752	1478.099	1103.910
237.972	14.846	1476.477	1103.215
238.986	14.754	1475.686	1101.920
240.001	14.821	1474.889	1101.672
241.015	14.838	1474.255	1101.210
242.030	14.813	1472.811	1099.869
243.045	14.815	1471.842	1099.063
244.059	14.971	1470.815	1099.225
245.074	14.903	1470.018	1098.086
246.088	14.934	1469.277	1097.637
247.103	14.959	1468.274	1096.953
248.117	15.027	1467.370	1096.629
249.132	14.980	1466.527	1095.595
250.147	15.091	1465.883	1095.741
251.161	15.042	1465.578	1095.100
252.176	15.229	1464.478	1095.401
253.190	15.141	1463.610	1094.080
254.205	15.225	1462.688	1093.839
255.220	15.235	1461.368	1092.823
256.234	15.192	1461.095	1092.244
257.249	15.242	1459.978	1091.636
258.263	15.213	1459.873	1091.271
259.278	15.309	1458.147	1090.511
260.293	15.306	1457.520	1089.925
261.307	15.367	1456.841	1089.714
262.322	15.390	1455.685	1088.905
263.336	15.385	1454.980	1088.247
264.351	15.372	1454.083	1087.394
265.366	15.381	1453.010	1086.556
266.380	15.500	1452.055	1086.517
267.395	15.457	1450.957	1085.320
268.409	15.432	1450.313	1084.581
269.424	15.487	1448.999	1083.860
270.439	15.432	1448.517	1083.044
271.453	15.460	1447.269	1082.198
272.468	15.501	1446.314	1081.651
273.482	15.557	1445.504	1081.315
274.497	15.530	1444.574	1080.345
275.512	15.438	1444.193	1079.377
276.526	15.510	1443.270	1079.055
277.541	15.561	1442.246	1078.519
278.555	15.612	1440.864	1077.715
279.570	15.628	1439.898	1077.000
280.585	15.634	1439.131	1076.373
281.599	15.606	1438.388	1075.539
282.614	15.668	1437.310	1075.036
283.628	15.606	1436.138	1073.665
284.643	15.685	1434.984	1073.217
285.657	15.685	1433.986	1072.374
286.672	15.658	1433.282	1071.580
287.687	15.702	1432.139	1070.909
288.701	15.663	1431.129	1069.814
289.716	15.685	1430.369	1069.289
290.730	15.805	1429.502	1069.310
291.745	15.720	1428.551	1067.964
292.760	15.735	1427.301	1067.027
293.774	15.723	1426.656	1066.378
294.789	15.715	1425.457	1065.337
295.803	15.757	1424.839	1065.043
296.818	15.914	1423.604	1065.023
297.833	15.897	1422.516	1064.006
298.847	15.832	1421.698	1062.889
299.862	15.881	1420.731	1062.382
300.876	15.909	1419.412	1061.476
301.891	15.905	1418.660	1060.796
302.906	15.864	1417.973	1059.930
303.920	15.990	1416.847	1059.786
304.935	15.998	1416.195	1059.256
305.949	16.028	1415.193	1058.599
306.964	16.063	1414.782	1058.418
307.979	16.101	1413.569	1057.656
308.993	16.067	1412.931	1056.871
310.008	16.079	1411.912	1056.093
311.022	16.183	1410.498	1055.590
312.037	16.162	1409.676	1054.755
313.052	16.176	1408.704	1054.019
314.066	16.102	1408.089	1053.002
315.081	16.148	1406.711	1052.165
316.095	16.188	1405.273	1051.249
317.110	16.170	1404.778	1050.670
318.125	16.125	1403.722	1049.510
319.139	16.124	1402.671	1048.624
320.154	16.172	1401.575	1048.013
321.168	16.160	1400.631	1047.138
322.183	16.088	1400.339	1046.383
323.197	16.147	1399.155	1045.767
324.212	16.206	1398.295	1045.396
325.227	16.179	1397.173	1044.303
326.241	16.256	1396.062	1043.857
327.256	16.176	1395.956	1043.185
328.270	16.286	1394.877	1042.971
329.285	16.229	1393.710	1041.653
330.300	16.249	1392.828	1041.022
331.314	16.297	1391.734	1040.413
332.329	16.269	1391.035	1039.624
333.343	16.275	1390.084	1038.858
334.358	16.370	1388.933	1038.489
335.373	16.384	1388.443	1038.116
336.387	16.538	1387.120	1037.979
337.402	16.480	1386.622	1037.159
338.416	16.321	1386.235	1035.802
339.431	16.463	1385.390	1035.951
340.446	16.452	1384.820	1035.368
341.460	16.543	1383.468	1034.819
342.475	16.528	1382.780	1034.123
343.489	16.544	1381.576	1033.229
344.504	16.607	1380.702	1032.869
345.519	16.536	1379.917	1031.754
346.533	16.596	1379.103	1031.424
347.548	16.652	1378.245	1031.031
348.562	16.699	1377.118	1030.380
349.577	16.680	1376.456	1029.680
350.592	16.627	1376.033	1028.948
351.606	16.718	1374.640	1028.373
352.621	16.612	1373.691	1026.927
353.635	16.619	1372.606	1026.066
354.650	16.619	1371.694	1025.296
355.665	16.609	1370.651	1024.362
356.679	16.676	1369.882	1024.102
357.694	16.601	1368.775	1022.729
358.708	16.669	1367.620	1022.191
359.723	16.692	1366.789	1021.616
360.738	16.740	1365.763	1021.049
361.752	16.785	1364.366	1020.187
362.767	16.834	1362.868	1019.271
363.781	16.733	1362.627	1018.392
364.796	16.855	1361.657	1018.308
365.810	16.761	1361.267	1017.361
366.825	16.929	1359.938	1017.286
367.840	16.902	1359.462	1016.682
368.854	16.866	1358.442	1015.613
369.869	16.974	1358.120	1015.926
370.883	16.963	1357.414	1015.243
371.898	16.957	1356.648	1014.543
372.913	16.961	1355.822	1013.862
373.927	16.947	1355.116	1013.162
374.942	16.940	1354.118	1012.284
375.956	17.080	1352.867	1012.090
376.971	17.157	1352.022	1011.831
377.986	17.031	1351.426	1010.545
379.000	17.069	1351.006	1010.363
380.015	17.091	1350.206	1009.810
381.029	17.133	1349.072	1009.121
382.044	17.253	1348.228	1009.111
383.059	17.208	1347.813	1008.444
384.073	17.191	1347.040	1007.676
385.088	17.254	1346.350	1007.444
386.102	17.318	1345.757	1007.290
387.117	17.273	1345.247	1006.554
388.132	17.208	1344.363	1005.418
389.146	17.356	1343.175	1005.319
390.161	17.265	1342.371	1004.087
391.175	17.255	1342.205	1003.814
392.190	17.317	1341.139	1003.294
393.205	17.445	1339.672	1002.865
394.219	17.348	1338.755	1001.521
395.234	17.388	1337.771	1000.930
396.248	17.458	1336.472	1000.278
397.263	17.407	1335.048	998.827
398.278	17.279	1333.640	996.932
399.292	17.386	1332.419	996.560
400.307	17.358	1331.534	995.645
401.321	17.265	1330.648	994.349
402.336	17.323	1330.033	994.140
403.350	17.359	1328.858	993.389
404.365	17.388	1327.699	992.604
405.380	17.330	1327.006	991.659
406.394	17.447	1326.079	991.560
407.409	17.463	1325.329	991.002
408.423	17.453	1325.000	990.610
409.438	17.525	1324.042	990.227
410.453	17.565	1323.249	989.779
411.467	17.566	1322.191	988.907
412.482	17.612	1321.728	988.736
413.496	17.569	1321.041	987.890
414.511	17.644	1320.192	987.602
415.526	17.644	1319.753	987.184
416.540	17.675	1319.002	986.713
417.555	17.772	1318.049	986.475
418.569	17.761	1317.405	985.840
419.584	17.724	1317.016	985.249
420.599	17.864	1316.146	985.318
421.613	100.489	1363.274	1487.911
422.628	99.141	1370.074	1488.024
