DTS Sentinel unit serial number:	SN413079Multiplexer serial number:	ORYXHardware model number:	OX4-SRSoftware version number:	ORYX F/W v4.00 Oryx Data Collector v3.7.2.0data status	okinstallation	princeton_trtdifferential loss correction	single-endedforward channel	channel 4reverse channel	N/Adate	2019/09/12time	20:29:35forward acquisition time	60.00reverse acquisition time	0.00gamma	496.2192k internal	0.2311k external	0.2311temperature offset calibration	1.0169default loss term (dB/km)	0.3790temperature slope calibration	1.0000multiplexer offset coefficient	1.0000multiplexer slope coefficient	1.0000fibre end	0.00T internal ref (°C)	31.30T ext. ref 1 (°C)	3.57T ext. ref 2 (°C)	25.84length (m)	temperature (°C)	Stokes	anti-Stokes-747.200	32.328	0.253	-0.222
-746.185	-200.000	-0.026	0.147
-745.171	16.795	0.180	-0.145
-744.156	5.827	0.269	0.202
-743.142	-200.000	-0.001	0.544
-742.127	118.035	0.126	0.158
-741.112	-200.000	-0.390	-0.000
-740.098	148.249	0.098	-0.135
-739.083	-88.351	-0.304	-0.092
-738.069	576.657	0.120	-0.298
-737.054	-49.821	0.180	-0.087
-736.039	-56.297	-0.122	-0.055
-735.025	-71.555	0.180	-0.068
-734.010	800.000	0.083	-0.353
-732.996	-200.000	-0.017	-0.342
-731.981	13.359	0.062	0.049
-730.966	84.092	-0.055	0.060
-729.952	-66.422	-0.294	0.119
-728.937	800.000	0.036	-0.118
-727.923	283.986	0.107	0.194
-726.908	-115.047	-0.262	0.051
-725.894	-118.760	-0.082	0.015
-724.879	-30.028	-0.235	-0.136
-723.864	263.820	-0.089	0.157
-722.850	3.946	-0.281	-0.209
-721.835	-20.139	0.201	-0.126
-720.821	-200.000	0.019	-0.121
-719.806	-200.000	-0.051	-0.313
-718.791	-33.226	0.088	-0.050
-717.777	17.847	-0.195	-0.158
-716.762	800.000	0.059	0.215
-715.748	-65.774	-0.228	-0.092
-714.733	-200.000	0.093	0.463
-713.718	231.637	-0.187	-0.310
-712.704	-200.000	0.031	0.304
-711.689	-23.524	-0.072	0.044
-710.675	465.535	0.112	-0.253
-709.660	74.104	-0.235	-0.250
-708.645	-111.729	-0.184	-0.038
-707.631	-154.463	-0.145	-0.010
-706.616	179.720	0.030	-0.044
-705.602	-138.698	0.267	-0.030
-704.587	283.883	0.069	-0.127
-703.572	131.154	-0.169	-0.219
-702.558	-122.755	-0.226	-0.037
-701.543	-45.102	-0.412	0.208
-700.529	-200.000	-0.087	-0.493
-699.514	20.725	0.116	-0.096
-698.499	221.105	-0.168	0.274
-697.485	111.176	-0.242	0.295
-696.470	-46.495	0.337	-0.168
-695.456	25.798	-0.249	0.210
-694.441	31.346	0.181	0.158
-693.426	118.764	0.046	-0.058
-692.412	-200.000	0.041	0.216
-691.397	-200.000	-0.029	-0.177
-690.383	109.803	-0.093	0.113
-689.368	59.979	-0.148	-0.148
-688.354	-101.473	-0.294	-0.072
-687.339	161.402	-0.056	-0.080
-686.324	-200.000	-0.072	-0.460
-685.310	461.037	-0.164	-0.371
-684.295	600.877	-0.078	-0.196
-683.281	-122.058	-0.190	-0.032
-682.266	502.095	-0.045	0.105
-681.251	-43.704	0.148	0.076
-680.237	205.617	0.065	-0.103
-679.222	396.980	-0.088	-0.187
-678.208	84.725	0.106	-0.118
-677.193	-197.370	-0.080	-0.001
-676.178	800.000	0.030	0.113
-675.164	-200.000	-0.045	0.232
-674.149	529.595	0.114	0.273
-673.135	686.400	-0.039	0.104
-672.120	24.558	-0.276	-0.231
-671.105	92.493	0.152	0.173
-670.091	168.954	-0.088	0.127
-669.076	-200.000	-0.018	0.085
-668.062	372.285	-0.051	0.104
-667.047	-69.301	0.118	-0.046
-666.032	-24.377	-0.086	0.052
-665.018	58.587	-0.095	0.094
-664.003	800.000	0.059	0.256
-662.989	-77.731	0.163	-0.057
-661.974	324.596	0.071	0.137
-660.959	-19.112	-0.394	0.248
-659.945	17.866	0.132	0.106
-658.930	-95.715	0.298	0.081
-657.916	-56.252	-0.047	0.021
-656.901	53.355	-0.119	-0.115
-655.886	-200.000	0.045	-0.366
-654.872	-200.000	-0.025	0.136
-653.857	93.173	0.042	0.048
-652.843	536.551	0.093	-0.224
-651.828	176.653	0.175	-0.257
-650.814	-200.000	0.011	0.364
-649.799	800.000	0.021	-0.079
-648.784	12.378	0.225	-0.175
-647.770	-12.920	-0.222	0.146
-646.755	-5.001	0.294	-0.204
-645.741	280.450	-0.020	-0.036
-644.726	-200.000	-0.016	-0.288
-643.711	54.515	-0.235	-0.229
-642.697	602.183	-0.181	0.456
-641.682	-6.039	0.248	-0.172
-640.668	26.937	-0.435	-0.369
-639.653	800.000	-0.027	0.088
-638.638	800.000	0.021	-0.083
-637.624	-140.033	0.190	0.020
-636.609	-200.000	0.025	-0.176
-635.595	-56.380	-0.156	0.070
-634.580	250.776	-0.281	0.483
-633.565	110.321	-0.113	0.138
-632.551	-55.967	0.262	-0.118
-631.536	-200.000	-0.016	-0.123
-630.522	-200.000	-0.005	-0.040
-629.507	800.000	-0.075	-0.297
-628.492	-200.000	0.020	-0.198
-627.478	-24.033	0.130	0.079
-626.463	-200.000	-0.042	0.284
-625.449	403.331	0.111	-0.237
-624.434	799.136	-0.061	0.170
-623.419	-33.586	0.182	-0.102
-622.405	179.911	-0.153	0.226
-621.390	800.000	0.065	-0.182
-620.376	-124.645	0.116	0.018
-619.361	1.988	-0.106	-0.077
-618.346	498.847	-0.181	-0.422
-617.332	157.071	-0.101	-0.141
-616.317	-200.000	0.029	-0.407
-615.303	-200.000	0.008	-0.064
-614.288	188.446	-0.122	0.184
-613.273	226.949	0.253	0.415
-612.259	6.775	0.254	0.191
-611.244	103.508	-0.113	-0.134
-610.230	-83.898	0.212	0.068
-609.215	166.964	-0.243	-0.348
-608.201	-200.000	-0.047	0.299
-607.186	-31.769	-0.220	-0.125
-606.171	350.697	0.112	0.223
-605.157	42.345	-0.105	-0.097
-604.142	37.993	-0.138	-0.124
-603.128	800.000	-0.054	0.188
-602.113	-80.579	-0.287	0.096
-601.098	186.734	0.221	-0.332
-600.084	-48.433	-0.324	-0.158
-599.069	7.562	0.136	-0.102
-598.055	-37.554	0.073	0.039
-597.040	43.903	-0.219	0.202
-596.025	41.320	0.124	-0.113
-595.011	-200.000	-0.049	-0.548
-593.996	94.268	-0.102	-0.116
-592.982	2.676	-0.190	0.139
-591.967	284.948	0.154	0.279
-590.952	139.804	-0.142	-0.189
-589.938	-30.766	0.174	-0.100
-588.923	-75.983	-0.183	0.065
-587.909	87.656	0.150	-0.168
-586.894	-10.083	-0.290	-0.194
-585.879	-200.000	-0.037	-0.192
-584.865	-45.604	-0.219	-0.109
-583.850	123.375	-0.109	0.137
-582.836	-130.035	0.371	-0.051
-581.821	-200.000	0.017	0.120
-580.806	-200.000	0.008	0.223
-579.792	800.000	-0.015	-0.048
-578.777	-110.114	0.155	-0.033
-577.763	82.188	0.116	0.127
-576.748	210.456	0.030	-0.048
-575.733	153.007	0.050	-0.070
-574.719	-200.000	-0.024	-0.205
-573.704	90.499	-0.163	-0.184
-572.690	800.000	0.034	0.129
-571.675	-200.000	-0.020	-0.135
-570.661	3.179	-0.216	-0.158
-569.646	-68.737	0.076	0.030
-568.631	-87.793	0.157	-0.048
-567.617	124.012	0.066	0.084
-566.602	-109.189	-0.180	-0.039
-565.588	-122.252	-0.200	-0.033
-564.573	-136.633	-0.093	-0.011
-563.558	95.782	0.166	-0.191
-562.544	-121.242	0.169	-0.028
-561.529	566.750	-0.036	-0.089
-560.515	-200.000	0.064	0.293
-559.500	-200.000	0.142	-0.001
-558.485	-144.319	0.610	0.057
-557.471	800.000	-0.051	-0.189
-556.456	-186.910	-0.280	-0.004
-555.442	523.073	-0.078	-0.184
-554.427	131.331	0.168	-0.217
-553.412	-13.608	-0.335	0.219
-552.398	103.922	0.080	0.095
-551.383	224.365	-0.166	0.270
-550.369	-80.151	0.224	-0.076
-549.354	736.990	-0.060	0.161
-548.339	756.278	-0.084	-0.228
-547.325	-106.710	-0.125	-0.028
-546.310	200.871	-0.081	0.125
-545.296	108.422	0.184	0.221
-544.281	69.900	-0.144	0.150
-543.266	-24.490	0.181	0.108
-542.252	-55.934	-0.155	-0.070
-541.237	-70.872	0.062	-0.023
-540.223	800.000	0.068	0.275
-539.208	-132.230	-0.129	-0.017
-538.193	44.250	0.181	0.167
-537.179	337.086	-0.058	-0.113
-536.164	-200.000	-0.001	-0.224
-535.150	400.247	-0.096	-0.202
-534.135	233.583	-0.090	-0.148
-533.121	125.964	-0.092	0.118
-532.106	132.145	-0.162	0.211
-531.091	800.000	-0.058	0.197
-530.077	-180.985	0.070	0.001
-529.062	288.453	-0.043	0.077
-528.048	800.000	0.034	0.141
-527.033	-75.305	0.082	-0.030
-526.018	97.667	-0.248	0.287
-525.004	-200.000	0.030	-0.169
-523.989	-51.081	-0.135	-0.064
-522.975	-32.367	-0.229	-0.129
-521.960	82.837	-0.180	0.196
-520.945	-52.091	0.162	-0.076
-519.931	19.850	0.121	-0.098
-518.916	800.000	0.085	0.322
-517.902	-200.000	-0.012	0.091
-516.887	-95.052	0.074	0.020
-515.872	-157.115	-0.202	-0.012
-514.858	542.864	0.100	-0.240
-513.843	-122.381	-0.199	-0.033
-512.829	-117.088	-0.263	-0.048
-511.814	237.786	-0.013	-0.022
-510.799	-200.000	-0.001	0.131
-509.785	-84.138	-0.173	-0.055
-508.770	222.822	-0.227	-0.369
-507.756	-189.006	0.142	0.002
-506.741	190.620	0.188	-0.284
-505.726	-10.553	0.425	0.283
-504.712	-48.201	0.577	-0.280
-503.697	345.815	0.058	-0.115
-502.683	462.482	0.069	0.155
-501.668	-200.000	-0.003	-0.291
-500.653	738.032	-0.015	-0.040
-499.639	-200.000	0.099	0.514
-498.624	-117.372	-0.293	0.053
-497.610	-70.285	-0.224	0.086
-496.595	-136.792	-0.239	-0.028
-495.581	66.492	-0.186	-0.190
-494.566	-200.000	-0.015	-0.116
-493.551	194.361	-0.271	-0.414
-492.537	581.550	-0.051	-0.126
-491.522	800.000	-0.118	-0.339
-490.508	-121.444	-0.303	-0.051
-489.493	70.271	0.191	0.198
-488.478	-193.281	0.360	-0.003
-487.464	-112.308	-0.312	0.063
-486.449	63.564	-0.083	0.084
-485.435	148.585	-0.191	0.259
-484.420	122.851	0.111	-0.139
-483.405	-200.000	0.015	0.122
-482.391	-200.000	-0.004	0.242
-481.376	-36.624	0.190	0.102
-480.362	7.096	-0.107	0.080
-479.347	-200.000	0.001	0.092
-478.332	-154.624	-0.112	0.007
-477.318	-65.038	0.308	-0.125
-476.303	800.000	0.063	-0.247
-475.289	76.523	0.117	-0.124
-474.274	52.529	0.120	-0.115
-473.259	-200.000	0.033	0.288
-472.245	-108.608	-0.134	0.029
-471.230	599.914	0.133	-0.332
-470.216	244.102	0.091	0.153
-469.201	800.000	-0.055	0.228
-468.186	109.659	-0.188	0.227
-467.172	-13.635	-0.212	0.138
-466.157	249.105	-0.119	0.202
-465.143	-85.278	0.171	0.054
-464.128	-87.890	-0.222	0.067
-463.113	171.772	-0.045	0.065
-462.099	-200.000	0.008	-0.149
-461.084	-200.000	-0.006	-0.119
-460.070	-200.000	0.014	0.236
-459.055	-90.655	0.177	-0.051
-458.040	396.626	-0.114	-0.238
-457.026	0.120	0.121	0.087
-456.011	111.579	0.228	0.276
-454.997	589.089	-0.042	-0.103
-453.982	474.645	0.170	0.385
-452.968	53.354	-0.134	-0.129
-451.953	114.497	0.079	-0.096
-450.938	-200.000	-0.015	0.209
-449.924	130.851	0.099	0.128
-448.909	-200.000	-0.045	-0.264
-447.895	167.303	0.225	0.321
-446.880	800.000	0.046	-0.194
-445.865	-200.000	0.034	0.157
-444.851	-71.600	-0.173	0.065
-443.836	135.939	0.117	-0.153
-442.822	-52.674	-0.379	-0.175
-441.807	800.000	0.102	-0.288
-440.792	-5.804	0.320	-0.220
-439.778	127.585	0.124	-0.158
-438.763	268.348	0.169	-0.298
-437.749	-100.371	0.420	-0.104
-436.734	-153.735	0.188	-0.013
-435.719	-76.020	0.407	-0.144
-434.705	-200.000	-0.004	0.032
-433.690	40.867	0.165	0.149
-432.676	-200.000	0.000	-0.104
-431.661	-200.000	-0.074	-0.368
-430.646	117.039	0.194	0.239
-429.632	127.182	-0.180	-0.229
-428.617	140.703	-0.137	0.181
-427.603	800.000	0.074	-0.229
-426.588	103.652	0.189	0.222
-425.573	-129.908	-0.374	-0.051
-424.559	2.053	0.100	-0.072
-423.544	800.000	-0.077	0.227
-422.530	-89.541	0.390	0.115
-421.515	212.910	-0.156	-0.246
-420.500	-200.000	-0.037	0.189
-419.486	307.222	0.076	-0.141
-418.471	-124.177	-0.211	0.033
-417.457	77.881	-0.212	-0.227
-416.442	7.874	-0.257	-0.193
-415.428	-5.551	-0.180	-0.124
-414.413	-17.960	0.060	0.038
-413.398	181.056	0.252	0.372
-412.384	-200.000	-0.051	0.252
-411.369	-200.000	-0.038	-0.225
-410.355	-200.000	-0.009	-0.281
-409.340	-132.815	-0.165	0.021
-408.325	800.000	-0.045	-0.193
-407.311	-200.000	0.013	0.328
-406.296	-83.676	0.120	0.038
-405.282	288.702	-0.065	0.119
-404.267	-24.547	-0.275	-0.164
-403.252	170.259	-0.020	0.028
-402.238	-37.152	0.039	0.021
-401.223	-79.484	-0.238	0.081
-400.209	-200.000	0.009	0.126
-399.194	-38.405	-0.198	-0.105
-398.179	-200.000	0.008	-0.213
-397.165	-100.492	-0.279	0.069
-396.150	273.212	-0.115	0.204
-395.136	-200.000	0.045	-0.323
-394.121	511.910	-0.146	-0.341
-393.106	50.280	-0.083	-0.079
-392.092	-88.211	0.099	-0.030
-391.077	-79.308	0.543	0.184
-390.063	-138.738	-0.492	0.054
-389.048	20.827	0.106	-0.086
-388.033	800.000	0.014	-0.053
-387.019	397.779	0.060	-0.125
-386.004	-12.679	-0.246	-0.160
-384.990	-87.104	0.104	0.032
-383.975	-66.588	0.202	0.080
-382.960	330.288	0.082	-0.158
-381.946	-33.926	0.120	-0.066
-380.931	27.947	0.291	0.246
-379.917	-69.661	-0.002	-0.001
-378.902	301.029	0.113	0.209
-377.888	-68.468	-0.261	-0.101
-376.873	70.104	0.185	0.191
-375.858	30.958	0.324	-0.278
-374.844	118.446	0.088	-0.108
-373.829	-102.295	0.132	0.032
-372.815	-200.000	0.037	0.175
-371.800	-143.400	-0.241	-0.023
-370.785	-200.000	-0.038	0.263
-369.771	468.621	-0.082	0.183
-368.756	418.838	0.080	-0.172
-367.742	-200.000	-0.027	-0.353
-366.727	-0.240	-0.369	-0.263
-365.712	215.068	0.337	-0.535
-364.698	-53.628	-0.321	-0.147
-363.683	-200.000	-0.015	0.077
-362.669	161.678	0.111	-0.156
-361.654	-200.000	-0.021	0.162
-360.639	148.819	0.114	-0.154
-359.625	50.768	0.142	0.134
-358.610	800.000	-0.069	-0.277
-357.596	-165.209	-0.257	-0.011
-356.581	-103.360	0.343	0.081
-355.566	246.171	0.216	0.364
-354.552	-200.000	0.087	0.559
-353.537	608.359	-0.171	0.426
-352.523	254.687	-0.031	0.052
-351.508	120.052	0.022	0.028
-350.493	-200.000	-0.045	-0.201
-349.479	-81.983	-0.082	0.027
-348.464	404.146	-0.067	-0.140
-347.450	-200.000	0.024	0.110
-346.435	800.000	-0.091	-0.381
-345.420	-163.388	-0.415	-0.020
-344.406	800.000	0.054	-0.156
-343.391	292.353	0.047	-0.086
-342.377	-138.821	-0.251	0.027
-341.362	-48.550	-0.084	-0.040
-340.348	-200.000	0.033	-0.155
-339.333	-17.012	-0.235	-0.148
-338.318	-173.240	-0.153	0.005
-337.304	800.000	0.026	0.108
-336.289	-59.333	0.220	0.095
-335.275	196.695	-0.046	0.070
-334.260	-200.000	-0.003	-0.378
-333.245	800.000	-0.139	-0.395
-332.231	-151.850	-0.212	-0.015
-331.216	800.000	0.066	0.184
-330.202	-42.845	0.225	0.114
-329.187	115.008	-0.211	0.257
-328.172	88.577	0.235	0.260
-327.158	-75.131	0.245	-0.088
-326.143	328.748	0.134	-0.257
-325.129	-200.000	0.021	0.333
-324.114	102.427	0.092	-0.108
-323.099	-49.093	-0.178	0.085
-322.085	44.262	-0.013	0.012
-321.070	275.038	-0.099	0.175
-320.056	-200.000	0.013	0.241
-319.041	186.094	-0.147	0.219
-318.026	729.910	-0.036	0.096
-317.012	34.550	0.285	-0.249
-315.997	270.243	-0.163	0.286
-314.983	-130.971	-0.084	0.011
-313.968	64.438	-0.100	0.101
-312.953	800.000	0.084	0.311
-311.939	-39.538	0.038	0.020
-310.924	281.856	0.193	0.345
-309.910	2.249	-0.174	-0.125
-308.895	305.316	-0.167	0.310
-307.880	89.612	0.056	0.063
-306.866	753.216	0.107	0.289
-305.851	328.513	0.248	0.475
-304.837	88.676	-0.138	-0.153
-303.822	41.606	0.236	-0.213
-302.807	73.479	-0.218	-0.228
-301.793	-169.201	-0.038	-0.001
-300.778	-80.648	0.267	-0.089
-299.764	442.712	-0.106	-0.231
-298.749	220.589	-0.080	-0.129
-297.735	16.468	0.211	0.166
-296.720	-13.626	0.157	0.101
-295.705	-72.852	0.251	-0.092
-294.691	-200.000	0.030	-0.237
-293.676	800.000	-0.061	0.201
-292.662	-169.934	0.326	-0.012
-291.647	-66.957	-0.145	-0.057
-290.632	-65.397	-0.219	-0.088
-289.618	-200.000	0.076	-0.594
-288.603	-40.511	0.320	-0.166
-287.589	-200.000	0.070	0.357
-286.574	-200.000	0.009	-0.091
-285.559	143.661	-0.070	0.094
-284.545	429.897	-0.033	-0.071
-283.530	800.000	-0.042	0.123
-282.516	-45.839	0.209	-0.103
-281.501	312.392	-0.192	-0.359
-280.486	800.000	-0.097	-0.270
-279.472	800.000	0.077	0.309
-278.457	-68.164	-0.108	0.042
-277.443	302.063	0.356	0.656
-276.428	674.738	0.068	0.177
-275.413	310.340	-0.130	-0.243
-274.399	800.000	0.045	0.165
-273.384	325.203	0.126	-0.240
-272.370	-111.262	-0.107	0.022
-271.355	44.815	-0.216	0.199
-270.340	-115.303	0.216	0.041
-269.326	18.307	0.215	0.171
-268.311	67.862	0.189	-0.192
-267.297	35.107	-0.267	-0.233
-266.282	-111.009	-0.181	-0.037
-265.267	-24.717	0.172	0.102
-264.253	45.490	0.227	0.209
-263.238	-15.441	-0.080	0.051
-262.224	-47.419	0.168	0.081
-261.209	-107.626	-0.049	-0.011
-260.195	3.043	0.108	-0.079
-259.180	20.787	-0.118	0.095
-258.165	-146.266	0.033	0.003
-257.151	271.657	-0.040	0.071
-256.136	-108.041	0.318	-0.069
-255.122	-90.207	-0.025	0.007
-254.107	-181.351	-0.169	-0.003
-253.092	-200.000	-0.016	0.183
-252.078	800.000	0.033	0.105
-251.063	47.045	-0.258	0.239
-250.049	-198.766	-0.091	-0.001
-249.034	56.246	0.130	0.126
-248.019	724.666	0.020	0.054
-247.005	32.019	0.057	0.049
-245.990	356.177	-0.137	0.271
-244.976	-85.729	0.247	0.076
-243.961	-116.740	-0.290	0.053
-242.946	415.436	-0.077	-0.163
-241.932	800.000	0.062	0.214
-240.917	-34.033	-0.305	0.167
-239.903	366.697	0.109	0.218
-238.888	25.734	0.081	-0.068
-237.873	-116.263	-0.127	0.024
-236.859	308.933	0.064	-0.118
-235.844	123.968	-0.075	0.093
-234.830	-55.123	-0.158	0.071
-233.815	-37.050	-0.086	0.046
-232.800	-57.159	-0.258	-0.113
-231.786	434.203	0.083	-0.180
-230.771	173.865	0.238	-0.342
-229.757	-18.024	-0.020	0.013
-228.742	218.620	0.061	0.098
-227.727	-104.697	-0.301	-0.069
-226.713	375.723	0.101	-0.205
-225.698	-59.666	0.231	0.099
-224.684	122.487	-0.223	0.278
-223.669	-138.968	0.219	0.024
-222.655	-200.000	0.039	-0.191
-221.640	132.597	0.147	-0.188
-220.625	104.688	-0.436	-0.511
-219.611	82.774	-0.088	0.095
-218.596	-51.938	0.190	0.088
-217.582	31.928	-0.162	0.138
-216.567	82.017	0.130	-0.140
-215.552	-7.855	0.115	-0.077
-214.538	-41.286	0.447	0.229
-213.523	-200.000	0.063	0.366
-212.509	650.349	0.042	-0.108
-211.494	-113.237	-0.101	0.020
-210.479	-200.000	-0.032	0.242
-209.465	-5.104	-0.195	-0.133
-208.450	-200.000	0.028	0.193
-207.436	436.637	-0.097	0.211
-206.421	800.000	-0.083	0.229
-205.406	-200.000	0.050	0.367
-204.392	-200.000	0.006	-0.115
-203.377	16.635	-0.157	-0.123
-202.363	1.570	0.314	0.224
-201.348	-153.848	0.343	-0.023
-200.333	-154.228	-0.105	0.007
-199.319	-87.353	0.236	-0.071
-198.304	399.072	0.051	0.106
-197.290	-108.964	0.113	0.024
-196.275	97.934	-0.213	0.244
-195.260	102.156	0.307	0.356
-194.246	131.253	0.091	0.116
-193.231	-96.480	0.385	0.101
-192.217	-44.164	-0.327	0.163
-191.202	186.769	-0.239	0.354
-190.187	395.821	-0.027	0.056
-189.173	-174.075	-0.277	-0.008
-188.158	243.184	0.085	0.141
-187.144	-64.675	0.244	-0.098
-186.129	-156.979	-0.089	0.005
-185.114	412.151	-0.061	0.129
-184.100	-72.297	0.059	0.022
-183.085	-110.163	0.233	0.048
-182.071	-84.183	-0.263	0.083
-181.056	92.771	0.129	-0.144
-180.042	28.811	0.174	0.146
-179.027	17.153	-0.099	0.078
-178.012	66.480	0.098	0.099
-176.998	-42.646	0.109	0.055
-175.983	-72.956	-0.131	-0.048
-174.969	316.396	0.073	0.138
-173.954	-126.360	-0.279	0.041
-172.939	-46.405	0.391	-0.191
-171.925	-124.323	-0.162	0.025
-170.910	50.646	0.159	-0.149
-169.896	-141.827	0.069	0.007
-168.881	-200.000	-0.019	-0.279
-167.866	-36.958	-0.299	0.159
-166.852	800.000	-0.111	0.423
-165.837	800.000	0.016	0.049
-164.823	60.832	0.187	-0.184
-163.808	-200.000	0.004	-0.239
-162.793	-86.539	0.101	-0.031
-161.779	-158.153	0.134	0.008
-160.764	-134.233	-0.202	0.025
-159.750	-105.891	-0.273	0.061
-158.735	88.694	0.279	-0.308
-157.720	-200.000	0.006	-0.248
-156.706	135.124	-0.348	-0.449
-155.691	-42.691	0.352	-0.177
-154.677	-39.834	-0.124	0.064
-153.662	151.769	-0.097	-0.131
-152.647	-200.000	-0.017	0.246
-151.633	-70.479	0.265	-0.100
-150.618	-21.764	-0.166	0.100
-149.604	125.456	0.047	-0.059
-148.589	751.344	0.025	0.068
-147.574	184.075	0.102	-0.150
-146.560	172.915	-0.040	0.058
-145.545	20.178	-0.220	0.176
-144.531	-142.967	0.144	0.014
-143.516	341.252	0.190	-0.369
-142.502	458.767	-0.128	0.282
-141.487	-200.000	-0.030	-0.214
-140.472	-200.000	0.010	-0.095
-139.458	103.920	0.197	-0.229
-138.443	450.067	-0.199	0.435
-137.429	800.000	-0.005	-0.015
-136.414	23.853	0.097	0.079
-135.399	-24.341	-0.084	0.050
-134.385	-200.000	-0.022	-0.164
-133.370	-37.521	0.332	-0.175
-132.356	-200.000	0.024	0.257
-131.341	-200.000	-0.001	0.119
-130.326	-173.188	0.091	0.003
-129.312	-28.792	-0.277	0.158
-128.297	-200.000	-0.013	0.468
-127.283	-155.120	-0.227	-0.015
-126.268	800.000	0.035	0.128
-125.253	244.498	0.066	-0.109
-124.239	-164.033	0.150	0.007
-123.224	24.438	-0.130	-0.106
-122.210	87.909	0.212	0.232
-121.195	800.000	-0.042	0.166
-120.180	60.762	-0.092	0.091
-119.166	-200.000	-0.033	0.208
-118.151	-143.547	0.208	-0.020
-117.137	-200.000	0.014	-0.233
-116.122	-200.000	-0.012	0.177
-115.107	800.000	-0.071	-0.216
-114.093	476.974	-0.144	-0.321
-113.078	-144.460	0.162	0.015
-112.064	-126.545	-0.134	0.020
-111.049	800.000	0.140	-0.388
-110.034	800.000	0.051	0.163
-109.020	194.846	0.079	0.118
-108.005	-77.462	0.105	-0.036
-106.991	686.726	0.072	0.187
-105.976	781.307	0.011	0.029
-104.962	359.500	0.159	-0.314
-103.947	-57.156	0.193	0.084
-102.932	800.000	-0.032	-0.127
-101.918	27.535	-0.149	0.124
-100.903	66.542	-0.108	-0.109
-99.889	-134.993	-0.145	0.017
-98.874	-154.309	-0.266	0.018
-97.859	222.134	0.260	0.414
-96.845	-113.219	0.156	-0.030
-95.830	-200.000	0.004	0.140
-94.816	154.328	-0.146	-0.198
-93.801	45.004	-0.150	-0.136
-92.786	-101.652	-0.250	0.060
-91.772	-113.160	0.109	0.021
-90.757	287.661	0.197	0.353
-89.743	800.000	0.039	0.111
-88.728	-143.638	0.266	0.025
-87.713	800.000	0.056	-0.187
-86.699	-72.303	0.216	-0.079
-85.684	800.000	-0.037	0.145
-84.670	151.829	-0.103	-0.139
-83.655	633.060	0.156	0.392
-82.640	-164.644	0.237	-0.011
-81.626	-15.285	-0.179	-0.114
-80.611	-29.027	0.117	-0.066
-79.597	103.303	0.123	-0.143
-78.582	-200.000	-0.078	0.415
-77.567	-147.766	0.357	0.030
-76.553	-30.264	-0.089	0.050
-75.538	800.000	0.022	0.088
-74.524	-65.475	0.115	-0.046
-73.509	-200.000	0.015	0.161
-72.494	-59.788	-0.293	-0.124
-71.480	295.435	0.027	0.049
-70.465	-134.712	-0.273	0.033
-69.451	-110.354	0.158	0.033
-68.436	-5.834	0.096	0.065
-67.422	800.000	-0.071	0.294
-66.407	-14.497	0.327	-0.208
-65.392	93.665	0.069	-0.078
-64.378	800.000	-0.134	-0.390
-63.363	152.844	0.055	-0.075
-62.349	-13.166	-0.176	-0.113
-61.334	134.453	-0.759	-0.973
-60.319	25.948	0.485	0.400
-59.305	800.000	-0.323	-1.144
-58.290	158.964	0.508	0.698
-57.276	-200.000	0.334	1.624
-56.261	-200.000	100.124	603.012
-55.246	585.251	1397.485	3394.504
-54.232	191.735	2580.747	3842.773
-53.217	107.222	2292.083	2692.250
-52.203	37.805	2050.727	1800.100
-51.188	32.906	1966.634	1682.682
-50.173	31.457	1947.971	1653.843
-49.159	46.877	2001.424	1837.897
-48.144	48.006	2019.393	1864.467
-47.130	33.577	1979.861	1699.747
-46.115	31.216	1969.323	1669.551
-45.100	31.154	1966.277	1666.343
-44.086	31.207	1963.713	1664.578
-43.071	31.067	1961.342	1661.255
-42.057	31.081	1958.959	1659.295
-41.042	31.068	1957.298	1657.704
-40.027	31.075	1954.921	1655.692
-39.013	31.283	1952.995	1655.839
-37.998	31.209	1951.707	1654.022
-36.984	31.375	1949.064	1653.188
-35.969	31.194	1947.771	1650.422
-34.954	31.210	1945.954	1648.966
-33.940	31.326	1944.444	1648.641
-32.925	31.316	1942.770	1647.072
-31.911	31.324	1941.032	1645.600
-30.896	31.414	1939.081	1644.670
-29.881	31.273	1938.557	1642.920
-28.867	31.387	1936.566	1642.171
-27.852	31.370	1935.125	1640.739
-26.838	31.350	1932.736	1638.471
-25.823	31.352	1930.952	1636.909
-24.809	31.278	1929.845	1635.258
-23.794	31.282	1927.956	1633.631
-22.779	31.237	1926.358	1631.815
-21.765	31.235	1925.255	1630.802
-20.750	31.296	1922.950	1629.314
-19.736	31.334	1921.346	1628.222
-18.721	31.309	1919.649	1626.498
-17.706	31.276	1918.222	1624.936
-16.692	31.327	1916.307	1623.699
-15.677	31.279	1915.309	1622.366
-14.663	31.311	1913.954	1621.435
-13.648	31.316	1912.670	1620.330
-12.633	31.406	1910.768	1619.433
-11.619	31.304	1909.680	1617.564
-10.604	31.294	1908.137	1616.105
-9.590	31.257	1907.114	1614.856
-8.575	31.247	1905.372	1613.225
-7.560	31.336	1903.761	1612.569
-6.546	31.293	1903.175	1611.634
-5.531	31.326	1901.914	1610.789
-4.517	31.356	1900.207	1609.535
-3.502	31.345	1899.133	1608.471
-2.487	31.261	1898.074	1606.789
-1.473	31.249	1897.278	1605.941
-0.458	31.342	1892.740	1602.834
0.556	32.790	1872.824	1574.090
1.571	28.428	1854.114	1522.095
2.586	24.369	1876.455	1506.107
3.600	23.108	1911.647	1523.365
4.615	22.612	1905.226	1513.855
5.629	17.644	1805.947	1394.297
6.644	8.475	1689.304	1233.649
7.659	3.868	1652.832	1172.058
8.673	3.557	1649.392	1167.159
9.688	3.622	1648.135	1166.656
10.702	3.581	1647.310	1165.663
11.717	3.501	1643.584	1162.317
12.731	3.976	1642.600	1165.098
13.746	10.222	1657.062	1222.561
14.761	19.580	1677.599	1308.862
15.775	24.276	1685.263	1350.387
16.790	24.702	1685.789	1353.918
17.804	24.216	1683.904	1348.610
18.819	23.837	1681.331	1343.563
19.834	23.541	1679.809	1339.992
20.848	23.511	1678.821	1338.859
21.863	23.507	1677.773	1337.873
22.877	23.555	1676.769	1337.318
23.892	23.527	1675.896	1336.289
24.907	23.391	1675.508	1334.837
25.921	23.474	1673.476	1333.728
26.936	23.361	1673.004	1332.384
27.950	23.307	1672.290	1331.292
28.965	23.385	1671.271	1330.945
29.980	23.508	1670.469	1331.116
30.994	23.461	1670.001	1330.274
32.009	23.543	1668.794	1329.803
33.023	23.701	1668.177	1330.383
34.038	23.659	1667.363	1329.301
35.053	23.621	1666.060	1327.858
36.067	23.531	1664.516	1325.841
37.082	23.476	1663.409	1324.430
38.096	23.446	1663.148	1323.875
39.111	23.473	1661.859	1322.935
40.126	23.566	1661.180	1322.976
41.140	23.395	1660.864	1321.327
42.155	23.384	1658.837	1319.521
43.169	23.067	1656.999	1315.582
44.184	22.927	1655.732	1313.417
45.199	22.857	1654.900	1312.119
46.213	22.845	1654.390	1311.512
47.228	23.115	1652.860	1312.187
48.242	23.360	1651.879	1313.111
49.257	23.409	1651.542	1313.089
50.271	23.502	1649.811	1312.285
51.286	23.386	1648.999	1310.661
52.301	23.391	1647.859	1309.674
53.315	23.337	1646.806	1308.323
54.330	23.392	1644.959	1307.146
55.344	23.229	1643.381	1304.579
56.359	23.163	1642.341	1303.151
57.374	23.100	1640.814	1301.360
58.388	23.052	1640.287	1300.473
59.403	23.038	1638.569	1298.895
60.417	22.971	1637.541	1297.471
61.432	22.893	1636.251	1295.765
62.447	22.930	1634.804	1294.776
63.461	22.853	1633.904	1293.380
64.476	22.754	1633.035	1291.857
65.490	22.725	1631.826	1290.571
66.505	22.745	1630.609	1289.643
67.520	22.686	1629.888	1288.528
68.534	22.846	1628.663	1288.615
69.549	22.771	1627.981	1287.409
70.563	22.726	1626.760	1286.005
71.578	22.615	1625.390	1284.001
72.593	22.557	1624.455	1282.722
73.607	22.568	1623.091	1281.615
74.622	22.467	1622.275	1280.121
75.636	22.440	1621.884	1279.504
76.651	22.523	1621.157	1279.423
77.666	22.530	1619.840	1278.315
78.680	22.585	1619.099	1278.022
79.695	22.684	1618.527	1278.168
80.709	22.671	1617.481	1277.139
81.724	22.766	1617.105	1277.414
82.739	22.836	1616.774	1277.550
83.753	22.952	1615.561	1277.316
84.768	23.194	1614.552	1278.154
85.782	23.395	1615.014	1279.860
86.797	23.536	1614.681	1280.494
87.812	23.640	1613.918	1280.529
88.826	23.684	1611.812	1279.064
89.841	23.427	1611.181	1276.598
90.855	23.429	1610.367	1275.855
91.870	23.552	1609.353	1275.825
92.884	23.657	1608.406	1275.710
93.899	23.730	1607.446	1275.365
94.914	23.722	1606.564	1274.494
95.928	23.657	1605.446	1273.025
96.943	23.715	1604.014	1272.198
97.957	23.767	1602.387	1271.161
98.972	23.666	1601.582	1269.688
99.987	23.639	1599.715	1267.906
101.001	23.691	1598.258	1267.006
102.016	23.595	1597.327	1265.476
103.030	23.481	1595.816	1263.354
104.045	23.557	1594.463	1262.713
105.060	23.520	1593.210	1261.346
106.074	23.439	1591.846	1259.574
107.089	23.227	1589.977	1256.483
108.103	23.000	1588.447	1253.552
109.118	22.842	1586.757	1250.991
110.133	22.686	1585.352	1248.667
111.147	22.645	1583.675	1246.948
112.162	22.675	1582.258	1245.931
113.176	22.719	1581.369	1245.433
114.191	22.858	1580.274	1245.436
115.206	22.827	1579.526	1244.522
116.220	22.874	1578.691	1244.084
117.235	22.900	1577.795	1243.452
118.249	22.890	1576.667	1242.384
119.264	22.777	1574.537	1239.797
120.279	22.596	1573.109	1237.297
121.293	22.616	1571.706	1236.220
122.308	22.504	1570.873	1234.674
123.322	22.550	1569.040	1233.445
124.337	22.401	1567.761	1231.286
125.352	22.340	1566.197	1229.522
126.366	22.288	1565.601	1228.582
127.381	22.361	1564.282	1227.950
128.395	22.434	1563.397	1227.655
129.410	22.243	1562.056	1225.166
130.424	22.074	1560.732	1222.843
131.439	22.145	1559.462	1222.232
132.454	22.400	1558.589	1223.208
133.468	22.625	1557.706	1223.974
134.483	22.736	1556.638	1223.791
135.497	22.815	1555.462	1223.307
136.512	22.894	1554.295	1222.833
137.527	22.813	1552.858	1221.028
138.541	22.895	1551.650	1220.542
139.556	22.951	1550.100	1219.598
140.570	22.933	1549.254	1218.699
141.585	23.041	1548.236	1218.539
142.600	23.219	1547.866	1219.366
143.614	23.409	1546.843	1219.758
144.629	23.523	1546.549	1220.205
145.643	23.729	1544.488	1219.886
146.658	23.558	1544.348	1218.492
147.673	23.449	1542.358	1216.068
148.687	23.333	1541.113	1214.184
149.702	23.275	1539.487	1212.393
150.716	23.160	1537.507	1209.942
151.731	22.998	1535.708	1207.315
152.746	22.738	1534.684	1204.628
153.760	22.725	1533.173	1203.247
154.775	22.850	1532.287	1203.296
155.789	23.062	1532.072	1204.467
156.804	23.129	1530.910	1203.897
157.819	23.275	1529.867	1203.970
158.833	23.132	1528.683	1201.955
159.848	23.230	1527.851	1201.862
160.862	23.325	1527.260	1201.932
161.877	23.419	1525.569	1201.132
162.892	23.219	1524.546	1198.872
163.906	22.905	1522.739	1195.220
164.921	22.685	1521.744	1192.842
165.935	22.684	1520.068	1191.417
166.950	22.698	1519.097	1190.646
167.964	22.906	1518.368	1191.368
168.979	23.075	1517.547	1191.758
169.994	22.983	1516.689	1190.364
171.008	22.919	1515.444	1188.849
172.023	22.903	1514.356	1187.786
173.037	22.863	1513.454	1186.703
174.052	23.203	1512.295	1187.967
175.067	23.357	1511.679	1188.414
176.081	23.225	1510.894	1186.809
177.096	22.918	1509.093	1183.233
178.110	22.702	1507.546	1180.466
179.125	22.728	1506.762	1179.926
180.140	22.804	1505.477	1179.323
181.154	22.912	1505.024	1179.584
182.169	23.202	1504.444	1180.958
183.183	23.224	1503.622	1180.357
184.198	23.292	1502.560	1179.873
185.213	23.223	1502.209	1179.034
186.227	23.408	1501.117	1179.301
187.242	23.380	1499.951	1178.097
188.256	23.363	1499.008	1177.134
189.271	23.395	1498.229	1176.632
190.286	23.498	1497.591	1176.712
191.300	23.598	1496.617	1176.505
192.315	23.372	1494.625	1173.339
193.329	22.947	1493.497	1169.536
194.344	22.962	1492.879	1169.051
195.359	22.992	1491.879	1168.361
196.373	22.924	1490.149	1166.452
197.388	22.750	1489.509	1164.701
198.402	22.629	1488.619	1163.104
199.417	22.934	1487.352	1164.023
200.432	23.404	1487.248	1166.935
201.446	23.591	1487.079	1167.927
202.461	23.727	1486.138	1167.980
203.475	23.728	1485.160	1167.112
204.490	23.818	1484.321	1166.943
205.504	23.472	1483.569	1163.976
206.519	23.254	1481.652	1160.941
207.534	23.126	1480.308	1158.944
208.548	23.121	1478.922	1157.722
209.563	22.851	1478.352	1155.407
210.577	22.949	1477.146	1155.005
211.592	22.932	1476.270	1154.109
212.607	22.979	1475.944	1154.057
213.621	23.336	1475.617	1156.028
214.636	23.633	1475.171	1157.515
215.650	23.479	1474.415	1155.819
216.665	23.268	1473.046	1153.269
217.680	23.385	1472.740	1153.686
218.694	23.617	1472.476	1154.890
219.709	23.770	1471.368	1154.914
220.723	23.716	1470.515	1153.788
221.738	23.567	1469.173	1151.667
222.753	23.525	1468.984	1151.145
223.767	23.471	1467.673	1149.661
224.782	23.348	1466.104	1147.536
225.796	23.440	1465.244	1147.357
226.811	23.724	1464.674	1148.648
227.826	23.823	1464.319	1148.906
228.840	23.594	1463.198	1146.446
229.855	23.444	1461.996	1144.434
230.869	23.411	1460.613	1143.037
231.884	23.270	1459.984	1141.538
232.899	23.339	1458.324	1140.580
233.913	23.165	1457.006	1138.329
234.928	22.959	1456.235	1136.301
235.942	22.968	1454.851	1135.179
236.957	22.960	1453.610	1134.059
237.972	22.774	1452.606	1131.986
238.986	22.692	1451.004	1130.108
240.001	22.822	1450.107	1130.145
241.015	22.921	1449.408	1130.129
242.030	22.879	1448.208	1128.825
243.045	22.907	1447.317	1128.213
244.059	23.050	1446.765	1128.594
245.074	23.247	1446.530	1129.568
246.088	23.283	1445.851	1129.171
247.103	23.413	1445.315	1129.477
248.117	23.465	1444.865	1129.357
249.132	23.642	1443.831	1129.574
250.147	23.866	1443.249	1130.443
251.161	24.085	1443.707	1132.095
252.176	24.438	1443.295	1133.919
253.190	24.421	1442.480	1133.069
254.205	24.441	1441.397	1132.242
255.220	24.522	1440.977	1132.325
256.234	24.598	1440.595	1132.408
257.249	24.716	1439.598	1132.270
258.263	24.599	1438.590	1130.639
259.278	24.504	1437.491	1129.074
260.293	24.420	1436.626	1127.763
261.307	24.348	1436.050	1126.759
262.322	24.485	1435.500	1127.094
263.336	24.675	1434.759	1127.606
264.351	24.629	1433.583	1126.296
265.366	24.634	1432.468	1125.352
266.380	24.660	1431.890	1124.961
267.395	24.550	1430.642	1123.189
268.409	24.611	1430.071	1123.025
269.424	24.537	1428.621	1121.321
270.439	24.226	1427.676	1118.530
271.453	24.304	1426.873	1118.291
272.468	24.208	1425.561	1116.562
273.482	24.084	1424.896	1115.165
274.497	23.927	1424.176	1113.519
275.512	23.908	1423.198	1112.535
276.526	24.090	1421.761	1112.452
277.541	23.921	1421.391	1111.011
278.555	23.864	1420.714	1110.027
279.570	24.060	1419.311	1110.052
280.585	24.250	1418.552	1110.547
281.599	24.444	1418.558	1111.658
282.614	24.436	1418.255	1111.276
283.628	24.398	1416.644	1109.680
284.643	24.156	1415.043	1106.823
285.657	24.055	1414.171	1105.415
286.672	24.024	1413.021	1104.224
287.687	24.033	1412.041	1103.422
288.701	24.088	1410.968	1102.823
289.716	24.168	1410.560	1102.901
290.730	24.196	1410.058	1102.583
291.745	24.072	1409.037	1100.924
292.760	24.094	1407.932	1100.095
293.774	24.138	1407.047	1099.579
294.789	24.157	1406.229	1098.963
295.803	24.339	1405.866	1099.705
296.818	24.568	1404.779	1100.169
297.833	24.306	1403.688	1097.601
298.847	24.157	1402.682	1095.800
299.862	24.097	1401.620	1094.508
300.876	24.094	1400.829	1093.774
301.891	24.118	1399.798	1093.016
302.906	24.176	1399.461	1093.015
303.920	24.361	1399.040	1093.722
304.935	24.532	1398.691	1094.402
305.949	24.737	1398.412	1095.342
306.964	24.782	1397.700	1094.961
307.979	24.851	1396.569	1094.403
308.993	24.690	1395.617	1092.578
310.008	24.600	1394.153	1090.783
311.022	24.448	1393.181	1088.997
312.037	24.587	1392.775	1089.434
313.052	24.695	1391.646	1089.114
314.066	24.606	1390.494	1087.571
315.081	24.336	1389.703	1085.214
316.095	24.084	1387.773	1082.079
317.110	23.881	1386.155	1079.493
318.125	23.894	1385.335	1078.834
319.139	23.839	1385.205	1078.303
320.154	23.810	1384.099	1077.170
321.168	24.014	1382.600	1077.148
322.183	23.966	1381.724	1076.076
323.197	23.882	1380.991	1074.903
324.212	24.039	1379.942	1074.941
325.227	24.037	1379.597	1074.563
326.241	24.089	1379.086	1074.385
327.256	24.145	1378.065	1073.830
328.270	24.258	1376.958	1073.555
329.285	24.085	1376.102	1071.750
330.300	23.975	1375.102	1070.215
331.314	24.014	1374.629	1069.985
332.329	24.158	1373.743	1070.071
333.343	23.973	1372.398	1067.814
334.358	23.901	1371.761	1066.793
335.373	24.166	1371.122	1067.789
336.387	24.404	1371.235	1069.211
337.402	24.458	1370.488	1068.859
338.416	24.562	1369.986	1068.995
339.431	24.572	1369.486	1068.568
340.446	24.565	1368.827	1067.919
341.460	24.702	1367.939	1067.948
342.475	24.960	1367.524	1069.070
343.489	25.119	1366.542	1069.155
344.504	25.249	1365.718	1069.190
345.519	25.221	1365.173	1068.503
346.533	25.293	1364.334	1068.184
347.548	25.338	1363.451	1067.666
348.562	25.204	1362.917	1066.352
349.577	25.262	1362.115	1065.976
350.592	25.077	1360.859	1063.800
351.606	24.741	1359.355	1060.537
352.621	24.508	1357.805	1057.858
353.635	24.359	1356.582	1055.925
354.650	24.444	1355.212	1055.271
355.665	24.346	1354.186	1053.799
356.679	24.347	1353.795	1053.410
357.694	24.435	1352.978	1053.197
358.708	24.465	1352.192	1052.669
359.723	24.673	1351.293	1053.102
360.738	24.732	1350.216	1052.519
361.752	24.653	1349.353	1051.285
362.767	24.611	1348.412	1050.215
363.781	24.638	1347.400	1049.489
364.796	24.698	1346.564	1049.098
365.810	24.780	1345.987	1049.040
366.825	25.095	1345.417	1050.349
367.840	25.304	1344.829	1051.020
368.854	25.438	1344.521	1051.471
369.869	25.462	1344.356	1051.389
370.883	25.450	1343.641	1050.668
371.898	25.402	1342.542	1049.432
372.913	25.320	1341.791	1048.277
373.927	25.208	1340.751	1046.716
374.942	24.944	1340.236	1044.683
375.956	25.131	1339.386	1045.019
376.971	25.428	1338.738	1046.146
377.986	25.203	1337.676	1043.915
379.000	25.131	1337.098	1042.956
380.015	25.342	1336.127	1043.331
381.029	25.510	1336.159	1044.237
382.044	25.604	1335.340	1044.050
383.059	25.659	1334.447	1043.578
384.073	25.556	1334.132	1042.645
385.088	25.431	1333.626	1041.432
386.102	25.540	1332.371	1040.994
387.117	25.624	1331.525	1040.724
388.132	25.454	1330.691	1038.996
389.146	25.053	1329.614	1035.745
390.161	24.976	1328.940	1034.684
391.175	24.988	1327.864	1033.824
392.190	24.768	1326.924	1031.734
393.205	24.896	1326.466	1032.026
394.219	25.278	1325.345	1033.259
395.234	25.432	1324.804	1033.631
396.248	25.223	1323.693	1031.474
397.263	25.078	1321.986	1029.218
398.278	24.947	1320.660	1027.347
399.292	24.842	1319.448	1025.708
400.307	24.863	1318.565	1025.051
401.321	24.868	1317.548	1024.201
402.336	24.828	1316.530	1023.088
403.350	24.680	1315.392	1021.271
404.365	24.588	1314.345	1019.840
405.380	24.717	1313.817	1020.075
406.394	24.989	1313.047	1020.939
407.409	24.999	1312.449	1020.438
408.423	25.036	1312.090	1020.282
409.438	25.376	1311.631	1021.770
410.453	25.454	1311.287	1021.856
411.467	25.568	1310.467	1021.775
412.482	25.712	1310.035	1022.162
413.496	25.777	1309.035	1021.661
414.511	25.750	1308.478	1020.983
415.526	25.678	1308.252	1020.306
416.540	25.811	1307.725	1020.560
417.555	25.976	1307.037	1020.868
418.569	26.174	1306.033	1021.112
419.584	25.811	1305.738	1018.741
420.599	25.732	1304.810	1017.477
421.613	144.661	1435.680	1795.723
422.628	140.124	1454.711	1795.796
