DTS Sentinel unit serial number:	SN413079Multiplexer serial number:	ORYXHardware model number:	OX4-SRSoftware version number:	ORYX F/W v4.00 Oryx Data Collector v3.7.2.0data status	okinstallation	princeton_trtdifferential loss correction	single-endedforward channel	channel 4reverse channel	N/Adate	2019/09/18time	02:13:34forward acquisition time	60.00reverse acquisition time	0.00gamma	496.2192k internal	0.2335k external	0.2335temperature offset calibration	0.9993default loss term (dB/km)	0.3790temperature slope calibration	1.0000multiplexer offset coefficient	1.0000multiplexer slope coefficient	1.0000fibre end	0.00T internal ref (°C)	22.87T ext. ref 1 (°C)	0.16T ext. ref 2 (°C)	16.73length (m)	temperature (°C)	Stokes	anti-Stokes-747.200	-100.056	0.411	-0.103
-746.185	-44.361	-0.119	-0.060
-745.171	217.663	-0.074	-0.119
-744.156	-200.000	0.006	0.126
-743.142	363.684	0.127	-0.256
-742.127	-200.000	0.003	0.150
-741.112	800.000	0.073	0.311
-740.098	189.271	0.005	-0.007
-739.083	169.734	0.235	0.338
-738.069	641.279	-0.172	0.440
-737.054	28.145	-0.109	-0.093
-736.039	-46.814	-0.150	0.074
-735.025	89.457	0.279	0.313
-734.010	-102.139	-0.112	-0.027
-732.996	-200.000	0.009	0.169
-731.981	-165.094	0.181	-0.008
-730.966	100.994	-0.221	-0.258
-729.952	-113.055	-0.115	-0.023
-728.937	16.837	0.162	0.129
-727.923	-193.459	0.160	-0.001
-726.908	-1.754	-0.136	-0.096
-725.894	195.528	-0.153	-0.234
-724.879	-182.870	-0.298	-0.005
-723.864	141.768	-0.194	0.258
-722.850	96.295	0.221	-0.253
-721.835	221.455	-0.084	0.135
-720.821	800.000	-0.084	-0.245
-719.806	-139.867	-0.225	0.024
-718.791	-183.837	-0.194	-0.003
-717.777	-200.000	0.006	-0.173
-716.762	-200.000	-0.030	0.166
-715.748	-200.000	-0.108	-0.496
-714.733	-28.856	-0.327	-0.189
-713.718	31.961	0.116	-0.101
-712.704	-84.612	-0.044	0.014
-711.689	98.065	0.086	-0.099
-710.675	-0.490	-0.066	0.047
-709.660	800.000	0.084	0.327
-708.645	-200.000	-0.017	-0.134
-707.631	-200.000	-0.011	0.108
-706.616	-57.976	-0.081	-0.036
-705.602	-29.032	-0.115	-0.066
-704.587	8.425	-0.153	0.115
-703.572	138.622	-0.022	0.030
-702.558	-56.430	0.033	-0.015
-701.543	80.768	0.212	0.230
-700.529	-113.960	-0.333	-0.065
-699.514	-106.643	-0.322	0.072
-698.499	-200.000	0.020	-0.171
-697.485	-23.658	-0.240	0.144
-696.470	-108.621	0.414	0.089
-695.456	-45.511	0.171	0.085
-694.441	-141.842	0.267	0.027
-693.426	-186.193	-0.258	-0.004
-692.412	-152.155	-0.194	-0.014
-691.397	417.683	0.094	0.202
-690.383	800.000	0.031	-0.103
-689.368	153.312	0.093	-0.127
-688.354	186.350	0.190	0.284
-687.339	-148.753	-0.216	-0.018
-686.324	230.999	-0.065	0.106
-685.310	-19.823	0.192	-0.119
-684.295	34.373	0.188	0.165
-683.281	-91.052	0.060	0.017
-682.266	100.108	-0.092	-0.107
-681.251	-140.832	0.247	-0.026
-680.237	-81.839	0.236	0.077
-679.222	-3.842	0.104	-0.073
-678.208	-77.134	0.222	0.077
-677.193	-44.868	-0.215	0.107
-676.178	800.000	-0.029	0.107
-675.164	-86.929	-0.108	-0.033
-674.149	-41.900	0.337	0.173
-673.135	-109.833	-0.141	0.030
-672.120	-88.360	-0.328	0.098
-671.105	214.359	0.077	0.122
-670.091	-58.270	-0.147	0.064
-669.076	-40.288	-0.090	0.047
-668.062	289.988	0.076	0.139
-667.047	149.673	-0.126	0.171
-666.032	-200.000	0.007	0.134
-665.018	-200.000	-0.013	0.357
-664.003	800.000	-0.044	-0.152
-662.989	-32.860	-0.234	-0.130
-661.974	-166.757	-0.282	0.012
-660.959	-81.481	-0.089	0.029
-659.945	-200.000	-0.025	0.109
-658.930	-89.795	0.110	0.032
-657.916	-200.000	-0.015	-0.468
-656.901	-25.231	-0.195	-0.116
-655.886	-173.997	0.054	0.002
-654.872	-37.523	-0.423	0.226
-653.857	-100.433	0.180	-0.045
-652.843	3.214	-0.119	0.087
-651.828	-133.836	0.139	0.017
-650.814	-63.583	-0.195	-0.080
-649.799	-144.528	-0.032	0.003
-648.784	132.792	0.091	0.117
-647.770	134.916	0.144	-0.187
-646.755	-57.423	-0.301	-0.132
-645.741	122.015	-0.061	-0.076
-644.726	-42.299	-0.264	0.135
-643.711	62.355	-0.245	-0.245
-642.697	0.552	-0.172	-0.123
-641.682	-16.074	-0.284	-0.181
-640.668	-141.962	0.207	-0.021
-639.653	-78.370	-0.145	0.050
-638.638	-200.000	-0.017	-0.112
-637.624	103.383	-0.139	0.163
-636.609	22.650	0.211	0.172
-635.595	2.382	0.135	0.098
-634.580	-115.792	-0.136	0.025
-633.565	-108.151	-0.047	0.010
-632.551	-45.909	-0.256	-0.127
-631.536	-184.182	-0.056	-0.001
-630.522	27.829	0.229	0.193
-629.507	-200.000	-0.003	-0.118
-628.492	800.000	0.069	0.279
-627.478	-26.168	-0.143	-0.084
-626.463	88.014	-0.184	-0.204
-625.449	-200.000	-0.001	0.074
-624.434	-44.289	0.041	0.020
-623.419	800.000	-0.017	0.052
-622.405	-129.092	0.130	0.018
-621.390	-200.000	0.013	0.116
-620.376	-106.098	-0.098	-0.022
-619.361	467.292	0.083	-0.186
-618.346	-128.544	-0.367	0.052
-617.332	13.804	0.235	-0.183
-616.317	218.269	-0.126	-0.201
-615.303	-200.000	0.023	0.356
-614.288	-109.115	-0.211	-0.045
-613.273	-30.541	-0.368	-0.208
-612.259	249.698	-0.174	-0.294
-611.244	78.420	0.226	-0.242
-610.230	-155.302	0.090	-0.006
-609.215	-200.000	0.002	-0.257
-608.201	237.629	-0.021	0.035
-607.186	83.383	0.092	0.100
-606.171	316.017	0.192	0.363
-605.157	-48.583	-0.049	0.024
-604.142	-200.000	-0.024	-0.177
-603.128	-200.000	-0.034	-0.526
-602.113	74.251	0.078	-0.081
-601.098	-27.391	-0.176	-0.102
-600.084	200.310	0.114	0.174
-599.069	-14.005	0.069	0.044
-598.055	-127.752	-0.220	-0.032
-597.040	800.000	-0.072	-0.232
-596.025	298.360	0.092	-0.168
-595.011	-138.723	0.395	0.043
-593.996	800.000	0.093	0.312
-592.982	-200.000	-0.019	0.292
-591.967	190.806	0.103	0.154
-590.952	231.485	-0.032	-0.053
-589.938	-200.000	-0.049	-0.461
-588.923	-200.000	0.037	-0.217
-587.909	-34.612	-0.139	-0.076
-586.894	-88.053	-0.418	0.125
-585.879	-55.756	-0.136	0.061
-584.865	14.242	-0.212	0.165
-583.850	363.331	0.194	-0.389
-582.836	38.180	0.294	0.262
-581.821	24.466	-0.161	0.133
-580.806	3.378	0.318	-0.231
-579.792	83.716	0.010	0.011
-578.777	800.000	-0.042	0.122
-577.763	-129.121	0.199	0.028
-576.748	-127.483	-0.097	0.014
-575.733	47.275	-0.253	0.235
-574.719	-200.000	0.032	0.245
-573.704	507.545	0.083	0.193
-572.690	-74.935	-0.314	-0.112
-571.675	800.000	0.064	0.180
-570.661	-12.355	0.157	-0.102
-569.646	-142.432	0.063	0.006
-568.631	62.871	-0.397	0.396
-567.617	-200.000	0.014	-0.155
-566.602	199.484	0.117	-0.179
-565.588	800.000	0.052	0.177
-564.573	62.722	-0.111	0.110
-563.558	-34.206	0.158	-0.087
-562.544	44.929	0.078	0.072
-561.529	800.000	-0.108	0.336
-560.515	-200.000	0.003	0.026
-559.500	179.657	-0.098	0.143
-558.485	-200.000	-0.008	-0.044
-557.471	19.472	-0.222	-0.178
-556.456	-172.348	-0.311	0.010
-555.442	-132.299	0.195	-0.025
-554.427	800.000	0.075	-0.307
-553.412	-200.000	-0.026	-0.283
-552.398	-101.334	0.248	0.060
-551.383	-116.548	-0.310	0.057
-550.369	-41.225	0.387	0.199
-549.354	-20.664	-0.331	0.203
-548.339	-159.166	0.098	-0.006
-547.325	174.053	-0.235	-0.338
-546.310	-56.446	0.065	0.029
-545.296	0.755	-0.191	0.136
-544.281	-200.000	0.022	-0.181
-543.266	190.170	-0.104	0.156
-542.252	-200.000	0.016	0.216
-541.237	48.852	0.076	-0.071
-540.223	-137.459	-0.140	-0.016
-539.208	303.726	-0.045	-0.084
-538.193	-54.234	0.121	-0.055
-537.179	-176.141	0.081	-0.002
-536.164	18.703	-0.166	-0.133
-535.150	-120.069	-0.277	0.047
-534.135	117.455	0.114	-0.140
-533.121	800.000	0.041	0.157
-532.106	-200.000	-0.010	0.059
-531.091	-58.463	-0.406	-0.176
-530.077	49.387	0.079	-0.074
-529.062	174.530	-0.178	-0.257
-528.048	800.000	0.100	-0.395
-527.033	-54.478	-0.106	-0.048
-526.018	85.566	0.106	-0.116
-525.004	215.527	0.074	0.118
-523.989	44.030	0.166	-0.152
-522.975	-25.630	0.335	-0.197
-521.960	396.900	0.125	0.260
-520.945	44.572	0.228	0.209
-519.931	800.000	0.024	-0.090
-518.916	800.000	0.038	-0.118
-517.902	525.550	0.109	0.256
-516.887	151.909	-0.048	0.065
-515.872	-68.833	0.178	-0.069
-514.858	-3.066	-0.246	0.171
-513.843	-200.000	-0.097	-0.502
-512.829	670.592	-0.166	-0.429
-511.814	561.216	0.064	0.153
-510.799	375.184	0.079	0.160
-509.785	129.607	-0.056	-0.071
-508.770	22.532	-0.188	0.153
-507.756	167.347	0.188	-0.267
-506.741	-200.000	-0.032	-0.211
-505.726	-60.848	0.197	0.083
-504.712	182.103	0.210	-0.307
-503.697	149.428	-0.188	0.254
-502.683	-200.000	0.029	0.323
-501.668	-95.962	-0.466	0.124
-500.653	-65.514	-0.087	-0.035
-499.639	-103.544	-0.095	0.022
-498.624	-120.455	0.091	0.015
-497.610	-48.707	0.286	0.137
-496.595	-63.162	0.162	-0.066
-495.581	188.089	-0.032	0.047
-494.566	21.977	0.183	0.149
-493.551	351.927	-0.175	0.344
-492.537	160.424	-0.118	-0.164
-491.522	-159.876	-0.126	-0.007
-490.508	-94.452	0.075	-0.020
-489.493	-26.774	0.055	0.032
-488.478	-200.000	0.000	0.162
-487.464	41.522	-0.206	-0.185
-486.449	800.000	0.055	-0.158
-485.435	-100.778	0.056	-0.014
-484.420	-200.000	-0.014	-0.196
-483.405	-50.373	-0.162	-0.076
-482.391	-60.281	0.120	0.051
-481.376	83.040	0.076	0.082
-480.362	-40.614	0.130	0.067
-479.347	-14.524	-0.191	-0.122
-478.332	-200.000	-0.025	-0.247
-477.318	63.381	0.187	-0.186
-476.303	-51.016	-0.244	-0.114
-475.289	73.390	0.123	-0.128
-474.274	-104.541	0.340	-0.078
-473.259	-193.619	-0.144	-0.001
-472.245	22.537	0.075	0.061
-471.230	-200.000	-0.028	0.124
-470.216	67.253	0.202	-0.205
-469.201	134.872	-0.126	0.163
-468.186	-178.737	0.381	-0.009
-467.172	-44.620	0.375	0.186
-466.157	-13.946	0.176	-0.113
-465.143	-140.728	-0.269	-0.028
-464.128	128.244	0.136	-0.173
-463.113	-124.247	0.095	0.015
-462.099	-108.230	0.136	0.029
-461.084	7.282	0.074	0.055
-460.070	145.420	-0.305	-0.406
-459.055	-46.227	-0.112	0.055
-458.040	800.000	-0.044	0.174
-457.026	-20.000	-0.204	0.125
-456.011	800.000	-0.102	-0.398
-454.997	-163.776	-0.338	-0.016
-453.982	-2.309	-0.472	-0.329
-452.968	-95.915	-0.177	0.047
-451.953	-200.000	0.026	-0.202
-450.938	-142.116	0.055	0.005
-449.924	-41.900	-0.257	0.131
-448.909	-107.626	0.391	0.085
-447.895	-36.497	0.113	0.060
-446.880	-200.000	-0.006	0.117
-445.865	638.716	0.046	0.116
-444.851	43.362	0.237	-0.215
-443.836	168.673	-0.168	0.238
-442.822	162.709	0.124	-0.172
-441.807	-156.159	0.191	0.012
-440.792	125.905	0.132	-0.166
-439.778	76.064	-0.415	-0.436
-438.763	81.988	-0.143	-0.153
-437.749	226.959	-0.206	-0.333
-436.734	14.778	-0.089	0.069
-435.719	163.650	-0.116	0.162
-434.705	5.233	0.125	0.092
-433.690	113.402	-0.180	0.217
-432.676	125.433	0.193	-0.242
-431.661	800.000	-0.088	-0.291
-430.646	-171.785	-0.069	-0.002
-429.632	-11.183	-0.274	-0.179
-428.617	109.454	0.199	0.236
-427.603	48.433	-0.172	-0.160
-426.588	119.480	0.061	-0.075
-425.573	510.637	-0.048	0.110
-424.559	800.000	-0.086	-0.251
-423.544	-200.000	-0.002	0.045
-422.530	-48.267	-0.083	-0.040
-421.515	-36.773	0.249	-0.133
-420.500	43.098	0.106	0.096
-419.486	111.091	0.148	0.176
-418.471	-200.000	-0.004	-0.240
-417.457	800.000	-0.050	-0.159
-416.442	-200.000	-0.041	-0.212
-415.428	-116.235	-0.153	0.028
-414.413	264.374	0.056	0.097
-413.398	80.219	0.181	-0.193
-412.384	729.028	-0.085	0.226
-411.369	-69.401	0.487	0.185
-410.355	-80.863	-0.222	0.073
-409.340	-200.000	0.027	0.325
-408.325	-105.522	0.306	-0.069
-407.311	-113.928	0.006	-0.001
-406.296	-200.000	-0.089	0.413
-405.282	-200.000	0.039	-0.274
-404.267	-123.809	0.171	-0.027
-403.252	23.833	-0.027	0.022
-402.238	-14.195	-0.201	-0.128
-401.223	198.460	-0.155	-0.235
-400.209	-23.818	-0.216	-0.128
-399.194	-145.331	0.221	-0.020
-398.179	154.271	-0.285	-0.388
-397.165	-200.000	-0.006	-0.180
-396.150	-14.939	0.188	0.119
-395.136	230.562	0.071	0.115
-394.121	221.047	-0.038	0.060
-393.106	291.997	0.150	-0.271
-392.092	-200.000	0.089	0.593
-391.077	226.759	0.114	0.184
-390.063	28.232	0.232	-0.194
-389.048	-86.918	0.229	0.069
-388.033	-72.577	-0.413	-0.151
-387.019	19.721	-0.193	0.154
-386.004	-104.753	-0.221	-0.050
-384.990	30.653	0.101	0.086
-383.975	-87.835	0.209	-0.062
-382.960	-43.454	0.209	-0.105
-381.946	-200.000	-0.009	-0.104
-380.931	605.989	0.031	0.077
-379.917	-76.932	-0.082	-0.028
-378.902	-200.000	0.002	0.092
-377.888	-197.564	-0.067	0.000
-376.873	-135.614	0.100	0.012
-375.858	-52.637	-0.106	0.048
-374.844	89.874	-0.089	0.099
-373.829	601.357	0.063	0.155
-372.815	-18.937	0.129	0.080
-371.800	-19.270	-0.348	0.214
-370.785	61.348	0.171	-0.168
-369.771	-138.961	-0.331	0.036
-368.756	-69.074	-0.208	-0.080
-367.742	-103.944	-0.190	0.044
-366.727	-200.000	-0.015	-0.350
-365.712	-36.162	-0.037	0.020
-364.698	244.122	0.073	0.121
-363.683	547.312	-0.052	0.123
-362.669	-200.000	0.032	0.167
-361.654	-200.000	-0.053	0.390
-360.639	-123.928	0.233	-0.036
-359.625	-200.000	-0.003	-0.369
-358.610	-70.039	-0.022	0.008
-357.596	800.000	-0.029	0.088
-356.581	567.776	0.065	0.156
-355.566	-43.267	-0.104	0.052
-354.552	-133.528	0.252	0.031
-353.537	139.635	0.047	-0.062
-352.523	3.108	-0.297	-0.214
-351.508	-200.000	0.039	-0.399
-350.493	2.690	0.450	0.322
-349.479	-200.000	0.040	-0.216
-348.464	-200.000	-0.057	0.477
-347.450	-128.932	0.246	-0.034
-346.435	800.000	-0.102	-0.323
-345.420	-118.061	0.237	0.042
-344.406	191.781	-0.070	-0.105
-343.391	75.970	0.024	-0.026
-342.377	-98.023	-0.289	-0.074
-341.362	73.128	-0.017	-0.017
-340.348	-103.738	0.038	-0.009
-339.333	398.757	-0.080	0.165
-338.318	-200.000	-0.054	0.495
-337.304	517.710	-0.036	0.084
-336.289	398.179	-0.143	0.295
-335.275	-200.000	-0.030	-0.200
-334.260	800.000	-0.071	-0.213
-333.245	12.320	0.333	0.254
-332.231	-12.935	-0.075	0.048
-331.216	52.969	0.056	-0.053
-330.202	-44.389	0.085	-0.042
-329.187	800.000	0.085	-0.264
-328.172	43.204	-0.108	0.097
-327.158	53.610	-0.168	-0.159
-326.143	735.403	-0.029	-0.077
-325.129	77.160	0.248	-0.260
-324.114	-200.000	0.011	-0.151
-323.099	261.801	-0.171	0.294
-322.085	-200.000	-0.322	-0.000
-321.070	-122.629	-0.150	0.024
-320.056	800.000	0.145	0.404
-319.041	-150.751	-0.175	0.013
-318.026	-200.000	-0.017	0.142
-317.012	-119.726	0.274	0.047
-315.997	-122.430	-0.233	-0.037
-314.983	-200.000	0.021	0.108
-313.968	-128.352	0.121	-0.017
-312.953	-84.758	-0.173	0.054
-311.939	-95.970	-0.372	-0.098
-310.924	252.474	0.036	-0.060
-309.910	295.412	-0.085	0.153
-308.895	-124.425	-0.048	-0.007
-307.880	331.449	0.116	0.221
-306.866	-55.672	-0.188	-0.083
-305.851	-61.108	-0.116	0.048
-304.837	-18.440	0.169	0.104
-303.822	8.650	0.237	0.176
-302.807	-174.554	0.301	-0.008
-301.793	314.391	0.024	0.044
-300.778	-200.000	-0.024	0.108
-299.764	-200.000	0.009	-0.142
-298.749	305.179	-0.146	-0.267
-297.735	-15.822	-0.118	-0.074
-296.720	73.076	0.135	0.139
-295.705	-19.193	0.225	0.138
-294.691	717.158	0.119	0.312
-293.676	-200.000	-0.026	0.208
-292.662	50.566	-0.110	-0.103
-291.647	-200.000	0.098	-0.450
-290.632	183.566	-0.140	0.204
-289.618	-129.796	-0.124	-0.017
-288.603	-72.277	-0.220	-0.081
-287.589	411.270	0.056	-0.116
-286.574	7.691	-0.161	0.119
-285.559	130.161	-0.089	0.113
-284.545	-89.427	-0.267	0.077
-283.530	-132.735	-0.269	-0.034
-282.516	-200.000	-0.011	-0.104
-281.501	163.601	0.126	-0.175
-280.486	44.564	-0.224	0.203
-279.472	20.163	0.147	0.117
-278.457	800.000	-0.035	-0.141
-277.443	-80.603	-0.398	0.131
-276.428	-200.000	-0.010	0.387
-275.413	22.398	0.242	0.195
-274.399	89.741	0.252	0.277
-273.384	-27.800	0.152	-0.087
-272.370	-9.574	-0.246	-0.162
-271.355	217.597	-0.075	0.119
-270.340	60.723	0.185	0.181
-269.326	-34.471	-0.142	-0.077
-268.311	-7.897	-0.138	-0.092
-267.297	233.312	0.140	0.227
-266.282	-81.472	-0.237	0.077
-265.267	-187.554	0.233	0.003
-264.253	-166.872	0.559	0.023
-263.238	73.069	-0.078	0.080
-262.224	800.000	0.089	-0.353
-261.209	364.059	0.197	-0.391
-260.195	-184.650	-0.129	0.002
-259.180	-92.513	0.386	0.107
-258.165	-45.803	0.355	0.173
-257.151	-200.000	0.017	0.195
-256.136	-171.952	-0.161	0.005
-255.122	800.000	-0.034	0.123
-254.107	320.598	0.136	-0.255
-253.092	-139.918	0.112	-0.012
-252.078	206.272	0.114	-0.175
-251.063	49.111	-0.152	0.141
-250.049	-200.000	0.004	-0.100
-249.034	-87.085	0.508	0.152
-248.019	-200.000	-0.002	0.244
-247.005	-200.000	-0.038	-0.211
-245.990	-65.870	0.188	0.074
-244.976	-151.929	-0.040	-0.003
-243.961	-200.000	0.065	0.389
-242.946	53.355	0.176	0.166
-241.932	-126.855	-0.561	-0.081
-240.917	-2.265	0.189	0.130
-239.903	-95.418	0.082	-0.022
-238.888	606.794	-0.093	0.230
-237.873	0.441	0.106	-0.074
-236.859	292.979	-0.022	-0.040
-235.844	-200.000	-0.033	0.275
-234.830	-19.595	-0.266	-0.162
-233.815	-159.969	0.143	0.008
-232.800	-200.000	-0.057	0.274
-231.786	-51.354	0.275	0.127
-230.771	-200.000	0.016	0.208
-229.757	-126.049	-0.203	-0.030
-228.742	800.000	-0.030	0.113
-227.727	800.000	-0.100	-0.280
-226.713	230.398	0.240	-0.386
-225.698	26.352	-0.220	-0.181
-224.684	314.861	0.040	-0.073
-223.669	46.430	-0.078	0.071
-222.655	800.000	0.103	-0.310
-221.640	69.911	-0.147	0.150
-220.625	-105.386	0.224	0.050
-219.611	85.252	-0.156	0.168
-218.596	698.382	0.121	-0.312
-217.582	-76.964	0.151	-0.052
-216.567	-128.727	-0.295	-0.041
-215.552	-200.000	-0.055	-0.268
-214.538	-200.000	-0.038	0.271
-213.523	-83.304	0.180	0.057
-212.509	-114.081	-0.074	0.014
-211.494	422.619	0.147	0.311
-210.479	72.156	-0.025	0.025
-209.465	-134.651	-0.246	0.029
-208.450	-200.000	0.000	-0.034
-207.436	522.554	-0.062	0.144
-206.421	108.158	0.063	0.074
-205.406	-61.671	0.110	-0.046
-204.392	-22.045	0.326	0.195
-203.377	118.097	0.115	0.140
-202.363	-200.000	-0.047	-0.303
-201.348	296.922	-0.076	-0.137
-200.333	187.633	0.251	-0.369
-199.319	-102.897	-0.224	0.052
-198.304	21.050	0.099	0.079
-197.290	-13.010	0.076	-0.049
-196.275	-200.000	0.009	0.153
-195.260	313.012	0.066	0.122
-194.246	251.626	0.187	0.312
-193.231	-151.562	0.172	-0.012
-192.217	28.308	0.057	0.047
-191.202	800.000	-0.188	-0.543
-190.187	-65.762	-0.265	0.104
-189.173	-32.508	0.443	-0.243
-188.158	-43.887	-0.176	-0.087
-187.144	-8.716	0.102	-0.067
-186.129	427.739	0.095	0.202
-185.114	8.610	-0.023	0.017
-184.100	-97.604	-0.325	-0.083
-183.085	-138.031	0.008	0.001
-182.071	132.172	0.130	0.165
-181.056	800.000	-0.063	0.179
-180.042	-35.359	0.432	0.231
-179.027	-56.651	-0.210	0.092
-178.012	800.000	-0.007	-0.028
-176.998	-166.406	0.359	0.015
-175.983	-43.915	0.186	0.092
-174.969	397.356	0.053	0.110
-173.954	179.627	0.095	0.137
-172.939	-91.496	0.362	0.102
-171.925	-52.497	-0.167	-0.076
-170.910	1.274	-0.066	-0.046
-169.896	164.410	0.096	-0.133
-168.881	75.908	0.231	-0.240
-167.866	-200.000	0.024	-0.366
-166.852	-51.876	0.416	-0.190
-165.837	-106.760	0.130	-0.028
-164.823	56.404	-0.211	-0.201
-163.808	-59.583	-0.376	-0.159
-162.793	800.000	-0.049	0.154
-161.779	4.754	-0.167	0.120
-160.764	-31.125	0.187	0.104
-159.750	42.200	0.211	0.189
-158.735	800.000	0.131	0.538
-157.720	36.446	0.164	0.142
-156.706	138.901	-0.080	0.103
-155.691	76.451	-0.113	0.118
-154.677	800.000	0.018	0.062
-153.662	-200.000	0.012	0.105
-152.647	229.215	0.094	0.151
-151.633	-200.000	-0.017	-0.128
-150.618	-116.813	0.123	0.022
-149.604	-181.139	0.238	-0.005
-148.589	164.351	-0.153	-0.212
-147.574	-56.598	-0.381	0.166
-146.560	24.505	0.337	-0.274
-145.545	39.095	0.256	0.225
-144.531	-51.661	0.114	-0.052
-143.516	-103.799	0.215	0.049
-142.502	-200.000	-0.027	0.196
-141.487	-200.000	0.041	0.247
-140.472	-136.510	0.285	0.032
-139.458	-136.016	0.090	-0.010
-138.443	-200.000	0.035	-0.180
-137.429	-200.000	0.015	0.120
-136.414	211.958	-0.178	-0.276
-135.399	17.880	0.157	0.122
-134.385	-128.282	-0.122	0.017
-133.370	218.007	0.136	-0.212
-132.356	-35.363	-0.240	0.128
-131.341	-117.610	0.067	-0.012
-130.326	-200.000	-0.052	0.490
-129.312	56.958	0.101	-0.097
-128.297	800.000	0.030	0.097
-127.283	729.066	-0.075	0.196
-126.268	-38.504	0.079	-0.041
-125.253	214.379	0.112	-0.174
-124.239	124.459	0.134	-0.166
-123.224	72.539	0.338	-0.346
-122.210	-70.213	-0.108	0.040
-121.195	800.000	0.113	0.377
-120.180	0.368	-0.122	-0.086
-119.166	-200.000	0.020	0.172
-118.151	-71.009	0.445	0.164
-117.137	-72.832	-0.197	-0.071
-116.122	-7.402	-0.153	0.102
-115.107	-200.000	0.072	-0.436
-114.093	-106.374	0.133	0.029
-113.078	-22.196	0.192	0.114
-112.064	-31.697	-0.246	0.135
-111.049	800.000	0.148	0.522
-110.034	-30.022	0.216	-0.121
-109.020	371.824	0.008	-0.016
-108.005	800.000	0.066	0.210
-106.991	128.089	0.060	0.074
-105.976	-40.251	0.258	-0.132
-104.962	-200.000	0.002	-0.283
-103.947	92.564	-0.065	0.072
-102.932	85.670	0.113	-0.122
-101.918	-200.000	-0.015	-0.258
-100.903	98.586	0.107	-0.121
-99.889	-118.293	0.316	0.055
-98.874	37.622	0.131	-0.114
-97.859	-101.889	-0.451	-0.107
-96.845	-117.219	0.056	0.010
-95.830	-125.336	0.043	0.006
-94.816	327.755	0.138	0.260
-93.801	144.243	0.304	0.397
-92.786	-200.000	0.004	-0.283
-91.772	211.489	-0.106	0.163
-90.757	-87.666	-0.265	0.078
-89.743	-200.000	-0.035	0.267
-88.728	-72.461	0.148	0.054
-87.713	-12.286	-0.200	-0.128
-86.699	-48.276	-0.248	-0.117
-85.684	13.965	-0.209	-0.160
-84.670	-46.036	0.208	-0.100
-83.655	107.651	0.100	-0.116
-82.640	-58.389	0.161	0.068
-81.626	21.864	0.048	-0.038
-80.611	-156.896	0.191	-0.011
-79.597	250.530	-0.141	-0.235
-78.582	-51.435	-0.171	-0.078
-77.567	438.228	0.053	-0.112
-76.553	-36.851	0.178	0.093
-75.538	-200.000	0.045	-0.212
-74.524	467.071	0.162	-0.356
-73.509	-119.337	-0.143	0.024
-72.494	317.233	-0.082	0.151
-71.480	-200.000	0.039	-0.236
-70.465	800.000	-0.083	-0.256
-69.451	126.986	0.237	0.294
-68.436	503.868	-0.088	0.200
-67.422	-200.000	-0.006	0.166
-66.407	-200.000	-0.007	-0.109
-65.392	490.098	0.149	0.334
-64.378	-120.875	-0.211	0.035
-63.363	-40.853	-0.235	0.119
-62.349	-121.965	-0.069	-0.011
-61.334	55.584	-1.152	-1.091
-60.319	229.469	0.439	0.701
-59.305	800.000	-0.440	-1.238
-58.290	475.807	0.644	1.424
-57.276	462.682	0.811	1.770
-56.261	-200.000	128.061	678.245
-55.246	407.211	1607.454	3322.126
-54.232	136.465	2771.324	3536.574
-53.217	86.818	2337.642	2524.027
-52.203	29.492	2076.770	1726.976
-51.188	24.695	1991.905	1613.174
-50.173	23.415	1976.602	1589.243
-49.159	42.270	2049.123	1820.791
-48.144	39.936	2061.754	1810.587
-47.130	25.099	2013.917	1634.421
-46.115	22.904	2003.035	1605.598
-45.100	22.858	1999.956	1602.646
-44.086	22.836	1997.485	1600.407
-43.071	22.771	1994.537	1597.389
-42.057	22.757	1993.015	1595.980
-41.042	22.769	1991.563	1594.867
-40.027	22.773	1989.478	1593.172
-39.013	22.778	1987.643	1591.683
-37.998	22.798	1985.380	1589.984
-36.984	22.836	1984.012	1589.169
-35.969	22.705	1982.328	1586.579
-34.954	22.746	1980.658	1585.546
-33.940	22.810	1979.395	1585.048
-32.925	22.918	1977.096	1584.113
-31.911	22.930	1975.634	1582.985
-30.896	22.951	1973.686	1581.548
-29.881	22.934	1972.432	1580.326
-28.867	22.967	1971.260	1579.623
-27.852	22.924	1969.564	1577.819
-26.838	22.962	1966.989	1576.034
-25.823	22.905	1965.506	1574.274
-24.809	22.922	1963.835	1573.023
-23.794	22.910	1962.350	1571.669
-22.779	22.954	1960.619	1570.605
-21.765	22.839	1959.290	1568.456
-20.750	22.955	1956.962	1567.565
-19.736	22.896	1955.604	1565.884
-18.721	22.935	1954.482	1565.271
-17.706	22.849	1953.259	1563.473
-16.692	22.845	1951.063	1561.613
-15.677	22.887	1949.345	1560.554
-14.663	22.823	1947.745	1558.646
-13.648	22.919	1946.509	1558.435
-12.633	22.925	1945.174	1557.356
-11.619	22.885	1944.233	1556.191
-10.604	22.818	1942.894	1554.468
-9.590	22.852	1941.131	1553.293
-8.575	22.944	1939.683	1552.882
-7.560	22.843	1938.697	1551.148
-6.546	22.909	1937.573	1550.762
-5.531	22.914	1936.062	1549.534
-4.517	22.920	1934.443	1548.236
-3.502	22.884	1934.120	1547.601
-2.487	22.851	1932.946	1546.306
-1.473	22.870	1931.610	1545.346
-0.458	22.904	1926.501	1541.491
0.556	21.098	1906.328	1513.112
1.571	16.860	1888.351	1462.221
2.586	13.140	1911.658	1447.595
3.600	12.269	1947.201	1466.598
4.615	12.309	1939.591	1461.097
5.629	9.543	1840.317	1362.815
6.644	3.633	1728.176	1232.579
7.659	0.464	1695.578	1184.377
8.673	0.226	1693.131	1180.696
9.688	0.191	1691.692	1179.313
10.702	0.162	1690.259	1177.980
11.717	0.051	1686.098	1174.116
12.731	0.498	1684.859	1176.635
13.746	5.137	1694.447	1219.535
14.761	12.264	1709.219	1286.063
15.775	16.213	1716.105	1322.133
16.790	16.758	1715.326	1325.682
17.804	15.815	1712.446	1315.966
18.819	14.912	1709.483	1306.526
19.834	14.410	1706.596	1300.286
20.848	14.037	1705.931	1296.756
21.863	13.843	1703.573	1293.336
22.877	13.647	1702.488	1290.868
23.892	13.353	1700.951	1287.303
24.907	13.239	1700.044	1285.614
25.921	13.237	1698.529	1284.342
26.936	13.311	1697.684	1284.167
27.950	13.289	1697.251	1283.552
28.965	13.335	1696.524	1283.247
29.980	13.339	1695.611	1282.472
30.994	13.413	1694.722	1282.263
32.009	13.453	1693.616	1281.621
33.023	13.529	1692.748	1281.440
34.038	13.499	1691.978	1280.506
35.053	13.541	1690.569	1279.650
36.067	13.467	1689.393	1278.082
37.082	13.409	1688.836	1277.101
38.096	13.376	1687.903	1276.024
39.111	13.458	1686.774	1275.689
40.126	13.557	1686.151	1275.869
41.140	13.515	1685.285	1274.777
42.155	13.376	1684.017	1272.634
43.169	13.246	1682.582	1270.441
44.184	13.275	1681.637	1269.835
45.199	13.343	1679.671	1268.760
46.213	13.280	1678.921	1267.598
47.228	13.289	1677.986	1266.847
48.242	13.328	1676.184	1265.676
49.257	13.367	1675.110	1265.051
50.271	13.409	1674.219	1264.584
51.286	13.387	1672.917	1263.321
52.301	13.441	1671.177	1262.312
53.315	13.355	1669.964	1260.628
54.330	13.359	1668.940	1259.772
55.344	13.382	1666.654	1258.113
56.359	13.263	1665.933	1256.551
57.374	13.297	1664.361	1255.515
58.388	13.268	1663.583	1254.591
59.403	13.332	1661.656	1253.516
60.417	13.261	1660.637	1252.100
61.432	13.159	1659.672	1250.484
62.447	13.229	1658.250	1249.835
63.461	13.213	1657.021	1248.679
64.476	13.110	1656.144	1247.126
65.490	13.161	1654.356	1246.058
66.505	13.088	1653.324	1244.616
67.520	13.202	1652.281	1244.578
68.534	13.225	1650.976	1243.663
69.549	13.244	1650.028	1242.979
70.563	13.235	1648.493	1241.649
71.578	13.253	1647.151	1240.659
72.593	13.144	1646.208	1239.019
73.607	13.212	1645.171	1238.640
74.622	13.177	1644.361	1237.664
75.636	13.043	1643.434	1235.847
76.651	13.108	1642.487	1235.514
77.666	13.249	1640.698	1235.116
78.680	13.110	1640.419	1233.755
79.695	13.112	1639.409	1232.902
80.709	13.160	1638.346	1232.350
81.724	13.169	1637.607	1231.753
82.739	13.171	1636.659	1230.943
83.753	13.254	1635.431	1230.533
84.768	13.261	1634.592	1229.840
85.782	13.326	1634.050	1229.813
86.797	13.370	1632.907	1229.169
87.812	13.492	1631.421	1228.845
88.826	13.399	1630.636	1227.453
89.841	13.333	1628.999	1225.629
90.855	13.368	1628.284	1225.239
91.870	13.292	1627.473	1223.960
92.884	13.275	1626.247	1222.805
93.899	13.390	1624.895	1222.531
94.914	13.368	1623.673	1221.334
95.928	13.405	1622.725	1220.787
96.943	13.436	1621.356	1219.880
97.957	13.443	1619.772	1218.632
98.972	13.464	1618.454	1217.684
99.987	13.483	1616.574	1216.304
101.001	13.395	1615.134	1214.470
102.016	13.379	1614.301	1213.615
103.030	13.278	1613.148	1211.902
104.045	13.369	1611.652	1211.335
105.060	13.331	1610.089	1209.778
106.074	13.359	1608.688	1208.819
107.089	13.414	1606.697	1207.624
108.103	13.299	1605.798	1205.999
109.118	13.261	1604.197	1204.414
110.133	13.209	1602.741	1202.832
111.147	13.274	1601.624	1202.366
112.162	13.236	1600.006	1200.766
113.176	13.361	1598.174	1200.191
114.191	13.271	1596.969	1198.531
115.206	13.325	1595.765	1197.912
116.220	13.396	1594.498	1197.366
117.235	13.303	1593.095	1195.534
118.249	13.295	1591.775	1194.379
119.264	13.301	1590.616	1193.449
120.279	13.290	1589.145	1192.156
121.293	13.324	1587.443	1191.025
122.308	13.269	1585.985	1189.425
123.322	13.269	1584.244	1188.020
124.337	13.194	1583.663	1186.938
125.352	13.236	1581.822	1185.754
126.366	13.245	1581.107	1185.179
127.381	13.295	1579.464	1184.198
128.395	13.243	1578.601	1183.075
129.410	13.257	1577.379	1182.156
130.424	13.164	1576.374	1180.635
131.439	13.228	1574.653	1179.696
132.454	13.291	1573.071	1178.859
133.468	13.310	1571.333	1177.582
134.483	13.298	1570.263	1176.593
135.497	13.283	1568.891	1175.355
136.512	13.358	1567.603	1174.819
137.527	13.329	1566.370	1173.580
138.541	13.385	1565.055	1172.891
139.556	13.400	1562.836	1171.230
140.570	13.419	1562.164	1170.757
141.585	13.410	1560.653	1169.455
142.600	13.472	1559.675	1169.061
143.614	13.496	1558.119	1167.960
144.629	13.536	1557.025	1167.317
145.643	13.540	1555.803	1166.331
146.658	13.570	1554.237	1165.263
147.673	13.606	1552.481	1164.094
148.687	13.603	1551.204	1163.016
149.702	13.533	1550.034	1161.544
150.716	13.509	1547.946	1159.710
151.731	13.480	1546.659	1158.440
152.746	13.520	1545.270	1157.575
153.760	13.478	1544.028	1156.248
154.775	13.602	1542.790	1156.082
155.789	13.540	1541.005	1154.213
156.804	13.556	1540.107	1153.548
157.819	13.639	1539.052	1153.231
158.833	13.595	1538.341	1152.292
159.848	13.613	1536.748	1151.120
160.862	13.675	1535.460	1150.482
161.877	13.728	1533.950	1149.619
162.892	13.697	1532.717	1148.381
163.906	13.562	1531.296	1146.279
164.921	13.620	1529.792	1145.452
165.935	13.542	1529.385	1144.510
166.950	13.584	1527.993	1143.651
167.964	13.651	1526.676	1143.030
168.979	13.718	1525.732	1142.682
169.994	13.673	1524.967	1141.702
171.008	13.648	1524.050	1140.739
172.023	13.724	1522.508	1140.007
173.037	13.634	1521.793	1138.756
174.052	13.744	1520.413	1138.372
175.067	13.823	1519.370	1138.033
176.081	13.712	1517.909	1136.082
177.096	13.677	1516.718	1134.847
178.110	13.648	1515.847	1133.895
179.125	13.744	1514.281	1133.284
180.140	13.756	1512.843	1132.188
181.154	13.801	1512.809	1132.371
182.169	13.749	1510.758	1130.379
183.183	13.849	1509.701	1130.167
184.198	13.767	1508.541	1128.644
185.213	13.857	1507.591	1128.441
186.227	13.890	1506.271	1127.580
187.242	13.887	1505.255	1126.699
188.256	13.906	1504.399	1126.085
189.271	13.912	1502.973	1124.959
190.286	13.961	1501.829	1124.335
191.300	13.975	1500.768	1123.535
192.315	13.878	1499.227	1121.631
193.329	13.745	1498.204	1119.870
194.344	13.805	1497.334	1119.525
195.359	13.797	1496.288	1118.588
196.373	13.838	1495.163	1117.925
197.388	13.844	1494.267	1117.194
198.402	14.023	1492.588	1117.047
199.417	14.011	1491.699	1116.202
200.432	14.044	1490.812	1115.658
201.446	14.182	1489.597	1115.572
202.461	14.107	1488.681	1114.287
203.475	14.238	1487.363	1114.081
204.490	14.163	1486.530	1112.859
205.504	14.247	1485.306	1112.405
206.519	14.088	1484.671	1110.765
207.534	14.104	1483.495	1109.894
208.548	14.005	1482.262	1108.212
209.563	14.118	1481.038	1107.954
210.577	14.222	1480.023	1107.789
211.592	14.167	1478.861	1106.457
212.607	14.188	1478.302	1106.079
213.621	14.281	1477.340	1105.882
214.636	14.242	1476.668	1105.021
215.650	14.233	1476.007	1104.364
216.665	14.296	1473.978	1103.168
217.680	14.358	1473.425	1103.069
218.694	14.364	1472.734	1102.495
219.709	14.392	1472.326	1102.277
220.723	14.380	1471.114	1101.189
221.738	14.376	1470.096	1100.305
222.753	14.375	1469.211	1099.538
223.767	14.320	1468.377	1098.451
224.782	14.432	1467.142	1098.173
225.796	14.393	1466.186	1097.103
226.811	14.479	1465.597	1097.130
227.826	14.518	1464.655	1096.581
228.840	14.504	1463.895	1095.828
229.855	14.456	1462.988	1094.733
230.869	14.507	1461.957	1094.198
231.884	14.502	1460.641	1093.085
232.899	14.473	1459.552	1091.985
233.913	14.446	1458.529	1090.945
234.928	14.413	1457.363	1089.758
235.942	14.498	1455.961	1089.172
236.957	14.445	1454.786	1087.848
237.972	14.420	1453.863	1086.900
238.986	14.445	1452.738	1086.127
240.001	14.529	1451.610	1085.736
241.015	14.534	1450.891	1085.131
242.030	14.622	1449.580	1084.632
243.045	14.545	1448.724	1083.394
244.059	14.529	1448.024	1082.668
245.074	14.587	1447.201	1082.333
246.088	14.596	1446.418	1081.709
247.103	14.617	1445.005	1080.697
248.117	14.720	1444.595	1080.956
249.132	14.732	1443.499	1080.122
250.147	14.805	1443.142	1080.228
251.161	14.862	1442.060	1079.694
252.176	14.801	1441.839	1079.041
253.190	14.897	1440.655	1078.678
254.205	15.001	1439.579	1078.447
255.220	14.971	1439.122	1077.816
256.234	14.975	1438.120	1076.995
257.249	15.060	1437.196	1076.751
258.263	15.022	1436.577	1075.950
259.278	15.016	1435.784	1075.223
260.293	15.020	1434.267	1074.015
261.307	15.072	1433.803	1073.911
262.322	15.106	1433.136	1073.529
263.336	15.063	1432.683	1072.823
264.351	15.105	1431.556	1072.153
265.366	15.099	1430.595	1071.300
266.380	15.136	1429.556	1070.663
267.395	15.206	1428.224	1070.017
268.409	15.202	1427.597	1069.429
269.424	15.173	1427.054	1068.740
270.439	15.204	1425.742	1067.858
271.453	15.135	1424.918	1066.713
272.468	15.198	1423.756	1066.149
273.482	15.275	1422.677	1065.736
274.497	15.096	1422.234	1064.168
275.512	15.212	1420.939	1063.846
276.526	15.183	1420.271	1063.065
277.541	15.257	1419.068	1062.543
278.555	15.197	1418.579	1061.702
279.570	15.280	1417.525	1061.341
280.585	15.315	1416.541	1060.733
281.599	15.302	1415.546	1059.814
282.614	15.318	1415.043	1059.440
283.628	15.457	1413.744	1059.257
284.643	15.302	1412.673	1057.382
285.657	15.359	1411.589	1056.835
286.672	15.308	1410.924	1055.923
287.687	15.430	1410.045	1055.935
288.701	15.454	1408.730	1055.012
289.716	15.462	1408.033	1054.442
290.730	15.557	1407.265	1054.374
291.745	15.512	1405.960	1053.021
292.760	15.453	1405.255	1052.031
293.774	15.501	1403.900	1051.219
294.789	15.489	1403.318	1050.619
295.803	15.574	1402.842	1050.697
296.818	15.609	1401.267	1049.644
297.833	15.625	1400.225	1048.871
298.847	15.523	1399.710	1047.759
299.862	15.581	1398.759	1047.316
300.876	15.574	1397.383	1046.150
301.891	15.572	1396.494	1045.379
302.906	15.552	1396.175	1044.925
303.920	15.585	1395.723	1044.695
304.935	15.645	1394.657	1044.176
305.949	15.726	1393.411	1043.655
306.964	15.761	1392.882	1043.388
307.979	15.790	1391.698	1042.583
308.993	15.809	1390.892	1042.008
310.008	15.891	1389.626	1041.477
311.022	15.801	1388.777	1040.192
312.037	15.777	1388.123	1039.461
313.052	15.837	1387.162	1039.016
314.066	15.852	1386.121	1038.236
315.081	15.844	1385.100	1037.330
316.095	15.776	1384.112	1036.085
317.110	15.790	1383.020	1035.259
318.125	15.849	1381.722	1034.560
319.139	15.797	1381.339	1033.861
320.154	15.862	1380.262	1033.361
321.168	15.828	1379.214	1032.276
322.183	15.872	1378.540	1031.953
323.197	15.862	1377.412	1030.958
324.212	15.861	1376.906	1030.477
325.227	15.909	1375.762	1029.822
326.241	15.959	1374.495	1029.088
327.256	15.825	1374.046	1027.844
328.270	15.900	1373.049	1027.464
329.285	15.941	1371.900	1026.766
330.300	15.956	1371.426	1026.413
331.314	15.989	1370.135	1025.553
332.329	15.924	1369.290	1024.435
333.343	15.914	1368.494	1023.688
334.358	15.992	1367.612	1023.413
335.373	15.971	1367.029	1022.762
336.387	15.993	1366.328	1022.277
337.402	16.084	1365.026	1021.765
338.416	16.143	1364.714	1021.798
339.431	16.083	1364.045	1020.842
340.446	16.143	1362.896	1020.256
341.460	16.041	1362.340	1019.133
342.475	16.127	1361.494	1018.929
343.489	16.219	1360.451	1018.614
344.504	16.190	1359.403	1017.562
345.519	16.307	1358.491	1017.496
346.533	16.426	1356.981	1016.990
347.548	16.350	1356.436	1016.033
348.562	16.382	1355.720	1015.600
349.577	16.400	1355.084	1015.145
350.592	16.376	1354.122	1014.189
351.606	16.285	1353.686	1013.228
352.621	16.275	1352.395	1012.113
353.635	16.346	1350.878	1011.314
354.650	16.256	1350.260	1010.221
355.665	16.275	1349.341	1009.559
356.679	16.341	1347.911	1008.795
357.694	16.326	1346.966	1007.908
358.708	16.428	1346.177	1007.833
359.723	16.550	1344.417	1007.156
360.738	16.470	1343.964	1006.249
361.752	16.397	1343.033	1005.029
362.767	16.444	1341.780	1004.280
363.781	16.358	1341.361	1003.372
364.796	16.485	1340.370	1003.293
365.810	16.411	1340.105	1002.564
366.825	16.505	1339.373	1002.487
367.840	16.578	1337.957	1001.774
368.854	16.675	1337.142	1001.648
369.869	16.620	1336.980	1001.114
370.883	16.580	1336.425	1000.371
371.898	16.608	1335.570	999.808
372.913	16.634	1334.383	998.983
373.927	16.638	1333.690	998.400
374.942	16.656	1332.765	997.724
375.956	16.782	1331.831	997.680
376.971	16.808	1330.798	996.973
377.986	16.767	1330.502	996.417
379.000	16.821	1329.696	996.043
380.015	16.780	1328.726	994.989
381.029	16.858	1327.636	994.542
382.044	16.934	1327.095	994.497
383.059	16.935	1326.688	994.111
384.073	16.910	1326.145	993.467
385.088	16.931	1325.139	992.748
386.102	17.003	1324.422	992.548
387.117	16.918	1323.866	991.547
388.132	16.906	1323.386	991.025
389.146	16.915	1322.296	990.175
390.161	16.834	1321.588	989.084
391.175	16.870	1320.706	988.548
392.190	17.029	1319.394	988.403
393.205	16.963	1318.702	987.415
394.219	17.028	1317.812	987.035
395.234	17.065	1316.379	986.090
396.248	16.973	1315.257	984.630
397.263	17.034	1313.881	983.867
398.278	17.086	1312.373	982.951
399.292	17.077	1311.151	981.897
400.307	17.055	1310.562	981.245
401.321	16.949	1309.795	979.967
402.336	17.016	1308.633	979.398
403.350	17.085	1307.265	978.688
404.365	17.066	1306.612	978.000
405.380	17.102	1305.618	977.381
406.394	17.048	1304.699	976.295
407.409	17.124	1304.463	976.467
408.423	17.236	1303.203	976.083
409.438	17.173	1302.918	975.419
410.453	17.159	1302.363	974.838
411.467	17.274	1301.721	974.930
412.482	17.328	1300.812	974.471
413.496	17.287	1300.219	973.706
414.511	17.319	1299.539	973.296
415.526	17.364	1298.521	972.702
416.540	17.428	1297.900	972.521
417.555	17.444	1297.048	971.884
418.569	17.362	1296.797	971.142
419.584	17.342	1296.687	970.859
420.599	17.371	1296.011	970.431
421.613	100.146	1361.946	1489.235
422.628	98.235	1371.483	1489.311
