DTS Sentinel unit serial number:	SN413079Multiplexer serial number:	ORYXHardware model number:	OX4-SRSoftware version number:	ORYX F/W v4.00 Oryx Data Collector v3.7.2.0data status	okinstallation	princeton_trtdifferential loss correction	single-endedforward channel	channel 4reverse channel	N/Adate	2019/09/16time	18:45:34forward acquisition time	60.00reverse acquisition time	0.00gamma	496.2192k internal	0.2303k external	0.2303temperature offset calibration	0.9964default loss term (dB/km)	0.3790temperature slope calibration	1.0000multiplexer offset coefficient	1.0000multiplexer slope coefficient	1.0000fibre end	0.00T internal ref (°C)	36.11T ext. ref 1 (°C)	0.08T ext. ref 2 (°C)	29.44length (m)	temperature (°C)	Stokes	anti-Stokes-747.200	194.153	-0.110	-0.170
-746.185	800.000	-0.116	0.374
-745.171	-5.441	0.191	0.134
-744.156	800.000	0.053	0.207
-743.142	35.595	-0.102	-0.091
-742.127	-64.078	0.378	0.157
-741.112	82.952	-0.114	0.126
-740.098	21.788	-0.187	0.155
-739.083	115.146	0.095	-0.118
-738.069	-20.689	-0.213	0.133
-737.054	-58.435	-0.153	-0.068
-736.039	-83.547	-0.444	0.145
-735.025	-158.547	0.427	0.025
-734.010	800.000	-0.035	-0.144
-732.996	66.147	-0.217	0.224
-731.981	-17.926	-0.415	0.265
-730.966	800.000	-0.023	-0.089
-729.952	222.552	0.018	0.030
-728.937	263.457	-0.111	-0.196
-727.923	33.345	0.224	-0.198
-726.908	-125.979	-0.063	-0.010
-725.894	-58.262	0.293	-0.130
-724.879	103.516	-0.223	0.266
-723.864	151.497	0.103	-0.142
-722.850	540.287	-0.071	-0.172
-721.835	416.186	-0.063	-0.136
-720.821	800.000	0.071	0.218
-719.806	-151.564	0.487	-0.037
-718.791	-143.983	0.286	-0.027
-717.777	141.617	0.077	0.104
-716.762	-200.000	0.052	0.261
-715.748	-20.565	0.140	0.087
-714.733	800.000	-0.043	-0.174
-713.718	-200.000	-0.013	0.435
-712.704	-65.032	-0.111	0.046
-711.689	-13.943	0.139	0.091
-710.675	370.344	0.105	-0.216
-709.660	239.363	-0.089	0.150
-708.645	-81.206	-0.154	-0.052
-707.631	-99.365	0.297	-0.076
-706.616	-93.497	0.218	-0.061
-705.602	83.694	-0.095	0.106
-704.587	-105.537	-0.267	0.062
-703.572	178.666	0.199	-0.295
-702.558	-97.418	0.135	0.036
-701.543	-124.558	-0.171	-0.027
-700.529	60.668	0.299	0.301
-699.514	550.146	0.065	0.158
-698.499	-0.813	0.105	-0.076
-697.485	-200.000	0.036	0.267
-696.470	197.728	-0.190	0.295
-695.456	8.505	-0.233	-0.178
-694.441	-95.577	0.205	-0.056
-693.426	-94.565	0.071	-0.020
-692.412	-200.000	-0.061	-0.441
-691.397	-200.000	0.011	-0.159
-690.383	800.000	-0.021	0.085
-689.368	47.252	-0.211	-0.200
-688.354	123.790	0.128	0.164
-687.339	-130.732	-0.367	0.050
-686.324	-200.000	0.009	-0.145
-685.310	134.814	-0.268	-0.354
-684.295	-100.747	0.048	-0.012
-683.281	-108.883	-0.364	0.079
-682.266	164.482	-0.062	-0.089
-681.251	3.243	-0.103	0.076
-680.237	122.415	0.075	0.095
-679.222	-200.000	-0.059	0.321
-678.208	-200.000	0.021	0.320
-677.193	-141.570	-0.154	-0.016
-676.178	800.000	0.068	0.202
-675.164	-200.000	-0.014	0.253
-674.149	-200.000	-0.075	0.341
-673.135	121.629	0.179	0.226
-672.120	377.494	-0.122	0.254
-671.105	-97.663	0.287	-0.075
-670.091	-200.000	0.061	-0.372
-669.076	439.480	0.064	0.142
-668.062	800.000	-0.144	0.488
-667.047	-142.581	-0.143	0.014
-666.032	707.660	-0.056	-0.150
-665.018	267.368	-0.310	-0.550
-664.003	-135.059	0.304	0.037
-662.989	499.544	0.036	-0.084
-661.974	26.918	-0.136	-0.116
-660.959	12.339	0.270	-0.212
-659.945	-151.507	-0.294	0.022
-658.930	34.667	0.321	-0.285
-657.916	-8.042	-0.114	-0.078
-656.901	-136.942	0.070	-0.008
-655.886	323.967	0.087	-0.168
-654.872	-63.706	0.223	-0.093
-653.857	-200.000	-0.037	0.283
-652.843	144.646	0.017	-0.023
-651.828	558.225	0.116	0.285
-650.814	800.000	-0.031	0.101
-649.799	636.740	0.119	-0.306
-648.784	800.000	-0.061	0.191
-647.770	-200.000	0.057	-0.402
-646.755	-83.264	0.107	0.035
-645.741	-200.000	0.006	0.080
-644.726	220.144	0.194	-0.316
-643.711	299.045	0.016	-0.031
-642.697	800.000	-0.052	0.166
-641.682	123.199	-0.296	0.377
-640.668	7.108	0.131	0.099
-639.653	-127.879	0.454	0.066
-638.638	7.651	0.308	0.234
-637.624	-41.369	-0.156	0.081
-636.609	-159.436	0.188	0.011
-635.595	-59.685	0.138	0.060
-634.580	-31.810	0.350	0.199
-633.565	-26.388	-0.074	-0.044
-632.551	-56.134	-0.104	0.047
-631.536	11.171	-0.206	-0.160
-630.522	800.000	0.042	0.142
-629.507	585.841	0.037	0.093
-628.492	-111.708	0.223	0.046
-627.478	-17.628	-0.236	0.150
-626.463	800.000	-0.027	0.084
-625.449	297.665	0.029	-0.053
-624.434	800.000	0.058	-0.208
-623.419	73.561	0.137	-0.146
-622.405	18.026	0.077	0.062
-621.390	32.959	-0.070	-0.061
-620.376	-104.313	0.093	0.022
-619.361	-100.499	-0.213	0.053
-618.346	800.000	-0.125	0.491
-617.332	800.000	0.012	0.036
-616.317	-83.464	0.101	-0.033
-615.303	56.693	0.050	0.049
-614.288	-30.025	-0.092	0.053
-613.273	242.687	0.072	0.122
-612.259	-200.000	-0.013	-0.128
-611.244	-159.308	0.237	-0.013
-610.230	5.917	0.176	-0.132
-609.215	800.000	-0.137	0.546
-608.201	800.000	0.093	0.353
-607.186	-51.336	-0.173	0.082
-606.171	270.164	0.139	0.247
-605.157	89.311	-0.331	0.373
-604.142	-104.105	0.204	0.048
-603.128	-166.332	-0.098	0.004
-602.113	-107.206	-0.273	-0.061
-601.098	-200.000	-0.013	-0.149
-600.084	-9.761	-0.193	-0.130
-599.069	-200.000	0.018	0.247
-598.055	53.458	-0.189	0.184
-597.040	-72.783	0.156	-0.058
-596.025	800.000	0.166	-0.477
-595.011	-41.112	0.285	0.149
-593.996	-122.444	-0.357	-0.059
-592.982	-155.239	0.041	0.003
-591.967	91.909	-0.092	-0.105
-590.952	67.749	0.287	0.297
-589.938	-200.000	0.032	0.301
-588.923	262.919	0.114	-0.200
-587.909	-1.348	-0.280	-0.200
-586.894	-200.000	0.004	-0.403
-585.879	-28.781	0.328	-0.191
-584.865	34.728	-0.108	0.096
-583.850	-95.375	-0.184	-0.050
-582.836	800.000	-0.073	0.267
-581.821	-5.376	-0.198	0.138
-580.806	479.439	0.087	-0.198
-579.792	-39.083	0.172	-0.092
-578.777	258.451	-0.070	0.121
-577.763	-78.187	-0.119	-0.042
-576.748	-104.298	-0.249	-0.059
-575.733	-66.465	0.125	0.050
-574.719	-116.144	0.108	0.020
-573.704	116.565	0.231	-0.287
-572.690	-115.580	-0.202	-0.038
-571.675	800.000	-0.078	-0.219
-570.661	-135.921	-0.223	0.027
-569.646	-184.677	-0.299	0.005
-568.631	-33.496	-0.274	0.153
-567.617	98.258	-0.184	0.215
-566.602	41.618	-0.064	0.058
-565.588	-26.275	-0.132	-0.078
-564.573	110.550	-0.143	0.174
-563.558	361.282	-0.042	0.085
-562.544	366.572	-0.016	-0.032
-561.529	-123.553	0.174	-0.028
-560.515	-200.000	0.008	0.151
-559.500	-200.000	-0.007	-0.127
-558.485	-65.365	0.406	0.165
-557.471	800.000	-0.015	-0.045
-556.456	770.479	-0.065	0.178
-555.442	166.366	-0.034	-0.049
-554.427	405.860	-0.093	-0.198
-553.412	-99.055	0.316	0.081
-552.398	800.000	0.089	0.290
-551.383	-152.188	0.259	0.019
-550.369	88.730	-0.151	-0.170
-549.354	-200.000	-0.020	-0.457
-548.339	-138.177	0.197	0.022
-547.325	118.782	0.148	-0.184
-546.310	138.835	-0.124	0.164
-545.296	-78.782	-0.234	-0.081
-544.281	4.435	0.143	0.106
-543.266	208.031	0.117	-0.185
-542.252	800.000	-0.044	-0.189
-541.237	-16.851	-0.279	-0.178
-540.223	-92.707	0.324	-0.092
-539.208	-25.604	0.139	0.083
-538.193	31.613	0.221	-0.192
-537.179	-200.000	0.003	-0.099
-536.164	-129.045	-0.085	-0.012
-535.150	54.235	-0.243	-0.236
-534.135	-52.732	0.214	0.100
-533.121	101.961	0.052	-0.061
-532.106	-31.541	-0.423	0.240
-531.091	-138.243	-0.104	-0.012
-530.077	-79.934	0.211	-0.072
-529.062	-26.898	-0.259	-0.153
-528.048	-98.355	-0.259	-0.067
-527.033	481.978	0.097	-0.223
-526.018	-200.000	-0.071	-0.525
-525.004	800.000	-0.063	0.270
-523.989	752.611	-0.026	-0.071
-522.975	6.781	0.212	-0.159
-521.960	800.000	-0.002	-0.009
-520.945	272.672	0.175	0.311
-519.931	-139.043	0.141	0.015
-518.916	102.641	0.129	-0.152
-517.902	-72.916	0.137	0.051
-516.887	220.146	0.044	-0.071
-515.872	590.875	-0.062	-0.154
-514.858	-17.443	-0.236	0.150
-513.843	-126.454	-0.344	0.052
-512.829	-13.434	0.058	-0.038
-511.814	-147.617	0.258	-0.022
-510.799	-97.714	-0.154	-0.040
-509.785	-200.000	0.016	-0.139
-508.770	800.000	0.151	0.512
-507.756	233.299	-0.145	0.241
-506.741	621.096	0.016	0.040
-505.726	9.411	0.147	-0.112
-504.712	-1.474	0.264	-0.188
-503.697	-72.663	0.118	0.044
-502.683	-120.339	0.222	-0.038
-501.668	367.797	0.111	0.226
-500.653	397.413	0.128	-0.270
-499.639	-85.882	0.305	-0.095
-498.624	-195.873	0.160	0.001
-497.610	12.028	-0.102	0.079
-496.595	158.774	-0.108	0.151
-495.581	-111.598	-0.120	0.025
-494.566	-6.210	-0.218	-0.150
-493.551	800.000	0.027	-0.105
-492.537	147.138	-0.028	0.037
-491.522	800.000	-0.149	0.476
-490.508	800.000	-0.062	0.231
-489.493	134.858	-0.099	-0.130
-488.478	-105.691	-0.151	-0.034
-487.464	-200.000	-0.013	0.134
-486.449	418.605	-0.065	0.140
-485.435	103.915	0.062	-0.073
-484.420	-200.000	0.005	-0.202
-483.405	-159.003	0.435	-0.025
-482.391	140.597	-0.021	0.028
-481.376	184.218	-0.175	-0.262
-480.362	394.540	-0.030	0.064
-479.347	171.562	0.084	0.122
-478.332	-142.406	-0.085	-0.008
-477.318	750.215	0.094	-0.255
-476.303	-28.528	-0.079	0.046
-475.289	-70.711	-0.439	0.167
-474.274	424.272	0.166	0.359
-473.259	53.902	0.153	0.148
-472.245	-157.912	-0.207	-0.012
-471.230	-64.480	-0.354	0.145
-470.216	-61.756	-0.136	-0.058
-469.201	317.205	0.079	-0.151
-468.186	3.985	0.186	0.137
-467.172	800.000	-0.092	0.363
-466.157	657.053	-0.025	-0.064
-465.143	83.021	-0.086	-0.094
-464.128	-200.000	0.010	-0.192
-463.113	-136.970	-0.124	0.014
-462.099	-200.000	0.010	-0.122
-461.084	800.000	0.016	-0.056
-460.070	800.000	-0.031	-0.105
-459.055	-91.635	-0.358	0.103
-458.040	62.358	-0.190	0.191
-457.026	-51.661	-0.073	0.034
-456.011	-60.349	-0.269	-0.115
-454.997	-200.000	-0.025	-0.402
-453.982	800.000	-0.023	0.088
-452.968	-200.000	-0.019	-0.116
-451.953	-28.616	0.193	0.112
-450.938	-38.467	-0.144	0.077
-449.924	-122.183	-0.260	0.043
-448.909	306.913	0.163	0.306
-447.895	261.561	-0.142	-0.248
-446.880	-158.129	-0.022	-0.001
-445.865	-200.000	-0.001	-0.020
-444.851	236.697	-0.098	-0.163
-443.836	-25.908	-0.130	0.077
-442.822	281.636	0.094	0.169
-441.807	-86.424	-0.177	0.055
-440.792	-122.642	0.195	0.032
-439.778	59.305	0.142	-0.140
-438.763	-143.293	-0.192	0.019
-437.749	41.818	-0.073	-0.067
-436.734	-200.000	-0.020	0.285
-435.719	-200.000	-0.021	0.109
-434.705	-200.000	-0.018	0.277
-433.690	-23.178	0.305	0.185
-432.676	68.652	0.094	0.097
-431.661	588.187	-0.010	0.026
-430.646	64.372	0.082	0.083
-429.632	-129.110	0.229	-0.032
-428.617	-28.763	-0.142	-0.082
-427.603	-50.789	-0.094	-0.045
-426.588	-40.690	-0.111	0.058
-425.573	-200.000	-0.040	0.264
-424.559	-1.859	-0.102	0.073
-423.544	78.323	-0.113	-0.122
-422.530	63.055	-0.152	-0.154
-421.515	358.014	-0.137	-0.276
-420.500	261.556	0.047	-0.082
-419.486	78.046	-0.098	0.106
-418.471	16.777	0.147	0.117
-417.457	-15.375	-0.189	-0.121
-416.442	-40.481	0.249	0.130
-415.428	-120.257	0.395	-0.068
-414.413	90.688	-0.064	-0.072
-413.398	-83.932	-0.359	0.115
-412.384	-181.433	-0.084	0.002
-411.369	-200.000	0.064	-0.483
-410.355	548.701	-0.080	-0.193
-409.340	-84.296	-0.142	0.045
-408.325	800.000	-0.046	0.194
-407.311	21.719	-0.094	0.077
-406.296	40.973	0.203	0.184
-405.282	262.354	0.244	-0.426
-404.267	40.810	0.041	-0.037
-403.252	265.713	-0.172	0.302
-402.238	4.219	0.202	0.149
-401.223	-200.000	-0.040	0.000
-400.209	-16.448	-0.166	0.106
-399.194	457.092	-0.119	0.266
-398.179	2.843	0.125	-0.091
-397.165	-154.390	-0.283	0.019
-396.150	113.567	-0.214	-0.262
-395.136	451.291	0.078	0.172
-394.121	10.452	-0.086	-0.066
-393.106	-46.683	0.244	0.120
-392.092	781.431	-0.031	0.086
-391.077	800.000	0.080	-0.241
-390.063	187.562	0.140	-0.210
-389.048	786.828	-0.191	-0.526
-388.033	-92.765	-0.257	-0.072
-387.019	54.783	0.119	0.115
-386.004	800.000	-0.072	-0.214
-384.990	42.488	0.270	-0.247
-383.975	-121.350	-0.125	0.021
-382.960	77.715	0.160	0.171
-381.946	-146.809	0.306	-0.027
-380.931	-200.000	-0.051	-0.353
-379.917	-92.435	0.344	0.097
-378.902	-200.000	0.006	-0.055
-377.888	-22.190	-0.059	0.036
-376.873	-200.000	-0.016	-0.080
-375.858	-91.976	-0.234	-0.067
-374.844	800.000	-0.043	0.126
-373.829	48.669	-0.197	0.185
-372.815	-115.932	0.242	-0.045
-371.800	-98.306	-0.191	0.049
-370.785	-200.000	-0.008	-0.145
-369.771	-41.189	0.128	-0.066
-368.756	-200.000	-0.031	-0.242
-367.742	-163.404	0.190	0.009
-366.727	-175.523	0.354	-0.010
-365.712	800.000	-0.082	-0.339
-364.698	-43.451	0.181	-0.092
-363.683	-186.725	-0.170	0.002
-362.669	21.381	-0.130	-0.106
-361.654	362.688	-0.118	0.237
-360.639	-42.431	0.132	-0.068
-359.625	-43.518	0.305	-0.154
-358.610	-164.053	-0.173	-0.008
-357.596	-101.585	0.320	0.078
-356.581	-88.695	-0.092	-0.027
-355.566	25.045	0.310	-0.258
-354.552	-171.789	-0.319	0.010
-353.537	-96.542	0.035	0.009
-352.523	-177.536	-0.277	0.007
-351.508	-200.000	-0.005	0.186
-350.493	6.046	-0.159	0.118
-349.479	431.466	0.087	0.189
-348.464	800.000	-0.069	-0.237
-347.450	137.336	0.314	-0.412
-346.435	132.383	-0.128	0.166
-345.420	-22.684	0.183	0.111
-344.406	225.471	0.137	0.223
-343.391	-89.578	-0.034	0.010
-342.377	-70.138	-0.219	-0.083
-341.362	79.972	0.120	-0.130
-340.348	-200.000	-0.034	-0.288
-339.333	-200.000	0.035	-0.201
-338.318	-107.253	-0.167	-0.037
-337.304	800.000	0.084	0.313
-336.289	715.423	0.035	0.093
-335.275	-23.936	-0.286	-0.172
-334.260	-51.758	0.193	0.090
-333.245	16.423	-0.198	0.157
-332.231	-14.194	0.161	-0.104
-331.216	-62.422	-0.161	0.067
-330.202	-60.372	0.161	-0.069
-329.187	-138.292	0.217	0.024
-328.172	444.297	0.100	-0.220
-327.158	-200.000	-0.087	-0.455
-326.143	408.771	0.088	0.187
-325.129	122.375	0.088	0.111
-324.114	432.574	0.105	-0.227
-323.099	-35.389	-0.393	-0.214
-322.085	-200.000	0.011	0.067
-321.070	424.760	-0.136	0.292
-320.056	125.317	-0.201	-0.254
-319.041	-200.000	0.001	-0.094
-318.026	-58.533	-0.181	0.079
-317.012	144.029	-0.197	0.263
-315.997	-91.823	0.333	-0.095
-314.983	530.150	0.107	-0.253
-313.968	-67.224	0.139	-0.055
-312.953	-99.961	0.069	0.017
-311.939	-200.000	0.008	-0.274
-310.924	-58.597	-0.176	-0.076
-309.910	-70.894	-0.081	-0.031
-308.895	74.497	0.156	0.164
-307.880	-200.000	-0.032	0.221
-306.866	800.000	-0.049	-0.159
-305.851	-55.690	0.172	0.077
-304.837	76.444	0.221	-0.235
-303.822	596.904	-0.056	-0.140
-302.807	10.466	0.150	-0.115
-301.793	-73.349	-0.076	-0.028
-300.778	-200.000	-0.009	-0.349
-299.764	696.078	-0.092	0.242
-298.749	289.713	0.070	-0.127
-297.735	-200.000	-0.009	-0.191
-296.720	-67.304	-0.329	-0.129
-295.705	-117.716	-0.399	0.072
-294.691	447.595	0.092	0.202
-293.676	-200.000	0.023	-0.320
-292.662	-124.339	0.215	-0.034
-291.647	800.000	-0.058	0.226
-290.632	-200.000	0.045	0.406
-289.618	112.995	0.088	-0.107
-288.603	423.863	-0.041	0.088
-287.589	-200.000	-0.041	-0.251
-286.574	2.149	-0.104	0.075
-285.559	244.435	-0.036	-0.060
-284.545	-200.000	0.012	-0.336
-283.530	12.564	0.210	0.162
-282.516	-84.692	0.324	-0.102
-281.501	800.000	0.070	-0.270
-280.486	421.162	-0.096	0.206
-279.472	123.744	0.061	0.076
-278.457	231.118	0.073	-0.120
-277.443	-141.768	0.422	0.042
-276.428	-125.900	-0.222	-0.033
-275.413	-63.120	-0.081	0.034
-274.399	255.117	-0.120	-0.206
-273.384	13.593	-0.206	-0.160
-272.370	800.000	-0.026	0.105
-271.355	52.099	-0.332	0.317
-270.340	234.331	-0.191	0.315
-269.326	-7.234	0.145	-0.098
-268.311	-50.147	0.221	0.104
-267.297	433.415	-0.229	0.496
-266.282	36.075	-0.254	-0.224
-265.267	-70.203	-0.193	0.073
-264.253	-29.518	0.106	-0.060
-263.238	-151.489	0.060	0.004
-262.224	168.155	0.085	-0.121
-261.209	794.208	0.085	-0.233
-260.195	614.040	-0.116	0.290
-259.180	25.255	0.253	0.210
-258.165	800.000	-0.004	0.011
-257.151	-19.317	-0.247	0.153
-256.136	-63.682	-0.029	0.012
-255.122	424.598	0.074	-0.160
-254.107	598.497	0.097	-0.240
-253.092	-88.718	-0.249	0.074
-252.078	-200.000	0.009	-0.148
-251.063	293.439	0.100	-0.182
-250.049	477.437	0.264	-0.597
-249.034	442.269	0.030	0.065
-248.019	-200.000	0.088	-0.389
-247.005	-80.275	0.081	-0.027
-245.990	63.240	0.179	0.179
-244.976	-200.000	0.033	-0.294
-243.961	-125.461	0.069	-0.010
-242.946	45.876	0.107	0.098
-241.932	154.907	-0.058	-0.079
-240.917	82.379	0.123	0.133
-239.903	-200.000	-0.003	0.095
-238.888	74.446	0.008	-0.009
-237.873	-4.935	0.211	-0.145
-236.859	365.563	0.128	-0.258
-235.844	800.000	-0.056	-0.215
-234.830	800.000	-0.055	0.207
-233.815	222.415	0.147	-0.237
-232.800	-200.000	-0.079	-0.436
-231.786	-84.097	0.360	-0.114
-230.771	-4.195	0.133	0.092
-229.757	-200.000	0.042	0.205
-228.742	189.943	-0.075	0.113
-227.727	-200.000	-0.020	-0.288
-226.713	-154.896	0.368	-0.024
-225.698	-101.605	-0.379	0.092
-224.684	70.620	-0.206	0.213
-223.669	-103.467	0.142	0.033
-222.655	-136.107	-0.468	-0.055
-221.640	586.647	-0.104	0.256
-220.625	-110.302	-0.234	-0.049
-219.611	-200.000	-0.018	0.165
-218.596	-77.287	0.291	0.101
-217.582	-188.977	-0.269	-0.003
-216.567	-200.000	-0.049	0.219
-215.552	-147.421	-0.259	-0.022
-214.538	-9.811	-0.271	0.180
-213.523	211.544	0.130	0.204
-212.509	-81.638	0.113	0.037
-211.494	800.000	-0.036	-0.133
-210.479	567.331	-0.077	-0.187
-209.465	14.000	-0.189	-0.147
-208.450	295.097	0.074	-0.136
-207.436	128.428	-0.273	0.346
-206.421	-42.772	-0.210	0.107
-205.406	144.397	0.151	-0.201
-204.392	70.982	0.126	0.130
-203.377	495.064	0.052	0.120
-202.363	-58.010	0.156	0.068
-201.348	800.000	-0.032	-0.110
-200.333	-194.503	0.079	-0.001
-199.319	274.080	-0.063	-0.112
-198.304	228.562	-0.087	0.141
-197.290	133.260	-0.164	-0.211
-196.275	-200.000	0.009	0.614
-195.260	-148.978	0.333	0.027
-194.246	800.000	0.060	0.202
-193.231	-200.000	-0.030	0.358
-192.217	12.583	0.208	0.160
-191.202	800.000	-0.084	-0.271
-190.187	-138.005	0.150	-0.017
-189.173	-127.188	0.194	-0.028
-188.158	-200.000	0.041	-0.345
-187.144	-200.000	-0.088	0.442
-186.129	-200.000	0.046	0.418
-185.114	-80.990	0.341	-0.112
-184.100	-35.766	0.259	0.140
-183.085	-200.000	-0.009	-0.117
-182.071	61.448	-0.126	0.124
-181.056	28.781	0.192	0.162
-180.042	-200.000	0.024	0.344
-179.027	74.891	-0.084	0.088
-178.012	-111.817	0.148	0.030
-176.998	-53.810	-0.180	-0.082
-175.983	-14.157	0.222	-0.142
-174.969	-120.861	0.237	-0.040
-173.954	-147.259	0.042	0.004
-172.939	92.649	-0.117	-0.131
-171.925	800.000	-0.042	-0.173
-170.910	-200.000	0.071	0.358
-169.896	27.667	-0.415	-0.348
-168.881	-28.829	-0.300	-0.172
-167.866	-142.180	-0.321	0.032
-166.852	110.806	0.176	0.211
-165.837	137.045	0.066	0.086
-164.823	800.000	0.023	-0.084
-163.808	-200.000	-0.056	0.275
-162.793	-200.000	0.018	-0.213
-161.779	-200.000	0.023	0.231
-160.764	-200.000	-0.037	0.192
-159.750	800.000	0.110	0.404
-158.735	-84.286	-0.431	-0.136
-157.720	204.643	0.258	0.399
-156.706	60.106	0.125	0.123
-155.691	174.880	-0.054	-0.078
-154.677	-129.260	0.383	-0.053
-153.662	-92.919	0.248	0.069
-152.647	800.000	0.080	-0.242
-151.633	-99.858	-0.309	0.077
-150.618	20.605	-0.215	0.173
-149.604	35.718	0.065	-0.057
-148.589	-200.000	0.017	-0.080
-147.574	-39.358	0.222	-0.116
-146.560	85.989	0.113	0.124
-145.545	-200.000	0.075	-0.413
-144.531	402.588	-0.074	0.154
-143.516	488.226	-0.099	-0.224
-142.502	-112.373	-0.262	-0.052
-141.487	-157.606	-0.332	-0.020
-140.472	-103.997	0.230	0.053
-139.458	-41.625	0.346	0.177
-138.443	61.463	-0.056	0.055
-137.429	204.396	-0.170	-0.262
-136.414	-47.633	0.558	-0.269
-135.399	21.740	-0.106	0.086
-134.385	182.932	-0.166	0.244
-133.370	-123.141	-0.144	-0.023
-132.356	-200.000	-0.029	-0.174
-131.341	-200.000	0.019	0.204
-130.326	-90.668	-0.220	0.063
-129.312	-8.368	-0.053	0.035
-128.297	7.583	-0.170	0.127
-127.283	800.000	-0.052	0.154
-126.268	-200.000	-0.040	0.197
-125.253	-137.102	0.133	0.015
-124.239	463.020	-0.090	-0.201
-123.224	-112.116	0.097	-0.019
-122.210	64.324	0.196	0.197
-121.195	-48.447	0.176	0.084
-120.180	800.000	-0.121	0.350
-119.166	-130.584	0.099	-0.013
-118.151	8.477	0.124	0.093
-117.137	-133.812	-0.278	-0.034
-116.122	-200.000	-0.005	0.081
-115.107	-135.413	-0.393	0.047
-114.093	483.132	0.063	-0.141
-113.078	234.890	-0.107	-0.176
-112.064	-156.976	0.020	0.001
-111.049	316.584	0.162	-0.305
-110.034	92.820	0.106	-0.119
-109.020	224.729	0.109	-0.175
-108.005	-200.000	0.005	0.050
-106.991	-112.557	0.238	-0.047
-105.976	-173.792	-0.212	0.006
-104.962	11.716	0.280	0.214
-103.947	165.270	0.153	0.214
-102.932	75.506	0.167	-0.175
-101.918	-200.000	0.003	0.341
-100.903	-92.462	0.204	-0.057
-99.889	-200.000	-0.072	0.397
-98.874	24.935	0.101	0.083
-97.859	365.382	-0.181	0.362
-96.845	206.420	-0.141	0.218
-95.830	678.255	0.077	-0.199
-94.816	-200.000	0.019	-0.108
-93.801	77.408	0.182	-0.192
-92.786	483.990	0.170	-0.384
-91.772	-45.988	-0.306	0.150
-90.757	15.295	0.162	0.126
-89.743	-54.470	-0.087	-0.039
-88.728	145.950	0.128	-0.170
-87.713	-200.000	-0.025	-0.173
-86.699	89.613	0.131	-0.145
-85.684	-43.471	-0.400	-0.201
-84.670	-24.031	0.183	0.108
-83.655	136.434	0.294	-0.381
-82.640	-74.481	-0.283	-0.101
-81.626	247.575	-0.116	-0.194
-80.611	-200.000	0.016	0.287
-79.597	-19.395	-0.072	0.044
-78.582	-58.221	0.102	-0.044
-77.567	-86.947	0.256	0.078
-76.553	-200.000	-0.057	0.299
-75.538	209.286	-0.107	-0.167
-74.524	50.749	-0.306	0.287
-73.509	800.000	0.079	0.284
-72.494	-200.000	0.094	0.468
-71.480	180.727	-0.204	-0.298
-70.465	800.000	0.065	0.254
-69.451	-28.483	0.140	0.080
-68.436	687.771	0.106	0.274
-67.422	207.816	-0.081	0.125
-66.407	800.000	-0.116	0.332
-65.392	367.312	0.040	0.081
-64.378	143.279	-0.294	-0.388
-63.363	29.822	0.081	0.068
-62.349	347.956	0.079	0.155
-61.334	671.900	-0.392	-1.008
-60.319	-89.021	0.622	0.182
-59.305	800.000	-0.290	-0.912
-58.290	298.722	0.550	1.003
-57.276	-200.000	0.304	1.637
-56.261	-200.000	93.885	556.725
-55.246	533.577	1381.880	3245.324
-54.232	150.912	2582.556	3481.468
-53.217	107.158	2330.289	2745.605
-52.203	42.955	2078.808	1879.027
-51.188	37.909	1991.249	1754.558
-50.173	36.312	1972.735	1723.925
-49.159	50.367	2022.972	1895.297
-48.144	53.320	2042.748	1940.481
-47.130	38.627	2000.478	1768.897
-46.115	36.208	1988.613	1736.591
-45.100	36.062	1985.695	1732.655
-44.086	35.945	1983.042	1729.222
-43.071	35.989	1980.788	1727.588
-42.057	35.941	1978.032	1724.682
-41.042	35.962	1976.839	1723.758
-40.027	35.921	1974.965	1721.696
-39.013	35.993	1972.925	1720.485
-37.998	36.032	1970.628	1718.765
-36.984	35.974	1969.223	1716.951
-35.969	35.974	1967.302	1715.208
-34.954	36.130	1965.001	1714.523
-33.940	36.078	1963.858	1712.997
-32.925	36.150	1961.990	1711.941
-31.911	36.137	1961.004	1710.900
-30.896	36.147	1959.198	1709.345
-29.881	36.065	1958.088	1707.582
-28.867	36.189	1956.035	1706.814
-27.852	36.163	1954.608	1705.278
-26.838	36.145	1952.271	1703.006
-25.823	36.241	1950.230	1702.005
-24.809	36.101	1948.545	1699.240
-23.794	36.120	1947.040	1698.027
-22.779	36.074	1945.222	1695.963
-21.765	36.116	1943.525	1694.793
-20.750	36.175	1941.798	1693.735
-19.736	36.157	1940.776	1692.619
-18.721	36.177	1938.932	1691.119
-17.706	36.139	1937.190	1689.193
-16.692	36.145	1935.704	1687.888
-15.677	36.136	1933.833	1686.114
-14.663	36.128	1932.710	1684.993
-13.648	36.154	1931.362	1683.981
-12.633	36.178	1929.679	1682.654
-11.619	36.034	1928.927	1680.678
-10.604	36.095	1927.232	1679.666
-9.590	36.165	1925.766	1678.933
-8.575	36.063	1924.544	1676.906
-7.560	36.122	1923.139	1676.130
-6.546	36.100	1921.488	1674.437
-5.531	36.174	1920.245	1673.932
-4.517	36.143	1919.436	1672.890
-3.502	36.115	1918.335	1671.614
-2.487	36.161	1916.802	1670.613
-1.473	36.129	1915.814	1669.410
-0.458	36.058	1911.990	1665.400
0.556	33.647	1890.757	1634.552
1.571	28.885	1870.826	1576.460
2.586	24.461	1891.542	1555.323
3.600	23.095	1927.234	1572.396
4.615	22.737	1923.505	1566.038
5.629	17.739	1822.428	1441.473
6.644	7.245	1697.460	1259.471
7.659	0.824	1654.873	1177.889
8.673	0.175	1651.374	1170.248
9.688	0.138	1650.122	1168.966
10.702	0.059	1647.923	1166.697
11.717	-0.061	1645.336	1163.831
12.731	0.633	1645.199	1169.008
13.746	8.015	1661.309	1237.875
14.761	16.806	1678.763	1319.513
15.775	18.437	1679.117	1332.374
16.790	17.085	1675.189	1318.645
17.804	15.913	1672.229	1307.101
18.819	14.887	1668.729	1296.299
19.834	14.421	1666.191	1290.606
20.848	14.138	1664.141	1286.713
21.863	13.790	1662.610	1282.728
22.877	13.541	1661.119	1279.541
23.892	13.338	1659.769	1276.820
24.907	13.159	1659.041	1274.764
25.921	13.134	1658.169	1273.788
26.936	13.191	1656.914	1273.151
27.950	13.197	1656.340	1272.643
28.965	13.259	1655.515	1272.377
29.980	13.302	1654.804	1272.048
30.994	13.322	1653.975	1271.449
32.009	13.458	1652.964	1271.611
33.023	13.502	1652.058	1271.136
34.038	13.529	1651.461	1270.772
35.053	13.377	1650.255	1268.569
36.067	13.376	1649.515	1267.876
37.082	13.405	1647.904	1266.747
38.096	13.279	1647.432	1265.305
39.111	13.373	1646.373	1265.105
40.126	13.462	1645.638	1265.109
41.140	13.294	1644.959	1263.187
42.155	13.319	1643.239	1261.948
43.169	13.236	1641.479	1259.852
44.184	13.287	1640.365	1259.270
45.199	13.102	1639.981	1257.455
46.213	13.118	1638.736	1256.514
47.228	13.252	1636.819	1255.950
48.242	13.314	1635.670	1255.428
49.257	13.335	1635.070	1255.019
50.271	13.373	1633.573	1254.045
51.286	13.284	1632.302	1252.285
52.301	13.296	1630.927	1251.209
53.315	13.383	1629.245	1250.463
54.330	13.269	1628.230	1248.713
55.344	13.284	1626.392	1247.304
56.359	13.216	1625.105	1245.700
57.374	13.267	1623.898	1245.050
58.388	13.143	1623.021	1243.332
59.403	13.127	1621.553	1241.973
60.417	13.174	1619.834	1240.899
61.432	13.106	1618.661	1239.381
62.447	13.142	1618.047	1239.074
63.461	13.224	1616.139	1238.117
64.476	13.150	1614.996	1236.580
65.490	13.047	1614.034	1234.961
66.505	13.070	1612.747	1234.042
67.520	13.081	1611.766	1233.262
68.534	13.100	1611.043	1232.741
69.549	13.137	1610.005	1232.112
70.563	13.168	1608.822	1231.330
71.578	13.045	1607.332	1229.164
72.593	13.018	1606.730	1228.393
73.607	13.031	1605.263	1227.265
74.622	13.013	1603.750	1225.864
75.636	12.966	1603.009	1224.840
76.651	12.989	1602.528	1224.536
77.666	13.046	1601.030	1223.701
78.680	13.000	1600.078	1222.530
79.695	13.010	1599.366	1221.946
80.709	13.045	1598.192	1221.206
81.724	13.090	1597.498	1220.894
82.739	13.172	1596.381	1220.540
83.753	13.211	1595.395	1219.965
84.768	13.259	1594.154	1219.262
85.782	13.145	1594.127	1218.293
86.797	13.303	1592.929	1218.434
87.812	13.345	1592.017	1217.940
88.826	13.248	1590.830	1216.212
89.841	13.206	1589.503	1214.777
90.855	13.193	1588.859	1214.082
91.870	13.185	1587.788	1213.101
92.884	13.234	1587.031	1212.774
93.899	13.308	1586.081	1212.480
94.914	13.295	1584.312	1210.927
95.928	13.369	1583.434	1210.688
96.943	13.447	1581.721	1209.847
97.957	13.418	1580.419	1208.530
98.972	13.335	1579.304	1206.963
99.987	13.337	1577.085	1205.176
101.001	13.277	1576.017	1203.817
102.016	13.363	1574.008	1202.799
103.030	13.312	1572.885	1201.466
104.045	13.298	1572.202	1200.736
105.060	13.385	1570.338	1199.835
106.074	13.280	1568.833	1197.820
107.089	13.261	1567.550	1196.599
108.103	13.138	1565.949	1194.383
109.118	13.045	1564.567	1192.553
110.133	13.075	1562.786	1191.300
111.147	13.124	1561.411	1190.506
112.162	13.173	1560.020	1189.693
113.176	13.054	1558.907	1187.880
114.191	13.079	1557.916	1187.200
115.206	13.210	1556.577	1187.013
116.220	13.198	1555.008	1185.629
117.235	13.195	1553.890	1184.645
118.249	13.155	1552.555	1183.239
119.264	13.212	1550.943	1182.313
120.279	13.182	1549.721	1181.063
121.293	13.147	1548.474	1179.761
122.308	13.178	1547.078	1178.808
123.322	13.096	1545.423	1176.860
124.337	13.102	1544.011	1175.722
125.352	13.150	1542.686	1174.951
126.366	13.114	1541.687	1173.830
127.381	13.069	1540.596	1172.576
128.395	13.035	1539.900	1171.704
129.410	13.115	1538.077	1170.782
130.424	13.175	1536.686	1170.040
131.439	13.120	1535.745	1168.833
132.454	13.283	1533.972	1168.531
133.468	13.284	1532.631	1167.413
134.483	13.295	1531.510	1166.532
135.497	13.313	1530.026	1165.429
136.512	13.224	1529.112	1164.004
137.527	13.269	1527.680	1163.127
138.541	13.376	1526.386	1162.790
139.556	13.325	1524.917	1161.207
140.570	13.362	1523.363	1160.186
141.585	13.373	1521.947	1159.079
142.600	13.304	1521.160	1157.897
143.614	13.360	1520.015	1157.311
144.629	13.468	1518.818	1157.052
145.643	13.511	1517.232	1156.042
146.658	13.463	1515.997	1154.667
147.673	13.436	1514.396	1153.156
148.687	13.357	1513.079	1151.500
149.702	13.431	1511.406	1150.641
150.716	13.299	1509.686	1148.313
151.731	13.354	1508.279	1147.524
152.746	13.422	1506.948	1146.880
153.760	13.385	1505.473	1145.397
154.775	13.351	1504.479	1144.309
155.789	13.427	1503.305	1143.834
156.804	13.506	1502.005	1143.291
157.819	13.422	1500.997	1141.843
158.833	13.439	1499.883	1141.011
159.848	13.551	1498.446	1140.586
160.862	13.701	1496.527	1140.059
161.877	13.707	1495.471	1139.195
162.892	13.573	1494.681	1137.574
163.906	13.645	1492.922	1136.626
164.921	13.460	1492.211	1134.716
165.935	13.413	1490.699	1133.143
166.950	13.502	1490.250	1133.310
167.964	13.466	1488.960	1131.983
168.979	13.565	1487.794	1131.675
169.994	13.471	1487.555	1130.751
171.008	13.467	1486.237	1129.622
172.023	13.506	1484.779	1128.683
173.037	13.623	1483.508	1128.409
174.052	13.543	1482.890	1127.296
175.067	13.642	1481.829	1127.063
176.081	13.600	1480.403	1125.594
177.096	13.629	1478.557	1124.287
178.110	13.525	1477.785	1122.894
179.125	13.482	1476.666	1121.654
180.140	13.567	1475.958	1121.592
181.154	13.596	1474.576	1120.639
182.169	13.645	1473.568	1120.109
183.183	13.641	1472.217	1118.953
184.198	13.706	1471.128	1118.467
185.213	13.763	1470.402	1118.200
186.227	13.781	1468.809	1117.011
187.242	13.743	1468.095	1116.113
188.256	13.861	1466.721	1115.760
189.271	13.909	1465.496	1115.053
190.286	13.835	1465.093	1114.150
191.300	13.739	1464.297	1112.806
192.315	13.737	1462.373	1111.228
193.329	13.689	1460.797	1109.611
194.344	13.636	1460.304	1108.783
195.359	13.571	1459.563	1107.690
196.373	13.753	1457.897	1107.541
197.388	13.771	1457.041	1106.913
198.402	13.838	1455.985	1106.461
199.417	13.913	1455.054	1106.151
200.432	13.901	1454.347	1105.436
201.446	13.999	1452.797	1104.815
202.461	14.051	1452.399	1104.757
203.475	14.004	1450.955	1103.251
204.490	14.084	1449.889	1102.877
205.504	14.035	1449.265	1101.981
206.519	14.014	1447.469	1100.373
207.534	14.071	1446.466	1099.894
208.548	14.037	1445.198	1098.605
209.563	14.057	1444.377	1098.019
210.577	14.028	1443.478	1097.046
211.592	14.054	1442.126	1096.096
212.607	14.098	1441.984	1096.180
213.621	14.152	1440.967	1095.665
214.636	14.266	1439.747	1095.390
215.650	14.117	1439.216	1093.907
216.665	14.188	1438.540	1093.761
217.680	14.129	1438.022	1092.887
218.694	14.305	1436.764	1092.989
219.709	14.361	1435.803	1092.528
220.723	14.351	1434.708	1091.530
221.738	14.279	1433.968	1090.403
222.753	14.243	1432.987	1089.321
223.767	14.265	1431.995	1088.615
224.782	14.298	1431.473	1088.340
225.796	14.393	1430.217	1087.905
226.811	14.399	1429.551	1087.346
227.826	14.296	1429.312	1086.393
228.840	14.407	1427.847	1085.906
229.855	14.373	1426.629	1084.666
230.869	14.424	1425.900	1084.344
231.884	14.379	1424.708	1083.052
232.899	14.369	1423.788	1082.191
233.913	14.324	1422.694	1080.970
234.928	14.383	1420.965	1079.946
235.942	14.372	1419.788	1078.883
236.957	14.315	1418.828	1077.692
237.972	14.266	1417.819	1076.511
238.986	14.265	1416.899	1075.708
240.001	14.341	1416.032	1075.448
241.015	14.420	1414.646	1074.812
242.030	14.391	1413.261	1073.475
243.045	14.379	1413.028	1073.127
244.059	14.369	1412.224	1072.354
245.074	14.476	1410.816	1071.879
246.088	14.353	1410.543	1070.789
247.103	14.418	1409.995	1070.695
248.117	14.523	1408.958	1070.488
249.132	14.647	1407.693	1070.225
250.147	14.696	1407.654	1070.415
251.161	14.604	1407.064	1069.283
252.176	14.753	1406.132	1069.434
253.190	14.838	1405.347	1069.288
254.205	14.731	1404.620	1067.954
255.220	14.857	1403.533	1067.840
256.234	14.906	1402.918	1067.590
257.249	14.917	1402.033	1066.891
258.263	14.914	1401.237	1066.170
259.278	14.952	1400.147	1065.491
260.293	15.031	1399.159	1065.147
261.307	14.911	1398.722	1063.954
262.322	14.967	1397.867	1063.564
263.336	15.032	1396.805	1063.080
264.351	14.992	1395.716	1061.902
265.366	15.053	1394.786	1061.486
266.380	15.156	1393.859	1061.342
267.395	15.089	1393.030	1060.189
268.409	15.132	1392.355	1059.852
269.424	15.014	1391.300	1058.213
270.439	15.010	1390.390	1057.402
271.453	15.083	1388.933	1056.658
272.468	15.045	1388.532	1056.019
273.482	15.086	1387.912	1055.714
274.497	15.068	1386.823	1054.683
275.512	15.065	1385.882	1053.853
276.526	15.083	1385.201	1053.352
277.541	15.029	1384.339	1052.266
278.555	15.155	1383.508	1052.333
279.570	15.166	1382.448	1051.503
280.585	15.193	1381.872	1051.143
281.599	15.243	1380.538	1050.348
282.614	15.289	1379.630	1049.853
283.628	15.261	1378.542	1048.754
284.643	15.235	1377.515	1047.717
285.657	15.232	1376.275	1046.665
286.672	15.180	1375.598	1045.729
287.687	15.246	1374.588	1045.282
288.701	15.305	1373.619	1044.823
289.716	15.284	1373.175	1044.260
290.730	15.256	1372.727	1043.655
291.745	15.282	1371.082	1042.470
292.760	15.274	1370.835	1042.140
293.774	15.291	1369.263	1040.957
294.789	15.342	1368.519	1040.620
295.803	15.343	1367.756	1039.955
296.818	15.465	1366.755	1039.857
297.833	15.469	1365.714	1038.998
298.847	15.449	1364.818	1038.099
299.862	15.443	1363.826	1037.214
300.876	15.371	1363.372	1036.331
301.891	15.386	1362.268	1035.495
302.906	15.525	1361.591	1035.749
303.920	15.515	1361.020	1035.161
304.935	15.540	1359.886	1034.359
305.949	15.625	1358.996	1034.114
306.964	15.600	1358.814	1033.727
307.979	15.701	1357.533	1033.281
308.993	15.711	1356.156	1032.206
310.008	15.619	1355.875	1031.338
311.022	15.708	1354.424	1030.688
312.037	15.775	1353.120	1030.016
313.052	15.747	1352.722	1029.448
314.066	15.745	1351.676	1028.551
315.081	15.607	1350.567	1026.767
316.095	15.622	1349.434	1025.912
317.110	15.700	1348.471	1025.564
318.125	15.681	1347.434	1024.565
319.139	15.671	1346.992	1024.079
320.154	15.708	1345.806	1023.315
321.168	15.618	1344.778	1021.893
322.183	15.729	1344.111	1021.970
323.197	15.571	1343.402	1020.382
324.212	15.654	1342.136	1019.830
325.227	15.794	1341.411	1020.043
326.241	15.752	1340.539	1019.033
327.256	15.787	1340.077	1018.804
328.270	15.795	1338.735	1017.741
329.285	15.727	1338.351	1016.948
330.300	15.716	1337.322	1016.010
331.314	15.845	1335.560	1015.361
332.329	15.814	1334.941	1014.614
333.343	15.872	1334.199	1014.311
334.358	15.816	1333.554	1013.393
335.373	15.880	1332.513	1012.893
336.387	15.810	1332.496	1012.371
337.402	15.934	1331.277	1012.102
338.416	15.926	1331.003	1011.753
339.431	15.897	1330.290	1010.951
340.446	16.057	1329.543	1011.250
341.460	16.037	1328.458	1010.218
342.475	16.088	1327.375	1009.611
343.489	16.080	1326.264	1008.630
344.504	16.068	1325.490	1007.880
345.519	16.185	1324.396	1007.657
346.533	16.207	1323.698	1007.166
347.548	16.176	1323.046	1006.397
348.562	16.265	1322.207	1006.203
349.577	16.341	1321.224	1005.818
350.592	16.218	1320.744	1004.627
351.606	16.230	1319.720	1003.834
352.621	16.187	1318.784	1002.779
353.635	16.174	1317.710	1001.792
354.650	16.103	1316.641	1000.474
355.665	16.145	1315.465	999.738
356.679	16.170	1314.834	999.317
357.694	16.165	1313.677	998.320
358.708	16.323	1312.536	998.297
359.723	16.204	1311.533	996.748
360.738	16.268	1310.664	996.376
361.752	16.286	1309.557	995.553
362.767	16.377	1308.577	995.253
363.781	16.290	1307.672	993.966
364.796	16.316	1307.119	993.608
365.810	16.372	1306.348	993.266
366.825	16.318	1305.714	992.376
367.840	16.394	1304.728	991.985
368.854	16.487	1304.093	991.961
369.869	16.563	1303.775	992.078
370.883	16.583	1303.223	991.689
371.898	16.542	1302.435	990.759
372.913	16.539	1301.788	990.164
373.927	16.419	1300.409	988.325
374.942	16.529	1299.952	988.532
375.956	16.597	1299.104	988.200
376.971	16.692	1298.020	987.841
377.986	16.633	1297.122	986.725
379.000	16.551	1296.625	985.780
380.015	16.737	1295.961	986.271
381.029	16.688	1295.172	985.300
382.044	16.753	1294.642	985.189
383.059	16.645	1293.893	983.901
384.073	16.847	1292.798	984.155
385.088	16.755	1292.390	983.227
386.102	16.757	1292.143	982.965
387.117	16.842	1291.083	982.561
388.132	16.915	1290.060	982.121
389.146	16.848	1289.063	980.883
390.161	16.753	1288.484	979.807
391.175	16.705	1288.025	979.092
392.190	16.731	1287.113	978.467
393.205	16.661	1286.636	977.614
394.219	16.889	1285.229	977.774
395.234	16.880	1283.997	976.695
396.248	16.826	1282.984	975.530
397.263	16.824	1281.469	974.276
398.278	16.955	1279.682	973.585
399.292	16.865	1278.962	972.433
400.307	16.882	1278.027	971.735
401.321	16.828	1277.205	970.713
402.336	16.891	1275.998	970.074
403.350	16.945	1274.617	969.247
404.365	16.822	1274.642	968.478
405.380	16.952	1273.582	968.329
406.394	16.924	1272.829	967.511
407.409	16.957	1271.744	966.789
408.423	17.074	1271.102	966.879
409.438	17.034	1270.647	966.222
410.453	17.098	1269.531	965.652
411.467	17.114	1269.747	965.818
412.482	17.155	1268.842	965.279
413.496	17.098	1268.249	964.417
414.511	17.101	1267.329	963.650
415.526	17.187	1266.448	963.381
416.540	17.351	1265.661	963.631
417.555	17.252	1264.806	962.334
418.569	17.304	1264.645	962.418
419.584	17.311	1263.784	961.720
420.599	17.389	1263.061	961.522
421.613	89.390	1341.404	1433.404
422.628	87.208	1352.801	1433.524
