DTS Sentinel unit serial number:	SN413079Multiplexer serial number:	ORYXHardware model number:	OX4-SRSoftware version number:	ORYX F/W v4.00 Oryx Data Collector v3.7.2.0data status	okinstallation	princeton_trtdifferential loss correction	single-endedforward channel	channel 4reverse channel	N/Adate	2019/09/14time	01:41:35forward acquisition time	60.00reverse acquisition time	0.00gamma	496.2192k internal	0.2323k external	0.2323temperature offset calibration	1.0131default loss term (dB/km)	0.3790temperature slope calibration	1.0000multiplexer offset coefficient	1.0000multiplexer slope coefficient	1.0000fibre end	0.00T internal ref (°C)	26.44T ext. ref 1 (°C)	3.19T ext. ref 2 (°C)	21.47length (m)	temperature (°C)	Stokes	anti-Stokes-747.200	39.987	0.163	0.148
-746.185	-70.703	-0.140	0.053
-745.171	75.345	0.191	-0.204
-744.156	102.212	0.155	-0.183
-743.142	-200.000	0.007	-0.376
-742.127	10.292	-0.040	0.031
-741.112	-147.647	-0.282	0.024
-740.098	230.201	-0.135	0.223
-739.083	-171.414	0.272	-0.009
-738.069	-200.000	-0.004	-0.074
-737.054	-159.015	-0.251	-0.014
-736.039	-105.268	-0.114	-0.026
-735.025	-39.378	0.201	0.107
-734.010	791.514	0.041	0.114
-732.996	28.143	0.185	0.158
-731.981	-149.476	-0.062	-0.005
-730.966	13.376	-0.028	-0.022
-729.952	800.000	0.028	-0.093
-728.937	800.000	0.114	0.379
-727.923	-20.130	-0.331	0.206
-726.908	-200.000	0.042	-0.288
-725.894	109.249	-0.107	0.129
-724.879	-37.764	-0.089	0.048
-723.864	-20.540	-0.013	0.008
-722.850	15.955	-0.132	0.105
-721.835	126.916	0.132	0.169
-720.821	-129.789	-0.013	-0.002
-719.806	96.741	0.367	0.424
-718.791	-144.050	0.040	-0.004
-717.777	458.840	-0.121	-0.272
-716.762	-48.601	0.048	0.023
-715.748	1.991	-0.206	-0.150
-714.733	9.158	0.202	0.154
-713.718	-81.229	-0.339	-0.113
-712.704	-139.076	0.345	0.038
-711.689	209.621	-0.113	0.178
-710.675	54.918	-0.196	0.190
-709.660	-173.469	0.347	-0.011
-708.645	276.355	0.114	-0.204
-707.631	303.034	-0.132	-0.247
-706.616	-72.858	-0.067	0.025
-705.602	624.416	-0.080	-0.203
-704.587	27.381	0.096	0.082
-703.572	129.706	-0.057	0.074
-702.558	-93.625	0.283	0.079
-701.543	168.339	0.159	-0.228
-700.529	-200.000	0.027	-0.128
-699.514	128.315	-0.047	-0.061
-698.499	-100.130	-0.082	0.021
-697.485	-77.127	-0.041	-0.015
-696.470	-101.903	-0.277	0.067
-695.456	71.802	0.077	-0.081
-694.441	-33.871	0.039	0.022
-693.426	232.383	0.266	0.441
-692.412	800.000	0.063	0.250
-691.397	-54.188	0.135	-0.062
-690.383	-122.161	0.275	-0.045
-689.368	44.088	0.142	0.131
-688.354	219.561	-0.071	0.114
-687.339	87.998	-0.148	0.165
-686.324	-104.369	-0.094	0.022
-685.310	-113.922	0.127	0.025
-684.295	-1.505	-0.266	0.189
-683.281	-20.484	0.085	-0.052
-682.266	-164.561	-0.600	0.027
-681.251	-200.000	0.013	0.095
-680.237	-12.047	-0.411	-0.271
-679.222	-56.021	0.244	0.110
-678.208	-90.810	-0.201	0.058
-677.193	278.054	-0.160	-0.288
-676.178	-200.000	0.040	-0.200
-675.164	-73.940	0.153	0.056
-674.149	29.820	0.128	0.110
-673.135	116.227	0.176	0.217
-672.120	7.471	0.043	0.032
-671.105	55.591	-0.150	0.146
-670.091	-57.969	-0.219	0.096
-669.076	-40.756	0.083	0.043
-668.062	399.830	-0.071	0.149
-667.047	-138.239	-0.305	0.034
-666.032	-200.000	-0.036	-0.410
-665.018	134.463	0.013	0.017
-664.003	385.638	0.099	-0.205
-662.989	-65.713	-0.143	-0.058
-661.974	798.399	-0.054	0.151
-660.959	-200.000	0.011	0.164
-659.945	-114.264	-0.424	0.082
-658.930	251.471	-0.162	0.277
-657.916	-47.842	0.247	0.121
-656.901	0.034	0.238	0.170
-655.886	29.720	-0.274	-0.235
-654.872	28.155	0.074	0.063
-653.857	800.000	0.130	-0.393
-652.843	13.399	-0.138	-0.108
-651.828	-200.000	-0.036	-0.257
-650.814	800.000	-0.055	-0.165
-649.799	800.000	-0.056	-0.175
-648.784	33.042	0.225	-0.196
-647.770	-141.416	0.232	-0.024
-646.755	327.896	-0.073	-0.141
-645.741	800.000	-0.022	-0.089
-644.726	278.075	0.170	0.305
-643.711	-108.142	-0.263	0.057
-642.697	-4.819	0.247	0.172
-641.682	3.155	-0.187	0.137
-640.668	-105.904	0.151	-0.034
-639.653	-48.769	-0.327	-0.158
-638.638	800.000	0.050	-0.178
-637.624	-200.000	-0.047	-0.315
-636.609	-84.886	-0.191	-0.060
-635.595	525.773	-0.110	-0.261
-634.580	742.182	-0.073	-0.198
-633.565	-200.000	-0.020	0.161
-632.551	186.560	-0.013	0.019
-631.536	-43.905	0.326	-0.165
-630.522	-200.000	-0.011	-0.188
-629.507	130.754	-0.075	0.097
-628.492	-55.779	-0.183	0.082
-627.478	-200.000	-0.011	0.163
-626.463	800.000	0.007	0.025
-625.449	98.368	0.281	-0.326
-624.434	-77.522	-0.601	-0.209
-623.419	-200.000	0.006	0.035
-622.405	19.198	-0.133	0.108
-621.390	-79.764	-0.426	0.144
-620.376	474.923	0.068	0.154
-619.361	-47.974	-0.301	0.146
-618.346	-70.748	0.217	-0.082
-617.332	-7.831	0.138	-0.094
-616.317	402.214	0.216	0.457
-615.303	409.727	0.061	-0.131
-614.288	-9.003	0.139	-0.093
-613.273	328.423	-0.142	0.274
-612.259	101.686	-0.137	-0.161
-611.244	106.403	0.049	0.058
-610.230	-86.261	-0.226	0.070
-609.215	53.082	0.141	-0.136
-608.201	-24.834	0.301	-0.180
-607.186	40.905	-0.215	0.195
-606.171	-137.449	-0.314	0.036
-605.157	6.830	0.082	0.062
-604.142	253.335	-0.156	-0.268
-603.128	467.936	0.054	0.123
-602.113	127.479	-0.164	-0.209
-601.098	40.181	-0.446	-0.403
-600.084	233.493	0.232	-0.383
-599.069	608.019	-0.142	-0.356
-598.055	215.704	-0.179	0.285
-597.040	507.208	-0.115	0.268
-596.025	800.000	0.063	-0.220
-595.011	-200.000	0.012	0.198
-593.996	-93.680	0.173	-0.048
-592.982	-37.063	-0.261	0.140
-591.967	-24.214	-0.111	-0.067
-590.952	800.000	0.040	0.152
-589.938	800.000	-0.006	0.027
-588.923	-200.000	0.050	-0.264
-587.909	-178.011	0.129	0.003
-586.894	-26.631	0.064	-0.037
-585.879	666.370	0.132	0.342
-584.865	-13.730	-0.271	0.176
-583.850	87.003	-0.258	-0.287
-582.836	-94.249	-0.256	-0.070
-581.821	155.897	-0.052	-0.071
-580.806	-97.029	0.119	-0.031
-579.792	-200.000	0.018	-0.096
-578.777	161.005	-0.215	-0.302
-577.763	313.093	-0.148	-0.279
-576.748	800.000	-0.049	0.216
-575.733	617.430	-0.029	0.074
-574.719	49.237	0.190	0.179
-573.704	-24.468	-0.242	0.145
-572.690	338.243	0.120	-0.234
-571.675	191.263	-0.056	-0.085
-570.661	-125.924	0.191	-0.029
-569.646	-200.000	0.011	-0.165
-568.631	-44.934	-0.437	-0.218
-567.617	-12.878	0.130	-0.085
-566.602	-19.342	-0.143	-0.089
-565.588	124.938	-0.135	-0.170
-564.573	-112.709	-0.234	-0.047
-563.558	182.797	-0.057	0.084
-562.544	-143.625	0.269	-0.026
-561.529	-53.357	-0.204	-0.094
-560.515	-141.622	-0.324	-0.033
-559.500	81.530	-0.219	-0.237
-558.485	260.682	-0.060	-0.103
-557.471	-200.000	-0.023	0.153
-556.456	-92.037	0.144	0.041
-555.442	408.048	0.176	-0.373
-554.427	92.640	0.144	-0.163
-553.412	748.333	-0.114	0.308
-552.398	800.000	0.090	0.369
-551.383	-200.000	-0.039	0.358
-550.369	189.176	0.046	0.070
-549.354	-139.894	-0.079	-0.008
-548.339	288.476	0.218	0.396
-547.325	9.753	0.274	-0.208
-546.310	-43.156	-0.249	0.126
-545.296	-64.239	0.339	0.139
-544.281	173.846	0.038	-0.055
-543.266	-87.896	-0.293	-0.088
-542.252	136.984	0.040	-0.052
-541.237	-200.000	-0.016	0.107
-540.223	183.251	-0.063	-0.093
-539.208	-40.202	-0.237	-0.123
-538.193	-28.838	0.317	-0.182
-537.179	-32.333	0.363	-0.203
-536.164	162.791	0.104	0.147
-535.150	-200.000	-0.028	0.458
-534.135	-131.455	0.369	0.049
-533.121	-93.340	0.171	0.048
-532.106	-104.129	-0.091	0.021
-531.091	44.444	-0.383	0.352
-530.077	-7.929	0.342	0.231
-529.062	183.775	-0.033	-0.050
-528.048	-118.408	-0.379	0.067
-527.033	-200.000	-0.007	0.215
-526.018	-46.189	0.172	-0.085
-525.004	800.000	-0.054	-0.217
-523.989	-200.000	-0.029	-0.424
-522.975	-35.816	0.218	-0.118
-521.960	663.993	0.055	-0.141
-520.945	-200.000	-0.036	0.210
-519.931	-200.000	-0.013	-0.075
-518.916	-102.640	-0.142	-0.034
-517.902	93.248	-0.228	-0.258
-516.887	-16.780	0.129	-0.082
-515.872	2.745	0.263	-0.191
-514.858	351.286	0.101	0.201
-513.843	-72.091	-0.170	0.063
-512.829	119.517	0.041	0.050
-511.814	49.179	0.087	0.082
-510.799	207.090	-0.181	0.283
-509.785	-200.000	0.002	0.058
-508.770	71.510	-0.181	-0.188
-507.756	225.020	-0.127	0.206
-506.741	214.640	0.129	-0.205
-505.726	800.000	-0.023	0.097
-504.712	546.703	-0.109	-0.261
-503.697	-57.260	0.268	0.118
-502.683	-111.117	0.059	-0.012
-501.668	86.856	-0.299	-0.330
-500.653	-16.095	-0.252	-0.160
-499.639	-17.100	-0.291	-0.184
-498.624	-96.880	0.402	-0.105
-497.610	-80.976	0.291	0.096
-496.595	-200.000	-0.027	0.326
-495.581	-200.000	-0.022	-0.228
-494.566	218.425	0.110	-0.175
-493.551	-95.049	-0.105	0.028
-492.537	800.000	-0.044	-0.180
-491.522	-200.000	0.048	0.217
-490.508	800.000	0.064	0.272
-489.493	-200.000	0.010	-0.312
-488.478	288.029	-0.139	-0.251
-487.464	49.193	-0.198	0.186
-486.449	687.102	0.173	-0.451
-485.435	-5.875	-0.176	-0.120
-484.420	193.084	-0.131	0.197
-483.405	-200.000	0.004	-0.166
-482.391	-70.716	-0.193	0.073
-481.376	-200.000	-0.046	-0.205
-480.362	-118.703	0.135	-0.024
-479.347	-71.458	-0.364	0.136
-478.332	62.464	0.097	-0.097
-477.318	800.000	-0.055	-0.195
-476.303	800.000	0.061	0.171
-475.289	258.233	0.113	0.195
-474.274	115.220	0.058	0.071
-473.259	38.497	0.054	0.048
-472.245	-146.237	0.181	-0.016
-471.230	-105.729	-0.032	-0.007
-470.216	800.000	-0.020	-0.073
-469.201	-200.000	-0.053	0.483
-468.186	-10.870	0.138	0.091
-467.172	261.943	0.112	-0.194
-466.157	-200.000	0.062	-0.445
-465.143	142.944	0.244	-0.324
-464.128	-200.000	-0.016	0.142
-463.113	280.647	-0.115	-0.206
-462.099	233.570	0.034	-0.056
-461.084	-200.000	0.043	0.207
-460.070	-200.000	0.013	-0.210
-459.055	712.565	0.049	-0.129
-458.040	70.309	0.142	0.146
-457.026	-52.663	0.172	0.079
-456.011	20.782	-0.155	0.125
-454.997	-200.000	-0.037	-0.168
-453.982	-200.000	0.004	0.144
-452.968	-122.053	-0.183	-0.030
-451.953	-52.329	0.305	-0.141
-450.938	-200.000	0.009	0.058
-449.924	-168.125	0.299	-0.012
-448.909	96.925	0.207	0.237
-447.895	60.125	-0.151	-0.149
-446.880	93.518	0.074	-0.083
-445.865	19.652	0.146	-0.117
-444.851	155.587	-0.247	0.340
-443.836	441.812	0.166	-0.362
-442.822	-120.645	0.136	-0.023
-441.807	-105.822	0.235	-0.053
-440.792	85.111	0.126	-0.138
-439.778	523.046	-0.175	-0.410
-438.763	-21.632	-0.066	0.040
-437.749	320.415	0.051	-0.098
-436.734	375.650	0.023	-0.047
-435.719	268.335	-0.122	-0.214
-434.705	243.231	0.160	-0.267
-433.690	-164.168	0.606	-0.028
-432.676	-22.503	-0.243	-0.147
-431.661	642.439	0.129	-0.328
-430.646	800.000	0.074	-0.309
-429.632	800.000	0.061	0.213
-428.617	58.612	0.043	0.042
-427.603	-67.400	-0.186	-0.073
-426.588	-67.970	0.109	-0.042
-425.573	-36.376	-0.360	0.193
-424.559	-11.284	-0.230	-0.151
-423.544	21.467	0.260	-0.211
-422.530	40.153	0.320	-0.287
-421.515	92.239	0.182	-0.205
-420.500	314.988	0.171	0.321
-419.486	53.569	-0.149	-0.142
-418.471	-111.774	-0.201	0.041
-417.457	800.000	0.048	-0.177
-416.442	212.767	0.152	0.240
-415.428	28.363	-0.205	-0.172
-414.413	-85.733	0.077	0.024
-413.398	-127.944	-0.179	0.026
-412.384	557.680	-0.098	0.234
-411.369	-172.964	0.157	0.005
-410.355	800.000	-0.037	0.136
-409.340	-200.000	-0.031	0.165
-408.325	-88.285	0.170	-0.051
-407.311	111.113	0.072	-0.087
-406.296	288.355	0.104	-0.187
-405.282	-27.897	-0.105	0.061
-404.267	-142.427	0.158	-0.016
-403.252	-139.179	-0.391	0.042
-402.238	-200.000	0.010	-0.212
-401.223	800.000	-0.076	0.230
-400.209	309.610	-0.035	0.065
-399.194	46.338	-0.161	0.149
-398.179	-200.000	0.004	0.100
-397.165	56.752	0.226	0.219
-396.150	-124.956	0.185	-0.028
-395.136	-200.000	0.004	0.054
-394.121	-200.000	0.000	-0.008
-393.106	354.296	0.171	0.338
-392.092	-137.934	-0.182	-0.020
-391.077	-21.471	-0.247	0.150
-390.063	-120.435	0.196	0.033
-389.048	19.212	0.133	0.107
-388.033	-47.366	0.312	0.151
-387.019	-121.401	-0.278	0.046
-386.004	-26.856	0.181	-0.106
-384.990	-48.107	-0.310	0.149
-383.975	492.715	0.038	-0.087
-382.960	300.151	-0.030	-0.055
-381.946	143.348	-0.273	-0.362
-380.931	243.357	0.041	-0.068
-379.917	-112.038	0.097	-0.020
-378.902	800.000	0.064	-0.211
-377.888	-200.000	0.022	0.169
-376.873	-6.939	-0.100	-0.067
-375.858	-200.000	0.036	0.273
-374.844	-54.421	-0.135	-0.061
-373.829	475.495	0.064	-0.143
-372.815	-100.678	-0.188	0.046
-371.800	-200.000	0.008	0.059
-370.785	-2.376	-0.335	0.234
-369.771	-200.000	0.093	0.554
-368.756	196.822	0.102	-0.155
-367.742	-146.140	0.222	0.019
-366.727	541.154	-0.015	-0.035
-365.712	-142.136	-0.097	-0.010
-364.698	191.457	0.069	-0.104
-363.683	-200.000	-0.058	0.326
-362.669	164.732	0.082	0.115
-361.654	-153.770	-0.134	-0.009
-360.639	457.666	-0.073	0.162
-359.625	115.116	-0.100	0.121
-358.610	-32.688	-0.246	-0.136
-357.596	234.984	-0.107	-0.176
-356.581	98.001	0.184	-0.211
-355.566	-200.000	-0.011	-0.143
-354.552	-18.402	0.192	0.120
-353.537	-94.271	0.234	0.064
-352.523	72.315	-0.139	0.144
-351.508	800.000	0.064	-0.214
-350.493	-200.000	0.002	-0.013
-349.479	90.085	0.275	-0.305
-348.464	-200.000	-0.079	0.446
-347.450	800.000	0.083	-0.313
-346.435	-200.000	0.011	0.083
-345.420	-200.000	0.020	0.256
-344.406	74.751	0.129	0.135
-343.391	-71.065	0.088	-0.033
-342.377	800.000	0.065	0.184
-341.362	-2.309	-0.293	0.204
-340.348	500.917	-0.114	-0.261
-339.333	116.344	-0.108	0.131
-338.318	-186.226	0.203	0.003
-337.304	-198.525	-0.362	-0.002
-336.289	-35.881	-0.383	-0.206
-335.275	639.779	0.006	0.016
-334.260	-200.000	-0.036	0.199
-333.245	-200.000	0.004	0.118
-332.231	308.453	0.185	0.344
-331.216	-35.201	0.167	0.090
-330.202	-115.406	-0.310	0.058
-329.187	127.795	-0.163	0.206
-328.172	-91.239	0.156	0.044
-327.158	800.000	0.106	0.328
-326.143	-200.000	-0.026	0.273
-325.129	-200.000	-0.006	0.319
-324.114	-110.395	-0.265	0.055
-323.099	534.052	-0.079	0.187
-322.085	758.823	0.056	0.150
-321.070	800.000	-0.048	0.165
-320.056	-200.000	0.084	-0.392
-319.041	782.634	0.051	0.139
-318.026	-200.000	0.002	-0.105
-317.012	115.152	0.128	0.156
-315.997	-173.274	-0.253	0.008
-314.983	-42.583	-0.266	-0.135
-313.968	-157.142	0.185	-0.011
-312.953	19.688	-0.247	-0.198
-311.939	-99.140	-0.100	-0.025
-310.924	-83.037	0.299	0.096
-309.910	-0.720	-0.110	0.077
-308.895	-200.000	0.096	0.000
-307.880	122.521	0.155	0.193
-306.866	161.507	0.043	0.060
-305.851	276.878	-0.087	0.153
-304.837	-168.002	-0.497	0.019
-303.822	202.116	-0.128	0.195
-302.807	-9.278	0.090	-0.059
-301.793	-94.757	0.374	0.101
-300.778	-23.424	-0.099	-0.059
-299.764	-67.932	0.167	-0.065
-298.749	-132.563	-0.284	0.036
-297.735	239.999	0.098	0.163
-296.720	-129.927	-0.333	-0.045
-295.705	800.000	0.070	0.203
-294.691	-151.638	0.258	0.019
-293.676	706.279	0.038	0.100
-292.662	57.879	0.281	0.273
-291.647	800.000	-0.072	0.257
-290.632	-110.173	0.075	-0.016
-289.618	-122.512	-0.189	0.030
-288.603	800.000	-0.066	-0.223
-287.589	-200.000	-0.009	0.109
-286.574	293.910	0.146	-0.265
-285.559	-33.615	0.158	-0.086
-284.545	-200.000	0.002	-0.180
-283.530	-200.000	0.019	0.165
-282.516	81.694	0.086	-0.092
-281.501	800.000	0.048	-0.164
-280.486	-79.733	-0.395	0.132
-279.472	-107.528	0.275	0.060
-278.457	-53.963	-0.301	-0.136
-277.443	55.469	0.133	-0.128
-276.428	81.061	-0.143	-0.153
-275.413	743.421	-0.118	0.315
-274.399	138.882	0.153	0.199
-273.384	127.329	-0.052	0.065
-272.370	-40.339	0.178	0.092
-271.355	-75.992	0.058	-0.020
-270.340	-200.000	-0.031	0.188
-269.326	-57.879	-0.212	0.092
-268.311	-18.508	0.237	-0.147
-267.297	-200.000	0.032	0.180
-266.282	8.697	0.030	0.023
-265.267	-75.149	-0.138	0.049
-264.253	-69.163	0.160	-0.061
-263.238	-35.592	-0.080	0.043
-262.224	-164.873	0.066	-0.003
-261.209	800.000	0.097	-0.272
-260.195	-53.351	-0.130	0.059
-259.180	23.979	-0.203	-0.166
-258.165	-38.602	0.219	-0.115
-257.151	800.000	-0.051	-0.214
-256.136	-62.010	0.388	0.161
-255.122	-200.000	-0.012	-0.118
-254.107	113.978	0.097	-0.116
-253.092	-62.681	0.247	0.101
-252.078	55.910	0.039	-0.038
-251.063	-58.984	-0.093	-0.040
-250.049	-200.000	-0.060	0.359
-249.034	72.937	0.147	0.152
-248.019	106.668	-0.121	0.143
-247.005	-180.497	0.501	-0.010
-245.990	-200.000	-0.022	-0.356
-244.976	-35.236	-0.093	-0.050
-243.961	-146.332	0.365	-0.032
-242.946	29.291	-0.121	0.102
-241.932	39.298	-0.070	0.062
-240.917	330.739	-0.027	0.051
-239.903	-133.567	-0.235	-0.029
-238.888	94.985	0.155	-0.175
-237.873	-200.000	0.048	-0.234
-236.859	15.925	-0.133	-0.104
-235.844	15.354	-0.261	0.203
-234.830	785.710	0.017	-0.045
-233.815	-133.346	0.059	-0.007
-232.800	-200.000	0.046	0.292
-231.786	43.845	0.185	0.168
-230.771	-28.703	-0.112	0.064
-229.757	-200.000	0.009	0.047
-228.742	-24.336	0.305	0.180
-227.727	354.444	-0.229	0.451
-226.713	-119.418	0.255	-0.044
-225.698	-151.924	0.053	-0.004
-224.684	12.653	-0.093	-0.071
-223.669	800.000	-0.070	0.212
-222.655	-112.054	-0.276	-0.055
-221.640	800.000	-0.041	0.158
-220.625	-22.731	-0.231	0.138
-219.611	-76.891	-0.136	-0.047
-218.596	-200.000	-0.023	0.110
-217.582	-149.640	0.271	-0.021
-216.567	-125.309	0.503	0.076
-215.552	237.722	0.029	0.048
-214.538	-200.000	-0.021	-0.328
-213.523	-143.445	0.479	0.045
-212.509	-200.000	0.000	0.121
-211.494	748.837	0.034	0.092
-210.479	-14.470	-0.225	-0.143
-209.465	321.231	0.065	-0.123
-208.450	-42.919	-0.351	-0.176
-207.436	-4.713	-0.324	-0.221
-206.421	-200.000	-0.002	-0.114
-205.406	800.000	-0.076	-0.275
-204.392	-38.494	-0.301	0.158
-203.377	227.118	-0.122	0.195
-202.363	-88.029	0.088	-0.026
-201.348	24.681	-0.168	-0.137
-200.333	-102.207	-0.047	0.011
-199.319	322.707	-0.064	0.121
-198.304	-16.448	-0.140	0.088
-197.290	97.000	0.337	-0.382
-196.275	437.354	-0.114	0.245
-195.260	238.530	0.074	-0.122
-194.246	362.922	0.019	0.038
-193.231	-200.000	0.092	0.645
-192.217	-200.000	-0.051	-0.305
-191.202	-82.396	0.028	-0.009
-190.187	-200.000	-0.082	-0.413
-189.173	-200.000	-0.018	-0.225
-188.158	108.145	0.022	-0.025
-187.144	243.512	0.084	0.139
-186.129	405.581	0.192	0.401
-185.114	-178.993	-0.212	-0.005
-184.100	45.258	0.210	0.191
-183.085	-200.000	0.033	-0.144
-182.071	0.295	0.030	-0.021
-181.056	-200.000	-0.010	-0.359
-180.042	-70.557	-0.164	-0.061
-179.027	111.388	0.080	-0.095
-178.012	-64.166	0.243	0.098
-176.998	-62.066	0.156	-0.064
-175.983	105.118	0.114	0.133
-174.969	-200.000	0.011	0.053
-173.954	438.529	-0.136	0.294
-172.939	-2.657	-0.182	-0.126
-171.925	334.874	0.089	0.170
-170.910	105.889	-0.190	-0.222
-169.896	-28.537	-0.138	0.079
-168.881	719.052	0.054	0.142
-167.866	800.000	-0.055	-0.198
-166.852	-39.843	0.120	-0.062
-165.837	800.000	-0.024	0.069
-164.823	-76.944	0.192	-0.066
-163.808	-133.420	0.313	-0.039
-162.793	800.000	0.067	-0.224
-161.779	800.000	0.087	-0.248
-160.764	-200.000	0.002	-0.125
-159.750	-102.001	0.138	-0.033
-158.735	-41.513	0.079	0.040
-157.720	707.729	-0.035	0.092
-156.706	-200.000	-0.006	0.407
-155.691	591.064	0.025	-0.062
-154.677	120.719	-0.085	0.104
-153.662	-154.385	0.357	0.024
-152.647	653.355	0.148	0.374
-151.633	-153.110	0.162	0.011
-150.618	-157.943	0.184	0.011
-149.604	-200.000	0.019	0.112
-148.589	-66.079	0.177	0.070
-147.574	96.830	-0.076	0.086
-146.560	-171.507	0.311	-0.010
-145.545	800.000	-0.088	0.336
-144.531	-156.797	0.275	-0.017
-143.516	800.000	0.050	-0.138
-142.502	294.194	-0.099	0.178
-141.487	-53.740	0.210	0.095
-140.472	221.657	0.092	0.146
-139.458	29.288	-0.335	0.281
-138.443	-142.652	-0.050	-0.005
-137.429	-200.000	0.076	-0.457
-136.414	-45.241	-0.322	0.158
-135.399	641.978	-0.085	0.213
-134.385	-5.491	-0.094	0.063
-133.370	50.074	0.156	-0.145
-132.356	-200.000	-0.004	-0.029
-131.341	-200.000	-0.066	0.315
-130.326	-200.000	-0.005	-0.173
-129.312	-200.000	-0.027	-0.224
-128.297	259.674	0.062	0.106
-127.283	-26.148	0.060	-0.035
-126.268	-37.015	-0.065	-0.034
-125.253	-200.000	0.037	-0.340
-124.239	221.792	0.038	-0.061
-123.224	-200.000	-0.042	0.234
-122.210	219.826	-0.173	-0.273
-121.195	-69.861	-0.247	0.093
-120.180	58.904	-0.094	0.091
-119.166	163.638	-0.119	-0.165
-118.151	-200.000	0.017	-0.303
-117.137	130.891	0.155	0.196
-116.122	-49.656	0.292	0.137
-115.107	800.000	-0.088	-0.257
-114.093	-175.726	0.195	-0.005
-113.078	-16.294	0.144	-0.090
-112.064	-200.000	-0.036	-0.185
-111.049	-36.595	0.092	0.049
-110.034	212.421	-0.141	0.219
-109.020	38.712	-0.207	0.182
-108.005	9.962	-0.249	-0.186
-106.991	296.140	-0.049	0.089
-105.976	-200.000	-0.016	0.279
-104.962	73.481	0.180	-0.186
-103.947	-200.000	-0.009	-0.422
-102.932	800.000	-0.006	-0.018
-101.918	-157.946	0.365	0.021
-100.903	67.587	0.112	0.113
-99.889	-28.444	0.318	-0.181
-98.874	-80.752	-0.234	-0.077
-97.859	4.149	0.146	0.106
-96.845	236.293	0.122	-0.198
-95.830	-14.454	-0.250	-0.159
-94.816	-45.713	0.212	0.103
-93.801	800.000	0.028	-0.089
-92.786	-108.889	0.244	-0.051
-91.772	20.557	-0.084	-0.067
-90.757	-83.225	-0.280	0.089
-89.743	37.183	-0.536	-0.467
-88.728	800.000	-0.078	0.216
-87.713	52.600	0.334	0.314
-86.699	253.167	-0.173	-0.291
-85.684	45.704	0.093	0.085
-84.670	92.690	-0.129	-0.144
-83.655	-129.381	-0.244	0.033
-82.640	-183.072	0.040	0.001
-81.626	-142.708	-0.185	-0.018
-80.611	121.529	-0.215	-0.264
-79.597	-45.550	0.097	-0.047
-78.582	8.289	-0.157	-0.116
-77.567	-200.000	0.023	-0.186
-76.553	-84.939	-0.221	-0.068
-75.538	468.087	-0.150	-0.332
-74.524	120.838	0.139	-0.170
-73.509	-110.596	-0.143	0.029
-72.494	598.844	0.175	0.428
-71.480	-200.000	0.008	-0.207
-70.465	-24.967	-0.311	-0.181
-69.451	-83.423	-0.056	-0.018
-68.436	-54.317	-0.358	-0.160
-67.422	123.323	0.251	-0.309
-66.407	152.184	-0.087	-0.117
-65.392	800.000	0.029	0.120
-64.378	-30.402	0.241	0.134
-63.363	141.419	0.190	-0.247
-62.349	-73.178	-0.192	0.069
-61.334	51.662	-1.066	-0.997
-60.319	-5.854	0.614	0.413
-59.305	-200.000	-0.145	-0.869
-58.290	474.751	0.544	1.207
-57.276	432.123	0.606	1.292
-56.261	-200.000	116.369	645.010
-55.246	494.429	1541.908	3479.456
-54.232	171.596	2721.199	3840.593
-53.217	95.096	2329.155	2607.090
-52.203	32.820	2073.327	1763.986
-51.188	28.250	1988.349	1650.525
-50.173	26.889	1971.989	1624.700
-49.159	43.978	2032.808	1830.847
-48.144	42.748	2047.365	1832.686
-47.130	28.664	2005.646	1668.386
-46.115	26.462	1995.555	1639.986
-45.100	26.445	1992.383	1637.159
-44.086	26.347	1989.866	1634.144
-43.071	26.362	1986.707	1631.621
-42.057	26.298	1984.983	1629.558
-41.042	26.252	1983.751	1628.067
-40.027	26.273	1981.427	1626.288
-39.013	26.456	1979.553	1626.332
-37.998	26.361	1977.993	1624.126
-36.984	26.331	1976.524	1622.591
-35.969	26.376	1974.076	1620.920
-34.954	26.315	1972.585	1619.081
-33.940	26.431	1970.865	1618.645
-32.925	26.440	1969.551	1617.580
-31.911	26.495	1967.610	1616.418
-30.896	26.471	1965.623	1614.507
-29.881	26.418	1965.050	1613.499
-28.867	26.549	1962.869	1612.810
-27.852	26.470	1961.331	1610.777
-26.838	26.518	1959.632	1609.748
-25.823	26.493	1957.505	1607.713
-24.809	26.462	1955.947	1606.094
-23.794	26.510	1954.150	1604.979
-22.779	26.442	1952.545	1603.001
-21.765	26.431	1950.721	1601.339
-20.750	26.451	1949.124	1600.141
-19.736	26.501	1947.143	1598.895
-18.721	26.535	1945.440	1597.728
-17.706	26.433	1944.174	1595.728
-16.692	26.447	1942.281	1594.237
-15.677	26.435	1940.772	1592.825
-14.663	26.449	1940.171	1592.395
-13.648	26.437	1938.530	1590.882
-12.633	26.435	1937.377	1589.849
-11.619	26.415	1935.836	1588.351
-10.604	26.334	1934.751	1586.688
-9.590	26.347	1933.439	1585.662
-8.575	26.379	1932.197	1584.859
-7.560	26.511	1930.130	1584.253
-6.546	26.539	1928.789	1583.340
-5.531	26.479	1927.735	1581.881
-4.517	26.402	1926.754	1580.344
-3.502	26.355	1926.452	1579.621
-2.487	26.497	1924.477	1579.176
-1.473	26.424	1923.663	1577.811
-0.458	26.561	1918.429	1574.647
0.556	27.295	1898.634	1546.832
1.571	23.135	1880.671	1496.944
2.586	19.331	1904.159	1482.855
3.600	18.421	1938.878	1501.780
4.615	18.018	1932.190	1492.950
5.629	13.572	1831.105	1377.826
6.644	6.487	1718.173	1237.272
7.659	3.392	1685.920	1190.067
8.673	3.191	1682.680	1186.127
9.688	3.187	1681.040	1184.832
10.702	3.253	1679.733	1184.320
11.717	3.149	1676.549	1181.169
12.731	3.619	1675.324	1183.809
13.746	8.453	1686.775	1229.043
14.761	16.053	1703.796	1300.171
15.775	19.957	1710.350	1335.225
16.790	20.262	1709.207	1336.559
17.804	19.338	1706.440	1327.172
18.819	18.341	1703.246	1316.905
19.834	17.706	1701.055	1310.215
20.848	17.479	1700.061	1307.594
21.863	17.392	1698.269	1305.433
22.877	17.252	1696.712	1303.047
23.892	17.085	1695.182	1300.478
24.907	16.981	1694.315	1298.898
25.921	16.916	1693.210	1297.438
26.936	16.987	1692.011	1296.948
27.950	17.003	1691.247	1296.372
28.965	17.033	1690.635	1296.011
29.980	17.034	1690.151	1295.540
30.994	17.111	1689.254	1295.319
32.009	17.254	1687.762	1295.155
33.023	17.242	1687.233	1294.540
34.038	17.334	1685.955	1294.148
35.053	17.227	1685.268	1292.688
36.067	17.155	1683.290	1290.515
37.082	17.103	1682.402	1289.320
38.096	17.146	1681.144	1288.568
39.111	17.188	1680.829	1288.536
40.126	17.235	1679.481	1287.745
41.140	17.206	1678.956	1287.006
42.155	16.935	1677.068	1283.396
43.169	16.727	1675.799	1280.739
44.184	16.785	1674.537	1280.095
45.199	16.813	1673.078	1279.079
46.213	16.720	1672.239	1277.627
47.228	16.777	1670.845	1276.878
48.242	16.977	1670.030	1277.649
49.257	17.016	1669.342	1277.298
50.271	16.942	1668.241	1275.788
51.286	17.001	1666.685	1274.932
52.301	17.031	1665.770	1274.342
53.315	16.953	1664.521	1272.686
54.330	16.986	1662.294	1271.117
55.344	16.944	1660.950	1269.668
56.359	16.818	1659.020	1267.133
57.374	16.881	1657.890	1266.630
58.388	16.864	1657.160	1265.833
59.403	16.773	1656.042	1264.185
60.417	16.748	1653.863	1262.227
61.432	16.710	1653.084	1261.235
62.447	16.763	1652.112	1260.780
63.461	16.626	1651.077	1258.856
64.476	16.586	1650.004	1257.629
65.490	16.543	1648.423	1255.995
66.505	16.570	1646.835	1254.874
67.520	16.562	1646.806	1254.680
68.534	16.594	1645.217	1253.595
69.549	16.594	1644.224	1252.731
70.563	16.683	1642.679	1252.102
71.578	16.660	1641.590	1250.992
72.593	16.509	1640.677	1249.069
73.607	16.451	1639.392	1247.549
74.622	16.466	1637.674	1246.244
75.636	16.458	1637.485	1245.932
76.651	16.491	1636.588	1245.381
77.666	16.499	1636.067	1244.934
78.680	16.441	1635.189	1243.729
79.695	16.609	1634.136	1244.052
80.709	16.602	1633.193	1243.172
81.724	16.743	1632.114	1243.275
82.739	16.775	1631.923	1243.258
83.753	16.774	1631.176	1242.574
84.768	16.893	1630.055	1242.479
85.782	16.969	1629.486	1242.489
86.797	17.163	1628.383	1242.964
87.812	17.283	1626.979	1242.659
88.826	17.131	1626.286	1240.909
89.841	16.959	1625.283	1238.773
90.855	17.057	1624.238	1238.584
91.870	17.139	1623.287	1238.351
92.884	17.159	1622.337	1237.660
93.899	17.136	1621.530	1236.766
94.914	17.213	1619.662	1235.794
95.928	17.202	1618.918	1235.035
96.943	17.216	1617.364	1233.840
97.957	17.081	1616.154	1231.831
98.972	17.134	1614.701	1231.000
99.987	17.102	1612.994	1229.359
101.001	17.112	1611.365	1228.082
102.016	17.091	1610.120	1226.871
103.030	17.174	1608.107	1225.823
104.045	16.992	1607.882	1224.236
105.060	17.069	1606.182	1223.385
106.074	17.011	1604.790	1221.801
107.089	16.871	1603.141	1219.430
108.103	16.779	1601.041	1217.064
109.118	16.617	1600.001	1215.000
110.133	16.593	1598.571	1213.634
111.147	16.613	1596.781	1212.313
112.162	16.636	1595.826	1211.642
113.176	16.643	1594.106	1210.284
114.191	16.705	1592.971	1209.754
115.206	16.760	1591.687	1209.067
116.220	16.860	1590.202	1208.541
117.235	16.766	1588.898	1206.780
118.249	16.802	1587.529	1205.889
119.264	16.715	1586.598	1204.452
120.279	16.753	1584.710	1203.183
121.293	16.640	1583.254	1201.173
122.308	16.667	1581.632	1200.022
123.322	16.541	1580.066	1197.838
124.337	16.461	1578.880	1196.264
125.352	16.467	1577.731	1195.332
126.366	16.460	1576.154	1193.981
127.381	16.461	1575.234	1193.187
128.395	16.462	1573.983	1192.142
129.410	16.512	1572.848	1191.527
130.424	16.498	1571.684	1190.442
131.439	16.545	1570.330	1189.645
132.454	16.644	1569.379	1189.514
133.468	16.655	1568.097	1188.512
134.483	16.778	1566.240	1187.863
135.497	16.801	1564.726	1186.772
136.512	16.712	1563.992	1185.483
137.527	16.776	1562.460	1184.668
138.541	16.803	1560.957	1183.610
139.556	16.770	1559.519	1182.187
140.570	16.782	1558.645	1181.500
141.585	16.875	1557.236	1180.978
142.600	17.079	1556.001	1181.355
143.614	17.065	1555.388	1180.691
144.629	17.215	1553.604	1180.275
145.643	17.203	1552.261	1179.068
146.658	17.204	1550.986	1177.997
147.673	17.104	1549.414	1176.011
148.687	17.079	1547.677	1174.411
149.702	17.032	1546.218	1172.875
150.716	16.965	1544.602	1171.087
151.731	16.884	1542.983	1169.196
152.746	16.853	1542.124	1168.224
153.760	16.883	1541.005	1167.484
154.775	16.938	1539.826	1166.865
155.789	17.017	1538.201	1166.075
156.804	17.081	1537.044	1165.534
157.819	17.118	1535.744	1164.697
158.833	17.096	1534.826	1163.744
159.848	17.225	1533.525	1163.541
160.862	17.200	1532.983	1162.855
161.877	17.421	1530.979	1162.745
162.892	17.312	1529.771	1160.981
163.906	17.017	1528.605	1157.980
164.921	16.958	1527.294	1156.480
165.935	16.855	1526.706	1155.228
166.950	16.912	1525.482	1154.589
167.964	17.043	1523.892	1154.178
168.979	17.086	1523.396	1153.991
169.994	17.075	1522.129	1152.850
171.008	17.111	1520.569	1151.813
172.023	17.070	1519.996	1151.003
173.037	17.148	1518.745	1150.479
174.052	17.178	1518.206	1150.171
175.067	17.266	1516.942	1149.710
176.081	17.146	1515.568	1147.756
177.096	17.103	1513.758	1145.995
178.110	16.961	1512.388	1143.897
179.125	17.115	1511.125	1143.876
180.140	17.038	1510.504	1142.785
181.154	17.149	1509.413	1142.606
182.169	17.130	1508.529	1141.711
183.183	17.190	1507.645	1141.343
184.198	17.274	1506.453	1140.904
185.213	17.340	1505.734	1140.699
186.227	17.312	1504.856	1139.744
187.242	17.431	1503.826	1139.662
188.256	17.463	1502.447	1138.729
189.271	17.507	1501.097	1137.902
190.286	17.631	1500.167	1137.922
191.300	17.471	1498.965	1135.846
192.315	17.208	1497.957	1133.225
193.329	16.907	1495.933	1129.587
194.344	16.861	1495.527	1128.879
195.359	16.998	1494.047	1128.571
196.373	17.039	1493.710	1128.490
197.388	17.263	1492.334	1128.837
198.402	17.307	1491.156	1128.137
199.417	17.431	1490.340	1128.244
200.432	17.502	1489.598	1128.049
201.446	17.679	1489.093	1128.740
202.461	17.699	1488.028	1127.965
203.475	17.779	1486.786	1127.458
204.490	17.867	1485.997	1127.341
205.504	17.694	1484.719	1125.128
206.519	17.547	1483.047	1122.788
207.534	17.486	1481.911	1121.430
208.548	17.485	1481.203	1120.785
209.563	17.500	1479.995	1119.870
210.577	17.516	1479.030	1119.147
211.592	17.487	1478.542	1118.492
212.607	17.608	1477.584	1118.465
213.621	17.716	1476.868	1118.530
214.636	17.768	1476.317	1118.352
215.650	17.711	1474.795	1116.726
216.665	17.706	1474.131	1116.093
217.680	17.846	1473.588	1116.499
218.694	17.862	1472.611	1115.768
219.709	17.938	1471.815	1115.563
220.723	17.877	1471.174	1114.581
221.738	17.840	1469.920	1113.287
222.753	17.918	1468.863	1112.896
223.767	17.868	1467.997	1111.819
224.782	17.816	1467.333	1110.877
225.796	17.931	1465.934	1110.466
226.811	17.993	1465.569	1110.494
227.826	18.100	1464.642	1110.387
228.840	18.020	1463.513	1108.917
229.855	17.927	1462.503	1107.448
230.869	17.787	1461.621	1105.779
231.884	17.766	1460.803	1104.926
232.899	17.866	1458.948	1104.070
233.913	17.819	1458.175	1103.087
234.928	17.721	1456.724	1101.258
235.942	17.652	1455.832	1100.037
236.957	17.671	1454.239	1098.859
237.972	17.741	1453.080	1098.337
238.986	17.707	1452.214	1097.368
240.001	17.574	1451.836	1096.130
241.015	17.818	1449.716	1095.998
242.030	17.764	1448.958	1094.984
243.045	17.828	1447.940	1094.526
244.059	17.880	1447.601	1094.507
245.074	18.007	1446.200	1094.166
246.088	17.893	1445.773	1093.014
247.103	18.004	1444.879	1092.952
248.117	18.030	1443.973	1092.336
249.132	18.108	1443.466	1092.351
250.147	18.231	1443.371	1092.971
251.161	18.325	1442.312	1092.676
252.176	18.474	1441.972	1093.270
253.190	18.499	1441.160	1092.719
254.205	18.552	1440.241	1092.262
255.220	18.594	1439.726	1092.038
256.234	18.675	1438.447	1091.486
257.249	18.745	1437.953	1091.460
258.263	18.670	1437.029	1090.186
259.278	18.602	1436.239	1089.063
260.293	18.666	1434.570	1088.108
261.307	18.690	1434.086	1087.795
262.322	18.652	1434.068	1087.442
263.336	18.817	1432.709	1087.363
264.351	18.778	1431.811	1086.332
265.366	18.776	1431.038	1085.641
266.380	18.860	1430.189	1085.430
267.395	18.845	1428.485	1083.944
268.409	18.816	1428.087	1083.369
269.424	18.633	1427.274	1081.503
270.439	18.685	1425.861	1080.661
271.453	18.693	1424.865	1079.861
272.468	18.689	1423.771	1078.914
273.482	18.529	1423.278	1077.439
274.497	18.586	1421.944	1076.689
275.512	18.526	1421.555	1075.925
276.526	18.614	1421.006	1075.962
277.541	18.608	1419.364	1074.591
278.555	18.662	1418.322	1074.043
279.570	18.731	1417.414	1073.689
280.585	18.735	1416.540	1072.956
281.599	18.782	1416.229	1072.921
282.614	18.912	1415.296	1072.930
283.628	18.883	1413.727	1071.466
284.643	18.767	1412.551	1069.759
285.657	18.692	1411.677	1068.533
286.672	18.769	1410.678	1068.160
287.687	18.771	1409.831	1067.442
288.701	18.669	1409.412	1066.396
289.716	18.756	1408.144	1065.879
290.730	18.803	1407.454	1065.555
291.745	18.781	1406.394	1064.523
292.760	18.836	1405.294	1063.934
293.774	18.852	1404.320	1063.203
294.789	18.954	1403.521	1063.138
295.803	19.028	1402.367	1062.622
296.818	19.062	1401.492	1062.076
297.833	18.986	1400.927	1061.086
298.847	18.797	1400.021	1059.138
299.862	18.850	1399.188	1058.742
300.876	18.841	1397.831	1057.567
301.891	18.833	1397.218	1056.960
302.906	18.926	1396.393	1056.814
303.920	18.961	1395.624	1056.356
304.935	19.102	1395.189	1056.795
305.949	19.254	1394.027	1056.755
306.964	19.318	1393.515	1056.665
307.979	19.375	1392.899	1056.454
308.993	19.329	1391.514	1055.032
310.008	19.208	1390.028	1053.068
311.022	19.215	1389.333	1052.495
312.037	19.317	1388.448	1052.351
313.052	19.241	1387.995	1051.454
314.066	19.277	1386.361	1050.342
315.081	19.161	1385.206	1048.666
316.095	19.063	1384.106	1047.143
317.110	18.990	1383.105	1045.853
318.125	19.013	1381.834	1044.935
319.139	19.115	1380.844	1044.713
320.154	19.003	1380.115	1043.392
321.168	18.974	1379.509	1042.667
322.183	18.965	1378.696	1041.904
323.197	19.104	1377.559	1041.796
324.212	19.099	1376.416	1040.804
325.227	19.154	1375.702	1040.508
326.241	19.211	1374.751	1040.038
327.256	19.221	1373.939	1039.392
328.270	19.105	1373.341	1038.151
329.285	19.084	1372.844	1037.559
330.300	19.159	1370.987	1036.515
331.314	19.141	1370.143	1035.675
332.329	19.178	1369.270	1035.145
333.343	19.134	1368.506	1034.213
334.358	19.198	1367.618	1033.832
335.373	19.256	1367.242	1033.806
336.387	19.333	1366.556	1033.657
337.402	19.358	1365.788	1033.134
338.416	19.382	1365.216	1032.756
339.431	19.444	1363.969	1032.089
340.446	19.457	1363.563	1031.769
341.460	19.566	1362.552	1031.564
342.475	19.584	1361.477	1030.769
343.489	19.747	1360.840	1031.165
344.504	19.722	1359.954	1030.253
345.519	19.764	1359.231	1029.867
346.533	19.846	1358.314	1029.568
347.548	19.856	1357.046	1028.576
348.562	19.926	1356.497	1028.484
349.577	19.955	1355.845	1028.070
350.592	19.960	1354.229	1026.783
351.606	19.696	1353.836	1024.830
352.621	19.553	1352.504	1022.883
353.635	19.546	1351.623	1022.082
354.650	19.460	1350.226	1020.428
355.665	19.353	1350.169	1019.663
356.679	19.520	1348.433	1019.251
357.694	19.602	1347.387	1018.852
358.708	19.716	1346.319	1018.625
359.723	19.730	1345.279	1017.830
360.738	19.717	1344.315	1016.933
361.752	19.777	1343.329	1016.453
362.767	19.776	1342.105	1015.428
363.781	19.848	1341.069	1014.978
364.796	19.786	1340.659	1014.213
365.810	19.791	1339.758	1013.475
366.825	19.952	1339.371	1014.036
367.840	20.045	1338.767	1014.033
368.854	20.099	1338.324	1013.921
369.869	20.129	1337.744	1013.566
370.883	20.259	1336.870	1013.576
371.898	20.136	1336.276	1012.317
372.913	20.039	1335.092	1010.766
373.927	20.093	1334.185	1010.301
374.942	20.055	1333.455	1009.439
375.956	20.078	1333.076	1009.200
376.971	20.265	1332.041	1009.410
377.986	20.198	1330.765	1007.965
379.000	20.152	1330.457	1007.377
380.015	20.150	1329.825	1006.796
381.029	20.167	1329.306	1006.417
382.044	20.298	1328.508	1006.479
383.059	20.392	1327.426	1006.114
384.073	20.351	1326.841	1005.345
385.088	20.245	1326.676	1004.517
386.102	20.407	1325.242	1004.284
387.117	20.430	1324.818	1004.004
388.132	20.342	1323.509	1002.414
389.146	20.241	1322.565	1001.031
390.161	20.224	1321.855	1000.307
391.175	20.123	1321.243	999.170
392.190	20.137	1320.614	998.687
393.205	20.190	1319.516	998.072
394.219	20.337	1318.436	998.015
395.234	20.342	1317.732	997.420
396.248	20.332	1316.198	996.114
397.263	20.372	1314.530	994.992
398.278	20.304	1313.541	993.766
399.292	20.299	1312.169	992.612
400.307	20.159	1310.989	990.832
401.321	20.085	1309.912	989.511
402.336	20.003	1309.256	988.460
403.350	20.037	1307.818	987.481
404.365	20.014	1306.971	986.620
405.380	20.024	1306.446	986.192
406.394	20.205	1305.579	986.480
407.409	20.276	1305.061	986.408
408.423	20.301	1304.226	985.832
409.438	20.415	1303.756	986.032
410.453	20.517	1303.323	986.200
411.467	20.526	1302.628	985.637
412.482	20.594	1302.212	985.622
413.496	20.678	1301.206	985.246
414.511	20.719	1300.238	984.661
415.526	20.697	1299.721	984.056
416.540	20.794	1299.073	984.027
417.555	20.920	1297.804	983.688
418.569	20.834	1297.742	983.068
419.584	20.948	1296.768	982.886
420.599	20.822	1296.203	981.661
421.613	145.156	1435.585	1795.458
422.628	140.319	1455.840	1795.535
