DTS Sentinel unit serial number:	SN413079Multiplexer serial number:	ORYXHardware model number:	OX4-SRSoftware version number:	ORYX F/W v4.00 Oryx Data Collector v3.7.2.0data status	okinstallation	princeton_trtdifferential loss correction	single-endedforward channel	channel 4reverse channel	N/Adate	2019/09/12time	21:49:34forward acquisition time	60.00reverse acquisition time	0.00gamma	496.2192k internal	0.2314k external	0.2314temperature offset calibration	1.0175default loss term (dB/km)	0.3790temperature slope calibration	1.0000multiplexer offset coefficient	1.0000multiplexer slope coefficient	1.0000fibre end	0.00T internal ref (°C)	30.19T ext. ref 1 (°C)	3.73T ext. ref 2 (°C)	24.81length (m)	temperature (°C)	Stokes	anti-Stokes-747.200	655.319	-0.029	0.076
-746.185	181.684	0.096	0.143
-745.171	83.859	-0.305	-0.338
-744.156	194.114	-0.143	-0.219
-743.142	-10.326	-0.122	-0.082
-742.127	618.625	0.072	0.182
-741.112	-21.768	0.025	0.015
-740.098	-54.282	0.038	-0.017
-739.083	-200.000	-0.074	-0.444
-738.069	651.545	-0.060	0.157
-737.054	-200.000	0.016	0.133
-736.039	-70.910	-0.158	-0.060
-735.025	800.000	0.024	-0.095
-734.010	-200.000	0.055	0.325
-732.996	-78.288	-0.275	0.096
-731.981	700.332	-0.119	-0.318
-730.966	111.989	0.053	-0.065
-729.952	85.753	-0.107	0.119
-728.937	-64.186	-0.105	-0.043
-727.923	800.000	-0.090	-0.299
-726.908	-200.000	0.008	0.171
-725.894	303.942	-0.149	0.280
-724.879	800.000	-0.045	-0.191
-723.864	66.190	-0.107	0.110
-722.850	315.109	0.050	0.096
-721.835	-200.000	-0.090	-0.409
-720.821	-200.000	0.022	-0.458
-719.806	-108.620	-0.187	0.041
-718.791	-200.000	-0.018	-0.143
-717.777	-48.713	-0.248	0.120
-716.762	-74.844	-0.123	-0.045
-715.748	-85.118	-0.220	0.070
-714.733	800.000	0.041	-0.154
-713.718	153.886	0.144	0.201
-712.704	134.504	0.062	-0.082
-711.689	172.601	-0.066	-0.096
-710.675	292.218	-0.065	-0.120
-709.660	800.000	-0.073	0.211
-708.645	-82.199	-0.119	-0.039
-707.631	-25.539	0.057	-0.034
-706.616	-200.000	-0.025	0.185
-705.602	59.873	-0.073	-0.073
-704.587	783.186	-0.093	0.257
-703.572	800.000	0.011	0.036
-702.558	-123.379	-0.393	0.063
-701.543	-200.000	0.004	0.229
-700.529	-7.444	-0.038	0.026
-699.514	-200.000	-0.030	0.174
-698.499	-72.041	-0.146	-0.055
-697.485	-200.000	-0.002	0.015
-696.470	12.018	-0.304	-0.236
-695.456	195.423	-0.098	0.150
-694.441	-200.000	0.065	-0.338
-693.426	72.828	0.135	-0.143
-692.412	-44.533	0.382	0.193
-691.397	124.418	-0.128	0.163
-690.383	519.209	-0.101	-0.238
-689.368	-68.982	-0.122	-0.048
-688.354	-18.148	0.363	0.230
-687.339	45.004	-0.193	-0.180
-686.324	632.241	-0.030	-0.077
-685.310	-75.976	0.362	0.129
-684.295	71.294	-0.103	0.108
-683.281	-127.351	-0.278	0.041
-682.266	-152.531	-0.231	0.017
-681.251	22.862	-0.066	-0.055
-680.237	-200.000	0.005	0.257
-679.222	702.040	0.076	-0.202
-678.208	-106.621	-0.262	0.059
-677.193	144.477	-0.210	0.284
-676.178	126.968	-0.154	0.198
-675.164	24.622	-0.248	-0.208
-674.149	-200.000	-0.044	0.205
-673.135	-134.463	-0.156	0.019
-672.120	172.475	-0.189	-0.275
-671.105	265.656	0.100	-0.176
-670.091	-87.238	-0.201	0.062
-669.076	7.951	-0.174	-0.132
-668.062	800.000	0.062	0.200
-667.047	-200.000	0.022	0.134
-666.032	-32.651	-0.167	-0.094
-665.018	-9.746	-0.113	-0.076
-664.003	658.312	-0.065	-0.169
-662.989	-200.000	-0.001	-0.241
-661.974	-52.949	-0.207	-0.096
-660.959	335.950	-0.071	0.139
-659.945	-134.129	0.168	-0.021
-658.930	-141.516	0.318	0.032
-657.916	800.000	-0.043	0.120
-656.901	-200.000	-0.008	-0.212
-655.886	-34.406	0.167	0.092
-654.872	-31.266	-0.161	-0.092
-653.857	-94.770	-0.170	-0.047
-652.843	-58.615	0.090	-0.039
-651.828	-200.000	0.040	-0.332
-650.814	30.429	0.068	-0.058
-649.799	216.567	0.181	-0.292
-648.784	-72.391	-0.372	0.139
-647.770	89.611	-0.063	0.071
-646.755	-120.146	-0.157	0.027
-645.741	-200.000	0.018	-0.136
-644.726	101.304	-0.215	-0.252
-643.711	184.000	0.097	0.145
-642.697	315.575	0.238	-0.453
-641.682	-42.848	-0.529	-0.272
-640.668	-37.775	-0.268	-0.144
-639.653	-121.084	0.122	0.021
-638.638	-7.291	0.325	-0.222
-637.624	-73.471	-0.184	0.068
-636.609	800.000	0.072	-0.273
-635.595	-121.343	0.178	0.030
-634.580	-200.000	-0.019	0.527
-633.565	244.399	0.287	0.487
-632.551	-87.780	-0.293	-0.089
-631.536	-200.000	-0.036	-0.204
-630.522	156.343	-0.094	-0.131
-629.507	40.254	0.097	0.088
-628.492	-112.688	0.272	0.055
-627.478	-200.000	0.006	0.067
-626.463	-200.000	0.015	0.382
-625.449	18.743	0.203	0.164
-624.434	-97.044	0.215	-0.057
-623.419	317.924	-0.045	0.086
-622.405	-165.595	-0.216	0.009
-621.390	-62.655	-0.563	0.236
-620.376	-27.849	0.085	-0.050
-619.361	-85.259	-0.155	0.049
-618.346	32.156	0.061	-0.053
-617.332	-200.000	-0.001	0.034
-616.317	19.443	-0.111	-0.090
-615.303	43.923	0.310	0.286
-614.288	-58.525	0.099	-0.043
-613.273	76.278	0.219	0.234
-612.259	353.055	0.117	0.233
-611.244	190.177	0.063	-0.095
-610.230	-155.675	0.101	-0.007
-609.215	800.000	0.041	-0.152
-608.201	60.079	0.168	0.168
-607.186	-164.021	-0.126	0.006
-606.171	-90.041	0.294	0.086
-605.157	800.000	0.062	0.223
-604.142	-136.509	-0.268	-0.031
-603.128	800.000	-0.084	-0.305
-602.113	287.015	0.124	-0.226
-601.098	-50.555	0.266	0.127
-600.084	709.627	0.102	-0.273
-599.069	-200.000	-0.016	-0.154
-598.055	-200.000	0.021	0.118
-597.040	-50.670	-0.243	0.115
-596.025	-200.000	-0.057	0.262
-595.011	225.103	0.048	0.078
-593.996	92.765	0.269	-0.307
-592.982	-160.473	-0.220	-0.012
-591.967	64.984	-0.054	0.055
-590.952	-43.089	-0.186	0.095
-589.938	557.547	0.073	-0.178
-588.923	-90.465	-0.153	0.045
-587.909	-144.150	-0.235	-0.022
-586.894	90.269	0.062	0.070
-585.879	800.000	-0.105	-0.428
-584.865	62.615	0.053	0.053
-583.850	89.233	0.202	0.227
-582.836	-31.539	-0.233	-0.132
-581.821	222.247	-0.126	-0.205
-580.806	800.000	0.051	-0.145
-579.792	282.091	0.027	-0.048
-578.777	214.164	-0.201	-0.320
-577.763	800.000	0.100	0.323
-576.748	505.610	-0.076	0.177
-575.733	226.520	0.137	-0.224
-574.719	-3.036	-0.056	-0.039
-573.704	-200.000	-0.027	-0.335
-572.690	189.385	0.122	-0.184
-571.675	172.673	0.039	-0.057
-570.661	313.370	0.109	-0.207
-569.646	340.605	0.013	-0.026
-568.631	-200.000	-0.014	0.117
-567.617	1.961	0.269	-0.195
-566.602	-200.000	0.015	-0.162
-565.588	95.141	0.234	0.268
-564.573	-22.203	-0.142	-0.087
-563.558	193.181	0.083	-0.126
-562.544	-91.222	-0.264	0.076
-561.529	109.630	0.175	0.211
-560.515	-106.008	0.326	0.074
-559.500	-34.921	-0.136	0.075
-558.485	-28.691	-0.175	0.101
-557.471	370.750	-0.066	0.135
-556.456	-90.985	0.067	0.019
-555.442	-50.204	0.102	0.049
-554.427	15.523	0.202	-0.160
-553.412	-200.000	-0.028	-0.272
-552.398	-134.026	-0.227	-0.028
-551.383	-200.000	0.036	0.194
-550.369	800.000	0.071	0.241
-549.354	157.204	-0.100	0.139
-548.339	800.000	0.032	-0.130
-547.325	-200.000	0.054	-0.410
-546.310	122.843	0.144	-0.181
-545.296	-109.479	0.174	0.037
-544.281	-200.000	-0.020	0.430
-543.266	-94.806	0.115	0.031
-542.252	11.086	0.283	0.217
-541.237	-16.306	0.143	-0.091
-540.223	-200.000	-0.047	-0.277
-539.208	154.118	0.163	-0.224
-538.193	132.825	0.069	-0.089
-537.179	-57.977	0.150	0.066
-536.164	525.536	0.087	-0.207
-535.150	41.335	0.083	0.076
-534.135	-109.402	0.322	0.069
-533.121	-44.859	-0.206	0.103
-532.106	152.538	0.103	-0.141
-531.091	-118.904	0.292	-0.051
-530.077	-89.018	-0.152	0.045
-529.062	800.000	-0.122	-0.367
-528.048	-145.807	0.293	0.026
-527.033	28.710	0.211	-0.180
-526.018	-181.510	0.341	-0.007
-525.004	0.826	0.309	-0.223
-523.989	-67.664	0.168	-0.066
-522.975	130.821	-0.057	-0.074
-521.960	477.066	0.119	-0.271
-520.945	-24.714	0.257	0.154
-519.931	-43.326	-0.397	0.202
-518.916	-35.333	-0.151	-0.083
-517.902	687.721	-0.037	0.096
-516.887	90.738	-0.146	-0.164
-515.872	132.555	-0.196	0.253
-514.858	800.000	-0.069	-0.223
-513.843	194.602	0.118	-0.181
-512.829	-89.301	-0.235	-0.070
-511.814	87.241	0.116	0.128
-510.799	-142.619	-0.053	0.005
-509.785	-42.952	-0.352	-0.179
-508.770	-97.428	-0.034	-0.009
-507.756	97.640	0.020	-0.023
-506.741	9.801	-0.237	0.181
-505.726	-85.158	0.332	0.104
-504.712	800.000	-0.071	0.298
-503.697	-21.297	-0.155	0.095
-502.683	-135.137	0.313	-0.038
-501.668	-28.805	0.249	-0.144
-500.653	-34.290	-0.237	0.131
-499.639	98.506	0.047	0.055
-498.624	76.293	0.276	0.294
-497.610	-85.838	-0.366	0.114
-496.595	-5.037	-0.024	-0.016
-495.581	7.607	0.253	-0.190
-494.566	38.688	-0.017	-0.016
-493.551	214.097	0.082	-0.130
-492.537	-7.863	0.214	0.145
-491.522	-200.000	-0.004	-0.026
-490.508	800.000	-0.155	0.440
-489.493	-200.000	-0.072	0.433
-488.478	191.455	-0.114	0.172
-487.464	-200.000	0.004	-0.043
-486.449	560.169	-0.056	-0.137
-485.435	-158.039	-0.143	0.008
-484.420	-200.000	-0.012	-0.346
-483.405	-24.684	-0.213	-0.127
-482.391	-200.000	-0.020	0.225
-481.376	-200.000	0.016	0.126
-480.362	6.648	-0.136	0.101
-479.347	800.000	-0.070	-0.221
-478.332	-200.000	-0.019	0.171
-477.318	800.000	-0.152	0.479
-476.303	488.865	-0.077	0.176
-475.289	-48.277	-0.112	-0.054
-474.274	800.000	-0.097	0.293
-473.259	-103.661	-0.050	-0.012
-472.245	49.125	-0.104	0.098
-471.230	-200.000	-0.013	0.095
-470.216	-168.769	0.228	-0.009
-469.201	-12.948	0.164	-0.107
-468.186	-63.723	-0.440	0.181
-467.172	-90.551	0.086	-0.025
-466.157	250.276	-0.260	-0.443
-465.143	-200.000	-0.040	0.199
-464.128	-19.491	0.251	0.156
-463.113	-198.150	0.280	-0.002
-462.099	-73.193	-0.278	0.102
-461.084	-200.000	-0.035	0.271
-460.070	146.943	0.090	-0.121
-459.055	-129.534	-0.071	-0.010
-458.040	-106.530	-0.224	-0.050
-457.026	83.860	-0.218	-0.239
-456.011	71.477	0.230	0.239
-454.997	-60.116	-0.106	0.045
-453.982	313.887	0.108	0.205
-452.968	267.584	0.043	0.075
-451.953	-75.358	-0.231	0.083
-450.938	-54.481	-0.113	0.051
-449.924	-200.000	0.009	0.124
-448.909	-36.317	0.168	0.091
-447.895	-200.000	-0.069	0.309
-446.880	-92.320	0.198	0.056
-445.865	366.617	0.066	0.134
-444.851	-16.536	0.145	0.092
-443.836	650.009	0.004	0.011
-442.822	-200.000	0.019	-0.166
-441.807	96.316	-0.130	0.150
-440.792	64.763	0.106	-0.107
-439.778	-200.000	-0.040	-0.201
-438.763	150.025	0.078	-0.105
-437.749	26.535	0.031	-0.026
-436.734	-87.017	-0.123	0.037
-435.719	-27.951	0.214	-0.124
-434.705	-200.000	-0.001	-0.172
-433.690	-74.749	0.188	0.068
-432.676	800.000	0.051	-0.221
-431.661	800.000	-0.064	-0.229
-430.646	800.000	0.068	0.201
-429.632	-65.783	0.275	0.110
-428.617	-101.879	0.411	-0.099
-427.603	-36.559	-0.016	0.009
-426.588	34.628	-0.150	0.131
-425.573	517.625	-0.049	-0.114
-424.559	-153.204	-0.277	-0.019
-423.544	367.876	-0.046	0.093
-422.530	-32.732	0.130	-0.073
-421.515	199.009	-0.074	0.114
-420.500	446.220	-0.107	0.235
-419.486	745.244	0.103	0.277
-418.471	-57.462	-0.175	-0.077
-417.457	-72.166	-0.217	-0.081
-416.442	28.274	-0.227	-0.192
-415.428	497.107	-0.056	0.130
-414.413	-103.241	0.253	-0.060
-413.398	-200.000	0.002	0.343
-412.384	-200.000	-0.047	0.240
-411.369	-61.820	0.145	-0.061
-410.355	35.941	-0.280	-0.246
-409.340	-103.037	-0.055	0.013
-408.325	317.460	0.095	0.179
-407.311	75.822	-0.228	0.241
-406.296	800.000	-0.004	-0.014
-405.282	-24.494	0.115	-0.069
-404.267	-200.000	-0.045	0.228
-403.252	-99.761	-0.135	0.034
-402.238	-82.040	0.163	-0.053
-401.223	17.644	-0.031	-0.025
-400.209	374.795	0.049	-0.099
-399.194	800.000	-0.070	-0.305
-398.179	-128.070	0.257	-0.037
-397.165	-115.393	-0.214	0.040
-396.150	-200.000	-0.011	0.147
-395.136	302.299	-0.064	-0.118
-394.121	-75.972	-0.155	0.055
-393.106	635.600	-0.085	-0.216
-392.092	-110.600	-0.620	0.128
-391.077	-200.000	-0.025	-0.146
-390.063	-47.658	-0.263	0.128
-389.048	-72.122	-0.050	0.019
-388.033	231.361	-0.095	-0.156
-387.019	136.006	-0.055	0.071
-386.004	8.850	-0.400	-0.301
-384.990	-140.727	-0.090	0.009
-383.975	-80.199	0.276	0.092
-382.960	398.395	-0.157	-0.329
-381.946	-70.854	-0.155	0.058
-380.931	-134.248	-0.205	-0.025
-379.917	800.000	-0.127	0.470
-378.902	-200.000	0.016	-0.148
-377.888	215.367	0.055	0.087
-376.873	800.000	0.046	-0.172
-375.858	-95.206	0.208	-0.056
-374.844	46.368	-0.334	0.309
-373.829	225.473	-0.062	-0.101
-372.815	271.113	-0.048	-0.085
-371.800	214.929	-0.061	-0.097
-370.785	-20.612	0.196	-0.120
-369.771	-200.000	-0.011	0.162
-368.756	800.000	-0.074	-0.275
-367.742	487.883	-0.036	-0.083
-366.727	-200.000	-0.020	-0.353
-365.712	72.479	0.088	0.091
-364.698	-200.000	-0.010	-0.174
-363.683	70.715	-0.121	-0.125
-362.669	785.632	0.100	-0.273
-361.654	-200.000	-0.023	0.134
-360.639	632.321	0.021	0.054
-359.625	-1.838	-0.122	-0.086
-358.610	-35.953	-0.107	-0.058
-357.596	42.390	0.340	0.309
-356.581	-122.055	-0.158	-0.026
-355.566	-200.000	-0.068	-0.331
-354.552	-200.000	-0.007	-0.062
-353.537	-43.513	0.253	-0.128
-352.523	-46.942	0.403	-0.196
-351.508	-172.299	-0.237	-0.008
-350.493	-200.000	0.043	-0.207
-349.479	-108.687	0.262	0.056
-348.464	-19.460	-0.256	0.158
-347.450	-134.285	0.117	-0.014
-346.435	108.989	-0.201	0.240
-345.420	-99.389	-0.071	0.018
-344.406	-200.000	0.022	0.100
-343.391	-200.000	-0.024	0.494
-342.377	-72.562	-0.080	0.030
-341.362	-200.000	0.019	0.149
-340.348	-52.726	-0.349	-0.161
-339.333	736.750	0.106	0.283
-338.318	-94.348	-0.192	0.052
-337.304	-70.067	0.121	0.046
-336.289	-173.080	0.030	-0.001
-335.275	-200.000	0.004	-0.326
-334.260	-200.000	0.013	-0.341
-333.245	50.292	0.208	0.196
-332.231	800.000	0.049	0.149
-331.216	800.000	0.068	0.241
-330.202	-21.801	-0.401	0.244
-329.187	-0.966	-0.437	-0.308
-328.172	-97.763	-0.211	0.054
-327.158	800.000	0.108	0.360
-326.143	-200.000	0.044	0.296
-325.129	-4.156	0.072	0.049
-324.114	-90.111	-0.215	0.063
-323.099	-200.000	-0.015	0.430
-322.085	-102.183	-0.181	-0.043
-321.070	97.400	-0.139	0.159
-320.056	346.505	0.104	-0.205
-319.041	-105.575	-0.261	0.059
-318.026	277.895	-0.075	-0.133
-317.012	-57.106	-0.283	-0.124
-315.997	-3.150	0.239	-0.166
-314.983	114.982	-0.352	0.428
-313.968	123.137	0.192	0.240
-312.953	172.872	-0.140	-0.201
-311.939	31.209	-0.297	0.254
-310.924	800.000	-0.079	-0.341
-309.910	275.214	-0.119	-0.210
-308.895	-200.000	-0.006	-0.243
-307.880	800.000	0.015	0.056
-306.866	-200.000	-0.012	-0.129
-305.851	-106.034	-0.311	0.070
-304.837	22.972	-0.206	-0.169
-303.822	-143.154	0.361	0.035
-302.807	195.420	-0.265	-0.401
-301.793	-63.323	-0.140	-0.057
-300.778	-81.865	0.317	-0.103
-299.764	-200.000	-0.009	-0.066
-298.749	800.000	-0.047	0.166
-297.735	-71.335	-0.211	0.079
-296.720	800.000	-0.023	-0.083
-295.705	182.964	-0.026	0.039
-294.691	174.086	0.168	-0.241
-293.676	-200.000	0.005	-0.152
-292.662	37.496	-0.199	-0.176
-291.647	778.716	0.006	-0.016
-290.632	97.760	0.216	0.247
-289.618	87.367	-0.120	0.132
-288.603	800.000	0.087	0.325
-287.589	-170.713	0.215	0.007
-286.574	-135.167	-0.068	-0.008
-285.559	-57.243	0.276	0.121
-284.545	-128.239	-0.182	0.026
-283.530	-26.807	0.331	-0.193
-282.516	-200.000	0.017	0.078
-281.501	-45.756	-0.062	0.031
-280.486	-91.533	-0.153	-0.043
-279.472	-75.650	-0.317	0.112
-278.457	-57.014	-0.175	0.077
-277.443	53.335	0.224	-0.214
-276.428	-97.460	-0.327	0.085
-275.413	62.545	0.068	-0.067
-274.399	12.691	-0.255	-0.196
-273.384	-175.937	0.212	0.006
-272.370	-51.860	0.346	-0.160
-271.355	478.043	0.030	-0.069
-270.340	216.143	0.060	-0.095
-269.326	100.852	0.178	0.206
-268.311	-64.904	-0.276	0.111
-267.297	121.143	0.287	0.356
-266.282	-200.000	0.026	-0.279
-265.267	-112.291	0.268	0.053
-264.253	-200.000	0.076	-0.359
-263.238	-127.494	0.071	-0.010
-262.224	-99.702	0.368	0.092
-261.209	6.075	0.099	-0.073
-260.195	-12.686	0.149	-0.096
-259.180	181.394	0.051	-0.075
-258.165	37.107	-0.141	-0.124
-257.151	-95.955	0.235	0.062
-256.136	680.642	0.077	-0.199
-255.122	-13.339	0.382	0.246
-254.107	-143.916	0.311	0.029
-253.092	-121.402	0.156	-0.026
-252.078	-114.355	-0.115	-0.022
-251.063	53.029	-0.198	0.189
-250.049	-200.000	-0.056	0.367
-249.034	-200.000	-0.004	-0.081
-248.019	22.276	-0.107	-0.087
-247.005	163.301	0.259	-0.362
-245.990	-62.638	0.313	0.129
-244.976	126.390	0.139	0.174
-243.961	-138.678	0.135	-0.015
-242.946	201.471	0.109	0.167
-241.932	-61.964	0.231	-0.096
-240.917	205.769	-0.222	-0.343
-239.903	18.442	-0.196	0.155
-238.888	526.238	-0.128	0.299
-237.873	92.806	-0.240	0.270
-236.859	-111.150	0.080	0.016
-235.844	156.317	-0.014	0.020
-234.830	-13.650	-0.370	-0.238
-233.815	800.000	-0.055	0.239
-232.800	-200.000	0.006	-0.073
-231.786	-35.915	-0.251	-0.135
-230.771	-81.818	0.089	-0.029
-229.757	-34.228	0.173	0.094
-228.742	55.805	-0.219	0.211
-227.727	57.680	-0.246	-0.239
-226.713	247.286	-0.052	0.088
-225.698	-149.170	0.110	-0.009
-224.684	-27.016	0.224	0.130
-223.669	53.381	0.210	0.199
-222.655	-40.645	-0.227	-0.117
-221.640	10.152	0.126	-0.095
-220.625	800.000	-0.106	0.336
-219.611	143.924	0.169	-0.223
-218.596	-200.000	-0.029	-0.133
-217.582	109.625	-0.137	0.163
-216.567	-200.000	0.012	0.259
-215.552	-9.840	-0.162	-0.107
-214.538	-135.847	0.280	-0.033
-213.523	-200.000	-0.005	0.108
-212.509	-195.495	-0.206	-0.002
-211.494	7.327	0.157	-0.117
-210.479	800.000	-0.053	0.191
-209.465	-100.150	0.275	0.068
-208.450	800.000	0.076	0.252
-207.436	-76.290	0.200	0.070
-206.421	33.592	-0.208	-0.179
-205.406	582.103	-0.094	-0.229
-204.392	-200.000	0.058	-0.321
-203.377	-107.731	0.265	0.057
-202.363	-200.000	-0.011	-0.050
-201.348	-77.015	0.283	-0.098
-200.333	-120.392	0.239	0.040
-199.319	-30.049	-0.030	-0.017
-198.304	800.000	-0.023	-0.072
-197.290	102.352	-0.083	0.096
-196.275	274.162	-0.074	-0.131
-195.260	-44.301	0.097	0.048
-194.246	-134.885	0.005	-0.001
-193.231	-200.000	0.069	-0.469
-192.217	-200.000	0.039	0.243
-191.202	-200.000	-0.076	-0.565
-190.187	800.000	0.111	-0.316
-189.173	81.756	0.182	-0.196
-188.158	800.000	-0.058	0.233
-187.144	-32.912	0.094	-0.052
-186.129	-16.347	0.157	-0.099
-185.114	45.105	-0.130	-0.119
-184.100	291.239	-0.168	-0.304
-183.085	800.000	0.031	0.101
-182.071	44.362	0.038	0.034
-181.056	-155.048	-0.201	-0.013
-180.042	59.448	0.110	0.107
-179.027	800.000	-0.089	-0.321
-178.012	-200.000	0.003	0.215
-176.998	-64.770	0.112	-0.045
-175.983	-186.465	0.096	-0.001
-174.969	-7.108	-0.084	0.057
-173.954	-54.930	-0.140	-0.063
-172.939	556.313	-0.062	-0.149
-171.925	713.437	-0.056	-0.148
-170.910	-200.000	-0.008	0.088
-169.896	-200.000	0.005	-0.087
-168.881	228.425	0.198	0.319
-167.866	277.962	-0.170	0.299
-166.852	114.808	0.143	-0.172
-165.837	139.792	-0.027	0.035
-164.823	-86.769	0.357	0.108
-163.808	-77.050	-0.032	-0.011
-162.793	-70.230	0.102	-0.038
-161.779	21.509	0.226	-0.182
-160.764	-92.803	-0.288	-0.080
-159.750	800.000	0.077	0.304
-158.735	-161.578	-0.250	0.013
-157.720	37.151	0.270	0.237
-156.706	-200.000	-0.002	-0.086
-155.691	-5.052	-0.310	-0.211
-154.677	-108.778	0.394	-0.083
-153.662	37.293	-0.035	0.030
-152.647	13.892	0.062	0.048
-151.633	95.944	0.136	0.153
-150.618	-200.000	0.015	0.287
-149.604	-137.091	-0.098	-0.011
-148.589	226.962	-0.091	-0.147
-147.574	411.453	-0.018	0.037
-146.560	-162.013	-0.318	-0.016
-145.545	-200.000	-0.015	0.313
-144.531	243.423	0.182	0.303
-143.516	-200.000	0.075	0.330
-142.502	59.699	0.119	0.116
-141.487	-0.973	0.264	0.185
-140.472	227.797	0.038	0.062
-139.458	-138.155	0.348	0.038
-138.443	62.187	0.211	0.209
-137.429	-200.000	-0.030	0.371
-136.414	407.916	0.129	-0.271
-135.399	246.088	-0.174	0.290
-134.385	-169.222	0.130	-0.005
-133.370	800.000	-0.028	0.111
-132.356	180.859	-0.302	0.439
-131.341	-91.870	0.202	-0.057
-130.326	-2.956	-0.154	-0.106
-129.312	-124.155	-0.142	0.022
-128.297	39.332	-0.075	-0.066
-127.283	312.974	0.121	-0.226
-126.268	-155.356	0.199	-0.013
-125.253	800.000	0.115	0.363
-124.239	-51.610	0.314	0.145
-123.224	-65.948	0.111	-0.044
-122.210	22.059	0.021	-0.017
-121.195	262.291	-0.055	0.094
-120.180	498.140	-0.091	0.207
-119.166	35.020	-0.062	-0.054
-118.151	800.000	0.037	0.132
-117.137	-183.028	-0.277	0.005
-116.122	94.688	0.204	0.229
-115.107	92.835	0.194	0.217
-114.093	16.220	0.196	0.153
-113.078	19.154	-0.417	0.331
-112.064	64.295	0.152	-0.152
-111.049	104.530	-0.185	-0.216
-110.034	-32.250	0.288	0.159
-109.020	444.323	0.015	-0.032
-108.005	516.454	-0.080	-0.186
-106.991	-66.769	0.236	0.092
-105.976	11.095	0.100	-0.075
-104.962	25.121	-0.153	0.125
-103.947	-56.003	-0.247	-0.109
-102.932	-37.315	-0.111	0.059
-101.918	192.620	-0.068	-0.101
-100.903	52.661	-0.236	0.223
-99.889	8.027	0.410	-0.304
-98.874	-4.943	0.267	-0.182
-97.859	238.364	0.137	0.225
-96.845	-193.272	-0.356	0.003
-95.830	91.534	0.136	0.151
-94.816	57.572	-0.114	-0.110
-93.801	-70.470	-0.215	0.080
-92.786	29.875	-0.222	0.187
-91.772	800.000	-0.078	-0.249
-90.757	559.316	-0.096	-0.230
-89.743	-196.226	0.106	0.001
-88.728	-0.985	-0.251	-0.176
-87.713	-69.363	0.353	0.134
-86.699	-2.308	-0.180	0.125
-85.684	103.356	0.088	-0.101
-84.670	105.293	-0.191	0.223
-83.655	800.000	-0.066	0.239
-82.640	-132.105	-0.082	-0.011
-81.626	-143.107	0.285	-0.027
-80.611	800.000	-0.020	-0.062
-79.597	277.867	-0.103	-0.182
-78.582	667.430	0.082	-0.209
-77.567	71.843	0.222	0.228
-76.553	-200.000	0.032	0.225
-75.538	-113.849	-0.149	-0.029
-74.524	-147.396	-0.104	0.009
-73.509	80.538	-0.128	0.137
-72.494	415.346	-0.172	0.361
-71.480	800.000	0.043	-0.184
-70.465	-178.951	-0.154	-0.003
-69.451	3.712	0.147	0.106
-68.436	196.992	-0.113	0.170
-67.422	-7.068	-0.105	0.071
-66.407	-200.000	0.045	0.508
-65.392	89.160	0.181	-0.199
-64.378	45.549	-0.108	0.099
-63.363	-47.921	0.035	0.017
-62.349	221.575	-0.333	0.528
-61.334	-3.830	-1.291	-0.884
-60.319	25.154	0.529	0.433
-59.305	485.671	-0.416	-0.937
-58.290	189.045	0.988	1.461
-57.276	251.719	0.709	1.191
-56.261	-200.000	104.771	589.003
-55.246	540.808	1448.505	3404.304
-54.232	182.636	2641.376	3844.696
-53.217	104.770	2306.677	2682.765
-52.203	36.677	2059.595	1794.877
-51.188	31.930	1975.662	1679.290
-50.173	30.433	1958.686	1651.495
-49.159	45.966	2013.722	1838.430
-48.144	46.559	2031.450	1859.898
-47.130	32.484	1989.839	1696.059
-46.115	30.240	1979.425	1666.980
-45.100	30.191	1976.396	1663.923
-44.086	30.195	1973.401	1661.373
-43.071	30.004	1971.829	1658.267
-42.057	30.017	1969.644	1656.486
-41.042	30.010	1968.230	1655.170
-40.027	29.969	1966.189	1653.022
-39.013	30.057	1964.008	1651.906
-37.998	30.141	1962.084	1650.968
-36.984	30.088	1960.074	1648.736
-35.969	30.152	1957.857	1647.382
-34.954	30.183	1956.567	1646.506
-33.940	30.136	1955.457	1645.090
-32.925	30.235	1953.656	1644.384
-31.911	30.183	1951.976	1642.447
-30.896	30.137	1950.178	1640.462
-29.881	30.192	1949.020	1639.902
-28.867	30.276	1947.607	1639.390
-27.852	30.260	1945.520	1637.430
-26.838	30.199	1943.439	1635.076
-25.823	30.260	1941.846	1634.207
-24.809	30.175	1939.787	1631.660
-23.794	30.185	1938.651	1630.733
-22.779	30.275	1936.456	1629.613
-21.765	30.210	1935.343	1628.036
-20.750	30.197	1933.439	1626.259
-19.736	30.206	1931.918	1624.994
-18.721	30.218	1929.657	1623.132
-17.706	30.129	1929.013	1621.743
-16.692	30.225	1926.956	1620.795
-15.677	30.193	1925.296	1619.051
-14.663	30.236	1923.755	1618.066
-13.648	30.293	1922.548	1617.487
-12.633	30.242	1921.318	1615.941
-11.619	30.188	1920.341	1614.582
-10.604	30.168	1918.229	1612.571
-9.590	30.215	1917.071	1611.941
-8.575	30.087	1916.517	1610.302
-7.560	30.245	1914.563	1609.971
-6.546	30.148	1913.702	1608.336
-5.531	30.272	1911.888	1607.823
-4.517	30.257	1910.922	1606.822
-3.502	30.175	1909.967	1605.243
-2.487	30.179	1908.535	1604.006
-1.473	30.241	1907.533	1603.642
-0.458	30.233	1903.213	1599.878
0.556	31.848	1882.854	1571.457
1.571	27.391	1864.201	1518.665
2.586	23.271	1885.534	1501.060
3.600	22.095	1920.592	1518.672
4.615	21.573	1915.018	1509.632
5.629	16.868	1816.043	1392.909
6.644	8.383	1699.465	1237.875
7.659	4.025	1663.981	1178.798
8.673	3.671	1660.485	1173.524
9.688	3.759	1659.150	1173.146
10.702	3.801	1658.069	1172.597
11.717	3.709	1654.372	1169.181
12.731	4.238	1653.645	1172.567
13.746	9.967	1667.307	1225.728
14.761	18.992	1686.773	1308.913
15.775	23.666	1695.298	1351.072
16.790	24.288	1694.844	1355.318
17.804	23.559	1692.546	1347.829
18.819	22.877	1690.299	1340.740
19.834	22.454	1688.716	1336.161
20.848	22.455	1687.603	1335.166
21.863	22.533	1686.476	1334.750
22.877	22.471	1685.559	1333.438
23.892	22.431	1684.120	1331.873
24.907	22.336	1683.448	1330.511
25.921	22.332	1681.907	1329.140
26.936	22.177	1681.366	1327.423
27.950	22.234	1680.244	1326.855
28.965	22.313	1679.582	1326.807
29.980	22.301	1679.170	1326.274
30.994	22.402	1678.113	1326.082
32.009	22.523	1677.126	1326.095
33.023	22.639	1675.968	1325.940
34.038	22.614	1675.479	1325.246
35.053	22.552	1674.349	1323.768
36.067	22.431	1673.017	1321.688
37.082	22.381	1671.936	1320.347
38.096	22.369	1671.233	1319.580
39.111	22.368	1670.200	1318.639
40.126	22.424	1669.409	1318.320
41.140	22.443	1668.848	1317.907
42.155	22.216	1667.151	1314.747
43.169	21.972	1665.172	1311.246
44.184	21.806	1664.224	1309.147
45.199	21.748	1663.168	1307.764
46.213	21.846	1662.027	1307.485
47.228	21.989	1661.009	1307.636
48.242	22.117	1660.840	1308.337
49.257	22.345	1659.159	1308.592
50.271	22.298	1658.062	1307.262
51.286	22.286	1657.118	1306.314
52.301	22.283	1655.896	1305.218
53.315	22.270	1654.272	1303.724
54.330	22.195	1652.658	1301.780
55.344	22.068	1651.149	1299.539
56.359	22.026	1649.379	1297.714
57.374	21.924	1648.029	1295.788
58.388	21.906	1647.486	1295.112
59.403	21.873	1646.190	1293.737
60.417	21.756	1644.840	1291.699
61.432	21.665	1643.345	1289.743
62.447	21.577	1642.671	1288.451
63.461	21.540	1641.301	1286.990
64.476	21.546	1640.456	1286.255
65.490	21.527	1639.481	1285.238
66.505	21.560	1637.794	1284.047
67.520	21.452	1637.073	1282.573
68.534	21.509	1636.261	1282.244
69.549	21.547	1635.110	1281.508
70.563	21.428	1633.826	1279.517
71.578	21.442	1632.147	1278.190
72.593	21.340	1631.627	1276.925
73.607	21.232	1630.293	1274.976
74.622	21.234	1628.702	1273.631
75.636	21.183	1628.828	1273.249
76.651	21.291	1627.989	1273.268
77.666	21.277	1627.007	1272.286
78.680	21.482	1625.714	1272.656
79.695	21.407	1625.307	1271.673
80.709	21.432	1624.303	1270.961
81.724	21.616	1623.905	1271.876
82.739	21.810	1623.742	1273.044
83.753	21.765	1622.709	1271.788
84.768	21.942	1622.272	1272.621
85.782	22.221	1622.066	1274.369
86.797	22.548	1620.778	1275.612
87.812	22.572	1620.322	1275.311
88.826	22.561	1619.259	1274.289
89.841	22.365	1618.254	1271.962
90.855	22.387	1617.003	1271.028
91.870	22.425	1616.087	1270.472
92.884	22.535	1615.247	1270.490
93.899	22.635	1614.446	1270.467
94.914	22.681	1613.253	1269.751
95.928	22.639	1612.172	1268.482
96.943	22.635	1611.104	1267.502
97.957	22.567	1609.868	1265.931
98.972	22.507	1608.476	1264.290
99.987	22.540	1606.749	1263.059
101.001	22.485	1605.299	1261.410
102.016	22.559	1603.674	1260.554
103.030	22.467	1602.998	1259.250
104.045	22.441	1601.630	1257.880
105.060	22.492	1599.957	1256.822
106.074	22.354	1598.457	1254.548
107.089	22.081	1596.416	1250.891
108.103	21.808	1594.458	1247.301
109.118	21.533	1593.321	1244.350
110.133	21.457	1591.347	1242.158
111.147	21.389	1589.959	1240.479
112.162	21.418	1588.804	1239.675
113.176	21.571	1587.765	1239.839
114.191	21.644	1586.605	1239.343
115.206	21.695	1585.595	1238.800
116.220	21.708	1584.283	1237.763
117.235	21.760	1583.083	1237.076
118.249	21.636	1581.832	1235.122
119.264	21.631	1580.869	1234.219
120.279	21.438	1578.915	1231.232
121.293	21.358	1578.030	1229.867
122.308	21.373	1576.268	1228.489
123.322	21.323	1574.294	1226.494
124.337	21.083	1572.777	1223.517
125.352	21.080	1571.599	1222.472
126.366	21.090	1570.615	1221.666
127.381	21.132	1569.667	1221.117
128.395	21.041	1568.717	1219.638
129.410	21.058	1566.929	1218.258
130.424	20.969	1565.612	1216.506
131.439	20.953	1564.906	1215.734
132.454	21.156	1563.464	1215.919
133.468	21.415	1562.857	1217.142
134.483	21.644	1561.545	1217.608
135.497	21.661	1560.116	1216.507
136.512	21.615	1558.777	1215.034
137.527	21.650	1557.625	1214.271
138.541	21.607	1556.481	1212.976
139.556	21.684	1555.296	1212.475
140.570	21.794	1554.295	1212.350
141.585	21.920	1552.982	1212.090
142.600	22.046	1552.552	1212.516
143.614	22.156	1551.186	1212.101
144.629	22.338	1550.553	1212.749
145.643	22.546	1549.370	1213.150
146.658	22.501	1547.960	1211.631
147.673	22.353	1546.450	1209.327
148.687	22.085	1545.229	1206.419
149.702	21.879	1543.940	1203.895
150.716	21.908	1541.883	1202.383
151.731	21.748	1540.467	1200.080
152.746	21.673	1538.591	1198.000
153.760	21.568	1537.437	1196.272
154.775	21.622	1536.978	1196.180
155.789	21.912	1535.608	1196.987
156.804	22.039	1534.998	1197.276
157.819	21.970	1533.997	1195.913
158.833	22.116	1532.807	1195.878
159.848	22.234	1532.021	1195.960
160.862	22.290	1531.322	1195.691
161.877	22.254	1530.347	1194.576
162.892	22.190	1528.689	1192.741
163.906	21.804	1526.207	1188.083
164.921	21.537	1525.073	1185.287
165.935	21.486	1523.980	1183.988
166.950	21.422	1523.803	1183.314
167.964	21.709	1522.625	1184.232
168.979	21.843	1521.631	1184.259
169.994	21.857	1520.585	1183.435
171.008	21.722	1519.922	1181.909
172.023	21.737	1518.628	1180.897
173.037	21.677	1517.913	1179.832
174.052	21.963	1517.286	1181.166
175.067	22.186	1516.427	1181.892
176.081	22.014	1514.860	1179.409
177.096	21.650	1513.299	1175.652
178.110	21.458	1511.326	1172.724
179.125	21.514	1510.550	1172.396
180.140	21.587	1509.628	1172.064
181.154	21.781	1508.765	1172.585
182.169	21.993	1508.647	1173.808
183.183	22.167	1507.493	1173.970
184.198	22.113	1506.979	1173.104
185.213	22.236	1506.249	1173.254
186.227	22.190	1505.365	1172.156
187.242	22.183	1503.618	1170.647
188.256	22.342	1502.795	1170.955
189.271	22.489	1502.037	1171.244
190.286	22.419	1501.581	1170.314
191.300	22.444	1500.761	1169.743
192.315	22.130	1499.324	1166.432
193.329	21.794	1496.923	1162.232
194.344	21.734	1495.735	1160.815
195.359	21.722	1495.339	1160.320
196.373	21.671	1493.864	1158.740
197.388	21.619	1493.371	1157.910
198.402	21.697	1492.158	1157.379
199.417	21.951	1491.798	1158.676
200.432	22.256	1491.439	1160.310
201.446	22.557	1491.319	1162.101
202.461	22.696	1490.036	1161.914
203.475	22.649	1489.369	1160.976
204.490	22.749	1488.620	1160.947
205.504	22.560	1486.794	1158.180
206.519	22.211	1485.466	1154.755
207.534	22.091	1483.614	1152.421
208.548	21.937	1482.923	1150.774
209.563	21.900	1481.746	1149.519
210.577	21.903	1480.946	1148.815
211.592	21.974	1480.123	1148.536
212.607	21.998	1479.487	1148.098
213.621	22.204	1479.582	1149.421
214.636	22.515	1478.891	1150.811
215.650	22.347	1477.535	1148.561
216.665	22.311	1476.366	1147.312
217.680	22.311	1476.268	1147.138
218.694	22.594	1475.829	1148.537
219.709	22.750	1475.101	1148.886
220.723	22.745	1474.113	1147.979
221.738	22.611	1473.082	1146.208
222.753	22.523	1471.903	1144.617
223.767	22.473	1471.264	1143.694
224.782	22.315	1469.765	1141.402
225.796	22.435	1469.043	1141.517
226.811	22.679	1469.012	1142.973
227.826	22.828	1468.006	1143.056
228.840	22.600	1466.952	1140.661
229.855	22.514	1465.478	1138.857
230.869	22.350	1464.660	1137.059
231.884	22.222	1463.834	1135.491
232.899	22.216	1462.423	1134.259
233.913	22.155	1460.908	1132.589
234.928	21.871	1459.597	1129.642
235.942	21.954	1458.119	1128.931
236.957	21.861	1456.883	1127.276
237.972	21.784	1455.769	1125.822
238.986	21.690	1454.513	1124.149
240.001	21.781	1453.981	1124.223
241.015	21.958	1452.455	1124.076
242.030	21.837	1451.709	1122.627
243.045	21.947	1450.829	1122.549
244.059	22.167	1450.252	1123.408
245.074	22.240	1449.873	1123.483
246.088	22.234	1449.824	1123.307
247.103	22.335	1448.387	1122.741
248.117	22.416	1447.880	1122.762
249.132	22.600	1447.247	1123.346
250.147	22.715	1447.266	1123.992
251.161	23.115	1446.954	1126.202
252.176	23.305	1447.034	1127.368
253.190	23.500	1446.134	1127.807
254.205	23.540	1445.283	1127.304
255.220	23.570	1444.656	1126.905
256.234	23.642	1443.517	1126.373
257.249	23.673	1443.251	1126.259
258.263	23.568	1442.346	1124.789
259.278	23.542	1441.297	1123.711
260.293	23.494	1439.935	1122.241
261.307	23.477	1439.049	1121.347
262.322	23.498	1438.748	1121.146
263.336	23.575	1438.373	1121.236
264.351	23.646	1437.224	1120.690
265.366	23.544	1436.687	1119.529
266.380	23.642	1435.167	1118.868
267.395	23.577	1434.141	1117.557
268.409	23.666	1433.633	1117.625
269.424	23.460	1432.301	1115.188
270.439	23.357	1430.764	1113.246
271.453	23.323	1430.054	1112.384
272.468	23.362	1428.815	1111.563
273.482	23.191	1427.914	1109.695
274.497	22.998	1427.274	1107.890
275.512	22.924	1426.261	1106.543
276.526	22.866	1425.686	1105.631
277.541	22.951	1424.758	1105.347
278.555	23.002	1423.589	1104.659
279.570	23.080	1422.862	1104.484
280.585	23.192	1422.578	1104.870
281.599	23.488	1421.768	1105.988
282.614	23.516	1421.179	1105.606
283.628	23.442	1419.956	1104.095
284.643	23.200	1418.348	1101.240
285.657	23.153	1417.217	1099.977
286.672	23.055	1416.236	1098.505
287.687	23.112	1415.392	1098.107
288.701	23.131	1414.523	1097.456
289.716	23.151	1414.089	1097.144
290.730	23.211	1413.099	1096.650
291.745	23.165	1412.006	1095.423
292.760	23.123	1411.451	1094.635
293.774	23.243	1409.973	1094.134
294.789	23.270	1409.146	1093.563
295.803	23.447	1408.991	1094.435
296.818	23.504	1408.663	1094.435
297.833	23.375	1407.215	1092.420
298.847	23.261	1405.722	1090.462
299.862	23.055	1405.265	1088.746
300.876	23.131	1403.903	1088.062
301.891	23.150	1403.037	1087.406
302.906	23.256	1402.142	1087.273
303.920	23.367	1402.280	1087.964
304.935	23.669	1401.538	1089.144
305.949	23.741	1401.127	1089.171
306.964	23.835	1400.657	1089.281
307.979	23.899	1399.626	1088.778
308.993	23.747	1398.674	1087.007
310.008	23.668	1397.363	1085.415
311.022	23.620	1396.151	1084.080
312.037	23.645	1395.532	1083.659
313.052	23.752	1394.599	1083.488
314.066	23.686	1393.502	1082.140
315.081	23.439	1391.624	1079.083
316.095	23.172	1390.746	1076.679
317.110	22.909	1389.090	1073.704
318.125	22.978	1387.870	1073.086
319.139	23.028	1387.271	1072.830
320.154	22.925	1386.706	1071.674
321.168	23.058	1385.578	1071.512
322.183	23.031	1384.801	1070.656
323.197	23.056	1383.833	1069.961
324.212	22.980	1382.959	1068.735
325.227	23.112	1382.136	1068.804
326.241	23.103	1381.755	1068.360
327.256	23.169	1380.762	1067.895
328.270	23.169	1379.555	1066.865
329.285	23.120	1378.684	1065.800
330.300	23.049	1377.567	1064.414
331.314	23.182	1376.892	1064.603
332.329	23.117	1376.563	1063.863
333.343	23.085	1375.285	1062.586
334.358	23.159	1374.347	1062.213
335.373	23.228	1373.797	1062.110
336.387	23.489	1373.285	1063.183
337.402	23.553	1372.638	1062.973
338.416	23.604	1372.651	1063.193
339.431	23.622	1372.223	1062.873
340.446	23.769	1371.570	1063.153
341.460	23.816	1370.631	1062.615
342.475	24.033	1370.082	1063.389
343.489	24.122	1369.547	1063.411
344.504	24.292	1368.330	1063.388
345.519	24.247	1367.760	1062.582
346.533	24.282	1367.211	1062.274
347.548	24.382	1366.121	1061.924
348.562	24.424	1365.568	1061.649
349.577	24.505	1364.471	1061.189
350.592	24.202	1363.256	1058.346
351.606	23.869	1361.640	1055.027
352.621	23.671	1360.014	1052.498
353.635	23.586	1358.922	1051.053
354.650	23.424	1357.875	1049.194
355.665	23.415	1356.861	1048.264
356.679	23.480	1355.748	1047.699
357.694	23.633	1354.952	1047.894
358.708	23.664	1354.299	1047.477
359.723	23.723	1353.575	1047.175
360.738	23.846	1352.491	1046.964
361.752	23.911	1351.127	1046.197
362.767	23.782	1350.388	1044.778
363.781	23.893	1349.341	1044.525
364.796	23.883	1348.692	1043.871
365.810	23.847	1348.398	1043.339
366.825	24.078	1348.396	1044.604
367.840	24.475	1347.253	1045.951
368.854	24.528	1346.867	1045.867
369.869	24.679	1346.492	1046.368
370.883	24.771	1345.740	1046.232
371.898	24.534	1345.348	1044.448
372.913	24.496	1343.694	1042.847
373.927	24.273	1342.636	1040.633
374.942	24.176	1342.096	1039.558
375.956	24.418	1341.506	1040.417
376.971	24.576	1340.965	1040.830
377.986	24.444	1339.876	1039.121
379.000	24.274	1339.352	1037.636
380.015	24.514	1338.742	1038.469
381.029	24.652	1338.381	1038.897
382.044	24.755	1337.468	1038.692
383.059	24.727	1336.786	1037.911
384.073	24.728	1335.980	1037.198
385.088	24.734	1335.155	1036.504
386.102	24.641	1334.799	1035.593
387.117	24.747	1333.733	1035.287
388.132	24.612	1332.913	1033.778
389.146	24.229	1331.729	1030.555
390.161	24.135	1330.859	1029.251
391.175	24.099	1329.953	1028.246
392.190	24.050	1329.399	1027.448
393.205	24.180	1328.314	1027.266
394.219	24.402	1327.617	1027.918
395.234	24.574	1326.507	1027.956
396.248	24.464	1324.987	1026.054
397.263	24.215	1323.927	1023.711
398.278	24.173	1322.350	1022.160
399.292	24.087	1320.973	1020.515
400.307	24.150	1319.819	1019.891
401.321	23.986	1319.353	1018.506
402.336	23.950	1318.026	1017.185
403.350	23.842	1316.775	1015.511
404.365	23.745	1315.861	1014.164
405.380	23.832	1315.152	1014.022
406.394	24.105	1314.593	1015.056
407.409	24.142	1314.234	1014.903
408.423	24.156	1313.922	1014.650
409.438	24.540	1313.521	1016.439
410.453	24.695	1312.987	1016.817
411.467	24.867	1312.151	1017.058
412.482	24.850	1311.530	1016.390
413.496	24.918	1311.083	1016.340
414.511	24.903	1310.379	1015.615
415.526	25.013	1309.762	1015.670
416.540	25.091	1309.176	1015.572
417.555	25.252	1308.606	1015.949
418.569	25.204	1308.257	1015.317
419.584	25.116	1307.604	1014.222
420.599	25.052	1306.484	1012.904
421.613	145.811	1435.595	1797.872
422.628	141.321	1454.357	1797.990
