DTS Sentinel unit serial number:	SN413079Multiplexer serial number:	ORYXHardware model number:	OX4-SRSoftware version number:	ORYX F/W v4.00 Oryx Data Collector v3.7.2.0data status	okinstallation	princeton_trtdifferential loss correction	single-endedforward channel	channel 4reverse channel	N/Adate	2019/09/11time	23:07:11forward acquisition time	60.00reverse acquisition time	0.00gamma	496.2192k internal	0.2308k external	0.2308temperature offset calibration	1.0080default loss term (dB/km)	0.3790temperature slope calibration	1.0000multiplexer offset coefficient	1.0000multiplexer slope coefficient	1.0000fibre end	0.00T internal ref (°C)	34.55T ext. ref 1 (°C)	1.86T ext. ref 2 (°C)	29.19length (m)	temperature (°C)	Stokes	anti-Stokes-747.200	-200.000	0.038	0.284
-746.185	43.100	0.108	0.100
-745.171	-200.000	-0.020	-0.230
-744.156	-200.000	0.002	-0.009
-743.142	-107.890	-0.355	0.078
-742.127	-147.026	0.286	-0.025
-741.112	-198.060	0.209	0.001
-740.098	-23.263	0.144	0.088
-739.083	282.120	-0.073	-0.133
-738.069	-81.013	0.130	-0.044
-737.054	-133.454	0.248	-0.032
-736.039	470.761	0.131	0.300
-735.025	307.388	0.106	-0.202
-734.010	83.739	-0.284	-0.315
-732.996	-200.000	0.010	0.044
-731.981	-200.000	0.025	0.122
-730.966	84.851	0.046	0.051
-729.952	-0.866	-0.322	-0.232
-728.937	-67.966	-0.328	-0.130
-727.923	-172.176	-0.044	-0.001
-726.908	209.062	0.227	-0.360
-725.894	82.714	0.223	-0.246
-724.879	-200.000	-0.046	0.286
-723.864	-200.000	0.003	0.252
-722.850	6.357	0.143	-0.108
-721.835	-200.000	0.052	-0.282
-720.821	-17.148	-0.312	0.200
-719.806	-118.745	-0.062	0.011
-718.791	800.000	0.084	0.271
-717.777	-134.654	0.482	0.060
-716.762	800.000	-0.053	-0.153
-715.748	-200.000	0.026	0.324
-714.733	66.947	-0.322	-0.333
-713.718	41.754	-0.227	-0.209
-712.704	-138.841	-0.171	-0.019
-711.689	391.153	-0.162	0.341
-710.675	84.910	0.178	0.198
-709.660	800.000	0.066	-0.202
-708.645	160.840	-0.103	-0.147
-707.631	157.054	-0.177	-0.249
-706.616	-200.000	0.036	0.188
-705.602	-81.960	0.151	-0.050
-704.587	369.690	0.070	-0.143
-703.572	712.547	0.054	-0.146
-702.558	632.511	0.067	0.173
-701.543	533.297	-0.135	0.324
-700.529	-9.814	0.326	-0.220
-699.514	-121.321	-0.109	0.018
-698.499	9.976	0.074	0.057
-697.485	-200.000	0.005	-0.133
-696.470	123.319	-0.094	-0.120
-695.456	-100.213	-0.201	0.051
-694.441	-139.455	-0.376	-0.041
-693.426	-95.731	0.295	0.080
-692.412	-200.000	-0.026	-0.328
-691.397	239.048	0.082	0.138
-690.383	-200.000	-0.088	0.395
-689.368	-59.371	0.117	0.051
-688.354	11.037	0.055	0.043
-687.339	311.561	-0.096	-0.183
-686.324	-200.000	-0.027	-0.253
-685.310	-51.586	-0.268	-0.127
-684.295	-23.625	0.206	-0.125
-683.281	-90.729	0.206	0.060
-682.266	736.799	0.066	-0.180
-681.251	67.998	0.065	0.067
-680.237	-2.104	-0.050	0.036
-679.222	39.106	0.376	0.341
-678.208	-200.000	-0.026	-0.143
-677.193	172.632	-0.014	0.021
-676.178	152.086	0.210	0.290
-675.164	-159.089	-0.159	0.009
-674.149	95.636	-0.150	-0.173
-673.135	-100.697	-0.129	-0.032
-672.120	-126.305	-0.161	0.024
-671.105	-3.520	0.095	0.067
-670.091	-200.000	-0.021	-0.446
-669.076	392.803	0.177	-0.374
-668.062	553.549	-0.076	0.186
-667.047	800.000	0.064	-0.276
-666.032	-40.435	-0.127	0.067
-665.018	800.000	0.078	0.229
-664.003	272.047	0.121	0.217
-662.989	-200.000	-0.040	0.236
-661.974	265.246	-0.216	-0.382
-660.959	390.069	-0.042	-0.088
-659.945	800.000	0.038	-0.166
-658.930	-31.198	0.474	-0.270
-657.916	-14.305	-0.186	-0.121
-656.901	-64.654	-0.315	-0.129
-655.886	87.621	-0.165	-0.185
-654.872	-70.420	-0.217	0.083
-653.857	-150.385	-0.136	0.011
-652.843	-200.000	0.003	0.273
-651.828	-200.000	-0.040	0.307
-650.814	-54.647	-0.232	0.106
-649.799	70.295	0.087	-0.091
-648.784	-62.199	0.212	0.090
-647.770	37.338	-0.232	-0.208
-646.755	-19.549	0.308	-0.193
-645.741	-66.905	-0.176	-0.070
-644.726	-58.741	0.418	-0.183
-643.711	800.000	0.113	-0.476
-642.697	-200.000	-0.002	-0.276
-641.682	-200.000	-0.026	-0.191
-640.668	-200.000	-0.048	0.353
-639.653	-25.126	0.185	0.111
-638.638	-185.920	0.096	-0.001
-637.624	-127.948	-0.402	-0.058
-636.609	-135.757	-0.075	0.009
-635.595	-91.147	-0.222	-0.064
-634.580	-99.944	0.124	-0.031
-633.565	86.957	-0.243	-0.272
-632.551	100.152	0.151	0.177
-631.536	118.746	-0.031	-0.039
-630.522	800.000	-0.066	0.222
-629.507	55.199	0.129	0.126
-628.492	-200.000	-0.003	0.129
-627.478	7.224	0.248	-0.187
-626.463	800.000	0.042	0.128
-625.449	23.706	-0.154	-0.128
-624.434	-94.370	-0.164	0.045
-623.419	-19.330	-0.143	0.090
-622.405	-200.000	0.030	-0.182
-621.390	-200.000	0.050	-0.266
-620.376	800.000	-0.045	-0.195
-619.361	-200.000	-0.019	-0.123
-618.346	-37.896	-0.135	-0.072
-617.332	-92.386	-0.112	-0.032
-616.317	-97.670	-0.128	-0.034
-615.303	-109.485	-0.261	0.056
-614.288	-65.782	-0.209	0.085
-613.273	88.910	-0.216	0.244
-612.259	-200.000	0.012	0.087
-611.244	296.176	-0.132	0.245
-610.230	21.485	-0.242	-0.199
-609.215	206.043	-0.043	0.067
-608.201	-53.393	-0.124	-0.058
-607.186	345.171	-0.182	0.361
-606.171	314.735	-0.072	-0.138
-605.157	-200.000	-0.022	0.104
-604.142	-151.083	0.216	-0.016
-603.128	26.396	-0.237	-0.200
-602.113	-200.000	-0.038	-0.327
-601.098	-54.967	0.228	-0.104
-600.084	100.603	0.075	-0.088
-599.069	-187.236	-0.091	0.001
-598.055	255.828	-0.207	-0.358
-597.040	744.506	-0.083	-0.226
-596.025	-200.000	-0.054	-0.239
-595.011	-34.439	-0.245	-0.135
-593.996	123.038	-0.100	-0.126
-592.982	-170.391	0.165	0.006
-591.967	-58.460	-0.193	0.084
-590.952	147.702	0.042	0.057
-589.938	-200.000	-0.025	0.183
-588.923	-25.874	-0.139	-0.083
-587.909	-15.931	0.161	0.104
-586.894	-25.754	-0.342	0.204
-585.879	800.000	0.153	0.444
-584.865	427.912	-0.062	0.135
-583.850	171.126	-0.080	0.117
-582.836	800.000	0.040	0.153
-581.821	-128.256	0.194	-0.028
-580.806	-50.190	0.267	-0.127
-579.792	-86.520	-0.229	0.071
-578.777	6.971	0.017	-0.013
-577.763	11.838	0.262	0.203
-576.748	24.959	-0.282	-0.236
-575.733	-200.000	-0.033	-0.267
-574.719	42.685	-0.254	0.234
-573.704	-74.846	0.197	-0.071
-572.690	800.000	0.130	0.475
-571.675	-0.333	0.167	-0.120
-570.661	60.534	-0.201	0.201
-569.646	-117.594	0.150	-0.027
-568.631	-148.841	0.292	0.024
-567.617	-94.600	-0.325	-0.089
-566.602	-20.899	-0.341	0.211
-565.588	-65.066	-0.141	0.057
-564.573	-200.000	0.039	-0.328
-563.558	322.905	0.064	-0.123
-562.544	-85.829	0.285	-0.089
-561.529	-97.095	0.250	-0.066
-560.515	-200.000	0.006	-0.093
-559.500	-135.248	0.321	-0.039
-558.485	-85.766	0.168	0.052
-557.471	481.473	-0.091	-0.209
-556.456	-122.177	-0.206	0.034
-555.442	301.400	0.121	-0.226
-554.427	-49.964	-0.016	-0.008
-553.412	-97.273	-0.322	-0.085
-552.398	-200.000	0.023	-0.127
-551.383	116.259	0.118	0.146
-550.369	99.473	0.156	0.183
-549.354	52.914	-0.128	-0.124
-548.339	-144.401	0.248	0.023
-547.325	-156.189	0.156	-0.010
-546.310	-200.000	-0.028	0.252
-545.296	236.674	-0.060	-0.100
-544.281	21.877	-0.330	0.272
-543.266	-200.000	0.019	-0.134
-542.252	-69.098	0.351	0.136
-541.237	-200.000	0.032	-0.185
-540.223	-69.749	-0.099	0.038
-539.208	122.753	0.101	-0.128
-538.193	-24.395	-0.054	-0.032
-537.179	286.048	0.097	-0.176
-536.164	-37.802	0.362	-0.194
-535.150	142.735	0.112	0.150
-534.135	3.119	0.098	-0.072
-533.121	-45.210	0.148	0.074
-532.106	-200.000	-0.012	-0.071
-531.091	89.266	0.123	0.139
-530.077	-16.230	0.056	-0.036
-529.062	43.780	0.255	0.235
-528.048	-103.817	0.107	-0.025
-527.033	345.734	-0.119	-0.235
-526.018	-138.510	-0.175	0.019
-525.004	-23.819	-0.102	0.062
-523.989	-171.455	0.064	0.002
-522.975	-112.411	-0.171	-0.035
-521.960	67.332	-0.190	-0.196
-520.945	-66.295	-0.279	0.112
-519.931	692.904	-0.130	-0.344
-518.916	-41.566	0.139	0.072
-517.902	-45.650	-0.166	-0.083
-516.887	100.917	-0.152	0.179
-515.872	152.293	0.223	0.307
-514.858	212.617	0.184	0.292
-513.843	459.725	-0.063	-0.142
-512.829	-26.127	-0.126	-0.075
-511.814	-200.000	0.008	-0.476
-510.799	45.890	0.176	-0.164
-509.785	-140.782	0.296	0.031
-508.770	800.000	0.021	0.064
-507.756	-149.719	0.170	-0.013
-506.741	-144.354	0.412	-0.039
-505.726	8.843	-0.160	-0.121
-504.712	728.434	0.041	-0.111
-503.697	25.181	-0.108	-0.090
-502.683	-200.000	0.020	-0.172
-501.668	-85.647	0.332	0.104
-500.653	74.981	0.103	-0.109
-499.639	-3.480	-0.116	-0.081
-498.624	-176.650	0.249	0.006
-497.610	800.000	0.058	0.162
-496.595	-200.000	-0.009	0.235
-495.581	144.838	-0.085	-0.114
-494.566	170.945	-0.011	0.017
-493.551	-60.279	0.018	0.008
-492.537	111.110	0.254	-0.308
-491.522	800.000	0.037	-0.162
-490.508	84.738	-0.084	0.093
-489.493	-17.657	0.127	0.080
-488.478	800.000	0.062	-0.231
-487.464	-143.413	-0.123	0.012
-486.449	744.917	-0.069	0.187
-485.435	43.554	-0.119	-0.110
-484.420	119.339	-0.189	-0.236
-483.405	28.495	-0.263	-0.224
-482.391	-53.366	-0.184	-0.085
-481.376	-43.142	0.297	-0.151
-480.362	-58.600	-0.298	0.130
-479.347	-84.062	0.448	0.143
-478.332	231.910	0.247	0.407
-477.318	72.331	-0.095	-0.100
-476.303	613.505	0.146	-0.368
-475.289	-200.000	0.049	-0.224
-474.274	-191.402	0.106	0.001
-473.259	800.000	-0.024	0.101
-472.245	-63.471	-0.258	0.107
-471.230	800.000	-0.073	-0.276
-470.216	218.640	-0.277	-0.445
-469.201	446.334	0.137	-0.302
-468.186	74.212	-0.375	0.396
-467.172	-165.652	0.182	0.008
-466.157	587.220	0.190	-0.470
-465.143	-77.939	0.243	0.084
-464.128	-71.230	-0.103	0.039
-463.113	93.343	-0.204	-0.232
-462.099	205.652	-0.075	0.117
-461.084	-200.000	-0.028	-0.424
-460.070	-200.000	-0.033	-0.185
-459.055	129.479	-0.179	-0.230
-458.040	-200.000	-0.007	-0.196
-457.026	-49.260	0.333	0.160
-456.011	368.328	0.035	0.071
-454.997	-73.085	-0.256	0.094
-453.982	259.635	-0.341	-0.591
-452.968	79.551	0.080	0.086
-451.953	-42.442	0.159	0.081
-450.938	-56.008	0.133	-0.060
-449.924	800.000	-0.030	0.116
-448.909	180.593	0.085	-0.126
-447.895	313.276	-0.170	0.320
-446.880	-116.945	-0.121	0.022
-445.865	-49.261	-0.179	-0.086
-444.851	-154.208	-0.233	-0.016
-443.836	-137.678	0.188	-0.021
-442.822	-43.370	0.273	-0.138
-441.807	10.902	-0.060	0.046
-440.792	-200.000	-0.001	0.264
-439.778	97.057	0.142	0.164
-438.763	-200.000	0.043	0.215
-437.749	-84.415	-0.403	0.128
-436.734	635.856	0.108	-0.274
-435.719	550.623	-0.020	-0.049
-434.705	8.870	0.318	-0.241
-433.690	800.000	-0.037	-0.141
-432.676	-93.029	0.369	0.103
-431.661	-56.275	-0.024	0.011
-430.646	192.303	-0.169	0.256
-429.632	125.834	-0.029	-0.037
-428.617	-61.664	-0.220	-0.093
-427.603	-124.952	0.087	0.013
-426.588	800.000	0.020	-0.075
-425.573	179.422	0.075	0.111
-424.559	35.322	-0.415	0.365
-423.544	545.434	0.076	-0.181
-422.530	47.575	-0.196	0.183
-421.515	-9.643	-0.034	0.022
-420.500	-200.000	-0.010	-0.152
-419.486	800.000	-0.067	0.205
-418.471	6.449	0.251	-0.187
-417.457	244.545	-0.293	0.494
-416.442	-200.000	-0.014	0.151
-415.428	800.000	-0.061	-0.210
-414.413	-137.443	-0.023	0.003
-413.398	800.000	-0.051	-0.187
-412.384	-90.082	0.164	-0.048
-411.369	122.681	0.117	0.147
-410.355	-103.552	0.195	-0.046
-409.340	-200.000	0.086	0.380
-408.325	775.175	-0.010	0.029
-407.311	66.404	-0.139	0.142
-406.296	-200.000	0.021	-0.270
-405.282	124.714	0.057	0.072
-404.267	-100.525	0.334	0.083
-403.252	800.000	0.103	-0.374
-402.238	-77.845	-0.126	-0.044
-401.223	-157.905	-0.372	-0.022
-400.209	304.505	0.085	-0.158
-399.194	-140.192	-0.252	-0.027
-398.179	-59.790	0.087	0.037
-397.165	117.309	0.148	0.182
-396.150	-43.482	0.262	0.133
-395.136	-3.927	0.165	0.114
-394.121	-200.000	0.005	0.338
-393.106	-164.436	0.176	0.008
-392.092	-200.000	-0.043	0.259
-391.077	-144.881	-0.241	-0.022
-390.063	12.207	-0.251	-0.194
-389.048	65.489	0.141	-0.143
-388.033	378.877	0.031	-0.064
-387.019	-36.387	-0.314	0.170
-386.004	-66.278	0.164	-0.065
-384.990	147.270	0.225	0.303
-383.975	-121.391	-0.156	-0.026
-382.960	-49.380	0.106	0.051
-381.946	107.618	-0.108	-0.129
-380.931	800.000	-0.082	-0.288
-379.917	-72.309	-0.040	0.015
-378.902	-200.000	0.007	0.114
-377.888	286.011	0.099	0.179
-376.873	800.000	0.077	0.233
-375.858	800.000	-0.077	-0.327
-374.844	-200.000	-0.012	0.058
-373.829	-183.693	-0.230	-0.004
-372.815	32.098	0.067	-0.058
-371.800	-19.061	-0.194	0.121
-370.785	800.000	0.031	-0.128
-369.771	266.159	0.172	-0.301
-368.756	199.967	0.095	0.145
-367.742	48.243	0.073	0.068
-366.727	800.000	-0.050	-0.204
-365.712	306.238	0.085	0.159
-364.698	393.020	-0.263	-0.547
-363.683	-22.847	0.173	0.104
-362.669	-165.182	-0.111	0.005
-361.654	549.056	-0.031	0.075
-360.639	-86.124	-0.248	0.077
-359.625	-92.300	0.474	0.134
-358.610	174.797	0.108	0.156
-357.596	-200.000	-0.043	0.267
-356.581	800.000	-0.039	0.127
-355.566	-200.000	0.013	-0.070
-354.552	89.899	0.116	0.130
-353.537	-131.861	0.057	-0.008
-352.523	192.288	-0.132	0.199
-351.508	140.204	0.217	0.287
-350.493	253.918	0.108	0.186
-349.479	62.781	-0.104	0.104
-348.464	108.358	0.110	0.131
-347.450	85.890	-0.070	0.077
-346.435	-200.000	0.026	0.195
-345.420	493.818	-0.078	0.180
-344.406	255.571	0.101	-0.173
-343.391	47.430	0.107	-0.100
-342.377	-110.897	-0.194	-0.040
-341.362	-18.409	-0.318	0.199
-340.348	-200.000	0.005	0.110
-339.333	-19.125	-0.251	0.156
-338.318	217.297	0.096	-0.154
-337.304	369.741	0.050	0.102
-336.289	159.374	0.245	0.341
-335.275	4.360	-0.201	0.147
-334.260	81.272	0.082	0.088
-333.245	120.800	-0.085	0.105
-332.231	-68.434	0.033	-0.013
-331.216	800.000	-0.047	-0.130
-330.202	-91.565	0.110	-0.031
-329.187	32.416	-0.020	0.017
-328.172	-54.606	0.227	0.103
-327.158	-43.941	0.230	-0.116
-326.143	171.057	-0.188	0.269
-325.129	-200.000	-0.020	-0.203
-324.114	800.000	-0.100	-0.350
-323.099	-26.724	-0.157	-0.092
-322.085	-200.000	0.010	0.211
-321.070	-40.567	0.418	0.217
-320.056	48.090	0.191	-0.179
-319.041	-91.842	0.303	0.086
-318.026	-4.487	0.099	-0.069
-317.012	-45.325	-0.523	0.259
-315.997	-200.000	-0.034	-0.164
-314.983	-200.000	-0.005	-0.046
-313.968	146.716	-0.167	0.225
-312.953	-118.192	-0.330	-0.059
-311.939	-49.239	-0.111	-0.053
-310.924	200.271	-0.212	-0.325
-309.910	800.000	-0.100	-0.333
-308.895	-101.052	-0.139	0.034
-307.880	349.026	0.043	-0.084
-306.866	-66.574	0.263	0.104
-305.851	12.116	-0.100	0.077
-304.837	-200.000	0.041	-0.459
-303.822	-97.058	-0.210	-0.055
-302.807	800.000	-0.058	0.188
-301.793	-113.848	-0.190	0.037
-300.778	121.304	0.075	0.093
-299.764	140.384	-0.171	0.225
-298.749	90.549	-0.080	0.089
-297.735	-200.000	0.015	0.145
-296.720	-150.846	0.415	0.031
-295.705	278.919	0.124	-0.221
-294.691	-200.000	-0.035	-0.345
-293.676	800.000	0.064	0.228
-292.662	38.781	0.202	-0.180
-291.647	35.724	0.098	0.086
-290.632	-58.521	-0.152	-0.066
-289.618	-90.497	-0.172	-0.050
-288.603	399.560	-0.147	0.307
-287.589	-200.000	0.023	-0.110
-286.574	-21.638	0.186	-0.113
-285.559	-200.000	-0.048	0.343
-284.545	191.055	0.183	0.274
-283.530	-73.344	-0.114	-0.042
-282.516	-82.743	-0.096	0.031
-281.501	-157.667	0.155	0.009
-280.486	642.884	0.146	0.371
-279.472	-26.256	0.099	0.058
-278.457	185.369	-0.078	0.115
-277.443	-200.000	0.023	-0.127
-276.428	-14.714	0.270	-0.173
-275.413	-46.375	-0.180	0.088
-274.399	-60.148	-0.119	0.051
-273.384	-91.376	-0.223	0.064
-272.370	800.000	-0.061	0.230
-271.355	-156.547	0.491	0.030
-270.340	-138.590	0.140	0.015
-269.326	32.308	-0.222	0.191
-268.311	-38.033	-0.363	-0.192
-267.297	-124.212	-0.020	0.003
-266.282	71.947	-0.184	-0.191
-265.267	800.000	0.048	0.153
-264.253	-200.000	0.012	0.311
-263.238	-200.000	0.017	-0.153
-262.224	72.775	-0.165	-0.172
-261.209	-200.000	0.005	0.029
-260.195	-200.000	-0.004	0.258
-259.180	248.852	0.203	-0.343
-258.165	-200.000	0.016	-0.317
-257.151	54.604	0.183	0.176
-256.136	-100.301	0.235	0.058
-255.122	-200.000	0.013	-0.106
-254.107	-200.000	0.023	-0.136
-253.092	494.057	-0.071	0.163
-252.078	208.694	0.125	-0.195
-251.063	27.246	-0.249	-0.208
-250.049	-65.484	0.132	-0.053
-249.034	-12.015	0.176	0.115
-248.019	-146.072	-0.197	-0.017
-247.005	34.692	0.156	-0.136
-245.990	-200.000	-0.053	0.327
-244.976	18.572	-0.366	0.292
-243.961	100.730	0.076	0.088
-242.946	-200.000	0.022	-0.180
-241.932	-200.000	-0.022	-0.193
-240.917	261.417	0.141	0.243
-239.903	-80.704	0.144	-0.048
-238.888	60.108	-0.078	0.077
-237.873	220.374	-0.119	0.191
-236.859	-74.019	-0.158	-0.057
-235.844	-94.829	-0.238	0.064
-234.830	-44.806	-0.160	-0.079
-233.815	-200.000	0.002	0.022
-232.800	-66.987	-0.062	0.024
-231.786	-123.843	-0.218	0.034
-230.771	800.000	-0.107	0.304
-229.757	48.139	-0.219	-0.204
-228.742	-200.000	0.056	0.275
-227.727	800.000	0.047	0.163
-226.713	198.764	-0.036	-0.055
-225.698	-200.000	0.021	-0.234
-224.684	763.650	-0.069	-0.187
-223.669	-200.000	-0.034	-0.493
-222.655	-148.661	0.152	-0.012
-221.640	71.832	0.092	0.096
-220.625	8.681	0.068	-0.051
-219.611	668.327	-0.105	0.272
-218.596	103.040	-0.131	-0.152
-217.582	-71.307	0.303	0.113
-216.567	-68.318	0.078	0.030
-215.552	445.378	0.056	-0.123
-214.538	71.320	-0.318	-0.328
-213.523	-200.000	0.017	0.113
-212.509	-22.593	-0.315	0.190
-211.494	-161.346	-0.059	0.003
-210.479	-28.653	0.250	-0.143
-209.465	244.107	0.018	0.030
-208.450	395.291	-0.097	-0.201
-207.436	-20.941	0.152	-0.093
-206.421	512.485	-0.113	0.261
-205.406	-67.343	-0.437	0.171
-204.392	800.000	0.052	0.158
-203.377	240.482	-0.011	-0.018
-202.363	190.259	0.174	0.260
-201.348	-79.126	0.058	-0.020
-200.333	-11.392	0.082	-0.054
-199.319	-72.423	0.052	-0.019
-198.304	-82.804	-0.090	0.029
-197.290	800.000	0.066	0.235
-196.275	-47.166	0.106	0.051
-195.260	91.987	0.261	-0.293
-194.246	72.650	0.101	-0.105
-193.231	-130.091	0.330	-0.045
-192.217	132.195	0.087	-0.111
-191.202	61.723	-0.172	0.170
-190.187	-111.208	-0.107	-0.022
-189.173	184.314	0.182	0.268
-188.158	-170.806	0.472	-0.016
-187.144	-200.000	0.003	0.341
-186.129	226.446	-0.099	0.160
-185.114	-200.000	0.040	0.397
-184.100	-163.867	0.330	0.015
-183.085	80.037	0.387	0.414
-182.071	-94.155	0.191	0.052
-181.056	-143.562	-0.056	-0.005
-180.042	-98.523	0.127	0.032
-179.027	200.872	-0.082	-0.125
-178.012	78.131	0.084	0.089
-176.998	42.305	0.261	0.236
-175.983	-200.000	-0.018	-0.084
-174.969	62.633	0.042	-0.042
-173.954	-91.843	0.309	-0.087
-172.939	-110.822	-0.338	-0.069
-171.925	103.718	0.277	0.324
-170.910	-3.184	-0.042	-0.029
-169.896	-200.000	-0.010	-0.502
-168.881	725.600	0.110	-0.291
-167.866	-124.250	-0.370	0.057
-166.852	-200.000	-0.026	0.168
-165.837	454.183	-0.036	0.080
-164.823	47.343	-0.108	-0.100
-163.808	800.000	-0.035	-0.144
-162.793	-70.089	0.288	-0.109
-161.779	-157.097	-0.487	-0.029
-160.764	-83.136	-0.180	-0.058
-159.750	-15.238	0.242	-0.154
-158.735	-200.000	-0.001	0.127
-157.720	55.909	-0.154	0.148
-156.706	255.892	-0.111	0.189
-155.691	-47.261	-0.058	0.028
-154.677	-60.245	-0.211	-0.089
-153.662	275.735	0.182	-0.320
-152.647	117.804	0.168	0.205
-151.633	389.699	-0.130	0.267
-150.618	8.512	-0.079	-0.059
-149.604	-75.020	0.280	0.100
-148.589	117.214	-0.058	0.071
-147.574	800.000	0.021	-0.070
-146.560	-179.438	0.193	0.004
-145.545	-200.000	-0.003	-0.281
-144.531	36.469	0.135	0.118
-143.516	559.498	0.112	-0.270
-142.502	-62.022	-0.165	0.068
-141.487	-84.671	-0.297	-0.093
-140.472	192.578	-0.182	0.272
-139.458	79.153	0.076	0.080
-138.443	800.000	0.054	-0.152
-137.429	575.853	0.077	-0.187
-136.414	185.617	0.166	-0.244
-135.399	-48.757	0.184	0.087
-134.385	-24.522	0.063	-0.037
-133.370	-68.482	0.260	-0.100
-132.356	-200.000	-0.012	0.110
-131.341	-173.886	-0.168	0.005
-130.326	-20.739	0.159	0.097
-129.312	-200.000	0.094	-0.481
-128.297	-200.000	0.015	-0.096
-127.283	-200.000	0.007	0.200
-126.268	-23.260	-0.127	0.076
-125.253	-117.619	-0.300	-0.054
-124.239	43.183	0.097	-0.088
-123.224	50.533	0.074	0.069
-122.210	-29.279	0.307	-0.174
-121.195	-2.680	-0.235	0.163
-120.180	-111.776	0.253	-0.051
-119.166	800.000	-0.043	-0.147
-118.151	145.347	0.116	0.155
-117.137	800.000	0.037	0.156
-116.122	263.077	0.074	-0.128
-115.107	800.000	0.036	-0.104
-114.093	-200.000	0.006	0.167
-113.078	194.599	0.143	-0.216
-112.064	148.436	-0.217	-0.291
-111.049	710.979	-0.089	-0.234
-110.034	-200.000	-0.040	-0.180
-109.020	42.845	0.188	-0.170
-108.005	400.160	-0.059	0.122
-106.991	-105.177	-0.307	0.069
-105.976	-111.126	-0.355	0.072
-104.962	734.226	0.068	0.182
-103.947	38.253	-0.289	0.255
-102.932	47.990	0.056	0.052
-101.918	-35.480	0.118	-0.063
-100.903	79.375	-0.147	0.156
-99.889	-200.000	0.023	0.173
-98.874	107.628	-0.043	0.051
-97.859	-200.000	0.002	-0.056
-96.845	570.089	-0.175	-0.423
-95.830	-25.771	0.322	0.188
-94.816	-200.000	-0.013	0.178
-93.801	-26.067	0.390	0.227
-92.786	800.000	-0.039	-0.131
-91.772	-17.556	-0.200	-0.125
-90.757	-200.000	0.023	0.191
-89.743	-26.785	-0.093	-0.054
-88.728	-101.964	0.027	0.006
-87.713	-39.407	0.124	0.064
-86.699	-64.790	0.540	-0.216
-85.684	77.401	0.188	0.198
-84.670	244.209	-0.251	-0.418
-83.655	-77.714	-0.142	0.049
-82.640	-200.000	-0.015	0.154
-81.626	-200.000	0.008	-0.260
-80.611	43.979	0.222	-0.201
-79.597	28.448	0.062	0.052
-78.582	-127.470	0.240	0.034
-77.567	-31.859	0.183	-0.102
-76.553	-35.323	0.180	-0.097
-75.538	-200.000	0.085	-0.383
-74.524	559.130	-0.061	-0.147
-73.509	274.171	-0.063	-0.111
-72.494	267.872	-0.116	-0.200
-71.480	-200.000	-0.151	-0.001
-70.465	1.408	-0.376	-0.268
-69.451	477.453	-0.078	0.174
-68.436	303.849	0.008	-0.015
-67.422	345.261	0.064	-0.125
-66.407	207.051	0.160	-0.246
-65.392	-183.254	-0.175	0.003
-64.378	101.962	-0.074	0.085
-63.363	-200.000	0.029	0.236
-62.349	230.375	-0.051	-0.082
-61.334	-19.619	-1.067	-0.654
-60.319	247.837	0.196	0.328
-59.305	-200.000	0.113	-0.635
-58.290	593.446	0.367	0.896
-57.276	356.968	0.802	1.583
-56.261	-200.000	97.663	589.894
-55.246	555.943	1385.643	3301.639
-54.232	151.477	2593.834	3494.745
-53.217	105.968	2313.468	2708.929
-52.203	41.257	2062.076	1844.276
-51.188	36.391	1975.540	1723.510
-50.173	34.804	1957.018	1693.241
-49.159	50.468	2010.265	1880.323
-48.144	53.264	2029.794	1923.611
-47.130	37.098	1986.091	1738.786
-46.115	34.513	1975.028	1705.952
-45.100	34.498	1971.570	1702.761
-44.086	34.399	1970.033	1700.483
-43.071	34.355	1967.575	1697.899
-42.057	34.335	1965.132	1695.547
-41.042	34.418	1962.935	1694.324
-40.027	34.410	1961.258	1692.737
-39.013	34.454	1958.821	1690.957
-37.998	34.495	1956.998	1689.680
-36.984	34.493	1955.470	1688.275
-35.969	34.498	1953.904	1686.905
-34.954	34.607	1951.296	1685.547
-33.940	34.498	1950.334	1683.684
-32.925	34.521	1949.444	1683.051
-31.911	34.495	1947.707	1681.261
-30.896	34.558	1945.667	1679.985
-29.881	34.593	1943.924	1678.725
-28.867	34.632	1942.121	1677.438
-27.852	34.656	1941.214	1676.797
-26.838	34.557	1939.128	1674.064
-25.823	34.565	1937.571	1672.725
-24.809	34.596	1935.271	1670.942
-23.794	34.480	1934.505	1669.201
-22.779	34.506	1932.361	1667.509
-21.765	34.503	1930.845	1666.106
-20.750	34.569	1928.316	1664.438
-19.736	34.650	1927.261	1664.166
-18.721	34.563	1926.096	1662.334
-17.706	34.604	1924.360	1661.131
-16.692	34.552	1922.557	1659.055
-15.677	34.548	1921.252	1657.830
-14.663	34.553	1919.665	1656.440
-13.648	34.619	1918.196	1655.674
-12.633	34.605	1917.024	1654.481
-11.619	34.597	1915.854	1653.329
-10.604	34.548	1914.766	1651.903
-9.590	34.546	1913.015	1650.311
-8.575	34.502	1911.924	1648.924
-7.560	34.593	1910.903	1648.761
-6.546	34.540	1909.001	1646.598
-5.531	34.540	1908.382	1645.998
-4.517	34.558	1907.672	1645.480
-3.502	34.484	1906.687	1643.928
-2.487	34.578	1904.778	1643.027
-1.473	34.540	1904.149	1642.087
-0.458	34.586	1899.308	1638.240
0.556	34.593	1879.775	1611.035
1.571	30.440	1860.381	1559.494
2.586	26.529	1882.388	1544.505
3.600	25.364	1918.724	1564.035
4.615	24.737	1913.846	1554.474
5.629	18.963	1812.248	1424.150
6.644	8.190	1689.781	1244.170
7.659	2.511	1649.627	1171.160
8.673	1.967	1645.992	1164.327
9.688	1.937	1644.669	1163.056
10.702	1.817	1642.941	1160.820
11.717	1.729	1639.435	1157.570
12.731	2.146	1639.191	1160.460
13.746	9.105	1656.188	1225.672
14.761	19.856	1680.010	1326.029
15.775	25.380	1689.612	1375.933
16.790	26.224	1690.816	1383.260
17.804	26.272	1690.440	1383.196
18.819	26.324	1689.748	1382.906
19.834	26.493	1688.759	1383.271
20.848	26.702	1688.347	1384.410
21.863	26.749	1687.537	1383.981
22.877	26.702	1686.375	1382.545
23.892	26.725	1685.627	1381.983
24.907	26.716	1685.176	1381.426
25.921	26.758	1683.573	1380.306
26.936	26.760	1682.545	1379.354
27.950	26.747	1681.926	1378.631
28.965	26.810	1681.014	1378.240
29.980	26.769	1680.240	1377.170
30.994	26.829	1678.602	1376.159
32.009	26.736	1677.381	1374.330
33.023	26.745	1676.575	1373.619
34.038	26.682	1676.236	1372.745
35.053	26.771	1674.958	1372.250
36.067	26.760	1673.731	1371.037
37.082	26.779	1672.723	1370.236
38.096	26.755	1671.773	1369.156
39.111	26.654	1671.587	1368.117
40.126	26.676	1670.460	1367.237
41.140	26.717	1669.469	1366.617
42.155	26.714	1668.601	1365.765
43.169	26.715	1667.440	1364.704
44.184	26.745	1666.466	1364.012
45.199	26.712	1665.653	1362.974
46.213	26.692	1664.059	1361.396
47.228	26.701	1663.189	1360.632
48.242	26.779	1661.205	1359.475
49.257	26.680	1660.628	1358.137
50.271	26.792	1658.919	1357.463
51.286	26.742	1658.570	1356.678
52.301	26.635	1657.107	1354.565
53.315	26.667	1655.661	1353.505
54.330	26.723	1654.083	1352.512
55.344	26.728	1652.670	1351.270
56.359	26.766	1651.234	1350.263
57.374	26.772	1650.517	1349.599
58.388	26.736	1649.742	1348.583
59.403	26.661	1648.841	1347.168
60.417	26.769	1646.942	1346.297
61.432	26.712	1646.228	1345.169
62.447	26.675	1645.805	1344.430
63.461	26.741	1644.162	1343.462
64.476	26.727	1643.334	1342.565
65.490	26.779	1642.331	1342.011
66.505	26.712	1641.680	1340.859
67.520	26.718	1640.502	1339.827
68.534	26.711	1640.113	1339.335
69.549	26.709	1638.646	1338.003
70.563	26.776	1637.238	1337.232
71.578	26.756	1636.505	1336.364
72.593	26.776	1635.487	1335.569
73.607	26.678	1634.623	1334.019
74.622	26.725	1633.548	1333.374
75.636	26.707	1632.413	1332.197
76.651	26.695	1631.599	1331.325
77.666	26.702	1631.280	1330.998
78.680	26.782	1629.854	1330.304
79.695	26.784	1629.382	1329.814
80.709	26.727	1628.376	1328.460
81.724	26.703	1627.552	1327.493
82.739	26.751	1626.581	1326.935
83.753	26.757	1625.947	1326.341
84.768	26.777	1624.723	1325.372
85.782	26.724	1623.955	1324.241
86.797	26.712	1622.840	1323.131
87.812	26.703	1622.241	1322.456
88.826	26.765	1620.550	1321.414
89.841	26.748	1620.243	1320.922
90.855	26.823	1619.127	1320.445
91.870	26.815	1618.221	1319.529
92.884	26.754	1617.498	1318.382
93.899	26.829	1615.936	1317.535
94.914	26.770	1615.198	1316.389
95.928	26.736	1613.919	1314.984
96.943	26.769	1612.578	1314.015
97.957	26.747	1611.799	1313.101
98.972	26.795	1610.064	1311.917
99.987	26.791	1608.873	1310.806
101.001	26.786	1607.412	1309.459
102.016	26.757	1605.999	1307.983
103.030	26.800	1604.856	1307.247
104.045	26.782	1603.807	1306.152
105.060	26.748	1602.362	1304.613
106.074	26.681	1601.358	1303.194
107.089	26.866	1600.040	1303.338
108.103	26.734	1598.996	1301.422
109.118	26.842	1597.903	1301.195
110.133	26.783	1596.995	1299.919
111.147	26.912	1595.000	1299.101
112.162	26.826	1594.300	1297.802
113.176	26.898	1593.058	1297.187
114.191	26.972	1591.371	1296.227
115.206	26.823	1591.094	1294.824
116.220	26.869	1590.272	1294.371
117.235	26.851	1588.805	1292.931
118.249	26.850	1587.472	1291.726
119.264	26.897	1586.729	1291.347
120.279	26.799	1585.461	1289.496
121.293	26.946	1584.059	1289.291
122.308	26.906	1582.924	1287.970
123.322	26.911	1582.082	1287.202
124.337	26.903	1580.790	1285.981
125.352	26.931	1579.792	1285.255
126.366	26.963	1578.768	1284.536
127.381	26.922	1578.308	1283.756
128.395	26.953	1577.207	1282.964
129.410	27.009	1575.861	1282.154
130.424	26.984	1575.021	1281.183
131.439	26.838	1574.260	1279.422
132.454	27.001	1572.332	1278.886
133.468	26.949	1571.278	1277.554
134.483	27.014	1569.842	1276.727
135.497	27.013	1568.595	1275.592
136.512	26.870	1567.908	1273.921
137.527	26.906	1566.526	1272.932
138.541	26.969	1565.440	1272.384
139.556	26.981	1564.182	1271.328
140.570	26.913	1562.976	1269.761
141.585	26.881	1562.019	1268.648
142.600	26.847	1561.263	1267.683
143.614	26.854	1560.284	1266.823
144.629	26.896	1559.175	1266.104
145.643	26.927	1557.606	1264.933
146.658	26.874	1556.231	1263.338
147.673	26.874	1554.951	1262.191
148.687	26.935	1553.848	1261.607
149.702	26.958	1552.835	1260.834
150.716	26.899	1551.541	1259.260
151.731	26.878	1550.499	1258.159
152.746	26.894	1549.589	1257.414
153.760	26.995	1548.160	1256.846
154.775	26.979	1547.258	1255.893
155.789	26.998	1546.020	1254.910
156.804	26.923	1545.373	1253.750
157.819	26.947	1544.231	1252.883
158.833	26.963	1542.743	1251.669
159.848	27.052	1541.978	1251.555
160.862	27.064	1540.911	1250.657
161.877	26.971	1540.377	1249.474
162.892	27.086	1539.082	1249.103
163.906	27.095	1538.175	1248.321
164.921	26.929	1537.918	1246.865
165.935	27.044	1536.617	1246.483
166.950	26.965	1535.672	1245.068
167.964	27.004	1534.573	1244.332
168.979	27.020	1533.660	1243.592
169.994	27.043	1533.116	1243.198
171.008	27.014	1532.323	1242.247
172.023	27.017	1530.943	1241.039
173.037	27.064	1530.311	1240.737
174.052	27.050	1528.309	1238.907
175.067	27.119	1527.678	1238.762
176.081	27.114	1526.796	1237.901
177.096	27.141	1526.021	1237.346
178.110	27.048	1524.961	1235.744
179.125	27.038	1523.935	1234.736
180.140	27.112	1522.974	1234.352
181.154	27.140	1522.413	1233.977
182.169	27.167	1521.311	1233.158
183.183	27.163	1520.127	1232.059
184.198	27.172	1519.194	1231.259
185.213	27.143	1518.640	1230.505
186.227	27.095	1517.763	1229.357
187.242	27.088	1516.922	1228.518
188.256	27.156	1516.082	1228.190
189.271	27.251	1514.990	1227.841
190.286	27.235	1514.671	1227.365
191.300	27.230	1513.184	1226.015
192.315	27.177	1512.479	1224.978
193.329	27.162	1511.491	1223.970
194.344	27.147	1510.756	1223.170
195.359	27.158	1510.206	1222.689
196.373	27.133	1509.702	1222.002
197.388	27.250	1508.198	1221.466
198.402	27.151	1507.239	1219.912
199.417	27.150	1506.573	1219.261
200.432	27.173	1505.704	1218.601
201.446	27.151	1505.349	1218.058
202.461	27.094	1504.572	1216.945
203.475	27.190	1503.513	1216.623
204.490	27.188	1502.523	1215.696
205.504	27.031	1502.416	1214.452
206.519	27.125	1500.654	1213.550
207.534	27.282	1499.837	1213.831
208.548	27.265	1498.888	1212.840
209.563	27.292	1497.903	1212.115
210.577	27.271	1496.947	1211.094
211.592	27.240	1496.390	1210.329
212.607	27.252	1495.767	1209.804
213.621	27.321	1495.033	1209.563
214.636	27.296	1494.293	1208.685
215.650	27.310	1493.564	1208.087
216.665	27.314	1492.689	1207.295
217.680	27.278	1492.117	1206.487
218.694	27.285	1490.668	1205.257
219.709	27.256	1490.623	1204.918
220.723	27.361	1489.519	1204.616
221.738	27.345	1488.452	1203.542
222.753	27.263	1487.414	1202.056
223.767	27.235	1486.991	1201.418
224.782	27.167	1486.698	1200.627
225.796	27.296	1485.452	1200.367
226.811	27.315	1484.949	1199.982
227.826	27.386	1484.165	1199.707
228.840	27.432	1483.062	1199.015
229.855	27.325	1482.430	1197.689
230.869	27.396	1481.169	1197.031
231.884	27.392	1480.230	1196.140
232.899	27.285	1479.604	1194.828
233.913	27.333	1478.095	1193.817
234.928	27.264	1477.357	1192.665
235.942	27.392	1476.183	1192.453
236.957	27.412	1475.536	1191.952
237.972	27.455	1474.598	1191.370
238.986	27.437	1473.316	1190.111
240.001	27.388	1472.631	1189.135
241.015	27.428	1471.550	1188.418
242.030	27.454	1470.526	1187.654
243.045	27.498	1469.777	1187.228
244.059	27.508	1468.733	1186.349
245.074	27.576	1467.805	1185.936
246.088	27.539	1467.355	1185.227
247.103	27.612	1466.589	1184.977
248.117	27.610	1465.765	1184.193
249.132	27.580	1465.107	1183.361
250.147	27.620	1464.256	1182.831
251.161	27.536	1464.227	1182.158
252.176	27.620	1463.071	1181.660
253.190	27.615	1462.385	1180.973
254.205	27.653	1461.533	1180.427
255.220	27.720	1460.435	1179.865
256.234	27.634	1459.970	1178.833
257.249	27.663	1459.152	1178.251
258.263	27.691	1458.410	1177.731
259.278	27.700	1457.581	1177.018
260.293	27.724	1456.609	1176.283
261.307	27.772	1455.711	1175.762
262.322	27.620	1455.511	1174.519
263.336	27.655	1454.801	1174.067
264.351	27.653	1453.811	1173.147
265.366	27.676	1452.655	1172.258
266.380	27.781	1451.580	1171.967
267.395	27.724	1450.676	1170.765
268.409	27.758	1450.061	1170.383
269.424	27.761	1449.289	1169.677
270.439	27.710	1448.112	1168.298
271.453	27.633	1447.926	1167.545
272.468	27.679	1446.814	1166.842
273.482	27.781	1446.182	1166.880
274.497	27.676	1445.473	1165.533
275.512	27.666	1444.746	1164.782
276.526	27.843	1444.120	1165.305
277.541	27.797	1442.808	1163.849
278.555	27.852	1442.226	1163.629
279.570	27.752	1441.564	1162.351
280.585	27.838	1440.882	1162.248
281.599	27.817	1440.073	1161.357
282.614	27.820	1438.941	1160.361
283.628	27.796	1437.708	1159.116
284.643	27.854	1436.793	1158.643
285.657	27.846	1436.582	1158.320
286.672	27.833	1435.614	1157.352
287.687	27.812	1434.619	1156.315
288.701	27.894	1433.286	1155.659
289.716	27.927	1432.786	1155.359
290.730	27.905	1432.352	1154.771
291.745	27.875	1431.518	1153.808
292.760	27.953	1430.225	1153.153
293.774	27.983	1429.230	1152.439
294.789	27.867	1428.939	1151.369
295.803	27.869	1428.532	1150.953
296.818	27.972	1426.947	1150.225
297.833	27.933	1426.552	1149.557
298.847	28.012	1425.750	1149.306
299.862	27.943	1424.714	1147.932
300.876	28.042	1423.879	1147.779
301.891	28.038	1423.039	1146.976
302.906	27.932	1422.487	1145.769
303.920	28.017	1422.351	1146.091
304.935	28.109	1421.239	1145.669
305.949	28.028	1421.022	1144.885
306.964	28.078	1419.899	1144.190
307.979	28.099	1418.819	1143.348
308.993	28.052	1418.249	1142.495
310.008	28.132	1416.959	1141.855
311.022	28.226	1416.039	1141.600
312.037	28.118	1415.067	1140.041
313.052	28.161	1414.109	1139.437
314.066	28.113	1413.572	1138.607
315.081	28.067	1413.122	1137.856
316.095	28.212	1411.451	1137.311
317.110	28.105	1411.015	1136.192
318.125	28.190	1410.003	1135.803
319.139	28.109	1409.199	1134.557
320.154	28.156	1408.502	1134.184
321.168	28.230	1407.370	1133.630
322.183	28.189	1406.593	1132.652
323.197	28.256	1405.824	1132.349
324.212	28.135	1404.744	1130.630
325.227	28.177	1404.180	1130.332
326.241	28.277	1402.728	1129.685
327.256	28.248	1402.615	1129.314
328.270	28.366	1401.621	1129.139
329.285	28.304	1401.263	1128.371
330.300	28.361	1400.052	1127.647
331.314	28.243	1399.571	1126.430
332.329	28.308	1398.897	1126.191
333.343	28.235	1398.075	1124.982
334.358	28.315	1397.494	1124.906
335.373	28.401	1396.675	1124.671
336.387	28.532	1395.391	1124.340
337.402	28.409	1395.487	1123.567
338.416	28.346	1394.887	1122.598
339.431	28.423	1394.168	1122.393
340.446	28.493	1393.512	1122.190
341.460	28.414	1392.751	1121.000
342.475	28.563	1391.618	1120.898
343.489	28.564	1390.253	1119.707
344.504	28.508	1389.741	1118.849
345.519	28.471	1388.825	1117.790
346.533	28.507	1387.724	1117.022
347.548	28.568	1387.129	1116.815
348.562	28.479	1386.416	1115.601
349.577	28.491	1385.608	1114.924
350.592	28.514	1385.137	1114.588
351.606	28.535	1383.867	1113.595
352.621	28.458	1382.834	1112.201
353.635	28.540	1381.979	1111.912
354.650	28.454	1381.452	1110.863
355.665	28.626	1380.599	1111.122
356.679	28.641	1379.176	1109.968
357.694	28.648	1378.635	1109.478
358.708	28.774	1377.118	1108.920
359.723	28.704	1376.332	1107.770
360.738	28.696	1375.264	1106.758
361.752	28.681	1374.017	1105.569
362.767	28.686	1373.405	1105.009
363.781	28.620	1372.500	1103.786
364.796	28.697	1371.858	1103.637
365.810	28.711	1370.957	1102.896
366.825	28.700	1370.263	1102.178
367.840	28.810	1369.518	1102.140
368.854	28.715	1368.894	1100.968
369.869	28.706	1368.586	1100.568
370.883	28.757	1368.168	1100.442
371.898	28.732	1367.345	1099.534
372.913	28.767	1366.754	1099.168
373.927	28.982	1365.211	1099.114
374.942	28.867	1364.363	1097.648
375.956	28.915	1363.724	1097.325
376.971	28.842	1363.337	1096.481
377.986	28.872	1362.506	1095.894
379.000	28.934	1361.157	1095.080
380.015	28.913	1361.461	1095.104
381.029	28.939	1360.388	1094.299
382.044	28.998	1359.812	1094.091
383.059	28.913	1359.323	1093.092
384.073	28.900	1358.442	1092.212
385.088	28.982	1358.127	1092.349
386.102	28.961	1357.367	1091.513
387.117	29.045	1356.542	1091.255
388.132	28.962	1356.112	1090.317
389.146	28.914	1355.260	1089.256
390.161	28.916	1354.737	1088.747
391.175	29.048	1354.118	1088.934
392.190	29.047	1353.253	1088.140
393.205	29.036	1352.327	1087.234
394.219	29.062	1351.418	1086.561
395.234	29.076	1350.294	1085.640
396.248	29.136	1349.089	1084.929
397.263	29.020	1348.586	1083.748
398.278	29.086	1347.342	1083.037
399.292	29.122	1346.274	1082.296
400.307	29.177	1345.592	1081.974
401.321	29.141	1344.980	1081.174
402.336	29.211	1344.001	1080.701
403.350	29.127	1343.081	1079.374
404.365	29.086	1341.688	1077.923
405.380	29.280	1341.039	1078.439
406.394	29.234	1340.303	1077.486
407.409	29.131	1339.945	1076.501
408.423	29.270	1338.898	1076.372
409.438	29.305	1338.571	1076.222
410.453	29.338	1337.640	1075.571
411.467	29.363	1336.860	1074.993
412.482	29.375	1336.492	1074.673
413.496	29.327	1335.863	1073.788
414.511	29.313	1335.198	1073.078
415.526	29.448	1333.938	1072.754
416.540	29.347	1333.492	1071.719
417.555	29.213	1333.168	1070.582
418.569	29.302	1332.471	1070.446
419.584	29.181	1332.415	1069.602
420.599	29.414	1331.522	1070.144
421.613	94.015	1348.985	1446.711
422.628	93.552	1351.515	1446.823
