DTS Sentinel unit serial number:	SN413079Multiplexer serial number:	ORYXHardware model number:	OX4-SRSoftware version number:	ORYX F/W v4.00 Oryx Data Collector v3.7.2.0data status	okinstallation	princeton_trtdifferential loss correction	single-endedforward channel	channel 4reverse channel	N/Adate	2019/09/16time	02:29:34forward acquisition time	60.00reverse acquisition time	0.00gamma	496.2192k internal	0.2321k external	0.2321temperature offset calibration	0.9973default loss term (dB/km)	0.3790temperature slope calibration	1.0000multiplexer offset coefficient	1.0000multiplexer slope coefficient	1.0000fibre end	0.00T internal ref (°C)	27.67T ext. ref 1 (°C)	10.26T ext. ref 2 (°C)	22.67length (m)	temperature (°C)	Stokes	anti-Stokes-747.200	-88.429	-0.195	-0.059
-746.185	479.411	0.168	0.385
-745.171	89.388	0.101	0.113
-744.156	-116.356	-0.467	0.087
-743.142	800.000	0.093	0.268
-742.127	35.647	0.106	0.094
-741.112	620.215	0.055	0.139
-740.098	-200.000	-0.141	0.000
-739.083	-200.000	-0.026	0.190
-738.069	173.191	0.082	0.119
-737.054	800.000	0.073	-0.236
-736.039	-84.695	-0.455	0.145
-735.025	23.329	0.332	0.276
-734.010	39.925	-0.184	-0.167
-732.996	-17.890	-0.276	-0.175
-731.981	-160.792	-0.039	0.002
-730.966	-116.969	0.157	-0.029
-729.952	251.449	0.100	-0.172
-728.937	-27.651	0.074	0.044
-727.923	591.952	-0.175	-0.437
-726.908	517.105	0.194	-0.458
-725.894	-180.056	-0.068	-0.001
-724.879	21.823	0.324	0.267
-723.864	-130.706	-0.140	0.019
-722.850	800.000	0.005	-0.016
-721.835	-200.000	0.039	-0.239
-720.821	-27.023	-0.230	0.136
-719.806	-109.587	-0.129	-0.027
-718.791	92.818	-0.178	0.203
-717.777	-54.539	-0.133	0.061
-716.762	-200.000	-0.057	-0.272
-715.748	-48.610	-0.085	0.041
-714.733	-200.000	-0.001	-0.171
-713.718	-17.348	0.287	-0.183
-712.704	-92.390	-0.050	-0.014
-711.689	137.894	0.125	0.165
-710.675	-55.018	-0.108	-0.049
-709.660	-200.000	0.031	-0.185
-708.645	728.566	0.085	-0.230
-707.631	-7.268	-0.452	0.309
-706.616	91.200	0.157	0.178
-705.602	-200.000	-0.010	-0.171
-704.587	800.000	-0.056	-0.217
-703.572	-68.461	-0.097	-0.038
-702.558	800.000	0.045	-0.175
-701.543	-54.671	0.230	0.105
-700.529	-37.617	0.199	-0.107
-699.514	-99.824	0.247	0.062
-698.499	183.780	-0.052	-0.077
-697.485	-134.676	0.373	-0.046
-696.470	-121.043	0.495	0.084
-695.456	-61.185	0.099	-0.042
-694.441	-85.331	0.183	0.058
-693.426	34.942	0.129	0.114
-692.412	65.472	-0.111	-0.113
-691.397	203.971	0.135	-0.212
-690.383	57.904	0.011	-0.011
-689.368	70.755	0.034	0.036
-688.354	-122.026	-0.218	-0.036
-687.339	556.069	-0.119	0.290
-686.324	-65.207	0.131	0.053
-685.310	-200.000	0.004	-0.069
-684.295	-22.933	0.152	0.092
-683.281	-88.245	-0.213	-0.064
-682.266	693.772	0.056	-0.148
-681.251	150.731	0.092	-0.126
-680.237	15.610	0.130	0.103
-679.222	-141.727	-0.291	-0.029
-678.208	17.888	0.122	-0.098
-677.193	422.033	-0.119	-0.258
-676.178	-97.625	0.140	-0.037
-675.164	-85.187	0.282	-0.089
-674.149	140.488	0.092	0.123
-673.135	29.946	-0.140	-0.121
-672.120	30.588	-0.182	0.157
-671.105	-58.754	-0.317	0.138
-670.091	-120.194	0.195	-0.034
-669.076	175.909	0.060	-0.088
-668.062	-72.124	-0.044	0.016
-667.047	60.566	-0.013	-0.013
-666.032	-59.289	-0.208	-0.090
-665.018	194.227	-0.111	-0.169
-664.003	314.482	-0.051	-0.096
-662.989	-2.672	-0.238	-0.168
-661.974	-74.498	-0.139	0.051
-660.959	-200.000	-0.034	-0.155
-659.945	297.798	0.117	-0.216
-658.930	155.639	-0.125	0.173
-657.916	-120.752	-0.269	-0.046
-656.901	-79.818	0.076	-0.026
-655.886	-39.268	-0.234	0.124
-654.872	175.590	0.070	-0.102
-653.857	320.601	-0.144	0.275
-652.843	-145.755	0.181	-0.016
-651.828	-114.092	0.131	-0.026
-650.814	0.954	0.198	0.143
-649.799	-109.848	0.101	-0.021
-648.784	96.734	-0.148	0.170
-647.770	-200.000	-0.007	-0.045
-646.755	204.643	-0.043	0.068
-645.741	-68.831	0.273	0.106
-644.726	-172.903	0.279	-0.009
-643.711	-37.537	0.143	-0.077
-642.697	229.577	0.135	0.222
-641.682	145.048	-0.189	0.254
-640.668	-200.000	-0.004	-0.256
-639.653	-13.538	0.092	0.060
-638.638	40.956	0.099	0.090
-637.624	800.000	0.046	-0.170
-636.609	467.982	0.022	-0.051
-635.595	66.004	0.141	-0.144
-634.580	26.060	-0.051	0.043
-633.565	91.799	0.056	-0.064
-632.551	0.208	-0.074	0.053
-631.536	-200.000	0.061	0.434
-630.522	-200.000	-0.025	0.181
-629.507	-200.000	-0.009	-0.054
-628.492	-200.000	0.059	-0.335
-627.478	800.000	-0.119	0.346
-626.463	-21.653	0.143	0.088
-625.449	800.000	-0.074	0.216
-624.434	145.408	-0.119	-0.161
-623.419	211.964	-0.134	0.212
-622.405	-200.000	-0.007	-0.137
-621.390	31.156	-0.230	-0.198
-620.376	-166.329	0.337	0.014
-619.361	-45.457	0.322	0.160
-618.346	-200.000	0.000	-0.156
-617.332	90.587	-0.054	-0.060
-616.317	105.334	-0.034	-0.040
-615.303	-200.000	0.012	0.063
-614.288	230.250	0.092	-0.151
-613.273	-90.346	0.240	-0.070
-612.259	-200.000	0.012	-0.166
-611.244	-17.147	0.248	0.158
-610.230	800.000	-0.020	-0.089
-609.215	-90.430	-0.400	0.117
-608.201	-200.000	0.018	-0.080
-607.186	-200.000	0.032	-0.208
-606.171	-28.677	-0.368	-0.213
-605.157	800.000	-0.043	0.151
-604.142	84.908	-0.147	-0.162
-603.128	62.122	0.168	-0.169
-602.113	63.091	-0.173	0.174
-601.098	179.758	0.087	-0.128
-600.084	86.832	-0.151	0.168
-599.069	-133.544	0.089	0.011
-598.055	189.117	0.325	-0.490
-597.040	199.897	-0.130	-0.200
-596.025	238.857	0.094	-0.157
-595.011	800.000	-0.036	0.101
-593.996	-200.000	-0.028	-0.389
-592.982	-79.431	0.256	-0.087
-591.967	-200.000	-0.002	0.127
-590.952	-126.715	0.178	-0.026
-589.938	128.391	-0.120	0.153
-588.923	-131.059	0.100	0.013
-587.909	800.000	-0.025	-0.094
-586.894	206.191	-0.183	0.285
-585.879	6.966	-0.159	-0.119
-584.865	252.916	-0.061	-0.104
-583.850	-123.658	0.130	0.021
-582.836	40.544	0.078	-0.070
-581.821	134.722	-0.130	-0.169
-580.806	616.886	0.127	0.320
-579.792	313.068	-0.021	0.040
-578.777	-123.678	-0.306	-0.049
-577.763	297.748	0.118	0.217
-576.748	-200.000	0.011	0.150
-575.733	-151.160	-0.358	0.027
-574.719	-21.675	-0.089	-0.054
-573.704	-73.982	0.234	-0.085
-572.690	-169.818	0.380	0.014
-571.675	-73.789	0.099	-0.036
-570.661	-10.364	-0.332	-0.221
-569.646	-135.649	0.117	-0.014
-568.631	-148.840	0.110	-0.009
-567.617	-200.000	-0.066	0.305
-566.602	-116.939	-0.253	0.046
-565.588	-20.899	-0.222	0.137
-564.573	800.000	-0.070	-0.274
-563.558	-200.000	0.005	-0.035
-562.544	800.000	0.051	-0.148
-561.529	-200.000	-0.016	0.272
-560.515	54.309	0.302	0.292
-559.500	230.729	-0.219	0.359
-558.485	-68.755	-0.043	-0.017
-557.471	794.653	-0.044	0.121
-556.456	69.705	-0.277	-0.286
-555.442	18.759	-0.176	0.141
-554.427	-118.130	-0.257	-0.046
-553.412	292.331	-0.099	-0.182
-552.398	-61.317	-0.183	-0.077
-551.383	-200.000	-0.072	0.477
-550.369	-105.415	-0.258	-0.059
-549.354	-100.188	0.105	-0.026
-548.339	-76.786	-0.339	-0.119
-547.325	18.592	0.258	-0.207
-546.310	-99.423	-0.280	-0.071
-545.296	-19.536	-0.195	-0.121
-544.281	724.756	0.090	-0.242
-543.266	-189.947	-0.130	-0.001
-542.252	-200.000	0.066	0.401
-541.237	343.479	-0.187	0.368
-540.223	800.000	0.023	0.081
-539.208	226.482	-0.078	-0.126
-538.193	20.504	0.073	0.059
-537.179	800.000	-0.104	0.388
-536.164	-65.878	0.196	-0.079
-535.150	-132.183	-0.446	0.058
-534.135	-200.000	0.009	0.358
-533.121	102.390	0.221	0.259
-532.106	-47.063	-0.061	-0.030
-531.091	19.091	0.107	0.086
-530.077	-7.620	-0.273	0.185
-529.062	-17.702	0.215	0.136
-528.048	-39.377	0.148	-0.078
-527.033	-103.465	-0.206	0.048
-526.018	58.625	-0.225	0.222
-525.004	135.931	-0.274	-0.357
-523.989	-52.886	0.093	0.043
-522.975	-200.000	0.029	0.309
-521.960	-43.107	-0.165	0.084
-520.945	97.566	-0.047	-0.054
-519.931	-123.017	-0.339	-0.055
-518.916	60.736	0.046	-0.045
-517.902	-152.823	-0.224	-0.016
-516.887	791.958	-0.065	0.180
-515.872	-200.000	0.008	-0.288
-514.858	-109.925	-0.207	0.043
-513.843	-200.000	-0.040	0.189
-512.829	-61.842	0.283	-0.119
-511.814	28.294	0.234	0.198
-510.799	-200.000	0.053	0.240
-509.785	-136.499	-0.190	0.022
-508.770	-67.445	-0.131	-0.051
-507.756	127.483	-0.077	0.098
-506.741	64.723	-0.130	0.131
-505.726	60.219	0.136	0.134
-504.712	636.027	0.064	0.162
-503.697	-200.000	0.022	0.175
-502.683	91.962	0.165	0.185
-501.668	302.161	0.141	-0.262
-500.653	130.494	-0.208	0.267
-499.639	128.991	-0.152	0.195
-498.624	-55.943	-0.132	0.059
-497.610	-200.000	-0.007	0.095
-496.595	-175.317	-0.183	-0.005
-495.581	800.000	-0.044	-0.166
-494.566	-126.449	-0.132	-0.020
-493.551	800.000	-0.041	0.170
-492.537	-71.092	0.017	-0.006
-491.522	800.000	-0.081	-0.331
-490.508	87.796	0.250	0.278
-489.493	-42.119	-0.513	0.263
-488.478	456.037	-0.113	-0.251
-487.464	72.624	-0.080	-0.083
-486.449	800.000	0.041	-0.129
-485.435	70.515	0.304	0.314
-484.420	-41.536	-0.113	0.058
-483.405	-53.505	0.144	-0.066
-482.391	-45.556	0.199	-0.099
-481.376	-69.769	0.605	-0.231
-480.362	113.107	-0.190	0.230
-479.347	-25.468	0.152	-0.090
-478.332	-200.000	-0.013	-0.080
-477.318	800.000	-0.008	-0.024
-476.303	208.826	-0.095	0.149
-475.289	171.146	-0.193	0.277
-474.274	-50.581	0.231	0.109
-473.259	-76.503	-0.094	-0.033
-472.245	800.000	0.046	0.161
-471.230	115.448	-0.206	-0.252
-470.216	100.945	0.079	-0.092
-469.201	134.760	0.138	-0.179
-468.186	145.676	0.139	-0.187
-467.172	-196.399	-0.209	0.001
-466.157	169.306	0.099	-0.142
-465.143	-200.000	0.032	-0.278
-464.128	556.415	-0.078	-0.187
-463.113	-200.000	-0.048	-0.351
-462.099	67.651	-0.228	-0.232
-461.084	534.012	0.080	0.189
-460.070	239.884	0.135	-0.224
-459.055	-200.000	0.068	0.337
-458.040	800.000	-0.051	-0.201
-457.026	59.955	0.023	-0.023
-456.011	244.299	-0.224	-0.377
-454.997	800.000	-0.083	-0.232
-453.982	151.027	0.219	-0.298
-452.968	800.000	-0.057	-0.247
-451.953	-84.294	-0.279	-0.088
-450.938	800.000	-0.147	-0.445
-449.924	33.958	0.180	0.157
-448.909	-200.000	0.038	-0.193
-447.895	800.000	0.020	0.089
-446.880	71.017	-0.024	-0.025
-445.865	-196.215	0.212	-0.001
-444.851	162.263	-0.127	0.177
-443.836	0.750	0.261	-0.187
-442.822	-23.482	0.233	-0.140
-441.807	-200.000	-0.013	-0.234
-440.792	-120.126	-0.552	-0.094
-439.778	381.537	-0.060	-0.124
-438.763	167.942	-0.100	-0.141
-437.749	-85.656	-0.059	0.018
-436.734	-102.375	0.175	0.042
-435.719	-177.335	-0.380	0.009
-434.705	-93.764	-0.092	-0.025
-433.690	-58.781	-0.233	0.101
-432.676	397.807	0.085	-0.177
-431.661	-36.909	0.025	-0.013
-430.646	-200.000	-0.032	0.194
-429.632	352.727	-0.081	0.161
-428.617	-2.027	0.151	0.106
-427.603	-200.000	0.045	0.253
-426.588	800.000	-0.079	-0.234
-425.573	-97.824	-0.126	0.032
-424.559	-17.192	-0.441	0.278
-423.544	-84.762	0.228	-0.072
-422.530	-97.830	0.213	0.055
-421.515	-200.000	-0.001	-0.286
-420.500	-139.004	-0.121	-0.013
-419.486	78.707	0.217	-0.232
-418.471	-9.882	-0.028	0.019
-417.457	129.524	0.344	0.439
-416.442	217.907	0.039	0.062
-415.428	-119.149	0.167	0.029
-414.413	3.624	-0.318	-0.232
-413.398	48.403	-0.161	-0.150
-412.384	-108.554	0.241	0.052
-411.369	240.691	0.124	0.207
-410.355	230.230	0.078	-0.127
-409.340	80.468	-0.171	0.184
-408.325	-200.000	0.009	0.053
-407.311	-141.456	-0.271	-0.027
-406.296	5.073	0.313	0.230
-405.282	248.344	0.050	0.085
-404.267	800.000	0.025	0.100
-403.252	800.000	-0.097	0.339
-402.238	17.404	0.160	0.127
-401.223	-45.710	-0.339	-0.167
-400.209	396.948	-0.057	0.119
-399.194	-200.000	0.045	0.209
-398.179	783.569	0.107	0.293
-397.165	800.000	-0.036	0.122
-396.150	-125.053	0.224	-0.034
-395.136	65.668	-0.134	0.135
-394.121	-200.000	0.035	-0.268
-393.106	-200.000	0.076	0.394
-392.092	-145.463	-0.150	0.013
-391.077	181.284	-0.158	0.232
-390.063	-200.000	0.061	0.362
-389.048	-96.963	0.431	0.113
-388.033	413.762	-0.198	-0.421
-387.019	-190.688	-0.141	0.001
-386.004	324.588	0.139	0.265
-384.990	200.052	0.170	-0.260
-383.975	325.951	0.103	-0.197
-382.960	175.842	-0.100	0.145
-381.946	-51.867	0.123	0.057
-380.931	800.000	0.052	0.164
-379.917	800.000	0.049	-0.186
-378.902	-2.542	-0.042	0.029
-377.888	-57.731	-0.195	0.085
-376.873	-200.000	-0.004	0.187
-375.858	18.373	0.239	0.190
-374.844	800.000	0.056	-0.171
-373.829	-200.000	0.016	-0.253
-372.815	800.000	0.057	0.214
-371.800	-83.659	-0.176	0.056
-370.785	63.222	0.174	0.174
-369.771	800.000	0.106	-0.359
-368.756	31.851	0.045	-0.039
-367.742	-114.953	0.256	-0.049
-366.727	800.000	-0.042	0.129
-365.712	-60.919	0.150	-0.063
-364.698	-200.000	-0.005	0.038
-363.683	297.129	-0.109	0.200
-362.669	-200.000	-0.030	0.167
-361.654	-64.697	-0.071	0.029
-360.639	800.000	-0.033	-0.118
-359.625	518.788	0.109	0.255
-358.610	-26.928	-0.326	0.189
-357.596	800.000	-0.019	0.079
-356.581	-25.518	0.263	0.155
-355.566	360.397	0.135	0.268
-354.552	-200.000	0.023	0.134
-353.537	39.639	0.072	-0.064
-352.523	-88.230	-0.017	-0.005
-351.508	-154.927	0.315	-0.021
-350.493	3.942	-0.168	-0.122
-349.479	-200.000	-0.051	-0.270
-348.464	36.860	0.027	0.024
-347.450	52.883	-0.191	0.182
-346.435	-17.040	0.168	-0.105
-345.420	-33.122	-0.266	0.147
-344.406	800.000	-0.035	-0.130
-343.391	479.129	0.020	-0.046
-342.377	317.845	-0.061	0.114
-341.362	126.568	-0.180	0.226
-340.348	329.021	-0.066	0.126
-339.333	-83.642	-0.094	-0.030
-338.318	100.218	0.389	-0.448
-337.304	200.757	0.185	-0.283
-336.289	551.061	0.083	0.197
-335.275	-31.921	0.018	0.010
-334.260	473.608	0.078	-0.174
-333.245	231.344	0.102	0.167
-332.231	-82.211	0.210	-0.068
-331.216	198.367	-0.113	-0.172
-330.202	-100.280	0.030	-0.007
-329.187	-45.545	0.214	-0.106
-328.172	5.550	-0.294	-0.216
-327.158	543.247	0.058	0.138
-326.143	50.463	-0.179	-0.169
-325.129	-115.145	-0.306	0.058
-324.114	5.870	0.172	0.127
-323.099	-61.290	-0.135	0.057
-322.085	-93.446	-0.104	-0.029
-321.070	215.307	-0.335	0.529
-320.056	-103.540	-0.232	-0.054
-319.041	99.642	-0.191	-0.220
-318.026	-96.558	0.171	0.045
-317.012	286.024	0.109	-0.195
-315.997	44.252	-0.324	0.296
-314.983	-130.734	0.055	0.007
-313.968	-200.000	-0.014	0.468
-312.953	-130.159	0.149	0.020
-311.939	257.372	0.048	0.083
-310.924	-168.292	-0.392	-0.015
-309.910	-200.000	-0.046	-0.227
-308.895	-8.305	-0.166	-0.111
-307.880	-200.000	-0.004	0.204
-306.866	-59.815	0.293	0.125
-305.851	515.170	-0.033	0.077
-304.837	-78.129	-0.351	-0.120
-303.822	99.152	-0.201	0.231
-302.807	36.524	-0.145	-0.127
-301.793	29.479	0.333	-0.282
-300.778	-87.259	0.261	-0.079
-299.764	104.768	0.095	-0.112
-298.749	-200.000	0.014	-0.133
-297.735	334.277	-0.033	0.063
-296.720	-200.000	0.009	-0.134
-295.705	131.019	-0.201	0.256
-294.691	-75.764	-0.128	0.045
-293.676	62.217	0.034	-0.034
-292.662	-81.414	-0.086	0.028
-291.647	800.000	-0.039	-0.153
-290.632	-66.686	0.227	0.089
-289.618	-47.877	0.194	-0.093
-288.603	150.192	0.249	0.335
-287.589	-23.593	0.314	-0.187
-286.574	-45.313	0.377	-0.186
-285.559	263.323	0.065	0.111
-284.545	31.705	0.100	-0.085
-283.530	100.993	-0.153	0.177
-282.516	-72.989	-0.216	-0.079
-281.501	-200.000	0.009	-0.179
-280.486	-96.672	0.046	-0.012
-279.472	201.441	0.276	0.422
-278.457	-40.596	-0.289	-0.149
-277.443	-110.441	0.367	0.076
-276.428	-72.649	-0.040	0.014
-275.413	441.028	0.148	-0.322
-274.399	-20.125	0.092	-0.057
-273.384	124.817	0.042	-0.052
-272.370	-61.208	0.117	0.049
-271.355	-31.949	0.261	-0.145
-270.340	-200.000	-0.000	-0.077
-269.326	-152.065	-0.254	-0.018
-268.311	32.828	-0.167	-0.144
-267.297	481.786	-0.063	-0.142
-266.282	656.291	0.058	-0.147
-265.267	-4.040	0.075	-0.051
-264.253	-119.032	-0.338	-0.059
-263.238	800.000	0.058	0.183
-262.224	22.854	0.116	0.094
-261.209	-200.000	-0.243	-0.001
-260.195	706.792	-0.065	-0.170
-259.180	31.532	-0.082	0.070
-258.165	110.520	0.238	0.284
-257.151	-200.000	0.003	-0.173
-256.136	267.077	-0.102	0.177
-255.122	-108.869	-0.257	-0.054
-254.107	111.001	0.199	-0.238
-253.092	438.501	0.160	-0.347
-252.078	773.386	0.072	-0.193
-251.063	70.749	0.146	-0.150
-250.049	470.067	0.102	0.227
-249.034	-45.772	0.167	0.082
-248.019	141.014	-0.067	-0.088
-247.005	555.542	0.038	0.092
-245.990	-200.000	0.016	-0.247
-244.976	-200.000	0.015	0.165
-243.961	242.484	0.078	0.130
-242.946	27.426	-0.263	0.219
-241.932	-55.660	-0.237	0.105
-240.917	731.251	-0.070	-0.184
-239.903	96.477	0.125	0.142
-238.888	-200.000	0.022	-0.264
-237.873	-200.000	-0.049	-0.233
-236.859	-157.958	-0.170	0.010
-235.844	-107.499	-0.596	-0.129
-234.830	39.624	-0.194	-0.173
-233.815	41.800	-0.265	0.238
-232.800	13.686	-0.168	-0.129
-231.786	-9.407	0.094	0.062
-230.771	-181.185	-0.174	0.003
-229.757	-143.433	0.173	0.016
-228.742	800.000	-0.092	0.346
-227.727	146.157	0.139	0.185
-226.713	26.867	-0.162	-0.134
-225.698	-200.000	0.009	0.092
-224.684	800.000	0.082	-0.331
-223.669	-200.000	-0.045	-0.215
-222.655	413.997	0.094	0.197
-221.640	-167.378	0.337	-0.013
-220.625	77.302	-0.106	0.112
-219.611	-67.395	0.295	0.115
-218.596	84.589	0.086	-0.094
-217.582	800.000	-0.166	-0.540
-216.567	193.136	-0.165	0.247
-215.552	-143.555	0.219	-0.021
-214.538	140.730	-0.220	-0.288
-213.523	198.446	0.141	0.214
-212.509	550.303	-0.125	-0.297
-211.494	352.103	-0.100	-0.196
-210.479	-37.953	0.324	-0.171
-209.465	-72.001	0.119	-0.044
-208.450	-200.000	-0.010	0.192
-207.436	-75.357	-0.105	-0.037
-206.421	-76.303	0.069	0.024
-205.406	46.426	0.168	-0.154
-204.392	-200.000	-0.048	0.219
-203.377	35.608	-0.106	-0.092
-202.363	-113.022	0.492	-0.096
-201.348	460.617	-0.098	-0.217
-200.333	53.984	0.118	0.113
-199.319	-110.477	0.443	-0.091
-198.304	71.738	0.280	-0.288
-197.290	196.592	-0.096	-0.145
-196.275	138.228	0.189	-0.245
-195.260	-200.000	-0.032	0.567
-194.246	-14.714	0.223	0.142
-193.231	35.227	-0.185	0.161
-192.217	-168.238	0.171	0.007
-191.202	88.736	0.159	-0.174
-190.187	175.077	0.129	-0.185
-189.173	-200.000	-0.001	0.056
-188.158	-62.264	-0.131	0.054
-187.144	183.532	-0.051	-0.075
-186.129	-200.000	-0.038	-0.165
-185.114	800.000	0.054	-0.148
-184.100	-95.181	0.148	-0.040
-183.085	441.170	0.049	0.106
-182.071	-64.200	0.100	-0.040
-181.056	371.744	0.204	0.409
-180.042	-25.516	0.314	0.183
-179.027	159.957	0.180	0.248
-178.012	45.714	-0.303	-0.277
-176.998	-95.767	-0.183	0.048
-175.983	70.108	0.186	-0.190
-174.969	155.174	-0.112	-0.153
-173.954	735.831	0.037	0.098
-172.939	414.775	0.050	-0.106
-171.925	-200.000	-0.012	0.141
-170.910	541.514	-0.175	0.413
-169.896	126.737	0.046	-0.058
-168.881	-75.065	0.227	0.080
-167.866	800.000	-0.135	-0.446
-166.852	51.837	0.122	0.114
-165.837	-62.234	-0.069	0.028
-164.823	175.299	0.168	0.240
-163.808	573.938	-0.038	0.091
-162.793	800.000	0.046	-0.184
-161.779	800.000	0.067	-0.241
-160.764	100.104	-0.215	-0.247
-159.750	-40.754	0.241	0.123
-158.735	94.079	0.134	-0.150
-157.720	107.183	0.113	-0.133
-156.706	-200.000	0.026	-0.144
-155.691	-1.539	0.065	0.046
-154.677	-200.000	-0.001	0.196
-153.662	393.443	-0.145	-0.299
-152.647	-68.456	0.295	-0.113
-151.633	-200.000	-0.020	-0.292
-150.618	-87.800	0.152	-0.045
-149.604	30.237	-0.231	0.194
-148.589	800.000	-0.083	-0.310
-147.574	58.052	0.068	-0.066
-146.560	-106.569	0.250	-0.055
-145.545	-173.703	0.322	-0.009
-144.531	-200.000	-0.205	-0.001
-143.516	-200.000	0.016	0.248
-142.502	-154.547	-0.046	0.003
-141.487	-51.738	-0.051	-0.023
-140.472	134.637	0.127	-0.163
-139.458	332.071	0.102	0.193
-138.443	122.981	0.252	0.312
-137.429	-75.935	-0.113	-0.039
-136.414	-121.772	-0.131	0.021
-135.399	-120.161	-0.340	-0.057
-134.385	459.389	-0.066	0.144
-133.370	-2.206	-0.298	0.207
-132.356	800.000	0.049	-0.185
-131.341	-200.000	-0.009	0.135
-130.326	192.338	-0.121	0.181
-129.312	165.171	0.016	-0.023
-128.297	-36.740	0.164	-0.087
-127.283	106.252	0.067	-0.079
-126.268	-200.000	-0.061	-0.345
-125.253	205.673	0.247	0.379
-124.239	-62.343	0.259	0.106
-123.224	0.544	0.181	-0.128
-122.210	800.000	-0.113	0.429
-121.195	125.837	0.212	-0.265
-120.180	-178.170	0.073	-0.002
-119.166	-139.983	0.204	0.021
-118.151	2.587	0.223	0.160
-117.137	66.724	0.277	-0.278
-116.122	-200.000	-0.067	-0.324
-115.107	-200.000	-0.008	0.129
-114.093	800.000	0.100	0.281
-113.078	138.338	0.250	0.323
-112.064	48.633	0.168	0.155
-111.049	-158.650	-0.277	-0.016
-110.034	-200.000	0.055	0.286
-109.020	-52.707	0.228	0.104
-108.005	-98.138	0.033	-0.008
-106.991	-61.069	0.406	0.169
-105.976	-200.000	-0.057	-0.266
-104.962	800.000	0.056	-0.202
-103.947	-200.000	-0.038	-0.170
-102.932	-134.117	0.363	0.044
-101.918	-200.000	0.037	0.319
-100.903	-145.165	0.421	0.038
-99.889	-118.664	0.119	-0.021
-98.874	433.569	-0.067	0.143
-97.859	14.192	-0.162	-0.124
-96.845	-200.000	0.009	-0.082
-95.830	-200.000	-0.051	-0.328
-94.816	-18.811	-0.152	-0.093
-93.801	131.934	0.048	0.060
-92.786	167.309	0.146	0.204
-91.772	800.000	-0.094	0.384
-90.757	-33.983	-0.050	0.027
-89.743	-32.529	-0.305	0.167
-88.728	-154.754	-0.050	-0.003
-87.713	126.642	0.153	-0.190
-86.699	800.000	-0.168	0.521
-85.684	-200.000	-0.004	0.197
-84.670	-24.568	0.088	-0.052
-83.655	-62.658	-0.347	-0.142
-82.640	-200.000	0.033	-0.209
-81.626	-21.055	0.094	0.056
-80.611	-14.809	-0.077	-0.048
-79.597	22.198	0.278	-0.223
-78.582	-57.951	-0.218	-0.094
-77.567	-200.000	-0.010	-0.280
-76.553	61.532	-0.080	0.078
-75.538	-200.000	-0.033	0.180
-74.524	-63.352	0.149	-0.060
-73.509	-200.000	-0.019	0.260
-72.494	706.141	-0.081	0.212
-71.480	58.067	0.045	0.043
-70.465	178.961	0.099	0.142
-69.451	-122.232	-0.390	0.063
-68.436	391.822	0.219	-0.448
-67.422	-90.179	-0.305	-0.087
-66.407	137.023	0.092	-0.118
-65.392	655.569	-0.089	-0.225
-64.378	625.227	0.181	0.449
-63.363	146.307	0.121	0.160
-62.349	-95.661	-0.173	-0.046
-61.334	68.644	-0.862	-0.870
-60.319	90.334	0.601	0.662
-59.305	-200.000	-0.152	-1.158
-58.290	425.902	0.510	1.082
-57.276	800.000	0.403	1.618
-56.261	-200.000	111.837	636.848
-55.246	470.705	1498.029	3314.620
-54.232	145.613	2673.439	3524.178
-53.217	94.581	2320.375	2594.842
-52.203	34.030	2070.424	1774.494
-51.188	29.485	1984.171	1659.746
-50.173	27.979	1967.336	1632.159
-49.159	46.204	2024.944	1845.533
-48.144	45.419	2041.063	1853.041
-47.130	30.003	2000.554	1677.875
-46.115	27.694	1990.410	1648.461
-45.100	27.567	1987.395	1644.760
-44.086	27.620	1984.552	1642.814
-43.071	27.476	1982.436	1639.703
-42.057	27.515	1980.222	1638.155
-41.042	27.493	1978.886	1636.789
-40.027	27.508	1976.680	1635.032
-39.013	27.566	1975.000	1634.103
-37.998	27.600	1973.142	1632.800
-36.984	27.655	1971.268	1631.677
-35.969	27.566	1969.510	1629.362
-34.954	27.583	1967.921	1628.136
-33.940	27.659	1965.967	1627.132
-32.925	27.739	1964.372	1626.463
-31.911	27.674	1963.142	1624.796
-30.896	27.669	1961.259	1623.128
-29.881	27.688	1959.872	1622.085
-28.867	27.612	1958.711	1620.384
-27.852	27.734	1956.568	1619.632
-26.838	27.770	1954.347	1618.053
-25.823	27.771	1952.872	1616.775
-24.809	27.669	1951.506	1614.674
-23.794	27.675	1949.210	1612.760
-22.779	27.714	1947.713	1611.803
-21.765	27.782	1945.672	1610.654
-20.750	27.648	1944.611	1608.526
-19.736	27.692	1942.703	1607.273
-18.721	27.708	1940.961	1605.914
-17.706	27.657	1939.698	1604.357
-16.692	27.738	1937.931	1603.543
-15.677	27.727	1936.325	1602.054
-14.663	27.641	1935.572	1600.607
-13.648	27.681	1934.239	1599.794
-12.633	27.729	1932.525	1598.733
-11.619	27.628	1931.393	1596.852
-10.604	27.655	1930.037	1595.903
-9.590	27.707	1928.864	1595.319
-8.575	27.668	1927.066	1593.435
-7.560	27.718	1925.783	1592.745
-6.546	27.715	1924.373	1591.487
-5.531	27.637	1923.617	1590.122
-4.517	27.694	1921.842	1589.085
-3.502	27.701	1921.215	1588.567
-2.487	27.693	1920.076	1587.490
-1.473	27.681	1918.857	1586.315
-0.458	27.818	1913.561	1583.061
0.556	25.777	1894.966	1556.623
1.571	21.912	1876.806	1508.413
2.586	18.313	1900.184	1495.681
3.600	17.337	1936.045	1515.086
4.615	17.234	1930.831	1509.955
5.629	15.717	1837.323	1423.863
6.644	12.373	1732.726	1315.942
7.659	10.525	1701.422	1277.512
8.673	10.301	1698.811	1273.678
9.688	10.270	1697.291	1272.182
10.702	10.291	1695.325	1270.758
11.717	10.157	1692.346	1267.367
12.731	10.468	1690.283	1268.139
13.746	12.931	1695.023	1290.878
14.761	16.250	1702.223	1322.291
15.775	17.627	1703.970	1334.326
16.790	17.221	1701.804	1329.335
17.804	16.208	1697.809	1318.184
18.819	15.155	1694.907	1307.599
19.834	14.461	1692.348	1300.100
20.848	14.137	1690.522	1296.063
21.863	13.891	1688.809	1292.713
22.877	13.649	1687.334	1289.589
23.892	13.446	1685.945	1286.839
24.907	13.362	1685.029	1285.372
25.921	13.382	1683.734	1284.422
26.936	13.405	1682.961	1283.898
27.950	13.409	1681.923	1283.024
28.965	13.442	1681.480	1282.827
29.980	13.445	1680.855	1282.265
30.994	13.503	1679.758	1281.761
32.009	13.626	1678.058	1281.302
33.023	13.603	1677.478	1280.568
34.038	13.634	1676.410	1279.879
35.053	13.634	1675.152	1278.809
36.067	13.588	1673.798	1277.303
37.082	13.468	1672.801	1275.503
38.096	13.530	1671.925	1275.201
39.111	13.524	1671.125	1274.433
40.126	13.578	1670.085	1273.939
41.140	13.616	1668.933	1273.242
42.155	13.385	1667.826	1270.514
43.169	13.381	1665.913	1268.910
44.184	13.331	1664.800	1267.570
45.199	13.319	1664.150	1266.866
46.213	13.317	1662.921	1265.804
47.228	13.296	1661.703	1264.605
48.242	13.318	1660.700	1263.902
49.257	13.442	1659.169	1263.571
50.271	13.427	1658.012	1262.459
51.286	13.372	1657.028	1261.179
52.301	13.443	1655.231	1260.240
53.315	13.479	1653.644	1259.200
54.330	13.377	1652.517	1257.449
55.344	13.359	1650.935	1256.000
56.359	13.351	1649.115	1254.446
57.374	13.380	1648.268	1253.910
58.388	13.393	1646.894	1252.851
59.403	13.372	1645.709	1251.683
60.417	13.297	1644.231	1249.880
61.432	13.231	1643.514	1248.721
62.447	13.260	1642.368	1247.958
63.461	13.259	1641.002	1246.806
64.476	13.191	1640.108	1245.504
65.490	13.170	1638.930	1244.343
66.505	13.160	1637.652	1243.184
67.520	13.172	1636.946	1242.626
68.534	13.206	1635.885	1241.969
69.549	13.219	1634.857	1241.173
70.563	13.302	1632.812	1240.137
71.578	13.164	1632.332	1238.630
72.593	13.203	1631.189	1237.945
73.607	13.213	1630.072	1237.063
74.622	13.095	1629.740	1235.815
75.636	13.048	1628.538	1234.442
76.651	13.147	1627.607	1234.366
77.666	13.123	1626.865	1233.516
78.680	13.224	1625.753	1233.321
79.695	13.156	1624.589	1231.816
80.709	13.137	1623.591	1230.813
81.724	13.203	1622.972	1230.727
82.739	13.270	1622.292	1230.599
83.753	13.358	1621.356	1230.437
84.768	13.444	1620.079	1230.000
85.782	13.494	1620.223	1230.370
86.797	13.442	1619.259	1229.145
87.812	13.521	1617.919	1228.605
88.826	13.449	1616.592	1226.953
89.841	13.412	1615.777	1225.952
90.855	13.475	1614.577	1225.395
91.870	13.409	1613.497	1223.984
92.884	13.479	1612.696	1223.782
93.899	13.504	1611.615	1223.036
94.914	13.445	1610.618	1221.737
95.928	13.491	1609.225	1220.912
96.943	13.613	1607.227	1220.186
97.957	13.586	1605.680	1218.710
98.972	13.528	1604.613	1217.360
99.987	13.451	1603.659	1215.962
101.001	13.564	1601.491	1215.043
102.016	13.594	1600.018	1214.036
103.030	13.458	1598.775	1211.993
104.045	13.535	1597.960	1211.829
105.060	13.508	1596.441	1210.371
106.074	13.490	1594.610	1208.744
107.089	13.402	1593.204	1206.934
108.103	13.306	1591.400	1204.758
109.118	13.261	1589.799	1203.117
110.133	13.299	1588.264	1202.121
111.147	13.312	1586.958	1201.118
112.162	13.270	1586.275	1200.191
113.176	13.277	1584.809	1199.029
114.191	13.308	1583.274	1197.983
115.206	13.364	1581.968	1197.298
116.220	13.401	1580.536	1196.377
117.235	13.428	1579.016	1195.310
118.249	13.345	1577.800	1193.685
119.264	13.381	1576.445	1192.815
120.279	13.349	1575.012	1191.394
121.293	13.294	1573.527	1189.770
122.308	13.290	1572.411	1188.796
123.322	13.247	1570.386	1186.848
124.337	13.329	1568.595	1185.977
125.352	13.243	1567.630	1184.530
126.366	13.229	1566.803	1183.699
127.381	13.274	1565.464	1182.902
128.395	13.225	1564.074	1181.399
129.410	13.260	1562.750	1180.541
130.424	13.303	1561.625	1179.896
131.439	13.330	1560.195	1178.903
132.454	13.244	1558.881	1177.191
133.468	13.404	1557.269	1177.012
134.483	13.251	1556.313	1175.098
135.497	13.322	1554.511	1174.133
136.512	13.371	1553.589	1173.686
137.527	13.387	1551.692	1172.261
138.541	13.419	1550.818	1171.723
139.556	13.419	1549.088	1170.315
140.570	13.406	1548.205	1169.449
141.585	13.523	1546.757	1169.076
142.600	13.478	1545.362	1167.603
143.614	13.572	1544.194	1167.278
144.629	13.646	1542.763	1166.618
145.643	13.663	1541.364	1165.576
146.658	13.676	1539.838	1164.410
147.673	13.677	1538.696	1163.449
148.687	13.553	1537.488	1161.564
149.702	13.542	1535.724	1160.051
150.716	13.584	1533.935	1158.889
151.731	13.455	1532.744	1156.987
152.746	13.538	1530.993	1156.144
153.760	13.583	1529.528	1155.248
154.775	13.548	1528.547	1154.160
155.789	13.623	1527.523	1153.809
156.804	13.528	1526.393	1152.189
157.819	13.706	1525.325	1152.520
158.833	13.651	1523.635	1150.761
159.848	13.700	1522.597	1150.213
160.862	13.775	1521.920	1150.121
161.877	13.825	1520.206	1149.071
162.892	13.681	1519.552	1147.477
163.906	13.658	1518.096	1146.119
164.921	13.638	1516.673	1144.805
165.935	13.577	1515.659	1143.517
166.950	13.591	1514.342	1142.516
167.964	13.689	1513.229	1142.250
168.979	13.592	1512.765	1141.128
169.994	13.731	1511.259	1140.850
171.008	13.765	1509.697	1139.806
172.023	13.694	1509.091	1138.759
173.037	13.720	1507.583	1137.695
174.052	13.877	1506.336	1137.731
175.067	13.814	1505.803	1136.796
176.081	13.763	1504.829	1135.611
177.096	13.776	1503.239	1134.400
178.110	13.723	1501.886	1132.915
179.125	13.675	1500.857	1131.713
180.140	13.692	1500.112	1131.168
181.154	13.787	1498.890	1130.796
182.169	13.829	1497.319	1129.791
183.183	13.874	1496.034	1129.030
184.198	13.870	1495.316	1128.363
185.213	13.885	1494.544	1127.780
186.227	13.993	1493.193	1127.394
187.242	13.897	1492.157	1125.865
188.256	14.066	1490.630	1125.754
189.271	13.972	1490.298	1124.768
190.286	14.045	1489.029	1124.204
191.300	14.039	1487.603	1122.986
192.315	13.893	1486.417	1121.010
193.329	13.708	1484.966	1118.569
194.344	13.716	1484.270	1117.995
195.359	13.751	1483.013	1117.187
196.373	13.780	1482.384	1116.810
197.388	13.883	1481.177	1116.494
198.402	13.850	1480.045	1115.322
199.417	14.090	1478.811	1115.904
200.432	14.123	1477.952	1115.377
201.446	14.181	1477.069	1115.000
202.461	14.142	1476.072	1113.891
203.475	14.164	1474.840	1113.008
204.490	14.325	1473.312	1112.829
205.504	14.244	1472.209	1111.358
206.519	14.185	1470.760	1109.771
207.534	14.118	1470.158	1108.773
208.548	14.142	1469.055	1108.003
209.563	14.141	1467.935	1107.053
210.577	14.134	1467.245	1106.388
211.592	14.195	1466.210	1105.914
212.607	14.208	1465.547	1105.406
213.621	14.366	1464.478	1105.547
214.636	14.399	1463.704	1105.085
215.650	14.341	1462.616	1103.784
216.665	14.278	1462.007	1102.806
217.680	14.307	1461.442	1102.478
218.694	14.400	1460.182	1102.045
219.709	14.455	1459.270	1101.619
220.723	14.451	1457.717	1100.322
221.738	14.491	1456.976	1099.932
222.753	14.451	1456.267	1099.034
223.767	14.345	1455.618	1097.751
224.782	14.368	1454.715	1097.125
225.796	14.402	1453.497	1096.334
226.811	14.485	1452.767	1096.227
227.826	14.550	1451.862	1095.879
228.840	14.524	1451.023	1094.974
229.855	14.547	1449.965	1094.229
230.869	14.427	1449.196	1092.770
231.884	14.550	1447.812	1092.432
232.899	14.513	1446.986	1091.468
233.913	14.481	1445.836	1090.295
234.928	14.406	1444.449	1088.666
235.942	14.345	1443.336	1087.331
236.957	14.414	1441.640	1086.407
237.972	14.398	1440.956	1085.695
238.986	14.432	1439.907	1085.028
240.001	14.428	1439.127	1084.315
241.015	14.569	1437.866	1084.187
242.030	14.515	1436.662	1082.835
243.045	14.540	1436.100	1082.479
244.059	14.578	1434.962	1081.771
245.074	14.535	1434.294	1080.890
246.088	14.659	1433.274	1080.827
247.103	14.602	1432.543	1079.816
248.117	14.683	1431.994	1079.830
249.132	14.729	1431.209	1079.437
250.147	14.864	1430.116	1079.387
251.161	14.965	1429.667	1079.610
252.176	15.015	1428.870	1079.231
253.190	15.029	1428.709	1079.107
254.205	14.934	1427.821	1077.729
255.220	15.043	1426.508	1077.344
256.234	15.051	1426.295	1077.138
257.249	15.082	1425.070	1076.318
258.263	15.071	1424.357	1075.610
259.278	15.190	1422.946	1075.215
260.293	15.134	1422.273	1074.252
261.307	15.143	1421.145	1073.364
262.322	15.163	1420.498	1072.905
263.336	15.136	1420.097	1072.337
264.351	15.140	1419.034	1071.466
265.366	15.285	1417.628	1071.236
266.380	15.295	1417.104	1070.811
267.395	15.257	1415.774	1069.469
268.409	15.340	1414.368	1068.836
269.424	15.164	1413.736	1067.147
270.439	15.241	1412.735	1066.786
271.453	15.303	1411.525	1066.173
272.468	15.253	1410.906	1065.293
273.482	15.210	1410.315	1064.477
274.497	15.203	1409.658	1063.845
275.512	15.252	1408.077	1062.867
276.526	15.237	1407.657	1062.359
277.541	15.181	1406.909	1061.346
278.555	15.264	1405.478	1060.702
279.570	15.255	1405.091	1060.256
280.585	15.380	1403.831	1060.002
281.599	15.480	1402.876	1059.818
282.614	15.492	1402.028	1059.159
283.628	15.349	1401.271	1057.595
284.643	15.487	1399.806	1057.262
285.657	15.337	1398.887	1055.533
286.672	15.366	1397.695	1054.718
287.687	15.383	1397.241	1054.389
288.701	15.440	1396.006	1053.721
289.716	15.308	1395.590	1052.487
290.730	15.528	1394.757	1053.149
291.745	15.428	1393.212	1051.261
292.760	15.441	1392.536	1050.738
293.774	15.529	1391.420	1050.353
294.789	15.470	1390.251	1049.012
295.803	15.614	1389.903	1049.551
296.818	15.595	1388.610	1048.368
297.833	15.587	1387.791	1047.607
298.847	15.486	1387.137	1046.390
299.862	15.453	1386.134	1045.332
300.876	15.644	1384.677	1045.333
301.891	15.710	1383.194	1044.532
302.906	15.646	1383.481	1044.259
303.920	15.546	1382.972	1043.159
304.935	15.762	1381.696	1043.443
305.949	15.731	1380.768	1042.460
306.964	15.850	1380.078	1042.583
307.979	15.863	1379.310	1041.988
308.993	15.740	1378.431	1040.473
310.008	15.740	1377.852	1039.942
311.022	15.842	1376.320	1039.325
312.037	15.757	1375.519	1038.103
313.052	15.810	1374.924	1037.892
314.066	15.827	1373.273	1036.655
315.081	15.730	1372.276	1035.216
316.095	15.717	1371.603	1034.536
317.110	15.758	1370.164	1033.610
318.125	15.773	1369.335	1032.985
319.139	15.736	1368.583	1032.100
320.154	15.747	1367.395	1031.179
321.168	15.714	1366.567	1030.264
322.183	15.754	1365.430	1029.562
323.197	15.799	1364.537	1029.071
324.212	15.881	1363.477	1028.684
325.227	15.865	1362.875	1028.040
326.241	15.855	1361.959	1027.195
327.256	15.824	1361.416	1026.508
328.270	15.863	1360.368	1025.864
329.285	15.899	1359.558	1025.379
330.300	15.854	1358.449	1024.180
331.314	15.895	1357.729	1023.794
332.329	15.814	1356.908	1022.593
333.343	15.849	1356.113	1022.114
334.358	15.961	1354.721	1021.657
335.373	16.017	1354.118	1021.451
336.387	16.026	1353.370	1020.848
337.402	16.001	1352.568	1020.000
338.416	16.016	1351.849	1019.464
339.431	16.026	1351.420	1019.105
340.446	16.237	1350.614	1019.688
341.460	16.189	1349.533	1018.487
342.475	16.165	1349.008	1017.856
343.489	16.176	1348.100	1017.150
344.504	16.308	1347.054	1017.065
345.519	16.312	1345.939	1016.158
346.533	16.356	1345.222	1015.791
347.548	16.467	1344.012	1015.455
348.562	16.382	1343.659	1014.588
349.577	16.264	1342.995	1013.289
350.592	16.333	1341.969	1012.835
351.606	16.297	1341.249	1011.991
352.621	16.410	1339.312	1011.117
353.635	16.142	1338.789	1009.026
354.650	16.220	1338.048	1008.845
355.665	16.228	1337.060	1008.061
356.679	16.350	1335.448	1007.481
357.694	16.314	1334.839	1006.720
358.708	16.380	1333.595	1006.082
359.723	16.427	1332.605	1005.529
360.738	16.361	1331.535	1004.240
361.752	16.315	1331.076	1003.531
362.767	16.376	1329.809	1002.849
363.781	16.401	1328.446	1001.883
364.796	16.507	1328.100	1002.162
365.810	16.489	1327.285	1001.351
366.825	16.627	1326.674	1001.614
367.840	16.651	1325.999	1001.157
368.854	16.665	1324.732	1000.198
369.869	16.744	1324.563	1000.446
370.883	16.751	1323.819	999.837
371.898	16.709	1322.842	998.766
372.913	16.523	1322.351	997.207
373.927	16.602	1321.434	996.896
374.942	16.659	1320.620	996.526
375.956	16.786	1319.804	996.570
376.971	16.744	1318.653	995.365
377.986	16.747	1317.827	994.671
379.000	16.786	1317.203	994.343
380.015	16.839	1316.216	993.819
381.029	16.827	1315.821	993.363
382.044	16.812	1314.953	992.533
383.059	16.897	1314.337	992.477
384.073	16.859	1313.781	991.747
385.088	16.848	1313.139	991.113
386.102	16.967	1312.174	990.991
387.117	16.917	1311.387	990.015
388.132	16.926	1310.933	989.640
389.146	16.917	1309.806	988.647
390.161	16.778	1309.534	987.547
391.175	16.859	1308.500	987.152
392.190	16.876	1307.519	986.422
393.205	16.908	1306.297	985.597
394.219	16.942	1305.162	984.852
395.234	17.063	1304.176	984.724
396.248	17.007	1303.255	983.615
397.263	17.023	1301.550	982.336
398.278	17.031	1299.966	981.101
399.292	16.850	1299.631	979.715
400.307	16.858	1298.258	978.635
401.321	17.067	1296.832	978.683
402.336	16.920	1296.301	977.346
403.350	16.852	1295.511	976.274
404.365	16.805	1294.685	975.296
405.380	16.930	1293.451	974.995
406.394	16.935	1293.040	974.628
407.409	17.001	1292.097	974.212
408.423	17.145	1291.182	974.259
409.438	17.113	1291.023	973.873
410.453	17.207	1290.023	973.571
411.467	17.215	1289.801	973.362
412.482	17.251	1289.202	973.029
413.496	17.321	1288.322	972.682
414.511	17.372	1287.233	972.065
415.526	17.285	1286.584	970.992
416.540	17.359	1285.819	970.747
417.555	17.482	1285.091	970.817
418.569	17.427	1284.575	970.026
419.584	17.460	1284.066	969.741
420.599	17.378	1283.440	968.720
421.613	96.815	1355.658	1476.393
422.628	94.745	1366.126	1476.478
