DTS Sentinel unit serial number:	SN413079Multiplexer serial number:	ORYXHardware model number:	OX4-SRSoftware version number:	ORYX F/W v4.00 Oryx Data Collector v3.7.2.0data status	okinstallation	princeton_trtdifferential loss correction	single-endedforward channel	channel 4reverse channel	N/Adate	2019/09/18time	01:29:35forward acquisition time	60.00reverse acquisition time	0.00gamma	496.2192k internal	0.2334k external	0.2334temperature offset calibration	0.9995default loss term (dB/km)	0.3790temperature slope calibration	1.0000multiplexer offset coefficient	1.0000multiplexer slope coefficient	1.0000fibre end	0.00T internal ref (°C)	23.12T ext. ref 1 (°C)	0.17T ext. ref 2 (°C)	16.81length (m)	temperature (°C)	Stokes	anti-Stokes-747.200	-81.489	0.286	-0.094
-746.185	50.128	0.047	0.045
-745.171	218.606	-0.056	-0.090
-744.156	-76.226	-0.159	-0.056
-743.142	-119.168	0.200	-0.035
-742.127	-200.000	0.036	0.234
-741.112	390.053	-0.067	0.140
-740.098	-200.000	0.012	0.203
-739.083	800.000	0.065	0.190
-738.069	-200.000	-0.037	0.299
-737.054	-138.750	-0.313	0.034
-736.039	502.243	-0.128	-0.297
-735.025	380.939	0.121	0.250
-734.010	-57.091	-0.157	0.070
-732.996	662.047	-0.082	-0.213
-731.981	-79.745	0.363	-0.123
-730.966	-192.953	0.140	0.001
-729.952	141.309	0.070	0.093
-728.937	-200.000	-0.039	-0.374
-727.923	-134.861	0.316	0.038
-726.908	69.049	-0.268	-0.277
-725.894	379.099	-0.122	-0.251
-724.879	-38.562	0.269	-0.143
-723.864	-200.000	-0.007	0.439
-722.850	800.000	-0.061	0.212
-721.835	800.000	0.011	0.042
-720.821	-54.618	0.230	-0.104
-719.806	-150.115	-0.424	0.033
-718.791	800.000	0.042	0.143
-717.777	800.000	-0.065	-0.240
-716.762	30.897	-0.080	0.069
-715.748	800.000	-0.060	-0.205
-714.733	-89.611	-0.110	-0.032
-713.718	-57.437	0.191	-0.084
-712.704	137.949	0.074	-0.098
-711.689	201.362	0.087	-0.134
-710.675	800.000	-0.151	-0.593
-709.660	800.000	-0.103	-0.400
-708.645	380.990	-0.059	-0.122
-707.631	247.994	0.065	-0.110
-706.616	-67.894	0.217	-0.085
-705.602	800.000	0.091	0.298
-704.587	-44.693	-0.350	0.175
-703.572	800.000	-0.160	0.492
-702.558	-31.526	-0.492	0.277
-701.543	64.637	-0.212	0.214
-700.529	174.665	-0.218	0.316
-699.514	-156.451	0.192	0.012
-698.499	-200.000	0.024	0.201
-697.485	-159.842	-0.228	0.013
-696.470	-200.000	0.004	0.295
-695.456	-53.029	0.262	-0.121
-694.441	800.000	-0.049	-0.173
-693.426	-200.000	0.021	-0.203
-692.412	-138.951	-0.313	0.034
-691.397	-129.371	0.346	0.048
-690.383	-200.000	-0.007	-0.128
-689.368	41.704	0.065	-0.059
-688.354	-52.500	-0.321	-0.149
-687.339	159.269	-0.166	0.231
-686.324	-200.000	0.012	-0.127
-685.310	15.063	0.195	-0.153
-684.295	345.015	0.018	-0.035
-683.281	143.643	-0.072	0.097
-682.266	201.629	0.088	-0.136
-681.251	17.262	-0.093	0.074
-680.237	433.431	-0.135	-0.294
-679.222	5.904	-0.159	-0.118
-678.208	702.195	-0.106	-0.281
-677.193	538.459	0.106	-0.252
-676.178	78.890	0.116	0.125
-675.164	-200.000	-0.053	0.331
-674.149	-123.198	-0.173	0.028
-673.135	-55.383	-0.190	0.085
-672.120	568.838	0.057	-0.138
-671.105	-62.233	-0.086	-0.036
-670.091	-62.497	-0.055	-0.023
-669.076	-60.387	0.312	-0.133
-668.062	12.690	0.180	0.140
-667.047	-156.479	-0.186	-0.012
-666.032	-108.565	0.071	-0.015
-665.018	468.386	-0.074	0.166
-664.003	8.137	0.350	0.263
-662.989	-106.646	-0.241	-0.054
-661.974	323.520	0.166	-0.317
-660.959	-191.855	0.245	-0.002
-659.945	54.016	-0.193	-0.186
-658.930	-200.000	0.020	0.108
-657.916	-116.798	-0.143	-0.026
-656.901	-51.909	-0.231	0.108
-655.886	420.420	-0.047	-0.100
-654.872	800.000	-0.072	0.243
-653.857	-96.361	-0.239	0.063
-652.843	-109.984	-0.443	0.093
-651.828	-62.124	-0.177	-0.074
-650.814	-19.991	0.398	-0.246
-649.799	-47.068	-0.179	-0.087
-648.784	229.624	-0.054	-0.088
-647.770	269.158	0.199	-0.350
-646.755	-127.897	-0.135	-0.019
-645.741	-7.013	0.329	0.224
-644.726	90.781	0.117	-0.131
-643.711	64.304	-0.076	0.077
-642.697	10.254	0.139	0.106
-641.682	83.044	0.452	-0.492
-640.668	404.483	0.074	-0.156
-639.653	-17.673	0.129	0.081
-638.638	-88.499	0.087	-0.026
-637.624	13.849	0.129	0.101
-636.609	-200.000	0.004	0.016
-635.595	-200.000	-0.015	0.236
-634.580	271.100	0.196	0.346
-633.565	144.189	-0.078	0.105
-632.551	-45.650	0.141	0.070
-631.536	800.000	0.035	0.127
-630.522	800.000	-0.089	0.310
-629.507	-136.220	-0.190	0.022
-628.492	-11.689	-0.418	-0.275
-627.478	57.496	0.164	0.161
-626.463	190.981	-0.226	0.340
-625.449	-48.772	-0.199	-0.096
-624.434	-186.330	-0.156	-0.002
-623.419	90.961	-0.134	-0.151
-622.405	-200.000	0.071	0.412
-621.390	800.000	-0.087	0.264
-620.376	68.127	-0.248	0.254
-619.361	60.811	-0.248	0.246
-618.346	-200.000	-0.011	-0.307
-617.332	800.000	0.022	-0.071
-616.317	320.681	-0.174	0.330
-615.303	3.119	-0.144	0.105
-614.288	366.470	-0.034	0.069
-613.273	-124.040	-0.531	-0.083
-612.259	-108.939	-0.262	-0.056
-611.244	800.000	-0.030	0.097
-610.230	800.000	-0.070	0.286
-609.215	-200.000	-0.023	0.394
-608.201	800.000	0.020	-0.066
-607.186	-20.300	0.147	-0.091
-606.171	132.634	0.146	0.188
-605.157	-26.315	0.070	-0.041
-604.142	-5.591	-0.236	0.161
-603.128	-115.348	-0.188	0.036
-602.113	69.790	0.099	-0.102
-601.098	35.400	-0.073	0.064
-600.084	-200.000	-0.018	-0.156
-599.069	60.372	0.176	0.174
-598.055	231.344	-0.136	0.223
-597.040	16.457	-0.099	-0.078
-596.025	-45.709	-0.117	0.058
-595.011	613.046	0.089	0.222
-593.996	6.619	-0.184	-0.137
-592.982	16.653	0.171	0.135
-591.967	800.000	-0.049	-0.137
-590.952	-200.000	-0.001	-0.025
-589.938	63.211	-0.166	-0.167
-588.923	26.072	0.009	0.007
-587.909	-3.391	-0.142	-0.099
-586.894	-81.788	0.280	0.092
-585.879	-200.000	0.038	0.348
-584.865	-200.000	-0.000	-0.310
-583.850	127.520	-0.049	-0.062
-582.836	-120.832	0.063	-0.011
-581.821	-164.335	-0.090	0.004
-580.806	800.000	0.097	0.272
-579.792	-123.434	0.087	-0.014
-578.777	-200.000	0.033	-0.331
-577.763	-200.000	-0.075	0.329
-576.748	800.000	-0.018	0.069
-575.733	225.393	0.047	-0.076
-574.719	-200.000	0.078	-0.443
-573.704	-57.326	0.296	-0.130
-572.690	-127.377	0.302	0.044
-571.675	-141.452	0.059	-0.006
-570.661	493.959	0.044	-0.100
-569.646	800.000	-0.084	-0.300
-568.631	-200.000	0.005	0.152
-567.617	-117.370	-0.515	-0.093
-566.602	216.330	0.104	0.165
-565.588	-0.434	-0.465	0.330
-564.573	-71.450	-0.350	0.131
-563.558	-200.000	0.028	0.169
-562.544	-82.919	0.149	0.048
-561.529	418.048	0.062	0.133
-560.515	12.679	0.129	-0.100
-559.500	-123.359	-0.047	0.008
-558.485	-113.200	-0.143	-0.028
-557.471	-99.655	0.127	0.032
-556.456	176.015	0.070	0.101
-555.442	180.389	0.160	0.235
-554.427	7.958	-0.061	0.045
-553.412	-158.161	-0.386	0.023
-552.398	-90.325	0.312	-0.090
-551.383	-200.000	0.019	-0.104
-550.369	52.939	-0.181	-0.173
-549.354	-200.000	-0.054	0.268
-548.339	-200.000	0.012	-0.064
-547.325	-125.036	-0.215	0.033
-546.310	223.049	0.086	-0.139
-545.296	215.358	-0.065	-0.102
-544.281	51.520	0.100	-0.094
-543.266	-166.055	-0.244	0.010
-542.252	800.000	-0.127	0.475
-541.237	-200.000	-0.037	0.179
-540.223	70.369	0.244	-0.251
-539.208	228.402	0.088	-0.143
-538.193	34.727	0.143	0.125
-537.179	185.041	0.143	0.211
-536.164	-126.068	-0.269	0.040
-535.150	396.290	0.044	-0.092
-534.135	800.000	0.028	-0.088
-533.121	42.595	0.202	0.183
-532.106	-70.011	0.202	-0.077
-531.091	-29.161	-0.167	0.095
-530.077	-1.354	-0.072	-0.051
-529.062	-110.933	0.275	0.056
-528.048	-76.644	0.043	0.015
-527.033	-96.733	0.085	-0.022
-526.018	-6.556	0.152	-0.103
-525.004	-156.791	0.211	-0.013
-523.989	64.897	-0.128	0.129
-522.975	-200.000	0.008	0.219
-521.960	24.533	-0.041	-0.034
-520.945	-66.199	-0.210	0.084
-519.931	-4.161	0.166	-0.115
-518.916	800.000	0.080	0.264
-517.902	800.000	-0.068	-0.188
-516.887	61.730	0.177	-0.176
-515.872	800.000	0.057	0.186
-514.858	-103.925	-0.371	0.086
-513.843	308.337	0.132	-0.246
-512.829	-46.856	0.340	0.166
-511.814	800.000	-0.062	-0.184
-510.799	564.321	0.092	-0.223
-509.785	417.235	-0.099	-0.211
-508.770	44.756	0.119	0.109
-507.756	133.113	-0.040	0.051
-506.741	-46.972	0.079	-0.039
-505.726	13.864	-0.185	0.143
-504.712	-152.022	0.047	0.003
-503.697	-5.562	0.208	0.142
-502.683	-200.000	0.047	-0.259
-501.668	-200.000	0.015	0.191
-500.653	-200.000	0.015	0.308
-499.639	-200.000	-0.034	0.229
-498.624	33.051	-0.300	-0.259
-497.610	-91.642	-0.084	-0.024
-496.595	41.953	0.187	0.169
-495.581	-165.594	-0.503	-0.022
-494.566	800.000	0.028	0.118
-493.551	-128.422	-0.310	-0.044
-492.537	74.092	-0.101	-0.105
-491.522	-48.727	-0.162	0.077
-490.508	271.140	0.065	-0.113
-489.493	676.325	0.059	-0.153
-488.478	-200.000	-0.031	-0.165
-487.464	764.844	-0.052	-0.141
-486.449	800.000	-0.030	0.085
-485.435	800.000	-0.145	0.433
-484.420	45.386	0.093	0.085
-483.405	-200.000	0.017	0.332
-482.391	800.000	-0.025	-0.077
-481.376	272.661	0.100	0.175
-480.362	-149.612	0.153	0.012
-479.347	673.357	-0.057	-0.148
-478.332	-112.504	0.243	0.048
-477.318	-200.000	0.017	0.099
-476.303	208.581	0.230	-0.358
-475.289	800.000	-0.031	0.097
-474.274	-52.796	-0.390	-0.179
-473.259	-12.457	-0.099	-0.064
-472.245	-200.000	-0.014	0.065
-471.230	396.352	0.108	0.224
-470.216	183.848	-0.121	0.177
-469.201	52.858	-0.156	0.149
-468.186	-50.242	0.116	-0.055
-467.172	475.157	0.096	0.214
-466.157	-144.023	0.119	0.011
-465.143	-106.530	-0.300	-0.067
-464.128	343.124	-0.107	0.208
-463.113	-21.224	0.053	-0.032
-462.099	-51.847	-0.326	0.151
-461.084	48.909	-0.055	-0.051
-460.070	-200.000	0.007	-0.187
-459.055	-200.000	-0.030	-0.133
-458.040	707.079	0.076	-0.200
-457.026	-67.420	-0.160	0.062
-456.011	-96.187	-0.217	0.057
-454.997	148.733	0.154	-0.207
-453.982	800.000	0.070	0.255
-452.968	7.259	0.154	0.114
-451.953	49.450	-0.070	-0.066
-450.938	152.293	-0.056	-0.076
-449.924	-30.667	0.204	-0.115
-448.909	216.714	-0.087	0.138
-447.895	306.806	0.063	0.116
-446.880	45.022	-0.084	0.077
-445.865	800.000	0.102	-0.361
-444.851	105.558	-0.122	-0.143
-443.836	768.870	0.138	-0.374
-442.822	-200.000	-0.042	0.307
-441.807	-129.776	0.176	0.024
-440.792	800.000	-0.032	0.121
-439.778	51.765	0.192	0.181
-438.763	31.013	0.081	-0.069
-437.749	-200.000	-0.001	-0.265
-436.734	65.405	0.282	0.283
-435.719	66.431	0.045	0.045
-434.705	-33.269	0.438	0.241
-433.690	79.528	-0.331	0.353
-432.676	-82.035	-0.169	-0.055
-431.661	-76.485	-0.352	-0.123
-430.646	-75.210	-0.086	0.031
-429.632	146.866	0.019	-0.026
-428.617	-117.370	-0.431	0.078
-427.603	-200.000	0.064	-0.349
-426.588	-13.039	0.284	0.184
-425.573	86.740	-0.087	0.095
-424.559	472.726	-0.128	-0.285
-423.544	-168.773	0.151	-0.006
-422.530	37.806	-0.407	-0.359
-421.515	112.245	0.081	0.098
-420.500	-200.000	-0.031	0.267
-419.486	-180.821	-0.245	-0.005
-418.471	-190.675	0.371	0.004
-417.457	-11.613	0.063	0.041
-416.442	-47.538	0.200	-0.097
-415.428	-79.862	-0.390	0.130
-414.413	800.000	-0.046	0.162
-413.398	207.895	-0.151	-0.234
-412.384	3.116	0.257	0.185
-411.369	13.898	0.211	-0.163
-410.355	726.854	0.076	0.200
-409.340	192.363	-0.104	-0.156
-408.325	-200.000	0.009	0.109
-407.311	41.036	0.140	0.125
-406.296	-200.000	0.005	0.237
-405.282	-130.797	0.116	-0.015
-404.267	-135.001	-0.064	0.008
-403.252	-85.252	0.157	0.049
-402.238	-28.019	-0.246	-0.141
-401.223	19.765	0.292	0.233
-400.209	-69.023	-0.155	-0.059
-399.194	-54.808	0.396	0.177
-398.179	-140.349	-0.237	0.025
-397.165	800.000	0.044	0.126
-396.150	-87.712	-0.193	-0.058
-395.136	-195.615	0.201	0.001
-394.121	-200.000	0.042	0.190
-393.106	21.584	-0.132	-0.106
-392.092	-117.201	0.092	0.017
-391.077	46.524	0.162	-0.149
-390.063	-200.000	-0.001	-0.025
-389.048	-200.000	0.061	0.266
-388.033	-142.516	0.114	-0.011
-387.019	-59.859	0.410	-0.174
-386.004	-47.982	0.275	0.132
-384.990	13.259	-0.241	-0.185
-383.975	-82.106	0.025	-0.008
-382.960	-76.394	-0.361	-0.126
-381.946	-61.120	0.235	-0.098
-380.931	68.107	0.102	0.103
-379.917	-14.332	-0.431	0.275
-378.902	800.000	-0.092	-0.401
-377.888	800.000	0.076	-0.260
-376.873	-200.000	0.014	0.525
-375.858	374.412	-0.041	0.082
-374.844	156.996	0.139	0.190
-373.829	141.625	-0.153	0.201
-372.815	328.263	0.038	-0.071
-371.800	-200.000	0.027	-0.177
-370.785	-200.000	-0.009	0.398
-369.771	407.546	-0.122	-0.255
-368.756	-168.061	-0.164	0.006
-367.742	-28.567	0.212	0.121
-366.727	158.055	-0.165	0.226
-365.712	800.000	0.031	0.100
-364.698	-200.000	-0.041	0.183
-363.683	-106.261	0.236	0.052
-362.669	-200.000	0.141	0.000
-361.654	-200.000	-0.006	-0.228
-360.639	477.315	-0.141	0.316
-359.625	-76.240	-0.272	0.095
-358.610	-200.000	-0.029	0.361
-357.596	12.053	-0.087	-0.066
-356.581	-101.674	-0.305	-0.073
-355.566	-100.925	0.221	-0.054
-354.552	-200.000	-0.002	0.033
-353.537	98.954	0.245	-0.280
-352.523	-81.258	-0.264	0.086
-351.508	289.638	-0.102	-0.183
-350.493	295.519	0.061	0.111
-349.479	-50.093	0.229	0.108
-348.464	398.609	0.115	-0.237
-347.450	744.412	-0.043	-0.116
-346.435	800.000	0.030	-0.121
-345.420	47.598	-0.231	0.213
-344.406	-86.025	-0.099	-0.030
-343.391	6.209	0.137	0.100
-342.377	531.481	0.032	0.075
-341.362	-59.951	0.192	0.081
-340.348	68.675	-0.190	-0.193
-339.333	-200.000	0.002	-0.089
-338.318	-152.886	-0.190	0.013
-337.304	-98.997	0.057	-0.014
-336.289	115.414	-0.151	-0.183
-335.275	590.102	-0.107	-0.261
-334.260	-200.000	-0.059	-0.287
-333.245	-91.750	0.200	-0.056
-332.231	27.052	0.236	0.196
-331.216	800.000	-0.035	0.104
-330.202	-200.000	-0.015	0.180
-329.187	71.538	0.066	-0.067
-328.172	-24.040	-0.282	-0.166
-327.158	72.325	-0.158	-0.162
-326.143	-56.892	0.228	0.100
-325.129	302.113	0.067	0.123
-324.114	800.000	0.066	0.221
-323.099	187.586	-0.136	0.201
-322.085	1.296	0.212	-0.151
-321.070	-14.762	0.349	-0.222
-320.056	800.000	-0.026	-0.110
-319.041	-28.062	-0.344	-0.197
-318.026	-200.000	-0.045	-0.215
-317.012	-200.000	0.078	-0.386
-315.997	120.177	-0.129	-0.158
-314.983	77.386	0.150	-0.158
-313.968	535.532	-0.016	0.038
-312.953	-26.281	0.163	-0.095
-311.939	319.048	0.060	0.112
-310.924	-116.894	0.107	-0.019
-309.910	-156.074	-0.168	0.011
-308.895	-1.706	0.230	0.160
-307.880	-200.000	0.004	-0.287
-306.866	-200.000	-0.003	0.257
-305.851	199.973	0.136	-0.206
-304.837	360.769	-0.086	0.169
-303.822	-149.646	0.094	-0.007
-302.807	122.364	-0.059	0.073
-301.793	-200.000	0.024	0.190
-300.778	157.225	0.190	0.259
-299.764	-60.411	-0.280	0.118
-298.749	39.168	-0.134	0.118
-297.735	31.474	-0.238	0.202
-296.720	198.533	0.114	-0.172
-295.705	-131.020	0.089	-0.012
-294.691	492.346	0.033	-0.076
-293.676	-167.662	-0.276	0.011
-292.662	30.772	0.298	-0.252
-291.647	194.997	0.182	-0.272
-290.632	142.925	-0.124	0.163
-289.618	800.000	-0.034	0.135
-288.603	-122.530	-0.216	-0.035
-287.589	-173.205	0.031	-0.001
-286.574	800.000	0.060	0.169
-285.559	-169.500	-0.127	0.005
-284.545	-16.780	-0.258	0.161
-283.530	-96.561	-0.401	0.104
-282.516	-96.589	-0.068	0.018
-281.501	-59.936	0.240	0.101
-280.486	-15.843	-0.138	-0.087
-279.472	-200.000	0.028	-0.122
-278.457	319.729	0.101	-0.189
-277.443	15.488	0.219	-0.170
-276.428	96.431	-0.428	-0.483
-275.413	-121.004	0.072	-0.012
-274.399	-173.216	0.470	0.014
-273.384	43.438	0.055	0.049
-272.370	800.000	-0.067	0.229
-271.355	800.000	0.046	0.155
-270.340	-102.742	-0.333	-0.078
-269.326	-102.929	-0.132	0.031
-268.311	800.000	0.076	-0.218
-267.297	481.160	-0.095	-0.212
-266.282	528.073	-0.126	-0.294
-265.267	158.360	0.247	-0.338
-264.253	33.856	0.216	-0.185
-263.238	73.569	-0.226	-0.234
-262.224	49.802	-0.149	0.139
-261.209	0.083	0.298	0.210
-260.195	-110.742	-0.220	0.045
-259.180	-200.000	0.101	-0.563
-258.165	-156.560	-0.445	-0.027
-257.151	-200.000	0.000	0.119
-256.136	-81.293	0.075	-0.024
-255.122	-200.000	-0.053	-0.276
-254.107	-116.531	0.192	-0.035
-253.092	-3.569	0.206	-0.141
-252.078	-100.522	0.117	0.029
-251.063	-200.000	-0.018	-0.217
-250.049	104.957	-0.133	0.155
-249.034	73.533	0.033	-0.034
-248.019	-63.710	0.209	0.085
-247.005	539.473	0.019	-0.044
-245.990	44.545	-0.097	0.088
-244.976	350.440	0.015	0.030
-243.961	123.347	0.238	-0.294
-242.946	-200.000	0.011	-0.158
-241.932	-200.000	0.034	0.276
-240.917	132.745	-0.368	0.468
-239.903	62.302	-0.162	-0.159
-238.888	97.976	0.215	0.244
-237.873	-32.520	0.166	0.091
-236.859	-129.672	0.196	0.027
-235.844	176.052	0.068	-0.097
-234.830	189.284	0.055	-0.081
-233.815	287.774	-0.119	0.213
-232.800	87.139	-0.078	0.085
-231.786	-200.000	0.022	-0.135
-230.771	-200.000	-0.024	-0.191
-229.757	-135.654	0.168	-0.020
-228.742	-200.000	-0.045	-0.243
-227.727	-135.246	-0.476	-0.056
-226.713	-87.213	0.188	-0.056
-225.698	704.613	0.107	-0.278
-224.684	-200.000	0.021	-0.242
-223.669	-200.000	-0.003	-0.162
-222.655	-124.912	-0.108	0.016
-221.640	-13.291	0.257	-0.164
-220.625	529.611	-0.069	0.160
-219.611	-66.444	-0.429	0.168
-218.596	29.320	0.234	0.196
-217.582	-141.513	-0.159	-0.016
-216.567	312.288	0.176	-0.325
-215.552	720.604	-0.032	0.084
-214.538	-154.619	0.177	-0.012
-213.523	-200.000	0.001	0.037
-212.509	-71.103	0.126	-0.047
-211.494	77.066	0.230	-0.241
-210.479	-20.059	0.205	0.124
-209.465	309.952	-0.138	-0.254
-208.450	35.444	-0.242	-0.209
-207.436	-49.488	0.276	0.130
-206.421	-200.000	-0.025	-0.206
-205.406	-30.546	0.273	-0.152
-204.392	-58.383	0.325	-0.139
-203.377	102.171	-0.273	0.313
-202.363	-135.861	0.326	-0.038
-201.348	206.002	0.096	0.146
-200.333	-1.338	-0.139	0.097
-199.319	800.000	0.078	-0.221
-198.304	-200.000	-0.019	0.194
-197.290	800.000	-0.037	-0.115
-196.275	-200.000	-0.004	-0.035
-195.260	11.858	0.204	-0.154
-194.246	-176.809	-0.031	-0.001
-193.231	800.000	0.072	-0.238
-192.217	-200.000	-0.032	-0.290
-191.202	465.195	-0.224	-0.493
-190.187	414.924	0.186	-0.390
-189.173	121.763	-0.158	-0.194
-188.158	800.000	0.105	-0.322
-187.144	800.000	-0.072	0.280
-186.129	-119.620	0.179	0.030
-185.114	-34.394	0.071	-0.038
-184.100	-199.939	-0.054	0.000
-183.085	639.700	0.106	0.265
-182.071	-151.349	0.069	-0.005
-181.056	-200.000	-0.008	-0.109
-180.042	-96.089	0.352	-0.092
-179.027	-151.130	-0.456	0.034
-178.012	322.168	-0.032	0.061
-176.998	-126.402	-0.197	0.029
-175.983	-200.000	0.041	0.376
-174.969	-31.621	0.275	-0.152
-173.954	74.457	0.203	-0.209
-172.939	55.615	-0.176	-0.167
-171.925	71.462	0.159	0.162
-170.910	-108.848	0.058	-0.012
-169.896	117.834	-0.260	-0.315
-168.881	-60.237	0.148	-0.062
-167.866	-105.584	-0.201	-0.045
-166.852	276.562	0.122	-0.213
-165.837	-191.048	0.084	0.001
-164.823	15.602	0.203	-0.156
-163.808	800.000	-0.038	0.109
-162.793	-85.091	-0.034	-0.011
-161.779	-148.091	-0.150	-0.012
-160.764	800.000	0.171	0.528
-159.750	342.827	0.043	0.083
-158.735	332.341	-0.148	-0.281
-157.720	800.000	-0.055	-0.163
-156.706	77.098	-0.154	0.160
-155.691	-58.670	0.205	-0.087
-154.677	-8.772	0.263	0.173
-153.662	-129.758	0.236	0.032
-152.647	49.154	-0.104	-0.096
-151.633	-68.965	-0.110	-0.042
-150.618	395.927	0.193	0.396
-149.604	-171.454	-0.450	-0.015
-148.589	-200.000	-0.011	0.090
-147.574	800.000	0.075	-0.235
-146.560	53.113	0.210	0.198
-145.545	-120.568	-0.241	0.040
-144.531	31.370	0.047	-0.040
-143.516	-59.092	-0.101	-0.043
-142.502	-43.453	0.101	-0.050
-141.487	-79.164	-0.078	-0.026
-140.472	-91.428	0.398	0.112
-139.458	-19.640	0.031	0.019
-138.443	-128.848	0.256	0.035
-137.429	-110.677	-0.171	-0.035
-136.414	-200.000	0.031	0.187
-135.399	-89.148	-0.337	-0.098
-134.385	-108.223	-0.058	-0.012
-133.370	800.000	-0.023	-0.068
-132.356	408.101	-0.199	-0.412
-131.341	-30.203	0.262	0.146
-130.326	-131.523	-0.255	0.033
-129.312	-200.000	0.013	0.158
-128.297	8.259	0.083	-0.061
-127.283	-44.726	0.275	0.135
-126.268	800.000	-0.105	-0.329
-125.253	-200.000	-0.035	-0.479
-124.239	-45.870	0.224	0.109
-123.224	-200.000	-0.026	0.259
-122.210	-147.864	0.215	0.018
-121.195	128.859	-0.127	0.159
-120.180	1.477	0.220	0.155
-119.166	-94.028	-0.288	-0.077
-118.151	-6.198	0.118	-0.079
-117.137	596.031	-0.050	0.120
-116.122	117.051	-0.066	0.080
-115.107	0.430	-0.267	-0.187
-114.093	550.136	0.042	0.099
-113.078	-126.344	0.096	0.014
-112.064	-200.000	-0.009	0.132
-111.049	3.442	0.145	0.103
-110.034	-99.382	0.047	-0.011
-109.020	-200.000	-0.013	0.161
-108.005	800.000	0.013	0.047
-106.991	-160.787	0.187	-0.010
-105.976	-113.934	-0.281	-0.053
-104.962	304.677	-0.199	-0.362
-103.947	108.466	0.064	-0.074
-102.932	-200.000	-0.009	0.082
-101.918	-200.000	0.029	-0.149
-100.903	-200.000	0.000	0.042
-99.889	-200.000	0.035	-0.201
-98.874	-142.375	0.232	0.022
-97.859	22.239	0.116	0.093
-96.845	-48.028	0.216	-0.102
-95.830	410.460	-0.011	-0.023
-94.816	800.000	-0.119	-0.354
-93.801	498.810	0.162	0.365
-92.786	-30.155	0.032	-0.018
-91.772	-21.886	-0.033	-0.020
-90.757	800.000	-0.108	0.311
-89.743	800.000	0.103	-0.399
-88.728	-200.000	0.006	0.121
-87.713	15.900	-0.197	-0.152
-86.699	-20.169	0.088	0.053
-85.684	33.340	-0.258	0.220
-84.670	-39.840	-0.112	-0.057
-83.655	65.444	0.035	0.034
-82.640	-30.003	-0.223	0.124
-81.626	78.455	-0.119	-0.125
-80.611	-8.285	-0.229	0.151
-79.597	800.000	-0.073	0.252
-78.582	-150.040	-0.346	0.026
-77.567	207.376	0.186	0.285
-76.553	627.039	-0.059	0.146
-75.538	-200.000	-0.032	-0.350
-74.524	-22.810	0.165	0.098
-73.509	-193.551	-0.344	0.003
-72.494	175.022	0.086	-0.122
-71.480	800.000	0.110	0.307
-70.465	-144.574	-0.153	-0.014
-69.451	-134.814	-0.213	0.025
-68.436	117.208	0.180	-0.217
-67.422	-200.000	0.012	0.055
-66.407	-142.711	0.226	0.022
-65.392	-96.682	-0.192	0.049
-64.378	-117.230	0.439	0.078
-63.363	-200.000	-0.005	-0.226
-62.349	-86.667	0.535	0.160
-61.334	97.775	-0.898	-1.010
-60.319	-1.999	0.699	0.481
-59.305	800.000	-0.472	-1.305
-58.290	466.722	0.698	1.530
-57.276	293.152	0.640	1.143
-56.261	-200.000	126.782	674.674
-55.246	417.983	1586.757	3317.332
-54.232	138.893	2749.817	3534.784
-53.217	87.174	2330.860	2520.499
-52.203	29.682	2073.327	1726.140
-51.188	24.880	1988.587	1612.390
-50.173	23.717	1972.288	1588.709
-49.159	42.128	2045.656	1816.694
-48.144	40.093	2057.682	1808.712
-47.130	25.310	2009.883	1633.307
-46.115	23.196	1998.769	1605.061
-45.100	23.046	1996.270	1601.634
-44.086	23.056	1993.550	1599.478
-43.071	23.012	1991.050	1597.015
-42.057	22.992	1989.104	1595.205
-41.042	23.048	1986.969	1593.933
-40.027	23.087	1985.626	1593.143
-39.013	23.053	1983.240	1590.865
-37.998	23.028	1981.407	1589.102
-36.984	23.021	1979.959	1587.821
-35.969	23.114	1977.919	1586.956
-34.954	22.999	1976.442	1584.673
-33.940	23.000	1975.303	1583.706
-32.925	23.095	1973.145	1582.761
-31.911	23.149	1971.421	1581.797
-30.896	23.134	1970.233	1580.654
-29.881	23.176	1968.867	1579.868
-28.867	23.192	1966.971	1578.426
-27.852	23.204	1965.193	1577.041
-26.838	23.081	1963.478	1574.505
-25.823	23.219	1961.352	1573.974
-24.809	23.235	1959.650	1572.685
-23.794	23.164	1958.266	1570.884
-22.779	23.082	1956.991	1569.071
-21.765	23.156	1954.989	1568.060
-20.750	23.146	1953.389	1566.623
-19.736	23.115	1951.583	1564.837
-18.721	23.191	1949.790	1564.006
-17.706	23.129	1948.748	1562.567
-16.692	23.230	1946.649	1561.711
-15.677	23.172	1945.238	1560.003
-14.663	23.085	1943.860	1558.073
-13.648	23.145	1942.979	1557.832
-12.633	23.243	1940.515	1556.654
-11.619	23.126	1940.613	1555.639
-10.604	23.100	1939.180	1554.201
-9.590	23.095	1937.908	1553.077
-8.575	23.110	1936.014	1551.635
-7.560	23.133	1934.742	1550.756
-6.546	23.176	1933.592	1550.147
-5.531	23.189	1932.266	1549.138
-4.517	23.032	1931.191	1546.834
-3.502	23.086	1930.168	1546.426
-2.487	23.100	1929.075	1545.615
-1.473	23.140	1927.742	1544.833
-0.458	23.142	1922.407	1540.517
0.556	21.341	1902.191	1511.844
1.571	17.101	1883.307	1460.316
2.586	13.272	1906.580	1444.830
3.600	12.353	1942.302	1463.580
4.615	12.298	1934.827	1457.334
5.629	9.531	1835.363	1358.968
6.644	3.623	1723.768	1229.297
7.659	0.452	1691.820	1181.594
8.673	0.253	1688.728	1177.773
9.688	0.125	1687.809	1176.027
10.702	0.181	1686.374	1175.359
11.717	0.102	1682.053	1171.631
12.731	0.478	1680.401	1173.302
13.746	5.020	1689.939	1215.316
14.761	12.256	1704.682	1282.524
15.775	16.267	1711.583	1319.004
16.790	16.799	1710.970	1322.569
17.804	15.826	1708.996	1313.334
18.819	14.952	1705.327	1303.591
19.834	14.323	1703.015	1296.815
20.848	14.009	1701.380	1293.008
21.863	13.880	1699.799	1290.693
22.877	13.649	1697.867	1287.318
23.892	13.362	1696.538	1283.971
24.907	13.288	1695.286	1282.330
25.921	13.284	1694.404	1281.520
26.936	13.219	1693.596	1280.295
27.950	13.284	1692.311	1279.709
28.965	13.262	1692.686	1279.713
29.980	13.393	1691.093	1279.409
30.994	13.455	1689.921	1278.887
32.009	13.404	1689.846	1278.319
33.023	13.597	1688.039	1278.330
34.038	13.484	1688.188	1277.454
35.053	13.552	1686.445	1276.552
36.067	13.441	1685.327	1274.737
37.082	13.460	1684.241	1273.948
38.096	13.570	1682.845	1273.624
39.111	13.567	1682.557	1273.274
40.126	13.497	1682.042	1272.230
41.140	13.448	1681.139	1271.059
42.155	13.352	1679.600	1269.046
43.169	13.292	1678.367	1267.539
44.184	13.346	1677.023	1266.830
45.199	13.405	1675.582	1266.077
46.213	13.274	1674.774	1264.357
47.228	13.331	1673.791	1263.940
48.242	13.387	1672.340	1263.155
49.257	13.378	1671.122	1262.055
50.271	13.355	1670.379	1261.210
51.286	13.387	1668.798	1260.149
52.301	13.340	1667.834	1258.951
53.315	13.390	1666.249	1258.022
54.330	13.368	1664.771	1256.626
55.344	13.341	1662.963	1254.948
56.359	13.259	1661.450	1253.071
57.374	13.227	1661.091	1252.451
58.388	13.372	1659.908	1252.541
59.403	13.278	1658.264	1250.481
60.417	13.291	1656.571	1249.189
61.432	13.301	1655.720	1248.516
62.447	13.284	1654.046	1247.015
63.461	13.205	1653.067	1245.573
64.476	13.185	1652.243	1244.692
65.490	13.275	1650.389	1243.856
66.505	13.179	1649.686	1242.496
67.520	13.293	1648.099	1242.050
68.534	13.280	1647.288	1241.234
69.549	13.383	1646.176	1241.052
70.563	13.322	1644.712	1239.388
71.578	13.194	1643.687	1237.542
72.593	13.209	1642.296	1236.498
73.607	13.159	1641.746	1235.600
74.622	13.112	1640.714	1234.363
75.636	13.089	1639.456	1233.140
76.651	13.221	1638.585	1233.358
77.666	13.188	1637.615	1232.272
78.680	13.240	1636.718	1231.875
79.695	13.153	1635.823	1230.445
80.709	13.219	1634.660	1229.954
81.724	13.218	1634.464	1229.690
82.739	13.317	1632.911	1229.151
83.753	13.323	1631.826	1228.264
84.768	13.357	1630.998	1227.791
85.782	13.419	1630.598	1227.839
86.797	13.458	1629.424	1227.132
87.812	13.453	1628.633	1226.392
88.826	13.381	1626.759	1224.341
89.841	13.412	1625.764	1223.715
90.855	13.401	1624.541	1222.603
91.870	13.476	1623.760	1222.458
92.884	13.422	1622.696	1221.152
93.899	13.488	1621.584	1220.697
94.914	13.351	1620.957	1219.106
95.928	13.377	1619.517	1218.107
96.943	13.468	1617.981	1217.511
97.957	13.415	1616.448	1215.862
98.972	13.515	1614.982	1215.384
99.987	13.448	1613.491	1213.662
101.001	13.477	1611.878	1212.558
102.016	13.497	1610.277	1211.388
103.030	13.366	1609.630	1209.839
104.045	13.397	1608.355	1209.002
105.060	13.431	1607.096	1208.191
106.074	13.478	1605.174	1206.987
107.089	13.315	1604.069	1204.862
108.103	13.245	1602.351	1202.952
109.118	13.300	1600.885	1202.150
110.133	13.313	1599.647	1201.206
111.147	13.355	1597.840	1200.050
112.162	13.431	1596.231	1199.284
113.176	13.313	1595.359	1197.666
114.191	13.306	1594.327	1196.734
115.206	13.365	1592.753	1195.874
116.220	13.451	1591.063	1195.124
117.235	13.420	1590.144	1194.098
118.249	13.339	1589.206	1192.710
119.264	13.375	1587.500	1191.584
120.279	13.296	1586.223	1189.950
121.293	13.286	1584.601	1188.553
122.308	13.249	1583.167	1187.111
123.322	13.277	1581.373	1185.861
124.337	13.180	1580.280	1184.242
125.352	13.287	1578.778	1183.776
126.366	13.277	1577.755	1182.832
127.381	13.288	1576.180	1181.623
128.395	13.330	1575.133	1181.032
129.410	13.295	1574.174	1179.963
130.424	13.297	1572.573	1178.669
131.439	13.244	1571.087	1177.073
132.454	13.240	1570.177	1176.259
133.468	13.336	1568.510	1175.593
134.483	13.434	1566.689	1174.817
135.497	13.347	1565.864	1173.480
136.512	13.393	1564.329	1172.548
137.527	13.351	1562.994	1171.147
138.541	13.368	1561.901	1170.348
139.556	13.383	1560.618	1169.388
140.570	13.454	1559.124	1168.666
141.585	13.526	1557.452	1167.816
142.600	13.514	1556.219	1166.702
143.614	13.444	1555.540	1165.598
144.629	13.524	1554.194	1165.051
145.643	13.411	1553.057	1163.301
146.658	13.604	1551.428	1163.335
147.673	13.581	1549.500	1161.625
148.687	13.409	1548.235	1159.363
149.702	13.553	1546.457	1158.940
150.716	13.537	1544.436	1157.209
151.731	13.489	1543.639	1156.175
152.746	13.599	1541.407	1155.168
153.760	13.531	1540.382	1153.826
154.775	13.581	1539.137	1153.136
155.789	13.612	1538.132	1152.497
156.804	13.781	1536.445	1152.304
157.819	13.663	1535.683	1150.815
158.833	13.625	1534.640	1149.665
159.848	13.718	1533.089	1149.046
160.862	13.830	1531.621	1148.619
161.877	13.742	1530.784	1147.286
162.892	13.715	1529.556	1146.072
163.906	13.645	1528.421	1144.639
164.921	13.618	1527.267	1143.487
165.935	13.685	1525.913	1142.835
166.950	13.702	1524.424	1141.735
167.964	13.703	1523.599	1141.021
168.979	13.739	1522.346	1140.233
169.994	13.763	1521.422	1139.605
171.008	13.686	1520.640	1138.387
172.023	13.780	1519.201	1137.853
173.037	13.681	1518.125	1136.271
174.052	13.866	1516.475	1136.203
175.067	13.928	1515.648	1135.906
176.081	13.885	1514.434	1134.599
177.096	13.819	1513.382	1133.262
178.110	13.749	1512.126	1131.741
179.125	13.822	1510.920	1131.238
180.140	13.867	1509.453	1130.344
181.154	13.780	1509.010	1129.321
182.169	13.909	1507.624	1129.062
183.183	13.741	1506.968	1127.331
184.198	13.891	1505.288	1126.991
185.213	13.916	1504.274	1126.302
186.227	13.919	1503.153	1125.385
187.242	13.981	1502.190	1124.982
188.256	14.009	1501.113	1124.267
189.271	14.022	1500.126	1123.514
190.286	13.991	1498.990	1122.357
191.300	14.007	1497.619	1121.340
192.315	13.831	1496.941	1119.545
193.329	13.849	1495.347	1118.375
194.344	13.813	1494.743	1117.579
195.359	13.922	1493.122	1117.003
196.373	13.939	1491.928	1116.122
197.388	13.997	1491.178	1115.854
198.402	14.030	1490.289	1115.313
199.417	14.028	1488.489	1113.850
200.432	14.041	1488.183	1113.614
201.446	14.177	1486.817	1113.404
202.461	14.190	1485.651	1112.519
203.475	14.173	1484.275	1111.278
204.490	14.304	1483.174	1111.226
205.504	14.225	1482.550	1110.137
206.519	14.178	1481.477	1108.919
207.534	14.220	1480.216	1108.159
208.548	14.161	1479.335	1107.009
209.563	14.257	1478.244	1106.733
210.577	14.220	1477.256	1105.649
211.592	14.255	1476.291	1105.058
212.607	14.307	1475.334	1104.588
213.621	14.387	1474.986	1104.761
214.636	14.293	1474.099	1103.374
215.650	14.295	1472.546	1102.132
216.665	14.286	1471.666	1101.313
217.680	14.349	1470.992	1101.129
218.694	14.391	1469.917	1100.504
219.709	14.506	1468.963	1100.454
220.723	14.452	1467.805	1099.128
221.738	14.395	1467.299	1098.280
222.753	14.354	1466.218	1097.105
223.767	14.426	1465.159	1096.686
224.782	14.458	1464.193	1096.075
225.796	14.471	1463.428	1095.495
226.811	14.546	1462.368	1095.093
227.826	14.546	1461.672	1094.477
228.840	14.524	1460.858	1093.628
229.855	14.531	1459.983	1092.918
230.869	14.463	1459.171	1091.771
231.884	14.494	1457.933	1090.951
232.899	14.521	1456.818	1090.196
233.913	14.601	1455.260	1089.458
234.928	14.516	1454.588	1088.302
235.942	14.501	1453.367	1087.192
236.957	14.501	1451.972	1086.052
237.972	14.563	1450.738	1085.436
238.986	14.485	1449.530	1083.934
240.001	14.449	1449.529	1083.603
241.015	14.504	1448.244	1082.905
242.030	14.544	1447.013	1082.148
243.045	14.640	1446.061	1081.959
244.059	14.692	1444.446	1080.990
245.074	14.765	1443.995	1081.030
246.088	14.713	1443.328	1080.101
247.103	14.743	1442.802	1079.803
248.117	14.725	1441.698	1078.766
249.132	14.657	1441.252	1077.897
250.147	14.844	1440.368	1078.352
251.161	14.847	1439.512	1077.629
252.176	14.952	1438.883	1077.744
253.190	14.999	1438.147	1077.401
254.205	14.976	1437.224	1076.462
255.220	14.997	1436.251	1075.773
256.234	15.026	1435.819	1075.543
257.249	15.063	1434.226	1074.494
258.263	14.956	1434.057	1073.579
259.278	15.055	1432.852	1073.219
260.293	15.189	1431.664	1073.092
261.307	15.090	1431.323	1072.109
262.322	15.092	1430.494	1071.405
263.336	15.062	1429.577	1070.434
264.351	15.141	1428.650	1070.148
265.366	15.277	1427.259	1069.880
266.380	15.244	1426.536	1069.036
267.395	15.264	1425.568	1068.338
268.409	15.259	1424.610	1067.493
269.424	15.319	1423.381	1066.864
270.439	15.294	1422.589	1066.014
271.453	15.269	1421.646	1065.053
272.468	15.272	1420.686	1064.262
273.482	15.244	1420.321	1063.718
274.497	15.157	1419.757	1062.644
275.512	15.185	1418.683	1061.928
276.526	15.177	1417.895	1061.195
277.541	15.283	1416.444	1060.686
278.555	15.282	1415.107	1059.585
279.570	15.233	1414.898	1059.022
280.585	15.312	1413.405	1058.308
281.599	15.323	1412.848	1057.867
282.614	15.345	1411.687	1057.044
283.628	15.435	1410.613	1056.713
284.643	15.399	1409.908	1055.862
285.657	15.395	1408.746	1054.878
286.672	15.393	1407.882	1054.123
287.687	15.455	1406.731	1053.556
288.701	15.461	1405.741	1052.761
289.716	15.375	1405.436	1051.899
290.730	15.542	1404.479	1052.135
291.745	15.486	1403.034	1050.610
292.760	15.456	1402.363	1049.826
293.774	15.590	1400.955	1049.518
294.789	15.513	1400.311	1048.461
295.803	15.524	1399.946	1048.167
296.818	15.551	1398.889	1047.450
297.833	15.550	1397.600	1046.382
298.847	15.594	1396.574	1045.796
299.862	15.723	1395.324	1045.574
300.876	15.608	1394.753	1044.339
301.891	15.626	1393.590	1043.482
302.906	15.660	1392.799	1043.013
303.920	15.763	1391.822	1042.824
304.935	15.603	1391.676	1041.631
305.949	15.716	1390.842	1041.614
306.964	15.846	1389.751	1041.509
307.979	15.832	1388.733	1040.572
308.993	15.794	1387.980	1039.679
310.008	15.776	1386.900	1038.668
311.022	15.832	1386.207	1038.403
312.037	15.799	1385.087	1037.266
313.052	15.864	1384.233	1036.934
314.066	15.943	1382.950	1036.372
315.081	15.866	1381.792	1034.935
316.095	15.844	1380.751	1033.931
317.110	15.785	1379.907	1032.844
318.125	15.814	1379.128	1032.350
319.139	15.924	1377.767	1031.910
320.154	15.823	1377.130	1030.727
321.168	15.801	1376.192	1029.796
322.183	15.892	1375.323	1029.612
323.197	15.856	1374.161	1028.431
324.212	15.973	1373.253	1028.371
325.227	15.967	1372.461	1027.656
326.241	15.912	1371.468	1026.485
327.256	15.946	1370.570	1025.929
328.270	15.968	1369.642	1025.276
329.285	16.021	1368.786	1024.871
330.300	15.995	1367.992	1024.024
331.314	15.937	1367.175	1022.967
332.329	15.968	1366.420	1022.501
333.343	15.970	1365.785	1021.951
334.358	16.136	1364.696	1022.052
335.373	16.046	1363.703	1020.670
336.387	16.113	1362.742	1020.267
337.402	16.131	1362.443	1020.062
338.416	16.186	1361.989	1019.961
339.431	16.149	1361.103	1018.983
340.446	16.244	1360.032	1018.667
341.460	16.220	1359.416	1017.970
342.475	16.336	1358.138	1017.625
343.489	16.337	1357.080	1016.744
344.504	16.240	1356.446	1015.598
345.519	16.296	1355.701	1015.286
346.533	16.377	1354.689	1014.926
347.548	16.425	1353.691	1014.374
348.562	16.337	1353.053	1013.280
349.577	16.376	1352.457	1012.979
350.592	16.513	1351.227	1012.791
351.606	16.498	1349.838	1011.568
352.621	16.313	1349.470	1010.095
353.635	16.284	1348.448	1009.069
354.650	16.351	1347.733	1008.843
355.665	16.346	1346.746	1007.989
356.679	16.445	1345.531	1007.578
357.694	16.415	1344.271	1006.365
358.708	16.488	1342.651	1005.501
359.723	16.479	1342.395	1005.167
360.738	16.540	1340.959	1004.363
361.752	16.483	1339.984	1003.208
362.767	16.446	1339.286	1002.376
363.781	16.601	1338.139	1002.349
364.796	16.518	1337.467	1001.262
365.810	16.565	1336.966	1001.075
366.825	16.678	1335.577	1000.616
367.840	16.648	1335.356	1000.183
368.854	16.635	1334.934	999.702
369.869	16.679	1333.945	999.132
370.883	16.770	1333.349	999.137
371.898	16.767	1332.705	998.549
372.913	16.760	1331.474	997.493
373.927	16.789	1330.619	996.937
374.942	16.847	1329.433	996.303
375.956	16.774	1329.247	995.648
376.971	16.773	1328.402	994.917
377.986	16.753	1327.713	994.199
379.000	16.792	1327.206	993.955
380.015	16.750	1326.379	993.007
381.029	16.963	1325.239	993.309
382.044	16.942	1324.900	992.848
383.059	16.937	1323.978	992.036
384.073	16.929	1323.268	991.373
385.088	16.982	1322.736	991.196
386.102	16.990	1322.031	990.624
387.117	16.885	1321.300	989.378
388.132	17.041	1319.985	989.214
389.146	17.043	1319.223	988.568
390.161	17.011	1318.352	987.640
391.175	16.960	1317.665	986.741
392.190	16.901	1317.103	985.891
393.205	17.025	1316.172	985.826
394.219	17.026	1315.332	985.116
395.234	17.065	1313.992	984.251
396.248	17.165	1311.907	983.182
397.263	17.120	1311.077	982.210
398.278	17.047	1310.175	981.028
399.292	17.147	1308.525	980.285
400.307	17.060	1307.487	978.917
401.321	17.081	1306.715	978.375
402.336	17.170	1305.560	977.934
403.350	17.168	1304.319	976.908
404.365	17.123	1303.513	975.960
405.380	17.083	1303.101	975.331
406.394	17.100	1302.337	974.773
407.409	17.147	1301.357	974.223
408.423	17.210	1300.877	974.139
409.438	17.226	1300.239	973.668
410.453	17.217	1299.328	972.844
411.467	17.358	1298.279	972.782
412.482	17.347	1298.001	972.427
413.496	17.445	1296.971	972.125
414.511	17.416	1296.281	971.358
415.526	17.498	1295.773	971.361
416.540	17.431	1295.113	970.397
417.555	17.551	1293.752	969.977
418.569	17.460	1293.597	969.252
419.584	17.514	1293.365	969.303
420.599	17.400	1293.181	968.427
421.613	99.936	1361.288	1487.325
422.628	97.971	1371.126	1487.432
