DTS Sentinel unit serial number:	SN413079Multiplexer serial number:	ORYXHardware model number:	OX4-SRSoftware version number:	ORYX F/W v4.00 Oryx Data Collector v3.7.2.0data status	okinstallation	princeton_trtdifferential loss correction	single-endedforward channel	channel 4reverse channel	N/Adate	2019/09/18time	04:05:35forward acquisition time	60.00reverse acquisition time	0.00gamma	496.2192k internal	0.2333k external	0.2333temperature offset calibration	0.9994default loss term (dB/km)	0.3790temperature slope calibration	1.0000multiplexer offset coefficient	1.0000multiplexer slope coefficient	1.0000fibre end	0.00T internal ref (°C)	23.25T ext. ref 1 (°C)	0.17T ext. ref 2 (°C)	17.97length (m)	temperature (°C)	Stokes	anti-Stokes-747.200	-175.268	-0.068	0.002
-746.185	-66.703	-0.315	-0.126
-745.171	-83.308	0.150	0.048
-744.156	800.000	-0.123	0.351
-743.142	263.155	0.114	0.199
-742.127	106.478	-0.157	0.187
-741.112	-16.955	0.274	0.174
-740.098	556.030	0.059	0.143
-739.083	-140.532	0.121	-0.013
-738.069	395.016	-0.156	-0.327
-737.054	568.185	0.062	0.151
-736.039	-152.563	-0.174	-0.013
-735.025	-200.000	-0.037	0.326
-734.010	-12.818	-0.290	-0.190
-732.996	800.000	0.054	-0.210
-731.981	-42.031	0.061	-0.031
-730.966	588.747	0.098	0.242
-729.952	-63.502	-0.090	-0.037
-728.937	-25.784	0.210	0.125
-727.923	66.395	-0.212	0.217
-726.908	290.155	0.130	-0.238
-725.894	-139.789	-0.141	-0.015
-724.879	63.528	-0.110	-0.111
-723.864	-122.641	-0.230	0.037
-722.850	-136.008	0.059	-0.007
-721.835	800.000	-0.035	-0.147
-720.821	800.000	0.076	-0.294
-719.806	-88.936	0.249	-0.074
-718.791	-200.000	-0.012	-0.169
-717.777	422.787	-0.055	-0.119
-716.762	-200.000	-0.056	-0.345
-715.748	186.669	-0.189	0.283
-714.733	-11.584	0.123	0.081
-713.718	-33.613	0.170	0.094
-712.704	41.316	0.167	0.152
-711.689	83.316	-0.100	-0.110
-710.675	124.094	-0.221	0.279
-709.660	490.412	0.085	0.196
-708.645	-8.839	-0.040	0.027
-707.631	800.000	-0.039	-0.125
-706.616	-200.000	0.042	-0.222
-705.602	-23.933	0.092	-0.055
-704.587	-200.000	-0.482	0.002
-703.572	158.474	0.012	-0.017
-702.558	-63.074	0.355	-0.147
-701.543	-127.887	-0.397	-0.057
-700.529	-69.101	-0.045	-0.018
-699.514	606.030	-0.090	0.224
-698.499	758.412	0.038	0.104
-697.485	-200.000	-0.013	0.195
-696.470	-200.000	-0.059	-0.310
-695.456	581.283	-0.087	-0.213
-694.441	-63.737	0.218	-0.090
-693.426	-200.000	-0.007	0.316
-692.412	-50.023	-0.096	-0.046
-691.397	-81.367	-0.010	0.003
-690.383	-1.317	-0.088	0.062
-689.368	-44.340	-0.055	-0.028
-688.354	800.000	-0.058	0.196
-687.339	102.823	0.039	-0.046
-686.324	-98.661	-0.189	0.048
-685.310	409.864	-0.068	0.144
-684.295	268.523	-0.110	0.194
-683.281	-116.562	-0.105	-0.019
-682.266	-200.000	0.013	-0.190
-681.251	-200.000	-0.021	0.182
-680.237	111.001	0.140	0.169
-679.222	188.392	0.105	-0.158
-678.208	-200.000	-0.006	0.197
-677.193	-192.287	-0.351	0.003
-676.178	-26.947	-0.077	0.045
-675.164	-121.642	-0.345	0.057
-674.149	-123.342	0.137	-0.022
-673.135	27.114	0.017	0.015
-672.120	61.697	-0.061	-0.061
-671.105	-200.000	0.003	0.181
-670.091	-62.761	-0.276	0.115
-669.076	-101.435	-0.154	0.038
-668.062	-9.461	-0.086	0.057
-667.047	356.196	-0.171	0.342
-666.032	-83.676	0.319	0.102
-665.018	-94.091	-0.339	0.093
-664.003	-200.000	0.010	0.167
-662.989	37.149	0.241	-0.214
-661.974	-200.000	-0.020	0.217
-660.959	603.677	0.039	0.097
-659.945	-69.195	0.389	-0.150
-658.930	479.025	0.104	-0.236
-657.916	-115.741	-0.241	-0.045
-656.901	687.947	0.035	0.092
-655.886	-200.000	0.002	0.071
-654.872	57.622	-0.281	-0.275
-653.857	800.000	0.031	0.090
-652.843	-184.842	-0.451	-0.007
-651.828	-72.384	0.094	0.035
-650.814	184.986	-0.027	-0.040
-649.799	-200.000	0.033	-0.145
-648.784	422.209	0.093	0.200
-647.770	778.106	-0.092	-0.252
-646.755	800.000	-0.031	0.101
-645.741	160.092	0.217	-0.304
-644.726	-92.353	0.198	0.056
-643.711	178.481	-0.047	-0.068
-642.697	-200.000	0.040	0.312
-641.682	293.143	-0.068	-0.125
-640.668	633.214	0.019	-0.049
-639.653	156.280	0.107	0.147
-638.638	-116.094	-0.174	-0.032
-637.624	101.482	-0.173	-0.202
-636.609	800.000	-0.117	-0.357
-635.595	36.945	0.115	0.102
-634.580	77.036	-0.155	-0.165
-633.565	363.399	0.031	0.063
-632.551	176.868	-0.104	-0.152
-631.536	211.094	-0.014	0.021
-630.522	-128.312	0.464	-0.066
-629.507	-1.776	-0.221	0.156
-628.492	-95.924	-0.126	0.034
-627.478	-154.529	0.177	0.012
-626.463	-200.000	0.012	0.152
-625.449	-138.559	-0.124	0.014
-624.434	-200.000	-0.018	0.079
-623.419	351.634	0.078	0.155
-622.405	-200.000	-0.008	0.235
-621.390	-200.000	-0.065	-0.287
-620.376	-49.000	-0.157	0.075
-619.361	800.000	-0.060	-0.189
-618.346	800.000	0.019	-0.059
-617.332	-45.380	0.277	-0.137
-616.317	14.928	-0.188	0.147
-615.303	230.348	0.060	-0.098
-614.288	327.872	0.027	0.052
-613.273	-200.000	0.001	0.097
-612.259	-200.000	0.008	-0.235
-611.244	-70.000	0.288	-0.110
-610.230	-162.242	-0.292	0.015
-609.215	6.822	-0.049	-0.036
-608.201	-200.000	0.017	0.262
-607.186	203.224	0.139	-0.214
-606.171	77.932	0.122	0.130
-605.157	-200.000	-0.064	-0.420
-604.142	685.977	-0.085	-0.222
-603.128	49.154	-0.063	-0.059
-602.113	171.000	-0.079	-0.114
-601.098	82.714	-0.367	-0.398
-600.084	-200.000	0.029	-0.318
-599.069	35.633	-0.162	0.143
-598.055	-25.208	0.412	0.244
-597.040	800.000	-0.019	-0.058
-596.025	115.362	0.085	-0.103
-595.011	-200.000	-0.011	0.067
-593.996	364.035	0.131	-0.264
-592.982	183.453	-0.223	-0.329
-591.967	-40.070	0.200	-0.104
-590.952	393.711	0.050	0.105
-589.938	-200.000	0.037	0.206
-588.923	-155.351	-0.193	-0.012
-587.909	-24.710	0.191	0.114
-586.894	94.864	-0.044	-0.050
-585.879	175.111	-0.337	-0.488
-584.865	100.716	0.230	-0.267
-583.850	77.901	0.105	0.112
-582.836	-22.197	-0.415	0.252
-581.821	-120.767	-0.158	0.027
-580.806	15.752	0.164	0.129
-579.792	732.985	-0.094	-0.252
-578.777	552.021	-0.101	0.243
-577.763	-200.000	0.042	0.213
-576.748	256.514	-0.053	0.091
-575.733	115.564	0.203	-0.248
-574.719	238.859	0.099	-0.164
-573.704	360.834	-0.063	0.127
-572.690	334.595	0.112	0.217
-571.675	-200.000	0.015	0.212
-570.661	-108.388	0.157	0.034
-569.646	27.072	-0.307	0.258
-568.631	65.217	-0.088	0.089
-567.617	-200.000	0.044	0.326
-566.602	-35.385	-0.265	0.144
-565.588	7.257	-0.281	-0.209
-564.573	-71.500	-0.239	-0.089
-563.558	91.245	-0.146	0.164
-562.544	-200.000	0.016	0.138
-561.529	-200.000	0.006	-0.221
-560.515	-107.274	0.213	-0.047
-559.500	-110.657	0.298	-0.062
-558.485	42.457	0.201	-0.183
-557.471	83.286	-0.042	-0.045
-556.456	-45.887	0.222	-0.109
-555.442	129.797	0.144	-0.184
-554.427	61.420	-0.203	0.202
-553.412	-200.000	-0.017	0.078
-552.398	-133.474	-0.255	-0.032
-551.383	128.991	0.028	0.036
-550.369	-137.581	-0.233	0.026
-549.354	800.000	0.032	-0.117
-548.339	800.000	-0.120	0.345
-547.325	-108.074	-0.160	-0.035
-546.310	349.106	0.068	-0.134
-545.296	-200.000	-0.001	-0.055
-544.281	625.668	0.162	0.409
-543.266	-200.000	0.039	-0.360
-542.252	411.591	0.098	-0.208
-541.237	800.000	-0.020	-0.061
-540.223	800.000	-0.048	-0.206
-539.208	-200.000	0.013	0.227
-538.193	-26.565	0.094	-0.055
-537.179	-110.844	-0.105	0.022
-536.164	58.735	-0.072	-0.070
-535.150	11.978	0.204	-0.156
-534.135	-200.000	0.000	-0.177
-533.121	-42.636	0.240	-0.122
-532.106	67.875	0.146	0.149
-531.091	10.595	-0.094	-0.071
-530.077	221.777	0.105	0.168
-529.062	-200.000	0.039	0.256
-528.048	108.401	0.040	-0.047
-527.033	800.000	-0.075	0.218
-526.018	-200.000	-0.016	-0.183
-525.004	212.629	0.155	0.244
-523.989	259.293	-0.171	0.294
-522.975	-114.355	-0.264	-0.051
-521.960	-139.245	0.227	0.024
-520.945	196.362	-0.208	0.316
-519.931	-94.636	-0.445	0.121
-518.916	-96.202	0.079	0.021
-517.902	193.688	0.069	0.104
-516.887	-94.389	-0.218	-0.059
-515.872	-200.000	-0.025	0.278
-514.858	20.725	0.090	0.073
-513.843	91.174	0.165	0.184
-512.829	70.241	-0.219	-0.226
-511.814	-82.157	-0.116	0.038
-510.799	-12.300	-0.126	-0.082
-509.785	-43.573	0.141	0.071
-508.770	551.710	0.042	0.101
-507.756	53.023	-0.218	0.208
-506.741	377.018	-0.027	0.056
-505.726	-184.572	-0.136	0.002
-504.712	-200.000	0.002	0.216
-503.697	267.721	0.067	-0.116
-502.683	412.149	-0.206	0.436
-501.668	83.466	-0.113	-0.123
-500.653	-200.000	0.003	0.208
-499.639	-151.548	-0.181	-0.013
-498.624	50.432	-0.235	-0.222
-497.610	31.755	0.051	-0.043
-496.595	800.000	-0.068	0.191
-495.581	-37.085	-0.128	0.068
-494.566	73.153	-0.110	0.114
-493.551	-22.563	0.170	0.102
-492.537	11.414	0.294	0.224
-491.522	152.561	0.063	-0.086
-490.508	326.266	-0.107	-0.204
-489.493	-200.000	0.036	0.239
-488.478	-129.200	-0.136	-0.019
-487.464	230.336	-0.051	0.083
-486.449	-126.293	0.198	-0.029
-485.435	68.710	-0.033	0.034
-484.420	61.640	0.202	0.200
-483.405	-21.523	-0.260	0.158
-482.391	74.467	-0.104	0.109
-481.376	48.380	0.196	-0.182
-480.362	-133.459	0.202	0.025
-479.347	800.000	0.089	-0.282
-478.332	-82.015	0.190	-0.062
-477.318	800.000	0.043	0.136
-476.303	-49.576	0.190	0.090
-475.289	271.284	0.116	-0.204
-474.274	-200.000	0.015	0.204
-473.259	-200.000	-0.072	0.329
-472.245	-16.975	0.108	0.068
-471.230	-40.326	-0.304	-0.158
-470.216	-77.471	-0.081	-0.028
-469.201	-125.301	0.264	-0.040
-468.186	-200.000	0.010	0.080
-467.172	-105.886	-0.113	0.025
-466.157	-75.629	0.242	0.085
-465.143	-124.887	-0.166	-0.026
-464.128	-200.000	-0.040	0.199
-463.113	174.688	-0.103	-0.148
-462.099	800.000	-0.060	0.166
-461.084	43.380	0.119	0.108
-460.070	-23.395	-0.365	-0.218
-459.055	-76.983	-0.362	0.126
-458.040	-200.000	0.049	-0.263
-457.026	-200.000	-0.009	0.077
-456.011	302.443	-0.150	-0.275
-454.997	-200.000	0.003	-0.015
-453.982	-115.759	-0.085	0.016
-452.968	-2.396	0.271	0.189
-451.953	182.607	-0.104	0.153
-450.938	-83.985	-0.230	-0.073
-449.924	-200.000	0.025	-0.207
-448.909	3.733	-0.065	-0.047
-447.895	-200.000	-0.015	-0.209
-446.880	-125.065	-0.347	-0.053
-445.865	-93.311	0.079	0.022
-444.851	130.118	-0.206	0.262
-443.836	311.069	-0.168	0.313
-442.822	-73.686	0.119	-0.043
-441.807	-33.093	-0.277	0.153
-440.792	435.236	0.157	-0.340
-439.778	-59.294	-0.202	0.087
-438.763	-46.315	0.210	0.103
-437.749	-200.000	-0.023	0.423
-436.734	-58.887	0.072	-0.031
-435.719	-200.000	0.047	0.213
-434.705	-55.485	-0.301	0.134
-433.690	-98.221	0.413	0.105
-432.676	136.738	-0.115	0.149
-431.661	-200.000	-0.066	0.367
-430.646	-55.675	-0.417	-0.185
-429.632	143.786	-0.151	0.200
-428.617	-108.283	0.249	0.053
-427.603	-33.928	0.283	-0.155
-426.588	152.801	0.251	-0.341
-425.573	219.625	0.275	-0.437
-424.559	82.058	0.100	0.108
-423.544	-200.000	0.028	-0.129
-422.530	464.519	-0.114	-0.254
-421.515	-169.000	0.030	0.001
-420.500	-142.255	-0.153	-0.015
-419.486	591.782	0.084	0.206
-418.471	-3.799	-0.174	-0.120
-417.457	-69.830	-0.195	-0.074
-416.442	-102.246	0.143	-0.034
-415.428	800.000	-0.087	0.266
-414.413	117.971	0.206	0.252
-413.398	-199.607	-0.131	-0.001
-412.384	-36.232	0.269	-0.144
-411.369	185.904	-0.119	-0.175
-410.355	-200.000	-0.019	0.222
-409.340	104.388	-0.057	0.066
-408.325	-200.000	0.017	-0.294
-407.311	-112.109	-0.039	0.008
-406.296	386.235	0.062	0.128
-405.282	-20.278	-0.258	0.157
-404.267	-13.641	0.169	-0.108
-403.252	800.000	0.089	-0.277
-402.238	800.000	0.082	-0.343
-401.223	-129.590	-0.298	0.041
-400.209	88.961	-0.058	0.064
-399.194	-200.000	0.025	-0.129
-398.179	-200.000	0.005	0.271
-397.165	800.000	0.090	0.277
-396.150	-36.790	0.249	0.132
-395.136	-101.625	0.223	-0.054
-394.121	-200.000	-0.000	0.029
-393.106	-4.577	-0.034	-0.023
-392.092	-36.460	-0.108	-0.058
-391.077	-200.000	-0.032	-0.183
-390.063	-118.239	0.253	-0.045
-389.048	268.854	-0.011	0.018
-388.033	-144.797	-0.134	-0.012
-387.019	-133.135	0.096	0.012
-386.004	647.227	0.147	-0.372
-384.990	20.492	0.039	0.031
-383.975	-200.000	-0.038	-0.164
-382.960	-70.958	-0.102	0.038
-381.946	-200.000	-0.023	-0.109
-380.931	-124.249	0.276	-0.043
-379.917	52.200	-0.130	0.123
-378.902	368.951	0.115	0.231
-377.888	-156.458	0.365	-0.023
-376.873	58.055	-0.125	-0.121
-375.858	329.898	-0.113	0.215
-374.844	-156.195	0.103	0.006
-373.829	595.539	-0.079	0.195
-372.815	-127.912	-0.108	0.015
-371.800	19.373	0.184	-0.147
-370.785	256.284	0.067	0.114
-369.771	-101.667	-0.272	0.065
-368.756	1.768	0.244	-0.174
-367.742	-99.047	-0.261	0.066
-366.727	-122.080	0.189	-0.031
-365.712	-3.159	0.177	0.122
-364.698	800.000	-0.087	0.334
-363.683	-90.782	0.094	0.027
-362.669	-200.000	0.027	-0.323
-361.654	130.798	-0.171	-0.217
-360.639	-2.012	-0.361	0.252
-359.625	141.135	-0.153	-0.200
-358.610	201.246	0.068	0.104
-357.596	463.544	0.094	0.209
-356.581	228.639	0.023	-0.038
-355.566	-142.563	0.142	0.014
-354.552	61.187	0.160	-0.158
-353.537	-39.597	0.314	0.163
-352.523	89.795	0.236	0.261
-351.508	58.203	-0.114	-0.111
-350.493	-200.000	0.085	-0.373
-349.479	-200.000	-0.036	0.209
-348.464	-25.553	-0.128	0.075
-347.450	800.000	0.063	-0.190
-346.435	-68.495	0.140	-0.054
-345.420	800.000	-0.066	0.231
-344.406	800.000	0.061	0.208
-343.391	800.000	0.051	-0.183
-342.377	800.000	0.055	-0.213
-341.362	166.902	-0.164	0.231
-340.348	15.948	-0.141	-0.110
-339.333	29.395	-0.243	0.204
-338.318	-200.000	0.021	-0.264
-337.304	800.000	0.096	-0.369
-336.289	-36.106	0.111	-0.060
-335.275	-48.050	-0.139	0.066
-334.260	-200.000	0.010	0.159
-333.245	-51.657	0.201	0.093
-332.231	-110.138	-0.268	0.055
-331.216	-88.245	-0.221	0.065
-330.202	-200.000	0.009	-0.064
-329.187	-200.000	-0.034	0.172
-328.172	-45.286	-0.279	0.137
-327.158	800.000	0.057	-0.204
-326.143	-46.088	-0.188	-0.092
-325.129	-200.000	0.052	0.548
-324.114	129.185	-0.159	-0.201
-323.099	800.000	0.054	0.193
-322.085	121.434	-0.165	-0.203
-321.070	-135.359	-0.257	0.030
-320.056	-62.035	0.197	0.081
-319.041	431.535	0.037	-0.080
-318.026	-200.000	-0.010	0.284
-317.012	-169.005	0.067	0.002
-315.997	59.743	0.053	-0.051
-314.983	-200.000	-0.003	0.071
-313.968	-200.000	-0.014	-0.273
-312.953	57.996	0.233	-0.225
-311.939	183.657	-0.137	-0.201
-310.924	452.456	0.107	-0.233
-309.910	133.781	0.185	0.237
-308.895	800.000	0.009	-0.026
-307.880	-121.442	-0.457	0.075
-306.866	7.017	-0.097	0.071
-305.851	-107.418	-0.108	0.023
-304.837	-27.817	-0.116	-0.067
-303.822	540.019	0.064	0.151
-302.807	-200.000	0.003	0.076
-301.793	0.224	0.078	-0.055
-300.778	-153.593	0.301	0.021
-299.764	298.722	0.052	-0.094
-298.749	-153.403	0.196	0.013
-297.735	53.385	-0.078	0.073
-296.720	387.517	0.040	0.081
-295.705	162.378	0.024	-0.033
-294.691	49.314	-0.320	-0.298
-293.676	-200.000	-0.006	0.286
-292.662	67.583	-0.143	0.144
-291.647	-93.276	0.350	-0.096
-290.632	-137.993	0.080	-0.009
-289.618	361.416	-0.148	-0.293
-288.603	-200.000	-0.028	0.141
-287.589	-200.000	0.017	-0.111
-286.574	800.000	-0.038	0.151
-285.559	800.000	-0.063	-0.202
-284.545	-200.000	0.004	0.272
-283.530	-76.299	-0.127	0.044
-282.516	800.000	-0.063	0.246
-281.501	800.000	0.062	0.246
-280.486	169.853	0.388	0.548
-279.472	34.912	0.170	0.147
-278.457	24.454	-0.250	-0.204
-277.443	-188.630	-0.091	-0.001
-276.428	37.124	-0.192	0.168
-275.413	-14.157	0.036	0.023
-274.399	-55.337	0.176	-0.078
-273.384	90.457	-0.167	0.185
-272.370	-131.024	0.159	-0.021
-271.355	-200.000	-0.016	0.424
-270.340	800.000	-0.161	0.442
-269.326	-42.842	-0.097	-0.048
-268.311	-158.354	0.286	0.016
-267.297	164.055	-0.105	0.146
-266.282	-11.123	-0.181	0.118
-265.267	307.707	-0.109	-0.201
-264.253	-4.702	-0.170	0.116
-263.238	-91.652	-0.068	0.019
-262.224	409.160	0.204	-0.425
-261.209	154.189	0.231	0.313
-260.195	2.894	-0.187	-0.134
-259.180	79.665	-0.106	-0.112
-258.165	410.545	0.157	0.328
-257.151	-123.138	-0.278	0.044
-256.136	-58.690	0.148	-0.063
-255.122	589.229	0.071	-0.172
-254.107	181.599	-0.232	0.337
-253.092	431.759	0.057	-0.123
-252.078	-200.000	0.038	-0.256
-251.063	694.554	0.091	0.236
-250.049	-19.984	-0.199	0.121
-249.034	85.542	0.308	0.333
-248.019	-200.000	0.023	-0.124
-247.005	-200.000	-0.029	-0.147
-245.990	-181.719	-0.162	0.003
-244.976	800.000	0.085	-0.263
-243.961	208.888	0.194	-0.300
-242.946	487.678	0.040	-0.091
-241.932	141.583	0.149	0.194
-240.917	-24.951	0.255	-0.149
-239.903	101.571	-0.064	-0.073
-238.888	588.113	-0.022	-0.053
-237.873	-60.804	0.333	-0.139
-236.859	68.075	0.106	0.107
-235.844	652.145	0.089	0.224
-234.830	145.685	0.135	0.178
-233.815	453.941	-0.080	-0.174
-232.800	-34.948	-0.252	-0.136
-231.786	-200.000	0.037	0.311
-230.771	81.718	-0.088	0.093
-229.757	27.355	0.050	0.041
-228.742	35.947	0.177	-0.154
-227.727	-107.565	-0.273	0.059
-226.713	65.963	0.183	-0.183
-225.698	-66.213	0.250	-0.098
-224.684	-57.271	0.224	0.097
-223.669	7.114	0.256	-0.188
-222.655	-50.019	-0.169	-0.079
-221.640	230.620	0.111	0.179
-220.625	-11.567	-0.191	-0.124
-219.611	-173.133	0.099	-0.003
-218.596	800.000	0.049	-0.136
-217.582	-56.789	-0.196	0.086
-216.567	561.150	-0.047	-0.112
-215.552	-32.639	-0.103	0.057
-214.538	297.217	-0.216	-0.391
-213.523	-200.000	-0.082	-0.488
-212.509	-56.326	-0.259	0.114
-211.494	-34.655	0.241	-0.130
-210.479	-94.950	-0.090	0.024
-209.465	-143.173	0.082	0.008
-208.450	21.210	0.369	-0.295
-207.436	-158.525	-0.078	0.004
-206.421	208.496	-0.106	-0.163
-205.406	-29.826	-0.183	0.103
-204.392	-135.460	0.100	-0.012
-203.377	74.275	-0.073	0.075
-202.363	125.209	-0.216	-0.268
-201.348	-38.661	-0.141	0.073
-200.333	-200.000	-0.056	0.245
-199.319	-200.000	0.002	0.036
-198.304	-200.000	-0.019	-0.423
-197.290	-65.726	0.306	0.121
-196.275	-13.972	0.127	-0.081
-195.260	800.000	0.049	-0.158
-194.246	-137.821	0.067	0.007
-193.231	-44.086	0.471	-0.233
-192.217	-200.000	-0.043	-0.228
-191.202	-19.004	-0.158	0.097
-190.187	-200.000	-0.023	-0.101
-189.173	730.318	-0.091	0.240
-188.158	670.512	-0.083	-0.210
-187.144	-121.122	0.198	-0.033
-186.129	-153.420	0.274	-0.019
-185.114	-21.958	0.218	-0.131
-184.100	800.000	-0.035	-0.124
-183.085	11.473	0.335	-0.252
-182.071	131.472	0.099	0.125
-181.056	-200.000	-0.024	-0.198
-180.042	187.105	0.064	0.094
-179.027	-200.000	-0.012	-0.147
-178.012	282.934	0.033	-0.058
-176.998	800.000	0.052	-0.151
-175.983	-5.512	0.201	-0.136
-174.969	-200.000	0.029	-0.199
-173.954	-155.448	0.192	0.012
-172.939	800.000	0.118	-0.352
-171.925	-5.979	0.162	-0.109
-170.910	477.295	-0.025	0.056
-169.896	800.000	-0.054	0.150
-168.881	-93.253	-0.132	-0.036
-167.866	72.350	0.165	-0.170
-166.852	377.649	-0.059	0.118
-165.837	800.000	0.074	-0.200
-164.823	71.561	-0.062	0.063
-163.808	22.998	0.099	0.080
-162.793	120.624	0.219	-0.267
-161.779	-115.363	-0.278	0.052
-160.764	-90.414	-0.325	0.093
-159.750	-200.000	0.003	-0.166
-158.735	-37.830	-0.317	-0.166
-157.720	-102.517	0.198	-0.047
-156.706	114.185	-0.134	0.160
-155.691	657.514	-0.025	-0.064
-154.677	-3.213	0.199	0.136
-153.662	-200.000	0.050	0.259
-152.647	-115.838	0.043	0.008
-151.633	-3.875	0.070	-0.048
-150.618	535.550	0.133	0.311
-149.604	19.037	-0.262	0.207
-148.589	-200.000	-0.046	-0.254
-147.574	-200.000	0.030	-0.131
-146.560	407.505	0.111	-0.230
-145.545	194.060	-0.057	0.084
-144.531	-200.000	0.025	-0.466
-143.516	-197.610	0.037	-0.000
-142.502	800.000	-0.075	0.306
-141.487	-200.000	-0.011	0.159
-140.472	-57.956	0.316	-0.135
-139.458	246.093	-0.197	-0.325
-138.443	347.612	0.068	-0.132
-137.429	-83.275	0.307	0.097
-136.414	10.326	-0.369	0.276
-135.399	31.926	0.049	0.041
-134.385	170.193	0.151	0.212
-133.370	-131.329	-0.186	0.024
-132.356	-41.093	0.141	0.072
-131.341	603.715	-0.153	-0.375
-130.326	-187.177	-0.080	-0.001
-129.312	293.230	-0.042	0.076
-128.297	-200.000	0.067	0.418
-127.283	-161.727	-0.129	-0.006
-126.268	-124.087	-0.235	0.036
-125.253	2.908	-0.102	-0.073
-124.239	97.474	0.255	0.288
-123.224	-200.000	0.018	0.193
-122.210	-94.101	-0.155	0.042
-121.195	604.849	-0.090	0.219
-120.180	-138.236	-0.131	0.014
-119.166	-129.846	-0.479	-0.065
-118.151	-99.355	0.276	-0.068
-117.137	-148.896	-0.558	0.044
-116.122	-200.000	-0.005	0.289
-115.107	-200.000	-0.016	0.088
-114.093	-16.223	0.292	0.182
-113.078	79.440	0.194	0.204
-112.064	757.986	-0.061	0.163
-111.049	-200.000	-0.013	0.078
-110.034	326.313	0.030	-0.057
-109.020	-144.437	-0.398	0.036
-108.005	-105.060	-0.163	-0.037
-106.991	39.482	0.061	0.053
-105.976	546.055	0.100	-0.235
-104.962	569.325	0.075	0.180
-103.947	-200.000	0.054	0.315
-102.932	8.741	-0.112	-0.083
-101.918	76.069	-0.156	0.162
-100.903	49.890	0.145	0.134
-99.889	-200.000	-0.011	0.271
-98.874	-103.737	-0.056	0.013
-97.859	800.000	-0.036	0.104
-96.845	81.643	-0.167	-0.177
-95.830	-200.000	-0.046	0.231
-94.816	122.985	0.157	0.193
-93.801	177.902	0.087	-0.125
-92.786	324.344	-0.046	0.086
-91.772	65.372	-0.192	-0.191
-90.757	34.076	-0.225	0.192
-89.743	-200.000	-0.018	-0.136
-88.728	32.756	-0.060	-0.051
-87.713	-67.080	0.362	0.140
-86.699	-63.414	0.109	-0.044
-85.684	100.738	-0.180	-0.205
-84.670	184.543	0.129	-0.187
-83.655	141.456	-0.216	0.280
-82.640	-200.000	-0.005	0.862
-81.626	122.274	-0.096	0.117
-80.611	280.946	0.233	-0.409
-79.597	-200.000	0.015	-0.065
-78.582	800.000	-0.104	0.284
-77.567	-33.539	-0.247	0.134
-76.553	39.636	0.015	-0.013
-75.538	-88.699	0.290	0.085
-74.524	177.308	0.150	-0.213
-73.509	5.020	-0.070	0.051
-72.494	-200.000	0.015	-0.313
-71.480	-8.746	0.402	0.264
-70.465	-25.045	-0.431	0.250
-69.451	179.380	-0.275	0.394
-68.436	-65.595	0.120	0.047
-67.422	-80.118	-0.418	-0.137
-66.407	-200.000	0.049	0.270
-65.392	-50.076	-0.094	0.043
-64.378	-200.000	-0.026	0.120
-63.363	-200.000	-0.060	0.274
-62.349	436.489	0.119	0.255
-61.334	-3.722	-1.222	-0.831
-60.319	55.897	0.652	0.619
-59.305	800.000	-0.455	-1.488
-58.290	329.282	0.870	1.638
-57.276	800.000	0.463	1.300
-56.261	-200.000	123.998	641.098
-55.246	408.114	1562.335	3234.785
-54.232	140.730	2733.404	3535.042
-53.217	86.364	2340.874	2525.290
-52.203	29.696	2086.899	1738.813
-51.188	24.979	2002.481	1625.709
-50.173	23.746	1985.841	1601.033
-49.159	41.530	2057.675	1823.208
-48.144	39.882	2070.361	1819.213
-47.130	25.439	2022.822	1646.179
-46.115	23.293	2011.956	1617.691
-45.100	23.220	2008.920	1614.518
-44.086	23.112	2006.754	1611.733
-43.071	23.074	2004.346	1609.387
-42.057	23.012	2002.803	1607.519
-41.042	23.137	2000.937	1607.094
-40.027	23.132	1999.021	1605.446
-39.013	23.187	1996.638	1603.967
-37.998	23.220	1994.707	1602.651
-36.984	23.153	1993.579	1601.078
-35.969	23.095	1991.572	1598.873
-34.954	23.201	1989.391	1598.018
-33.940	23.204	1988.175	1597.008
-32.925	23.204	1986.847	1595.876
-31.911	23.219	1985.275	1594.683
-30.896	23.253	1983.469	1593.474
-29.881	23.322	1981.774	1592.672
-28.867	23.277	1980.245	1590.980
-27.852	23.262	1978.737	1589.563
-26.838	23.292	1976.891	1588.285
-25.823	23.330	1974.781	1586.872
-24.809	23.241	1972.907	1584.505
-23.794	23.282	1971.758	1583.888
-22.779	23.247	1969.890	1582.008
-21.765	23.224	1968.742	1580.823
-20.750	23.323	1966.459	1579.805
-19.736	23.318	1965.199	1578.689
-18.721	23.290	1963.907	1577.341
-17.706	23.323	1961.897	1575.952
-16.692	23.288	1960.435	1574.406
-15.677	23.258	1958.719	1572.705
-14.663	23.360	1956.971	1572.136
-13.648	23.264	1956.115	1570.541
-12.633	23.197	1955.234	1569.173
-11.619	23.284	1953.514	1568.502
-10.604	23.270	1952.031	1567.126
-9.590	23.292	1950.655	1566.154
-8.575	23.223	1949.237	1564.339
-7.560	23.277	1948.412	1564.092
-6.546	23.266	1946.637	1562.513
-5.531	23.294	1945.551	1561.827
-4.517	23.343	1944.095	1561.030
-3.502	23.310	1943.082	1559.860
-2.487	23.313	1941.546	1558.594
-1.473	23.358	1940.873	1558.386
-0.458	23.408	1935.620	1554.541
0.556	21.706	1915.805	1527.022
1.571	17.729	1897.747	1478.092
2.586	14.197	1921.183	1465.163
3.600	13.342	1956.693	1484.449
4.615	13.435	1949.232	1479.485
5.629	10.399	1848.513	1377.148
6.644	4.013	1734.510	1241.031
7.659	0.559	1700.953	1189.728
8.673	0.172	1698.614	1184.945
9.688	0.254	1696.840	1184.245
10.702	0.171	1695.549	1182.592
11.717	0.103	1691.513	1179.138
12.731	0.467	1690.189	1180.958
13.746	5.540	1700.708	1228.087
14.761	12.747	1715.505	1295.521
15.775	16.335	1721.783	1328.424
16.790	16.661	1721.206	1330.419
17.804	15.847	1718.248	1321.625
18.819	14.900	1714.982	1311.575
19.834	14.361	1712.036	1304.982
20.848	14.073	1710.724	1301.616
21.863	13.887	1709.003	1298.736
22.877	13.659	1707.133	1295.414
23.892	13.408	1705.836	1292.358
24.907	13.311	1704.765	1290.678
25.921	13.210	1704.135	1289.294
26.936	13.194	1703.357	1288.466
27.950	13.292	1701.922	1288.036
28.965	13.353	1701.398	1287.998
29.980	13.396	1700.827	1287.786
30.994	13.443	1699.575	1287.087
32.009	13.511	1698.807	1286.920
33.023	13.505	1697.524	1285.788
34.038	13.517	1697.097	1285.448
35.053	13.425	1696.089	1283.855
36.067	13.426	1694.739	1282.725
37.082	13.504	1693.570	1282.330
38.096	13.404	1692.885	1280.926
39.111	13.500	1691.638	1280.615
40.126	13.491	1691.098	1280.023
41.140	13.443	1690.718	1279.249
42.155	13.403	1688.994	1277.524
43.169	13.240	1687.403	1274.952
44.184	13.349	1685.860	1274.507
45.199	13.324	1684.747	1273.360
46.213	13.332	1683.676	1272.507
47.228	13.265	1683.137	1271.466
48.242	13.284	1681.879	1270.551
49.257	13.288	1680.506	1269.431
50.271	13.360	1678.682	1268.494
51.286	13.374	1677.744	1267.784
52.301	13.421	1676.015	1266.724
53.315	13.364	1674.700	1265.177
54.330	13.342	1673.397	1263.918
55.344	13.291	1671.749	1262.165
56.359	13.237	1670.484	1260.691
57.374	13.269	1669.391	1259.997
58.388	13.237	1668.087	1258.656
59.403	13.257	1666.725	1257.670
60.417	13.269	1665.346	1256.612
61.432	13.247	1664.102	1255.392
62.447	13.190	1662.669	1253.771
63.461	13.252	1661.093	1252.943
64.476	13.160	1660.561	1251.727
65.490	13.241	1658.812	1250.917
66.505	13.156	1657.630	1249.269
67.520	13.173	1656.914	1248.752
68.534	13.173	1656.187	1248.091
69.549	13.372	1654.233	1248.012
70.563	13.300	1653.191	1246.570
71.578	13.269	1651.567	1245.000
72.593	13.158	1651.094	1243.695
73.607	13.172	1649.885	1242.784
74.622	13.186	1648.534	1241.757
75.636	13.165	1647.633	1240.816
76.651	13.155	1646.849	1240.039
77.666	13.129	1645.655	1238.837
78.680	13.122	1644.758	1237.997
79.695	13.115	1643.758	1237.087
80.709	13.185	1642.225	1236.348
81.724	13.171	1642.091	1236.026
82.739	13.291	1640.702	1235.767
83.753	13.287	1639.316	1234.592
84.768	13.262	1638.964	1234.026
85.782	13.370	1637.544	1233.654
86.797	13.432	1636.789	1233.441
87.812	13.314	1636.503	1232.233
88.826	13.397	1634.955	1231.575
89.841	13.338	1633.910	1230.242
90.855	13.248	1632.777	1228.614
91.870	13.299	1631.743	1228.104
92.884	13.366	1630.534	1227.584
93.899	13.396	1629.414	1226.854
94.914	13.387	1628.679	1226.121
95.928	13.418	1627.100	1225.054
96.943	13.492	1625.654	1224.409
97.957	13.432	1624.662	1223.107
98.972	13.473	1622.578	1221.732
99.987	13.397	1621.619	1220.342
101.001	13.389	1620.103	1219.038
102.016	13.317	1618.606	1217.269
103.030	13.420	1616.714	1216.496
104.045	13.352	1615.601	1215.053
105.060	13.415	1614.504	1214.583
106.074	13.353	1612.823	1212.755
107.089	13.364	1611.307	1211.588
108.103	13.318	1610.103	1210.243
109.118	13.160	1608.818	1208.009
110.133	13.191	1607.230	1206.938
111.147	13.260	1605.506	1206.044
112.162	13.294	1604.300	1205.279
113.176	13.318	1602.860	1204.260
114.191	13.322	1601.584	1203.225
115.206	13.357	1600.770	1202.766
116.220	13.354	1599.254	1201.497
117.235	13.302	1597.493	1199.690
118.249	13.374	1596.480	1199.343
119.264	13.283	1595.093	1197.533
120.279	13.363	1593.440	1196.771
121.293	13.289	1592.237	1195.221
122.308	13.272	1590.493	1193.690
123.322	13.292	1589.208	1192.760
124.337	13.251	1587.712	1191.240
125.352	13.386	1586.208	1190.972
126.366	13.250	1585.228	1189.154
127.381	13.295	1584.013	1188.464
128.395	13.328	1582.736	1187.637
129.410	13.239	1581.630	1186.063
130.424	13.247	1579.858	1184.687
131.439	13.253	1578.528	1183.629
132.454	13.335	1576.932	1182.913
133.468	13.297	1575.841	1181.718
134.483	13.257	1574.657	1180.442
135.497	13.388	1573.071	1180.081
136.512	13.304	1571.529	1178.223
137.527	13.374	1570.349	1177.730
138.541	13.398	1568.938	1176.738
139.556	13.326	1567.920	1175.360
140.570	13.302	1566.396	1173.945
141.585	13.421	1564.483	1173.248
142.600	13.533	1563.619	1173.292
143.614	13.472	1562.667	1172.040
144.629	13.644	1560.712	1171.684
145.643	13.571	1559.579	1170.217
146.658	13.612	1557.900	1169.144
147.673	13.467	1556.595	1167.035
148.687	13.497	1555.318	1166.186
149.702	13.467	1553.591	1164.578
150.716	13.522	1552.204	1163.823
151.731	13.511	1550.725	1162.536
152.746	13.534	1548.972	1161.276
153.760	13.442	1547.932	1159.748
154.775	13.604	1546.407	1159.638
155.789	13.519	1545.788	1158.477
156.804	13.546	1544.595	1157.668
157.819	13.702	1542.670	1157.214
158.833	13.579	1541.974	1155.733
159.848	13.633	1540.640	1155.003
160.862	13.665	1539.168	1154.021
161.877	13.667	1537.893	1152.975
162.892	13.738	1536.798	1152.551
163.906	13.603	1535.247	1150.350
164.921	13.593	1534.122	1149.334
165.935	13.567	1533.380	1148.498
166.950	13.585	1532.220	1147.648
167.964	13.633	1530.560	1146.638
168.979	13.682	1529.641	1146.187
169.994	13.735	1528.314	1145.459
171.008	13.668	1527.530	1144.302
172.023	13.703	1526.758	1143.866
173.037	13.800	1525.394	1143.415
174.052	13.794	1524.427	1142.542
175.067	13.764	1523.495	1141.535
176.081	13.743	1522.294	1140.392
177.096	13.801	1520.242	1139.155
178.110	13.700	1519.615	1137.888
179.125	13.688	1518.634	1136.972
180.140	13.750	1517.253	1136.260
181.154	13.779	1516.209	1135.577
182.169	13.840	1514.787	1134.827
183.183	13.886	1513.680	1134.211
184.198	13.838	1512.723	1133.067
185.213	13.858	1511.635	1132.292
186.227	13.918	1510.515	1131.761
187.242	13.871	1509.486	1130.571
188.256	13.960	1508.230	1130.137
189.271	13.984	1506.977	1129.256
190.286	14.018	1505.731	1128.458
191.300	13.925	1504.661	1126.920
192.315	13.869	1503.131	1125.298
193.329	13.772	1502.412	1123.998
194.344	13.810	1501.348	1123.362
195.359	13.812	1500.069	1122.321
196.373	13.744	1499.754	1121.526
197.388	14.035	1497.664	1121.829
198.402	14.015	1496.649	1120.835
199.417	14.002	1495.584	1119.847
200.432	14.107	1494.335	1119.526
201.446	14.100	1493.746	1118.932
202.461	14.190	1492.370	1118.408
203.475	14.236	1491.246	1117.781
204.490	14.220	1489.880	1116.548
205.504	14.197	1488.826	1115.507
206.519	14.152	1488.032	1114.512
207.534	14.135	1486.409	1113.079
208.548	14.184	1485.732	1112.802
209.563	14.130	1484.579	1111.482
210.577	14.186	1483.383	1110.859
211.592	14.228	1482.611	1110.463
212.607	14.187	1481.624	1109.353
213.621	14.225	1481.092	1109.111
214.636	14.327	1480.041	1108.903
215.650	14.297	1479.081	1107.888
216.665	14.257	1478.168	1106.843
217.680	14.338	1477.436	1106.733
218.694	14.349	1476.057	1105.672
219.709	14.325	1475.374	1104.909
220.723	14.400	1474.682	1104.785
221.738	14.439	1473.668	1104.189
222.753	14.358	1473.113	1103.138
223.767	14.301	1472.219	1101.991
224.782	14.462	1470.708	1101.830
225.796	14.525	1469.568	1101.292
226.811	14.506	1469.043	1100.675
227.826	14.528	1468.047	1099.981
228.840	14.478	1467.392	1099.059
229.855	14.416	1466.212	1097.673
230.869	14.459	1465.180	1097.085
231.884	14.455	1464.407	1096.381
232.899	14.424	1462.877	1094.935
233.913	14.449	1461.596	1094.043
234.928	14.550	1460.716	1093.953
235.942	14.409	1459.923	1092.335
236.957	14.428	1458.831	1091.551
237.972	14.496	1456.535	1090.177
238.986	14.535	1455.910	1089.867
240.001	14.481	1454.962	1088.708
241.015	14.529	1454.384	1088.497
242.030	14.568	1452.982	1087.603
243.045	14.528	1451.843	1086.394
244.059	14.468	1451.683	1085.787
245.074	14.662	1450.501	1086.071
246.088	14.627	1449.727	1085.166
247.103	14.650	1448.701	1084.452
248.117	14.757	1448.007	1084.532
249.132	14.754	1447.100	1083.738
250.147	14.779	1446.544	1083.389
251.161	14.735	1445.853	1082.491
252.176	14.875	1445.093	1082.727
253.190	14.941	1444.053	1082.281
254.205	14.989	1442.620	1081.421
255.220	15.068	1442.203	1081.522
256.234	14.943	1441.789	1080.311
257.249	15.041	1440.527	1079.903
258.263	15.034	1439.828	1079.235
259.278	15.037	1438.772	1078.368
260.293	15.080	1437.671	1077.728
261.307	14.979	1437.616	1076.936
262.322	14.997	1436.566	1076.174
263.336	15.095	1435.718	1076.073
264.351	15.104	1434.381	1075.032
265.366	15.025	1434.169	1074.273
266.380	15.174	1432.606	1073.963
267.395	15.157	1431.397	1072.850
268.409	15.124	1430.953	1072.212
269.424	15.134	1429.721	1071.258
270.439	15.184	1428.823	1070.809
271.453	15.212	1427.451	1069.864
272.468	15.160	1426.805	1068.953
273.482	15.112	1426.527	1068.344
274.497	15.092	1425.401	1067.278
275.512	15.120	1424.690	1066.831
276.526	15.201	1423.288	1066.204
277.541	15.225	1422.258	1065.491
278.555	15.264	1421.348	1064.959
279.570	15.189	1420.689	1063.895
280.585	15.212	1419.609	1063.137
281.599	15.339	1418.347	1062.907
282.614	15.384	1417.785	1062.673
283.628	15.327	1416.336	1061.136
284.643	15.282	1416.069	1060.555
285.657	15.300	1414.590	1059.470
286.672	15.363	1413.913	1059.269
287.687	15.416	1412.919	1058.760
288.701	15.423	1411.769	1057.850
289.716	15.408	1411.245	1057.271
290.730	15.425	1410.292	1056.572
291.745	15.390	1409.196	1055.436
292.760	15.407	1408.173	1054.681
293.774	15.470	1407.179	1054.237
294.789	15.454	1406.253	1053.353
295.803	15.450	1405.725	1052.838
296.818	15.526	1404.489	1052.296
297.833	15.510	1403.814	1051.594
298.847	15.606	1402.315	1050.980
299.862	15.617	1401.174	1050.102
300.876	15.508	1400.406	1048.755
301.891	15.590	1399.912	1048.801
302.906	15.498	1399.011	1047.457
303.920	15.604	1398.014	1047.280
304.935	15.681	1397.026	1046.930
305.949	15.709	1396.319	1046.480
306.964	15.747	1395.406	1045.941
307.979	15.750	1394.326	1045.056
308.993	15.666	1393.941	1044.151
310.008	15.770	1392.843	1043.883
311.022	15.838	1391.509	1043.211
312.037	15.785	1390.934	1042.365
313.052	15.874	1389.634	1041.846
314.066	15.879	1388.761	1041.128
315.081	15.680	1388.114	1039.324
316.095	15.720	1386.642	1038.375
317.110	15.694	1385.753	1037.461
318.125	15.724	1384.923	1036.932
319.139	15.861	1383.600	1036.694
320.154	15.798	1383.003	1035.763
321.168	15.807	1381.565	1034.649
322.183	15.770	1381.276	1034.112
323.197	15.898	1379.985	1033.844
324.212	15.748	1379.497	1032.467
325.227	15.826	1378.520	1032.119
326.241	15.939	1377.581	1032.017
327.256	15.918	1376.670	1031.117
328.270	16.001	1375.377	1030.563
329.285	15.991	1374.586	1029.817
330.300	15.898	1373.741	1028.529
331.314	15.944	1372.933	1028.114
332.329	15.965	1371.940	1027.408
333.343	15.912	1371.215	1026.450
334.358	15.992	1370.317	1026.175
335.373	16.042	1369.624	1025.867
336.387	16.097	1368.427	1025.218
337.402	16.082	1368.232	1024.885
338.416	16.115	1367.722	1024.612
339.431	16.095	1366.727	1023.656
340.446	16.190	1365.791	1023.443
341.460	16.053	1364.855	1021.823
342.475	16.241	1364.164	1022.354
343.489	16.279	1362.993	1021.612
344.504	16.270	1361.950	1020.689
345.519	16.221	1361.247	1019.773
346.533	16.336	1360.216	1019.602
347.548	16.281	1359.053	1018.311
348.562	16.361	1358.360	1018.185
349.577	16.371	1357.679	1017.646
350.592	16.317	1356.895	1016.640
351.606	16.363	1356.093	1016.229
352.621	16.338	1354.837	1015.044
353.635	16.300	1353.868	1014.000
354.650	16.316	1352.697	1013.128
355.665	16.282	1351.806	1012.172
356.679	16.367	1350.694	1011.758
357.694	16.322	1349.710	1010.663
358.708	16.306	1348.747	1009.754
359.723	16.457	1347.496	1009.630
360.738	16.487	1346.506	1008.982
361.752	16.438	1345.677	1007.977
362.767	16.459	1344.533	1007.155
363.781	16.417	1343.621	1006.132
364.796	16.556	1342.986	1006.394
365.810	16.469	1342.248	1005.236
366.825	16.550	1341.404	1004.999
367.840	16.623	1340.548	1004.700
368.854	16.594	1339.985	1004.019
369.869	16.677	1339.245	1003.869
370.883	16.693	1338.660	1003.435
371.898	16.712	1338.069	1003.011
372.913	16.643	1337.097	1001.789
373.927	16.561	1336.740	1000.944
374.942	16.686	1335.760	1000.865
375.956	16.689	1334.658	999.967
376.971	16.761	1333.410	999.366
377.986	16.770	1332.881	998.938
379.000	16.706	1332.337	998.063
380.015	16.722	1331.504	997.447
381.029	16.803	1330.479	997.066
382.044	16.864	1330.034	997.001
383.059	16.879	1329.243	996.410
384.073	16.885	1328.632	995.898
385.088	16.883	1328.064	995.376
386.102	16.888	1327.676	995.024
387.117	16.898	1326.364	994.009
388.132	16.904	1325.747	993.495
389.146	16.873	1324.890	992.584
390.161	16.835	1323.717	991.397
391.175	16.913	1323.139	991.328
392.190	16.983	1322.147	990.909
393.205	16.988	1321.297	990.216
394.219	16.971	1320.537	989.457
395.234	17.047	1318.759	988.483
396.248	17.072	1317.469	987.573
397.263	17.040	1316.605	986.648
398.278	17.010	1315.120	985.274
399.292	16.991	1314.300	984.463
400.307	16.946	1313.425	983.458
401.321	17.016	1311.822	982.576
402.336	16.983	1311.187	981.822
403.350	17.000	1310.378	981.229
404.365	16.998	1309.378	980.386
405.380	17.061	1308.464	979.974
406.394	17.126	1307.551	979.583
407.409	17.133	1306.942	979.077
408.423	17.166	1306.095	978.548
409.438	17.149	1305.563	977.964
410.453	17.288	1304.588	977.948
411.467	17.208	1303.648	976.694
412.482	17.280	1303.487	976.904
413.496	17.268	1302.538	976.037
414.511	17.332	1301.597	975.612
415.526	17.355	1301.280	975.419
416.540	17.331	1300.913	974.920
417.555	17.412	1299.859	974.507
418.569	17.520	1298.824	974.265
419.584	17.435	1298.802	973.676
420.599	17.483	1298.051	973.302
421.613	99.646	1362.165	1487.891
422.628	97.795	1371.417	1487.948
