DTS Sentinel unit serial number:	SN413079Multiplexer serial number:	ORYXHardware model number:	OX4-SRSoftware version number:	ORYX F/W v4.00 Oryx Data Collector v3.7.2.0data status	okinstallation	princeton_trtdifferential loss correction	single-endedforward channel	channel 4reverse channel	N/Adate	2019/09/17time	09:41:35forward acquisition time	60.00reverse acquisition time	0.00gamma	496.2192k internal	0.2311k external	0.2311temperature offset calibration	0.9977default loss term (dB/km)	0.3790temperature slope calibration	1.0000multiplexer offset coefficient	1.0000multiplexer slope coefficient	1.0000fibre end	0.00T internal ref (°C)	29.25T ext. ref 1 (°C)	0.15T ext. ref 2 (°C)	25.40length (m)	temperature (°C)	Stokes	anti-Stokes-747.200	38.426	-0.240	-0.217
-746.185	-200.000	0.026	0.245
-745.171	-88.393	0.236	0.072
-744.156	-200.000	-0.001	0.370
-743.142	-200.000	0.002	0.466
-742.127	143.298	-0.197	0.266
-741.112	123.420	-0.236	0.300
-740.098	766.269	0.114	0.316
-739.083	-200.000	0.002	0.024
-738.069	160.773	-0.098	-0.139
-737.054	113.683	-0.045	-0.056
-736.039	-102.774	0.015	0.004
-735.025	79.171	0.235	0.255
-734.010	800.000	0.033	-0.120
-732.996	-138.577	0.201	-0.022
-731.981	800.000	-0.031	0.099
-730.966	40.210	-0.239	0.218
-729.952	-141.488	-0.227	-0.023
-728.937	800.000	0.023	-0.077
-727.923	800.000	-0.028	-0.089
-726.908	-57.715	-0.227	0.101
-725.894	-63.144	-0.170	-0.071
-724.879	-36.936	-0.217	0.118
-723.864	-37.542	-0.148	-0.080
-722.850	-20.180	-0.207	-0.129
-721.835	-200.000	-0.016	-0.097
-720.821	-200.000	0.034	0.208
-719.806	-104.473	0.397	-0.093
-718.791	-123.592	-0.180	0.029
-717.777	191.936	-0.037	-0.057
-716.762	-149.486	-0.195	-0.016
-715.748	-200.000	-0.003	0.198
-714.733	-70.454	0.314	0.121
-713.718	800.000	0.094	-0.318
-712.704	-48.427	-0.100	0.049
-711.689	159.589	-0.003	-0.004
-710.675	-98.466	0.128	0.033
-709.660	-27.817	-0.167	-0.098
-708.645	-200.000	0.038	0.182
-707.631	-97.387	-0.111	0.029
-706.616	135.911	-0.150	-0.199
-705.602	10.532	-0.090	0.070
-704.587	800.000	0.085	-0.285
-703.572	-200.000	0.000	-0.055
-702.558	65.356	-0.118	-0.121
-701.543	800.000	0.115	-0.412
-700.529	-16.929	-0.314	0.201
-699.514	-73.622	0.206	-0.076
-698.499	-200.000	-0.007	-0.071
-697.485	64.568	0.163	-0.167
-696.470	-33.629	-0.162	0.090
-695.456	-200.000	-0.012	-0.155
-694.441	100.685	0.238	0.280
-693.426	8.462	0.128	-0.098
-692.412	379.620	-0.130	-0.270
-691.397	406.082	-0.046	-0.099
-690.383	361.581	-0.097	-0.197
-689.368	-25.213	-0.362	0.217
-688.354	-139.215	-0.336	0.037
-687.339	-95.741	0.275	0.075
-686.324	-116.115	0.095	0.018
-685.310	800.000	-0.117	0.343
-684.295	-200.000	-0.049	0.306
-683.281	51.910	-0.122	-0.118
-682.266	2.342	-0.228	0.167
-681.251	94.994	0.049	-0.057
-680.237	-200.000	-0.025	0.122
-679.222	691.708	0.033	0.089
-678.208	101.458	0.165	0.195
-677.193	468.613	-0.052	0.117
-676.178	-87.224	-0.328	0.101
-675.164	-106.855	0.183	-0.041
-674.149	-114.788	-0.197	0.038
-673.135	85.634	0.319	-0.354
-672.120	564.644	-0.053	0.130
-671.105	-200.000	-0.045	-0.282
-670.091	177.174	0.278	0.410
-669.076	-141.883	0.094	0.009
-668.062	97.749	-0.125	0.145
-667.047	165.784	-0.134	0.192
-666.032	800.000	-0.047	-0.146
-665.018	150.019	-0.147	-0.202
-664.003	800.000	0.054	0.231
-662.989	-11.323	0.115	0.076
-661.974	-101.871	0.274	-0.067
-660.959	800.000	-0.029	0.096
-659.945	216.164	0.129	0.207
-658.930	-200.000	0.021	0.326
-657.916	108.313	0.044	-0.053
-656.901	-153.475	-0.361	-0.025
-655.886	-56.062	-0.086	-0.039
-654.872	800.000	0.089	-0.376
-653.857	800.000	0.059	-0.207
-652.843	-200.000	0.061	-0.415
-651.828	-200.000	0.003	-0.100
-650.814	95.118	-0.162	-0.186
-649.799	-133.746	-0.194	0.025
-648.784	130.356	0.236	-0.305
-647.770	800.000	0.034	0.119
-646.755	-200.000	0.039	0.218
-645.741	-200.000	-0.005	-0.313
-644.726	-200.000	0.004	0.087
-643.711	-2.418	0.168	-0.119
-642.697	370.315	0.025	0.051
-641.682	800.000	-0.039	0.132
-640.668	-180.158	-0.445	-0.009
-639.653	-177.282	-0.263	0.007
-638.638	68.849	-0.263	0.273
-637.624	-121.660	-0.392	0.066
-636.609	-85.263	0.299	0.094
-635.595	800.000	-0.064	-0.190
-634.580	-120.580	-0.215	0.037
-633.565	176.709	0.116	-0.170
-632.551	800.000	-0.137	0.385
-631.536	-125.281	-0.431	-0.067
-630.522	-159.147	-0.385	0.022
-629.507	-64.497	-0.321	-0.132
-628.492	-200.000	0.004	0.133
-627.478	196.484	-0.227	0.349
-626.463	-200.000	-0.028	0.182
-625.449	281.912	-0.043	0.078
-624.434	-200.000	0.040	-0.242
-623.419	-81.241	0.222	0.074
-622.405	-163.473	0.071	-0.003
-621.390	47.210	-0.339	-0.318
-620.376	-200.000	0.007	0.067
-619.361	363.353	-0.006	-0.013
-618.346	-200.000	-0.013	-0.430
-617.332	268.196	-0.088	0.156
-616.317	-87.182	0.059	-0.018
-615.303	-36.961	-0.209	-0.113
-614.288	-2.450	0.033	0.023
-613.273	-200.000	0.460	-0.001
-612.259	54.675	0.275	0.268
-611.244	-41.643	-0.154	0.080
-610.230	393.516	0.108	-0.227
-609.215	552.615	0.065	-0.158
-608.201	-83.314	-0.306	-0.099
-607.186	-8.178	-0.225	-0.153
-606.171	-143.111	-0.236	-0.023
-605.157	-137.726	-0.416	0.047
-604.142	267.685	-0.141	0.249
-603.128	-37.754	0.209	0.113
-602.113	-171.419	0.264	0.009
-601.098	256.230	0.141	-0.243
-600.084	-17.981	0.259	-0.164
-599.069	-86.017	0.169	0.053
-598.055	-153.291	0.328	0.023
-597.040	-136.424	0.443	-0.052
-596.025	800.000	0.019	0.070
-595.011	-200.000	0.008	0.396
-593.996	63.852	-0.162	0.164
-592.982	-200.000	0.009	0.186
-591.967	-32.927	0.215	-0.120
-590.952	261.541	0.171	0.299
-589.938	-200.000	-0.000	0.165
-588.923	-116.246	-0.048	0.009
-587.909	49.600	0.123	-0.117
-586.894	351.043	-0.183	-0.364
-585.879	439.483	0.090	-0.198
-584.865	35.939	0.093	-0.083
-583.850	-147.358	-0.326	0.028
-582.836	800.000	0.179	0.512
-581.821	-136.228	0.225	0.027
-580.806	127.308	-0.176	-0.225
-579.792	139.968	-0.029	0.038
-578.777	800.000	-0.106	-0.298
-577.763	-200.000	0.001	0.191
-576.748	800.000	-0.062	0.208
-575.733	29.432	-0.142	-0.121
-574.719	81.409	-0.212	0.231
-573.704	-200.000	0.001	-0.122
-572.690	-200.000	0.004	0.084
-571.675	28.271	0.124	0.106
-570.661	-51.581	0.318	0.149
-569.646	93.991	-0.298	0.341
-568.631	-52.426	0.265	-0.124
-567.617	-23.318	0.140	0.085
-566.602	49.615	0.146	0.139
-565.588	152.949	0.082	-0.113
-564.573	-106.467	0.290	0.065
-563.558	8.171	-0.094	-0.071
-562.544	98.337	-0.168	-0.195
-561.529	800.000	0.027	-0.100
-560.515	-200.000	0.016	-0.232
-559.500	-83.853	0.170	0.055
-558.485	126.510	-0.061	0.077
-557.471	235.593	-0.095	-0.158
-556.456	-101.562	0.419	-0.103
-555.442	1.202	0.143	0.103
-554.427	-200.000	0.002	-0.166
-553.412	-200.000	0.048	-0.237
-552.398	-9.700	-0.171	0.115
-551.383	-52.491	-0.235	-0.110
-550.369	50.205	-0.236	0.224
-549.354	234.960	0.101	-0.168
-548.339	339.339	0.213	-0.417
-547.325	-20.821	-0.182	0.113
-546.310	569.934	0.049	-0.120
-545.296	480.956	-0.056	-0.127
-544.281	171.922	-0.177	0.256
-543.266	-200.000	0.015	-0.110
-542.252	-197.761	-0.227	0.001
-541.237	-129.046	-0.143	0.020
-540.223	-87.176	-0.386	0.118
-539.208	-79.938	0.116	0.039
-538.193	696.766	0.039	0.104
-537.179	31.594	0.230	-0.199
-536.164	-116.571	-0.313	-0.058
-535.150	-10.899	0.174	0.115
-534.135	-200.000	-0.011	-0.309
-533.121	75.080	0.284	-0.301
-532.106	800.000	0.065	0.190
-531.091	-93.556	0.443	-0.123
-530.077	-179.282	-0.270	-0.006
-529.062	-127.096	0.313	0.046
-528.048	-1.587	-0.167	0.119
-527.033	-125.350	0.129	0.020
-526.018	265.487	-0.047	0.083
-525.004	-178.453	-0.063	0.001
-523.989	228.791	0.089	-0.146
-522.975	-200.000	-0.010	-0.367
-521.960	53.201	-0.141	0.136
-520.945	189.504	0.121	-0.182
-519.931	44.535	-0.064	0.059
-518.916	-160.440	0.181	0.010
-517.902	246.724	-0.088	-0.149
-516.887	-86.841	0.166	0.051
-515.872	-52.293	0.215	0.100
-514.858	-200.000	0.003	-0.184
-513.843	-200.000	0.023	0.124
-512.829	495.358	0.138	-0.320
-511.814	-200.000	0.012	-0.176
-510.799	-110.684	-0.127	-0.026
-509.785	800.000	-0.139	-0.431
-508.770	-56.872	0.088	-0.039
-507.756	32.263	-0.209	-0.181
-506.741	-200.000	0.045	0.213
-505.726	-200.000	0.009	0.259
-504.712	-116.550	-0.108	-0.020
-503.697	95.460	0.225	-0.258
-502.683	-200.000	0.014	-0.249
-501.668	478.643	0.109	-0.247
-500.653	-61.247	-0.105	-0.045
-499.639	5.061	0.285	0.211
-498.624	-176.741	0.237	-0.006
-497.610	44.924	0.119	-0.110
-496.595	-55.719	-0.051	0.023
-495.581	-200.000	0.002	-0.060
-494.566	-55.111	-0.426	-0.193
-493.551	127.117	-0.072	-0.091
-492.537	40.082	0.113	-0.102
-491.522	458.553	0.142	0.318
-490.508	88.498	-0.100	0.111
-489.493	163.342	-0.118	0.167
-488.478	-200.000	0.028	-0.233
-487.464	121.221	-0.197	0.246
-486.449	-200.000	0.015	0.091
-485.435	-200.000	-0.040	-0.255
-484.420	2.664	0.165	-0.120
-483.405	0.537	0.102	0.073
-482.391	-70.290	-0.042	0.016
-481.376	392.519	-0.105	0.219
-480.362	58.899	-0.127	0.126
-479.347	584.513	0.025	0.062
-478.332	-50.700	0.267	0.126
-477.318	-48.750	0.242	-0.116
-476.303	-152.617	-0.231	0.017
-475.289	-200.000	0.005	-0.315
-474.274	-128.488	0.207	0.029
-473.259	434.914	-0.154	0.337
-472.245	-169.078	-0.159	0.006
-471.230	-93.271	-0.030	0.009
-470.216	-200.000	-0.045	0.417
-469.201	32.549	-0.128	0.111
-468.186	0.377	-0.216	0.155
-467.172	-74.730	-0.263	0.095
-466.157	-200.000	0.096	0.442
-465.143	119.009	0.114	0.141
-464.128	393.384	0.131	-0.274
-463.113	364.318	-0.053	0.106
-462.099	800.000	-0.034	0.129
-461.084	-110.439	-0.046	0.010
-460.070	-91.032	0.374	0.108
-459.055	-123.865	0.344	-0.054
-458.040	633.440	-0.140	-0.355
-457.026	-200.000	0.055	-0.345
-456.011	-150.493	0.223	-0.017
-454.997	800.000	0.069	-0.251
-453.982	-87.742	-0.186	-0.056
-452.968	16.247	-0.080	-0.063
-451.953	-61.167	-0.290	0.123
-450.938	800.000	-0.030	-0.084
-449.924	-151.183	-0.069	-0.005
-448.909	-144.866	-0.102	0.009
-447.895	61.034	0.232	-0.231
-446.880	-200.000	0.021	0.123
-445.865	-200.000	-0.048	-0.314
-444.851	218.045	0.176	-0.282
-443.836	-127.586	-0.121	-0.018
-442.822	-61.210	-0.265	-0.112
-441.807	183.317	-0.234	-0.347
-440.792	-183.504	-0.108	-0.002
-439.778	-200.000	0.089	0.428
-438.763	632.802	-0.066	-0.168
-437.749	-200.000	-0.019	0.110
-436.734	250.767	-0.138	-0.236
-435.719	800.000	-0.046	0.185
-434.705	18.061	0.083	0.067
-433.690	-125.369	-0.246	0.038
-432.676	800.000	0.063	0.263
-431.661	-200.000	-0.009	-0.225
-430.646	62.488	0.302	-0.302
-429.632	800.000	-0.096	-0.321
-428.617	-110.467	-0.141	0.029
-427.603	-87.209	0.144	0.044
-426.588	-114.212	-0.269	-0.052
-425.573	-138.078	0.021	0.002
-424.559	-78.116	-0.184	-0.064
-423.544	202.452	-0.104	0.161
-422.530	-61.590	-0.088	0.037
-421.515	-18.707	0.312	0.195
-420.500	20.031	0.179	-0.145
-419.486	-200.000	-0.011	-0.347
-418.471	-200.000	0.015	-0.461
-417.457	127.918	0.321	-0.410
-416.442	-67.489	0.210	0.083
-415.428	36.536	0.284	-0.251
-414.413	800.000	-0.027	0.076
-413.398	-91.850	0.166	-0.047
-412.384	531.280	-0.042	0.099
-411.369	273.243	-0.044	0.078
-410.355	36.018	0.246	0.217
-409.340	574.919	0.071	0.173
-408.325	-105.729	-0.168	-0.038
-407.311	53.797	0.053	0.051
-406.296	-200.000	0.037	0.183
-405.282	-200.000	-0.023	0.186
-404.267	142.122	-0.072	-0.095
-403.252	-200.000	0.093	0.424
-402.238	-48.003	-0.163	-0.079
-401.223	13.429	0.282	0.219
-400.209	-123.829	-0.478	-0.076
-399.194	-147.604	0.100	-0.008
-398.179	-154.616	-0.212	0.014
-397.165	442.477	0.052	-0.113
-396.150	165.630	-0.204	0.289
-395.136	-200.000	0.018	-0.229
-394.121	-66.733	0.204	0.081
-393.106	-190.083	0.199	-0.002
-392.092	62.275	-0.061	0.061
-391.077	-200.000	-0.041	-0.332
-390.063	558.839	-0.026	-0.062
-389.048	109.363	-0.311	-0.373
-388.033	-145.853	0.194	-0.017
-387.019	800.000	-0.047	0.137
-386.004	-28.817	0.312	0.179
-384.990	257.849	0.154	-0.265
-383.975	-200.000	-0.023	0.298
-382.960	354.633	0.081	-0.162
-381.946	800.000	-0.121	0.376
-380.931	-120.891	0.199	-0.034
-379.917	-84.064	0.431	0.137
-378.902	-96.024	-0.182	0.048
-377.888	-64.988	0.121	0.049
-376.873	-86.122	-0.246	-0.076
-375.858	-19.477	-0.161	-0.100
-374.844	-200.000	-0.003	0.177
-373.829	-120.434	0.264	-0.045
-372.815	21.606	-0.178	0.145
-371.800	12.153	-0.116	0.089
-370.785	-53.165	-0.189	0.087
-369.771	800.000	-0.033	-0.134
-368.756	16.963	-0.128	-0.102
-367.742	-200.000	0.020	-0.362
-366.727	84.831	-0.118	0.130
-365.712	487.538	-0.067	0.152
-364.698	800.000	-0.040	0.150
-363.683	12.142	0.162	-0.125
-362.669	-64.320	-0.150	0.061
-361.654	-59.952	0.180	0.077
-360.639	-14.601	0.172	-0.110
-359.625	8.152	-0.070	0.052
-358.610	331.813	0.096	0.185
-357.596	123.345	-0.105	-0.131
-356.581	124.000	0.070	-0.088
-355.566	171.687	-0.127	0.183
-354.552	800.000	-0.078	0.299
-353.537	-15.445	0.283	0.180
-352.523	-160.114	-0.191	0.010
-351.508	172.497	0.057	-0.082
-350.493	-83.564	0.172	-0.055
-349.479	789.630	0.041	0.111
-348.464	800.000	0.194	0.543
-347.450	-200.000	0.010	0.305
-346.435	-200.000	0.027	-0.271
-345.420	-200.000	-0.004	0.067
-344.406	-20.395	0.369	0.227
-343.391	-125.100	0.065	0.010
-342.377	50.434	0.076	0.072
-341.362	130.936	-0.143	0.183
-340.348	41.065	0.068	0.061
-339.333	245.545	-0.080	-0.135
-338.318	97.132	0.180	0.206
-337.304	166.264	-0.145	-0.205
-336.289	-200.000	0.030	-0.222
-335.275	-35.645	-0.175	-0.095
-334.260	-200.000	0.019	0.484
-333.245	327.499	0.090	0.173
-332.231	91.416	0.116	-0.130
-331.216	777.752	-0.043	0.118
-330.202	752.804	0.050	0.134
-329.187	-200.000	-0.026	-0.159
-328.172	-200.000	-0.032	0.430
-327.158	15.814	-0.139	0.109
-326.143	-200.000	0.022	-0.240
-325.129	-174.450	0.219	0.006
-324.114	-157.091	-0.492	0.030
-323.099	604.881	0.124	-0.308
-322.085	276.602	-0.107	0.190
-321.070	-39.327	-0.172	-0.090
-320.056	222.570	-0.139	0.223
-319.041	117.997	0.149	0.183
-318.026	367.825	0.178	0.358
-317.012	113.058	-0.095	0.115
-315.997	273.312	-0.179	-0.316
-314.983	-140.893	-0.229	0.023
-313.968	-5.534	-0.142	0.097
-312.953	136.640	-0.053	-0.069
-311.939	-118.008	0.143	0.025
-310.924	62.060	-0.010	0.010
-309.910	-78.276	-0.129	0.044
-308.895	-69.990	0.263	-0.100
-307.880	-107.094	-0.185	0.041
-306.866	-200.000	0.023	0.347
-305.851	-4.544	0.158	-0.109
-304.837	158.401	0.076	-0.105
-303.822	432.814	-0.178	0.386
-302.807	-115.442	-0.058	-0.011
-301.793	61.796	-0.174	0.173
-300.778	-136.211	-0.075	-0.009
-299.764	-91.125	-0.361	0.103
-298.749	800.000	-0.047	-0.194
-297.735	-139.949	0.024	-0.003
-296.720	800.000	0.059	-0.200
-295.705	538.982	-0.087	-0.206
-294.691	-39.592	0.405	-0.212
-293.676	666.295	0.061	-0.156
-292.662	-31.240	-0.155	0.087
-291.647	-114.051	-0.132	-0.025
-290.632	-200.000	0.054	-0.255
-289.618	6.404	-0.115	-0.085
-288.603	800.000	-0.053	-0.223
-287.589	-66.983	-0.168	0.066
-286.574	131.958	-0.090	0.115
-285.559	424.667	0.141	-0.302
-284.545	2.864	-0.210	-0.152
-283.530	-200.000	-0.034	-0.169
-282.516	-200.000	-0.018	0.107
-281.501	-200.000	-0.064	-0.319
-280.486	-153.951	0.153	0.010
-279.472	-124.406	0.069	-0.011
-278.457	221.170	0.053	-0.084
-277.443	800.000	0.087	0.286
-276.428	37.931	-0.269	0.239
-275.413	-25.562	0.088	0.052
-274.399	-102.362	0.197	-0.047
-273.384	-200.000	-0.055	0.245
-272.370	800.000	-0.053	0.208
-271.355	-200.000	-0.002	-0.110
-270.340	-56.566	0.180	0.079
-269.326	435.696	0.133	0.289
-268.311	800.000	0.088	0.259
-267.297	800.000	0.129	0.381
-266.282	-72.887	0.154	-0.056
-265.267	-103.571	-0.554	0.130
-264.253	127.279	-0.045	-0.057
-263.238	-72.283	-0.387	-0.143
-262.224	206.564	0.123	0.190
-261.209	328.722	-0.103	-0.197
-260.195	27.156	0.189	-0.158
-259.180	-200.000	0.027	-0.316
-258.165	499.778	-0.055	0.125
-257.151	-200.000	0.003	-0.016
-256.136	-82.718	0.263	0.085
-255.122	-18.319	0.222	0.138
-254.107	298.598	-0.131	0.240
-253.092	68.775	0.091	-0.093
-252.078	463.245	0.156	0.347
-251.063	445.497	0.197	0.430
-250.049	-92.145	0.376	0.106
-249.034	-113.119	0.126	0.025
-248.019	-92.790	-0.413	0.115
-247.005	-63.526	0.301	-0.123
-245.990	287.476	-0.129	0.232
-244.976	-154.982	-0.249	0.016
-243.961	-180.770	-0.078	-0.002
-242.946	-46.932	0.296	-0.144
-241.932	-79.145	0.442	-0.149
-240.917	-200.000	-0.065	0.529
-239.903	-111.915	-0.216	-0.043
-238.888	-3.952	-0.315	-0.217
-237.873	290.535	0.124	-0.225
-236.859	-135.829	-0.214	-0.025
-235.844	-200.000	-0.013	0.292
-234.830	-66.669	-0.077	-0.031
-233.815	-86.066	-0.083	0.025
-232.800	-200.000	-0.008	0.240
-231.786	136.110	0.266	-0.345
-230.771	252.102	0.105	-0.178
-229.757	190.869	-0.175	0.261
-228.742	2.434	0.157	-0.113
-227.727	-147.723	0.058	-0.005
-226.713	800.000	-0.012	0.045
-225.698	108.542	-0.046	-0.054
-224.684	15.171	-0.226	-0.176
-223.669	-122.147	0.157	-0.026
-222.655	51.269	0.081	-0.076
-221.640	137.033	0.063	0.082
-220.625	-200.000	-0.100	-0.436
-219.611	255.459	0.246	-0.418
-218.596	233.030	-0.248	-0.406
-217.582	-51.037	0.257	-0.120
-216.567	800.000	0.038	-0.155
-215.552	126.563	-0.196	0.247
-214.538	112.679	0.227	0.274
-213.523	-200.000	0.002	-0.073
-212.509	-51.371	-0.331	-0.154
-211.494	36.500	-0.136	-0.120
-210.479	-89.468	0.068	0.020
-209.465	40.792	-0.159	-0.143
-208.450	408.359	-0.130	0.273
-207.436	-51.351	0.206	0.096
-206.421	-200.000	-0.005	-0.149
-205.406	-25.269	0.295	-0.173
-204.392	120.349	0.256	-0.316
-203.377	282.192	0.203	-0.362
-202.363	-200.000	0.029	0.158
-201.348	-66.079	0.073	0.029
-200.333	-200.000	-0.033	0.308
-199.319	-48.510	-0.091	0.044
-198.304	107.921	0.137	0.163
-197.290	-200.000	0.050	-0.274
-196.275	317.690	-0.124	-0.234
-195.260	-88.747	0.187	-0.055
-194.246	-1.395	-0.100	-0.070
-193.231	-200.000	0.006	0.259
-192.217	-67.094	0.134	0.053
-191.202	-200.000	-0.173	0.001
-190.187	-195.581	0.082	0.001
-189.173	-174.551	-0.432	-0.012
-188.158	-9.783	0.183	0.121
-187.144	-14.026	0.251	-0.161
-186.129	220.836	-0.136	-0.216
-185.114	-130.443	-0.227	-0.030
-184.100	-86.270	-0.324	-0.099
-183.085	193.465	0.046	-0.069
-182.071	-9.126	-0.410	-0.272
-181.056	-134.117	-0.036	-0.004
-180.042	-111.573	-0.094	-0.019
-179.027	-164.324	0.354	-0.016
-178.012	-89.988	0.242	-0.070
-176.998	-168.177	0.290	0.011
-175.983	14.422	0.217	0.168
-174.969	1.783	0.213	-0.152
-173.954	800.000	-0.029	-0.084
-172.939	-200.000	-0.062	0.337
-171.925	-63.687	-0.149	0.060
-170.910	-14.453	-0.153	-0.098
-169.896	186.396	-0.077	0.113
-168.881	358.738	-0.076	-0.150
-167.866	78.640	-0.052	-0.055
-166.852	-149.550	-0.239	-0.019
-165.837	354.617	0.139	0.274
-164.823	-50.269	0.146	0.068
-163.808	133.643	-0.044	0.057
-162.793	81.544	0.114	-0.123
-161.779	-7.370	-0.027	-0.018
-160.764	59.678	-0.100	0.098
-159.750	-200.000	0.013	-0.127
-158.735	-175.816	-0.153	0.004
-157.720	-200.000	0.111	0.565
-156.706	-147.304	0.423	0.036
-155.691	-99.501	-0.342	0.085
-154.677	176.399	0.169	0.244
-153.662	-34.540	-0.222	-0.121
-152.647	-56.022	-0.223	0.098
-151.633	219.466	0.229	-0.363
-150.618	365.959	0.038	0.076
-149.604	800.000	-0.157	0.510
-148.589	76.537	0.114	-0.120
-147.574	800.000	0.005	-0.015
-146.560	-102.638	-0.422	-0.100
-145.545	36.560	-0.105	-0.092
-144.531	-200.000	-0.006	-0.253
-143.516	19.858	0.210	0.167
-142.502	-93.922	0.334	0.091
-141.487	636.891	-0.042	-0.106
-140.472	800.000	-0.113	0.357
-139.458	-164.390	-0.232	-0.011
-138.443	-74.765	0.162	-0.058
-137.429	82.755	0.162	0.175
-136.414	-24.897	-0.079	-0.047
-135.399	-200.000	0.008	0.148
-134.385	-200.000	-0.020	0.101
-133.370	96.666	0.039	-0.044
-132.356	103.630	0.330	0.384
-131.341	41.028	0.348	0.311
-130.326	-101.232	0.103	-0.025
-129.312	-200.000	0.006	-0.331
-128.297	-25.924	-0.176	-0.103
-127.283	274.660	-0.039	-0.069
-126.268	109.736	-0.140	0.167
-125.253	59.837	-0.112	-0.110
-124.239	134.408	-0.103	-0.132
-123.224	603.152	-0.094	0.232
-122.210	50.858	0.128	0.120
-121.195	-66.894	0.246	0.096
-120.180	71.673	-0.065	-0.067
-119.166	43.321	0.141	-0.127
-118.151	67.654	-0.099	-0.100
-117.137	-122.830	0.264	0.042
-116.122	-200.000	0.033	0.246
-115.107	-58.500	0.342	0.147
-114.093	603.094	-0.066	0.162
-113.078	-48.691	0.290	0.138
-112.064	273.953	-0.035	-0.061
-111.049	-114.739	-0.317	-0.060
-110.034	165.401	-0.050	0.070
-109.020	643.963	-0.076	-0.193
-108.005	800.000	0.047	0.139
-106.991	-200.000	-0.006	0.099
-105.976	373.158	-0.126	0.253
-104.962	199.207	-0.010	-0.015
-103.947	-7.255	0.051	0.034
-102.932	475.505	-0.186	0.415
-101.918	-142.274	0.135	0.013
-100.903	-200.000	-0.045	0.266
-99.889	-25.531	-0.201	0.117
-98.874	-43.783	-0.166	0.083
-97.859	10.767	-0.172	0.130
-96.845	20.224	0.167	-0.133
-95.830	205.816	0.056	-0.087
-94.816	-200.000	-0.046	-0.214
-93.801	-200.000	0.013	0.070
-92.786	-101.164	0.040	0.010
-91.772	-160.736	-0.530	-0.028
-90.757	187.623	0.116	0.171
-89.743	800.000	0.110	0.308
-88.728	-76.573	0.183	-0.063
-87.713	-12.725	-0.225	0.145
-86.699	-62.650	-0.209	-0.086
-85.684	385.983	0.046	-0.095
-84.670	129.294	-0.032	0.040
-83.655	800.000	-0.037	0.103
-82.640	97.537	-0.134	-0.153
-81.626	-60.347	-0.205	0.086
-80.611	539.170	0.059	-0.139
-79.597	-170.354	0.168	0.006
-78.582	-200.000	-0.001	-0.132
-77.567	-129.722	0.041	0.006
-76.553	-129.254	-0.073	0.010
-75.538	28.193	-0.275	0.230
-74.524	-200.000	0.035	0.238
-73.509	-115.747	-0.352	0.065
-72.494	77.156	0.124	-0.131
-71.480	-55.104	0.109	-0.049
-70.465	-161.808	-0.127	0.006
-69.451	-13.424	-0.066	0.042
-68.436	-108.502	0.128	-0.027
-67.422	-200.000	-0.020	0.167
-66.407	-200.000	0.027	0.245
-65.392	-200.000	-0.236	-0.000
-64.378	-45.415	0.377	-0.185
-63.363	506.274	0.148	0.338
-62.349	-45.029	-0.214	0.105
-61.334	109.997	-0.759	-0.900
-60.319	192.824	0.427	0.637
-59.305	-200.000	-0.240	-1.225
-58.290	-200.000	0.245	1.068
-57.276	800.000	0.575	1.721
-56.261	-200.000	106.371	572.773
-55.246	433.603	1475.833	3166.062
-54.232	142.841	2678.854	3517.903
-53.217	95.378	2337.648	2632.551
-52.203	35.408	2086.821	1808.888
-51.188	30.911	2002.043	1694.542
-50.173	29.475	1985.123	1667.195
-49.159	44.947	2040.453	1855.857
-48.144	45.286	2058.025	1874.882
-47.130	31.504	2016.719	1712.121
-46.115	29.283	2005.818	1682.560
-45.100	29.247	2002.477	1679.359
-44.086	29.139	2000.330	1676.512
-43.071	29.163	1997.983	1674.690
-42.057	29.155	1995.660	1672.604
-41.042	29.095	1994.168	1670.743
-40.027	29.044	1992.403	1668.739
-39.013	29.197	1990.097	1668.122
-37.998	29.195	1988.151	1666.413
-36.984	29.223	1986.152	1664.920
-35.969	29.168	1984.458	1662.941
-34.954	29.154	1982.670	1661.250
-33.940	29.185	1981.239	1660.268
-32.925	29.314	1979.487	1659.895
-31.911	29.270	1977.599	1657.844
-30.896	29.289	1975.630	1656.302
-29.881	29.289	1974.012	1654.874
-28.867	29.321	1972.396	1653.741
-27.852	29.294	1971.288	1652.506
-26.838	29.285	1969.137	1650.556
-25.823	29.357	1967.259	1649.560
-24.809	29.282	1965.444	1647.302
-23.794	29.301	1963.778	1646.014
-22.779	29.236	1962.210	1644.051
-21.765	29.199	1960.999	1642.646
-20.750	29.255	1958.960	1641.367
-19.736	29.272	1957.572	1640.296
-18.721	29.351	1955.365	1639.080
-17.706	29.285	1954.204	1637.456
-16.692	29.286	1952.229	1635.748
-15.677	29.272	1950.436	1634.052
-14.663	29.250	1949.238	1632.793
-13.648	29.233	1948.275	1631.769
-12.633	29.328	1946.346	1630.932
-11.619	29.273	1945.726	1629.862
-10.604	29.243	1943.823	1627.930
-9.590	29.187	1943.089	1626.756
-8.575	29.177	1941.249	1625.070
-7.560	29.272	1939.736	1624.569
-6.546	29.260	1938.594	1623.446
-5.531	29.242	1937.594	1622.383
-4.517	29.271	1936.644	1621.784
-3.502	29.210	1935.548	1620.261
-2.487	29.314	1933.586	1619.467
-1.473	29.256	1932.794	1618.229
-0.458	29.408	1927.878	1615.386
0.556	27.580	1908.561	1589.396
1.571	23.643	1890.044	1539.755
2.586	19.953	1913.000	1525.866
3.600	18.924	1949.219	1545.371
4.615	18.845	1944.985	1541.173
5.629	14.897	1842.690	1426.374
6.644	5.785	1721.332	1259.404
7.659	0.715	1682.752	1191.188
8.673	0.245	1679.209	1184.877
9.688	0.137	1677.799	1182.928
10.702	0.130	1676.307	1181.717
11.717	0.089	1672.339	1178.491
12.731	0.673	1672.595	1183.147
13.746	7.046	1687.014	1243.451
14.761	15.140	1703.072	1319.158
15.775	17.522	1705.410	1339.617
16.790	16.887	1703.024	1332.632
17.804	15.905	1699.926	1322.381
18.819	14.922	1696.134	1311.612
19.834	14.370	1694.040	1305.552
20.848	14.060	1692.499	1301.821
21.863	13.800	1691.079	1298.582
22.877	13.482	1689.573	1294.820
23.892	13.328	1687.978	1292.285
24.907	13.253	1686.483	1290.438
25.921	13.202	1685.730	1289.349
26.936	13.211	1684.647	1288.476
27.950	13.201	1684.075	1287.849
28.965	13.342	1682.929	1287.952
29.980	13.342	1682.690	1287.656
30.994	13.454	1681.073	1287.179
32.009	13.365	1680.796	1286.161
33.023	13.513	1679.758	1286.402
34.038	13.476	1679.181	1285.556
35.053	13.516	1677.516	1284.482
36.067	13.444	1676.237	1282.831
37.082	13.345	1675.500	1281.385
38.096	13.423	1674.397	1281.032
39.111	13.475	1673.720	1280.805
40.126	13.455	1672.997	1279.980
41.140	13.480	1671.710	1279.074
42.155	13.272	1670.897	1276.732
43.169	13.299	1669.141	1275.487
44.184	13.183	1668.148	1273.724
45.199	13.244	1667.061	1273.250
46.213	13.240	1665.534	1271.939
47.228	13.222	1664.145	1270.628
48.242	13.277	1662.939	1270.017
49.257	13.323	1662.180	1269.676
50.271	13.362	1660.606	1268.666
51.286	13.381	1659.643	1267.961
52.301	13.318	1658.271	1266.315
53.315	13.334	1656.838	1265.238
54.330	13.353	1655.182	1264.006
55.344	13.220	1653.796	1261.818
56.359	13.268	1652.144	1260.810
57.374	13.342	1650.806	1260.244
58.388	13.274	1650.074	1259.052
59.403	13.259	1648.965	1257.985
60.417	13.281	1647.131	1256.640
61.432	13.192	1646.397	1255.293
62.447	13.140	1645.398	1254.025
63.461	13.081	1644.087	1252.465
64.476	13.148	1643.089	1252.104
65.490	13.059	1642.172	1250.624
66.505	13.202	1640.200	1250.093
67.520	13.099	1639.976	1249.028
68.534	13.162	1638.297	1248.113
69.549	13.229	1637.346	1247.789
70.563	13.188	1636.041	1246.376
71.578	13.224	1634.704	1245.516
72.593	13.192	1633.562	1244.296
73.607	13.101	1632.822	1242.934
74.622	13.104	1631.359	1241.734
75.636	12.940	1631.219	1240.282
76.651	13.086	1629.496	1239.962
77.666	13.069	1628.856	1239.233
78.680	13.057	1627.691	1238.152
79.695	13.085	1626.487	1237.338
80.709	13.185	1625.651	1237.339
81.724	13.217	1624.877	1236.882
82.739	13.303	1623.786	1236.585
83.753	13.202	1623.113	1235.207
84.768	13.273	1622.196	1234.933
85.782	13.305	1621.165	1234.272
86.797	13.407	1620.110	1234.124
87.812	13.426	1619.433	1233.636
88.826	13.412	1617.909	1232.268
89.841	13.282	1616.807	1230.347
90.855	13.328	1615.906	1229.895
91.870	13.273	1614.744	1228.497
92.884	13.338	1613.801	1228.149
93.899	13.394	1613.091	1227.917
94.914	13.408	1611.721	1226.871
95.928	13.379	1610.890	1225.916
96.943	13.520	1609.128	1225.510
97.957	13.369	1607.779	1223.256
98.972	13.433	1606.345	1222.532
99.987	13.312	1604.725	1220.299
101.001	13.403	1602.776	1219.376
102.016	13.376	1601.576	1218.157
103.030	13.371	1600.225	1216.984
104.045	13.463	1598.593	1216.310
105.060	13.348	1597.418	1214.468
106.074	13.372	1596.121	1213.546
107.089	13.331	1594.443	1211.866
108.103	13.235	1593.394	1210.260
109.118	13.211	1591.822	1208.778
110.133	13.311	1589.461	1207.612
111.147	13.242	1588.537	1206.302
112.162	13.175	1587.961	1205.268
113.176	13.239	1586.316	1204.381
114.191	13.237	1585.166	1203.384
115.206	13.307	1583.736	1202.699
116.220	13.287	1582.743	1201.693
117.235	13.284	1580.845	1200.125
118.249	13.232	1579.877	1198.905
119.264	13.324	1578.215	1198.203
120.279	13.229	1577.258	1196.683
121.293	13.243	1575.740	1195.530
122.308	13.178	1574.494	1194.005
123.322	13.247	1572.943	1193.225
124.337	13.247	1571.373	1191.929
125.352	13.209	1569.791	1190.346
126.366	13.218	1569.096	1189.782
127.381	13.263	1567.884	1189.079
128.395	13.186	1566.816	1187.609
129.410	13.251	1565.041	1186.625
130.424	13.213	1563.595	1185.152
131.439	13.169	1562.990	1184.277
132.454	13.235	1561.263	1183.334
133.468	13.298	1560.166	1182.847
134.483	13.289	1558.246	1181.227
135.497	13.312	1557.073	1180.399
136.512	13.353	1555.721	1179.560
137.527	13.295	1554.330	1177.985
138.541	13.346	1552.655	1176.979
139.556	13.326	1551.207	1175.629
140.570	13.349	1549.981	1174.759
141.585	13.384	1548.735	1173.959
142.600	13.398	1547.290	1172.861
143.614	13.449	1546.461	1172.492
144.629	13.484	1545.180	1171.662
145.643	13.472	1543.589	1170.267
146.658	13.586	1542.060	1169.809
147.673	13.606	1540.622	1168.755
148.687	13.494	1539.468	1166.989
149.702	13.444	1538.036	1165.446
150.716	13.418	1536.250	1163.810
151.731	13.430	1534.882	1162.754
152.746	13.395	1534.053	1161.780
153.760	13.503	1532.017	1160.889
154.775	13.477	1531.133	1159.938
155.789	13.477	1530.000	1158.973
156.804	13.516	1528.682	1158.144
157.819	13.620	1526.921	1157.434
158.833	13.698	1525.870	1157.084
159.848	13.635	1524.843	1155.762
160.862	13.652	1523.164	1154.506
161.877	13.766	1522.026	1154.332
162.892	13.649	1520.901	1152.566
163.906	13.630	1519.981	1151.634
164.921	13.479	1519.152	1149.855
165.935	13.577	1517.921	1149.504
166.950	13.597	1516.635	1148.566
167.964	13.619	1515.378	1147.662
168.979	13.655	1514.630	1147.247
169.994	13.748	1513.269	1146.756
171.008	13.639	1512.303	1145.168
172.023	13.639	1511.268	1144.286
173.037	13.615	1510.021	1143.073
174.052	13.703	1509.113	1142.891
175.067	13.804	1507.648	1142.376
176.081	13.767	1506.632	1141.248
177.096	13.751	1505.182	1139.937
178.110	13.753	1503.836	1138.833
179.125	13.597	1503.057	1137.072
180.140	13.779	1501.586	1137.103
181.154	13.809	1500.214	1136.170
182.169	13.722	1499.860	1135.210
183.183	13.764	1498.176	1134.119
184.198	13.909	1496.494	1133.734
185.213	13.791	1496.059	1132.501
186.227	13.922	1494.931	1132.440
187.242	13.804	1493.958	1130.800
188.256	13.933	1492.984	1130.839
189.271	13.873	1492.146	1129.695
190.286	13.923	1490.885	1128.981
191.300	13.908	1489.796	1127.953
192.315	13.863	1488.069	1126.245
193.329	13.705	1487.008	1124.270
194.344	13.702	1486.036	1123.414
195.359	13.761	1484.941	1122.888
196.373	13.815	1484.034	1122.466
197.388	13.758	1482.886	1121.114
198.402	13.929	1481.569	1121.172
199.417	14.009	1480.567	1120.860
200.432	14.068	1479.572	1120.403
201.446	14.108	1478.459	1119.727
202.461	14.144	1477.128	1118.865
203.475	14.118	1476.474	1118.093
204.490	14.153	1475.261	1117.312
205.504	14.153	1473.962	1116.229
206.519	14.258	1472.341	1115.606
207.534	14.100	1471.731	1113.986
208.548	14.061	1470.619	1112.787
209.563	14.035	1469.627	1111.762
210.577	14.139	1468.226	1111.301
211.592	14.153	1467.570	1110.800
212.607	14.120	1466.854	1109.939
213.621	14.220	1466.361	1110.133
214.636	14.225	1465.317	1109.280
215.650	14.195	1464.237	1108.164
216.665	14.292	1463.239	1107.956
217.680	14.223	1462.626	1106.932
218.694	14.345	1461.823	1107.041
219.709	14.343	1460.841	1106.185
220.723	14.321	1459.846	1105.185
221.738	14.305	1459.303	1104.572
222.753	14.299	1458.220	1103.618
223.767	14.339	1456.744	1102.668
224.782	14.334	1456.076	1102.030
225.796	14.343	1455.338	1101.431
226.811	14.422	1454.385	1101.135
227.826	14.518	1453.474	1100.985
228.840	14.404	1452.834	1099.645
229.855	14.479	1451.535	1099.064
230.869	14.525	1450.131	1098.207
231.884	14.434	1449.421	1096.968
232.899	14.340	1448.390	1095.472
233.913	14.354	1448.056	1095.220
234.928	14.358	1446.231	1093.767
235.942	14.377	1444.803	1092.715
236.957	14.394	1443.709	1091.904
237.972	14.416	1442.455	1091.003
238.986	14.538	1441.170	1090.730
240.001	14.462	1440.670	1089.757
241.015	14.482	1439.053	1088.567
242.030	14.413	1437.995	1087.223
243.045	14.525	1437.744	1087.666
244.059	14.559	1436.595	1086.924
245.074	14.624	1435.619	1086.510
246.088	14.580	1434.915	1085.595
247.103	14.628	1434.239	1085.302
248.117	14.596	1433.412	1084.369
249.132	14.667	1432.412	1083.980
250.147	14.766	1431.724	1084.008
251.161	14.796	1430.984	1083.542
252.176	14.902	1430.292	1083.609
253.190	14.799	1429.450	1082.212
254.205	14.828	1428.742	1081.767
255.220	14.917	1427.904	1081.615
256.234	14.951	1426.964	1081.024
257.249	14.979	1426.386	1080.671
258.263	14.944	1425.480	1079.667
259.278	15.025	1424.112	1079.053
260.293	15.065	1422.709	1078.155
261.307	15.029	1422.775	1077.877
262.322	15.010	1422.220	1077.236
263.336	15.123	1421.206	1077.100
264.351	15.085	1420.412	1076.158
265.366	15.040	1419.234	1074.885
266.380	15.178	1418.299	1074.967
267.395	15.084	1417.397	1073.586
268.409	15.085	1416.615	1072.905
269.424	15.166	1415.202	1072.257
270.439	15.153	1414.548	1071.580
271.453	15.023	1413.772	1070.073
272.468	15.183	1412.480	1070.022
273.482	15.041	1411.929	1068.601
274.497	15.074	1411.177	1068.145
275.512	15.204	1409.326	1067.478
276.526	15.131	1409.249	1066.865
277.541	15.209	1407.860	1066.213
278.555	15.170	1407.428	1065.546
279.570	15.242	1406.497	1065.201
280.585	15.144	1405.691	1063.875
281.599	15.295	1404.836	1064.092
282.614	15.341	1403.829	1063.527
283.628	15.324	1402.535	1062.345
284.643	15.210	1402.023	1061.138
285.657	15.209	1400.692	1060.035
286.672	15.331	1399.598	1059.880
287.687	15.228	1398.556	1058.348
288.701	15.222	1397.708	1057.576
289.716	15.338	1397.245	1057.865
290.730	15.238	1396.384	1056.487
291.745	15.279	1395.260	1055.803
292.760	15.401	1394.624	1055.993
293.774	15.354	1393.370	1054.654
294.789	15.368	1392.268	1053.819
295.803	15.435	1391.762	1053.763
296.818	15.507	1390.492	1053.161
297.833	15.433	1389.607	1051.931
298.847	15.504	1388.351	1051.334
299.862	15.514	1387.657	1050.775
300.876	15.474	1386.844	1049.815
301.891	15.543	1385.787	1049.356
302.906	15.545	1385.162	1048.804
303.920	15.564	1384.411	1048.258
304.935	15.638	1383.455	1047.903
305.949	15.578	1382.587	1046.777
306.964	15.603	1382.241	1046.582
307.979	15.723	1381.192	1046.442
308.993	15.786	1379.833	1045.709
310.008	15.708	1379.059	1044.549
311.022	15.713	1378.417	1043.998
312.037	15.690	1377.212	1042.852
313.052	15.773	1376.347	1042.615
314.066	15.825	1375.101	1041.902
315.081	15.718	1374.395	1040.612
316.095	15.664	1373.380	1039.419
317.110	15.733	1371.924	1038.652
318.125	15.782	1371.096	1038.236
319.139	15.759	1370.473	1037.529
320.154	15.749	1369.453	1036.602
321.168	15.757	1368.472	1035.820
322.183	15.713	1367.308	1034.574
323.197	15.853	1366.162	1034.480
324.212	15.818	1365.139	1033.396
325.227	15.841	1364.409	1032.893
326.241	15.830	1363.879	1032.335
327.256	15.838	1362.941	1031.584
328.270	15.959	1361.782	1031.352
329.285	15.871	1361.491	1030.504
330.300	15.789	1360.183	1028.919
331.314	15.795	1359.699	1028.500
332.329	15.860	1358.582	1027.965
333.343	15.877	1357.247	1026.966
334.358	15.934	1356.430	1026.601
335.373	15.946	1355.942	1026.215
336.387	15.962	1355.167	1025.637
337.402	15.948	1354.130	1024.677
338.416	16.085	1353.492	1024.935
339.431	16.040	1352.872	1024.101
340.446	16.128	1352.429	1024.211
341.460	16.147	1351.236	1023.329
342.475	16.134	1350.553	1022.646
343.489	16.137	1349.494	1021.771
344.504	16.214	1348.572	1021.447
345.519	16.200	1347.621	1020.554
346.533	16.224	1346.627	1019.856
347.548	16.305	1345.403	1019.326
348.562	16.313	1344.745	1018.784
349.577	16.313	1344.296	1018.357
350.592	16.316	1343.500	1017.683
351.606	16.096	1342.912	1015.820
352.621	16.208	1341.751	1015.524
353.635	16.189	1340.672	1014.503
354.650	16.157	1339.807	1013.565
355.665	16.230	1338.490	1012.921
356.679	16.332	1337.314	1012.554
357.694	16.303	1336.471	1011.651
358.708	16.265	1335.436	1010.552
359.723	16.309	1334.382	1009.929
360.738	16.285	1333.538	1009.057
361.752	16.342	1332.320	1008.385
362.767	16.430	1331.077	1007.880
363.781	16.382	1330.016	1006.703
364.796	16.417	1329.562	1006.474
365.810	16.448	1328.906	1006.074
366.825	16.430	1328.409	1005.503
367.840	16.499	1327.679	1005.275
368.854	16.577	1326.775	1004.962
369.869	16.526	1326.309	1004.216
370.883	16.635	1325.490	1004.156
371.898	16.648	1324.572	1003.447
372.913	16.618	1323.964	1002.718
373.927	16.707	1322.998	1002.425
374.942	16.687	1321.911	1001.398
375.956	16.640	1321.587	1000.782
376.971	16.630	1321.058	1000.236
377.986	16.762	1319.385	999.657
379.000	16.693	1318.818	998.732
380.015	16.806	1318.134	998.797
381.029	16.792	1317.646	998.257
382.044	16.870	1316.551	997.796
383.059	16.880	1315.817	997.210
384.073	16.800	1315.374	996.318
385.088	16.863	1314.649	996.050
386.102	16.866	1314.357	995.758
387.117	16.823	1313.568	994.819
388.132	16.907	1312.400	994.337
389.146	16.823	1311.506	993.082
390.161	16.787	1310.710	992.179
391.175	16.927	1309.716	992.160
392.190	16.909	1309.582	991.862
393.205	16.877	1308.574	990.822
394.219	16.824	1307.393	989.534
395.234	16.924	1306.265	989.179
396.248	16.941	1305.127	988.328
397.263	16.936	1303.815	987.218
398.278	16.952	1302.175	985.977
399.292	16.940	1301.115	985.023
400.307	16.913	1300.226	984.105
401.321	16.952	1299.026	983.332
402.336	16.983	1297.839	982.528
403.350	16.873	1297.386	981.464
404.365	16.937	1296.143	980.806
405.380	17.007	1295.217	980.423
406.394	16.946	1294.639	979.543
407.409	17.021	1293.851	979.294
408.423	17.041	1293.423	978.997
409.438	17.140	1292.456	978.750
410.453	17.179	1291.649	978.277
411.467	17.240	1290.913	977.987
412.482	17.152	1290.452	977.041
413.496	17.185	1290.055	976.844
414.511	17.283	1289.172	976.653
415.526	17.249	1288.368	975.764
416.540	17.289	1287.359	975.143
417.555	17.347	1287.053	975.158
418.569	17.333	1286.671	974.701
419.584	17.332	1285.892	974.020
420.599	17.233	1285.500	973.069
421.613	94.925	1354.111	1470.064
422.628	92.972	1364.072	1470.135
