DTS Sentinel unit serial number:	SN413079Multiplexer serial number:	ORYXHardware model number:	OX4-SRSoftware version number:	ORYX F/W v4.00 Oryx Data Collector v3.7.2.0data status	okinstallation	princeton_trtdifferential loss correction	single-endedforward channel	channel 4reverse channel	N/Adate	2019/09/14time	15:29:35forward acquisition time	60.00reverse acquisition time	0.00gamma	496.2192k internal	0.2291k external	0.2291temperature offset calibration	1.0144default loss term (dB/km)	0.3790temperature slope calibration	1.0000multiplexer offset coefficient	1.0000multiplexer slope coefficient	1.0000fibre end	0.00T internal ref (°C)	38.91T ext. ref 1 (°C)	5.15T ext. ref 2 (°C)	33.35length (m)	temperature (°C)	Stokes	anti-Stokes-747.200	-35.163	0.032	0.018
-746.185	-154.189	0.190	0.013
-745.171	-67.342	0.151	0.061
-744.156	-200.000	-0.012	-0.295
-743.142	-200.000	0.042	-0.323
-742.127	-7.922	-0.166	-0.114
-741.112	312.091	-0.069	-0.132
-740.098	86.065	-0.201	0.226
-739.083	449.308	-0.043	-0.097
-738.069	-200.000	0.036	0.257
-737.054	273.658	-0.090	-0.163
-736.039	310.355	0.071	0.135
-735.025	482.695	-0.084	0.195
-734.010	-60.485	-0.016	-0.007
-732.996	-2.257	-0.334	0.240
-731.981	-200.000	-0.038	0.234
-730.966	104.027	-0.057	-0.068
-729.952	20.835	0.226	-0.188
-728.937	800.000	0.052	-0.220
-727.923	459.573	-0.146	0.334
-726.908	239.331	-0.018	0.031
-725.894	-200.000	0.008	-0.202
-724.879	-125.592	0.183	0.028
-723.864	151.623	-0.111	-0.155
-722.850	-200.000	0.028	0.386
-721.835	-22.740	0.221	0.136
-720.821	705.367	0.034	-0.092
-719.806	800.000	-0.125	-0.420
-718.791	-86.393	0.150	-0.047
-717.777	-80.258	0.320	-0.109
-716.762	551.082	-0.056	-0.137
-715.748	-73.756	-0.137	0.051
-714.733	-100.192	-0.036	-0.009
-713.718	-19.860	-0.372	-0.235
-712.704	-100.794	0.100	-0.025
-711.689	5.252	-0.185	0.140
-710.675	50.157	0.140	-0.135
-709.660	40.288	-0.082	0.075
-708.645	-146.650	0.199	-0.018
-707.631	-184.517	0.506	0.008
-706.616	192.884	0.086	-0.134
-705.602	5.935	-0.278	0.211
-704.587	-18.308	0.188	0.120
-703.572	-112.961	-0.292	0.059
-702.558	-93.951	-0.121	0.034
-701.543	-93.673	0.369	-0.104
-700.529	-76.331	0.195	-0.070
-699.514	71.407	0.086	-0.091
-698.499	-55.298	0.033	0.015
-697.485	-159.859	-0.118	0.007
-696.470	-73.558	-0.144	0.054
-695.456	-46.173	0.265	0.133
-694.441	-155.169	-0.342	0.023
-693.426	-128.934	0.060	-0.009
-692.412	-82.216	0.041	-0.014
-691.397	162.532	0.042	0.060
-690.383	55.790	-0.080	-0.079
-689.368	-137.701	0.172	-0.020
-688.354	800.000	-0.036	0.117
-687.339	-87.384	0.427	0.132
-686.324	-35.944	-0.268	-0.148
-685.310	-60.580	-0.231	0.100
-684.295	-76.953	0.187	0.067
-683.281	40.579	-0.161	0.148
-682.266	-128.042	-0.070	0.010
-681.251	-45.705	-0.197	0.100
-680.237	66.481	0.067	0.069
-679.222	207.718	0.126	0.201
-678.208	-135.347	-0.210	-0.026
-677.193	-105.500	0.188	-0.044
-676.178	61.658	-0.033	0.033
-675.164	-111.390	0.201	0.042
-674.149	-84.875	0.263	-0.084
-673.135	800.000	0.113	0.400
-672.120	-26.042	0.165	0.099
-671.105	-26.345	0.117	-0.070
-670.091	800.000	-0.078	-0.313
-669.076	50.992	-0.218	-0.211
-668.062	23.374	0.243	-0.204
-667.047	-200.000	-0.024	-0.275
-666.032	-200.000	0.020	-0.274
-665.018	-85.815	-0.103	-0.033
-664.003	66.222	0.143	0.149
-662.989	-108.887	0.049	0.011
-661.974	-94.716	0.113	-0.031
-660.959	-143.991	-0.330	-0.032
-659.945	-45.539	0.445	-0.225
-658.930	291.053	0.143	-0.265
-657.916	432.358	-0.109	-0.241
-656.901	-60.276	-0.095	0.041
-655.886	-24.062	0.184	0.112
-654.872	-117.037	0.173	0.032
-653.857	-200.000	0.036	0.205
-652.843	695.166	0.054	-0.145
-651.828	-43.153	0.368	-0.190
-650.814	-51.342	-0.241	-0.115
-649.799	85.890	-0.082	-0.092
-648.784	531.386	0.048	0.116
-647.770	800.000	0.024	-0.105
-646.755	-59.182	-0.368	-0.162
-645.741	119.979	0.346	0.438
-644.726	-60.682	-0.477	0.206
-643.711	168.701	-0.087	0.126
-642.697	-74.729	-0.115	0.042
-641.682	35.145	-0.137	-0.122
-640.668	-200.000	-0.008	-0.109
-639.653	800.000	-0.013	0.039
-638.638	262.272	0.165	0.292
-637.624	-200.000	0.008	0.122
-636.609	-57.104	-0.193	0.087
-635.595	153.996	0.100	-0.139
-634.580	800.000	-0.084	0.256
-633.565	-33.609	0.135	-0.076
-632.551	552.474	-0.072	0.177
-631.536	-104.645	-0.385	0.090
-630.522	-56.387	-0.217	0.098
-629.507	-200.000	0.013	-0.093
-628.492	54.397	-0.181	-0.178
-627.478	-124.879	0.246	-0.039
-626.463	-50.293	-0.321	0.155
-625.449	177.621	-0.154	-0.228
-624.434	161.481	-0.159	-0.227
-623.419	47.586	-0.195	-0.185
-622.405	-200.000	-0.011	0.194
-621.390	1.476	-0.136	0.100
-620.376	215.402	-0.103	0.167
-619.361	-109.883	0.210	-0.045
-618.346	-130.863	-0.180	-0.025
-617.332	157.345	-0.023	-0.033
-616.317	-200.000	0.020	-0.199
-615.303	800.000	-0.099	-0.406
-614.288	-200.000	-0.051	-0.306
-613.273	-167.693	-0.198	0.008
-612.259	12.659	-0.104	-0.082
-611.244	-37.614	0.232	0.126
-610.230	73.780	-0.052	-0.055
-609.215	39.954	0.299	0.274
-608.201	439.781	-0.055	-0.122
-607.186	493.404	-0.090	-0.209
-606.171	800.000	-0.136	-0.420
-605.157	-10.406	0.031	0.021
-604.142	55.085	-0.094	0.092
-603.128	-32.497	-0.198	-0.112
-602.113	-73.712	-0.337	0.125
-601.098	-25.156	-0.137	-0.082
-600.084	-31.443	-0.017	-0.010
-599.069	-78.873	-0.150	-0.052
-598.055	-130.071	-0.306	0.043
-597.040	-200.000	0.003	-0.105
-596.025	800.000	0.097	0.371
-595.011	251.517	0.026	0.046
-593.996	51.081	0.260	-0.251
-592.982	311.157	0.047	-0.090
-591.967	134.399	-0.185	0.244
-590.952	-46.697	-0.049	-0.025
-589.938	800.000	0.097	-0.286
-588.923	-78.161	0.201	-0.070
-587.909	353.785	-0.157	-0.318
-586.894	-200.000	-0.033	-0.347
-585.879	800.000	-0.171	-0.529
-584.865	70.875	-0.093	0.098
-583.850	-46.633	0.333	0.166
-582.836	800.000	0.061	-0.184
-581.821	-44.622	0.309	-0.157
-580.806	-15.797	-0.172	-0.112
-579.792	-150.769	-0.266	-0.021
-578.777	67.027	0.075	-0.077
-577.763	12.025	0.176	0.138
-576.748	-200.000	0.007	0.176
-575.733	80.918	-0.041	-0.045
-574.719	217.556	-0.214	-0.348
-573.704	-112.757	-0.079	-0.016
-572.690	-200.000	-0.008	0.094
-571.675	622.603	0.109	-0.280
-570.661	181.490	0.064	0.096
-569.646	153.259	-0.058	0.081
-568.631	-200.000	0.014	0.334
-567.617	59.947	-0.123	-0.123
-566.602	55.462	-0.086	-0.084
-565.588	-137.962	0.195	-0.022
-564.573	-200.000	0.016	-0.086
-563.558	30.235	-0.154	0.134
-562.544	-81.534	0.607	0.203
-561.529	427.060	-0.059	-0.130
-560.515	800.000	-0.074	0.261
-559.500	1.581	0.165	0.121
-558.485	-142.944	0.188	-0.019
-557.471	305.839	0.153	-0.289
-556.456	-200.000	0.005	0.033
-555.442	-200.000	0.024	-0.397
-554.427	-192.568	-0.333	-0.003
-553.412	63.869	0.120	0.123
-552.398	-25.837	-0.130	0.078
-551.383	468.767	-0.088	-0.201
-550.369	800.000	0.009	-0.030
-549.354	683.686	-0.041	0.109
-548.339	705.053	0.100	-0.268
-547.325	-59.816	-0.264	-0.115
-546.310	800.000	0.128	-0.378
-545.296	-113.538	-0.261	0.052
-544.281	-13.667	0.230	-0.152
-543.266	-200.000	-0.016	0.122
-542.252	-134.753	0.078	0.010
-541.237	44.798	-0.419	-0.391
-540.223	125.116	-0.148	-0.190
-539.208	-40.437	0.286	-0.151
-538.193	-200.000	0.006	-0.062
-537.179	770.211	-0.117	0.324
-536.164	216.956	-0.024	-0.038
-535.150	-117.774	0.091	0.017
-534.135	-200.000	0.008	0.072
-533.121	127.111	-0.135	0.174
-532.106	-200.000	0.012	0.162
-531.091	47.073	-0.127	-0.120
-530.077	-134.692	-0.232	0.029
-529.062	-161.846	0.385	0.020
-528.048	-200.000	-0.005	-0.179
-527.033	214.488	0.109	-0.175
-526.018	258.127	0.126	-0.220
-525.004	-117.626	0.380	0.070
-523.989	-200.000	-0.018	0.125
-522.975	800.000	-0.013	-0.039
-521.960	112.121	0.146	-0.179
-520.945	65.154	-0.078	-0.080
-519.931	43.416	-0.293	-0.272
-518.916	800.000	-0.054	-0.191
-517.902	-164.804	0.183	-0.008
-516.887	-8.685	0.140	-0.096
-515.872	800.000	0.020	-0.063
-514.858	-157.020	0.162	0.010
-513.843	-46.226	-0.148	0.074
-512.829	-126.305	-0.180	-0.027
-511.814	-11.788	0.117	0.078
-510.799	-200.000	0.014	-0.135
-509.785	-200.000	-0.122	0.000
-508.770	24.212	0.083	0.070
-507.756	-175.638	-0.152	-0.004
-506.741	-200.000	0.065	0.364
-505.726	74.079	-0.118	0.126
-504.712	106.383	0.189	-0.227
-503.697	-144.396	0.184	0.017
-502.683	192.549	0.148	-0.226
-501.668	523.589	-0.101	0.242
-500.653	-152.502	0.299	0.022
-499.639	800.000	-0.091	0.388
-498.624	150.103	0.132	0.182
-497.610	292.809	-0.033	-0.061
-496.595	237.381	-0.112	-0.189
-495.581	733.664	0.085	0.231
-494.566	227.039	0.086	0.142
-493.551	-9.104	0.094	0.063
-492.537	-68.647	0.235	0.092
-491.522	175.267	0.099	0.146
-490.508	27.240	0.233	0.199
-489.493	-82.910	-0.214	0.070
-488.478	-117.050	0.187	-0.035
-487.464	-47.101	-0.163	-0.080
-486.449	-62.057	-0.081	-0.034
-485.435	-200.000	-0.021	-0.193
-484.420	41.373	-0.045	0.041
-483.405	-200.000	-0.012	0.085
-482.391	234.708	-0.108	-0.180
-481.376	537.477	-0.201	-0.483
-480.362	-32.918	-0.226	-0.127
-479.347	-200.000	0.027	-0.544
-478.332	411.608	0.178	0.382
-477.318	127.004	-0.092	0.118
-476.303	800.000	-0.040	-0.145
-475.289	-167.665	0.088	0.004
-474.274	146.450	0.181	0.247
-473.259	62.693	-0.132	0.134
-472.245	-200.000	-0.001	0.219
-471.230	-129.938	-0.112	-0.016
-470.216	-200.000	-0.022	0.229
-469.201	-44.125	-0.127	0.065
-468.186	-6.925	0.195	-0.134
-467.172	202.367	-0.125	0.195
-466.157	-200.000	-0.009	0.042
-465.143	786.862	-0.051	0.142
-464.128	-17.376	0.397	0.253
-463.113	-195.855	0.305	0.002
-462.099	-109.410	-0.113	0.024
-461.084	756.833	0.018	0.049
-460.070	-134.426	-0.470	0.058
-459.055	130.398	-0.045	-0.058
-458.040	-63.991	-0.133	0.055
-457.026	-59.374	-0.247	-0.108
-456.011	-2.622	-0.274	0.194
-454.997	-200.000	-0.007	-0.087
-453.982	800.000	-0.089	0.329
-452.968	317.073	0.133	0.255
-451.953	-21.270	0.068	0.042
-450.938	190.662	-0.105	-0.160
-449.924	119.477	0.168	-0.210
-448.909	220.015	-0.055	-0.089
-447.895	-200.000	-0.308	0.000
-446.880	-149.587	0.154	0.012
-445.865	256.953	0.101	-0.176
-444.851	44.069	-0.073	0.067
-443.836	148.869	-0.143	0.196
-442.822	58.224	-0.166	-0.165
-441.807	33.447	0.162	0.143
-440.792	399.043	-0.021	-0.044
-439.778	213.756	0.182	-0.291
-438.763	-12.666	-0.237	-0.157
-437.749	-200.000	-0.016	0.150
-436.734	-181.789	0.131	-0.003
-435.719	354.350	0.057	-0.116
-434.705	278.158	0.108	-0.195
-433.690	800.000	0.104	0.302
-432.676	-121.442	-0.196	0.033
-431.661	196.920	0.204	-0.315
-430.646	-183.067	0.323	-0.006
-429.632	46.186	-0.102	-0.095
-428.617	210.592	0.062	0.098
-427.603	-1.252	0.203	0.145
-426.588	49.111	-0.235	-0.224
-425.573	270.737	-0.170	-0.303
-424.559	162.309	-0.122	-0.173
-423.544	-9.674	0.175	0.118
-422.530	-85.292	-0.176	-0.056
-421.515	-40.645	0.198	-0.104
-420.500	387.159	0.167	-0.349
-419.486	162.164	-0.024	-0.035
-418.471	239.261	-0.154	0.259
-417.457	162.629	-0.043	0.061
-416.442	379.473	-0.024	0.049
-415.428	276.172	-0.191	0.342
-414.413	255.968	0.205	-0.356
-413.398	214.749	-0.055	-0.088
-412.384	-200.000	-0.001	-0.025
-411.369	-200.000	0.008	-0.367
-410.355	470.460	0.109	0.248
-409.340	-147.150	0.133	0.012
-408.325	11.324	-0.219	-0.170
-407.311	-121.221	-0.074	-0.013
-406.296	-2.673	-0.201	-0.142
-405.282	22.853	-0.105	0.087
-404.267	-154.047	0.458	0.031
-403.252	19.775	0.278	-0.226
-402.238	-55.740	-0.227	-0.103
-401.223	87.285	-0.109	0.121
-400.209	-115.379	-0.015	0.003
-399.194	93.272	0.176	0.201
-398.179	-7.588	0.109	0.074
-397.165	165.964	-0.110	0.157
-396.150	-33.254	0.194	0.108
-395.136	-200.000	0.004	-0.348
-394.121	92.669	-0.101	-0.115
-393.106	498.532	-0.039	0.090
-392.092	800.000	0.050	0.202
-391.077	-200.000	-0.004	-0.074
-390.063	-152.918	-0.081	-0.006
-389.048	-200.000	-0.012	0.076
-388.033	331.588	0.033	0.064
-387.019	-127.656	0.188	0.028
-386.004	145.121	0.047	-0.063
-384.990	38.221	0.259	0.233
-383.975	-167.774	0.306	-0.012
-382.960	-82.847	0.249	0.081
-381.946	-200.000	0.011	0.357
-380.931	23.629	-0.076	0.063
-379.917	-4.243	-0.128	0.090
-378.902	800.000	-0.027	0.095
-377.888	-200.000	-0.002	0.062
-376.873	5.139	-0.037	-0.028
-375.858	-200.000	0.052	0.255
-374.844	-200.000	0.035	-0.207
-373.829	320.238	-0.065	0.124
-372.815	-181.106	0.152	0.003
-371.800	-4.435	0.136	0.095
-370.785	800.000	0.008	-0.029
-369.771	298.985	0.151	0.281
-368.756	-93.817	0.147	-0.041
-367.742	-46.944	0.194	-0.096
-366.727	800.000	-0.036	-0.111
-365.712	55.477	-0.052	-0.050
-364.698	-200.000	0.026	-0.190
-363.683	164.894	-0.200	0.284
-362.669	800.000	0.088	-0.262
-361.654	-112.730	-0.089	-0.018
-360.639	-200.000	-0.022	-0.202
-359.625	200.990	-0.146	0.226
-358.610	19.898	-0.095	0.077
-357.596	245.303	0.044	-0.074
-356.581	124.177	-0.157	-0.199
-355.566	176.868	-0.148	0.218
-354.552	172.508	-0.161	0.234
-353.537	42.344	0.359	0.329
-352.523	-200.000	0.017	0.132
-351.508	36.698	-0.253	-0.225
-350.493	-101.693	0.486	0.119
-349.479	800.000	-0.062	0.204
-348.464	-84.492	0.122	-0.039
-347.450	3.012	0.095	-0.069
-346.435	43.566	-0.175	0.162
-345.420	-90.267	-0.045	-0.013
-344.406	-200.000	0.014	0.209
-343.391	330.773	-0.053	0.103
-342.377	-200.000	-0.003	0.234
-341.362	800.000	0.080	0.313
-340.348	303.319	-0.112	-0.209
-339.333	800.000	0.017	0.060
-338.318	-48.888	-0.266	0.129
-337.304	-46.239	-0.061	0.030
-336.289	-14.496	0.250	0.162
-335.275	-6.421	-0.104	-0.071
-334.260	240.714	0.076	-0.128
-333.245	-115.258	-0.137	-0.026
-332.231	-78.302	-0.069	-0.024
-331.216	800.000	0.037	-0.107
-330.202	800.000	0.036	0.110
-329.187	-57.856	0.197	0.087
-328.172	-200.000	0.000	-0.051
-327.158	128.832	-0.022	0.028
-326.143	177.784	0.138	0.203
-325.129	55.834	-0.110	0.108
-324.114	-200.000	0.020	-0.090
-323.099	10.946	0.289	-0.222
-322.085	-61.569	0.310	0.131
-321.070	383.451	0.106	-0.219
-320.056	-200.000	0.023	-0.124
-319.041	-75.120	0.310	0.112
-318.026	-191.013	-0.376	0.004
-317.012	682.159	0.090	-0.236
-315.997	-200.000	-0.073	0.367
-314.983	-18.049	0.083	-0.052
-313.968	3.901	-0.075	0.055
-312.953	157.562	-0.046	0.064
-311.939	242.510	0.119	0.201
-310.924	-61.844	0.260	-0.110
-309.910	103.426	-0.102	0.121
-308.895	98.621	0.132	-0.153
-307.880	-42.325	-0.318	0.163
-306.866	-68.917	-0.236	0.092
-305.851	261.632	0.189	-0.329
-304.837	142.122	-0.134	0.180
-303.822	538.826	-0.062	-0.148
-302.807	727.390	-0.122	-0.328
-301.793	53.199	-0.108	0.104
-300.778	-200.000	-0.003	0.098
-299.764	800.000	0.068	0.200
-298.749	237.166	0.124	-0.206
-297.735	395.371	-0.131	-0.274
-296.720	81.936	-0.181	0.197
-295.705	14.240	0.088	-0.069
-294.691	-60.031	-0.063	-0.027
-293.676	-200.000	-0.046	0.404
-292.662	0.663	0.176	-0.127
-291.647	14.351	0.135	0.106
-290.632	561.018	-0.011	0.028
-289.618	-189.372	0.146	0.002
-288.603	369.280	-0.080	0.164
-287.589	-151.120	-0.306	0.023
-286.574	103.367	0.305	0.360
-285.559	-103.855	-0.201	-0.047
-284.545	95.740	-0.113	-0.130
-283.530	-119.483	-0.216	-0.038
-282.516	-132.451	-0.285	-0.037
-281.501	-135.431	-0.134	0.016
-280.486	-81.737	0.197	-0.065
-279.472	68.967	0.041	-0.043
-278.457	85.127	-0.163	-0.180
-277.443	-200.000	-0.035	0.265
-276.428	-200.000	-0.092	0.424
-275.413	-16.667	0.137	-0.087
-274.399	-81.000	-0.082	0.027
-273.384	268.571	-0.079	0.139
-272.370	-200.000	-0.018	0.103
-271.355	-200.000	0.002	0.015
-270.340	62.563	-0.331	-0.333
-269.326	-31.573	0.075	0.042
-268.311	446.028	0.073	-0.161
-267.297	-50.314	-0.120	0.057
-266.282	-177.661	-0.244	-0.006
-265.267	464.164	0.097	-0.218
-264.253	-200.000	0.023	0.294
-263.238	-178.984	-0.154	0.003
-262.224	153.808	-0.178	-0.245
-261.209	-100.156	0.257	0.064
-260.195	-128.144	0.153	-0.022
-259.180	-139.880	0.389	0.041
-258.165	12.327	0.211	0.163
-257.151	-159.764	-0.339	-0.019
-256.136	-200.000	-0.025	-0.272
-255.122	-200.000	0.063	0.301
-254.107	227.291	-0.127	0.207
-253.092	-200.000	0.000	-0.425
-252.078	39.858	-0.093	0.084
-251.063	-2.586	0.175	-0.123
-250.049	-200.000	-0.003	0.154
-249.034	362.141	-0.178	-0.359
-248.019	197.430	0.172	-0.263
-247.005	-200.000	0.016	-0.274
-245.990	-200.000	0.024	-0.170
-244.976	-53.178	0.154	0.071
-243.961	2.879	-0.262	0.191
-242.946	374.482	-0.033	0.068
-241.932	-26.470	-0.140	0.083
-240.917	444.009	-0.120	0.264
-239.903	-121.105	0.141	-0.024
-238.888	-200.000	-0.013	0.480
-237.873	-110.172	0.255	-0.053
-236.859	-118.913	0.325	-0.057
-235.844	67.938	0.101	0.104
-234.830	293.733	0.160	0.292
-233.815	-200.000	-0.023	-0.252
-232.800	50.581	-0.092	0.087
-231.786	176.600	0.117	-0.171
-230.771	120.772	-0.086	0.108
-229.757	-146.945	-0.160	0.014
-228.742	800.000	0.057	-0.218
-227.727	127.067	0.138	0.176
-226.713	73.629	-0.176	-0.185
-225.698	15.448	-0.173	0.136
-224.684	239.185	0.208	0.347
-223.669	-33.723	-0.113	0.063
-222.655	-93.227	0.295	0.082
-221.640	800.000	-0.058	0.208
-220.625	-96.505	-0.438	0.116
-219.611	55.405	0.176	0.171
-218.596	-120.789	-0.170	-0.029
-217.582	-120.325	-0.017	0.003
-216.567	-63.432	-0.168	0.069
-215.552	127.027	-0.072	-0.092
-214.538	-200.000	0.017	0.278
-213.523	800.000	0.078	0.252
-212.509	71.575	-0.077	-0.080
-211.494	36.728	0.233	0.206
-210.479	40.292	0.086	0.078
-209.465	447.881	-0.065	-0.143
-208.450	-200.000	0.043	0.211
-207.436	45.667	-0.184	-0.170
-206.421	17.787	-0.333	-0.266
-205.406	293.105	-0.142	-0.261
-204.392	-200.000	-0.018	0.128
-203.377	-133.353	0.322	0.041
-202.363	-130.023	0.210	-0.029
-201.348	-200.000	-0.014	0.136
-200.333	552.103	-0.157	-0.377
-199.319	611.941	0.123	-0.309
-198.304	175.490	0.047	-0.069
-197.290	-200.000	0.158	0.000
-196.275	-51.170	0.189	-0.089
-195.260	-200.000	0.027	0.321
-194.246	-200.000	0.154	0.000
-193.231	267.544	0.133	-0.234
-192.217	-9.063	0.290	0.195
-191.202	115.203	0.094	0.115
-190.187	-108.456	-0.185	-0.040
-189.173	-102.792	0.055	-0.013
-188.158	1.231	0.129	0.093
-187.144	-200.000	-0.023	0.467
-186.129	27.061	0.045	-0.038
-185.114	-82.483	0.274	0.089
-184.100	51.463	0.122	0.116
-183.085	-172.415	-0.248	-0.008
-182.071	-88.541	0.257	-0.077
-181.056	40.588	-0.131	-0.118
-180.042	-120.322	0.106	-0.018
-179.027	800.000	-0.083	0.265
-178.012	800.000	0.056	-0.208
-176.998	-151.101	-0.223	-0.017
-175.983	-200.000	0.091	-0.408
-174.969	47.056	0.101	-0.094
-173.954	12.801	0.208	0.161
-172.939	68.739	0.129	0.133
-171.925	-74.743	-0.143	-0.052
-170.910	9.573	-0.157	-0.119
-169.896	800.000	-0.093	0.311
-168.881	-137.092	0.436	-0.050
-167.866	800.000	-0.099	-0.388
-166.852	27.590	0.264	0.223
-165.837	-200.000	-0.043	-0.365
-164.823	463.030	0.048	-0.107
-163.808	-48.105	0.181	0.087
-162.793	65.633	-0.039	0.040
-161.779	-2.403	0.309	-0.217
-160.764	-6.812	-0.243	0.165
-159.750	-32.146	-0.250	-0.140
-158.735	800.000	0.041	-0.148
-157.720	800.000	-0.049	0.196
-156.706	-97.901	0.257	-0.066
-155.691	73.257	-0.336	-0.352
-154.677	32.713	0.094	-0.082
-153.662	-72.820	0.108	-0.040
-152.647	359.428	0.099	0.198
-151.633	-144.364	0.162	0.015
-150.618	800.000	0.071	-0.217
-149.604	800.000	-0.035	-0.118
-148.589	148.202	-0.099	-0.134
-147.574	794.603	-0.040	0.111
-146.560	-200.000	-0.034	0.156
-145.545	18.290	-0.234	-0.187
-144.531	800.000	0.087	-0.329
-143.516	-200.000	0.045	0.269
-142.502	97.349	-0.028	0.032
-141.487	35.000	-0.074	0.065
-140.472	-148.398	-0.154	-0.013
-139.458	-200.000	0.005	-0.044
-138.443	-145.429	0.155	-0.014
-137.429	-200.000	-0.003	0.168
-136.414	393.553	-0.187	-0.390
-135.399	-46.631	0.232	-0.114
-134.385	-76.540	0.144	0.051
-133.370	351.673	-0.014	0.028
-132.356	166.320	-0.162	0.230
-131.341	-85.752	-0.154	-0.048
-130.326	17.734	0.235	-0.187
-129.312	800.000	-0.050	-0.195
-128.297	-71.591	0.243	0.091
-127.283	60.736	0.061	-0.061
-126.268	-102.784	-0.042	0.010
-125.253	-61.589	-0.045	-0.019
-124.239	64.543	-0.118	-0.119
-123.224	-132.902	0.351	-0.045
-122.210	-200.000	-0.022	-0.302
-121.195	86.542	-0.049	0.054
-120.180	16.927	-0.140	0.111
-119.166	800.000	0.038	-0.139
-118.151	589.081	0.024	-0.060
-117.137	-71.325	0.202	-0.076
-116.122	-200.000	-0.026	-0.332
-115.107	171.682	-0.061	0.088
-114.093	387.734	-0.041	0.085
-113.078	-200.000	-0.016	-0.078
-112.064	-25.351	-0.261	0.154
-111.049	-150.641	0.367	0.028
-110.034	-148.485	-0.076	0.006
-109.020	-200.000	0.011	0.133
-108.005	74.258	0.243	0.255
-106.991	220.414	0.073	0.117
-105.976	-137.511	0.201	-0.023
-104.962	-3.872	-0.147	0.102
-103.947	58.439	0.167	0.164
-102.932	165.151	0.041	-0.058
-101.918	-200.000	0.006	-0.368
-100.903	519.950	0.102	0.238
-99.889	43.459	-0.041	-0.037
-98.874	22.027	0.056	-0.045
-97.859	-157.493	0.327	0.020
-96.845	-78.782	0.220	-0.075
-95.830	-60.588	0.127	-0.054
-94.816	204.451	0.244	-0.377
-93.801	282.162	0.080	-0.143
-92.786	-109.036	0.161	0.034
-91.772	-119.561	0.128	-0.022
-90.757	221.662	0.057	-0.091
-89.743	800.000	-0.049	0.195
-88.728	800.000	0.040	-0.115
-87.713	61.953	0.235	-0.234
-86.699	-138.292	0.192	0.021
-85.684	-200.000	-0.004	-0.068
-84.670	-200.000	0.002	-0.056
-83.655	-67.297	-0.201	0.079
-82.640	171.312	0.186	0.266
-81.626	-16.685	-0.108	0.068
-80.611	-118.706	0.100	-0.018
-79.597	-129.675	0.180	-0.025
-78.582	25.175	-0.085	-0.070
-77.567	-127.481	0.137	0.020
-76.553	-95.446	-0.271	-0.072
-75.538	-66.127	-0.271	-0.108
-74.524	-36.306	-0.166	0.089
-73.509	-200.000	-0.019	0.102
-72.494	-17.483	-0.203	-0.128
-71.480	-200.000	-0.018	0.134
-70.465	-130.151	-0.248	-0.034
-69.451	404.857	-0.103	0.216
-68.436	355.489	0.086	-0.170
-67.422	1.581	0.291	0.209
-66.407	800.000	-0.088	0.345
-65.392	800.000	-0.107	0.334
-64.378	-33.786	-0.131	0.072
-63.363	-1.226	0.201	-0.141
-62.349	388.499	-0.105	-0.217
-61.334	10.397	-0.825	-0.626
-60.319	17.316	0.393	0.311
-59.305	-200.000	0.039	-0.921
-58.290	206.489	0.476	0.738
-57.276	800.000	0.392	1.439
-56.261	-200.000	82.544	502.425
-55.246	562.216	1365.713	3292.842
-54.232	182.251	2597.468	3815.057
-53.217	113.082	2383.193	2879.688
-52.203	45.460	2122.936	1952.908
-51.188	40.688	2031.019	1824.553
-50.173	38.941	2011.703	1791.206
-49.159	51.241	2053.993	1942.431
-48.144	55.019	2073.848	1995.975
-47.130	41.496	2036.124	1836.294
-46.115	38.896	2024.230	1801.661
-45.100	38.883	2021.605	1799.132
-44.086	38.815	2018.818	1795.963
-43.071	38.785	2016.442	1793.500
-42.057	38.738	2014.672	1791.425
-41.042	38.788	2012.812	1790.156
-40.027	38.880	2010.995	1789.312
-39.013	38.855	2008.689	1786.959
-37.998	38.979	2006.457	1786.027
-36.984	38.863	2005.649	1784.186
-35.969	38.875	2003.611	1782.410
-34.954	38.838	2001.613	1780.228
-33.940	38.847	2000.216	1778.992
-32.925	38.928	1998.477	1778.108
-31.911	38.979	1996.642	1776.872
-30.896	38.875	1995.030	1774.425
-29.881	38.972	1994.013	1774.321
-28.867	38.961	1992.184	1772.524
-27.852	38.966	1990.150	1770.695
-26.838	38.945	1987.630	1768.189
-25.823	38.986	1986.428	1767.421
-24.809	38.925	1984.668	1765.240
-23.794	38.925	1983.000	1763.684
-22.779	38.949	1980.883	1761.941
-21.765	38.853	1979.308	1759.611
-20.750	38.847	1977.924	1758.258
-19.736	38.913	1975.912	1756.989
-18.721	38.879	1974.363	1755.242
-17.706	38.900	1972.887	1754.048
-16.692	38.993	1970.690	1752.858
-15.677	38.926	1969.446	1751.079
-14.663	38.949	1968.034	1749.959
-13.648	38.899	1967.332	1748.817
-12.633	38.902	1965.949	1747.554
-11.619	38.900	1964.637	1746.298
-10.604	38.863	1962.634	1744.119
-9.590	38.889	1961.683	1743.436
-8.575	38.894	1960.067	1741.974
-7.560	38.971	1958.540	1741.232
-6.546	38.907	1957.293	1739.481
-5.531	38.909	1956.211	1738.475
-4.517	38.915	1954.689	1737.104
-3.502	38.816	1954.116	1735.650
-2.487	38.931	1951.953	1734.673
-1.473	38.865	1951.334	1733.469
-0.458	38.856	1947.123	1729.584
0.556	40.103	1926.292	1700.043
1.571	35.260	1904.352	1639.240
2.586	30.447	1925.273	1615.372
3.600	28.986	1961.276	1632.479
4.615	27.604	1956.040	1615.735
5.629	20.965	1851.371	1473.240
6.644	10.590	1726.109	1291.272
7.659	5.602	1685.479	1221.920
8.673	5.217	1681.773	1216.125
9.688	5.083	1680.406	1213.988
10.702	5.128	1679.208	1213.368
11.717	5.172	1676.104	1211.359
12.731	5.627	1676.198	1214.846
13.746	12.042	1691.613	1275.991
14.761	20.199	1708.562	1352.545
15.775	21.958	1709.626	1366.977
16.790	20.581	1706.128	1353.349
17.804	19.552	1702.451	1342.315
18.819	18.464	1699.371	1331.321
19.834	17.881	1696.540	1324.464
20.848	17.547	1694.774	1320.383
21.863	17.310	1693.238	1317.229
22.877	17.046	1692.112	1314.191
23.892	16.871	1690.303	1311.320
24.907	16.832	1689.602	1310.362
25.921	16.835	1688.574	1309.472
26.936	16.771	1687.241	1307.821
27.950	16.778	1686.620	1307.281
28.965	16.868	1685.972	1307.356
29.980	16.884	1685.374	1306.903
30.994	16.994	1684.300	1306.804
32.009	17.090	1683.317	1306.662
33.023	17.205	1682.108	1306.494
34.038	17.132	1681.865	1305.628
35.053	17.196	1680.304	1304.792
36.067	17.038	1679.048	1302.487
37.082	16.967	1677.804	1300.861
38.096	16.957	1677.175	1300.182
39.111	17.016	1676.186	1299.755
40.126	17.131	1675.153	1299.714
41.140	17.006	1674.661	1298.263
42.155	16.889	1672.902	1295.888
43.169	16.827	1671.083	1293.890
44.184	16.745	1670.218	1292.481
45.199	16.740	1669.337	1291.648
46.213	16.731	1668.058	1290.475
47.228	16.789	1666.762	1289.805
48.242	16.792	1665.628	1288.830
49.257	16.922	1664.886	1289.130
50.271	17.004	1663.032	1288.208
51.286	16.984	1661.824	1287.006
52.301	16.943	1660.810	1285.791
53.315	16.933	1659.513	1284.600
54.330	16.933	1657.684	1283.074
55.344	16.912	1655.722	1281.283
56.359	16.884	1654.049	1279.664
57.374	16.699	1653.589	1277.798
58.388	16.707	1652.617	1276.990
59.403	16.807	1651.157	1276.508
60.417	16.707	1649.485	1274.345
61.432	16.715	1648.190	1273.294
62.447	16.688	1647.513	1272.454
63.461	16.662	1645.943	1270.938
64.476	16.618	1644.999	1269.764
65.490	16.498	1643.976	1267.963
66.505	16.631	1642.360	1267.599
67.520	16.518	1641.560	1266.025
68.534	16.497	1641.115	1265.407
69.549	16.698	1638.908	1265.100
70.563	16.690	1637.973	1264.205
71.578	16.597	1637.192	1262.796
72.593	16.477	1635.913	1260.804
73.607	16.506	1635.020	1260.223
74.622	16.402	1634.005	1258.550
75.636	16.485	1632.669	1258.026
76.651	16.516	1632.084	1257.700
77.666	16.503	1631.411	1256.971
78.680	16.497	1630.130	1255.830
79.695	16.539	1629.066	1255.208
80.709	16.499	1628.755	1254.563
81.724	16.667	1627.347	1254.613
82.739	16.751	1626.655	1254.588
83.753	16.737	1625.948	1253.828
84.768	16.907	1624.694	1254.012
85.782	16.890	1624.483	1253.609
86.797	16.869	1624.093	1253.042
87.812	17.004	1622.963	1253.059
88.826	16.983	1621.412	1251.593
89.841	16.852	1620.328	1249.682
90.855	16.853	1619.784	1249.156
91.870	16.964	1618.279	1248.701
92.884	17.027	1617.172	1248.205
93.899	17.035	1616.354	1247.516
94.914	16.968	1615.116	1245.958
95.928	17.060	1613.947	1245.624
96.943	17.083	1612.802	1244.799
97.957	17.059	1610.944	1243.080
98.972	17.003	1609.433	1241.390
99.987	16.982	1607.985	1240.016
101.001	16.986	1606.372	1238.691
102.016	17.009	1604.226	1237.091
103.030	16.941	1603.593	1235.997
104.045	16.964	1602.156	1234.951
105.060	17.033	1600.810	1234.304
106.074	16.965	1599.192	1232.454
107.089	16.854	1597.949	1230.580
108.103	16.693	1596.652	1228.302
109.118	16.639	1594.781	1226.369
110.133	16.562	1593.516	1224.730
111.147	16.598	1592.520	1224.113
112.162	16.602	1591.066	1222.920
113.176	16.639	1589.842	1222.132
114.191	16.641	1588.074	1220.686
115.206	16.706	1587.081	1220.281
116.220	16.733	1585.760	1219.348
117.235	16.746	1584.188	1218.129
118.249	16.656	1583.331	1216.716
119.264	16.704	1581.720	1215.711
120.279	16.685	1580.539	1214.560
121.293	16.592	1579.309	1212.843
122.308	16.654	1577.422	1211.731
123.322	16.680	1575.783	1210.552
124.337	16.524	1574.897	1208.644
125.352	16.536	1573.656	1207.673
126.366	16.492	1572.340	1206.240
127.381	16.604	1571.599	1206.363
128.395	16.592	1570.333	1205.202
129.410	16.510	1569.502	1203.876
130.424	16.550	1567.739	1202.701
131.439	16.646	1566.934	1202.654
132.454	16.758	1564.993	1201.853
133.468	16.750	1563.921	1200.870
134.483	16.700	1562.280	1199.146
135.497	16.829	1561.212	1199.139
136.512	16.783	1559.456	1197.356
137.527	16.821	1558.381	1196.691
138.541	16.880	1556.952	1195.902
139.556	16.884	1555.364	1194.606
140.570	16.868	1554.402	1193.654
141.585	16.951	1552.835	1192.929
142.600	17.049	1551.678	1192.618
143.614	17.134	1550.476	1192.188
144.629	17.073	1549.975	1191.268
145.643	17.243	1547.970	1190.816
146.658	17.230	1546.636	1189.592
147.673	17.156	1545.001	1187.713
148.687	17.055	1543.426	1185.692
149.702	16.928	1542.374	1183.888
150.716	16.799	1540.682	1181.588
151.731	16.859	1539.453	1180.957
152.746	16.925	1537.876	1180.101
153.760	16.868	1536.524	1178.563
154.775	16.884	1535.369	1177.686
155.789	16.939	1534.189	1177.057
156.804	17.009	1532.840	1176.407
157.819	17.092	1531.500	1175.847
158.833	17.132	1530.290	1175.094
159.848	17.038	1529.710	1173.893
160.862	17.262	1528.182	1174.164
161.877	17.329	1527.150	1173.729
162.892	17.135	1525.929	1171.346
163.906	17.031	1524.561	1169.475
164.921	16.997	1523.267	1168.146
165.935	16.997	1522.152	1167.188
166.950	16.993	1521.148	1166.291
167.964	17.069	1519.851	1165.713
168.979	17.123	1518.711	1165.105
169.994	17.113	1517.743	1164.190
171.008	16.932	1517.100	1162.358
172.023	17.036	1515.976	1162.101
173.037	17.133	1514.490	1161.528
174.052	17.166	1513.746	1161.077
175.067	17.229	1512.420	1160.390
176.081	17.172	1511.020	1158.823
177.096	17.107	1509.691	1157.256
178.110	17.028	1508.429	1155.651
179.125	17.015	1507.242	1154.548
180.140	17.099	1506.247	1154.259
181.154	17.082	1505.353	1153.352
182.169	17.243	1503.876	1153.213
183.183	17.278	1503.011	1152.688
184.198	17.233	1502.761	1152.088
185.213	17.323	1501.193	1151.389
186.227	17.366	1499.971	1150.642
187.242	17.331	1498.862	1149.452
188.256	17.394	1497.729	1148.907
189.271	17.411	1496.738	1148.162
190.286	17.582	1495.618	1148.353
191.300	17.423	1494.634	1146.424
192.315	17.266	1493.190	1144.159
193.329	17.063	1491.887	1141.694
194.344	17.050	1490.765	1140.650
195.359	17.150	1489.453	1140.217
196.373	17.159	1488.694	1139.592
197.388	17.205	1487.942	1139.224
198.402	17.288	1487.156	1139.081
199.417	17.434	1485.877	1138.978
200.432	17.534	1485.211	1139.035
201.446	17.598	1484.191	1138.575
202.461	17.622	1483.441	1138.060
203.475	17.597	1482.414	1137.008
204.490	17.774	1480.982	1136.986
205.504	17.707	1479.800	1135.536
206.519	17.618	1478.557	1133.885
207.534	17.562	1477.195	1132.369
208.548	17.509	1475.959	1130.970
209.563	17.522	1475.413	1130.539
210.577	17.425	1474.567	1129.145
211.592	17.594	1473.480	1129.336
212.607	17.521	1472.947	1128.343
213.621	17.670	1472.070	1128.560
214.636	17.795	1470.991	1128.455
215.650	17.794	1469.965	1127.560
216.665	17.726	1469.010	1126.284
217.680	17.660	1468.662	1125.482
218.694	17.817	1467.612	1125.609
219.709	17.820	1466.691	1124.823
220.723	17.825	1465.643	1123.955
221.738	17.832	1464.600	1123.100
222.753	17.895	1463.622	1122.667
223.767	17.811	1462.805	1121.388
224.782	17.846	1461.734	1120.696
225.796	17.818	1461.036	1119.880
226.811	17.922	1460.159	1119.788
227.826	17.999	1459.425	1119.636
228.840	17.868	1458.660	1118.088
229.855	17.857	1457.270	1116.855
230.869	17.897	1455.985	1116.031
231.884	17.917	1454.697	1115.076
232.899	17.820	1454.192	1113.955
233.913	17.790	1453.162	1112.871
234.928	17.816	1451.737	1111.853
235.942	17.748	1450.512	1110.375
236.957	17.659	1449.405	1108.845
237.972	17.725	1447.905	1108.029
238.986	17.766	1446.995	1107.501
240.001	17.780	1446.056	1106.779
241.015	17.779	1445.272	1106.074
242.030	17.855	1443.906	1105.423
243.045	17.860	1443.115	1104.750
244.059	17.914	1441.913	1104.085
245.074	18.030	1440.620	1103.742
246.088	17.942	1440.893	1103.290
247.103	18.010	1439.993	1102.937
248.117	18.042	1439.739	1102.853
249.132	18.043	1438.765	1102.014
250.147	18.124	1437.696	1101.625
251.161	18.320	1437.355	1102.525
252.176	18.422	1436.743	1102.616
253.190	18.496	1436.002	1102.423
254.205	18.488	1435.100	1101.581
255.220	18.504	1433.988	1100.733
256.234	18.558	1433.189	1100.373
257.249	18.557	1432.382	1099.649
258.263	18.615	1431.471	1099.221
259.278	18.551	1430.374	1097.875
260.293	18.568	1429.445	1097.168
261.307	18.568	1428.924	1096.674
262.322	18.584	1427.990	1095.965
263.336	18.611	1427.501	1095.665
264.351	18.586	1426.489	1094.630
265.366	18.766	1425.080	1094.597
266.380	18.720	1424.407	1093.691
267.395	18.761	1423.217	1092.941
268.409	18.697	1422.923	1092.212
269.424	18.677	1421.596	1090.969
270.439	18.666	1420.403	1089.886
271.453	18.596	1419.442	1088.610
272.468	18.572	1418.747	1087.832
273.482	18.713	1417.046	1087.323
274.497	18.660	1416.667	1086.597
275.512	18.581	1416.186	1085.637
276.526	18.628	1414.951	1084.889
277.541	18.623	1414.500	1084.412
278.555	18.633	1412.813	1083.087
279.570	18.643	1412.287	1082.655
280.585	18.649	1411.781	1082.207
281.599	18.848	1410.600	1082.460
282.614	18.892	1409.829	1082.047
283.628	18.826	1408.812	1080.755
284.643	18.684	1407.835	1079.023
285.657	18.761	1406.387	1078.295
286.672	18.659	1405.336	1076.758
287.687	18.773	1404.302	1076.584
288.701	18.811	1403.349	1075.996
289.716	18.777	1402.927	1075.366
290.730	18.796	1402.187	1074.822
291.745	18.873	1400.719	1074.084
292.760	18.837	1400.432	1073.543
293.774	18.805	1399.248	1072.338
294.789	18.861	1398.184	1071.776
295.803	18.919	1397.504	1071.523
296.818	18.856	1396.935	1070.600
297.833	18.946	1395.540	1069.999
298.847	18.805	1394.447	1068.188
299.862	18.741	1393.799	1067.202
300.876	18.907	1392.569	1067.196
301.891	18.890	1391.840	1066.438
302.906	18.952	1391.046	1066.116
303.920	19.047	1390.039	1065.838
304.935	19.138	1389.591	1065.966
305.949	19.161	1388.919	1065.495
306.964	19.252	1388.120	1065.350
307.979	19.331	1386.903	1064.813
308.993	19.152	1386.184	1063.058
310.008	19.213	1385.224	1062.608
311.022	19.142	1384.107	1061.220
312.037	19.148	1383.304	1060.545
313.052	19.325	1381.700	1060.309
314.066	19.276	1381.314	1059.623
315.081	19.227	1379.804	1058.068
316.095	19.132	1378.835	1056.645
317.110	19.121	1377.485	1055.449
318.125	19.144	1376.543	1054.779
319.139	19.122	1375.810	1053.985
320.154	19.087	1374.594	1052.752
321.168	19.144	1373.676	1052.301
322.183	19.145	1372.601	1051.389
323.197	19.135	1371.775	1050.603
324.212	19.132	1371.188	1050.046
325.227	19.172	1370.432	1049.615
326.241	19.285	1369.252	1049.307
327.256	19.260	1368.412	1048.419
328.270	19.231	1367.435	1047.402
329.285	19.224	1366.509	1046.554
330.300	19.246	1366.206	1046.363
331.314	19.261	1364.700	1045.208
332.329	19.200	1364.072	1044.268
333.343	19.209	1363.387	1043.704
334.358	19.262	1362.514	1043.262
335.373	19.386	1361.608	1043.227
336.387	19.394	1360.861	1042.613
337.402	19.460	1359.907	1042.185
338.416	19.411	1359.620	1041.578
339.431	19.440	1359.113	1041.274
340.446	19.413	1358.441	1040.507
341.460	19.589	1357.432	1040.702
342.475	19.619	1356.496	1040.069
343.489	19.713	1355.951	1040.127
344.504	19.741	1354.603	1039.167
345.519	19.761	1353.509	1038.360
346.533	19.818	1352.609	1037.917
347.548	19.833	1351.773	1037.273
348.562	19.845	1351.090	1036.733
349.577	19.935	1350.097	1036.418
350.592	19.885	1349.255	1035.376
351.606	19.702	1348.422	1033.553
352.621	19.557	1347.601	1031.966
353.635	19.632	1346.204	1031.253
354.650	19.660	1345.140	1030.515
355.665	19.596	1344.128	1029.265
356.679	19.650	1343.261	1028.834
357.694	19.589	1342.163	1027.535
358.708	19.795	1340.850	1027.664
359.723	19.766	1339.616	1026.454
360.738	19.723	1339.286	1025.859
361.752	19.745	1338.059	1024.958
362.767	19.868	1337.120	1024.874
363.781	19.770	1336.161	1023.468
364.796	19.820	1335.173	1022.918
365.810	19.854	1334.948	1022.856
366.825	19.989	1334.130	1022.938
367.840	19.955	1333.712	1022.322
368.854	20.136	1332.611	1022.461
369.869	20.187	1332.536	1022.609
370.883	20.247	1331.094	1021.768
371.898	20.220	1330.482	1021.046
372.913	20.077	1329.776	1019.573
373.927	20.055	1328.769	1018.586
374.942	20.068	1328.051	1018.018
375.956	20.127	1327.075	1017.527
376.971	20.169	1326.220	1017.029
377.986	20.207	1325.421	1016.550
379.000	20.212	1324.835	1016.039
380.015	20.198	1324.371	1015.508
381.029	20.268	1323.553	1015.204
382.044	20.431	1322.933	1015.588
383.059	20.324	1322.514	1014.551
384.073	20.372	1321.082	1013.646
385.088	20.300	1320.779	1012.906
386.102	20.459	1319.645	1012.871
387.117	20.356	1319.554	1012.113
388.132	20.329	1318.562	1011.102
389.146	20.289	1317.694	1010.112
390.161	20.283	1316.569	1009.126
391.175	20.233	1315.625	1008.027
392.190	20.138	1314.902	1006.831
393.205	20.260	1314.237	1006.942
394.219	20.380	1313.307	1006.834
395.234	20.416	1312.064	1006.000
396.248	20.361	1310.588	1004.463
397.263	20.362	1309.017	1003.172
398.278	20.375	1308.225	1002.552
399.292	20.228	1306.925	1000.621
400.307	20.259	1305.875	999.906
401.321	20.214	1304.791	998.732
402.336	20.285	1303.450	998.022
403.350	20.260	1302.416	996.999
404.365	20.280	1301.285	996.158
405.380	20.270	1300.665	995.538
406.394	20.339	1300.030	995.362
407.409	20.349	1299.329	994.795
408.423	20.450	1298.613	994.737
409.438	20.472	1298.105	994.388
410.453	20.446	1297.707	993.845
411.467	20.624	1296.870	994.131
412.482	20.695	1296.233	993.964
413.496	20.835	1295.479	994.095
414.511	20.844	1294.447	993.264
415.526	20.849	1294.031	992.888
416.540	20.886	1293.499	992.601
417.555	20.879	1292.590	991.777
418.569	20.885	1291.931	991.218
419.584	20.877	1291.503	990.755
420.599	20.893	1290.508	989.998
421.613	137.771	1425.737	1767.394
422.628	133.209	1445.425	1767.517
