DTS Sentinel unit serial number:	SN413079Multiplexer serial number:	ORYXHardware model number:	OX4-SRSoftware version number:	ORYX F/W v4.00 Oryx Data Collector v3.7.2.0data status	okinstallation	princeton_trtdifferential loss correction	single-endedforward channel	channel 4reverse channel	N/Adate	2019/09/13time	20:57:35forward acquisition time	60.00reverse acquisition time	0.00gamma	496.2192k internal	0.2319k external	0.2319temperature offset calibration	1.0132default loss term (dB/km)	0.3790temperature slope calibration	1.0000multiplexer offset coefficient	1.0000multiplexer slope coefficient	1.0000fibre end	0.00T internal ref (°C)	28.66T ext. ref 1 (°C)	3.14T ext. ref 2 (°C)	23.17length (m)	temperature (°C)	Stokes	anti-Stokes-747.200	-200.000	0.034	-0.392
-746.185	80.093	0.308	0.335
-745.171	-86.745	-0.135	0.042
-744.156	486.105	0.073	0.168
-743.142	191.100	-0.087	-0.132
-742.127	-152.175	-0.103	0.008
-741.112	800.000	-0.057	0.206
-740.098	438.752	-0.098	0.217
-739.083	-139.472	0.047	0.005
-738.069	-71.458	-0.287	-0.109
-737.054	185.439	-0.119	-0.178
-736.039	-95.533	-0.221	0.060
-735.025	101.726	0.218	0.257
-734.010	-96.049	-0.223	0.060
-732.996	48.727	0.142	0.134
-731.981	41.183	0.089	-0.081
-730.966	-126.855	-0.155	0.023
-729.952	-94.154	0.301	0.083
-728.937	56.046	0.145	0.143
-727.923	-37.443	-0.061	0.033
-726.908	-89.804	-0.237	0.070
-725.894	-119.106	-0.389	-0.069
-724.879	327.792	0.052	-0.101
-723.864	-28.472	-0.343	-0.200
-722.850	-53.271	0.075	-0.035
-721.835	-121.516	0.240	0.040
-720.821	355.855	-0.178	-0.359
-719.806	-163.318	-0.042	0.002
-718.791	442.208	0.089	0.197
-717.777	125.872	-0.053	0.067
-716.762	293.828	0.090	-0.167
-715.748	-97.183	0.119	-0.031
-714.733	-166.707	-0.099	-0.004
-713.718	81.805	-0.206	-0.226
-712.704	112.148	-0.160	-0.195
-711.689	252.834	-0.068	-0.118
-710.675	-130.519	0.212	0.029
-709.660	191.808	-0.074	-0.113
-708.645	-37.842	0.033	0.018
-707.631	800.000	0.039	0.124
-706.616	-67.978	-0.205	0.081
-705.602	800.000	-0.028	0.108
-704.587	-144.696	0.080	0.007
-703.572	206.861	-0.117	-0.184
-702.558	-200.000	0.004	0.241
-701.543	77.933	-0.235	0.253
-700.529	17.829	0.071	0.057
-699.514	170.553	-0.154	0.223
-698.499	531.357	-0.113	-0.269
-697.485	7.014	0.155	0.117
-696.470	-61.603	-0.324	-0.137
-695.456	270.686	0.096	-0.170
-694.441	-102.259	-0.218	0.053
-693.426	-68.402	0.051	-0.020
-692.412	-200.000	-0.018	0.116
-691.397	-200.000	-0.011	-0.134
-690.383	-77.019	-0.194	0.069
-689.368	-54.236	-0.296	-0.136
-688.354	-56.620	0.251	-0.112
-687.339	-100.557	-0.221	0.055
-686.324	610.719	0.046	-0.117
-685.310	-58.331	-0.117	-0.051
-684.295	-79.962	-0.298	0.101
-683.281	-133.211	0.195	0.025
-682.266	-200.000	-0.012	-0.216
-681.251	511.019	-0.185	-0.434
-680.237	800.000	0.094	0.338
-679.222	800.000	0.023	-0.090
-678.208	124.743	0.173	0.219
-677.193	-200.000	-0.009	-0.213
-676.178	143.933	-0.186	-0.250
-675.164	292.966	-0.134	-0.246
-674.149	464.600	0.136	-0.307
-673.135	-27.787	-0.027	-0.016
-672.120	32.447	0.115	-0.100
-671.105	92.172	0.131	0.149
-670.091	-108.232	-0.351	-0.077
-669.076	-116.219	-0.060	0.011
-668.062	-109.233	-0.474	-0.101
-667.047	85.873	0.141	-0.157
-666.032	-108.307	0.261	-0.057
-665.018	-152.414	0.289	-0.021
-664.003	-75.207	-0.205	0.074
-662.989	-200.000	0.042	-0.244
-661.974	-108.625	-0.166	0.036
-660.959	-40.479	0.127	-0.066
-659.945	334.602	0.015	0.029
-658.930	-83.904	-0.371	0.119
-657.916	-146.851	-0.297	0.026
-656.901	73.948	0.183	0.193
-655.886	-108.928	0.260	-0.056
-654.872	315.494	0.138	-0.262
-653.857	101.446	-0.218	-0.256
-652.843	188.196	-0.112	0.168
-651.828	67.588	-0.337	-0.347
-650.814	-200.000	-0.032	-0.201
-649.799	-5.093	0.159	-0.110
-648.784	615.396	-0.066	0.167
-647.770	453.234	-0.075	-0.166
-646.755	-200.000	0.045	-0.353
-645.741	-36.212	-0.328	-0.179
-644.726	256.847	-0.073	-0.126
-643.711	-200.000	-0.011	0.071
-642.697	-200.000	-0.008	0.347
-641.682	-200.000	-0.544	-0.001
-640.668	640.558	-0.172	-0.440
-639.653	800.000	0.125	-0.359
-638.638	608.460	-0.038	-0.095
-637.624	800.000	0.083	0.249
-636.609	416.695	0.062	0.134
-635.595	-200.000	-0.042	-0.298
-634.580	-104.946	0.324	-0.075
-633.565	-200.000	0.004	0.040
-632.551	-108.761	-0.424	-0.092
-631.536	23.271	-0.121	-0.100
-630.522	209.261	0.054	-0.086
-629.507	101.111	-0.274	-0.321
-628.492	-22.076	-0.042	-0.026
-627.478	102.391	0.091	-0.107
-626.463	-60.376	-0.183	-0.078
-625.449	-88.853	-0.195	0.058
-624.434	-200.000	-0.024	0.209
-623.419	249.383	-0.224	-0.383
-622.405	-75.355	0.179	-0.064
-621.390	-84.247	-0.090	-0.029
-620.376	-76.491	0.393	-0.139
-619.361	144.563	-0.131	-0.176
-618.346	-8.693	-0.306	-0.207
-617.332	-200.000	0.194	0.000
-616.317	1.799	0.230	-0.167
-615.303	-35.478	0.089	-0.049
-614.288	-44.558	0.089	0.045
-613.273	61.045	-0.119	-0.119
-612.259	66.194	0.217	0.222
-611.244	381.177	0.124	-0.256
-610.230	800.000	-0.097	-0.270
-609.215	30.374	-0.205	-0.176
-608.201	95.008	-0.134	0.154
-607.186	800.000	-0.072	0.257
-606.171	-200.000	-0.051	0.237
-605.157	-28.356	0.260	0.151
-604.142	-93.822	0.197	-0.055
-603.128	590.179	-0.053	0.132
-602.113	-83.418	-0.225	-0.073
-601.098	-104.346	0.143	0.033
-600.084	-200.000	-0.036	0.251
-599.069	541.552	-0.061	0.146
-598.055	89.207	-0.333	-0.373
-597.040	23.189	0.166	-0.137
-596.025	-200.000	0.022	-0.199
-595.011	770.121	-0.090	-0.246
-593.996	-136.601	-0.226	-0.026
-592.982	-11.468	0.190	0.126
-591.967	800.000	0.068	-0.246
-590.952	503.468	0.120	0.278
-589.938	-111.688	-0.082	-0.017
-588.923	166.381	-0.159	0.227
-587.909	-137.225	-0.145	-0.017
-586.894	-164.024	-0.400	-0.019
-585.879	-26.628	-0.234	-0.137
-584.865	-200.000	0.005	0.109
-583.850	-200.000	-0.032	0.249
-582.836	-200.000	0.003	0.015
-581.821	800.000	-0.036	0.147
-580.806	93.269	-0.213	-0.243
-579.792	800.000	0.037	0.146
-578.777	-200.000	-0.016	-0.172
-577.763	-138.738	-0.071	0.008
-576.748	800.000	-0.140	0.394
-575.733	800.000	-0.097	0.329
-574.719	-116.488	0.207	0.038
-573.704	-48.499	-0.283	0.137
-572.690	205.371	-0.184	0.287
-571.675	245.595	-0.088	0.149
-570.661	2.680	-0.270	0.196
-569.646	-200.000	0.030	0.254
-568.631	-200.000	0.011	0.149
-567.617	800.000	0.040	0.145
-566.602	-88.235	-0.245	0.074
-565.588	-56.886	-0.282	-0.125
-564.573	-100.569	0.190	0.047
-563.558	-55.296	0.119	-0.054
-562.544	614.642	0.061	0.154
-561.529	156.299	-0.118	-0.163
-560.515	167.129	0.126	0.180
-559.500	800.000	-0.113	-0.352
-558.485	-129.047	0.317	0.045
-557.471	-4.151	-0.207	-0.144
-556.456	-29.490	0.109	0.062
-555.442	-167.713	-0.350	0.014
-554.427	-200.000	0.081	-0.370
-553.412	-200.000	0.031	0.354
-552.398	-200.000	0.030	0.185
-551.383	-58.698	-0.055	-0.024
-550.369	239.191	0.169	-0.282
-549.354	562.153	-0.142	0.345
-548.339	-4.627	0.315	-0.218
-547.325	-166.546	-0.156	-0.007
-546.310	-200.000	0.001	0.166
-545.296	-200.000	-0.002	0.114
-544.281	-200.000	-0.043	-0.265
-543.266	41.917	-0.069	0.062
-542.252	800.000	-0.079	0.230
-541.237	800.000	0.013	-0.045
-540.223	800.000	0.140	0.477
-539.208	-103.129	0.423	0.101
-538.193	2.997	0.065	0.048
-537.179	96.228	-0.131	-0.150
-536.164	-115.653	0.140	-0.026
-535.150	-178.318	0.372	0.009
-534.135	-200.000	0.001	0.056
-533.121	75.652	0.122	-0.129
-532.106	-76.014	0.226	0.080
-531.091	-200.000	0.077	-0.390
-530.077	50.291	-0.147	-0.140
-529.062	-29.713	0.371	-0.212
-528.048	-200.000	-0.045	0.217
-527.033	-200.000	-0.029	0.152
-526.018	-107.543	0.067	0.015
-525.004	115.403	0.013	-0.016
-523.989	-146.914	-0.319	-0.028
-522.975	-1.721	0.204	0.144
-521.960	-104.642	0.421	-0.097
-520.945	168.503	-0.039	-0.055
-519.931	78.069	0.193	0.206
-518.916	53.524	0.137	0.131
-517.902	-200.000	0.003	-0.016
-516.887	-54.148	-0.065	0.029
-515.872	-94.693	-0.223	-0.061
-514.858	-200.000	-0.071	0.390
-513.843	-200.000	-0.028	-0.137
-512.829	377.534	-0.183	-0.376
-511.814	153.059	0.096	-0.132
-510.799	470.062	0.102	-0.229
-509.785	166.343	0.086	0.122
-508.770	446.834	-0.025	0.055
-507.756	640.586	0.108	-0.276
-506.741	800.000	-0.072	0.212
-505.726	-18.461	-0.085	-0.054
-504.712	-109.747	0.119	0.025
-503.697	-88.285	-0.183	-0.055
-502.683	206.723	-0.107	-0.167
-501.668	60.960	-0.310	-0.309
-500.653	-73.456	0.206	0.075
-499.639	-22.504	0.150	0.091
-498.624	43.285	-0.179	0.164
-497.610	-151.914	-0.061	0.004
-496.595	82.258	0.146	-0.159
-495.581	395.014	-0.047	0.098
-494.566	19.296	-0.190	-0.153
-493.551	125.774	0.118	-0.149
-492.537	-57.464	-0.072	0.032
-491.522	-79.222	-0.301	-0.102
-490.508	-200.000	0.013	0.146
-489.493	-133.845	0.219	0.027
-488.478	403.443	-0.162	-0.341
-487.464	222.427	0.185	-0.298
-486.449	-200.000	-0.049	0.233
-485.435	800.000	0.041	0.150
-484.420	-32.613	-0.139	-0.078
-483.405	-108.300	-0.190	0.041
-482.391	-132.064	0.228	-0.030
-481.376	413.558	-0.152	0.323
-480.362	-4.308	0.021	-0.014
-479.347	-121.668	0.184	0.031
-478.332	40.379	0.187	-0.169
-477.318	-12.318	-0.129	-0.084
-476.303	-58.383	0.203	-0.088
-475.289	372.170	-0.108	0.219
-474.274	63.947	-0.273	-0.275
-473.259	-200.000	-0.052	-0.345
-472.245	-102.704	0.243	0.058
-471.230	800.000	0.032	-0.140
-470.216	-115.182	-0.200	-0.038
-469.201	227.528	0.143	-0.234
-468.186	-105.498	-0.124	0.028
-467.172	-50.749	0.217	-0.102
-466.157	-171.754	-0.405	0.013
-465.143	-33.763	0.004	0.002
-464.128	-95.169	-0.105	0.028
-463.113	-81.287	-0.031	-0.010
-462.099	-200.000	0.012	-0.086
-461.084	-200.000	-0.044	0.204
-460.070	-13.075	0.312	0.203
-459.055	-125.805	0.037	-0.006
-458.040	-77.984	-0.298	-0.103
-457.026	-87.465	-0.250	0.076
-456.011	-67.715	0.100	0.039
-454.997	-200.000	0.021	0.110
-453.982	-105.797	-0.243	-0.055
-452.968	-23.426	-0.329	-0.197
-451.953	-122.379	0.391	0.064
-450.938	46.527	0.062	0.058
-449.924	-38.926	0.202	0.106
-448.909	100.569	-0.091	0.105
-447.895	800.000	0.058	0.237
-446.880	568.670	0.103	0.251
-445.865	251.304	0.091	0.155
-444.851	187.810	-0.215	-0.321
-443.836	87.610	0.282	0.312
-442.822	286.389	-0.166	0.300
-441.807	-63.541	-0.230	-0.095
-440.792	-200.000	0.034	-0.377
-439.778	-147.479	-0.226	0.019
-438.763	580.618	-0.204	-0.501
-437.749	69.639	0.111	-0.114
-436.734	42.315	0.072	0.065
-435.719	-49.152	-0.084	-0.040
-434.705	-127.219	0.159	-0.023
-433.690	-80.421	-0.228	0.076
-432.676	-26.237	0.235	-0.138
-431.661	-137.961	-0.141	-0.016
-430.646	180.872	-0.089	0.130
-429.632	800.000	-0.057	-0.202
-428.617	25.999	0.162	0.135
-427.603	-200.000	-0.042	0.215
-426.588	-109.121	-0.207	-0.044
-425.573	440.778	0.174	0.381
-424.559	81.354	0.263	0.284
-423.544	-123.368	0.145	-0.023
-422.530	347.377	-0.027	0.053
-421.515	-180.588	-0.150	0.003
-420.500	83.386	0.146	0.158
-419.486	273.827	-0.068	0.121
-418.471	-200.000	-0.025	-0.207
-417.457	-200.000	-0.052	-0.399
-416.442	76.632	-0.074	0.078
-415.428	285.256	-0.125	0.226
-414.413	304.572	0.084	-0.156
-413.398	-200.000	0.028	-0.366
-412.384	800.000	0.048	0.173
-411.369	-106.204	0.036	0.008
-410.355	208.292	-0.085	-0.133
-409.340	-200.000	-0.008	0.103
-408.325	800.000	0.059	-0.207
-407.311	199.188	0.111	0.170
-406.296	-138.377	0.154	0.017
-405.282	262.117	0.079	0.137
-404.267	800.000	-0.115	-0.329
-403.252	-200.000	-0.057	-0.308
-402.238	-104.499	0.287	-0.066
-401.223	63.443	0.210	0.210
-400.209	-200.000	0.018	0.146
-399.194	-200.000	0.017	-0.197
-398.179	-200.000	-0.046	-0.362
-397.165	209.769	0.157	-0.246
-396.150	82.428	-0.084	-0.091
-395.136	5.553	0.072	0.053
-394.121	-200.000	0.031	-0.634
-393.106	-200.000	0.016	0.136
-392.092	-8.326	0.186	-0.125
-391.077	328.861	-0.089	0.171
-390.063	394.052	-0.078	0.162
-389.048	800.000	-0.025	-0.084
-388.033	400.232	0.270	0.566
-387.019	-39.082	0.127	-0.067
-386.004	50.159	-0.114	-0.108
-384.990	236.812	-0.136	0.225
-383.975	-200.000	-0.003	-0.204
-382.960	145.629	0.098	0.131
-381.946	-200.000	0.007	0.116
-380.931	-200.000	0.004	0.022
-379.917	44.390	-0.267	0.244
-378.902	-200.000	-0.071	-0.336
-377.888	-200.000	-0.010	0.226
-376.873	86.770	-0.165	-0.181
-375.858	28.614	0.203	-0.171
-374.844	-110.704	0.230	0.047
-373.829	402.196	0.025	-0.052
-372.815	162.892	0.048	-0.068
-371.800	122.278	0.107	0.134
-370.785	-42.455	-0.258	-0.131
-369.771	58.192	0.119	0.116
-368.756	392.472	-0.132	-0.274
-367.742	20.391	0.128	-0.103
-366.727	30.134	-0.120	0.102
-365.712	92.642	0.231	0.260
-364.698	-77.258	-0.356	0.123
-363.683	6.696	0.245	0.182
-362.669	483.174	-0.121	0.275
-361.654	800.000	-0.081	-0.270
-360.639	-200.000	-0.030	-0.209
-359.625	-39.062	-0.138	-0.072
-358.610	94.621	0.128	-0.145
-357.596	55.358	-0.328	0.316
-356.581	161.864	0.116	-0.162
-355.566	-200.000	-0.089	0.400
-354.552	800.000	0.007	0.030
-353.537	-33.729	0.089	-0.049
-352.523	330.204	0.126	-0.241
-351.508	-165.018	-0.211	0.009
-350.493	245.527	0.199	0.334
-349.479	-154.911	-0.435	-0.029
-348.464	-4.154	-0.248	0.171
-347.450	77.140	-0.166	0.176
-346.435	-58.981	0.375	0.161
-345.420	-149.241	-0.175	-0.014
-344.406	-105.686	-0.021	0.005
-343.391	-160.070	-0.318	0.017
-342.377	581.053	0.066	0.161
-341.362	-28.199	-0.180	-0.103
-340.348	133.611	0.128	-0.165
-339.333	800.000	-0.089	0.283
-338.318	-61.587	-0.085	-0.035
-337.304	-76.642	-0.249	-0.087
-336.289	327.083	-0.067	-0.128
-335.275	-46.576	0.319	-0.156
-334.260	-84.144	0.587	-0.186
-333.245	-59.875	0.191	-0.081
-332.231	-200.000	-0.033	-0.178
-331.216	-79.372	0.164	0.055
-330.202	32.260	0.112	-0.096
-329.187	-115.344	0.297	0.056
-328.172	362.362	-0.205	-0.409
-327.158	25.548	0.204	0.169
-326.143	-200.000	-0.046	0.278
-325.129	76.611	-0.406	0.428
-324.114	-49.813	0.657	-0.311
-323.099	-96.821	0.179	0.047
-322.085	4.643	-0.252	-0.184
-321.070	800.000	0.106	-0.366
-320.056	-97.552	-0.342	0.088
-319.041	-200.000	0.016	0.374
-318.026	11.978	-0.189	-0.144
-317.012	800.000	0.006	-0.022
-315.997	-200.000	0.009	0.182
-314.983	-46.786	0.185	-0.090
-313.968	-47.676	0.232	-0.112
-312.953	202.626	0.079	-0.121
-311.939	-71.906	0.152	-0.056
-310.924	-108.808	-0.112	0.024
-309.910	303.225	-0.174	0.320
-308.895	-59.427	0.189	0.081
-307.880	180.123	-0.087	0.127
-306.866	37.866	0.212	0.188
-305.851	120.953	0.065	-0.080
-304.837	388.325	0.102	-0.210
-303.822	198.211	0.100	-0.153
-302.807	-119.151	0.104	-0.018
-301.793	-110.832	-0.107	-0.022
-300.778	800.000	-0.074	-0.206
-299.764	149.769	-0.306	0.412
-298.749	-200.000	0.016	0.215
-297.735	800.000	-0.005	-0.018
-296.720	28.713	-0.098	0.082
-295.705	-91.644	0.321	-0.091
-294.691	5.365	-0.185	-0.136
-293.676	-200.000	0.022	-0.315
-292.662	-64.481	0.193	-0.078
-291.647	-200.000	-0.101	0.516
-290.632	-200.000	0.034	0.302
-289.618	-0.420	-0.153	0.108
-288.603	-20.390	0.181	-0.111
-287.589	-161.578	-0.101	0.005
-286.574	-61.543	0.267	-0.111
-285.559	-200.000	-0.003	-0.231
-284.545	107.272	-0.086	-0.102
-283.530	-200.000	0.019	0.271
-282.516	-200.000	-0.004	0.086
-281.501	800.000	0.103	-0.370
-280.486	69.448	-0.147	0.151
-279.472	219.879	-0.301	0.479
-278.457	370.380	-0.124	0.249
-277.443	147.068	-0.159	0.212
-276.428	800.000	0.033	-0.117
-275.413	221.968	-0.045	-0.073
-274.399	-109.632	0.358	0.075
-273.384	-96.544	0.500	-0.131
-272.370	-49.119	0.176	0.084
-271.355	-99.247	0.166	-0.042
-270.340	198.780	-0.093	0.141
-269.326	800.000	0.068	0.214
-268.311	-200.000	-0.006	0.102
-267.297	-61.455	0.063	-0.026
-266.282	-26.474	-0.084	0.049
-265.267	436.643	-0.125	0.271
-264.253	-17.774	0.241	-0.150
-263.238	-50.470	0.258	-0.121
-262.224	-200.000	-0.024	-0.178
-261.209	800.000	-0.061	0.264
-260.195	800.000	-0.078	-0.257
-259.180	-200.000	-0.004	0.236
-258.165	800.000	-0.029	-0.102
-257.151	498.129	-0.067	0.154
-256.136	-10.420	-0.099	-0.065
-255.122	44.726	-0.047	0.043
-254.107	-200.000	-0.066	0.289
-253.092	-166.086	0.429	-0.018
-252.078	-200.000	0.058	-0.000
-251.063	-98.865	0.064	-0.016
-250.049	-132.671	-0.150	-0.019
-249.034	-144.856	-0.199	-0.018
-248.019	-113.691	0.091	0.018
-247.005	-76.377	-0.188	0.066
-245.990	-170.655	0.228	-0.008
-244.976	-145.364	0.215	0.019
-243.961	126.514	0.044	-0.055
-242.946	4.023	-0.083	-0.060
-241.932	149.232	0.041	-0.055
-240.917	-71.876	-0.213	0.079
-239.903	-72.605	-0.177	0.065
-238.888	129.403	-0.163	-0.207
-237.873	-111.743	-0.294	-0.059
-236.859	16.868	0.170	-0.133
-235.844	-40.648	0.187	0.096
-234.830	-152.397	0.054	-0.004
-233.815	194.512	0.113	0.170
-232.800	65.036	0.085	0.085
-231.786	-16.414	-0.197	0.124
-230.771	-200.000	0.019	-0.100
-229.757	-29.385	0.262	0.148
-228.742	-139.858	-0.204	-0.021
-227.727	800.000	0.135	-0.470
-226.713	-114.693	0.220	-0.042
-225.698	-163.318	-0.232	0.011
-224.684	-26.966	0.123	0.071
-223.669	800.000	-0.051	-0.146
-222.655	800.000	0.026	0.079
-221.640	499.270	0.008	0.018
-220.625	11.482	-0.342	0.259
-219.611	-99.319	-0.509	-0.127
-218.596	80.763	0.199	0.212
-217.582	108.430	0.134	0.159
-216.567	-200.000	-0.001	-0.042
-215.552	83.722	0.212	0.229
-214.538	37.696	-0.100	0.088
-213.523	-200.000	-0.127	0.585
-212.509	-171.267	0.137	0.005
-211.494	-93.882	0.069	0.019
-210.479	-106.747	0.070	0.015
-209.465	-104.031	-0.199	0.046
-208.450	-200.000	0.014	-0.236
-207.436	781.528	-0.060	-0.161
-206.421	100.081	0.120	0.138
-205.406	47.406	0.112	0.104
-204.392	198.415	-0.115	-0.174
-203.377	-16.833	-0.183	-0.114
-202.363	166.352	-0.034	0.048
-201.348	-200.000	-0.000	-0.184
-200.333	-200.000	-0.056	0.253
-199.319	-200.000	-0.054	-0.418
-198.304	-145.942	0.227	-0.020
-197.290	-200.000	-0.006	0.205
-196.275	-76.365	0.353	-0.123
-195.260	-151.777	-0.356	-0.026
-194.246	14.423	0.151	0.116
-193.231	-200.000	-0.025	0.183
-192.217	-57.530	-0.166	0.072
-191.202	205.930	-0.162	-0.250
-190.187	-187.656	-0.229	-0.003
-189.173	243.138	0.225	-0.374
-188.158	-200.000	-0.004	-0.231
-187.144	227.680	0.080	0.129
-186.129	-40.102	0.215	0.111
-185.114	-200.000	0.013	0.065
-184.100	-4.493	-0.215	-0.147
-183.085	-128.453	-0.224	0.031
-182.071	-70.557	-0.181	-0.068
-181.056	-70.103	0.140	-0.053
-180.042	-61.677	0.200	-0.083
-179.027	-200.000	-0.010	0.155
-178.012	-153.037	-0.110	0.008
-176.998	-200.000	0.045	-0.313
-175.983	514.364	-0.052	0.120
-174.969	-112.458	-0.098	0.019
-173.954	-200.000	0.024	0.364
-172.939	800.000	-0.052	0.144
-171.925	-33.467	-0.246	0.135
-170.910	800.000	-0.072	-0.243
-169.896	19.209	0.140	-0.111
-168.881	119.617	0.088	-0.108
-167.866	45.623	-0.126	0.115
-166.852	-200.000	0.004	0.360
-165.837	243.012	0.044	0.074
-164.823	379.229	0.229	0.463
-163.808	-52.112	0.215	-0.098
-162.793	-127.640	0.033	-0.005
-161.779	800.000	0.101	-0.419
-160.764	-16.693	0.129	0.081
-159.750	-78.055	0.129	-0.044
-158.735	29.205	0.310	-0.260
-157.720	388.499	0.062	-0.127
-156.706	105.144	0.178	-0.208
-155.691	106.476	0.148	-0.173
-154.677	-200.000	-0.084	0.443
-153.662	38.329	0.181	0.160
-152.647	-200.000	-0.007	-0.093
-151.633	-42.472	0.328	-0.165
-150.618	47.196	-0.025	-0.023
-149.604	-124.088	0.312	-0.048
-148.589	478.825	-0.099	0.221
-147.574	71.931	0.132	0.136
-146.560	-107.867	-0.336	0.072
-145.545	-200.000	0.034	0.154
-144.531	-200.000	-0.028	-0.142
-143.516	-62.918	-0.155	-0.063
-142.502	86.068	0.222	-0.241
-141.487	237.767	0.135	-0.221
-140.472	800.000	-0.071	-0.273
-139.458	20.082	-0.157	0.125
-138.443	-200.000	0.002	0.147
-137.429	-169.764	0.182	0.006
-136.414	800.000	0.126	0.364
-135.399	149.628	-0.122	-0.164
-134.385	560.709	-0.090	0.214
-133.370	-103.435	0.194	0.045
-132.356	-88.485	-0.178	-0.052
-131.341	-200.000	0.008	0.164
-130.326	-5.127	0.409	0.278
-129.312	-142.522	0.423	0.041
-128.297	381.346	0.026	-0.054
-127.283	800.000	0.079	0.302
-126.268	-120.847	0.260	0.043
-125.253	-200.000	0.021	0.223
-124.239	800.000	0.058	0.244
-123.224	800.000	-0.084	-0.283
-122.210	63.989	0.264	-0.262
-121.195	-141.847	0.264	-0.026
-120.180	660.773	0.100	0.254
-119.166	-84.701	0.255	-0.079
-118.151	-62.105	-0.359	0.148
-117.137	-200.000	0.008	-0.038
-116.122	242.071	-0.010	-0.016
-115.107	-99.191	0.096	-0.024
-114.093	-172.945	-0.175	0.005
-113.078	-200.000	-0.009	-0.156
-112.064	-159.720	0.182	-0.010
-111.049	-85.132	0.390	0.121
-110.034	-182.226	0.063	-0.001
-109.020	-200.000	0.012	-0.112
-108.005	170.704	-0.126	0.178
-106.991	-37.460	-0.204	-0.107
-105.976	29.528	0.167	0.140
-104.962	22.368	0.204	-0.165
-103.947	800.000	0.063	-0.251
-102.932	128.089	0.062	-0.078
-101.918	92.093	0.067	-0.075
-100.903	616.202	0.059	0.146
-99.889	-14.455	0.097	0.062
-98.874	-21.495	0.378	0.228
-97.859	-121.477	-0.201	0.033
-96.845	3.391	0.153	-0.110
-95.830	20.258	0.201	-0.160
-94.816	297.327	0.099	-0.180
-93.801	37.481	0.217	0.190
-92.786	-2.575	-0.112	0.078
-91.772	-45.938	0.238	0.116
-90.757	-105.292	-0.511	0.115
-89.743	136.745	0.082	-0.105
-88.728	22.435	0.042	0.034
-87.713	-138.204	0.270	-0.029
-86.699	-117.835	0.043	0.008
-85.684	-47.764	0.291	-0.139
-84.670	-79.719	-0.073	0.024
-83.655	2.864	-0.160	-0.114
-82.640	6.464	0.232	0.170
-81.626	-49.348	0.191	0.090
-80.611	526.800	0.138	0.320
-79.597	185.921	0.185	0.271
-78.582	196.079	-0.096	0.144
-77.567	313.484	0.132	-0.244
-76.553	800.000	0.101	-0.311
-75.538	-200.000	-0.026	0.142
-74.524	108.154	-0.194	0.228
-73.509	-200.000	-0.038	-0.382
-72.494	219.284	0.215	0.339
-71.480	41.408	0.230	0.205
-70.465	75.935	0.040	-0.042
-69.451	150.831	0.053	-0.072
-68.436	185.938	0.144	-0.210
-67.422	-200.000	-0.046	-0.198
-66.407	87.171	0.060	-0.066
-65.392	228.287	0.171	0.275
-64.378	800.000	-0.135	0.441
-63.363	-95.514	-0.084	0.022
-62.349	-200.000	-0.009	0.252
-61.334	30.165	-1.139	-0.958
-60.319	39.388	0.668	0.589
-59.305	264.836	-0.572	-0.981
-58.290	199.012	0.966	1.458
-57.276	676.283	0.515	1.319
-56.261	-200.000	112.872	661.055
-55.246	534.104	1520.069	3547.263
-54.232	174.180	2701.176	3843.865
-53.217	102.650	2318.342	2671.021
-52.203	35.301	2065.121	1783.264
-51.188	30.509	1981.373	1667.992
-50.173	29.090	1965.505	1641.920
-49.159	46.675	2024.596	1850.992
-48.144	46.695	2040.571	1865.700
-47.130	30.862	1999.088	1685.829
-46.115	28.733	1988.117	1657.322
-45.100	28.579	1985.176	1653.423
-44.086	28.529	1982.915	1651.024
-43.071	28.497	1980.336	1648.518
-42.057	28.472	1978.402	1646.622
-41.042	28.501	1976.460	1645.202
-40.027	28.501	1975.067	1643.974
-39.013	28.542	1972.830	1642.413
-37.998	28.584	1971.230	1641.396
-36.984	28.555	1969.382	1639.530
-35.969	28.532	1967.435	1637.635
-34.954	28.591	1965.549	1636.526
-33.940	28.551	1964.107	1634.909
-32.925	28.693	1962.704	1634.940
-31.911	28.688	1960.449	1632.950
-30.896	28.761	1958.362	1631.793
-29.881	28.676	1958.180	1630.823
-28.867	28.720	1956.514	1629.764
-27.852	28.688	1954.886	1628.055
-26.838	28.702	1952.731	1626.325
-25.823	28.720	1950.993	1624.968
-24.809	28.674	1949.563	1623.308
-23.794	28.733	1947.688	1622.207
-22.779	28.653	1945.799	1619.863
-21.765	28.686	1944.601	1619.093
-20.750	28.638	1942.442	1616.803
-19.736	28.649	1941.179	1615.791
-18.721	28.659	1939.528	1614.440
-17.706	28.593	1938.280	1612.756
-16.692	28.699	1935.567	1611.366
-15.677	28.637	1934.782	1610.097
-14.663	28.650	1933.009	1608.679
-13.648	28.682	1931.984	1608.038
-12.633	28.692	1930.830	1607.099
-11.619	28.666	1929.294	1605.534
-10.604	28.752	1928.248	1605.348
-9.590	28.679	1927.287	1603.846
-8.575	28.674	1925.502	1602.251
-7.560	28.754	1924.036	1601.674
-6.546	28.706	1922.685	1600.064
-5.531	28.673	1921.707	1598.898
-4.517	28.680	1920.117	1597.574
-3.502	28.732	1918.747	1596.826
-2.487	28.636	1917.799	1595.132
-1.473	28.685	1916.904	1594.757
-0.458	28.720	1912.165	1591.053
0.556	29.348	1892.259	1561.690
1.571	24.876	1873.561	1508.524
2.586	20.869	1895.392	1491.732
3.600	19.770	1930.725	1509.819
4.615	19.165	1923.744	1498.958
5.629	14.498	1822.936	1381.703
6.644	6.850	1708.993	1235.603
7.659	3.495	1674.404	1184.752
8.673	3.157	1671.565	1180.046
9.688	3.144	1670.392	1179.017
10.702	3.109	1669.505	1178.019
11.717	3.150	1665.431	1175.347
12.731	3.560	1664.775	1177.911
13.746	8.639	1676.937	1225.389
14.761	16.682	1693.742	1299.537
15.775	20.426	1700.702	1333.561
16.790	20.461	1699.514	1332.781
17.804	19.533	1696.372	1323.096
18.819	18.571	1693.101	1313.063
19.834	17.967	1690.438	1306.266
20.848	17.730	1690.040	1304.031
21.863	17.644	1688.300	1301.909
22.877	17.416	1686.814	1298.914
23.892	17.296	1685.255	1296.679
24.907	17.169	1684.855	1295.288
25.921	17.165	1683.136	1293.820
26.936	17.051	1682.702	1292.505
27.950	17.185	1681.330	1292.357
28.965	17.162	1680.964	1291.791
29.980	17.245	1680.282	1291.780
30.994	17.350	1678.867	1291.372
32.009	17.534	1678.058	1292.036
33.023	17.516	1677.560	1291.400
34.038	17.611	1675.958	1290.772
35.053	17.539	1674.727	1289.168
36.067	17.383	1673.734	1287.107
37.082	17.333	1672.546	1285.697
38.096	17.395	1671.731	1285.432
39.111	17.487	1670.359	1284.952
40.126	17.492	1669.972	1284.579
41.140	17.522	1668.700	1283.719
42.155	17.303	1667.358	1280.921
43.169	17.143	1665.606	1278.254
44.184	16.970	1664.982	1276.359
45.199	16.958	1663.572	1275.082
46.213	17.001	1662.184	1274.226
47.228	17.064	1660.742	1273.480
48.242	17.201	1660.043	1273.859
49.257	17.297	1659.346	1273.932
50.271	17.258	1658.016	1272.501
51.286	17.235	1656.596	1271.131
52.301	17.308	1655.243	1270.527
53.315	17.272	1654.015	1269.197
54.330	17.274	1652.260	1267.760
55.344	17.091	1650.505	1264.931
56.359	17.000	1649.312	1263.229
57.374	17.015	1648.328	1262.477
58.388	17.095	1647.018	1261.960
59.403	16.994	1645.403	1259.856
60.417	16.890	1644.182	1258.039
61.432	16.901	1643.377	1257.398
62.447	16.852	1642.231	1256.041
63.461	16.888	1640.590	1254.941
64.476	16.832	1639.542	1253.619
65.490	16.683	1638.406	1251.536
66.505	16.756	1637.406	1251.200
67.520	16.705	1636.451	1249.979
68.534	16.797	1635.440	1249.782
69.549	16.756	1634.312	1248.502
70.563	16.799	1632.568	1247.378
71.578	16.791	1631.175	1246.146
72.593	16.673	1630.791	1244.873
73.607	16.672	1629.408	1243.697
74.622	16.640	1628.284	1242.496
75.636	16.659	1626.890	1241.461
76.651	16.588	1627.175	1241.051
77.666	16.672	1626.255	1240.855
78.680	16.731	1624.909	1240.146
79.695	16.690	1624.216	1239.213
80.709	16.765	1623.175	1238.857
81.724	16.889	1622.558	1239.180
82.739	16.921	1621.958	1238.846
83.753	17.087	1620.115	1238.540
84.768	17.119	1620.230	1238.753
85.782	17.155	1619.896	1238.647
86.797	17.352	1618.720	1239.079
87.812	17.395	1618.098	1238.805
88.826	17.358	1616.481	1237.187
89.841	17.206	1615.374	1235.123
90.855	17.277	1614.661	1234.986
91.870	17.325	1613.385	1234.251
92.884	17.427	1612.554	1234.245
93.899	17.474	1610.973	1233.263
94.914	17.413	1609.945	1231.926
95.928	17.474	1609.068	1231.591
96.943	17.586	1607.523	1231.110
97.957	17.572	1605.934	1229.682
98.972	17.401	1605.139	1227.730
99.987	17.300	1603.892	1225.937
101.001	17.385	1601.837	1224.875
102.016	17.383	1600.195	1223.493
103.030	17.263	1599.195	1221.754
104.045	17.408	1597.859	1221.670
105.060	17.389	1596.427	1220.331
106.074	17.280	1595.061	1218.401
107.089	17.105	1593.770	1216.050
108.103	16.950	1591.633	1213.201
109.118	16.777	1590.154	1210.731
110.133	16.744	1588.533	1209.159
111.147	16.873	1586.969	1208.778
112.162	16.840	1586.116	1207.784
113.176	16.865	1584.553	1206.665
114.191	16.868	1583.034	1205.423
115.206	17.011	1581.957	1205.516
116.220	16.941	1580.960	1204.154
117.235	16.988	1578.771	1202.711
118.249	16.894	1578.066	1201.400
119.264	16.953	1576.697	1200.671
120.279	16.969	1574.737	1199.185
121.293	16.793	1573.458	1196.863
122.308	16.744	1572.485	1195.666
123.322	16.749	1570.714	1194.254
124.337	16.696	1568.873	1192.373
125.352	16.656	1567.961	1191.293
126.366	16.615	1566.848	1190.052
127.381	16.708	1565.601	1189.653
128.395	16.721	1564.587	1188.870
129.410	16.794	1562.785	1187.905
130.424	16.787	1561.579	1186.838
131.439	16.750	1560.868	1185.933
132.454	16.778	1560.076	1185.420
133.468	16.948	1558.118	1185.014
134.483	16.886	1556.887	1183.542
135.497	16.960	1555.544	1182.932
136.512	17.011	1554.143	1182.121
137.527	17.003	1552.921	1181.030
138.541	17.133	1551.618	1180.838
139.556	17.071	1550.236	1179.248
140.570	17.135	1548.879	1178.557
141.585	17.205	1547.874	1178.172
142.600	17.211	1546.920	1177.390
143.614	17.352	1545.616	1177.263
144.629	17.380	1544.893	1176.805
145.643	17.454	1543.904	1176.456
146.658	17.562	1542.050	1175.684
147.673	17.537	1540.038	1173.875
148.687	17.300	1538.747	1171.155
149.702	17.185	1537.187	1169.074
150.716	17.152	1535.895	1167.759
151.731	17.060	1534.548	1166.000
152.746	17.033	1533.327	1164.787
153.760	16.962	1532.136	1163.294
154.775	17.091	1530.865	1163.108
155.789	17.241	1529.421	1162.935
156.804	17.280	1528.476	1162.381
157.819	17.348	1526.759	1161.432
158.833	17.377	1526.307	1161.187
159.848	17.350	1524.834	1159.777
160.862	17.495	1523.944	1159.990
161.877	17.556	1522.957	1159.549
162.892	17.348	1521.580	1156.986
163.906	17.223	1520.132	1154.928
164.921	17.119	1518.253	1152.696
165.935	17.204	1517.109	1152.299
166.950	17.115	1516.655	1151.250
167.964	17.198	1515.662	1150.959
168.979	17.297	1514.362	1150.541
169.994	17.376	1512.906	1149.864
171.008	17.339	1511.669	1148.570
172.023	17.275	1511.021	1147.545
173.037	17.360	1509.957	1147.211
174.052	17.411	1509.009	1146.732
175.067	17.449	1507.865	1146.019
176.081	17.328	1506.815	1144.305
177.096	17.190	1505.393	1142.193
178.110	17.242	1503.466	1140.979
179.125	17.225	1502.593	1140.100
180.140	17.189	1501.619	1139.023
181.154	17.355	1500.240	1138.987
182.169	17.315	1499.622	1138.146
183.183	17.502	1498.413	1138.383
184.198	17.528	1497.564	1137.808
185.213	17.569	1496.579	1137.233
186.227	17.593	1495.286	1136.313
187.242	17.625	1494.067	1135.495
188.256	17.591	1493.597	1134.812
189.271	17.705	1492.332	1134.510
190.286	17.713	1491.399	1133.754
191.300	17.602	1490.722	1132.400
192.315	17.357	1489.031	1129.391
193.329	17.088	1487.757	1126.536
194.344	17.072	1486.158	1125.119
195.359	17.137	1484.957	1124.543
196.373	17.322	1484.252	1125.136
197.388	17.444	1483.188	1125.034
198.402	17.490	1482.738	1124.897
199.417	17.516	1481.681	1124.166
200.432	17.732	1481.062	1125.023
201.446	17.804	1480.386	1124.887
202.461	17.855	1479.489	1124.442
203.475	18.028	1478.236	1124.525
204.490	18.018	1477.076	1123.483
205.504	17.959	1475.696	1121.942
206.519	17.719	1474.528	1119.379
207.534	17.731	1473.290	1118.423
208.548	17.648	1472.294	1117.022
209.563	17.689	1471.076	1116.268
210.577	17.629	1470.488	1115.328
211.592	17.727	1469.365	1115.017
212.607	17.798	1468.584	1114.795
213.621	17.840	1468.031	1114.550
214.636	17.999	1467.015	1114.716
215.650	17.818	1466.008	1112.672
216.665	17.937	1465.031	1112.608
217.680	17.815	1464.591	1111.382
218.694	18.018	1463.933	1112.105
219.709	18.108	1463.439	1112.219
220.723	18.113	1462.065	1111.103
221.738	18.073	1461.373	1110.223
222.753	18.052	1460.241	1109.127
223.767	17.919	1459.156	1107.346
224.782	18.055	1457.925	1107.191
225.796	18.057	1457.130	1106.501
226.811	18.194	1456.349	1106.697
227.826	18.179	1455.878	1106.143
228.840	18.103	1454.797	1104.734
229.855	17.995	1453.911	1103.266
230.869	18.102	1452.377	1102.695
231.884	17.966	1451.480	1101.039
232.899	18.047	1450.315	1100.578
233.913	17.989	1449.353	1099.380
234.928	17.984	1447.542	1097.876
235.942	17.895	1446.562	1096.468
236.957	17.734	1445.883	1094.822
237.972	17.796	1444.850	1094.341
238.986	17.750	1443.620	1093.013
240.001	17.791	1442.705	1092.488
241.015	17.748	1441.725	1091.377
242.030	17.820	1440.219	1090.599
243.045	17.962	1439.413	1090.800
244.059	17.964	1438.804	1090.251
245.074	18.023	1437.769	1089.747
246.088	18.102	1437.113	1089.659
247.103	18.137	1436.365	1089.218
248.117	18.269	1435.641	1089.411
249.132	18.277	1435.379	1089.170
250.147	18.468	1434.308	1089.475
251.161	18.609	1434.147	1090.152
252.176	18.667	1433.442	1089.887
253.190	18.792	1432.758	1090.062
254.205	18.804	1431.774	1089.292
255.220	18.785	1431.355	1088.760
256.234	18.892	1430.346	1088.575
257.249	18.876	1429.347	1087.617
258.263	18.729	1428.829	1086.193
259.278	18.852	1427.655	1085.983
260.293	18.959	1426.379	1085.590
261.307	18.886	1425.734	1084.545
262.322	18.887	1425.985	1084.646
263.336	18.935	1424.757	1083.920
264.351	18.973	1423.951	1083.447
265.366	18.994	1423.036	1082.793
266.380	19.002	1421.938	1081.910
267.395	19.176	1420.255	1081.623
268.409	19.016	1420.002	1080.330
269.424	18.950	1418.941	1079.013
270.439	18.828	1417.683	1077.199
271.453	18.937	1416.306	1076.742
272.468	18.934	1415.807	1076.245
273.482	18.784	1414.624	1074.314
274.497	18.728	1414.409	1073.702
275.512	18.674	1413.276	1072.412
276.526	18.752	1412.097	1071.910
277.541	18.853	1410.859	1071.505
278.555	18.718	1410.472	1070.275
279.570	18.848	1409.266	1070.075
280.585	18.864	1408.697	1069.644
281.599	19.058	1408.179	1070.367
282.614	19.059	1407.472	1069.739
283.628	19.044	1405.882	1068.342
284.643	18.971	1404.415	1066.683
285.657	18.952	1403.197	1065.544
286.672	18.940	1402.420	1064.787
287.687	18.876	1401.871	1063.876
288.701	18.826	1401.002	1062.819
289.716	19.006	1400.070	1063.128
290.730	18.933	1399.435	1062.097
291.745	18.994	1398.154	1061.410
292.760	19.029	1397.507	1061.043
293.774	19.021	1396.395	1060.052
294.789	19.023	1395.651	1059.406
295.803	19.190	1394.698	1059.615
296.818	19.285	1393.770	1059.401
297.833	19.081	1392.818	1057.333
298.847	19.047	1391.810	1056.268
299.862	18.988	1390.743	1054.999
300.876	18.959	1390.124	1054.261
301.891	19.046	1389.047	1053.883
302.906	19.145	1387.786	1053.436
303.920	19.151	1387.750	1053.356
304.935	19.261	1386.568	1053.037
305.949	19.374	1386.197	1053.351
306.964	19.436	1385.466	1053.082
307.979	19.576	1384.612	1053.191
308.993	19.469	1383.444	1051.560
310.008	19.435	1382.018	1050.172
311.022	19.468	1381.232	1049.687
312.037	19.535	1380.169	1049.192
313.052	19.441	1379.618	1048.112
314.066	19.531	1378.299	1047.559
315.081	19.341	1377.263	1045.526
316.095	19.163	1376.121	1043.491
317.110	19.127	1375.080	1042.393
318.125	19.188	1373.888	1041.766
319.139	19.070	1373.360	1040.556
320.154	19.132	1372.083	1039.872
321.168	19.149	1370.986	1039.053
322.183	19.173	1369.980	1038.344
323.197	19.254	1368.939	1037.949
324.212	19.227	1368.181	1037.120
325.227	19.284	1367.736	1037.033
326.241	19.277	1366.675	1036.097
327.256	19.424	1365.812	1036.232
328.270	19.360	1365.093	1035.214
329.285	19.212	1364.476	1033.763
330.300	19.150	1363.495	1032.557
331.314	19.305	1362.238	1032.443
332.329	19.146	1361.990	1031.211
333.343	19.255	1360.550	1030.682
334.358	19.262	1359.796	1030.059
335.373	19.395	1359.032	1030.185
336.387	19.464	1358.266	1029.927
337.402	19.497	1357.665	1029.574
338.416	19.553	1356.990	1029.305
339.431	19.550	1356.448	1028.787
340.446	19.666	1355.480	1028.649
341.460	19.671	1354.767	1028.049
342.475	19.771	1353.664	1027.714
343.489	19.874	1352.938	1027.687
344.504	19.965	1352.202	1027.574
345.519	20.040	1351.476	1027.380
346.533	20.093	1350.103	1026.558
347.548	20.001	1349.561	1025.509
348.562	20.075	1348.615	1025.135
349.577	20.082	1347.994	1024.617
350.592	20.010	1347.057	1023.390
351.606	19.682	1346.182	1020.699
352.621	19.718	1344.567	1019.593
353.635	19.587	1343.185	1017.681
354.650	19.609	1342.876	1017.491
355.665	19.485	1342.042	1016.036
356.679	19.697	1340.502	1016.031
357.694	19.783	1339.430	1015.631
358.708	19.788	1338.824	1015.108
359.723	19.872	1337.752	1014.700
360.738	19.870	1336.890	1013.947
361.752	19.900	1335.512	1012.986
362.767	19.988	1334.652	1012.758
363.781	19.797	1333.907	1010.989
364.796	20.026	1332.635	1011.270
365.810	20.073	1332.170	1011.100
366.825	20.052	1331.674	1010.516
367.840	20.122	1331.128	1010.417
368.854	20.224	1330.481	1010.431
369.869	20.384	1329.975	1010.889
370.883	20.405	1329.362	1010.458
371.898	20.380	1328.357	1009.458
372.913	20.278	1327.250	1007.932
373.927	20.247	1326.284	1006.930
374.942	20.253	1325.707	1006.441
375.956	20.292	1325.135	1006.142
376.971	20.310	1324.424	1005.618
377.986	20.273	1323.390	1004.531
379.000	20.257	1322.660	1003.796
380.015	20.315	1322.049	1003.580
381.029	20.471	1321.409	1003.906
382.044	20.636	1320.433	1004.025
383.059	20.615	1319.742	1003.291
384.073	20.501	1319.459	1002.328
385.088	20.572	1318.664	1002.046
386.102	20.568	1317.803	1001.282
387.117	20.614	1316.909	1000.779
388.132	20.495	1316.079	999.371
389.146	20.328	1315.095	997.576
390.161	20.351	1314.128	996.887
391.175	20.355	1313.259	996.166
392.190	20.230	1312.856	995.054
393.205	20.260	1311.998	994.484
394.219	20.533	1310.835	995.079
395.234	20.632	1309.536	994.573
396.248	20.559	1308.219	993.068
397.263	20.407	1306.972	991.163
398.278	20.422	1305.579	990.108
399.292	20.374	1304.261	988.746
400.307	20.274	1303.289	987.353
401.321	20.151	1302.717	986.133
402.336	20.139	1301.543	985.091
403.350	20.199	1300.173	984.303
404.365	20.290	1299.152	983.962
405.380	20.217	1298.456	982.931
406.394	20.361	1297.591	983.004
407.409	20.452	1297.142	983.092
408.423	20.529	1296.653	983.074
409.438	20.635	1296.065	983.139
410.453	20.669	1295.371	982.719
411.467	20.696	1294.468	982.100
412.482	20.894	1294.173	982.905
413.496	20.820	1293.788	982.107
414.511	20.940	1292.733	981.895
415.526	20.894	1291.562	980.658
416.540	20.964	1291.483	980.909
417.555	21.113	1290.674	981.044
418.569	21.163	1290.203	980.878
419.584	20.958	1290.053	979.527
420.599	21.026	1288.306	978.498
421.613	144.912	1435.321	1796.951
422.628	139.807	1456.739	1797.042
