DTS Sentinel unit serial number:	SN413079Multiplexer serial number:	ORYXHardware model number:	OX4-SRSoftware version number:	ORYX F/W v4.00 Oryx Data Collector v3.7.2.0data status	okinstallation	princeton_trtdifferential loss correction	single-endedforward channel	channel 4reverse channel	N/Adate	2019/09/13time	12:09:35forward acquisition time	60.00reverse acquisition time	0.00gamma	496.2192k internal	0.2299k external	0.2299temperature offset calibration	1.0215default loss term (dB/km)	0.3790temperature slope calibration	1.0000multiplexer offset coefficient	1.0000multiplexer slope coefficient	1.0000fibre end	0.00T internal ref (°C)	33.87T ext. ref 1 (°C)	4.62T ext. ref 2 (°C)	31.18length (m)	temperature (°C)	Stokes	anti-Stokes-747.200	103.102	0.225	-0.269
-746.185	-28.067	0.075	-0.044
-745.171	241.688	-0.125	-0.213
-744.156	-97.570	0.203	-0.054
-743.142	-197.981	0.166	0.001
-742.127	-200.000	-0.023	0.256
-741.112	-32.195	-0.491	0.280
-740.098	317.626	0.084	-0.163
-739.083	-64.531	0.326	-0.135
-738.069	238.576	-0.151	-0.256
-737.054	-66.563	-0.220	0.089
-736.039	-122.367	-0.256	-0.043
-735.025	-143.379	0.064	-0.006
-734.010	3.924	-0.073	0.054
-732.996	225.332	-0.163	-0.269
-731.981	499.529	-0.158	-0.372
-730.966	-98.113	-0.215	-0.056
-729.952	264.709	-0.135	-0.240
-728.937	800.000	-0.030	-0.092
-727.923	-43.225	-0.124	-0.064
-726.908	-200.000	0.054	-0.473
-725.894	-53.361	0.080	-0.037
-724.879	97.501	-0.112	0.131
-723.864	30.322	-0.076	-0.066
-722.850	-77.366	-0.075	0.027
-721.835	800.000	0.080	-0.350
-720.821	-138.263	0.122	-0.014
-719.806	7.940	-0.215	-0.165
-718.791	515.242	0.051	0.121
-717.777	440.259	-0.006	0.014
-716.762	-16.075	-0.080	0.052
-715.748	-150.419	0.290	-0.023
-714.733	-200.000	-0.009	0.071
-713.718	-200.000	0.051	0.259
-712.704	-12.247	-0.014	-0.009
-711.689	-85.802	-0.248	-0.078
-710.675	-200.000	0.003	-0.510
-709.660	313.302	0.107	-0.205
-708.645	488.111	0.021	0.048
-707.631	-200.000	-0.006	0.068
-706.616	72.624	-0.146	0.155
-705.602	24.885	0.127	0.108
-704.587	-44.202	-0.296	0.151
-703.572	-76.481	-0.177	-0.063
-702.558	-199.206	-0.158	0.001
-701.543	-61.508	-0.224	-0.096
-700.529	134.910	-0.088	0.117
-699.514	22.981	-0.056	0.047
-698.499	4.961	0.222	-0.167
-697.485	-200.000	-0.037	-0.488
-696.470	-65.915	0.166	-0.068
-695.456	64.229	0.026	0.027
-694.441	94.664	0.225	0.261
-693.426	421.994	0.170	-0.371
-692.412	-81.103	-0.184	-0.062
-691.397	371.899	-0.075	-0.154
-690.383	74.867	0.042	0.045
-689.368	-200.000	-0.013	0.093
-688.354	-105.499	0.160	-0.037
-687.339	-104.876	0.295	-0.069
-686.324	-200.000	0.057	0.267
-685.310	36.999	0.142	0.128
-684.295	-62.541	0.201	-0.085
-683.281	800.000	-0.026	0.110
-682.266	-153.647	-0.291	0.020
-681.251	351.028	-0.104	-0.210
-680.237	57.426	0.392	-0.390
-679.222	-53.153	-0.182	-0.085
-678.208	53.093	0.069	-0.067
-677.193	-200.000	-0.078	-0.401
-676.178	85.641	-0.152	0.170
-675.164	800.000	-0.092	-0.313
-674.149	27.121	-0.098	-0.084
-673.135	-122.970	0.335	0.055
-672.120	-118.212	-0.107	0.019
-671.105	800.000	-0.093	0.384
-670.091	145.235	0.093	-0.126
-669.076	-186.144	0.096	0.001
-668.062	-55.493	-0.383	0.174
-667.047	-200.000	0.010	0.268
-666.032	-94.639	0.227	-0.063
-665.018	778.279	-0.016	-0.043
-664.003	-76.984	0.232	0.082
-662.989	-85.850	-0.132	0.042
-661.974	289.841	0.064	-0.117
-660.959	-200.000	-0.009	0.038
-659.945	-184.907	-0.223	-0.004
-658.930	-87.675	-0.420	-0.129
-657.916	192.786	-0.124	0.191
-656.901	311.757	-0.045	-0.086
-655.886	201.211	0.032	0.050
-654.872	-200.000	-0.006	-0.083
-653.857	-141.725	-0.190	-0.019
-652.843	640.574	0.124	-0.320
-651.828	16.474	-0.138	0.111
-650.814	-82.073	-0.219	-0.073
-649.799	140.426	-0.095	0.127
-648.784	-3.276	0.147	0.104
-647.770	-111.587	0.091	0.019
-646.755	-200.000	-0.011	-0.068
-645.741	26.597	-0.112	-0.095
-644.726	-156.055	0.239	0.015
-643.711	156.929	-0.047	-0.066
-642.697	-139.868	0.078	0.008
-641.682	-72.979	0.086	-0.032
-640.668	-200.000	0.004	-0.112
-639.653	225.036	0.043	-0.071
-638.638	0.329	0.141	-0.102
-637.624	-200.000	0.037	0.333
-636.609	-80.053	-0.274	-0.093
-635.595	750.748	0.142	-0.389
-634.580	84.983	-0.074	-0.082
-633.565	800.000	0.131	-0.397
-632.551	-200.000	0.003	0.121
-631.536	209.245	-0.051	0.082
-630.522	800.000	0.040	0.172
-629.507	42.511	-0.138	-0.127
-628.492	-200.000	-0.020	0.102
-627.478	175.274	-0.078	-0.115
-626.463	-200.000	-0.031	-0.176
-625.449	-200.000	-0.028	-0.222
-624.434	-200.000	-0.016	-0.401
-623.419	-133.803	-0.681	-0.086
-622.405	-46.834	-0.156	-0.077
-621.390	180.251	-0.234	-0.349
-620.376	-127.093	0.152	0.023
-619.361	-200.000	-0.008	0.337
-618.346	18.507	-0.033	-0.026
-617.332	-48.639	-0.142	0.069
-616.317	41.951	-0.048	-0.044
-615.303	-27.865	-0.180	0.106
-614.288	254.866	0.121	-0.210
-613.273	112.018	0.056	0.069
-612.259	-68.463	0.130	0.051
-611.244	-42.899	0.392	0.202
-610.230	127.157	-0.066	-0.085
-609.215	31.815	-0.202	0.176
-608.201	325.368	0.055	-0.107
-607.186	-80.216	0.136	-0.046
-606.171	405.151	0.136	-0.291
-605.157	-163.951	-0.192	-0.009
-604.142	420.497	0.023	-0.050
-603.128	-62.300	0.089	-0.038
-602.113	36.068	0.108	-0.097
-601.098	19.292	-0.169	0.138
-600.084	-200.000	-0.034	0.262
-599.069	800.000	0.044	-0.134
-598.055	216.553	-0.073	0.118
-597.040	-200.000	-0.010	0.094
-596.025	130.802	-0.139	-0.180
-595.011	78.254	-0.018	0.019
-593.996	-71.297	-0.315	-0.120
-592.982	609.869	0.019	-0.047
-591.967	-153.378	0.069	0.005
-590.952	-20.899	0.039	-0.024
-589.938	800.000	0.072	0.214
-588.923	-123.439	0.530	0.086
-587.909	-135.935	-0.512	-0.061
-586.894	-97.310	-0.052	-0.014
-585.879	800.000	-0.024	0.081
-584.865	-200.000	0.005	0.107
-583.850	114.608	0.117	0.144
-582.836	113.087	-0.204	0.250
-581.821	485.912	-0.144	0.333
-580.806	293.518	-0.120	0.222
-579.792	246.417	0.103	0.177
-578.777	643.404	-0.110	0.284
-577.763	-200.000	0.024	-0.193
-576.748	108.925	-0.152	-0.184
-575.733	192.341	-0.017	0.026
-574.719	166.451	0.098	0.140
-573.704	58.816	-0.045	0.045
-572.690	-94.940	0.451	0.124
-571.675	710.041	0.037	0.098
-570.661	-73.327	-0.334	-0.124
-569.646	-34.785	0.075	-0.042
-568.631	-15.422	0.185	-0.119
-567.617	487.130	-0.131	0.303
-566.602	-95.607	0.347	0.094
-565.588	176.859	-0.136	0.201
-564.573	-200.000	-0.033	0.153
-563.558	-58.146	0.295	0.130
-562.544	-104.544	-0.546	0.128
-561.529	-120.765	-0.203	0.035
-560.515	1.660	0.315	-0.229
-559.500	-10.884	0.209	0.140
-558.485	-10.017	0.343	0.231
-557.471	-64.705	-0.145	-0.059
-556.456	604.310	-0.059	0.148
-555.442	800.000	-0.068	0.232
-554.427	427.947	-0.057	-0.124
-553.412	149.758	-0.077	0.106
-552.398	-47.263	-0.268	-0.132
-551.383	-54.830	0.245	0.112
-550.369	-200.000	0.000	-0.121
-549.354	333.558	0.095	0.186
-548.339	-30.374	-0.108	-0.062
-547.325	-23.108	-0.072	0.044
-546.310	297.101	0.107	0.199
-545.296	-200.000	-0.014	-0.099
-544.281	54.267	0.232	-0.226
-543.266	-163.773	0.164	-0.008
-542.252	74.760	0.245	-0.261
-541.237	29.901	-0.251	0.217
-540.223	8.100	-0.209	0.159
-539.208	8.506	-0.207	0.158
-538.193	19.823	0.263	0.215
-537.179	-21.395	0.198	0.122
-536.164	536.930	0.061	-0.146
-535.150	-162.091	0.051	0.003
-534.135	800.000	0.078	-0.263
-533.121	-69.191	0.209	0.081
-532.106	-58.693	-0.118	-0.052
-531.091	125.153	-0.162	0.206
-530.077	-200.000	0.033	0.255
-529.062	-62.518	-0.252	0.106
-528.048	16.288	0.112	0.089
-527.033	800.000	0.061	0.237
-526.018	-51.053	0.209	0.099
-525.004	-4.220	0.181	0.127
-523.989	-76.881	0.280	0.099
-522.975	-200.000	-0.274	0.001
-521.960	-200.000	0.031	-0.180
-520.945	374.677	0.089	0.184
-519.931	-59.273	0.065	0.028
-518.916	-31.025	-0.247	-0.141
-517.902	-157.903	-0.381	0.023
-516.887	-61.577	-0.132	0.056
-515.872	391.446	0.084	-0.177
-514.858	493.777	-0.011	0.025
-513.843	-50.951	0.111	-0.053
-512.829	-166.077	-0.239	-0.010
-511.814	-0.461	-0.124	0.089
-510.799	25.851	-0.124	0.104
-509.785	800.000	-0.080	-0.224
-508.770	-200.000	0.005	0.068
-507.756	-200.000	-0.055	-0.357
-506.741	171.647	-0.046	0.067
-505.726	404.564	-0.051	0.108
-504.712	118.304	-0.187	0.234
-503.697	212.997	-0.095	0.151
-502.683	486.100	-0.111	-0.255
-501.668	-76.462	0.393	-0.140
-500.653	-63.221	0.064	0.027
-499.639	73.807	0.082	-0.087
-498.624	-14.548	-0.178	-0.116
-497.610	153.252	-0.082	-0.114
-496.595	-62.983	-0.156	-0.065
-495.581	-78.257	-0.128	0.045
-494.566	-200.000	-0.033	-0.185
-493.551	71.866	0.029	-0.031
-492.537	-58.959	0.335	0.146
-491.522	24.041	0.144	-0.120
-490.508	88.165	0.113	-0.127
-489.493	259.577	0.093	-0.163
-488.478	-89.782	0.056	-0.017
-487.464	-89.521	-0.139	-0.041
-486.449	147.760	0.080	-0.109
-485.435	-20.019	0.126	0.079
-484.420	800.000	0.118	-0.414
-483.405	-115.927	0.234	0.044
-482.391	800.000	0.085	-0.248
-481.376	60.034	-0.114	-0.113
-480.362	-200.000	0.021	0.222
-479.347	-45.954	-0.172	-0.086
-478.332	-161.105	0.229	-0.012
-477.318	-168.273	0.224	0.009
-476.303	-200.000	0.087	0.407
-475.289	-61.742	-0.443	-0.187
-474.274	-200.000	0.005	-0.131
-473.259	-103.669	0.298	0.071
-472.245	-200.000	-0.004	0.209
-471.230	111.535	0.119	-0.145
-470.216	800.000	-0.084	-0.319
-469.201	-200.000	-0.033	-0.187
-468.186	-18.790	0.222	0.139
-467.172	195.410	-0.192	0.295
-466.157	-200.000	0.002	0.390
-465.143	800.000	-0.006	0.019
-464.128	22.289	0.209	0.172
-463.113	351.653	0.018	-0.035
-462.099	-200.000	0.013	-0.221
-461.084	415.305	-0.116	-0.249
-460.070	-51.889	-0.145	-0.068
-459.055	-68.632	-0.154	0.060
-458.040	-57.346	-0.115	-0.051
-457.026	33.619	-0.131	0.115
-456.011	166.552	-0.103	0.147
-454.997	519.193	-0.101	0.239
-453.982	-119.288	0.162	0.029
-452.968	-11.742	0.298	-0.198
-451.953	227.504	0.084	-0.138
-450.938	46.384	-0.208	0.195
-449.924	-85.245	-0.213	-0.067
-448.909	-149.189	0.234	-0.019
-447.895	-52.358	-0.084	0.039
-446.880	92.485	0.092	0.105
-445.865	-0.201	-0.135	-0.097
-444.851	-173.274	0.216	0.007
-443.836	401.515	-0.049	-0.104
-442.822	690.879	-0.093	0.245
-441.807	13.509	0.040	-0.031
-440.792	248.033	-0.070	0.120
-439.778	-30.666	-0.202	-0.115
-438.763	-200.000	-0.274	0.001
-437.749	-76.717	-0.042	0.015
-436.734	-200.000	-0.050	0.362
-435.719	-200.000	-0.031	-0.267
-434.705	-103.159	-0.255	0.061
-433.690	-138.289	0.256	-0.029
-432.676	800.000	0.059	-0.209
-431.661	-198.592	-0.407	0.002
-430.646	-200.000	-0.177	0.001
-429.632	800.000	-0.085	-0.342
-428.617	389.597	-0.167	-0.348
-427.603	489.925	0.124	0.285
-426.588	-140.695	0.224	0.023
-425.573	-15.912	0.154	0.099
-424.559	590.056	0.017	-0.043
-423.544	-173.258	-0.383	-0.012
-422.530	-168.995	-0.119	-0.004
-421.515	12.288	-0.143	-0.111
-420.500	-5.825	-0.398	-0.274
-419.486	-5.752	0.270	-0.186
-418.471	18.686	0.099	0.080
-417.457	40.481	0.188	0.170
-416.442	-95.625	0.174	-0.047
-415.428	-200.000	-0.013	-0.130
-414.413	-39.732	0.140	0.074
-413.398	-200.000	-0.002	0.341
-412.384	442.708	0.074	-0.163
-411.369	-98.994	0.323	-0.083
-410.355	181.098	0.033	0.049
-409.340	-77.220	-0.056	-0.019
-408.325	-93.478	-0.207	-0.058
-407.311	-137.879	0.227	-0.026
-406.296	-200.000	-0.058	-0.356
-405.282	176.873	-0.139	0.203
-404.267	0.633	0.056	0.041
-403.252	-31.145	0.189	-0.107
-402.238	-27.941	-0.114	0.067
-401.223	800.000	0.031	0.123
-400.209	104.726	-0.310	-0.367
-399.194	234.682	-0.164	-0.273
-398.179	-135.092	-0.197	0.024
-397.165	-200.000	-0.006	-0.064
-396.150	9.519	0.270	0.206
-395.136	-94.556	0.093	-0.026
-394.121	83.386	0.095	0.104
-393.106	357.928	-0.185	-0.371
-392.092	800.000	-0.129	-0.492
-391.077	-58.717	-0.190	-0.083
-390.063	-46.805	0.160	0.079
-389.048	9.925	-0.160	0.122
-388.033	-107.122	-0.285	0.063
-387.019	-200.000	-0.012	-0.216
-386.004	527.322	-0.081	-0.193
-384.990	-200.000	-0.012	-0.267
-383.975	35.822	0.128	0.113
-382.960	-147.251	0.126	0.011
-381.946	525.425	-0.081	0.193
-380.931	28.241	-0.151	0.128
-379.917	384.502	-0.089	-0.185
-378.902	-66.207	0.162	-0.065
-377.888	-69.954	-0.118	-0.045
-376.873	800.000	0.057	-0.173
-375.858	-1.858	-0.143	-0.101
-374.844	-139.961	0.163	0.017
-373.829	800.000	0.029	0.106
-372.815	129.998	-0.237	-0.304
-371.800	171.984	0.236	-0.342
-370.785	44.258	0.092	-0.085
-369.771	-200.000	0.036	0.285
-368.756	296.355	-0.144	-0.265
-367.742	-200.000	-0.020	-0.168
-366.727	56.554	0.207	-0.202
-365.712	800.000	-0.075	0.225
-364.698	30.963	-0.296	0.255
-363.683	565.055	0.153	-0.372
-362.669	-127.780	0.084	-0.012
-361.654	18.524	0.027	0.022
-360.639	-23.904	-0.173	0.104
-359.625	800.000	-0.036	-0.129
-358.610	44.587	0.287	-0.265
-357.596	-7.723	-0.304	0.206
-356.581	-0.424	-0.146	-0.104
-355.566	291.286	0.056	0.102
-354.552	366.073	0.116	0.235
-353.537	-200.000	0.028	0.405
-352.523	84.327	0.109	-0.119
-351.508	-63.571	0.199	0.082
-350.493	154.131	-0.215	0.297
-349.479	800.000	0.019	-0.078
-348.464	154.006	-0.051	-0.071
-347.450	178.747	0.118	0.173
-346.435	-41.939	-0.194	0.100
-345.420	800.000	-0.021	0.067
-344.406	800.000	-0.129	-0.424
-343.391	-200.000	0.034	0.245
-342.377	-0.272	-0.186	-0.133
-341.362	-200.000	-0.002	-0.289
-340.348	318.900	-0.126	0.239
-339.333	-70.685	-0.203	0.077
-338.318	-200.000	0.004	0.026
-337.304	-8.617	-0.097	0.066
-336.289	-33.247	0.148	0.082
-335.275	-87.040	-0.363	0.111
-334.260	-141.739	0.255	-0.026
-333.245	565.549	-0.108	-0.264
-332.231	-74.668	-0.360	0.130
-331.216	-200.000	0.009	0.103
-330.202	800.000	0.053	-0.157
-329.187	800.000	-0.085	0.336
-328.172	-138.765	0.273	0.030
-327.158	-13.225	0.076	-0.050
-326.143	31.898	0.282	-0.244
-325.129	109.175	-0.118	0.142
-324.114	199.374	0.066	0.102
-323.099	-159.259	-0.018	0.001
-322.085	-200.000	-0.007	0.238
-321.070	-117.070	0.328	0.060
-320.056	-104.111	0.157	0.037
-319.041	-80.119	0.375	-0.126
-318.026	-66.683	0.088	-0.035
-317.012	-99.825	-0.123	0.031
-315.997	-200.000	0.086	0.526
-314.983	-200.000	-0.003	0.180
-313.968	-32.170	-0.030	0.017
-312.953	800.000	0.042	-0.118
-311.939	-200.000	-0.018	-0.257
-310.924	-5.710	-0.122	-0.084
-309.910	17.898	0.164	0.131
-308.895	-49.212	-0.380	0.182
-307.880	-107.176	0.126	0.028
-306.866	-18.058	0.164	-0.103
-305.851	190.386	-0.128	-0.192
-304.837	236.822	0.137	-0.228
-303.822	-51.855	0.201	-0.094
-302.807	-200.000	-0.015	0.125
-301.793	-200.000	0.042	-0.269
-300.778	221.548	0.200	0.322
-299.764	73.870	0.119	0.125
-298.749	800.000	-0.112	-0.392
-297.735	-32.472	-0.197	0.110
-296.720	-200.000	-0.053	0.266
-295.705	-200.000	0.011	0.081
-294.691	127.423	-0.078	-0.099
-293.676	-30.567	-0.064	-0.037
-292.662	-78.720	0.186	-0.064
-291.647	85.713	-0.062	-0.068
-290.632	-85.777	0.094	0.029
-289.618	-77.239	-0.170	-0.059
-288.603	-0.081	-0.293	0.209
-287.589	-72.614	0.230	0.085
-286.574	-130.320	0.223	0.030
-285.559	800.000	-0.111	-0.407
-284.545	-142.592	-0.095	-0.009
-283.530	-144.170	0.390	0.037
-282.516	338.484	0.028	-0.054
-281.501	-117.496	-0.122	-0.022
-280.486	-110.355	-0.126	0.026
-279.472	-95.079	0.316	-0.086
-278.457	-54.932	-0.205	-0.093
-277.443	-140.420	0.110	-0.011
-276.428	-3.772	0.193	-0.134
-275.413	-15.260	-0.192	-0.123
-274.399	800.000	-0.087	-0.274
-273.384	-92.876	-0.142	0.040
-272.370	513.699	0.117	0.273
-271.355	-19.396	-0.038	0.023
-270.340	-200.000	-0.026	-0.198
-269.326	22.815	-0.044	-0.036
-268.311	-67.885	-0.150	-0.059
-267.297	-200.000	0.061	0.410
-266.282	138.551	0.085	-0.111
-265.267	116.860	0.383	-0.471
-264.253	90.115	0.128	-0.143
-263.238	-46.744	0.241	0.118
-262.224	-29.930	-0.188	-0.107
-261.209	-9.717	-0.218	0.145
-260.195	-200.000	0.007	0.244
-259.180	-200.000	0.007	0.147
-258.165	-200.000	-0.019	-0.109
-257.151	-164.259	0.475	0.022
-256.136	-200.000	0.015	0.086
-255.122	-124.088	-0.343	0.054
-254.107	-98.528	-0.159	-0.041
-253.092	110.196	0.145	0.174
-252.078	-195.100	-0.062	-0.000
-251.063	72.207	0.117	0.122
-250.049	102.899	0.315	0.369
-249.034	800.000	-0.057	-0.175
-248.019	-65.708	0.086	0.034
-247.005	-15.504	0.198	-0.127
-245.990	800.000	-0.076	0.268
-244.976	14.419	0.098	0.076
-243.961	-48.340	-0.168	-0.081
-242.946	-200.000	0.011	-0.371
-241.932	-49.351	-0.123	-0.059
-240.917	-168.885	0.022	0.001
-239.903	-200.000	0.016	0.456
-238.888	-200.000	0.010	-0.063
-237.873	-42.613	-0.100	-0.051
-236.859	66.505	-0.095	0.097
-235.844	-7.417	-0.173	-0.117
-234.830	70.110	0.107	0.110
-233.815	-200.000	0.003	-0.200
-232.800	191.908	-0.023	-0.035
-231.786	-70.133	-0.060	0.023
-230.771	-28.695	0.065	0.037
-229.757	532.178	0.056	0.133
-228.742	66.977	0.153	-0.156
-227.727	-45.396	0.136	0.067
-226.713	-200.000	-0.032	0.222
-225.698	120.657	0.148	0.183
-224.684	29.241	-0.174	0.148
-223.669	-200.000	-0.013	-0.134
-222.655	83.815	-0.071	0.078
-221.640	689.156	0.034	0.088
-220.625	18.593	-0.115	0.092
-219.611	221.649	0.038	0.061
-218.596	800.000	0.049	-0.184
-217.582	-200.000	0.008	0.066
-216.567	79.512	-0.077	0.083
-215.552	-154.283	0.253	-0.017
-214.538	90.694	0.060	-0.067
-213.523	38.374	0.227	-0.202
-212.509	36.256	-0.116	-0.102
-211.494	800.000	-0.037	-0.112
-210.479	-37.198	-0.166	0.089
-209.465	294.387	-0.034	-0.061
-208.450	-9.824	0.067	-0.044
-207.436	177.219	0.061	-0.088
-206.421	168.485	-0.152	0.216
-205.406	-71.876	0.049	-0.018
-204.392	391.080	0.048	-0.100
-203.377	-160.501	0.291	0.016
-202.363	99.202	-0.072	-0.083
-201.348	-144.700	0.226	-0.021
-200.333	132.481	0.126	-0.163
-199.319	-196.367	-0.048	-0.000
-198.304	436.201	-0.087	0.189
-197.290	153.640	-0.199	-0.273
-196.275	-155.885	0.285	-0.018
-195.260	-158.726	0.208	-0.012
-194.246	155.224	-0.097	0.133
-193.231	47.081	0.185	0.171
-192.217	-200.000	-0.007	-0.397
-191.202	18.496	0.224	0.179
-190.187	-101.738	-0.163	0.039
-189.173	-126.557	-0.236	-0.035
-188.158	437.678	-0.076	0.166
-187.144	-200.000	-0.031	-0.231
-186.129	-48.629	0.236	-0.113
-185.114	272.771	-0.181	0.320
-184.100	301.430	-0.112	0.207
-183.085	-200.000	-0.001	-0.041
-182.071	800.000	-0.073	-0.249
-181.056	-87.844	-0.423	0.127
-180.042	77.002	-0.145	0.154
-179.027	83.809	0.214	0.233
-178.012	148.260	0.077	0.103
-176.998	-200.000	0.051	-0.268
-175.983	-98.826	0.277	0.070
-174.969	-122.830	0.156	0.025
-173.954	-77.648	-0.176	0.061
-172.939	-36.663	-0.104	0.056
-171.925	475.182	-0.047	0.106
-170.910	123.259	-0.158	-0.198
-169.896	121.360	-0.084	0.104
-168.881	-144.042	0.247	0.023
-167.866	20.063	-0.275	-0.221
-166.852	79.772	-0.117	-0.126
-165.837	-72.388	0.336	0.124
-164.823	-156.505	0.404	-0.025
-163.808	269.547	0.163	-0.286
-162.793	678.493	0.076	-0.197
-161.779	363.469	-0.132	-0.266
-160.764	-22.855	0.275	0.165
-159.750	-44.566	0.068	-0.034
-158.735	158.785	0.267	0.370
-157.720	800.000	-0.153	0.425
-156.706	-80.680	-0.036	-0.012
-155.691	197.804	-0.041	0.062
-154.677	18.985	0.063	0.050
-153.662	-171.960	-0.195	0.006
-152.647	14.593	-0.234	0.182
-151.633	-147.099	0.091	0.008
-150.618	-200.000	0.012	-0.135
-149.604	148.601	0.050	-0.067
-148.589	499.343	-0.044	0.102
-147.574	-82.668	-0.233	0.075
-146.560	228.306	0.156	-0.253
-145.545	-85.821	0.215	0.066
-144.531	-45.076	-0.353	0.175
-143.516	-36.380	0.319	0.171
-142.502	-68.029	0.170	-0.066
-141.487	-162.585	0.415	0.020
-140.472	-200.000	-0.002	-0.019
-139.458	-11.241	-0.241	-0.158
-138.443	321.126	-0.034	-0.065
-137.429	-46.306	0.262	0.128
-136.414	-138.773	0.134	-0.015
-135.399	-200.000	0.071	0.507
-134.385	-1.763	0.268	-0.188
-133.370	-102.619	0.182	0.043
-132.356	-111.884	-0.400	-0.081
-131.341	6.273	0.272	0.201
-130.326	-33.275	-0.401	0.221
-129.312	-200.000	0.023	0.300
-128.297	-141.563	0.201	-0.020
-127.283	114.902	0.084	-0.102
-126.268	92.928	-0.137	-0.154
-125.253	783.749	-0.103	-0.280
-124.239	352.951	0.111	0.220
-123.224	114.279	-0.166	0.201
-122.210	800.000	0.051	0.185
-121.195	-62.189	0.038	0.016
-120.180	-122.226	0.078	-0.013
-119.166	219.478	0.120	0.191
-118.151	270.167	-0.039	-0.068
-117.137	3.946	0.201	-0.146
-116.122	-190.050	0.064	0.001
-115.107	-36.546	0.391	0.210
-114.093	-111.535	0.221	0.045
-113.078	-37.429	-0.239	-0.127
-112.064	-108.296	-0.129	-0.028
-111.049	-107.236	-0.155	0.034
-110.034	-35.418	0.120	-0.065
-109.020	-27.817	0.092	-0.053
-108.005	-128.385	-0.309	0.044
-106.991	129.198	-0.140	-0.177
-105.976	800.000	0.049	0.153
-104.962	-46.058	0.292	0.143
-103.947	71.876	0.126	0.130
-102.932	-200.000	0.033	0.201
-101.918	-69.214	0.181	-0.069
-100.903	-22.249	-0.288	0.174
-99.889	-64.746	-0.132	0.053
-98.874	125.099	-0.129	-0.161
-97.859	-200.000	0.012	0.165
-96.845	-195.843	-0.179	0.001
-95.830	481.439	0.032	-0.072
-94.816	-200.000	-0.019	-0.239
-93.801	-4.920	-0.254	0.174
-92.786	-125.945	-0.118	0.018
-91.772	-102.988	0.373	-0.088
-90.757	800.000	0.077	-0.273
-89.743	23.897	0.339	-0.278
-88.728	27.332	0.222	0.186
-87.713	-98.900	-0.077	0.020
-86.699	-101.417	-0.074	0.018
-85.684	-5.045	0.303	-0.207
-84.670	-18.877	0.206	0.128
-83.655	-4.381	0.154	-0.106
-82.640	-170.100	-0.321	-0.011
-81.626	-43.004	0.123	-0.062
-80.611	796.918	-0.037	-0.101
-79.597	135.370	0.224	0.289
-78.582	800.000	-0.089	0.294
-77.567	-74.736	0.375	0.134
-76.553	-39.066	-0.460	-0.241
-75.538	94.673	-0.140	0.158
-74.524	-200.000	0.003	-0.022
-73.509	478.554	0.040	0.090
-72.494	-95.600	-0.329	-0.088
-71.480	61.700	0.297	0.294
-70.465	-149.132	0.312	0.025
-69.451	361.663	-0.096	0.190
-68.436	-200.000	0.012	0.260
-67.422	-69.663	-0.137	-0.052
-66.407	-194.702	-0.202	0.002
-65.392	64.197	0.079	-0.079
-64.378	404.012	0.142	-0.297
-63.363	68.723	0.212	-0.216
-62.349	123.436	-0.029	-0.037
-61.334	486.890	-0.463	-1.050
-60.319	169.334	0.169	0.239
-59.305	800.000	-0.239	-0.925
-58.290	204.539	0.555	0.855
-57.276	350.159	0.649	1.273
-56.261	-200.000	98.056	573.340
-55.246	602.415	1417.211	3499.038
-54.232	178.661	2644.650	3837.221
-53.217	109.477	2356.519	2803.224
-52.203	40.437	2101.516	1878.892
-51.188	35.515	2014.641	1756.265
-50.173	33.974	1996.344	1726.268
-49.159	48.284	2049.061	1903.918
-48.144	50.940	2067.851	1945.763
-47.130	36.363	2025.038	1772.843
-46.115	33.898	2014.012	1740.575
-45.100	33.800	2010.998	1737.003
-44.086	33.749	2008.565	1734.367
-43.071	33.710	2006.089	1731.802
-42.057	33.646	2003.802	1729.172
-41.042	33.751	2001.512	1728.084
-40.027	33.725	1999.802	1726.309
-39.013	33.737	1997.651	1724.494
-37.998	33.750	1995.703	1722.854
-36.984	33.720	1994.144	1721.174
-35.969	33.803	1991.996	1720.001
-34.954	33.830	1989.692	1718.188
-33.940	33.802	1988.641	1716.957
-32.925	33.828	1987.003	1715.707
-31.911	33.892	1985.300	1714.751
-30.896	33.923	1982.999	1712.973
-29.881	33.858	1982.260	1711.685
-28.867	33.896	1980.502	1710.438
-27.852	33.887	1978.465	1708.527
-26.838	33.986	1976.560	1707.703
-25.823	33.924	1974.445	1705.255
-24.809	33.859	1973.038	1703.390
-23.794	33.890	1971.578	1702.340
-22.779	33.913	1969.174	1700.401
-21.765	33.916	1967.921	1699.282
-20.750	33.885	1966.220	1697.469
-19.736	33.864	1965.249	1696.372
-18.721	33.945	1962.935	1695.034
-17.706	33.917	1961.414	1693.397
-16.692	33.933	1959.662	1691.965
-15.677	33.892	1958.368	1690.410
-14.663	34.003	1956.912	1690.075
-13.648	34.027	1955.081	1688.640
-12.633	33.998	1954.046	1687.423
-11.619	33.942	1952.810	1685.791
-10.604	33.869	1952.037	1684.414
-9.590	33.882	1950.483	1683.114
-8.575	33.848	1948.914	1681.393
-7.560	33.860	1947.393	1680.125
-6.546	33.870	1946.555	1679.423
-5.531	33.860	1945.302	1678.187
-4.517	33.921	1943.786	1677.354
-3.502	33.980	1942.342	1676.561
-2.487	33.843	1941.833	1674.844
-1.473	33.913	1940.611	1674.342
-0.458	33.964	1936.171	1670.888
0.556	36.918	1915.733	1646.050
1.571	32.589	1896.819	1593.143
2.586	28.458	1918.806	1576.037
3.600	27.142	1955.163	1594.220
4.615	25.613	1948.391	1575.187
5.629	19.642	1844.757	1441.604
6.644	9.911	1723.636	1270.604
7.659	4.897	1685.067	1203.414
8.673	4.593	1681.564	1198.463
9.688	4.679	1680.213	1198.058
10.702	4.597	1679.185	1196.584
11.717	4.611	1675.969	1194.291
12.731	5.339	1675.798	1199.656
13.746	11.931	1692.080	1262.152
14.761	20.402	1709.871	1341.002
15.775	23.176	1713.449	1365.125
16.790	22.777	1710.783	1359.806
17.804	21.718	1708.529	1349.739
18.819	20.750	1705.224	1339.567
19.834	20.176	1702.932	1333.232
20.848	19.948	1701.635	1330.343
21.863	19.861	1700.052	1328.322
22.877	19.636	1699.174	1325.796
23.892	19.504	1697.829	1323.616
24.907	19.429	1696.750	1322.081
25.921	19.419	1695.165	1320.651
26.936	19.450	1694.194	1320.013
27.950	19.378	1693.750	1319.006
28.965	19.388	1692.842	1318.256
29.980	19.573	1691.601	1318.589
30.994	19.610	1690.747	1318.085
32.009	19.787	1689.536	1318.375
33.023	19.846	1689.550	1318.716
34.038	19.966	1688.328	1318.558
35.053	19.807	1686.886	1316.112
36.067	19.721	1685.608	1314.338
37.082	19.604	1684.640	1312.581
38.096	19.585	1683.768	1311.644
39.111	19.663	1683.012	1311.525
40.126	19.794	1682.199	1311.769
41.140	19.702	1681.352	1310.296
42.155	19.536	1679.530	1307.504
43.169	19.224	1677.781	1303.669
44.184	19.118	1676.724	1301.929
45.199	19.195	1675.010	1301.062
46.213	19.096	1674.224	1299.591
47.228	19.145	1673.229	1299.076
48.242	19.443	1672.084	1300.319
49.257	19.642	1671.028	1300.878
50.271	19.522	1670.029	1299.080
51.286	19.542	1668.694	1298.079
52.301	19.588	1667.296	1297.224
53.315	19.508	1665.837	1295.373
54.330	19.515	1664.310	1294.121
55.344	19.265	1663.155	1291.239
56.359	19.210	1661.278	1289.257
57.374	19.224	1660.135	1288.356
58.388	19.284	1658.798	1287.651
59.403	19.192	1657.664	1285.972
60.417	19.072	1656.788	1284.284
61.432	19.101	1655.389	1283.300
62.447	19.036	1654.315	1281.870
63.461	18.951	1652.963	1280.078
64.476	18.940	1652.031	1279.163
65.490	18.860	1651.019	1277.671
66.505	18.903	1649.570	1276.759
67.520	18.877	1648.835	1275.880
68.534	18.933	1647.747	1275.343
69.549	18.959	1646.477	1274.437
70.563	19.001	1645.833	1274.141
71.578	18.917	1643.980	1271.973
72.593	18.922	1642.973	1271.114
73.607	18.799	1641.874	1269.244
74.622	18.684	1641.071	1267.657
75.636	18.740	1639.968	1267.112
76.651	18.656	1639.110	1265.714
77.666	18.765	1638.495	1265.929
78.680	18.802	1637.687	1265.472
79.695	18.841	1636.744	1264.918
80.709	18.953	1635.767	1264.875
81.724	19.017	1635.606	1265.107
82.739	19.209	1634.502	1265.549
83.753	19.162	1634.076	1264.761
84.768	19.324	1633.215	1265.173
85.782	19.521	1632.355	1265.844
86.797	19.585	1632.187	1266.068
87.812	19.782	1631.018	1266.496
88.826	19.740	1629.442	1264.851
89.841	19.546	1628.577	1262.649
90.855	19.505	1627.517	1261.412
91.870	19.581	1626.587	1261.138
92.884	19.675	1625.586	1260.936
93.899	19.693	1624.514	1260.121
94.914	19.743	1623.055	1259.243
95.928	19.772	1622.260	1258.723
96.943	19.854	1620.518	1257.861
97.957	19.779	1619.169	1256.159
98.972	19.709	1617.606	1254.323
99.987	19.623	1616.351	1252.614
101.001	19.635	1614.542	1251.194
102.016	19.629	1613.433	1250.176
103.030	19.558	1612.328	1248.698
104.045	19.559	1610.901	1247.487
105.060	19.733	1608.899	1247.084
106.074	19.606	1608.129	1245.463
107.089	19.438	1605.531	1242.133
108.103	19.162	1603.792	1238.691
109.118	18.981	1602.150	1236.012
110.133	18.943	1601.015	1234.752
111.147	18.981	1599.259	1233.561
112.162	18.928	1598.704	1232.642
113.176	18.996	1597.227	1231.885
114.191	19.100	1595.891	1231.486
115.206	19.114	1594.720	1230.580
116.220	19.164	1593.359	1229.777
117.235	19.070	1592.175	1228.078
118.249	19.034	1590.977	1226.792
119.264	19.067	1589.304	1225.628
120.279	18.954	1588.040	1223.740
121.293	18.980	1586.366	1222.526
122.308	18.982	1584.555	1221.035
123.322	18.910	1583.208	1219.380
124.337	18.798	1581.500	1217.165
125.352	18.743	1580.245	1215.700
126.366	18.736	1578.979	1214.571
127.381	18.698	1578.241	1213.624
128.395	18.745	1576.718	1212.683
129.410	18.756	1575.116	1211.419
130.424	18.768	1574.260	1210.739
131.439	18.908	1572.733	1210.439
132.454	18.939	1571.912	1209.923
133.468	19.042	1570.362	1209.346
134.483	19.107	1568.944	1208.599
135.497	19.137	1567.569	1207.645
136.512	19.135	1566.268	1206.522
137.527	19.187	1564.816	1205.663
138.541	19.120	1564.249	1204.651
139.556	19.251	1562.628	1204.213
140.570	19.302	1561.505	1203.592
141.585	19.396	1560.222	1203.156
142.600	19.495	1558.992	1202.791
143.614	19.573	1558.190	1202.606
144.629	19.678	1557.130	1202.416
145.643	19.685	1555.954	1201.448
146.658	19.789	1554.504	1200.947
147.673	19.605	1552.943	1198.355
148.687	19.485	1551.291	1196.141
149.702	19.396	1549.998	1194.428
150.716	19.283	1547.879	1191.901
151.731	19.243	1546.369	1190.361
152.746	19.322	1544.807	1189.595
153.760	19.174	1544.234	1188.027
154.775	19.281	1542.629	1187.427
155.789	19.354	1541.779	1187.169
156.804	19.545	1540.393	1187.309
157.819	19.515	1539.537	1186.343
158.833	19.558	1538.471	1185.707
159.848	19.646	1537.272	1185.281
160.862	19.809	1536.470	1185.676
161.877	19.796	1535.434	1184.688
162.892	19.583	1534.056	1182.060
163.906	19.395	1532.337	1179.342
164.921	19.200	1530.959	1176.850
165.935	19.203	1529.767	1175.849
166.950	19.233	1528.622	1175.069
167.964	19.346	1527.704	1175.029
168.979	19.457	1526.585	1174.820
169.994	19.409	1525.757	1173.750
171.008	19.384	1524.486	1172.504
172.023	19.370	1523.724	1171.715
173.037	19.506	1521.974	1171.190
174.052	19.559	1521.381	1170.988
175.067	19.759	1520.341	1171.441
176.081	19.646	1519.370	1169.824
177.096	19.394	1517.431	1166.523
178.110	19.221	1516.389	1164.452
179.125	19.303	1515.454	1164.185
180.140	19.435	1514.227	1164.025
181.154	19.413	1513.481	1163.201
182.169	19.545	1512.453	1163.198
183.183	19.668	1511.292	1163.030
184.198	19.657	1510.415	1162.176
185.213	19.807	1509.848	1162.651
186.227	19.822	1507.973	1161.204
187.242	19.812	1507.655	1160.786
188.256	19.928	1506.451	1160.533
189.271	19.919	1505.325	1159.508
190.286	20.014	1504.514	1159.413
191.300	19.922	1503.408	1157.845
192.315	19.591	1501.809	1154.296
193.329	19.224	1499.867	1150.256
194.344	19.217	1499.072	1149.498
195.359	19.415	1498.101	1149.971
196.373	19.458	1496.996	1149.304
197.388	19.572	1496.547	1149.619
198.402	19.640	1495.336	1149.037
199.417	19.756	1494.708	1149.222
200.432	19.907	1494.053	1149.623
201.446	20.025	1493.114	1149.582
202.461	20.208	1491.612	1149.536
203.475	20.239	1490.884	1149.076
204.490	20.313	1490.584	1149.234
205.504	20.215	1488.812	1147.120
206.519	19.940	1487.473	1144.168
207.534	19.852	1486.045	1142.388
208.548	19.829	1484.871	1141.233
209.563	19.758	1484.027	1140.019
210.577	19.769	1483.340	1139.458
211.592	19.865	1481.905	1138.887
212.607	19.825	1481.384	1138.121
213.621	20.003	1481.070	1138.952
214.636	20.130	1479.935	1138.814
215.650	20.084	1479.116	1137.778
216.665	20.059	1477.817	1136.517
217.680	20.169	1477.126	1136.604
218.694	20.303	1476.522	1136.918
219.709	20.440	1475.800	1137.159
220.723	20.392	1474.662	1135.869
221.738	20.255	1473.538	1134.009
222.753	20.181	1472.744	1132.812
223.767	20.292	1471.615	1132.566
224.782	20.258	1470.272	1131.214
225.796	20.266	1470.017	1130.970
226.811	20.352	1469.173	1130.779
227.826	20.369	1469.077	1130.713
228.840	20.309	1467.799	1129.242
229.855	20.195	1466.372	1127.305
230.869	20.258	1464.769	1126.380
231.884	20.259	1464.082	1125.759
232.899	20.212	1462.679	1124.275
233.913	20.031	1462.156	1122.597
234.928	19.997	1460.729	1121.185
235.942	19.965	1459.224	1119.724
236.957	19.850	1458.470	1118.303
237.972	19.875	1456.962	1117.211
238.986	19.876	1455.923	1116.319
240.001	19.837	1455.013	1115.271
241.015	19.929	1454.199	1115.144
242.030	19.955	1452.902	1114.216
243.045	20.080	1451.856	1114.120
244.059	20.129	1451.265	1113.882
245.074	20.191	1450.304	1113.444
246.088	20.241	1449.440	1113.002
247.103	20.262	1448.999	1112.700
248.117	20.477	1448.018	1113.229
249.132	20.545	1447.288	1113.001
250.147	20.696	1447.044	1113.680
251.161	20.773	1447.102	1114.122
252.176	20.911	1446.633	1114.542
253.190	21.027	1445.696	1114.466
254.205	21.075	1444.525	1113.769
255.220	21.182	1443.878	1113.857
256.234	21.040	1443.655	1112.681
257.249	21.199	1442.504	1112.707
258.263	21.187	1441.232	1111.551
259.278	21.220	1440.325	1110.960
260.293	21.169	1439.420	1109.840
261.307	21.102	1438.961	1108.965
262.322	20.995	1438.570	1107.888
263.336	21.227	1437.409	1108.362
264.351	21.202	1436.547	1107.443
265.366	21.323	1435.271	1107.132
266.380	21.238	1434.436	1105.851
267.395	21.319	1433.786	1105.761
268.409	21.320	1432.685	1104.825
269.424	21.158	1431.673	1102.917
270.439	21.125	1430.419	1101.650
271.453	21.073	1429.589	1100.583
272.468	21.006	1428.748	1099.414
273.482	21.039	1427.104	1098.264
274.497	20.882	1426.718	1096.882
275.512	20.942	1425.960	1096.574
276.526	20.969	1425.209	1096.075
277.541	20.950	1423.905	1094.853
278.555	21.020	1423.098	1094.573
279.570	21.112	1422.128	1094.310
280.585	21.141	1421.412	1093.842
281.599	21.259	1420.794	1094.007
282.614	21.438	1419.826	1094.285
283.628	21.220	1418.915	1092.125
284.643	21.114	1417.832	1090.531
285.657	21.047	1416.476	1088.974
286.672	21.067	1415.695	1088.404
287.687	21.139	1414.607	1087.922
288.701	21.179	1413.287	1087.057
289.716	21.120	1412.591	1086.059
290.730	21.092	1412.200	1085.487
291.745	21.158	1410.813	1084.737
292.760	21.121	1410.390	1084.083
293.774	21.210	1409.330	1083.723
294.789	21.292	1408.015	1083.124
295.803	21.359	1407.588	1083.117
296.818	21.379	1407.114	1082.781
297.833	21.247	1405.709	1080.785
298.847	21.160	1404.534	1079.248
299.862	21.224	1403.261	1078.571
300.876	21.171	1402.574	1077.621
301.891	21.127	1401.723	1076.601
302.906	21.285	1400.566	1076.590
303.920	21.308	1400.435	1076.538
304.935	21.406	1399.860	1076.604
305.949	21.565	1398.976	1076.804
306.964	21.751	1398.286	1077.325
307.979	21.801	1397.507	1076.933
308.993	21.676	1396.158	1075.035
310.008	21.516	1395.420	1073.387
311.022	21.494	1394.262	1072.269
312.037	21.620	1393.562	1072.405
313.052	21.592	1392.812	1071.565
314.066	21.624	1391.421	1070.593
315.081	21.456	1389.978	1068.364
316.095	21.314	1388.777	1066.477
317.110	21.268	1387.511	1065.133
318.125	21.218	1386.538	1063.982
319.139	21.299	1385.698	1063.741
320.154	21.259	1384.994	1062.862
321.168	21.207	1384.087	1061.755
322.183	21.250	1383.157	1061.209
323.197	21.263	1381.817	1060.169
324.212	21.383	1380.971	1060.148
325.227	21.504	1380.464	1060.401
326.241	21.371	1379.694	1058.910
327.256	21.450	1378.376	1058.285
328.270	21.493	1377.674	1057.911
329.285	21.319	1377.196	1056.400
330.300	21.372	1375.531	1055.346
331.314	21.290	1375.091	1054.422
332.329	21.276	1374.699	1053.942
333.343	21.414	1373.111	1053.465
334.358	21.362	1372.260	1052.402
335.373	21.447	1371.949	1052.582
336.387	21.627	1370.848	1052.726
337.402	21.682	1370.147	1052.429
338.416	21.706	1369.535	1052.008
339.431	21.711	1369.223	1051.708
340.446	21.816	1368.484	1051.676
341.460	21.997	1367.217	1051.690
342.475	21.991	1366.679	1051.151
343.489	22.141	1366.115	1051.522
344.504	22.114	1364.924	1050.349
345.519	22.136	1364.006	1049.679
346.533	22.203	1363.494	1049.597
347.548	22.315	1362.159	1049.142
348.562	22.310	1361.860	1048.791
349.577	22.385	1360.724	1048.271
350.592	22.269	1359.836	1046.801
351.606	21.982	1358.564	1044.023
352.621	21.895	1357.010	1042.217
353.635	21.754	1356.197	1040.667
354.650	21.778	1355.448	1040.139
355.665	21.717	1354.416	1038.894
356.679	21.862	1353.115	1038.667
357.694	21.879	1352.143	1037.927
358.708	21.872	1351.331	1037.168
359.723	22.006	1350.288	1037.069
360.738	22.051	1349.183	1036.393
361.752	22.005	1348.476	1035.491
362.767	22.073	1346.786	1034.498
363.781	22.056	1346.219	1033.873
364.796	22.073	1345.415	1033.262
365.810	22.039	1345.017	1032.665
366.825	22.266	1344.689	1033.657
367.840	22.408	1343.912	1033.806
368.854	22.563	1343.120	1034.010
369.869	22.661	1342.531	1034.044
370.883	22.750	1341.762	1033.878
371.898	22.614	1341.609	1032.876
372.913	22.443	1340.417	1030.862
373.927	22.395	1339.770	1029.995
374.942	22.423	1338.459	1029.060
375.956	22.504	1337.703	1028.857
376.971	22.555	1336.913	1028.455
377.986	22.504	1336.216	1027.536
379.000	22.481	1335.496	1026.757
380.015	22.492	1334.844	1026.229
381.029	22.751	1333.824	1026.860
382.044	22.781	1333.514	1026.706
383.059	22.792	1333.028	1026.305
384.073	22.818	1331.893	1025.490
385.088	22.790	1331.246	1024.737
386.102	22.816	1330.438	1024.179
387.117	22.805	1329.743	1023.490
388.132	22.747	1328.783	1022.320
389.146	22.588	1327.586	1020.392
390.161	22.487	1326.385	1018.792
391.175	22.460	1326.197	1018.400
392.190	22.442	1325.481	1017.661
393.205	22.447	1324.846	1017.107
394.219	22.684	1323.153	1017.084
395.234	22.684	1322.284	1016.327
396.248	22.639	1321.106	1015.073
397.263	22.462	1319.596	1012.807
398.278	22.550	1318.301	1012.226
399.292	22.473	1317.103	1010.779
400.307	22.326	1315.840	1008.873
401.321	22.299	1315.127	1008.085
402.336	22.245	1313.691	1006.584
403.350	22.235	1312.506	1005.531
404.365	22.350	1312.077	1005.770
405.380	22.326	1310.886	1004.630
406.394	22.341	1310.698	1004.483
407.409	22.554	1309.677	1004.825
408.423	22.666	1308.863	1004.752
409.438	22.737	1308.641	1004.896
410.453	22.845	1308.027	1004.951
411.467	22.887	1307.366	1004.595
412.482	23.076	1306.896	1005.217
413.496	23.039	1306.475	1004.597
414.511	23.032	1305.558	1003.763
415.526	23.144	1304.529	1003.517
416.540	23.270	1304.139	1003.843
417.555	23.338	1303.608	1003.731
418.569	23.361	1302.638	1003.027
419.584	23.203	1302.400	1001.857
420.599	23.153	1301.226	1000.582
421.613	144.172	1432.235	1789.739
422.628	139.631	1451.303	1789.842
