DTS Sentinel unit serial number:	SN413079Multiplexer serial number:	ORYXHardware model number:	OX4-SRSoftware version number:	ORYX F/W v4.00 Oryx Data Collector v3.7.2.0data status	okinstallation	princeton_trtdifferential loss correction	single-endedforward channel	channel 4reverse channel	N/Adate	2019/09/14time	00:37:35forward acquisition time	60.00reverse acquisition time	0.00gamma	496.2192k internal	0.2323k external	0.2323temperature offset calibration	1.0132default loss term (dB/km)	0.3790temperature slope calibration	1.0000multiplexer offset coefficient	1.0000multiplexer slope coefficient	1.0000fibre end	0.00T internal ref (°C)	26.44T ext. ref 1 (°C)	3.17T ext. ref 2 (°C)	21.08length (m)	temperature (°C)	Stokes	anti-Stokes-747.200	78.739	0.085	0.092
-746.185	102.168	0.199	0.235
-745.171	-80.840	0.115	0.038
-744.156	-152.794	-0.233	-0.017
-743.142	-200.000	0.007	-0.112
-742.127	138.074	-0.057	-0.075
-741.112	46.281	0.141	-0.132
-740.098	-106.319	-0.250	-0.056
-739.083	185.685	-0.119	-0.178
-738.069	-76.513	0.148	0.052
-737.054	60.727	-0.276	0.277
-736.039	800.000	-0.088	0.342
-735.025	92.276	0.192	-0.218
-734.010	800.000	0.054	0.155
-732.996	800.000	0.031	-0.131
-731.981	346.901	-0.059	-0.118
-730.966	75.636	-0.209	-0.223
-729.952	652.754	0.098	-0.254
-728.937	16.812	-0.250	-0.199
-727.923	74.029	-0.136	0.144
-726.908	543.476	-0.111	-0.268
-725.894	-180.676	-0.212	-0.004
-724.879	800.000	-0.092	-0.277
-723.864	-102.936	-0.224	-0.054
-722.850	296.703	-0.056	-0.103
-721.835	-10.817	-0.068	0.045
-720.821	-34.818	0.084	-0.046
-719.806	115.189	-0.232	0.286
-718.791	-200.000	-0.023	0.109
-717.777	284.745	0.105	0.191
-716.762	54.079	-0.050	-0.048
-715.748	90.760	0.134	0.152
-714.733	-43.521	0.277	0.141
-713.718	102.797	-0.316	0.373
-712.704	-73.667	-0.037	0.014
-711.689	800.000	-0.056	0.159
-710.675	-200.000	0.015	0.116
-709.660	-70.484	-0.060	-0.023
-708.645	-200.000	-0.041	-0.323
-707.631	303.865	-0.054	-0.101
-706.616	-200.000	0.061	-0.361
-705.602	794.633	0.125	-0.346
-704.587	26.875	-0.029	-0.024
-703.572	82.912	0.099	-0.108
-702.558	-140.097	0.239	-0.025
-701.543	62.992	0.210	-0.212
-700.529	800.000	-0.048	-0.148
-699.514	56.189	0.274	0.268
-698.499	103.791	-0.069	0.082
-697.485	800.000	-0.095	0.316
-696.470	78.678	-0.048	-0.051
-695.456	-200.000	-0.012	0.094
-694.441	-139.684	0.232	-0.025
-693.426	-200.000	-0.054	0.357
-692.412	9.913	0.056	-0.043
-691.397	-200.000	0.002	-0.135
-690.383	15.926	0.171	0.135
-689.368	800.000	0.030	-0.111
-688.354	60.492	0.131	-0.131
-687.339	539.995	0.100	0.240
-686.324	79.984	0.177	-0.192
-685.310	-200.000	-0.034	0.173
-684.295	186.694	0.028	0.042
-683.281	538.727	0.075	0.179
-682.266	314.879	-0.081	0.154
-681.251	800.000	0.091	-0.288
-680.237	19.534	0.232	-0.188
-679.222	800.000	0.051	-0.184
-678.208	-58.115	-0.284	-0.125
-677.193	800.000	0.084	0.290
-676.178	15.614	-0.032	-0.025
-675.164	375.441	0.169	-0.348
-674.149	-42.524	0.350	-0.179
-673.135	344.690	-0.108	-0.214
-672.120	-200.000	0.029	-0.157
-671.105	-132.766	-0.200	0.026
-670.091	346.799	0.144	-0.285
-669.076	33.274	0.103	0.090
-668.062	-200.000	-0.050	0.290
-667.047	800.000	0.130	-0.490
-666.032	-5.639	-0.165	0.114
-665.018	77.492	-0.187	-0.201
-664.003	-181.319	0.134	-0.003
-662.989	-95.849	-0.102	-0.027
-661.974	-200.000	0.004	-0.257
-660.959	-102.207	-0.129	0.031
-659.945	-108.035	-0.233	0.051
-658.930	-63.741	0.324	-0.134
-657.916	366.632	-0.104	0.211
-656.901	-200.000	-0.029	-0.209
-655.886	674.275	0.105	0.273
-654.872	-162.797	0.183	-0.009
-653.857	504.899	0.075	-0.175
-652.843	432.601	0.054	-0.118
-651.828	-25.961	-0.112	0.066
-650.814	33.973	-0.171	-0.150
-649.799	-200.000	-0.013	-0.358
-648.784	-200.000	0.020	0.225
-647.770	128.100	0.052	-0.066
-646.755	479.093	-0.073	-0.167
-645.741	-56.186	-0.023	-0.010
-644.726	43.687	-0.179	0.165
-643.711	-157.509	-0.322	-0.019
-642.697	-32.248	-0.279	-0.157
-641.682	88.858	-0.046	0.052
-640.668	-42.900	-0.332	-0.170
-639.653	-200.000	-0.010	0.052
-638.638	526.226	-0.016	0.038
-637.624	102.225	0.020	0.023
-636.609	-80.528	-0.238	0.080
-635.595	-35.394	-0.182	0.099
-634.580	-50.045	-0.122	0.058
-633.565	26.187	-0.332	-0.278
-632.551	14.864	0.206	0.162
-631.536	247.744	0.069	0.117
-630.522	278.695	-0.113	0.203
-629.507	97.916	-0.170	-0.196
-628.492	800.000	-0.091	0.256
-627.478	116.028	0.193	-0.238
-626.463	-200.000	0.245	-0.001
-625.449	-36.816	-0.117	0.063
-624.434	-200.000	0.042	-0.207
-623.419	492.163	0.158	0.365
-622.405	21.327	0.135	0.110
-621.390	356.039	0.138	-0.276
-620.376	-200.000	-0.030	-0.422
-619.361	-55.980	-0.182	-0.081
-618.346	-134.933	-0.235	-0.029
-617.332	-59.467	0.297	0.128
-616.317	-157.758	0.373	0.022
-615.303	800.000	-0.024	-0.102
-614.288	-92.220	-0.112	-0.032
-613.273	800.000	0.064	0.177
-612.259	-70.921	-0.111	-0.042
-611.244	-21.439	-0.256	-0.157
-610.230	-25.617	-0.127	0.075
-609.215	-160.161	0.074	0.004
-608.201	-180.054	0.456	-0.010
-607.186	-200.000	-0.006	0.165
-606.171	-22.584	-0.334	-0.203
-605.157	-174.481	0.061	-0.002
-604.142	23.268	-0.179	-0.148
-603.128	-139.483	-0.127	0.014
-602.113	-119.799	-0.155	0.027
-601.098	800.000	0.032	0.119
-600.084	-66.957	-0.330	0.131
-599.069	-63.898	-0.179	0.074
-598.055	-200.000	0.015	0.167
-597.040	-200.000	-0.023	0.117
-596.025	196.932	0.064	0.097
-595.011	63.285	-0.022	-0.022
-593.996	512.800	-0.134	-0.313
-592.982	-112.427	0.213	-0.043
-591.967	-103.980	0.261	-0.061
-590.952	-200.000	0.048	0.240
-589.938	155.560	-0.069	0.095
-588.923	476.190	0.136	0.308
-587.909	413.340	-0.072	0.154
-586.894	-200.000	-0.052	-0.473
-585.879	800.000	0.084	-0.336
-584.865	-200.000	0.079	0.397
-583.850	-200.000	-0.004	0.033
-582.836	8.013	-0.143	0.107
-581.821	-200.000	-0.077	-0.368
-580.806	-48.388	-0.125	-0.060
-579.792	-32.809	0.265	0.148
-578.777	726.119	0.081	0.217
-577.763	183.272	-0.028	0.041
-576.748	0.131	0.081	-0.058
-575.733	-200.000	0.046	0.234
-574.719	800.000	-0.021	-0.061
-573.704	-82.559	-0.259	0.084
-572.690	165.497	0.240	-0.340
-571.675	-15.392	0.060	-0.038
-570.661	69.505	-0.046	0.047
-569.646	289.248	-0.099	-0.180
-568.631	-27.287	0.264	0.154
-567.617	387.097	-0.167	-0.347
-566.602	-123.704	0.349	-0.055
-565.588	-14.144	-0.251	0.162
-564.573	32.887	0.335	0.291
-563.558	423.741	0.070	0.151
-562.544	47.399	0.352	-0.329
-561.529	-7.427	0.249	-0.169
-560.515	800.000	-0.076	-0.252
-559.500	189.112	0.093	-0.140
-558.485	94.152	0.046	-0.053
-557.471	113.905	0.054	-0.066
-556.456	-60.994	0.170	-0.072
-555.442	-157.492	-0.287	0.017
-554.427	126.711	-0.090	0.114
-553.412	373.509	0.059	0.121
-552.398	-20.667	-0.203	0.125
-551.383	115.110	0.184	0.225
-550.369	33.343	0.056	-0.049
-549.354	-29.849	-0.369	0.211
-548.339	86.558	-0.143	0.158
-547.325	800.000	0.074	0.208
-546.310	-76.530	0.079	-0.028
-545.296	-200.000	0.047	-0.262
-544.281	800.000	-0.044	-0.173
-543.266	103.255	0.182	-0.214
-542.252	800.000	0.099	-0.351
-541.237	800.000	-0.147	-0.414
-540.223	168.532	0.110	-0.157
-539.208	-102.650	0.340	-0.081
-538.193	35.578	-0.227	-0.199
-537.179	410.216	0.191	0.405
-536.164	800.000	0.086	-0.256
-535.150	-156.846	-0.261	0.016
-534.135	348.606	0.067	-0.132
-533.121	-110.157	-0.124	0.026
-532.106	201.027	-0.045	-0.070
-531.091	-1.815	-0.027	-0.019
-530.077	-200.000	-0.009	-0.108
-529.062	64.857	0.169	-0.171
-528.048	-200.000	0.051	0.341
-527.033	800.000	0.091	0.252
-526.018	-179.034	-0.144	-0.003
-525.004	-116.482	-0.089	0.016
-523.989	-200.000	-0.030	-0.248
-522.975	800.000	0.054	0.223
-521.960	122.412	-0.090	0.112
-520.945	22.018	-0.171	-0.140
-519.931	-200.000	0.019	0.101
-518.916	-9.678	0.183	-0.122
-517.902	-16.261	-0.224	0.143
-516.887	-95.829	-0.147	-0.039
-515.872	89.018	0.067	-0.075
-514.858	800.000	0.043	0.161
-513.843	-200.000	0.003	0.026
-512.829	-38.641	-0.152	0.080
-511.814	-52.569	-0.265	0.122
-510.799	-110.073	0.102	0.021
-509.785	32.248	-0.036	-0.031
-508.770	120.510	0.323	0.401
-507.756	-23.962	-0.214	0.128
-506.741	-200.000	-0.018	0.132
-505.726	724.342	-0.143	-0.380
-504.712	714.941	-0.070	0.186
-503.697	521.535	-0.040	0.094
-502.683	99.573	-0.225	-0.260
-501.668	302.811	0.110	-0.204
-500.653	-35.599	0.366	0.198
-499.639	800.000	-0.015	-0.041
-498.624	800.000	0.063	-0.246
-497.610	-136.049	0.295	-0.035
-496.595	800.000	-0.042	0.170
-495.581	-63.554	0.153	-0.063
-494.566	-200.000	0.014	0.266
-493.551	-200.000	-0.014	-0.244
-492.537	-38.290	-0.116	0.061
-491.522	-28.687	0.261	0.150
-490.508	-200.000	0.042	-0.348
-489.493	800.000	-0.049	-0.215
-488.478	-200.000	0.014	-0.117
-487.464	-200.000	0.031	-0.226
-486.449	-127.486	-0.173	0.025
-485.435	237.308	-0.103	0.171
-484.420	-97.984	0.308	-0.079
-483.405	-132.289	0.154	-0.020
-482.391	-200.000	-0.033	-0.231
-481.376	-55.287	-0.473	-0.213
-480.362	113.072	0.210	-0.254
-479.347	-93.136	0.115	0.032
-478.332	8.407	0.026	-0.019
-477.318	590.251	-0.027	0.065
-476.303	-155.892	-0.249	-0.016
-475.289	469.650	-0.042	-0.095
-474.274	89.950	-0.121	0.135
-473.259	304.904	0.078	0.144
-472.245	800.000	-0.026	0.092
-471.230	370.209	0.228	0.461
-470.216	-200.000	-0.000	0.134
-469.201	-36.834	-0.152	0.082
-468.186	5.449	0.223	0.165
-467.172	-5.632	-0.280	-0.192
-466.157	800.000	0.048	0.151
-465.143	5.346	0.177	0.131
-464.128	-200.000	0.018	-0.217
-463.113	-200.000	0.060	-0.331
-462.099	96.273	0.198	-0.227
-461.084	-117.548	0.359	-0.065
-460.070	-200.000	-0.004	-0.164
-459.055	87.414	0.054	0.059
-458.040	-200.000	0.012	0.324
-457.026	-45.909	-0.141	0.069
-456.011	37.182	0.146	0.129
-454.997	103.788	0.169	-0.198
-453.982	55.513	-0.287	-0.278
-452.968	-200.000	0.041	0.291
-451.953	-200.000	0.012	-0.258
-450.938	794.000	0.026	0.071
-449.924	800.000	0.072	0.262
-448.909	307.148	-0.079	-0.147
-447.895	-8.006	0.064	0.043
-446.880	-84.240	-0.170	0.054
-445.865	-138.964	-0.131	0.014
-444.851	-200.000	0.017	0.142
-443.836	-52.855	-0.224	0.103
-442.822	800.000	0.028	0.114
-441.807	13.692	-0.165	0.128
-440.792	430.271	-0.095	0.205
-439.778	-200.000	0.015	0.079
-438.763	323.367	-0.172	-0.328
-437.749	36.711	0.201	0.177
-436.734	372.992	0.068	-0.138
-435.719	554.953	-0.106	-0.254
-434.705	52.397	-0.247	-0.235
-433.690	-83.040	-0.234	-0.075
-432.676	201.445	0.202	-0.310
-431.661	-63.981	-0.277	0.113
-430.646	14.755	0.267	0.208
-429.632	7.455	0.175	0.130
-428.617	10.097	0.124	-0.094
-427.603	-65.463	0.213	0.085
-426.588	-200.000	0.008	0.378
-425.573	-21.501	-0.266	-0.162
-424.559	336.661	0.175	-0.339
-423.544	-181.083	-0.241	0.005
-422.530	-107.046	-0.200	-0.044
-421.515	-30.003	0.407	-0.231
-420.500	88.089	0.126	-0.139
-419.486	-118.932	0.287	-0.050
-418.471	-3.188	-0.075	0.052
-417.457	-45.377	0.117	0.058
-416.442	-98.845	-0.068	0.017
-415.428	-57.222	0.377	-0.165
-414.413	19.944	-0.238	-0.192
-413.398	-4.719	-0.326	-0.225
-412.384	-125.640	0.315	-0.048
-411.369	481.344	0.076	0.172
-410.355	-106.595	0.352	-0.078
-409.340	-200.000	-0.006	-0.137
-408.325	443.143	0.122	0.267
-407.311	248.284	-0.253	-0.427
-406.296	-55.464	0.296	-0.132
-405.282	93.076	0.162	0.182
-404.267	250.082	-0.206	0.349
-403.252	-200.000	0.011	-0.075
-402.238	-200.000	0.023	-0.239
-401.223	-73.180	0.231	-0.084
-400.209	430.986	-0.062	-0.134
-399.194	-82.191	0.118	-0.038
-398.179	800.000	0.062	-0.177
-397.165	-200.000	-0.027	0.132
-396.150	8.545	0.094	0.070
-395.136	800.000	0.024	-0.092
-394.121	-0.378	-0.248	-0.175
-393.106	800.000	-0.147	-0.531
-392.092	-200.000	-0.014	-0.346
-391.077	750.612	0.074	-0.199
-390.063	-83.229	0.217	0.070
-389.048	-200.000	0.003	0.323
-388.033	-108.567	0.175	0.037
-387.019	-11.948	0.180	0.117
-386.004	800.000	-0.099	-0.343
-384.990	19.063	-0.173	0.138
-383.975	134.846	0.215	0.278
-382.960	-200.000	-0.046	0.380
-381.946	178.637	0.031	0.045
-380.931	629.822	0.060	0.152
-379.917	254.325	0.113	-0.192
-378.902	-200.000	-0.006	-0.293
-377.888	12.857	-0.129	0.099
-376.873	-147.085	0.095	-0.008
-375.858	-200.000	0.032	0.208
-374.844	188.263	0.182	-0.270
-373.829	-23.952	-0.097	-0.058
-372.815	-115.882	0.326	0.061
-371.800	-142.077	-0.108	-0.011
-370.785	146.275	-0.175	0.234
-369.771	92.337	0.200	-0.224
-368.756	104.527	-0.285	-0.334
-367.742	94.709	-0.255	-0.288
-366.727	800.000	0.083	-0.347
-365.712	38.858	0.153	-0.136
-364.698	576.519	0.062	0.150
-363.683	-200.000	0.032	0.185
-362.669	-147.503	-0.225	-0.019
-361.654	800.000	-0.052	0.203
-360.639	-116.120	0.227	-0.042
-359.625	-83.714	-0.312	-0.099
-358.610	-200.000	0.017	-0.555
-357.596	-200.000	-0.002	-0.069
-356.581	-128.607	-0.248	-0.035
-355.566	-122.604	0.030	0.005
-354.552	154.600	0.043	0.059
-353.537	800.000	-0.068	0.253
-352.523	-111.939	-0.168	-0.034
-351.508	-19.961	0.246	0.151
-350.493	-129.610	0.298	0.041
-349.479	-200.000	0.011	-0.383
-348.464	-20.930	-0.096	-0.059
-347.450	800.000	-0.095	0.280
-346.435	32.221	0.238	0.204
-345.420	579.399	0.050	-0.121
-344.406	270.247	0.077	-0.135
-343.391	44.985	-0.347	0.318
-342.377	9.780	0.105	0.080
-341.362	-200.000	0.007	0.142
-340.348	-200.000	0.006	-0.202
-339.333	-193.128	0.018	0.000
-338.318	-111.788	-0.255	0.051
-337.304	-200.000	-0.001	-0.021
-336.289	-200.000	-0.108	-0.519
-335.275	46.138	-0.258	0.238
-334.260	272.860	0.219	0.384
-333.245	-29.578	-0.171	-0.097
-332.231	-85.915	0.175	-0.054
-331.216	702.257	0.047	-0.122
-330.202	75.432	0.132	-0.138
-329.187	354.091	-0.083	0.164
-328.172	-130.203	-0.306	0.041
-327.158	-142.821	-0.173	0.017
-326.143	157.031	-0.042	-0.057
-325.129	-200.000	-0.012	-0.348
-324.114	-200.000	0.032	-0.198
-323.099	28.576	0.394	0.331
-322.085	76.777	-0.170	0.179
-321.070	-102.631	-0.024	-0.006
-320.056	800.000	-0.110	-0.319
-319.041	-68.433	-0.350	0.135
-318.026	-200.000	-0.054	0.389
-317.012	-173.329	-0.192	0.006
-315.997	-148.902	0.208	-0.017
-314.983	140.701	0.118	0.155
-313.968	-200.000	-0.019	-0.137
-312.953	-62.972	0.216	0.089
-311.939	800.000	0.055	0.185
-310.924	34.940	-0.258	-0.224
-309.910	-97.162	-0.312	-0.081
-308.895	-162.890	0.368	-0.018
-307.880	-53.249	0.160	-0.073
-306.866	633.610	0.049	-0.124
-305.851	800.000	0.042	-0.162
-304.837	194.987	-0.110	-0.165
-303.822	-95.812	-0.206	0.055
-302.807	258.629	0.105	0.180
-301.793	-161.301	0.223	0.011
-300.778	-200.000	0.045	-0.253
-299.764	-91.966	-0.123	-0.034
-298.749	-200.000	0.014	-0.521
-297.735	11.284	0.324	-0.246
-296.720	-92.486	-0.072	0.020
-295.705	199.339	-0.153	0.233
-294.691	14.433	0.270	0.209
-293.676	135.327	-0.172	0.222
-292.662	677.434	0.084	-0.217
-291.647	-200.000	0.012	-0.176
-290.632	524.220	0.027	-0.062
-289.618	-98.023	-0.172	0.044
-288.603	207.020	-0.202	0.313
-287.589	-85.425	0.090	0.028
-286.574	-31.847	-0.338	-0.188
-285.559	-89.853	-0.138	0.040
-284.545	98.005	-0.072	-0.083
-283.530	-200.000	-0.006	-0.081
-282.516	-200.000	0.038	0.246
-281.501	-200.000	-0.008	0.077
-280.486	-32.123	0.186	-0.103
-279.472	90.965	-0.167	0.185
-278.457	-137.729	0.137	0.015
-277.443	-40.913	0.112	0.057
-276.428	130.875	0.114	-0.145
-275.413	201.334	-0.097	-0.148
-274.399	-43.194	-0.230	0.116
-273.384	10.454	-0.111	0.084
-272.370	2.705	-0.192	0.138
-271.355	-200.000	0.028	-0.122
-270.340	8.247	-0.071	-0.053
-269.326	26.392	-0.254	0.211
-268.311	42.755	-0.151	0.136
-267.297	-200.000	0.009	0.094
-266.282	399.071	0.134	0.277
-265.267	284.207	-0.152	0.272
-264.253	-173.050	-0.281	-0.009
-263.238	800.000	0.088	-0.252
-262.224	-200.000	-0.050	-0.000
-261.209	-9.831	0.322	0.212
-260.195	-60.693	0.125	0.052
-259.180	452.939	0.034	0.074
-258.165	800.000	-0.038	0.161
-257.151	-200.000	-0.000	0.061
-256.136	-63.453	0.134	-0.054
-255.122	-55.370	0.172	-0.076
-254.107	-111.829	0.172	-0.035
-253.092	-90.344	-0.111	-0.032
-252.078	-41.757	-0.222	-0.113
-251.063	-200.000	-0.023	0.223
-250.049	-98.770	-0.198	0.050
-249.034	-200.000	-0.022	-0.232
-248.019	-52.338	-0.411	0.189
-247.005	77.326	-0.058	0.061
-245.990	211.786	0.166	-0.258
-244.976	445.442	0.030	0.065
-243.961	631.131	-0.074	0.186
-242.946	87.257	-0.156	0.171
-241.932	-122.293	0.217	-0.035
-240.917	3.917	-0.050	0.037
-239.903	10.242	0.028	0.021
-238.888	179.842	-0.166	0.240
-237.873	90.402	0.202	-0.224
-236.859	16.346	-0.108	0.084
-235.844	190.556	-0.165	0.245
-234.830	269.715	-0.160	0.278
-233.815	266.177	0.106	-0.183
-232.800	-39.437	-0.162	0.084
-231.786	22.697	0.164	-0.133
-230.771	-173.702	0.313	0.009
-229.757	46.060	-0.092	-0.084
-228.742	600.279	0.057	-0.139
-227.727	-53.191	-0.193	0.087
-226.713	104.788	0.159	0.185
-225.698	800.000	0.159	0.491
-224.684	187.765	-0.204	0.302
-223.669	-117.462	-0.132	-0.024
-222.655	-200.000	-0.063	0.397
-221.640	213.469	-0.049	-0.076
-220.625	114.454	0.146	0.176
-219.611	-61.734	0.233	-0.097
-218.596	-200.000	-0.008	0.158
-217.582	-32.252	-0.081	0.045
-216.567	-132.595	-0.053	0.007
-215.552	800.000	0.075	0.228
-214.538	-87.210	0.112	-0.034
-213.523	634.761	0.052	0.129
-212.509	-54.338	-0.060	0.027
-211.494	-107.263	-0.099	-0.021
-210.479	-113.902	0.166	-0.032
-209.465	-148.651	0.357	0.029
-208.450	145.338	0.214	-0.284
-207.436	800.000	-0.082	-0.229
-206.421	-144.176	0.203	0.019
-205.406	324.848	0.177	0.334
-204.392	160.667	-0.096	-0.132
-203.377	-43.350	0.092	-0.046
-202.363	68.751	-0.072	-0.073
-201.348	77.582	-0.238	-0.250
-200.333	-55.960	-0.273	0.120
-199.319	41.941	0.219	0.197
-198.304	-200.000	-0.016	0.332
-197.290	-185.460	0.048	-0.001
-196.275	800.000	-0.099	-0.379
-195.260	99.514	-0.058	0.066
-194.246	312.999	-0.121	-0.224
-193.231	-200.000	0.011	0.232
-192.217	96.678	-0.114	-0.129
-191.202	-200.000	-0.071	0.339
-190.187	-200.000	0.085	-0.379
-189.173	-150.782	-0.097	-0.007
-188.158	-121.171	0.115	0.019
-187.144	79.099	0.155	0.165
-186.129	394.745	0.182	0.374
-185.114	554.126	0.061	-0.145
-184.100	727.953	-0.135	-0.357
-183.085	232.065	-0.107	0.174
-182.071	-37.194	0.255	-0.135
-181.056	-96.339	-0.247	0.064
-180.042	-200.000	-0.046	0.340
-179.027	-190.924	-0.015	0.000
-178.012	-176.066	0.327	-0.009
-176.998	19.157	0.126	-0.100
-175.983	-129.332	0.156	0.021
-174.969	-89.184	-0.154	-0.045
-173.954	-56.126	-0.227	0.100
-172.939	-53.847	0.167	0.075
-171.925	-166.689	0.288	0.012
-170.910	-166.352	0.118	-0.005
-169.896	59.121	0.168	0.163
-168.881	9.708	-0.209	0.157
-167.866	7.471	-0.307	-0.227
-166.852	-164.898	-0.094	-0.004
-165.837	-93.619	0.353	-0.096
-164.823	-200.000	-0.016	0.252
-163.808	800.000	0.077	0.253
-162.793	-200.000	-0.056	-0.486
-161.779	-7.849	-0.220	0.147
-160.764	-200.000	-0.034	0.000
-159.750	-12.444	-0.170	0.109
-158.735	800.000	-0.066	0.245
-157.720	111.009	0.080	0.095
-156.706	-135.947	-0.278	0.032
-155.691	216.106	0.150	-0.235
-154.677	-200.000	-0.131	0.611
-153.662	-129.733	0.388	0.053
-152.647	472.308	0.154	0.343
-151.633	158.054	0.052	-0.071
-150.618	-125.270	-0.369	0.056
-149.604	8.714	-0.117	-0.087
-148.589	-70.211	0.128	0.048
-147.574	164.851	0.054	-0.075
-146.560	661.996	-0.079	-0.200
-145.545	24.029	-0.149	-0.121
-144.531	-9.594	0.372	-0.245
-143.516	-123.636	-0.316	0.049
-142.502	538.913	-0.158	-0.371
-141.487	56.973	-0.103	-0.099
-140.472	800.000	0.037	-0.107
-139.458	111.825	-0.061	0.072
-138.443	-38.932	-0.537	-0.279
-137.429	298.241	0.126	-0.229
-136.414	800.000	-0.046	0.161
-135.399	-92.712	0.179	-0.049
-134.385	356.648	0.068	-0.133
-133.370	-82.102	0.214	0.069
-132.356	-200.000	-0.016	-0.094
-131.341	23.843	-0.297	0.242
-130.326	180.891	-0.037	0.053
-129.312	-200.000	-0.027	0.193
-128.297	-200.000	0.007	0.071
-127.283	-200.000	0.011	0.159
-126.268	103.544	-0.150	0.174
-125.253	800.000	-0.141	0.446
-124.239	142.121	-0.138	0.180
-123.224	41.865	-0.098	0.087
-122.210	800.000	-0.019	-0.059
-121.195	-104.984	-0.342	0.077
-120.180	-200.000	0.009	-0.173
-119.166	-5.268	-0.249	0.168
-118.151	13.651	-0.162	0.124
-117.137	-200.000	-0.003	0.283
-116.122	5.581	-0.115	-0.084
-115.107	202.969	-0.070	0.107
-114.093	28.532	0.185	-0.154
-113.078	127.770	-0.133	0.166
-112.064	-200.000	-0.035	-0.491
-111.049	517.731	-0.009	0.022
-110.034	365.513	-0.029	-0.057
-109.020	-81.736	-0.199	-0.064
-108.005	180.150	-0.134	-0.194
-106.991	105.707	-0.250	-0.292
-105.976	44.136	0.204	0.184
-104.962	64.077	-0.303	0.301
-103.947	45.863	0.204	0.186
-102.932	428.200	0.024	0.051
-101.918	337.794	0.110	0.210
-100.903	-140.591	-0.081	-0.008
-99.889	-13.991	0.201	0.128
-98.874	-15.492	-0.259	-0.163
-97.859	-200.000	-0.032	0.239
-96.845	762.559	-0.041	0.109
-95.830	103.333	0.064	0.074
-94.816	-111.501	0.277	-0.055
-93.801	263.941	0.085	0.145
-92.786	559.073	0.063	-0.151
-91.772	278.803	0.193	-0.338
-90.757	349.106	0.027	-0.052
-89.743	-164.531	-0.265	0.012
-88.728	297.547	-0.132	-0.239
-87.713	-55.576	0.438	0.193
-86.699	382.421	0.089	-0.180
-85.684	291.921	-0.087	0.157
-84.670	-200.000	-0.076	0.372
-83.655	800.000	0.052	-0.219
-82.640	-147.246	-0.187	0.016
-81.626	-200.000	-0.033	0.192
-80.611	800.000	-0.058	-0.206
-79.597	-64.744	0.314	-0.125
-78.582	365.382	0.085	0.169
-77.567	260.438	-0.108	0.184
-76.553	403.804	-0.079	-0.163
-75.538	-200.000	-0.001	0.125
-74.524	-115.558	0.080	0.015
-73.509	630.088	0.026	-0.065
-72.494	5.163	-0.077	-0.056
-71.480	323.400	0.091	-0.170
-70.465	57.257	0.184	0.177
-69.451	127.023	-0.147	-0.183
-68.436	-6.415	0.246	0.165
-67.422	72.316	-0.121	-0.123
-66.407	41.199	0.205	0.182
-65.392	15.634	0.241	0.186
-64.378	-10.764	0.187	0.121
-63.363	-200.000	0.000	0.090
-62.349	123.042	-0.053	0.065
-61.334	47.630	-0.967	-0.887
-60.319	182.493	0.216	0.313
-59.305	205.658	-0.607	-0.927
-58.290	434.771	0.659	1.409
-57.276	710.843	0.538	1.400
-56.261	-200.000	116.023	643.566
-55.246	491.763	1538.941	3464.258
-54.232	172.417	2717.061	3841.875
-53.217	94.996	2324.752	2600.686
-52.203	32.867	2069.250	1760.604
-51.188	28.231	1985.250	1647.452
-50.173	26.909	1968.271	1621.497
-49.159	43.594	2029.554	1824.093
-48.144	42.616	2043.947	1828.058
-47.130	28.648	2002.396	1665.205
-46.115	26.466	1991.700	1636.528
-45.100	26.313	1988.700	1632.619
-44.086	26.348	1986.644	1631.183
-43.071	26.266	1984.204	1628.372
-42.057	26.258	1981.778	1626.242
-41.042	26.244	1980.570	1625.064
-40.027	26.265	1978.272	1623.302
-39.013	26.277	1976.151	1621.604
-37.998	26.330	1974.596	1620.742
-36.984	26.432	1972.593	1619.944
-35.969	26.336	1970.806	1617.556
-34.954	26.359	1968.942	1616.168
-33.940	26.436	1967.664	1615.737
-32.925	26.459	1965.853	1614.392
-31.911	26.433	1964.313	1612.829
-30.896	26.457	1962.657	1611.623
-29.881	26.393	1961.554	1610.085
-28.867	26.486	1959.464	1609.135
-27.852	26.458	1957.979	1607.601
-26.838	26.495	1955.748	1606.032
-25.823	26.560	1954.081	1605.176
-24.809	26.476	1952.073	1602.718
-23.794	26.389	1951.112	1601.096
-22.779	26.453	1948.614	1599.550
-21.765	26.448	1947.151	1598.239
-20.750	26.420	1945.518	1596.587
-19.736	26.489	1944.177	1596.031
-18.721	26.486	1942.587	1594.635
-17.706	26.410	1940.815	1592.447
-16.692	26.471	1938.870	1591.325
-15.677	26.479	1937.395	1590.127
-14.663	26.430	1936.022	1588.509
-13.648	26.407	1934.945	1587.352
-12.633	26.452	1933.686	1586.657
-11.619	26.463	1932.343	1585.588
-10.604	26.475	1930.584	1584.187
-9.590	26.477	1929.477	1583.233
-8.575	26.505	1928.371	1582.507
-7.560	26.422	1927.318	1580.857
-6.546	26.536	1925.933	1580.653
-5.531	26.502	1924.368	1579.003
-4.517	26.490	1923.109	1577.806
-3.502	26.450	1922.108	1576.570
-2.487	26.480	1920.764	1575.672
-1.473	26.459	1919.845	1574.671
-0.458	26.439	1915.484	1570.860
0.556	27.197	1894.952	1542.542
1.571	22.956	1876.848	1491.951
2.586	19.126	1899.690	1477.176
3.600	18.126	1934.955	1495.717
4.615	17.672	1928.087	1486.321
5.629	13.523	1827.266	1374.119
6.644	6.502	1714.630	1234.471
7.659	3.353	1681.728	1186.458
8.673	3.168	1678.956	1182.971
9.688	3.139	1677.908	1181.908
10.702	3.186	1675.983	1180.810
11.717	3.197	1672.649	1178.434
12.731	3.548	1671.632	1180.304
13.746	8.364	1683.069	1225.291
14.761	15.983	1699.920	1296.288
15.775	19.985	1706.497	1332.035
16.790	20.246	1706.035	1333.562
17.804	19.417	1702.844	1324.587
18.819	18.393	1700.119	1314.498
19.834	17.843	1697.194	1307.903
20.848	17.613	1695.857	1304.998
21.863	17.409	1694.994	1302.657
22.877	17.246	1693.368	1300.041
23.892	17.129	1691.894	1297.901
24.907	17.061	1690.784	1296.413
25.921	16.992	1690.108	1295.257
26.936	16.965	1689.147	1294.196
27.950	16.991	1687.775	1293.233
28.965	17.016	1687.373	1293.004
29.980	17.134	1686.522	1293.136
30.994	17.184	1685.861	1292.890
32.009	17.213	1684.952	1292.297
33.023	17.302	1683.654	1291.867
34.038	17.375	1682.897	1291.729
35.053	17.327	1681.490	1290.166
36.067	17.221	1680.028	1288.126
37.082	17.188	1678.926	1286.918
38.096	17.127	1678.462	1285.988
39.111	17.146	1677.631	1285.383
40.126	17.294	1676.535	1285.549
41.140	17.272	1675.873	1284.756
42.155	17.018	1674.187	1281.438
43.169	16.865	1672.430	1278.822
44.184	16.781	1671.727	1277.539
45.199	16.769	1670.446	1276.357
46.213	16.832	1668.817	1275.474
47.228	16.789	1668.020	1274.425
48.242	16.968	1666.584	1274.565
49.257	17.045	1666.063	1274.630
50.271	17.089	1664.757	1273.851
51.286	17.069	1663.542	1272.656
52.301	16.996	1662.554	1271.241
53.315	17.084	1660.939	1270.554
54.330	17.077	1658.801	1268.753
55.344	16.971	1657.274	1266.681
56.359	16.938	1655.979	1265.334
57.374	16.851	1655.287	1264.044
58.388	16.907	1653.877	1263.271
59.403	16.875	1652.169	1261.613
60.417	16.782	1650.952	1259.882
61.432	16.702	1649.954	1258.414
62.447	16.792	1648.907	1258.177
63.461	16.629	1647.823	1256.024
64.476	16.679	1646.032	1254.918
65.490	16.617	1644.775	1253.391
66.505	16.495	1644.227	1251.963
67.520	16.648	1643.055	1252.090
68.534	16.622	1642.147	1251.094
69.549	16.707	1640.784	1250.575
70.563	16.705	1639.210	1249.245
71.578	16.725	1638.113	1248.448
72.593	16.552	1637.030	1246.237
73.607	16.470	1636.229	1244.915
74.622	16.423	1635.158	1243.645
75.636	16.521	1634.294	1243.595
76.651	16.518	1633.997	1243.236
77.666	16.609	1632.628	1242.753
78.680	16.558	1631.517	1241.425
79.695	16.661	1630.658	1241.415
80.709	16.656	1629.739	1240.575
81.724	16.715	1629.483	1240.696
82.739	16.773	1628.790	1240.486
83.753	16.817	1627.827	1239.965
84.768	16.949	1627.052	1240.228
85.782	17.011	1626.411	1240.089
86.797	17.191	1625.454	1240.562
87.812	17.261	1624.370	1240.135
88.826	17.165	1623.284	1238.495
89.841	17.049	1622.193	1236.708
90.855	17.067	1621.363	1236.097
91.870	17.142	1620.229	1235.669
92.884	17.221	1619.399	1235.498
93.899	17.180	1618.239	1234.212
94.914	17.318	1616.730	1233.951
95.928	17.309	1615.849	1233.100
96.943	17.338	1614.133	1231.897
97.957	17.305	1612.748	1230.492
98.972	17.149	1611.677	1228.436
99.987	17.106	1609.815	1226.600
101.001	17.116	1608.293	1225.404
102.016	17.171	1606.855	1224.592
103.030	17.156	1605.278	1223.175
104.045	17.210	1604.370	1222.763
105.060	17.136	1602.929	1221.026
106.074	17.102	1601.653	1219.703
107.089	16.988	1599.791	1217.359
108.103	16.765	1598.171	1214.419
109.118	16.682	1596.546	1212.481
110.133	16.651	1595.007	1210.984
111.147	16.614	1594.110	1209.929
112.162	16.647	1592.705	1208.993
113.176	16.680	1591.170	1207.953
114.191	16.736	1589.967	1207.333
115.206	16.828	1588.660	1206.888
116.220	16.855	1587.007	1205.724
117.235	16.841	1585.578	1204.432
118.249	16.728	1584.550	1202.740
119.264	16.743	1583.394	1201.860
120.279	16.790	1581.364	1200.545
121.293	16.698	1580.104	1198.830
122.308	16.659	1578.800	1197.463
123.322	16.580	1577.387	1195.729
124.337	16.460	1575.781	1193.557
125.352	16.559	1574.147	1192.911
126.366	16.563	1573.283	1192.180
127.381	16.551	1571.865	1190.911
128.395	16.565	1570.819	1190.115
129.410	16.486	1569.786	1188.669
130.424	16.541	1568.584	1188.044
131.439	16.658	1567.000	1187.560
132.454	16.546	1566.408	1186.216
133.468	16.759	1563.968	1185.761
134.483	16.842	1562.993	1185.493
135.497	16.773	1561.953	1184.120
136.512	16.851	1560.455	1183.422
137.527	16.824	1559.167	1182.153
138.541	16.892	1558.053	1181.678
139.556	16.793	1557.000	1180.085
140.570	16.949	1555.542	1179.961
141.585	17.029	1553.920	1179.183
142.600	17.059	1553.278	1178.801
143.614	17.143	1551.883	1178.222
144.629	17.159	1551.030	1177.581
145.643	17.265	1549.452	1177.008
146.658	17.264	1548.295	1176.022
147.673	17.229	1546.550	1174.350
148.687	17.177	1544.474	1172.308
149.702	17.034	1543.314	1170.339
150.716	17.019	1541.258	1168.571
151.731	16.974	1540.389	1167.503
152.746	16.932	1539.189	1166.198
153.760	16.947	1537.562	1164.964
154.775	17.023	1536.430	1164.530
155.789	17.056	1535.609	1164.031
156.804	17.090	1534.467	1163.293
157.819	17.145	1533.056	1162.499
158.833	17.188	1531.691	1161.656
159.848	17.252	1530.815	1161.321
160.862	17.280	1529.690	1160.559
161.877	17.427	1528.215	1160.339
162.892	17.238	1527.060	1158.070
163.906	17.117	1525.497	1155.962
164.921	16.999	1524.176	1154.053
165.935	17.000	1523.197	1153.219
166.950	17.030	1522.053	1152.454
167.964	17.062	1521.170	1151.903
168.979	17.097	1520.045	1151.182
169.994	17.080	1519.023	1150.194
171.008	17.120	1517.502	1149.210
172.023	17.150	1516.668	1148.681
173.037	17.120	1515.878	1147.776
174.052	17.381	1514.444	1148.354
175.067	17.368	1513.367	1147.343
176.081	17.261	1512.188	1145.626
177.096	17.038	1510.686	1142.888
178.110	17.015	1509.621	1141.825
179.125	17.110	1508.248	1141.328
180.140	17.122	1507.706	1140.897
181.154	17.247	1506.108	1140.424
182.169	17.226	1505.119	1139.436
183.183	17.399	1503.978	1139.624
184.198	17.375	1503.230	1138.803
185.213	17.465	1502.797	1138.974
186.227	17.440	1501.303	1137.576
187.242	17.503	1500.130	1137.003
188.256	17.504	1499.160	1136.176
189.271	17.510	1498.341	1135.492
190.286	17.663	1497.133	1135.501
191.300	17.564	1496.055	1133.923
192.315	17.235	1494.605	1130.532
193.329	17.144	1492.928	1128.561
194.344	17.006	1491.739	1126.645
195.359	17.048	1490.841	1126.147
196.373	17.217	1489.871	1126.432
197.388	17.181	1489.640	1125.918
198.402	17.283	1488.140	1125.362
199.417	17.509	1487.266	1126.097
200.432	17.524	1486.710	1125.675
201.446	17.636	1485.714	1125.560
202.461	17.839	1484.732	1126.060
203.475	17.836	1483.662	1125.126
204.490	17.910	1482.524	1124.654
205.504	17.817	1481.378	1123.071
206.519	17.623	1480.053	1120.688
207.534	17.574	1479.258	1119.665
208.548	17.488	1477.759	1117.872
209.563	17.548	1476.695	1117.359
210.577	17.577	1475.582	1116.610
211.592	17.599	1475.160	1116.334
212.607	17.662	1474.440	1116.105
213.621	17.754	1473.941	1116.228
214.636	17.871	1473.116	1116.273
215.650	17.790	1472.056	1114.837
216.665	17.787	1470.875	1113.826
217.680	17.798	1470.337	1113.391
218.694	17.911	1469.952	1113.737
219.709	17.979	1468.773	1113.193
220.723	17.998	1467.608	1112.332
221.738	17.932	1466.649	1111.075
222.753	18.005	1465.347	1110.468
223.767	17.880	1464.867	1109.195
224.782	17.842	1463.962	1108.161
225.796	17.996	1463.085	1108.400
226.811	17.973	1462.369	1107.614
227.826	18.104	1461.567	1107.758
228.840	17.939	1460.691	1105.927
229.855	17.931	1459.386	1104.785
230.869	17.967	1458.076	1103.928
231.884	17.886	1457.816	1103.112
232.899	17.850	1455.953	1101.375
233.913	17.755	1455.050	1099.977
234.928	17.789	1453.450	1098.890
235.942	17.635	1452.368	1096.984
236.957	17.696	1451.494	1096.621
237.972	17.739	1450.366	1095.945
238.986	17.609	1449.163	1094.107
240.001	17.666	1448.417	1093.811
241.015	17.800	1447.282	1093.720
242.030	17.762	1445.892	1092.328
243.045	17.735	1445.325	1091.632
244.059	17.930	1444.182	1091.915
245.074	17.901	1443.594	1091.190
246.088	17.983	1442.753	1090.981
247.103	18.080	1441.398	1090.481
248.117	18.167	1440.704	1090.414
249.132	18.276	1439.978	1090.459
250.147	18.205	1439.730	1089.722
251.161	18.358	1439.469	1090.406
252.176	18.566	1438.898	1091.197
253.190	18.639	1437.982	1090.874
254.205	18.593	1437.193	1089.886
255.220	18.678	1436.795	1090.028
256.234	18.681	1435.884	1089.255
257.249	18.790	1434.763	1089.005
258.263	18.749	1434.056	1088.110
259.278	18.711	1432.907	1086.904
260.293	18.674	1432.004	1085.888
261.307	18.635	1431.805	1085.389
262.322	18.761	1431.053	1085.524
263.336	18.809	1429.811	1084.787
264.351	18.802	1428.660	1083.775
265.366	18.818	1427.887	1083.191
266.380	18.814	1427.520	1082.789
267.395	18.899	1426.176	1082.213
268.409	18.911	1425.027	1081.322
269.424	18.791	1423.898	1079.617
270.439	18.704	1423.163	1078.417
271.453	18.689	1421.949	1077.302
272.468	18.668	1421.177	1076.494
273.482	18.648	1420.474	1075.740
274.497	18.671	1419.149	1074.787
275.512	18.630	1418.274	1073.771
276.526	18.551	1418.063	1073.024
277.541	18.636	1416.515	1072.286
278.555	18.681	1415.988	1072.077
279.570	18.717	1414.819	1071.320
280.585	18.836	1413.806	1071.197
281.599	18.948	1413.381	1071.480
282.614	18.977	1412.337	1070.772
283.628	18.897	1410.953	1069.133
284.643	18.713	1409.809	1067.028
285.657	18.724	1408.987	1066.378
286.672	18.787	1407.891	1065.846
287.687	18.809	1407.238	1065.396
288.701	18.868	1405.749	1064.536
289.716	18.809	1405.735	1064.068
290.730	18.836	1404.521	1063.220
291.745	18.906	1403.452	1062.753
292.760	18.868	1403.109	1062.165
293.774	18.839	1401.776	1060.878
294.789	18.910	1400.348	1060.147
295.803	19.028	1399.924	1060.455
296.818	19.150	1399.193	1060.561
297.833	18.987	1398.168	1058.685
298.847	18.966	1396.708	1057.357
299.862	18.819	1395.941	1055.782
300.876	18.893	1395.127	1055.524
301.891	18.990	1393.988	1055.164
302.906	19.014	1393.350	1054.735
303.920	19.086	1392.547	1054.479
304.935	19.152	1392.270	1054.577
305.949	19.268	1391.358	1054.501
306.964	19.347	1390.666	1054.369
307.979	19.343	1389.650	1053.479
308.993	19.383	1388.600	1052.835
310.008	19.241	1387.506	1051.045
311.022	19.331	1386.499	1050.743
312.037	19.387	1385.850	1050.498
313.052	19.260	1385.279	1049.198
314.066	19.355	1383.813	1048.573
315.081	19.173	1382.691	1046.523
316.095	19.151	1381.184	1045.154
317.110	18.944	1380.436	1043.243
318.125	18.991	1379.597	1042.802
319.139	19.054	1378.497	1042.257
320.154	19.078	1377.634	1041.660
321.168	19.122	1376.636	1041.078
322.183	19.055	1375.496	1039.722
323.197	19.225	1374.115	1039.607
324.212	19.103	1373.627	1038.414
325.227	19.208	1373.043	1038.511
326.241	19.171	1372.186	1037.547
327.256	19.166	1371.240	1036.714
328.270	19.239	1370.243	1036.305
329.285	19.169	1369.464	1035.204
330.300	19.176	1368.862	1034.697
331.314	19.148	1367.574	1033.469
332.329	19.152	1366.700	1032.740
333.343	19.149	1365.832	1031.971
334.358	19.224	1364.914	1031.641
335.373	19.304	1364.467	1031.686
336.387	19.438	1363.182	1031.423
337.402	19.412	1362.378	1030.569
338.416	19.418	1362.135	1030.333
339.431	19.526	1361.670	1030.536
340.446	19.481	1361.412	1029.978
341.460	19.587	1359.919	1029.388
342.475	19.601	1359.234	1028.863
343.489	19.797	1358.285	1029.222
344.504	19.769	1357.641	1028.477
345.519	19.752	1356.453	1027.385
346.533	19.855	1355.563	1027.226
347.548	19.818	1354.877	1026.399
348.562	19.992	1353.837	1026.551
349.577	20.016	1353.060	1026.011
350.592	19.948	1351.868	1024.617
351.606	19.717	1351.042	1022.533
352.621	19.650	1349.879	1021.168
353.635	19.654	1348.589	1020.124
354.650	19.542	1347.761	1018.748
355.665	19.559	1346.894	1018.104
356.679	19.558	1345.737	1017.130
357.694	19.673	1344.417	1016.718
358.708	19.750	1343.816	1016.630
359.723	19.730	1342.748	1015.614
360.738	19.821	1341.470	1015.088
361.752	19.765	1340.631	1014.035
362.767	19.704	1339.720	1012.900
363.781	19.842	1338.691	1012.840
364.796	19.832	1337.837	1012.049
365.810	19.923	1337.384	1012.146
366.825	19.933	1337.026	1011.843
367.840	20.087	1336.124	1011.972
368.854	20.023	1336.044	1011.451
369.869	20.253	1335.197	1012.058
370.883	20.232	1334.204	1011.095
371.898	20.264	1333.295	1010.501
372.913	20.145	1332.565	1009.166
373.927	20.106	1331.385	1007.957
374.942	20.080	1330.551	1007.087
375.956	20.237	1330.009	1007.499
376.971	20.215	1329.650	1007.011
377.986	20.197	1328.148	1005.679
379.000	20.196	1327.290	1004.934
380.015	20.380	1326.410	1005.245
381.029	20.341	1326.232	1004.798
382.044	20.402	1326.132	1004.985
383.059	20.472	1325.074	1004.499
384.073	20.417	1323.956	1003.244
385.088	20.424	1323.343	1002.731
386.102	20.422	1322.763	1002.190
387.117	20.486	1321.890	1001.811
388.132	20.367	1320.778	1000.191
389.146	20.285	1320.154	999.161
390.161	20.208	1319.294	997.978
391.175	20.123	1318.588	996.864
392.190	20.136	1317.698	996.177
393.205	20.301	1316.886	996.425
394.219	20.304	1315.853	995.574
395.234	20.457	1314.900	995.642
396.248	20.412	1313.297	994.083
397.263	20.377	1311.960	992.778
398.278	20.245	1311.038	991.241
399.292	20.304	1309.649	990.443
400.307	20.217	1308.500	988.985
401.321	20.202	1307.141	987.789
402.336	20.108	1306.681	986.815
403.350	20.129	1305.122	985.672
404.365	20.111	1304.521	985.031
405.380	20.115	1303.755	984.387
406.394	20.216	1303.255	984.496
407.409	20.285	1302.239	984.033
408.423	20.359	1301.820	984.049
409.438	20.491	1300.808	983.945
410.453	20.617	1300.207	984.114
411.467	20.559	1299.846	983.425
412.482	20.651	1298.972	983.197
413.496	20.659	1298.711	982.956
414.511	20.656	1297.765	982.140
415.526	20.859	1296.916	982.551
416.540	20.852	1296.091	981.804
417.555	20.982	1295.442	981.955
418.569	20.903	1295.140	981.197
419.584	20.924	1294.131	980.463
420.599	20.794	1293.744	979.351
421.613	145.570	1435.384	1796.776
422.628	140.646	1455.971	1796.867
