DTS Sentinel unit serial number:	SN413079Multiplexer serial number:	ORYXHardware model number:	OX4-SRSoftware version number:	ORYX F/W v4.00 Oryx Data Collector v3.7.2.0data status	okinstallation	princeton_trtdifferential loss correction	single-endedforward channel	channel 4reverse channel	N/Adate	2019/09/14time	18:17:34forward acquisition time	60.00reverse acquisition time	0.00gamma	496.2192k internal	0.2298k external	0.2298temperature offset calibration	1.0107default loss term (dB/km)	0.3790temperature slope calibration	1.0000multiplexer offset coefficient	1.0000multiplexer slope coefficient	1.0000fibre end	0.00T internal ref (°C)	36.97T ext. ref 1 (°C)	4.97T ext. ref 2 (°C)	31.07length (m)	temperature (°C)	Stokes	anti-Stokes-747.200	2.742	-0.347	0.257
-746.185	-161.389	0.185	0.010
-745.171	22.176	0.064	0.053
-744.156	539.283	-0.213	0.516
-743.142	-83.643	-0.068	-0.022
-742.127	125.354	0.071	-0.091
-741.112	-133.141	0.219	0.028
-740.098	91.580	-0.216	0.248
-739.083	312.801	0.121	-0.231
-738.069	604.123	0.118	0.299
-737.054	120.321	0.089	-0.113
-736.039	-24.962	-0.078	-0.047
-735.025	-76.997	0.126	-0.045
-734.010	-200.000	0.028	-0.378
-732.996	-99.828	-0.262	0.067
-731.981	28.207	-0.125	-0.108
-730.966	29.397	0.181	0.157
-729.952	698.956	-0.081	-0.217
-728.937	-58.963	-0.169	0.075
-727.923	185.045	-0.151	-0.228
-726.908	-98.722	0.310	0.081
-725.894	33.746	-0.039	0.034
-724.879	-200.000	-0.009	-0.081
-723.864	104.055	0.116	-0.139
-722.850	-165.415	0.218	0.010
-721.835	-133.124	-0.348	-0.045
-720.821	-148.916	0.148	-0.012
-719.806	166.539	-0.226	0.326
-718.791	-84.555	0.323	0.104
-717.777	-16.068	-0.083	0.054
-716.762	14.439	0.143	-0.114
-715.748	23.471	-0.188	-0.157
-714.733	-39.921	-0.188	0.100
-713.718	-146.689	-0.168	-0.015
-712.704	39.784	-0.143	0.131
-711.689	-200.000	-0.050	0.305
-710.675	800.000	-0.019	-0.069
-709.660	-86.336	0.202	-0.063
-708.645	-200.000	0.009	0.187
-707.631	-70.485	0.174	-0.067
-706.616	-62.297	-0.106	-0.045
-705.602	-47.411	0.275	0.136
-704.587	139.941	0.104	0.140
-703.572	-165.982	-0.290	-0.013
-702.558	-11.392	-0.287	0.192
-701.543	281.975	0.086	-0.157
-700.529	278.312	-0.102	0.185
-699.514	43.856	-0.125	-0.117
-698.499	-5.146	-0.223	0.156
-697.485	-200.000	0.013	-0.070
-696.470	-200.000	0.016	-0.119
-695.456	41.173	-0.165	0.152
-694.441	-200.000	0.076	-0.419
-693.426	39.269	0.129	0.118
-692.412	5.438	-0.196	-0.148
-691.397	143.098	-0.235	-0.318
-690.383	-200.000	-0.024	0.163
-689.368	106.459	-0.148	0.178
-688.354	-43.143	-0.188	0.097
-687.339	-80.956	-0.253	0.086
-686.324	-60.582	-0.068	0.029
-685.310	50.930	0.122	0.118
-684.295	800.000	0.034	-0.115
-683.281	797.721	0.163	-0.458
-682.266	-200.000	-0.004	0.202
-681.251	-59.920	-0.124	0.054
-680.237	-56.837	-0.097	0.044
-679.222	241.354	0.132	-0.224
-678.208	294.569	-0.069	-0.128
-677.193	-113.374	0.166	0.033
-676.178	-16.290	0.078	0.051
-675.164	96.492	-0.170	0.198
-674.149	-159.495	0.308	0.017
-673.135	-13.586	-0.232	-0.153
-672.120	46.442	-0.137	-0.129
-671.105	-62.701	-0.329	0.139
-670.091	615.972	0.057	-0.146
-669.076	-13.398	-0.162	-0.107
-668.062	-113.351	-0.267	-0.053
-667.047	66.737	-0.144	0.149
-666.032	-200.000	-0.008	0.283
-665.018	749.457	0.025	-0.069
-664.003	800.000	-0.013	-0.058
-662.989	-200.000	0.016	0.103
-661.974	-30.640	0.140	0.081
-660.959	-18.290	-0.163	-0.103
-659.945	-28.460	-0.249	0.146
-658.930	-41.355	0.022	0.012
-657.916	-49.125	-0.387	0.189
-656.901	-73.842	0.030	0.011
-655.886	800.000	-0.035	0.146
-654.872	-200.000	0.039	-0.225
-653.857	418.699	-0.022	-0.047
-652.843	219.495	-0.088	0.144
-651.828	-200.000	-0.014	0.063
-650.814	153.999	-0.184	0.257
-649.799	-161.762	0.124	-0.006
-648.784	28.472	-0.128	0.110
-647.770	-200.000	0.009	0.170
-646.755	20.347	-0.116	-0.095
-645.741	104.013	0.020	-0.024
-644.726	2.450	0.248	-0.182
-643.711	479.037	0.088	0.203
-642.697	-200.000	0.000	-0.141
-641.682	-62.463	-0.034	-0.014
-640.668	-77.466	-0.213	-0.075
-639.653	-142.076	0.334	0.034
-638.638	-79.299	0.157	0.054
-637.624	75.024	0.139	0.149
-636.609	619.751	-0.060	0.153
-635.595	-200.000	-0.042	0.229
-634.580	7.434	0.226	-0.171
-633.565	-94.757	-0.290	0.080
-632.551	-142.783	0.196	0.019
-631.536	210.664	0.146	0.233
-630.522	-61.233	-0.086	0.037
-629.507	228.959	0.053	0.088
-628.492	-198.710	0.103	0.001
-627.478	-200.000	0.008	-0.295
-626.463	351.766	-0.160	0.322
-625.449	104.337	-0.093	-0.112
-624.434	29.053	0.150	-0.129
-623.419	345.052	-0.167	0.333
-622.405	-33.483	0.136	0.077
-621.390	-200.000	-0.027	-0.122
-620.376	136.340	-0.066	0.088
-619.361	512.771	0.152	-0.359
-618.346	-2.868	0.116	0.083
-617.332	-60.943	-0.150	0.065
-616.317	-54.885	0.136	0.062
-615.303	-38.271	-0.178	0.096
-614.288	655.308	-0.091	-0.238
-613.273	232.955	0.169	0.283
-612.259	-27.972	0.037	-0.022
-611.244	400.811	-0.045	-0.096
-610.230	81.798	0.273	0.300
-609.215	-200.000	0.024	-0.297
-608.201	158.211	0.052	-0.073
-607.186	800.000	-0.010	-0.033
-606.171	13.409	-0.145	-0.114
-605.157	143.433	0.225	-0.304
-604.142	-126.271	-0.272	0.041
-603.128	51.204	0.063	0.060
-602.113	-81.136	-0.085	-0.029
-601.098	485.096	-0.066	0.153
-600.084	163.988	0.125	0.179
-599.069	-44.337	-0.234	0.119
-598.055	-47.831	-0.190	0.093
-597.040	-59.242	-0.128	-0.056
-596.025	39.899	0.020	0.018
-595.011	150.091	-0.229	0.315
-593.996	-95.463	-0.242	-0.066
-592.982	43.183	-0.079	-0.074
-591.967	-67.819	0.042	0.017
-590.952	619.447	-0.164	-0.419
-589.938	30.076	0.092	-0.080
-588.923	65.448	-0.152	-0.156
-587.909	-154.900	0.348	0.023
-586.894	-97.015	0.089	0.024
-585.879	-200.000	0.034	0.368
-584.865	-200.000	0.000	-0.195
-583.850	795.314	0.063	-0.175
-582.836	-130.472	-0.154	-0.021
-581.821	474.483	0.134	-0.308
-580.806	800.000	-0.027	0.119
-579.792	800.000	0.073	-0.239
-578.777	-158.217	0.206	-0.012
-577.763	800.000	-0.060	0.189
-576.748	800.000	0.019	0.068
-575.733	45.695	0.372	0.349
-574.719	24.652	-0.230	0.193
-573.704	97.924	0.098	0.114
-572.690	-34.749	0.186	-0.103
-571.675	100.369	-0.075	0.088
-570.661	-200.000	0.017	-0.293
-569.646	576.110	-0.187	-0.464
-568.631	-200.000	0.024	-0.236
-567.617	-200.000	0.016	0.304
-566.602	34.086	0.072	0.063
-565.588	800.000	-0.028	-0.114
-564.573	-200.000	-0.003	-0.306
-563.558	-87.113	0.348	0.107
-562.544	-75.191	-0.451	0.163
-561.529	-200.000	-0.033	0.422
-560.515	-161.968	-0.020	0.001
-559.500	-14.449	-0.263	0.171
-558.485	77.855	0.083	-0.090
-557.471	110.169	-0.032	0.039
-556.456	248.422	-0.131	-0.224
-555.442	-200.000	-0.046	0.264
-554.427	-200.000	0.044	-0.299
-553.412	-98.244	-0.179	-0.047
-552.398	73.346	0.047	-0.050
-551.383	-4.616	-0.039	-0.027
-550.369	190.620	0.140	-0.213
-549.354	170.596	0.208	-0.302
-548.339	420.351	0.052	0.112
-547.325	-81.551	0.286	0.095
-546.310	203.340	0.092	0.144
-545.296	800.000	-0.141	0.399
-544.281	-41.617	-0.271	-0.141
-543.266	-8.521	-0.214	-0.146
-542.252	-45.627	0.212	-0.106
-541.237	-13.521	-0.215	-0.141
-540.223	124.258	-0.182	0.232
-539.208	-107.189	-0.145	-0.032
-538.193	-123.380	-0.307	0.050
-537.179	-200.000	-0.039	-0.197
-536.164	127.942	-0.156	-0.201
-535.150	-67.443	0.315	-0.125
-534.135	800.000	-0.018	0.052
-533.121	-200.000	0.019	0.159
-532.106	280.800	-0.064	0.116
-531.091	88.816	-0.237	0.267
-530.077	-200.000	0.026	-0.117
-529.062	-133.968	0.109	-0.014
-528.048	-200.000	-0.008	-0.145
-527.033	-200.000	0.064	-0.315
-526.018	25.788	0.110	0.093
-525.004	134.235	-0.220	-0.288
-523.989	-89.890	-0.200	-0.059
-522.975	267.703	-0.106	0.188
-521.960	-182.666	-0.179	-0.003
-520.945	-58.733	-0.216	-0.095
-519.931	-47.047	0.312	0.154
-518.916	-43.528	-0.286	0.146
-517.902	-64.954	0.159	-0.065
-516.887	-109.758	-0.133	-0.028
-515.872	800.000	-0.041	0.142
-514.858	-66.058	-0.142	-0.058
-513.843	-200.000	0.018	0.206
-512.829	-82.742	-0.157	0.051
-511.814	85.398	-0.215	-0.239
-510.799	-69.191	0.105	0.041
-509.785	63.330	-0.178	0.180
-508.770	135.835	-0.157	0.207
-507.756	432.176	0.066	0.145
-506.741	355.552	0.055	-0.110
-505.726	571.956	-0.099	-0.245
-504.712	-141.195	0.114	-0.012
-503.697	80.498	-0.049	-0.053
-502.683	-171.561	0.013	0.000
-501.668	216.532	-0.042	0.067
-500.653	-89.659	-0.185	-0.055
-499.639	800.000	-0.015	0.046
-498.624	99.191	-0.133	0.156
-497.610	243.329	-0.058	-0.098
-496.595	800.000	-0.071	0.276
-495.581	-200.000	-0.009	0.316
-494.566	18.375	0.290	-0.234
-493.551	-108.075	-0.080	0.018
-492.537	-80.795	-0.137	0.046
-491.522	-26.034	-0.123	0.073
-490.508	800.000	0.127	0.537
-489.493	100.793	-0.077	0.091
-488.478	800.000	-0.027	0.089
-487.464	-108.648	-0.269	0.058
-486.449	-200.000	-0.008	0.160
-485.435	800.000	0.011	0.048
-484.420	800.000	0.041	0.116
-483.405	-79.132	0.218	0.075
-482.391	-200.000	-0.056	-0.315
-481.376	-36.000	-0.168	0.092
-480.362	241.772	0.131	-0.221
-479.347	47.990	0.303	0.286
-478.332	486.590	0.176	0.406
-477.318	151.243	0.245	0.336
-476.303	46.567	-0.198	0.185
-475.289	800.000	-0.073	0.241
-474.274	-50.444	-0.368	-0.175
-473.259	800.000	0.052	-0.180
-472.245	-200.000	0.062	-0.481
-471.230	-53.503	-0.002	0.001
-470.216	-90.098	-0.077	-0.023
-469.201	15.235	0.465	-0.368
-468.186	-162.278	-0.353	0.018
-467.172	-142.131	0.083	-0.008
-466.157	800.000	0.038	0.119
-465.143	800.000	0.017	-0.061
-464.128	-200.000	0.029	-0.523
-463.113	-3.008	0.033	0.024
-462.099	513.385	-0.053	-0.126
-461.084	177.570	0.123	-0.181
-460.070	7.054	0.259	-0.195
-459.055	-85.848	0.117	0.037
-458.040	-111.631	-0.470	-0.096
-457.026	611.717	-0.036	0.090
-456.011	-200.000	-0.025	0.122
-454.997	-33.886	-0.335	0.186
-453.982	382.143	-0.053	0.110
-452.968	-200.000	-0.027	0.215
-451.953	62.303	-0.218	-0.220
-450.938	-108.075	-0.164	0.036
-449.924	-200.000	-0.012	0.141
-448.909	-200.000	-0.048	-0.248
-447.895	128.300	0.098	0.126
-446.880	-65.810	0.329	-0.133
-445.865	538.747	0.106	0.253
-444.851	232.446	0.114	0.189
-443.836	29.630	-0.257	-0.220
-442.822	24.086	0.054	-0.045
-441.807	77.977	0.044	0.047
-440.792	74.192	-0.098	0.103
-439.778	-97.388	0.431	-0.113
-438.763	-200.000	-0.068	-0.333
-437.749	-128.855	-0.375	0.053
-436.734	254.716	-0.175	0.302
-435.719	-79.851	0.195	0.066
-434.705	-151.196	0.211	0.016
-433.690	-110.345	0.335	-0.070
-432.676	800.000	0.028	0.080
-431.661	27.102	0.128	0.108
-430.646	-200.000	-0.003	0.092
-429.632	-81.960	0.280	0.092
-428.617	-87.936	0.267	0.081
-427.603	166.930	-0.050	-0.071
-426.588	-200.000	0.010	0.426
-425.573	139.647	0.289	0.383
-424.559	528.948	0.066	-0.156
-423.544	-98.781	-0.352	0.090
-422.530	800.000	0.022	-0.075
-421.515	-15.287	0.135	-0.087
-420.500	-11.958	0.154	-0.102
-419.486	41.986	0.256	-0.234
-418.471	800.000	-0.086	0.332
-417.457	-83.084	-0.482	0.156
-416.442	111.030	-0.157	-0.191
-415.428	41.217	-0.097	-0.088
-414.413	142.105	0.104	-0.138
-413.398	56.163	-0.195	0.191
-412.384	64.497	-0.172	0.175
-411.369	-200.000	0.034	-0.262
-410.355	-100.904	0.081	0.020
-409.340	140.716	0.188	0.251
-408.325	100.131	0.342	-0.399
-407.311	-180.797	-0.029	-0.001
-406.296	-200.000	0.033	0.360
-405.282	-14.945	-0.316	0.204
-404.267	-186.426	-0.367	0.005
-403.252	1.041	0.212	-0.153
-402.238	-77.514	0.228	-0.079
-401.223	800.000	-0.101	-0.286
-400.209	-53.104	-0.138	-0.064
-399.194	139.171	0.143	-0.190
-398.179	-99.721	-0.360	0.091
-397.165	-115.630	0.089	0.017
-396.150	80.406	-0.254	-0.276
-395.136	287.402	-0.082	-0.150
-394.121	125.281	0.245	0.311
-393.106	-45.154	-0.130	-0.065
-392.092	-128.236	0.049	0.007
-391.077	-117.272	-0.228	-0.042
-390.063	-200.000	-0.050	0.271
-389.048	-108.683	-0.195	0.042
-388.033	-142.062	0.023	0.002
-387.019	-127.501	0.017	-0.003
-386.004	577.945	-0.076	0.188
-384.990	47.742	-0.136	0.127
-383.975	-81.765	-0.203	-0.067
-382.960	-55.323	-0.187	0.085
-381.946	-200.000	0.057	0.292
-380.931	-147.021	0.101	-0.009
-379.917	-11.020	-0.325	-0.216
-378.902	-6.469	-0.099	-0.068
-377.888	-200.000	0.029	0.159
-376.873	79.933	0.226	0.245
-375.858	-92.584	0.318	0.090
-374.844	-200.000	0.055	-0.375
-373.829	367.084	-0.174	0.354
-372.815	800.000	0.071	0.260
-371.800	-200.000	-0.015	0.131
-370.785	-200.000	0.014	0.143
-369.771	-161.038	-0.390	0.021
-368.756	-101.313	-0.108	-0.026
-367.742	651.145	-0.022	-0.057
-366.727	-56.322	-0.180	-0.081
-365.712	-35.902	0.084	-0.046
-364.698	-121.696	0.110	0.018
-363.683	-111.563	0.146	0.030
-362.669	157.464	0.095	-0.132
-361.654	310.175	0.038	-0.071
-360.639	-122.327	-0.143	0.023
-359.625	-200.000	0.054	0.347
-358.610	-94.714	-0.337	0.092
-357.596	200.733	-0.156	0.242
-356.581	128.183	-0.145	-0.185
-355.566	-43.341	-0.183	-0.093
-354.552	357.867	-0.078	0.156
-353.537	-85.658	0.083	-0.026
-352.523	-200.000	-0.027	-0.190
-351.508	-65.715	0.260	-0.105
-350.493	-33.223	0.233	-0.130
-349.479	800.000	0.026	0.089
-348.464	-200.000	0.021	0.294
-347.450	70.298	-0.236	0.245
-346.435	800.000	-0.028	0.101
-345.420	-200.000	0.027	-0.205
-344.406	-151.915	0.131	0.010
-343.391	24.688	0.385	0.321
-342.377	28.236	0.333	-0.283
-341.362	800.000	0.086	-0.292
-340.348	800.000	-0.029	-0.097
-339.333	759.167	-0.085	0.230
-338.318	-135.852	-0.355	0.042
-337.304	106.101	-0.172	-0.205
-336.289	-200.000	0.024	-0.146
-335.275	-39.078	-0.096	-0.051
-334.260	-118.663	0.141	-0.025
-333.245	-133.488	0.066	0.008
-332.231	73.258	-0.073	-0.076
-331.216	555.184	0.147	-0.356
-330.202	515.404	0.074	-0.173
-329.187	352.674	-0.065	0.130
-328.172	225.517	0.074	0.121
-327.158	25.649	-0.052	-0.043
-326.143	-165.284	-0.134	0.006
-325.129	-64.893	0.239	0.097
-324.114	230.728	0.277	-0.454
-323.099	-200.000	-0.057	-0.466
-322.085	-101.714	0.239	-0.058
-321.070	57.792	0.245	0.241
-320.056	517.811	0.015	0.035
-319.041	800.000	-0.073	-0.203
-318.026	-181.267	-0.232	-0.005
-317.012	-113.599	0.131	-0.026
-315.997	-101.609	0.110	-0.027
-314.983	39.442	0.087	-0.078
-313.968	-37.505	0.061	-0.033
-312.953	-200.000	-0.013	0.061
-311.939	800.000	-0.111	0.350
-310.924	-64.482	-0.168	0.069
-309.910	-77.164	0.265	-0.093
-308.895	348.751	-0.079	0.157
-307.880	247.134	-0.175	0.297
-306.866	437.112	-0.148	-0.323
-305.851	550.197	0.045	-0.108
-304.837	-164.318	0.192	0.009
-303.822	654.264	0.078	0.200
-302.807	0.683	0.190	-0.137
-301.793	-200.000	0.007	-0.170
-300.778	-115.167	-0.308	0.059
-299.764	-200.000	0.168	0.000
-298.749	-58.570	0.256	-0.111
-297.735	-93.620	-0.074	-0.020
-296.720	800.000	-0.140	0.443
-295.705	108.201	0.144	-0.172
-294.691	-170.707	-0.457	0.016
-293.676	-24.274	0.083	0.050
-292.662	-97.770	0.202	-0.053
-291.647	75.838	-0.105	-0.112
-290.632	-200.000	-0.025	-0.234
-289.618	800.000	0.047	-0.133
-288.603	-200.000	0.039	0.207
-287.589	-46.124	0.046	0.023
-286.574	63.118	0.151	0.151
-285.559	-46.738	-0.173	0.085
-284.545	-112.607	0.259	0.052
-283.530	-26.496	-0.145	0.085
-282.516	67.244	-0.132	0.135
-281.501	-82.715	-0.271	-0.088
-280.486	-200.000	0.007	-0.195
-279.472	431.160	0.068	0.148
-278.457	-81.644	-0.170	0.056
-277.443	260.757	0.157	-0.273
-276.428	800.000	0.021	-0.064
-275.413	800.000	0.117	0.332
-274.399	-63.047	0.276	0.114
-273.384	309.898	0.260	0.487
-272.370	800.000	-0.077	-0.323
-271.355	-130.690	0.077	0.010
-270.340	800.000	0.079	0.335
-269.326	-109.397	0.147	0.031
-268.311	316.141	-0.065	0.123
-267.297	-170.055	0.124	0.004
-266.282	-29.256	0.156	0.089
-265.267	800.000	0.032	0.095
-264.253	-58.310	0.176	0.077
-263.238	30.210	0.171	0.146
-262.224	383.914	0.094	-0.195
-261.209	488.895	-0.104	-0.237
-260.195	47.412	-0.037	-0.034
-259.180	129.281	0.104	0.133
-258.165	-72.891	0.211	-0.078
-257.151	800.000	-0.103	-0.295
-256.136	-60.449	-0.261	-0.111
-255.122	5.477	0.353	0.261
-254.107	-121.874	0.444	0.073
-253.092	-61.728	0.180	0.075
-252.078	800.000	0.039	-0.162
-251.063	-89.900	0.327	0.096
-250.049	-200.000	-0.001	0.030
-249.034	4.374	0.222	0.163
-248.019	-102.092	0.143	-0.035
-247.005	-200.000	-0.018	-0.094
-245.990	-200.000	-0.054	-0.244
-244.976	36.801	-0.211	-0.187
-243.961	-22.906	0.129	-0.078
-242.946	-135.367	-0.374	-0.045
-241.932	-124.307	0.172	0.027
-240.917	610.456	-0.120	-0.301
-239.903	-29.033	0.213	-0.123
-238.888	800.000	0.029	-0.120
-237.873	-144.335	-0.039	0.004
-236.859	576.026	-0.147	0.360
-235.844	-64.934	-0.291	0.118
-234.830	516.879	0.030	0.071
-233.815	-200.000	0.000	0.550
-232.800	225.191	0.132	-0.214
-231.786	110.150	-0.140	-0.168
-230.771	120.776	-0.092	-0.114
-229.757	-118.533	-0.085	0.015
-228.742	800.000	0.048	-0.145
-227.727	170.841	-0.078	-0.112
-226.713	800.000	-0.016	0.044
-225.698	-200.000	-0.018	0.219
-224.684	-91.788	0.222	0.063
-223.669	-68.675	-0.138	-0.053
-222.655	-62.415	-0.334	-0.139
-221.640	-66.884	-0.218	0.086
-220.625	259.272	0.089	-0.153
-219.611	-46.923	0.051	-0.025
-218.596	-200.000	0.008	0.132
-217.582	800.000	0.031	-0.133
-216.567	-9.489	0.168	-0.112
-215.552	-200.000	0.056	-0.247
-214.538	765.485	0.087	-0.236
-213.523	298.737	0.067	-0.123
-212.509	184.659	0.171	-0.254
-211.494	-200.000	0.045	0.252
-210.479	-50.255	0.296	0.140
-209.465	-57.253	0.191	0.084
-208.450	800.000	-0.064	-0.211
-207.436	-12.301	-0.251	-0.164
-206.421	20.345	0.055	0.044
-205.406	68.228	-0.267	-0.273
-204.392	310.098	0.063	0.119
-203.377	-105.522	0.178	0.040
-202.363	800.000	0.065	-0.257
-201.348	-5.100	0.088	-0.060
-200.333	213.259	-0.105	0.165
-199.319	298.297	-0.069	-0.128
-198.304	153.494	-0.082	0.112
-197.290	-87.742	-0.297	-0.090
-196.275	-62.754	-0.122	-0.051
-195.260	78.551	0.140	-0.149
-194.246	-43.813	-0.240	0.121
-193.231	-22.020	0.169	0.103
-192.217	-200.000	0.022	-0.294
-191.202	163.301	-0.108	-0.152
-190.187	-126.322	-0.109	-0.016
-189.173	293.401	-0.106	-0.193
-188.158	136.852	-0.063	0.082
-187.144	-124.459	0.345	0.054
-186.129	-104.808	-0.311	0.071
-185.114	-83.176	-0.209	0.067
-184.100	-75.783	0.258	-0.091
-183.085	333.755	-0.129	-0.248
-182.071	114.389	-0.139	0.169
-181.056	-124.333	0.128	0.020
-180.042	-39.636	-0.157	-0.082
-179.027	101.331	-0.061	-0.071
-178.012	800.000	0.082	-0.355
-176.998	-60.630	0.088	-0.037
-175.983	45.150	0.276	-0.254
-174.969	-103.174	0.256	0.060
-173.954	77.547	-0.200	0.213
-172.939	-10.369	0.274	-0.182
-171.925	234.439	0.026	-0.044
-170.910	132.768	-0.106	0.136
-169.896	33.945	0.077	-0.067
-168.881	342.486	0.067	-0.131
-167.866	346.197	0.148	0.291
-166.852	308.710	0.047	-0.088
-165.837	-91.927	-0.163	0.046
-164.823	-58.698	0.279	0.121
-163.808	64.587	0.226	0.228
-162.793	-47.609	-0.338	-0.164
-161.779	546.685	-0.120	0.287
-160.764	-200.000	-0.000	-0.133
-159.750	-87.590	0.143	0.043
-158.735	-200.000	-0.017	-0.120
-157.720	-66.482	0.036	0.014
-156.706	-160.994	0.253	-0.013
-155.691	-155.206	-0.132	-0.009
-154.677	72.915	-0.173	0.181
-153.662	173.916	-0.246	-0.354
-152.647	-200.000	-0.087	-0.391
-151.633	-132.015	0.253	-0.033
-150.618	-200.000	0.020	0.154
-149.604	-108.366	-0.274	0.059
-148.589	81.934	0.150	-0.162
-147.574	-20.907	-0.004	-0.002
-146.560	-128.042	0.336	0.048
-145.545	210.671	-0.042	0.066
-144.531	65.241	-0.136	-0.138
-143.516	111.392	0.175	0.211
-142.502	-200.000	0.024	0.209
-141.487	418.183	-0.026	0.056
-140.472	-81.960	-0.170	0.056
-139.458	-30.277	-0.104	0.059
-138.443	-40.369	-0.174	0.090
-137.429	800.000	-0.044	0.123
-136.414	269.681	0.108	-0.189
-135.399	149.026	-0.077	-0.103
-134.385	800.000	0.079	0.226
-133.370	31.137	-0.207	0.177
-132.356	-34.724	0.382	0.208
-131.341	-200.000	-0.016	0.069
-130.326	-200.000	-0.051	-0.305
-129.312	-182.533	-0.228	-0.004
-128.297	800.000	-0.003	-0.012
-127.283	71.241	-0.180	0.186
-126.268	20.728	-0.152	0.123
-125.253	74.639	0.146	0.153
-124.239	-139.921	0.062	-0.007
-123.224	-167.869	0.291	0.011
-122.210	-76.839	-0.176	-0.061
-121.195	800.000	0.070	0.285
-120.180	-200.000	0.064	0.425
-119.166	-200.000	-0.026	-0.458
-118.151	-93.325	0.359	0.099
-117.137	800.000	0.030	0.131
-116.122	-200.000	0.024	-0.126
-115.107	-200.000	-0.055	-0.282
-114.093	555.712	0.064	0.153
-113.078	10.303	0.162	-0.123
-112.064	14.548	-0.091	-0.071
-111.049	-107.266	-0.165	0.036
-110.034	-200.000	0.058	-0.265
-109.020	-21.388	0.020	-0.012
-108.005	-82.550	-0.164	0.053
-106.991	369.695	-0.143	-0.288
-105.976	333.575	-0.070	-0.135
-104.962	-80.469	0.431	0.143
-103.947	800.000	-0.027	0.096
-102.932	-151.022	0.567	0.043
-101.918	800.000	0.014	0.041
-100.903	214.181	0.180	-0.283
-99.889	-200.000	-0.020	-0.228
-98.874	-200.000	0.040	-0.248
-97.859	-200.000	0.007	0.040
-96.845	-120.823	-0.354	0.059
-95.830	-200.000	0.048	0.221
-94.816	800.000	-0.069	-0.291
-93.801	65.376	0.187	0.188
-92.786	-25.245	-0.112	0.066
-91.772	109.930	0.199	0.237
-90.757	6.204	0.037	-0.027
-89.743	-200.000	-0.061	-0.000
-88.728	-142.823	-0.239	-0.023
-87.713	-120.723	0.021	0.004
-86.699	523.137	-0.175	0.409
-85.684	-183.765	-0.055	-0.001
-84.670	246.232	0.036	0.060
-83.655	-185.273	0.359	-0.006
-82.640	800.000	-0.037	0.115
-81.626	-124.429	-0.292	-0.045
-80.611	-80.031	0.192	-0.064
-79.597	800.000	-0.044	0.149
-78.582	-97.552	0.192	-0.050
-77.567	-200.000	0.042	0.301
-76.553	-117.067	0.118	0.021
-75.538	-165.344	0.221	-0.010
-74.524	800.000	-0.079	-0.331
-73.509	-200.000	0.008	0.064
-72.494	-103.584	0.066	-0.015
-71.480	-37.076	-0.086	0.046
-70.465	-200.000	-0.000	0.271
-69.451	-66.619	0.350	-0.138
-68.436	337.967	0.052	-0.101
-67.422	-200.000	-0.025	-0.200
-66.407	11.393	0.227	0.173
-65.392	-200.000	-0.051	0.389
-64.378	9.074	-0.295	0.221
-63.363	-146.944	-0.044	-0.004
-62.349	800.000	0.041	0.173
-61.334	-15.974	-0.944	-0.597
-60.319	149.268	0.067	0.090
-59.305	756.081	-0.298	-0.800
-58.290	208.239	0.387	0.601
-57.276	604.416	0.554	1.371
-56.261	-200.000	89.391	509.204
-55.246	550.103	1385.938	3302.396
-54.232	184.801	2602.238	3833.556
-53.217	112.925	2348.849	2828.026
-52.203	43.516	2093.205	1901.402
-51.188	38.761	2004.023	1777.349
-50.173	37.260	1984.782	1746.728
-49.159	50.520	2032.700	1909.895
-48.144	53.599	2052.607	1956.591
-47.130	39.516	2011.470	1790.536
-46.115	37.025	1999.552	1757.316
-45.100	36.942	1996.826	1754.095
-44.086	37.045	1993.902	1752.388
-43.071	36.946	1991.788	1749.569
-42.057	36.864	1989.783	1747.002
-41.042	36.869	1988.110	1745.506
-40.027	36.910	1986.034	1743.983
-39.013	36.856	1984.355	1741.956
-37.998	36.832	1982.324	1739.891
-36.984	36.852	1980.924	1738.772
-35.969	36.903	1978.406	1736.947
-34.954	36.981	1976.368	1735.790
-33.940	37.057	1974.906	1735.116
-32.925	36.985	1973.934	1733.547
-31.911	37.013	1971.717	1731.778
-30.896	37.078	1970.012	1730.792
-29.881	37.063	1968.537	1729.301
-28.867	37.097	1967.170	1728.335
-27.852	37.142	1965.349	1727.061
-26.838	37.104	1963.220	1724.784
-25.823	37.007	1961.433	1722.283
-24.809	37.008	1959.672	1720.683
-23.794	37.017	1957.966	1719.196
-22.779	36.974	1956.077	1717.085
-21.765	37.021	1954.246	1715.828
-20.750	36.996	1952.711	1714.190
-19.736	36.933	1951.189	1712.229
-18.721	36.985	1949.772	1711.380
-17.706	36.916	1948.450	1709.540
-16.692	36.933	1946.650	1708.046
-15.677	36.922	1944.629	1706.102
-14.663	36.972	1943.079	1705.118
-13.648	36.986	1942.116	1704.326
-12.633	36.985	1941.096	1703.355
-11.619	36.991	1939.507	1701.943
-10.604	36.940	1937.994	1700.103
-9.590	36.925	1937.160	1699.175
-8.575	36.954	1935.311	1697.740
-7.560	36.906	1934.657	1696.676
-6.546	36.901	1932.940	1695.058
-5.531	36.945	1931.260	1693.904
-4.517	36.972	1929.673	1692.678
-3.502	36.983	1928.627	1691.793
-2.487	37.019	1927.394	1690.957
-1.473	36.915	1927.408	1689.997
-0.458	37.025	1922.475	1686.558
0.556	37.391	1902.694	1657.075
1.571	32.692	1881.420	1598.670
2.586	28.113	1901.749	1576.442
3.600	26.805	1937.540	1594.467
4.615	25.778	1932.257	1580.968
5.629	19.728	1830.211	1446.873
6.644	9.967	1708.364	1273.800
7.659	5.367	1669.194	1208.980
8.673	5.007	1665.799	1203.630
9.688	4.959	1664.676	1202.340
10.702	4.916	1663.302	1200.910
11.717	5.009	1659.936	1199.094
12.731	5.405	1660.180	1202.208
13.746	11.492	1674.535	1259.578
14.761	19.374	1691.018	1333.030
15.775	21.087	1692.179	1347.066
16.790	19.858	1688.960	1334.905
17.804	18.859	1684.990	1323.958
18.819	17.726	1681.800	1312.618
19.834	17.060	1679.533	1305.610
20.848	16.868	1677.778	1302.660
21.863	16.647	1676.208	1299.626
22.877	16.414	1674.559	1296.447
23.892	16.216	1673.040	1293.634
24.907	16.162	1672.186	1292.448
25.921	16.050	1671.557	1290.989
26.936	16.042	1670.175	1289.747
27.950	16.127	1669.530	1289.788
28.965	16.146	1668.938	1289.356
29.980	16.148	1668.378	1288.827
30.994	16.246	1667.148	1288.508
32.009	16.441	1665.802	1288.844
33.023	16.388	1665.292	1287.927
34.038	16.435	1664.564	1287.614
35.053	16.386	1663.054	1285.958
36.067	16.352	1661.406	1284.309
37.082	16.360	1660.662	1283.681
38.096	16.296	1659.914	1282.504
39.111	16.305	1659.006	1281.758
40.126	16.301	1658.366	1281.116
41.140	16.343	1657.745	1280.844
42.155	16.196	1655.563	1277.935
43.169	16.101	1653.723	1275.679
44.184	16.017	1653.150	1274.487
45.199	15.967	1651.642	1272.840
46.213	15.918	1650.836	1271.735
47.228	15.992	1649.453	1271.111
48.242	16.115	1648.675	1271.326
49.257	16.178	1647.966	1271.145
50.271	16.170	1646.374	1269.742
51.286	16.159	1644.935	1268.436
52.301	16.101	1643.891	1267.083
53.315	16.191	1642.338	1266.451
54.330	16.216	1640.573	1265.168
55.344	16.121	1638.816	1262.985
56.359	16.091	1637.418	1261.572
57.374	15.979	1636.781	1260.137
58.388	16.118	1635.728	1260.252
59.403	15.992	1634.344	1258.130
60.417	15.948	1632.881	1256.570
61.432	15.930	1631.863	1255.540
62.447	15.821	1631.072	1254.009
63.461	15.894	1629.474	1253.213
64.476	15.842	1628.438	1251.913
65.490	15.787	1626.969	1250.265
66.505	15.738	1626.400	1249.356
67.520	15.842	1624.856	1248.827
68.534	15.932	1623.487	1248.337
69.549	15.871	1622.702	1247.172
70.563	15.981	1621.233	1246.743
71.578	15.833	1620.215	1244.755
72.593	15.804	1619.057	1243.543
73.607	15.708	1618.117	1241.999
74.622	15.706	1616.831	1240.890
75.636	15.613	1616.186	1239.598
76.651	15.726	1615.267	1239.613
77.666	15.792	1614.393	1239.325
78.680	15.802	1613.311	1238.455
79.695	15.801	1612.534	1237.744
80.709	15.869	1611.887	1237.638
81.724	15.856	1611.338	1237.008
82.739	15.964	1610.024	1236.683
83.753	16.046	1608.858	1236.279
84.768	16.134	1608.266	1236.361
85.782	16.248	1607.360	1236.390
86.797	16.338	1606.796	1236.508
87.812	16.310	1606.014	1235.593
88.826	16.216	1604.553	1233.673
89.841	16.094	1603.798	1232.091
90.855	16.171	1602.767	1231.748
91.870	16.177	1601.922	1231.034
92.884	16.224	1600.689	1230.320
93.899	16.233	1600.224	1229.922
94.914	16.308	1598.239	1228.831
95.928	16.327	1597.414	1228.225
96.943	16.393	1596.234	1227.691
97.957	16.302	1594.868	1225.871
98.972	16.229	1593.567	1224.231
99.987	16.271	1591.764	1223.046
101.001	16.197	1590.189	1221.190
102.016	16.226	1588.807	1220.229
103.030	16.299	1587.074	1219.320
104.045	16.236	1586.677	1218.453
105.060	16.261	1585.357	1217.507
106.074	16.224	1583.693	1215.859
107.089	16.052	1582.244	1213.400
108.103	15.916	1580.199	1210.749
109.118	15.874	1579.038	1209.451
110.133	15.882	1577.388	1208.137
111.147	15.858	1576.257	1206.990
112.162	15.871	1574.763	1205.830
113.176	15.931	1573.448	1205.147
114.191	15.901	1572.330	1203.967
115.206	15.937	1571.356	1203.371
116.220	15.954	1570.101	1202.432
117.235	16.007	1568.726	1201.644
118.249	15.895	1567.744	1199.992
119.264	15.902	1566.580	1199.046
120.279	15.901	1564.826	1197.585
121.293	15.955	1563.672	1196.979
122.308	15.874	1561.949	1194.986
123.322	15.892	1560.527	1193.915
124.337	15.807	1559.375	1192.328
125.352	15.745	1557.796	1190.573
126.366	15.786	1556.713	1189.930
127.381	15.858	1555.478	1189.390
128.395	15.841	1554.592	1188.489
129.410	15.802	1553.523	1187.295
130.424	15.760	1552.641	1186.212
131.439	15.964	1550.544	1185.944
132.454	15.959	1549.661	1185.129
133.468	15.903	1548.224	1183.533
134.483	15.991	1546.855	1183.001
135.497	16.096	1545.281	1182.429
136.512	16.083	1544.113	1181.339
137.527	16.100	1542.784	1180.338
138.541	16.030	1541.492	1178.750
139.556	16.061	1540.488	1178.096
140.570	16.070	1538.891	1176.837
141.585	16.190	1537.803	1176.734
142.600	16.251	1536.764	1176.265
143.614	16.244	1536.020	1175.541
144.629	16.371	1534.618	1175.249
145.643	16.333	1532.987	1173.628
146.658	16.337	1532.141	1172.903
147.673	16.329	1530.303	1171.341
148.687	16.311	1529.204	1170.273
149.702	16.233	1527.564	1168.372
150.716	16.152	1525.879	1166.421
151.731	16.121	1524.706	1165.203
152.746	16.082	1523.120	1163.623
153.760	16.133	1521.587	1162.696
154.775	16.198	1520.632	1162.311
155.789	16.212	1519.444	1161.397
156.804	16.217	1518.499	1160.608
157.819	16.239	1517.506	1159.897
158.833	16.296	1516.303	1159.265
159.848	16.389	1515.424	1159.134
160.862	16.506	1513.677	1158.492
161.877	16.485	1512.505	1157.352
162.892	16.406	1511.505	1155.942
163.906	16.237	1509.850	1153.417
164.921	16.180	1508.584	1151.964
165.935	16.151	1507.880	1151.123
166.950	16.094	1507.281	1150.176
167.964	16.271	1505.965	1150.273
168.979	16.284	1504.510	1149.149
169.994	16.351	1503.501	1148.737
171.008	16.306	1502.529	1147.581
172.023	16.275	1501.703	1146.642
173.037	16.340	1500.272	1145.886
174.052	16.342	1500.142	1145.700
175.067	16.467	1498.841	1145.450
176.081	16.424	1497.091	1143.720
177.096	16.338	1495.738	1142.007
178.110	16.302	1494.487	1140.704
179.125	16.284	1493.500	1139.730
180.140	16.285	1492.527	1138.895
181.154	16.348	1491.732	1138.612
182.169	16.391	1490.721	1138.031
183.183	16.467	1489.469	1137.484
184.198	16.515	1488.221	1136.753
185.213	16.569	1487.101	1136.160
186.227	16.595	1486.092	1135.466
187.242	16.604	1485.194	1134.739
188.256	16.639	1484.171	1134.090
189.271	16.616	1483.512	1133.334
190.286	16.724	1482.674	1133.317
191.300	16.652	1481.258	1131.653
192.315	16.430	1479.948	1129.068
193.329	16.385	1478.226	1127.352
194.344	16.241	1477.132	1125.460
195.359	16.235	1476.407	1124.766
196.373	16.439	1475.349	1125.220
197.388	16.543	1473.979	1124.766
198.402	16.574	1473.123	1124.220
199.417	16.693	1472.516	1124.448
200.432	16.834	1471.348	1124.391
201.446	16.836	1470.926	1123.984
202.461	16.912	1469.161	1123.035
203.475	17.000	1468.262	1122.832
204.490	17.003	1467.207	1121.949
205.504	16.907	1466.046	1120.325
206.519	16.828	1464.742	1118.708
207.534	16.794	1463.717	1117.604
208.548	16.697	1462.958	1116.284
209.563	16.782	1461.548	1115.670
210.577	16.850	1460.637	1115.327
211.592	16.701	1460.019	1113.774
212.607	16.801	1459.486	1113.925
213.621	16.962	1458.675	1114.265
214.636	17.020	1457.733	1113.828
215.650	16.991	1456.703	1112.751
216.665	16.905	1455.842	1111.432
217.680	16.917	1455.336	1111.027
218.694	17.079	1454.359	1111.242
219.709	17.102	1453.386	1110.555
220.723	17.091	1452.540	1109.737
221.738	17.043	1451.612	1108.611
222.753	16.996	1450.966	1107.715
223.767	17.063	1449.792	1107.156
224.782	17.136	1448.249	1106.360
225.796	17.093	1448.115	1105.878
226.811	17.187	1447.412	1105.854
227.826	17.195	1445.944	1104.688
228.840	17.152	1445.186	1103.733
229.855	17.189	1443.937	1102.919
230.869	17.096	1443.187	1101.648
231.884	17.064	1442.196	1100.587
232.899	17.081	1441.037	1099.714
233.913	17.040	1439.282	1098.012
234.928	16.931	1438.600	1096.686
235.942	16.995	1437.254	1095.979
236.957	16.965	1435.900	1094.656
237.972	16.975	1435.014	1093.950
238.986	16.991	1434.045	1093.218
240.001	17.032	1433.374	1092.871
241.015	17.074	1432.000	1091.995
242.030	17.001	1430.760	1090.487
243.045	17.124	1429.759	1090.419
244.059	17.143	1429.345	1090.125
245.074	17.136	1428.663	1089.461
246.088	17.158	1427.791	1088.842
247.103	17.230	1427.088	1088.672
248.117	17.192	1426.184	1087.645
249.132	17.342	1425.454	1087.948
250.147	17.394	1424.828	1087.709
251.161	17.548	1424.308	1088.202
252.176	17.641	1423.657	1088.201
253.190	17.714	1423.057	1088.111
254.205	17.672	1422.175	1087.076
255.220	17.774	1420.821	1086.590
256.234	17.824	1420.643	1086.677
257.249	17.843	1419.497	1085.825
258.263	17.749	1418.810	1084.610
259.278	17.765	1417.757	1083.809
260.293	17.791	1416.647	1083.027
261.307	17.857	1415.883	1082.769
262.322	17.894	1415.104	1082.308
263.336	17.843	1414.658	1081.549
264.351	17.913	1413.757	1081.205
265.366	17.913	1413.004	1080.535
266.380	17.935	1411.913	1079.748
267.395	17.955	1410.675	1078.831
268.409	17.976	1409.978	1078.332
269.424	17.991	1408.482	1077.191
270.439	17.777	1407.905	1075.304
271.453	17.848	1406.870	1074.868
272.468	17.796	1406.099	1073.852
273.482	17.831	1405.276	1073.351
274.497	17.788	1404.310	1072.245
275.512	17.885	1403.169	1071.888
276.526	17.883	1402.418	1071.208
277.541	17.788	1401.273	1069.644
278.555	17.890	1400.697	1069.750
279.570	17.911	1399.966	1069.229
280.585	17.913	1399.106	1068.486
281.599	18.018	1398.530	1068.611
282.614	18.014	1397.534	1067.728
283.628	18.015	1396.420	1066.788
284.643	17.978	1395.350	1065.650
285.657	17.876	1393.883	1063.800
286.672	17.859	1393.405	1063.235
287.687	17.966	1392.143	1062.844
288.701	18.019	1391.053	1062.244
289.716	18.003	1390.505	1061.635
290.730	18.024	1389.901	1061.212
291.745	18.062	1387.847	1059.784
292.760	18.129	1387.540	1059.867
293.774	18.083	1386.527	1058.719
294.789	18.178	1385.240	1058.231
295.803	18.264	1384.835	1058.360
296.818	18.213	1384.025	1057.332
297.833	18.189	1383.088	1056.371
298.847	18.121	1382.586	1055.475
299.862	18.131	1381.327	1054.484
300.876	18.097	1380.075	1053.226
301.891	18.249	1379.017	1053.258
302.906	18.252	1378.442	1052.747
303.920	18.347	1377.947	1052.856
304.935	18.347	1377.184	1052.183
305.949	18.375	1376.608	1051.818
306.964	18.503	1375.538	1051.694
307.979	18.571	1374.808	1051.462
308.993	18.448	1373.831	1049.866
310.008	18.415	1372.762	1048.756
311.022	18.477	1371.595	1048.152
312.037	18.515	1370.596	1047.526
313.052	18.470	1369.990	1046.695
314.066	18.461	1368.797	1045.638
315.081	18.363	1367.858	1044.232
316.095	18.302	1366.605	1042.809
317.110	18.316	1365.380	1041.868
318.125	18.270	1364.447	1040.783
319.139	18.269	1363.760	1040.163
320.154	18.297	1362.519	1039.290
321.168	18.329	1361.419	1038.558
322.183	18.314	1360.462	1037.645
323.197	18.346	1359.545	1037.045
324.212	18.344	1358.582	1036.209
325.227	18.439	1357.631	1035.962
326.241	18.430	1356.695	1035.103
327.256	18.467	1356.126	1034.804
328.270	18.445	1355.438	1034.050
329.285	18.506	1354.454	1033.578
330.300	18.430	1353.744	1032.488
331.314	18.386	1352.530	1031.205
332.329	18.553	1351.679	1031.471
333.343	18.624	1350.451	1030.870
334.358	18.553	1349.767	1029.829
335.373	18.542	1349.248	1029.273
336.387	18.607	1348.566	1029.056
337.402	18.720	1347.530	1028.849
338.416	18.719	1347.265	1028.552
339.431	18.627	1346.397	1027.245
340.446	18.729	1345.520	1027.093
341.460	18.736	1345.028	1026.670
342.475	18.819	1343.875	1026.193
343.489	18.852	1342.700	1025.404
344.504	18.946	1342.163	1025.465
345.519	19.033	1341.104	1025.081
346.533	19.028	1339.967	1024.093
347.548	19.005	1339.677	1023.644
348.562	19.040	1339.009	1023.253
349.577	19.118	1337.767	1022.672
350.592	19.089	1336.968	1021.801
351.606	18.969	1335.826	1020.127
352.621	18.792	1334.915	1018.291
353.635	18.726	1334.054	1017.154
354.650	18.815	1333.044	1016.821
355.665	18.825	1332.187	1016.136
356.679	18.892	1330.876	1015.441
357.694	18.812	1330.114	1014.299
358.708	18.903	1328.856	1013.785
359.723	19.006	1328.087	1013.718
360.738	19.040	1327.016	1013.009
361.752	18.975	1326.111	1011.848
362.767	18.979	1324.776	1010.759
363.781	18.971	1323.917	1009.972
364.796	18.997	1323.272	1009.542
365.810	19.006	1322.246	1008.720
366.825	19.134	1321.868	1009.096
367.840	19.122	1321.657	1008.772
368.854	19.276	1320.387	1008.618
369.869	19.377	1319.962	1008.795
370.883	19.431	1319.311	1008.522
371.898	19.243	1319.051	1007.137
372.913	19.291	1317.900	1006.448
373.927	19.206	1317.161	1005.299
374.942	19.238	1315.746	1004.317
375.956	19.311	1315.590	1004.535
376.971	19.291	1314.665	1003.622
377.986	19.363	1313.579	1003.123
379.000	19.314	1313.140	1002.414
380.015	19.478	1312.297	1002.637
381.029	19.560	1311.489	1002.403
382.044	19.585	1310.311	1001.558
383.059	19.592	1309.719	1001.062
384.073	19.640	1309.249	1000.888
385.088	19.505	1308.733	999.628
386.102	19.587	1308.121	999.547
387.117	19.625	1307.067	998.873
388.132	19.617	1306.026	997.941
389.146	19.495	1305.147	996.475
390.161	19.431	1304.814	995.766
391.175	19.395	1303.732	994.644
392.190	19.402	1302.832	993.911
393.205	19.463	1302.451	993.879
394.219	19.563	1301.117	993.349
395.234	19.673	1300.036	993.069
396.248	19.640	1299.220	992.168
397.263	19.477	1297.734	990.011
398.278	19.526	1296.434	989.211
399.292	19.552	1295.011	988.186
400.307	19.488	1293.790	986.802
401.321	19.519	1292.707	986.064
402.336	19.376	1292.054	984.664
403.350	19.416	1291.244	984.189
404.365	19.455	1290.262	983.573
405.380	19.494	1288.856	982.641
406.394	19.456	1288.344	981.946
407.409	19.574	1287.471	981.866
408.423	19.606	1287.157	981.722
409.438	19.708	1286.133	981.433
410.453	19.783	1285.755	981.479
411.467	19.900	1284.811	981.335
412.482	19.872	1284.529	980.877
413.496	19.996	1284.023	981.105
414.511	19.867	1283.329	979.757
415.526	20.072	1282.340	980.078
416.540	20.028	1281.577	979.156
417.555	20.024	1280.840	978.487
418.569	20.011	1280.710	978.229
419.584	20.045	1280.093	977.860
420.599	20.028	1279.498	977.224
421.613	140.334	1429.228	1786.034
422.628	135.235	1451.018	1786.139
