DTS Sentinel unit serial number:	SN413079Multiplexer serial number:	ORYXHardware model number:	OX4-SRSoftware version number:	ORYX F/W v4.00 Oryx Data Collector v3.7.2.0data status	okinstallation	princeton_trtdifferential loss correction	single-endedforward channel	channel 4reverse channel	N/Adate	2019/09/19time	12:05:35forward acquisition time	60.00reverse acquisition time	0.00gamma	496.2192k internal	0.2325k external	0.2325temperature offset calibration	1.0017default loss term (dB/km)	0.3790temperature slope calibration	1.0000multiplexer offset coefficient	1.0000multiplexer slope coefficient	1.0000fibre end	0.00T internal ref (°C)	26.19T ext. ref 1 (°C)	0.84T ext. ref 2 (°C)	22.45length (m)	temperature (°C)	Stokes	anti-Stokes-747.200	-39.883	0.238	-0.125
-746.185	-200.000	-0.005	0.579
-745.171	492.917	0.040	0.093
-744.156	-53.090	-0.259	0.120
-743.142	-36.334	0.264	0.144
-742.127	-200.000	0.004	-0.030
-741.112	-57.962	-0.222	-0.098
-740.098	409.248	-0.067	0.143
-739.083	-13.645	0.117	0.076
-738.069	41.510	-0.213	0.194
-737.054	-16.715	0.197	-0.126
-736.039	800.000	-0.094	0.270
-735.025	-200.000	0.057	0.299
-734.010	14.009	-0.125	-0.098
-732.996	3.110	0.213	-0.156
-731.981	117.013	-0.303	0.375
-730.966	-127.198	-0.206	-0.030
-729.952	273.368	-0.138	-0.246
-728.937	800.000	0.016	0.045
-727.923	800.000	-0.061	0.173
-726.908	740.138	0.099	0.268
-725.894	145.252	0.268	-0.361
-724.879	236.027	0.064	0.106
-723.864	-5.086	0.076	0.052
-722.850	-85.269	0.181	0.057
-721.835	800.000	0.068	0.210
-720.821	-55.678	0.149	-0.067
-719.806	-38.361	-0.099	-0.053
-718.791	-73.964	0.162	-0.059
-717.777	-141.868	-0.034	-0.003
-716.762	-124.481	0.191	-0.030
-715.748	-33.037	0.258	-0.145
-714.733	-200.000	-0.011	0.209
-713.718	93.503	-0.269	-0.307
-712.704	52.013	0.228	0.219
-711.689	-200.000	0.045	0.304
-710.675	-200.000	-0.008	-0.264
-709.660	-88.633	-0.149	-0.045
-708.645	-200.000	0.016	0.326
-707.631	148.829	-0.171	-0.232
-706.616	-67.216	-0.144	0.057
-705.602	766.288	-0.037	-0.102
-704.587	131.723	0.126	-0.163
-703.572	220.905	0.198	0.320
-702.558	575.336	-0.047	0.117
-701.543	49.881	0.076	-0.072
-700.529	-31.476	0.226	0.128
-699.514	-11.894	-0.169	-0.112
-698.499	-200.000	-0.032	0.197
-697.485	-36.218	-0.286	-0.156
-696.470	-78.522	0.244	-0.084
-695.456	-110.876	0.230	0.048
-694.441	-14.242	0.246	0.160
-693.426	-43.401	0.064	0.032
-692.412	401.428	-0.066	-0.139
-691.397	800.000	-0.096	0.309
-690.383	-45.112	-0.242	0.121
-689.368	-127.211	-0.191	-0.028
-688.354	-110.973	-0.277	0.057
-687.339	39.447	0.273	-0.247
-686.324	-3.285	0.240	-0.168
-685.310	86.743	0.155	0.172
-684.295	800.000	-0.082	-0.289
-683.281	-30.136	0.144	-0.082
-682.266	-75.393	0.226	-0.081
-681.251	46.950	0.157	-0.147
-680.237	125.323	-0.187	-0.238
-679.222	-53.474	-0.077	-0.035
-678.208	-25.503	0.018	0.011
-677.193	-37.302	-0.090	-0.049
-676.178	-200.000	0.005	0.256
-675.164	-122.681	0.213	-0.035
-674.149	-200.000	-0.009	0.057
-673.135	-55.302	0.172	0.078
-672.120	220.713	0.100	0.162
-671.105	-114.641	-0.279	0.054
-670.091	316.011	-0.162	-0.307
-669.076	53.636	0.119	-0.115
-668.062	106.981	0.092	0.110
-667.047	95.244	-0.279	0.320
-666.032	-8.127	0.133	-0.090
-665.018	90.591	-0.079	0.089
-664.003	-200.000	0.017	-0.152
-662.989	-142.207	-0.085	-0.008
-661.974	-185.122	-0.047	-0.001
-660.959	39.863	-0.126	0.114
-659.945	282.603	0.018	-0.033
-658.930	295.294	0.047	0.087
-657.916	-200.000	0.006	0.533
-656.901	-87.492	-0.310	0.094
-655.886	174.965	0.077	-0.111
-654.872	800.000	0.109	0.363
-653.857	800.000	-0.084	-0.234
-652.843	388.752	0.013	0.027
-651.828	-200.000	0.177	0.000
-650.814	365.873	-0.117	-0.236
-649.799	-37.323	-0.224	-0.120
-648.784	786.543	0.021	-0.058
-647.770	84.413	0.105	0.115
-646.755	94.581	0.023	-0.027
-645.741	-95.891	0.100	0.027
-644.726	800.000	-0.107	-0.325
-643.711	82.750	0.237	-0.259
-642.697	284.486	-0.162	0.294
-641.682	-76.576	-0.252	-0.089
-640.668	-200.000	-0.012	0.158
-639.653	244.615	0.120	-0.202
-638.638	133.745	0.048	-0.062
-637.624	-158.125	-0.284	-0.017
-636.609	-200.000	0.022	0.151
-635.595	800.000	0.047	0.184
-634.580	177.491	-0.129	-0.189
-633.565	-200.000	-0.015	-0.158
-632.551	-115.158	-0.377	0.072
-631.536	-67.049	0.033	-0.013
-630.522	-95.042	-0.662	0.180
-629.507	198.671	0.058	0.090
-628.492	72.927	0.132	0.139
-627.478	-108.039	-0.178	0.039
-626.463	374.870	-0.181	-0.370
-625.449	-10.368	-0.089	-0.060
-624.434	-23.964	0.167	0.101
-623.419	26.100	0.075	0.063
-622.405	-104.961	0.179	0.041
-621.390	800.000	0.041	-0.151
-620.376	800.000	0.046	0.167
-619.361	92.033	0.149	-0.169
-618.346	-82.433	0.287	0.094
-617.332	47.419	0.109	0.102
-616.317	800.000	-0.118	-0.476
-615.303	800.000	-0.042	0.145
-614.288	151.875	-0.180	-0.246
-613.273	-160.477	-0.154	-0.008
-612.259	-44.581	0.199	0.100
-611.244	-128.816	0.128	0.018
-610.230	11.312	-0.192	-0.147
-609.215	5.566	0.336	-0.249
-608.201	463.686	-0.170	-0.380
-607.186	530.044	0.201	0.477
-606.171	240.999	-0.068	-0.113
-605.157	-112.087	0.098	-0.020
-604.142	-200.000	0.017	-0.172
-603.128	-200.000	-0.004	0.468
-602.113	-70.819	0.165	-0.062
-601.098	65.805	0.187	-0.190
-600.084	274.796	-0.083	-0.147
-599.069	-98.576	-0.567	0.145
-598.055	581.128	0.051	-0.125
-597.040	389.346	-0.118	-0.246
-596.025	243.096	-0.107	0.180
-595.011	-200.000	0.024	-0.198
-593.996	-41.405	0.227	0.117
-592.982	-52.014	-0.076	-0.035
-591.967	-178.665	-0.137	-0.003
-590.952	779.365	-0.042	0.117
-589.938	-168.601	0.086	-0.003
-588.923	134.358	0.100	0.131
-587.909	-23.705	0.393	-0.236
-586.894	-147.078	-0.549	-0.047
-585.879	336.416	0.042	0.081
-584.865	205.619	-0.074	-0.115
-583.850	-28.580	0.190	0.110
-582.836	90.439	0.170	-0.191
-581.821	800.000	0.058	0.254
-580.806	-87.576	-0.407	-0.123
-579.792	-108.822	0.312	-0.067
-578.777	-200.000	-0.006	0.183
-577.763	42.441	-0.267	-0.244
-576.748	-200.000	-0.006	0.134
-575.733	98.856	0.076	0.088
-574.719	-144.231	-0.133	-0.012
-573.704	26.809	-0.135	0.113
-572.690	26.420	-0.168	0.141
-571.675	186.314	0.236	-0.352
-570.661	800.000	0.041	-0.175
-569.646	-96.232	-0.117	-0.031
-568.631	-200.000	-0.037	0.308
-567.617	-200.000	0.011	-0.116
-566.602	-200.000	-0.038	0.190
-565.588	7.465	-0.058	0.044
-564.573	22.376	-0.361	0.296
-563.558	-200.000	0.041	-0.265
-562.544	83.956	0.092	-0.101
-561.529	-24.719	-0.154	-0.092
-560.515	800.000	-0.111	-0.443
-559.500	44.061	0.191	0.175
-558.485	170.561	-0.092	-0.131
-557.471	-101.525	0.231	0.056
-556.456	-200.000	-0.033	-0.444
-555.442	-42.407	0.145	-0.074
-554.427	-83.479	-0.296	0.095
-553.412	-200.000	-0.008	-0.157
-552.398	15.952	0.120	-0.095
-551.383	800.000	-0.066	0.200
-550.369	800.000	-0.093	0.319
-549.354	-200.000	-0.051	-0.285
-548.339	-109.393	-0.306	-0.065
-547.325	800.000	-0.062	0.220
-546.310	21.630	0.103	-0.084
-545.296	13.442	-0.186	-0.145
-544.281	-200.000	-0.012	0.142
-543.266	800.000	-0.139	-0.385
-542.252	195.920	0.108	-0.164
-541.237	800.000	0.055	0.188
-540.223	177.207	-0.174	-0.253
-539.208	38.889	0.208	-0.186
-538.193	-200.000	-0.041	-0.225
-537.179	104.143	-0.184	-0.217
-536.164	-29.293	-0.095	0.054
-535.150	762.465	-0.112	0.304
-534.135	213.400	-0.150	0.238
-533.121	84.496	0.079	-0.086
-532.106	576.539	0.048	-0.117
-531.091	800.000	0.025	-0.087
-530.077	800.000	0.167	-0.470
-529.062	-135.464	0.285	-0.034
-528.048	800.000	0.034	-0.141
-527.033	-74.168	-0.164	-0.059
-526.018	-95.157	-0.296	-0.080
-525.004	-97.031	-0.232	0.061
-523.989	-97.824	0.182	-0.047
-522.975	-67.601	-0.076	-0.030
-521.960	25.561	-0.111	-0.092
-520.945	-67.417	0.187	0.073
-519.931	18.895	-0.118	-0.094
-518.916	-46.252	-0.165	-0.081
-517.902	-24.495	-0.291	-0.174
-516.887	-200.000	-0.006	-0.112
-515.872	-79.044	0.317	0.108
-514.858	148.925	-0.117	-0.158
-513.843	123.660	-0.103	0.129
-512.829	533.248	0.093	-0.221
-511.814	144.444	0.234	0.313
-510.799	418.324	0.142	0.304
-509.785	-46.591	-0.278	-0.136
-508.770	-200.000	0.008	0.161
-507.756	-127.836	0.377	-0.054
-506.741	119.416	-0.087	-0.107
-505.726	-98.892	-0.170	-0.043
-504.712	757.760	0.073	0.198
-503.697	-33.230	0.062	0.034
-502.683	21.485	-0.198	-0.161
-501.668	20.702	-0.102	0.083
-500.653	-92.816	-0.290	0.081
-499.639	382.388	0.044	-0.090
-498.624	108.009	0.174	-0.207
-497.610	105.347	0.270	0.319
-496.595	-29.783	-0.150	-0.085
-495.581	21.927	0.109	0.089
-494.566	208.288	-0.144	-0.225
-493.551	-86.173	0.097	-0.030
-492.537	83.705	0.083	-0.090
-491.522	76.459	0.162	0.172
-490.508	117.175	-0.079	-0.097
-489.493	-91.059	0.104	-0.030
-488.478	-200.000	0.003	-0.169
-487.464	-71.035	-0.489	0.184
-486.449	11.524	-0.175	-0.134
-485.435	193.830	-0.209	-0.316
-484.420	455.403	0.041	-0.091
-483.405	-121.666	-0.241	0.040
-482.391	507.010	-0.077	0.179
-481.376	-175.385	0.352	-0.010
-480.362	184.147	-0.125	-0.185
-479.347	208.652	-0.034	-0.052
-478.332	800.000	-0.044	-0.123
-477.318	800.000	0.052	-0.191
-476.303	141.462	0.048	0.064
-475.289	300.919	-0.289	-0.532
-474.274	-81.003	-0.085	-0.028
-473.259	-80.136	-0.103	0.034
-472.245	-200.000	0.007	-0.173
-471.230	-32.806	0.165	-0.092
-470.216	-13.081	0.197	-0.128
-469.201	-76.718	0.239	0.084
-468.186	-119.169	-0.113	-0.020
-467.172	20.947	-0.255	0.206
-466.157	800.000	0.058	-0.188
-465.143	456.199	0.117	-0.258
-464.128	-200.000	0.016	0.323
-463.113	-20.145	0.065	-0.040
-462.099	180.161	-0.126	-0.184
-461.084	-89.750	0.336	0.098
-460.070	-76.450	0.087	-0.030
-459.055	556.856	0.089	0.214
-458.040	-77.073	0.204	-0.071
-457.026	-200.000	-0.053	0.443
-456.011	-200.000	0.035	0.224
-454.997	800.000	0.027	0.117
-453.982	-67.924	0.178	0.069
-452.968	103.341	0.119	-0.139
-451.953	-87.702	-0.188	0.056
-450.938	-35.426	0.256	-0.139
-449.924	76.224	0.053	0.056
-448.909	800.000	0.101	-0.383
-447.895	-89.793	-0.189	-0.055
-446.880	527.066	0.090	0.212
-445.865	157.442	-0.111	-0.153
-444.851	-2.435	0.279	0.195
-443.836	-48.911	-0.090	0.043
-442.822	47.306	0.214	-0.198
-441.807	-90.805	0.252	0.072
-440.792	800.000	-0.099	-0.312
-439.778	140.128	-0.079	0.104
-438.763	-39.703	-0.160	0.084
-437.749	134.751	-0.181	-0.235
-436.734	41.232	-0.139	0.125
-435.719	800.000	0.040	0.160
-434.705	-200.000	-0.006	-0.122
-433.690	41.644	0.282	-0.255
-432.676	-4.537	0.315	0.217
-431.661	-158.379	0.310	-0.018
-430.646	155.742	0.196	-0.270
-429.632	-200.000	-0.035	-0.355
-428.617	-41.968	-0.199	-0.102
-427.603	153.369	-0.251	0.342
-426.588	-95.478	0.258	0.069
-425.573	632.496	0.091	0.230
-424.559	210.253	0.186	0.291
-423.544	-170.924	-0.130	0.004
-422.530	156.143	-0.108	-0.148
-421.515	-200.000	0.012	0.256
-420.500	19.202	0.328	-0.263
-419.486	-147.679	-0.319	-0.027
-418.471	-200.000	0.067	-0.474
-417.457	279.500	-0.102	-0.181
-416.442	-123.499	-0.146	0.023
-415.428	-20.819	-0.367	-0.224
-414.413	800.000	0.066	-0.230
-413.398	-151.916	-0.066	-0.005
-412.384	-200.000	-0.031	0.395
-411.369	44.497	0.063	0.058
-410.355	360.880	-0.066	0.132
-409.340	-200.000	-0.028	0.293
-408.325	220.781	0.066	0.105
-407.311	-5.072	0.165	0.113
-406.296	146.583	-0.149	-0.200
-405.282	71.269	0.051	-0.053
-404.267	800.000	-0.020	0.058
-403.252	-200.000	-0.003	-0.249
-402.238	156.773	-0.226	0.311
-401.223	25.816	0.286	-0.237
-400.209	28.608	0.311	-0.262
-399.194	314.153	-0.041	0.076
-398.179	282.037	-0.061	0.109
-397.165	185.335	-0.100	0.148
-396.150	-124.172	-0.256	0.040
-395.136	83.137	-0.068	-0.073
-394.121	129.839	0.035	0.045
-393.106	-108.044	0.301	0.065
-392.092	7.763	-0.186	0.138
-391.077	800.000	-0.056	0.166
-390.063	-62.991	0.172	0.071
-389.048	90.003	0.135	0.150
-388.033	-200.000	0.020	-0.089
-387.019	65.900	0.104	-0.105
-386.004	77.013	-0.082	-0.086
-384.990	390.913	-0.059	-0.122
-383.975	-132.241	-0.321	0.041
-382.960	146.814	0.284	0.379
-381.946	-200.000	-0.072	0.542
-380.931	-200.000	0.006	0.198
-379.917	12.217	-0.105	0.081
-378.902	-2.760	0.242	-0.169
-377.888	800.000	-0.070	-0.254
-376.873	27.018	0.212	0.177
-375.858	800.000	-0.081	0.332
-374.844	-200.000	0.030	0.225
-373.829	-34.695	-0.185	0.101
-372.815	-67.965	0.154	-0.060
-371.800	13.473	0.135	0.104
-370.785	224.485	0.032	-0.052
-369.771	0.372	0.341	0.242
-368.756	-92.645	0.184	0.051
-367.742	-105.983	0.097	-0.022
-366.727	-102.068	-0.218	0.052
-365.712	412.163	0.143	0.302
-364.698	105.179	-0.081	0.095
-363.683	-200.000	-0.020	0.136
-362.669	-200.000	-0.029	-0.150
-361.654	800.000	-0.093	-0.394
-360.639	-9.458	-0.195	-0.129
-359.625	800.000	0.034	-0.108
-358.610	-137.265	-0.302	-0.034
-357.596	-77.315	-0.183	-0.063
-356.581	-158.509	0.348	0.020
-355.566	108.174	-0.191	-0.226
-354.552	-31.329	-0.394	-0.220
-353.537	148.642	-0.197	0.264
-352.523	466.519	0.127	0.283
-351.508	-36.328	-0.096	-0.052
-350.493	-200.000	0.084	0.393
-349.479	636.899	-0.020	0.049
-348.464	-200.000	0.005	0.251
-347.450	59.736	0.087	-0.086
-346.435	800.000	0.064	-0.221
-345.420	589.466	0.047	-0.115
-344.406	62.951	0.044	-0.044
-343.391	502.973	-0.083	0.192
-342.377	-9.808	0.241	-0.159
-341.362	-196.373	0.175	0.001
-340.348	196.143	-0.201	0.303
-339.333	800.000	0.085	-0.282
-338.318	173.058	0.024	-0.034
-337.304	-80.355	0.179	-0.059
-336.289	-200.000	0.008	-0.158
-335.275	-2.622	0.254	-0.177
-334.260	509.249	0.045	0.105
-333.245	800.000	-0.062	0.189
-332.231	800.000	0.069	0.292
-331.216	14.336	-0.279	0.216
-330.202	41.604	-0.068	0.061
-329.187	159.889	-0.243	0.336
-328.172	-170.254	-0.204	-0.007
-327.158	-7.587	0.075	0.050
-326.143	-71.364	0.342	0.127
-325.129	-79.700	-0.185	0.062
-324.114	-153.976	-0.051	-0.003
-323.099	-200.000	-0.007	-0.142
-322.085	-102.841	0.261	-0.062
-321.070	-200.000	0.013	-0.075
-320.056	800.000	-0.087	0.248
-319.041	376.107	0.119	0.241
-318.026	-135.692	0.189	-0.022
-317.012	-200.000	0.009	0.060
-315.997	800.000	-0.102	0.357
-314.983	-86.544	0.201	-0.061
-313.968	-32.348	-0.036	-0.020
-312.953	163.417	-0.135	-0.188
-311.939	107.336	-0.024	0.028
-310.924	719.970	-0.023	0.060
-309.910	-200.000	-0.062	-0.359
-308.895	-107.200	0.050	-0.011
-307.880	449.713	0.023	0.050
-306.866	554.276	-0.120	-0.286
-305.851	800.000	-0.026	-0.095
-304.837	-84.748	0.282	0.088
-303.822	480.864	0.080	-0.180
-302.807	-88.077	0.178	-0.053
-301.793	241.827	-0.024	-0.040
-300.778	168.642	-0.143	0.201
-299.764	-191.781	-0.149	0.001
-298.749	-70.507	0.078	0.029
-297.735	147.390	0.289	0.386
-296.720	168.664	-0.151	0.213
-295.705	24.129	-0.197	0.161
-294.691	-200.000	0.025	0.196
-293.676	66.905	0.174	-0.175
-292.662	-106.685	-0.054	0.012
-291.647	186.318	-0.242	0.357
-290.632	-200.000	-0.017	-0.200
-289.618	-123.146	-0.207	-0.033
-288.603	327.505	0.123	-0.234
-287.589	-170.523	-0.154	0.005
-286.574	-126.429	0.100	-0.015
-285.559	449.540	0.119	0.260
-284.545	-41.423	0.156	0.080
-283.530	77.598	-0.252	-0.266
-282.516	-200.000	0.065	0.436
-281.501	-135.173	0.176	-0.021
-280.486	545.112	0.162	0.384
-279.472	-200.000	0.069	0.383
-278.457	-56.836	0.284	-0.124
-277.443	-80.399	0.187	0.062
-276.428	377.005	-0.068	0.138
-275.413	58.858	-0.184	0.179
-274.399	800.000	0.052	0.174
-273.384	-24.411	0.403	0.238
-272.370	624.232	-0.018	0.044
-271.355	376.024	-0.105	-0.212
-270.340	800.000	-0.021	-0.071
-269.326	84.575	0.131	-0.142
-268.311	-78.415	0.197	0.067
-267.297	800.000	0.084	0.290
-266.282	-69.912	-0.230	-0.087
-265.267	-23.164	-0.206	0.123
-264.253	86.693	-0.111	0.121
-263.238	-184.447	0.424	-0.007
-262.224	186.884	0.222	0.327
-261.209	50.950	0.145	0.136
-260.195	-200.000	0.006	-0.083
-259.180	70.457	-0.182	-0.186
-258.165	106.760	-0.105	-0.124
-257.151	-63.607	0.330	0.134
-256.136	-0.239	0.300	0.211
-255.122	462.879	0.152	0.336
-254.107	36.457	0.238	0.208
-253.092	-32.114	0.118	-0.066
-252.078	-200.000	0.018	0.303
-251.063	-0.876	0.124	-0.087
-250.049	-200.000	0.010	0.059
-249.034	66.346	-0.232	0.233
-248.019	-200.000	-0.040	0.205
-247.005	800.000	0.078	0.224
-245.990	-200.000	-0.027	-0.374
-244.976	353.575	-0.117	-0.230
-243.961	-72.556	0.120	0.044
-242.946	-60.366	0.098	0.041
-241.932	800.000	-0.037	0.126
-240.917	-200.000	-0.046	-0.298
-239.903	225.282	0.084	0.135
-238.888	800.000	0.091	-0.304
-237.873	473.884	-0.166	-0.371
-236.859	13.293	0.227	-0.174
-235.844	28.653	0.161	0.135
-234.830	-200.000	0.001	0.271
-233.815	18.425	-0.065	-0.052
-232.800	-200.000	0.010	-0.177
-231.786	-124.237	0.277	0.043
-230.771	99.305	-0.161	0.184
-229.757	521.707	-0.139	-0.322
-228.742	627.599	-0.078	0.196
-227.727	73.931	0.225	-0.233
-226.713	-200.000	-0.007	0.114
-225.698	-200.000	0.016	0.171
-224.684	800.000	0.090	-0.258
-223.669	800.000	0.046	0.140
-222.655	800.000	-0.071	0.285
-221.640	-200.000	0.022	-0.251
-220.625	-175.041	0.203	0.006
-219.611	307.673	-0.290	0.534
-218.596	84.410	0.203	-0.220
-217.582	-1.235	-0.084	-0.059
-216.567	-48.396	-0.217	-0.103
-215.552	138.967	0.135	-0.175
-214.538	261.927	0.182	0.313
-213.523	519.253	0.176	-0.407
-212.509	558.103	0.083	0.199
-211.494	49.300	0.240	0.223
-210.479	-200.000	-0.038	-0.185
-209.465	189.478	-0.194	-0.288
-208.450	265.165	-0.128	-0.221
-207.436	271.454	-0.169	0.294
-206.421	124.110	-0.145	-0.180
-205.406	35.564	-0.033	-0.029
-204.392	30.167	-0.251	0.211
-203.377	590.132	-0.055	-0.133
-202.363	47.892	0.187	-0.173
-201.348	-152.686	0.051	0.004
-200.333	-200.000	-0.002	0.216
-199.319	45.783	-0.112	-0.102
-198.304	-20.829	-0.066	0.040
-197.290	-32.844	-0.282	-0.155
-196.275	-62.042	0.145	-0.060
-195.260	-200.000	-0.017	-0.093
-194.246	-143.915	0.230	-0.021
-193.231	122.521	0.285	-0.351
-192.217	134.811	0.097	-0.125
-191.202	-6.633	0.261	-0.176
-190.187	329.378	-0.122	-0.231
-189.173	800.000	0.045	-0.177
-188.158	21.204	-0.235	-0.188
-187.144	-200.000	-0.050	-0.287
-186.129	-113.396	-0.208	-0.040
-185.114	226.130	-0.306	0.489
-184.100	182.727	-0.256	0.373
-183.085	58.265	-0.284	-0.275
-182.071	243.304	-0.056	0.093
-181.056	11.106	-0.140	0.106
-180.042	-200.000	0.006	-0.089
-179.027	-104.992	-0.421	-0.095
-178.012	-64.328	0.073	-0.030
-176.998	-156.450	0.383	-0.024
-175.983	81.585	-0.180	-0.192
-174.969	456.883	-0.111	-0.243
-173.954	-179.317	-0.270	0.006
-172.939	142.808	-0.187	-0.245
-171.925	458.642	0.119	0.261
-170.910	96.356	0.033	-0.037
-169.896	-200.000	-0.032	-0.304
-168.881	-93.608	0.447	-0.122
-167.866	-173.211	-0.198	-0.006
-166.852	132.607	0.034	-0.043
-165.837	-200.000	0.005	0.299
-164.823	-37.544	0.169	-0.089
-163.808	-200.000	-0.007	0.118
-162.793	89.362	0.166	0.183
-161.779	-54.681	-0.206	0.092
-160.764	-121.116	0.164	0.027
-159.750	-200.000	0.030	0.169
-158.735	800.000	-0.056	0.158
-157.720	-49.884	-0.067	-0.031
-156.706	-200.000	0.052	0.336
-155.691	191.868	-0.054	0.080
-154.677	35.724	-0.264	0.229
-153.662	-87.992	0.259	0.077
-152.647	173.356	-0.126	0.179
-151.633	141.277	0.091	0.119
-150.618	-64.150	-0.135	-0.054
-149.604	344.884	-0.094	-0.183
-148.589	39.122	0.090	-0.079
-147.574	-200.000	-0.027	0.146
-146.560	800.000	0.034	-0.108
-145.545	289.012	0.019	-0.034
-144.531	75.888	-0.282	-0.294
-143.516	-110.540	-0.139	0.028
-142.502	-200.000	-0.028	-0.125
-141.487	-80.577	-0.184	0.060
-140.472	121.614	0.063	0.077
-139.458	-200.000	-0.044	-0.225
-138.443	-119.090	-0.170	-0.029
-137.429	31.892	0.240	-0.204
-136.414	-124.404	-0.088	0.013
-135.399	800.000	-0.043	0.136
-134.385	-139.835	-0.432	-0.045
-133.370	-200.000	0.012	-0.275
-132.356	425.849	0.119	-0.252
-131.341	-127.499	-0.125	-0.018
-130.326	47.136	0.174	-0.159
-129.312	800.000	-0.059	-0.181
-128.297	28.154	0.198	-0.164
-127.283	-17.047	0.114	0.071
-126.268	16.309	0.160	0.124
-125.253	-50.033	-0.154	-0.072
-124.239	-63.130	-0.130	0.053
-123.224	50.377	0.206	0.192
-122.210	33.627	0.093	0.080
-121.195	165.284	-0.052	0.073
-120.180	104.817	0.017	0.020
-119.166	-65.552	0.342	0.135
-118.151	-91.980	0.328	0.091
-117.137	-81.388	-0.259	0.084
-116.122	-200.000	-0.061	0.340
-115.107	-200.000	0.047	-0.234
-114.093	-115.041	-0.455	0.085
-113.078	800.000	-0.084	0.286
-112.064	401.791	0.101	0.208
-111.049	-200.000	-0.001	-0.123
-110.034	341.938	-0.032	0.061
-109.020	-46.563	-0.204	0.099
-108.005	-146.148	-0.388	-0.034
-106.991	4.152	-0.212	-0.152
-105.976	-11.421	0.080	0.052
-104.962	-200.000	-0.008	0.052
-103.947	-200.000	0.060	0.295
-102.932	-113.135	0.159	0.031
-101.918	-94.120	0.296	-0.080
-100.903	-200.000	-0.023	0.185
-99.889	323.051	0.051	-0.096
-98.874	-200.000	-0.024	-0.263
-97.859	46.507	-0.186	0.170
-96.845	-34.551	0.141	0.076
-95.830	-11.667	-0.061	0.039
-94.816	-37.392	-0.226	-0.119
-93.801	-48.474	-0.335	0.158
-92.786	-200.000	0.007	-0.045
-91.772	192.507	0.203	0.301
-90.757	-91.902	0.318	0.089
-89.743	278.923	-0.234	0.410
-88.728	-84.759	0.106	0.033
-87.713	-200.000	-0.062	0.377
-86.699	52.290	0.274	-0.257
-85.684	-200.000	0.091	-0.594
-84.670	-48.731	-0.101	-0.047
-83.655	798.708	0.074	-0.202
-82.640	-102.937	-0.299	-0.070
-81.626	660.756	0.147	0.373
-80.611	322.725	0.125	0.235
-79.597	-153.206	-0.241	-0.017
-78.582	38.695	0.080	0.070
-77.567	-18.399	-0.153	-0.094
-76.553	800.000	0.096	-0.315
-75.538	-85.925	0.037	-0.011
-74.524	-171.005	0.227	-0.008
-73.509	-38.552	0.082	0.043
-72.494	65.405	-0.282	0.281
-71.480	800.000	-0.044	-0.157
-70.465	183.249	0.123	0.179
-69.451	271.422	-0.245	-0.423
-68.436	-93.984	-0.115	0.031
-67.422	407.601	0.063	-0.132
-66.407	64.473	0.086	-0.085
-65.392	800.000	-0.085	0.330
-64.378	800.000	0.038	0.105
-63.363	75.455	0.174	0.181
-62.349	-200.000	0.021	-0.304
-61.334	102.938	-0.827	-0.951
-60.319	-33.845	0.888	0.481
-59.305	-200.000	-0.197	-1.092
-58.290	332.872	0.593	1.127
-57.276	250.494	0.845	1.410
-56.261	-200.000	114.271	614.004
-55.246	419.527	1533.510	3224.383
-54.232	138.843	2735.497	3530.351
-53.217	90.149	2364.492	2596.531
-52.203	32.720	2108.711	1791.759
-51.188	27.953	2022.425	1674.801
-50.173	26.552	2005.578	1648.037
-49.159	43.520	2064.377	1853.653
-48.144	42.485	2079.538	1857.626
-47.130	28.440	2038.746	1692.547
-46.115	26.274	2028.031	1663.668
-45.100	26.203	2025.245	1660.660
-44.086	26.155	2022.811	1658.159
-43.071	26.134	2019.767	1655.406
-42.057	26.007	2018.034	1652.753
-41.042	26.064	2015.949	1651.502
-40.027	26.067	2014.032	1649.890
-39.013	26.070	2012.149	1648.312
-37.998	26.128	2010.790	1647.663
-36.984	26.093	2008.502	1645.406
-35.969	26.117	2006.470	1643.896
-34.954	26.165	2004.661	1642.787
-33.940	26.199	2003.283	1641.895
-32.925	26.220	2001.674	1640.702
-31.911	26.182	2000.383	1639.234
-30.896	26.205	1998.716	1638.012
-29.881	26.198	1996.645	1636.188
-28.867	26.254	1995.394	1635.605
-27.852	26.242	1993.454	1633.842
-26.838	26.233	1991.764	1632.310
-25.823	26.214	1989.762	1630.435
-24.809	26.121	1988.461	1628.468
-23.794	26.260	1985.926	1627.579
-22.779	26.277	1983.816	1625.935
-21.765	26.184	1983.108	1624.454
-20.750	26.180	1980.784	1622.452
-19.736	26.259	1979.425	1621.980
-18.721	26.198	1977.962	1620.170
-17.706	26.172	1976.565	1618.732
-16.692	26.116	1974.678	1616.616
-15.677	26.196	1972.875	1615.798
-14.663	26.230	1971.409	1614.834
-13.648	26.176	1970.627	1613.649
-12.633	26.194	1969.448	1612.773
-11.619	26.202	1968.237	1611.797
-10.604	26.216	1966.103	1610.103
-9.590	26.165	1965.206	1608.852
-8.575	26.209	1963.562	1607.833
-7.560	26.200	1962.488	1606.812
-6.546	26.225	1961.187	1605.901
-5.531	26.300	1958.834	1604.577
-4.517	26.309	1958.629	1604.432
-3.502	26.204	1957.211	1602.272
-2.487	26.244	1956.013	1601.580
-1.473	26.227	1955.344	1600.817
-0.458	26.282	1950.404	1597.197
0.556	25.324	1931.459	1573.044
1.571	21.504	1913.475	1525.032
2.586	17.629	1937.204	1509.546
3.600	16.607	1972.094	1527.377
4.615	16.386	1966.259	1520.740
5.629	13.101	1863.744	1413.253
6.644	5.441	1745.765	1262.062
7.659	1.252	1710.000	1202.936
8.673	0.883	1707.191	1197.932
9.688	0.851	1706.293	1196.949
10.702	0.868	1704.583	1195.776
11.717	0.758	1700.632	1192.032
12.731	1.147	1699.597	1194.263
13.746	6.614	1711.811	1246.021
14.761	13.704	1726.135	1312.638
15.775	16.880	1730.429	1340.951
16.790	17.239	1730.251	1343.531
17.804	16.420	1726.964	1334.395
18.819	15.341	1723.922	1323.416
19.834	14.822	1720.859	1316.863
20.848	14.499	1719.589	1313.231
21.863	14.284	1718.172	1310.337
22.877	13.987	1716.993	1306.989
23.892	13.758	1715.196	1303.705
24.907	13.634	1713.920	1301.643
25.921	13.578	1713.058	1300.439
26.936	13.595	1712.301	1299.883
27.950	13.664	1710.880	1299.229
28.965	13.809	1710.315	1299.819
29.980	13.756	1709.535	1298.696
30.994	13.750	1708.615	1297.836
32.009	13.803	1708.009	1297.676
33.023	13.890	1706.768	1297.299
34.038	13.804	1706.524	1296.321
35.053	13.836	1705.173	1295.432
36.067	13.768	1703.663	1293.642
37.082	13.807	1702.736	1293.127
38.096	13.786	1701.769	1292.118
39.111	13.779	1700.840	1291.239
40.126	13.797	1700.545	1291.041
41.140	13.761	1699.498	1289.850
42.155	13.686	1698.093	1288.090
43.169	13.660	1696.774	1286.777
44.184	13.648	1695.074	1285.277
45.199	13.660	1693.878	1284.349
46.213	13.601	1692.963	1283.088
47.228	13.645	1691.509	1282.212
48.242	13.685	1690.045	1281.293
49.257	13.698	1688.865	1280.385
50.271	13.752	1687.685	1279.798
51.286	13.666	1686.607	1278.202
52.301	13.636	1685.748	1277.209
53.315	13.684	1684.004	1276.143
54.330	13.662	1682.349	1274.607
55.344	13.672	1680.590	1273.235
56.359	13.620	1679.194	1271.669
57.374	13.705	1677.958	1271.272
58.388	13.746	1676.590	1270.435
59.403	13.629	1675.199	1268.373
60.417	13.551	1674.399	1267.064
61.432	13.649	1672.443	1266.215
62.447	13.604	1671.268	1264.875
63.461	13.527	1670.765	1263.794
64.476	13.558	1669.230	1262.755
65.490	13.580	1667.391	1261.420
66.505	13.585	1666.314	1260.536
67.520	13.562	1665.492	1259.624
68.534	13.654	1664.524	1259.479
69.549	13.600	1663.418	1258.120
70.563	13.613	1662.118	1257.128
71.578	13.648	1660.776	1256.262
72.593	13.547	1659.991	1254.794
73.607	13.623	1659.002	1254.507
74.622	13.527	1657.633	1252.642
75.636	13.483	1657.021	1251.729
76.651	13.501	1656.024	1251.006
77.666	13.541	1654.982	1250.410
78.680	13.565	1653.552	1249.397
79.695	13.532	1652.744	1248.426
80.709	13.509	1652.220	1247.753
81.724	13.558	1651.161	1247.209
82.739	13.569	1650.215	1246.469
83.753	13.641	1648.810	1245.834
84.768	13.630	1647.916	1244.969
85.782	13.668	1647.255	1244.640
86.797	13.711	1646.242	1244.088
87.812	13.740	1645.276	1243.466
88.826	13.651	1643.990	1241.720
89.841	13.699	1642.501	1240.846
90.855	13.628	1641.793	1239.667
91.870	13.644	1640.749	1238.891
92.884	13.749	1639.332	1238.490
93.899	13.771	1638.406	1237.847
94.914	13.755	1637.116	1236.649
95.928	13.787	1635.880	1235.841
96.943	13.872	1634.546	1235.353
97.957	13.803	1632.782	1233.398
98.972	13.749	1631.667	1232.048
99.987	13.753	1630.135	1230.813
101.001	13.745	1628.227	1229.202
102.016	13.787	1626.645	1228.212
103.030	13.753	1625.293	1226.832
104.045	13.758	1624.246	1225.971
105.060	13.770	1622.514	1224.643
106.074	13.691	1621.578	1223.244
107.089	13.711	1620.193	1222.235
108.103	13.668	1618.472	1220.512
109.118	13.552	1617.319	1218.681
110.133	13.687	1615.718	1218.361
111.147	13.689	1613.822	1216.842
112.162	13.621	1613.255	1215.806
113.176	13.642	1611.374	1214.433
114.191	13.672	1610.004	1213.515
115.206	13.751	1609.037	1213.258
116.220	13.820	1606.994	1212.108
117.235	13.755	1605.481	1210.392
118.249	13.677	1604.726	1209.147
119.264	13.729	1603.357	1208.382
120.279	13.662	1601.977	1206.748
121.293	13.705	1600.219	1205.629
122.308	13.668	1598.724	1204.131
123.322	13.656	1597.088	1202.706
124.337	13.669	1596.058	1201.917
125.352	13.599	1595.140	1200.611
126.366	13.684	1593.403	1199.810
127.381	13.594	1592.607	1198.458
128.395	13.666	1591.103	1197.741
129.410	13.572	1589.774	1195.955
130.424	13.608	1588.228	1194.944
131.439	13.658	1587.041	1194.307
132.454	13.688	1585.503	1193.262
133.468	13.838	1583.792	1192.941
134.483	13.730	1582.655	1191.208
135.497	13.662	1581.794	1189.966
136.512	13.704	1580.506	1189.194
137.527	13.735	1578.616	1187.886
138.541	13.802	1576.846	1186.930
139.556	13.734	1575.947	1185.658
140.570	13.749	1574.431	1184.522
141.585	13.845	1573.173	1184.156
142.600	13.876	1571.858	1183.283
143.614	13.901	1570.667	1182.458
144.629	13.945	1569.165	1181.540
145.643	13.865	1568.464	1180.335
146.658	13.929	1566.631	1179.306
147.673	13.975	1564.696	1178.073
148.687	13.930	1563.507	1176.752
149.702	13.924	1561.973	1175.455
150.716	13.815	1560.830	1173.718
151.731	13.851	1559.388	1172.786
152.746	13.900	1557.849	1171.866
153.760	13.920	1556.392	1170.813
154.775	13.946	1555.095	1169.911
155.789	13.844	1554.776	1168.853
156.804	13.944	1552.834	1167.990
157.819	14.007	1551.463	1167.300
158.833	13.991	1550.090	1166.051
159.848	13.981	1549.011	1165.063
160.862	14.089	1547.478	1164.565
161.877	14.112	1546.289	1163.728
162.892	14.085	1544.756	1162.287
163.906	14.084	1543.438	1161.181
164.921	14.008	1542.710	1159.998
165.935	14.046	1541.356	1159.143
166.950	14.008	1540.156	1157.879
167.964	14.010	1539.341	1157.176
168.979	14.064	1538.087	1156.506
169.994	14.115	1537.026	1155.959
171.008	14.061	1536.224	1154.876
172.023	14.098	1535.038	1154.143
173.037	14.133	1533.979	1153.489
174.052	14.122	1532.961	1152.543
175.067	14.192	1531.676	1151.956
176.081	14.111	1530.426	1150.360
177.096	14.159	1528.901	1149.441
178.110	14.021	1527.744	1147.514
179.125	14.096	1526.468	1146.972
180.140	14.133	1525.394	1146.322
181.154	14.156	1524.717	1145.870
182.169	14.162	1523.401	1144.820
183.183	14.234	1522.342	1144.416
184.198	14.275	1520.945	1143.546
185.213	14.312	1519.439	1142.571
186.227	14.279	1518.452	1141.500
187.242	14.345	1517.455	1141.097
188.256	14.372	1516.501	1140.465
189.271	14.306	1515.455	1139.129
190.286	14.357	1514.507	1138.664
191.300	14.340	1513.206	1137.465
192.315	14.317	1512.000	1136.301
193.329	14.128	1511.232	1134.336
194.344	14.199	1509.951	1133.762
195.359	14.204	1509.110	1133.061
196.373	14.230	1507.768	1132.132
197.388	14.428	1506.591	1132.495
198.402	14.348	1505.424	1130.973
199.417	14.432	1504.257	1130.567
200.432	14.487	1503.392	1130.189
201.446	14.534	1502.553	1129.778
202.461	14.588	1500.800	1128.721
203.475	14.480	1499.856	1127.184
204.490	14.594	1499.053	1127.251
205.504	14.581	1497.828	1126.139
206.519	14.552	1496.935	1125.172
207.534	14.583	1495.309	1124.061
208.548	14.572	1494.555	1123.323
209.563	14.507	1493.781	1122.201
210.577	14.550	1492.101	1121.132
211.592	14.622	1491.007	1120.693
212.607	14.624	1490.988	1120.594
213.621	14.546	1490.289	1119.443
214.636	14.653	1489.206	1119.252
215.650	14.764	1487.522	1118.624
216.665	14.700	1486.763	1117.527
217.680	14.635	1486.427	1116.746
218.694	14.696	1485.315	1116.215
219.709	14.757	1484.727	1116.082
220.723	14.792	1483.379	1115.208
221.738	14.722	1482.990	1114.345
222.753	14.842	1481.728	1114.102
223.767	14.761	1480.775	1112.743
224.782	14.890	1479.464	1112.522
225.796	14.920	1478.403	1111.823
226.811	14.738	1478.268	1110.416
227.826	14.827	1477.059	1109.995
228.840	14.860	1476.523	1109.716
229.855	14.920	1475.166	1108.997
230.869	14.872	1474.417	1108.015
231.884	14.847	1472.832	1106.560
232.899	14.852	1471.724	1105.662
233.913	14.874	1470.804	1105.020
234.928	14.868	1469.559	1103.946
235.942	14.858	1468.228	1102.782
236.957	14.845	1467.491	1102.048
237.972	14.833	1466.356	1101.017
238.986	14.873	1464.914	1100.101
240.001	15.025	1463.894	1100.238
241.015	14.908	1463.011	1098.711
242.030	14.928	1461.924	1097.925
243.045	15.018	1460.735	1097.524
244.059	15.033	1459.655	1096.718
245.074	14.984	1459.257	1095.997
246.088	15.002	1458.299	1095.301
247.103	15.075	1457.470	1095.057
248.117	15.109	1456.448	1094.416
249.132	15.073	1455.780	1093.581
250.147	15.173	1454.780	1093.390
251.161	15.212	1454.399	1093.260
252.176	15.232	1453.469	1092.594
253.190	15.326	1452.495	1092.373
254.205	15.280	1451.994	1091.600
255.220	15.271	1451.240	1090.879
256.234	15.424	1449.926	1090.794
257.249	15.381	1448.933	1089.671
258.263	15.411	1448.105	1089.141
259.278	15.372	1447.282	1088.174
260.293	15.482	1446.403	1088.131
261.307	15.498	1445.270	1087.284
262.322	15.435	1444.867	1086.480
263.336	15.475	1443.738	1085.794
264.351	15.511	1442.783	1085.212
265.366	15.582	1441.881	1084.897
266.380	15.550	1441.254	1084.124
267.395	15.599	1439.552	1083.064
268.409	15.654	1439.189	1083.044
269.424	15.570	1438.444	1081.852
270.439	15.615	1437.039	1080.984
271.453	15.535	1436.263	1079.794
272.468	15.562	1435.427	1079.242
273.482	15.626	1434.474	1078.842
274.497	15.539	1433.880	1077.738
275.512	15.572	1432.847	1077.083
276.526	15.588	1432.027	1076.471
277.541	15.637	1431.078	1075.975
278.555	15.645	1429.791	1074.965
279.570	15.746	1428.738	1074.720
280.585	15.727	1427.714	1073.733
281.599	15.805	1426.799	1073.448
282.614	15.726	1426.560	1072.671
283.628	15.702	1425.329	1071.498
284.643	15.827	1423.845	1071.085
285.657	15.765	1422.862	1069.853
286.672	15.676	1422.558	1068.968
287.687	15.760	1421.547	1068.645
288.701	15.882	1420.208	1068.317
289.716	15.847	1419.031	1067.116
290.730	15.742	1418.950	1066.297
291.745	15.832	1417.733	1065.854
292.760	15.792	1416.931	1064.906
293.774	15.895	1415.479	1064.373
294.789	15.848	1414.624	1063.337
295.803	15.945	1413.607	1063.094
296.818	15.978	1412.815	1062.608
297.833	15.955	1411.966	1061.734
298.847	15.931	1410.873	1060.664
299.862	15.965	1409.813	1059.991
300.876	15.946	1408.942	1059.118
301.891	15.985	1407.887	1058.477
302.906	16.084	1407.134	1058.443
303.920	16.113	1406.205	1057.828
304.935	16.062	1405.648	1056.999
305.949	16.120	1404.912	1056.715
306.964	16.166	1404.134	1056.327
307.979	16.139	1403.324	1055.453
308.993	16.214	1402.329	1055.082
310.008	16.202	1401.165	1054.034
311.022	16.118	1400.191	1052.683
312.037	16.258	1398.992	1052.563
313.052	16.281	1397.800	1051.716
314.066	16.214	1397.320	1050.847
315.081	16.200	1396.434	1050.002
316.095	16.185	1395.285	1048.947
317.110	16.144	1394.180	1047.773
318.125	16.220	1392.914	1047.195
319.139	16.226	1392.161	1046.577
320.154	16.213	1391.448	1045.865
321.168	16.285	1390.267	1045.334
322.183	16.233	1388.962	1043.940
323.197	16.271	1387.971	1043.334
324.212	16.159	1388.188	1042.716
325.227	16.273	1386.814	1042.293
326.241	16.412	1385.504	1042.076
327.256	16.334	1384.471	1040.725
328.270	16.330	1383.744	1040.059
329.285	16.365	1382.630	1039.346
330.300	16.332	1381.954	1038.542
331.314	16.319	1381.305	1037.883
332.329	16.412	1379.851	1037.271
333.343	16.431	1378.943	1036.614
334.358	16.340	1378.664	1035.753
335.373	16.408	1377.426	1035.150
336.387	16.388	1376.533	1034.265
337.402	16.505	1375.943	1034.445
338.416	16.491	1375.241	1033.737
339.431	16.509	1374.724	1033.367
340.446	16.540	1374.079	1032.984
341.460	16.535	1373.178	1032.186
342.475	16.619	1371.968	1031.693
343.489	16.592	1371.144	1030.816
344.504	16.675	1370.271	1030.577
345.519	16.691	1369.175	1029.761
346.533	16.576	1368.672	1028.591
347.548	16.710	1367.249	1028.245
348.562	16.700	1366.882	1027.815
349.577	16.712	1365.885	1027.045
350.592	16.665	1365.380	1026.292
351.606	16.780	1364.217	1026.022
352.621	16.698	1363.401	1024.822
353.635	16.723	1361.822	1023.699
354.650	16.742	1361.652	1023.592
355.665	16.792	1359.850	1022.451
356.679	16.736	1359.375	1021.666
357.694	16.736	1357.902	1020.470
358.708	16.724	1356.652	1019.366
359.723	16.814	1355.672	1019.080
360.738	16.830	1354.400	1018.132
361.752	16.800	1354.027	1017.579
362.767	16.837	1352.947	1016.899
363.781	16.918	1351.662	1016.329
364.796	16.841	1350.948	1015.240
365.810	16.964	1350.196	1015.320
366.825	16.958	1349.272	1014.504
367.840	16.954	1348.812	1014.043
368.854	17.013	1348.187	1013.833
369.869	17.057	1347.449	1013.454
370.883	17.173	1346.768	1013.544
371.898	17.008	1346.167	1012.019
372.913	17.017	1345.526	1011.502
373.927	17.004	1344.113	1010.271
374.942	17.002	1343.412	1009.640
375.956	16.986	1342.863	1009.047
376.971	17.150	1342.159	1009.402
377.986	17.064	1341.462	1008.277
379.000	17.138	1340.195	1007.673
380.015	17.206	1339.494	1007.464
381.029	17.135	1339.032	1006.603
382.044	17.120	1338.042	1005.682
383.059	17.330	1337.040	1006.083
384.073	17.340	1336.741	1005.826
385.088	17.329	1336.221	1005.280
386.102	17.262	1335.435	1004.204
387.117	17.298	1334.485	1003.619
388.132	17.304	1333.853	1003.086
389.146	17.384	1332.875	1002.734
390.161	17.333	1331.940	1001.642
391.175	17.347	1331.231	1001.105
392.190	17.296	1330.574	1000.220
393.205	17.408	1329.407	999.913
394.219	17.504	1328.158	999.450
395.234	17.458	1326.952	998.185
396.248	17.502	1325.524	997.281
397.263	17.425	1324.838	996.220
398.278	17.352	1323.522	994.716
399.292	17.371	1322.463	993.948
400.307	17.429	1321.130	993.195
401.321	17.391	1319.660	991.781
402.336	17.377	1319.167	991.241
403.350	17.460	1318.084	990.822
404.365	17.423	1317.396	990.004
405.380	17.538	1315.905	989.461
406.394	17.447	1315.342	988.420
407.409	17.593	1314.866	988.822
408.423	17.508	1313.911	987.528
409.438	17.634	1313.420	987.797
410.453	17.580	1312.557	986.749
411.467	17.678	1311.740	986.618
412.482	17.757	1310.956	986.393
413.496	17.627	1310.950	985.555
414.511	17.650	1310.131	984.983
415.526	17.758	1309.096	984.742
416.540	17.825	1308.120	984.308
417.555	17.799	1307.878	983.888
418.569	17.793	1306.881	983.017
419.584	17.846	1306.428	982.893
420.599	17.907	1305.427	982.402
421.613	98.818	1359.857	1482.691
422.628	97.256	1367.735	1482.782
