DTS Sentinel unit serial number:	SN413079Multiplexer serial number:	ORYXHardware model number:	OX4-SRSoftware version number:	ORYX F/W v4.00 Oryx Data Collector v3.7.2.0data status	okinstallation	princeton_trtdifferential loss correction	single-endedforward channel	channel 4reverse channel	N/Adate	2019/09/18time	08:33:35forward acquisition time	60.00reverse acquisition time	0.00gamma	496.2192k internal	0.2326k external	0.2326temperature offset calibration	0.9986default loss term (dB/km)	0.3790temperature slope calibration	1.0000multiplexer offset coefficient	1.0000multiplexer slope coefficient	1.0000fibre end	0.00T internal ref (°C)	24.37T ext. ref 1 (°C)	0.22T ext. ref 2 (°C)	20.15length (m)	temperature (°C)	Stokes	anti-Stokes-747.200	-62.011	0.237	-0.100
-746.185	450.426	-0.127	0.282
-745.171	800.000	0.040	-0.138
-744.156	84.457	-0.213	-0.235
-743.142	-200.000	0.004	-0.372
-742.127	419.198	0.074	-0.160
-741.112	499.245	0.087	0.202
-740.098	-128.690	-0.364	0.052
-739.083	36.206	0.138	0.123
-738.069	-200.000	-0.087	0.400
-737.054	-200.000	0.063	0.346
-736.039	82.637	-0.317	-0.348
-735.025	-156.812	0.411	0.025
-734.010	18.607	-0.061	0.049
-732.996	253.662	-0.196	-0.337
-731.981	47.304	-0.201	-0.189
-730.966	-64.948	-0.147	-0.060
-729.952	77.279	-0.147	-0.158
-728.937	-142.877	-0.152	-0.015
-727.923	14.798	-0.088	0.069
-726.908	28.994	-0.218	-0.186
-725.894	-149.036	-0.247	0.020
-724.879	38.502	0.154	-0.138
-723.864	115.313	-0.070	-0.086
-722.850	-41.387	-0.303	0.157
-721.835	800.000	-0.106	-0.328
-720.821	74.165	0.179	-0.190
-719.806	249.843	0.044	0.075
-718.791	155.503	0.122	-0.170
-717.777	-124.231	0.087	0.014
-716.762	-155.579	-0.298	-0.019
-715.748	800.000	-0.129	-0.377
-714.733	-79.630	-0.175	0.059
-713.718	-42.171	0.574	0.296
-712.704	-56.998	-0.240	-0.107
-711.689	800.000	0.010	-0.031
-710.675	-158.144	0.077	0.005
-709.660	-200.000	0.020	-0.420
-708.645	-200.000	0.022	-0.228
-707.631	-112.641	0.360	0.072
-706.616	-121.434	0.280	-0.047
-705.602	-87.545	0.032	-0.010
-704.587	22.038	-0.067	-0.055
-703.572	23.238	-0.243	0.201
-702.558	800.000	0.061	0.201
-701.543	392.652	-0.047	0.098
-700.529	263.514	-0.192	0.335
-699.514	72.806	-0.018	-0.019
-698.499	92.738	0.167	0.190
-697.485	-154.777	0.255	-0.017
-696.470	160.003	-0.081	-0.114
-695.456	244.707	0.097	0.164
-694.441	157.460	-0.076	0.105
-693.426	-61.840	-0.095	0.040
-692.412	101.701	0.128	0.151
-691.397	27.092	-0.173	0.146
-690.383	800.000	0.038	-0.145
-689.368	-145.921	-0.358	-0.032
-688.354	-152.105	-0.123	0.009
-687.339	800.000	-0.042	-0.156
-686.324	-9.839	-0.235	0.158
-685.310	-200.000	-0.060	-0.591
-684.295	800.000	0.055	-0.219
-683.281	-200.000	-0.069	-0.334
-682.266	169.965	0.249	-0.359
-681.251	-59.899	0.242	0.104
-680.237	-25.597	-0.254	-0.151
-679.222	10.712	0.214	0.165
-678.208	-47.385	-0.411	0.201
-677.193	-22.765	-0.133	0.081
-676.178	800.000	-0.082	-0.285
-675.164	25.420	0.067	0.056
-674.149	-104.491	-0.424	-0.098
-673.135	40.552	0.047	-0.042
-672.120	-64.752	0.143	-0.058
-671.105	51.082	-0.053	0.050
-670.091	-200.000	0.044	0.223
-669.076	56.453	-0.118	-0.116
-668.062	760.891	0.134	-0.366
-667.047	428.549	0.117	-0.254
-666.032	-200.000	0.024	-0.244
-665.018	7.907	0.338	0.255
-664.003	-62.899	-0.207	-0.086
-662.989	62.084	0.214	-0.215
-661.974	800.000	-0.023	-0.076
-660.959	369.178	-0.058	0.119
-659.945	-101.560	0.302	-0.074
-658.930	-119.318	0.225	0.039
-657.916	6.249	-0.321	-0.239
-656.901	-46.940	-0.186	-0.091
-655.886	149.042	0.076	0.103
-654.872	-18.902	-0.091	-0.057
-653.857	227.642	-0.147	-0.241
-652.843	-46.333	0.453	0.224
-651.828	-144.691	-0.260	0.024
-650.814	800.000	0.120	-0.445
-649.799	-37.716	-0.323	0.173
-648.784	-166.230	-0.344	-0.015
-647.770	384.947	0.076	-0.157
-646.755	-10.404	-0.214	0.143
-645.741	800.000	-0.030	0.112
-644.726	285.864	-0.090	-0.163
-643.711	-200.000	0.002	-0.231
-642.697	-200.000	0.036	-0.169
-641.682	-200.000	0.073	0.335
-640.668	800.000	0.063	-0.262
-639.653	189.913	-0.193	-0.291
-638.638	-200.000	-0.009	0.100
-637.624	-121.144	-0.120	-0.020
-636.609	-200.000	-0.007	0.054
-635.595	351.080	-0.071	0.141
-634.580	559.041	-0.060	-0.146
-633.565	-108.074	-0.332	0.072
-632.551	-154.928	-0.399	0.026
-631.536	-200.000	-0.005	0.191
-630.522	-110.680	-0.329	-0.068
-629.507	217.693	0.061	-0.098
-628.492	800.000	0.013	0.039
-627.478	800.000	0.043	0.177
-626.463	-135.866	-0.288	0.034
-625.449	-64.627	-0.135	0.055
-624.434	-200.000	0.021	-0.155
-623.419	800.000	-0.086	0.310
-622.405	-76.962	0.225	0.079
-621.390	180.583	-0.060	-0.089
-620.376	63.099	0.137	0.138
-619.361	72.782	-0.213	0.223
-618.346	57.449	-0.051	-0.050
-617.332	-14.444	-0.275	-0.178
-616.317	800.000	0.052	-0.155
-615.303	725.019	-0.067	-0.179
-614.288	42.878	-0.076	-0.070
-613.273	245.173	-0.127	0.214
-612.259	-200.000	-0.034	0.402
-611.244	-90.512	-0.274	0.080
-610.230	155.858	-0.173	0.239
-609.215	19.445	-0.295	0.238
-608.201	-93.331	0.247	-0.069
-607.186	800.000	0.117	-0.346
-606.171	800.000	-0.059	0.233
-605.157	-200.000	-0.024	0.220
-604.142	346.686	0.114	-0.224
-603.128	633.944	0.119	0.304
-602.113	-1.600	0.128	0.090
-601.098	-187.218	0.138	0.002
-600.084	-38.831	0.160	-0.085
-599.069	-63.503	0.058	0.024
-598.055	-95.462	0.259	-0.070
-597.040	525.460	0.071	-0.167
-596.025	-200.000	0.043	-0.194
-595.011	-153.088	-0.176	0.012
-593.996	239.511	0.069	-0.115
-592.982	-76.708	-0.026	-0.009
-591.967	-108.001	-0.236	-0.051
-590.952	-200.000	0.007	-0.151
-589.938	-200.000	-0.032	-0.416
-588.923	80.205	-0.091	-0.098
-587.909	-200.000	0.007	-0.250
-586.894	-155.718	-0.248	-0.016
-585.879	180.449	0.265	-0.389
-584.865	-10.788	0.235	0.156
-583.850	298.182	-0.123	0.226
-582.836	800.000	0.040	0.114
-581.821	-141.921	-0.127	0.013
-580.806	-158.057	-0.056	-0.003
-579.792	85.416	-0.220	-0.242
-578.777	-89.364	0.346	0.102
-577.763	800.000	0.056	-0.236
-576.748	228.828	-0.257	0.420
-575.733	-59.069	0.167	0.072
-574.719	-200.000	0.096	-0.440
-573.704	718.693	-0.160	-0.426
-572.690	13.076	0.074	0.057
-571.675	99.463	0.321	0.372
-570.661	-200.000	-0.009	0.077
-569.646	-126.414	0.230	-0.034
-568.631	-92.355	-0.207	-0.058
-567.617	390.521	0.005	-0.010
-566.602	-137.669	-0.144	-0.016
-565.588	-195.161	0.261	-0.002
-564.573	-200.000	-0.019	0.239
-563.558	172.903	0.017	-0.024
-562.544	-200.000	0.020	-0.102
-561.529	-10.682	0.111	0.074
-560.515	-61.511	-0.380	0.160
-559.500	-2.903	0.166	0.116
-558.485	-145.262	0.096	-0.009
-557.471	42.653	-0.343	-0.313
-556.456	11.122	-0.211	0.161
-555.442	-176.392	-0.202	-0.005
-554.427	-200.000	0.000	-0.148
-553.412	-169.464	0.399	-0.015
-552.398	800.000	-0.052	-0.159
-551.383	-3.641	-0.234	-0.162
-550.369	-200.000	0.017	-0.231
-549.354	-35.386	-0.176	-0.096
-548.339	800.000	-0.095	0.362
-547.325	-22.805	0.122	0.074
-546.310	-47.294	0.041	0.020
-545.296	197.105	-0.152	0.233
-544.281	-200.000	0.042	0.237
-543.266	20.759	-0.235	-0.190
-542.252	-200.000	0.003	-0.091
-541.237	-106.018	0.178	-0.040
-540.223	-68.425	0.199	-0.077
-539.208	195.239	0.129	0.196
-538.193	-159.872	-0.196	-0.011
-537.179	82.600	0.086	0.093
-536.164	-200.000	-0.008	0.255
-535.150	-170.021	-0.269	0.010
-534.135	91.593	0.127	0.143
-533.121	117.481	0.112	0.138
-532.106	545.742	-0.057	0.136
-531.091	-200.000	0.035	-0.318
-530.077	-196.625	-0.171	0.001
-529.062	163.202	0.164	-0.230
-528.048	-129.813	0.151	0.021
-527.033	-55.321	-0.186	-0.083
-526.018	14.416	-0.142	0.111
-525.004	800.000	0.101	-0.312
-523.989	197.708	-0.187	0.285
-522.975	-180.118	0.229	0.005
-521.960	-70.846	0.127	0.048
-520.945	646.730	-0.076	-0.193
-519.931	-41.269	-0.140	0.072
-518.916	800.000	-0.069	-0.244
-517.902	-200.000	0.037	-0.335
-516.887	-85.267	0.339	-0.106
-515.872	-57.475	0.181	0.079
-514.858	-16.161	-0.190	0.120
-513.843	183.832	0.093	0.138
-512.829	625.202	0.026	0.065
-511.814	379.129	0.100	-0.206
-510.799	18.915	-0.173	0.139
-509.785	-135.241	-0.123	-0.015
-508.770	-200.000	-0.029	-0.276
-507.756	47.976	0.282	-0.264
-506.741	190.108	0.091	0.137
-505.726	-101.476	-0.453	-0.110
-504.712	62.660	-0.057	0.057
-503.697	-200.000	-0.006	-0.142
-502.683	-136.526	0.361	0.042
-501.668	-8.826	0.080	-0.053
-500.653	-49.516	0.094	0.045
-499.639	-63.102	-0.256	-0.106
-498.624	70.435	0.066	-0.068
-497.610	-113.163	0.196	0.039
-496.595	800.000	-0.014	-0.057
-495.581	214.652	-0.136	-0.215
-494.566	-44.267	-0.277	0.139
-493.551	31.463	0.106	-0.091
-492.537	-117.019	0.172	0.031
-491.522	-180.193	-0.172	-0.004
-490.508	800.000	-0.046	-0.158
-489.493	519.326	-0.059	-0.138
-488.478	-200.000	-0.235	0.001
-487.464	462.800	0.119	-0.265
-486.449	-200.000	-0.001	0.451
-485.435	229.336	0.092	-0.151
-484.420	-112.267	0.107	0.021
-483.405	800.000	0.040	0.125
-482.391	137.942	0.053	0.070
-481.376	800.000	-0.065	-0.266
-480.362	-200.000	0.105	-0.462
-479.347	14.290	-0.377	-0.294
-478.332	-17.938	-0.108	-0.067
-477.318	50.222	0.078	-0.074
-476.303	-200.000	0.011	0.078
-475.289	213.837	0.084	0.133
-474.274	800.000	0.146	0.426
-473.259	800.000	0.075	-0.208
-472.245	216.005	0.209	-0.332
-471.230	-123.213	-0.186	0.030
-470.216	-26.773	-0.064	0.038
-469.201	78.037	-0.033	0.035
-468.186	-198.567	-0.325	-0.002
-467.172	216.140	-0.078	-0.123
-466.157	-70.301	-0.259	0.098
-465.143	102.400	0.053	0.062
-464.128	-200.000	-0.034	-0.148
-463.113	406.143	0.106	-0.224
-462.099	-200.000	0.000	-0.276
-461.084	64.332	-0.130	-0.130
-460.070	-200.000	0.041	0.321
-459.055	82.651	-0.128	-0.139
-458.040	-77.871	-0.245	-0.084
-457.026	-91.951	0.147	-0.041
-456.011	444.950	0.063	0.137
-454.997	-102.786	0.102	0.024
-453.982	176.588	-0.183	-0.265
-452.968	-51.288	-0.282	-0.132
-451.953	114.780	-0.155	0.189
-450.938	-143.545	0.199	-0.019
-449.924	50.494	0.214	-0.202
-448.909	-200.000	-0.000	-0.083
-447.895	-200.000	0.002	-0.133
-446.880	12.009	0.091	0.070
-445.865	194.375	-0.114	0.173
-444.851	-7.041	0.044	-0.030
-443.836	800.000	0.062	0.177
-442.822	-85.377	0.277	0.086
-441.807	272.330	0.079	-0.139
-440.792	285.920	0.096	-0.172
-439.778	196.206	0.026	0.039
-438.763	483.123	0.122	-0.277
-437.749	-200.000	0.031	-0.150
-436.734	114.874	-0.214	0.260
-435.719	800.000	0.041	-0.120
-434.705	-200.000	0.013	0.120
-433.690	-72.469	0.305	0.112
-432.676	328.001	0.146	0.279
-431.661	36.265	-0.247	0.217
-430.646	-114.902	0.179	-0.034
-429.632	-175.989	-0.350	-0.009
-428.617	-200.000	0.018	-0.133
-427.603	-200.000	-0.004	-0.035
-426.588	-78.553	-0.089	-0.030
-425.573	-135.844	0.286	-0.034
-424.559	32.767	-0.304	-0.262
-423.544	-168.081	-0.403	-0.016
-422.530	800.000	0.014	-0.047
-421.515	255.703	0.153	-0.262
-420.500	-116.572	-0.202	0.037
-419.486	737.795	0.081	0.218
-418.471	-82.517	0.315	0.102
-417.457	94.263	-0.117	0.132
-416.442	-10.841	0.264	0.173
-415.428	-130.835	-0.125	0.017
-414.413	-71.776	0.116	-0.043
-413.398	709.678	-0.021	-0.054
-412.384	149.766	0.153	0.207
-411.369	-200.000	0.002	0.295
-410.355	-200.000	0.084	-0.396
-409.340	800.000	0.054	0.163
-408.325	-42.016	-0.219	-0.111
-407.311	-38.041	0.226	0.120
-406.296	-94.735	0.126	0.034
-405.282	-9.802	-0.063	-0.042
-404.267	1.919	-0.164	-0.118
-403.252	35.848	0.148	-0.129
-402.238	-200.000	-0.091	-0.452
-401.223	-25.647	-0.274	-0.161
-400.209	-103.050	0.237	0.056
-399.194	72.429	0.091	0.095
-398.179	800.000	-0.112	0.375
-397.165	161.006	-0.197	0.274
-396.150	613.506	-0.038	-0.094
-395.136	800.000	0.072	0.198
-394.121	93.849	-0.276	-0.311
-393.106	-138.776	-0.128	0.014
-392.092	-200.000	-0.008	0.294
-391.077	42.018	-0.094	0.085
-390.063	7.218	-0.027	0.020
-389.048	-56.124	-0.057	0.025
-388.033	-147.389	0.107	0.009
-387.019	800.000	-0.025	0.076
-386.004	-10.883	-0.400	-0.263
-384.990	25.516	0.170	0.141
-383.975	-124.355	0.325	-0.050
-382.960	2.486	0.115	0.082
-381.946	-200.000	-0.028	-0.180
-380.931	95.064	0.040	-0.045
-379.917	-164.499	0.360	0.016
-378.902	800.000	-0.041	-0.164
-377.888	646.948	0.137	-0.349
-376.873	68.540	0.042	-0.043
-375.858	317.366	0.067	0.126
-374.844	-123.952	-0.151	0.024
-373.829	-200.000	-0.010	-0.093
-372.815	800.000	-0.025	-0.077
-371.800	-200.000	0.033	0.265
-370.785	-200.000	0.014	-0.169
-369.771	430.922	0.019	-0.040
-368.756	97.694	0.056	-0.064
-367.742	290.270	0.095	0.172
-366.727	193.837	0.235	-0.354
-365.712	-30.304	-0.105	0.059
-364.698	-67.851	-0.270	0.105
-363.683	-160.498	0.154	-0.008
-362.669	264.106	-0.139	0.240
-361.654	-200.000	0.062	0.282
-360.639	-200.000	-0.006	0.054
-359.625	-30.266	-0.141	-0.080
-358.610	-48.830	0.117	-0.056
-357.596	-91.892	0.311	0.088
-356.581	-200.000	0.018	-0.115
-355.566	-152.771	-0.233	0.016
-354.552	11.475	0.208	-0.158
-353.537	764.716	0.113	-0.304
-352.523	98.639	0.192	-0.220
-351.508	-133.629	-0.239	0.030
-350.493	-200.000	0.005	-0.448
-349.479	-182.905	0.019	-0.000
-348.464	-200.000	-0.020	-0.242
-347.450	272.765	0.018	-0.031
-346.435	577.182	0.030	-0.073
-345.420	502.058	-0.048	-0.109
-344.406	-59.056	0.200	-0.086
-343.391	533.924	-0.113	-0.265
-342.377	-44.051	-0.152	0.076
-341.362	-134.471	0.258	-0.031
-340.348	-169.794	0.296	-0.011
-339.333	337.825	-0.085	-0.163
-338.318	-48.415	-0.084	0.040
-337.304	800.000	0.041	0.154
-336.289	181.739	-0.132	-0.193
-335.275	-36.548	-0.140	-0.075
-334.260	44.851	-0.223	0.204
-333.245	170.497	0.118	-0.168
-332.231	173.353	0.092	0.131
-331.216	-200.000	-0.018	-0.094
-330.202	164.723	0.230	-0.321
-329.187	116.791	-0.187	-0.227
-328.172	292.204	0.056	0.102
-327.158	-41.752	0.104	0.053
-326.143	-99.510	0.159	0.040
-325.129	-106.612	-0.249	0.055
-324.114	-83.044	-0.108	0.035
-323.099	-179.855	0.239	-0.005
-322.085	-200.000	0.025	-0.120
-321.070	-127.752	0.353	-0.051
-320.056	-29.816	0.079	-0.045
-319.041	800.000	-0.089	-0.260
-318.026	-200.000	-0.003	0.028
-317.012	-176.830	0.143	-0.004
-315.997	17.187	-0.257	0.202
-314.983	-200.000	-0.063	0.525
-313.968	-200.000	-0.036	0.190
-312.953	191.793	0.067	0.101
-311.939	-52.238	0.109	0.050
-310.924	143.999	-0.039	0.051
-309.910	-117.287	-0.477	0.086
-308.895	-102.774	0.357	-0.084
-307.880	142.549	-0.155	-0.204
-306.866	135.204	-0.088	-0.114
-305.851	-133.889	-0.302	-0.037
-304.837	42.790	-0.049	0.044
-303.822	130.404	-0.123	0.156
-302.807	800.000	-0.073	0.265
-301.793	191.831	-0.120	0.180
-300.778	-200.000	-0.002	-0.222
-299.764	-94.364	-0.172	0.047
-298.749	-30.621	0.405	-0.227
-297.735	-150.980	0.136	-0.010
-296.720	203.715	0.011	0.016
-295.705	243.576	0.095	0.158
-294.691	168.369	-0.297	0.419
-293.676	-50.046	-0.031	0.015
-292.662	-159.426	0.053	0.003
-291.647	115.689	0.137	-0.166
-290.632	-171.443	0.168	-0.006
-289.618	800.000	-0.009	-0.032
-288.603	52.570	0.233	0.221
-287.589	-152.179	0.254	0.018
-286.574	-64.772	0.248	0.099
-285.559	249.672	0.108	0.181
-284.545	-153.446	-0.383	-0.026
-283.530	82.929	0.306	0.330
-282.516	12.413	0.039	0.030
-281.501	-200.000	-0.021	0.101
-280.486	56.771	0.224	0.216
-279.472	49.766	0.241	0.225
-278.457	-200.000	-0.000	-0.017
-277.443	-24.430	0.077	-0.046
-276.428	18.100	0.118	0.093
-275.413	419.624	0.118	0.250
-274.399	-200.000	0.017	-0.089
-273.384	171.861	-0.078	0.110
-272.370	-135.670	-0.256	0.030
-271.355	-200.000	0.020	-0.129
-270.340	-67.071	0.091	-0.036
-269.326	-155.793	-0.431	0.027
-268.311	-140.399	-0.071	-0.007
-267.297	43.297	0.027	0.024
-266.282	-138.505	0.101	0.011
-265.267	-200.000	-0.041	0.293
-264.253	267.551	0.099	0.171
-263.238	-83.594	0.288	0.091
-262.224	-67.992	-0.158	0.061
-261.209	239.602	0.059	0.098
-260.195	42.064	0.071	0.064
-259.180	-75.824	0.260	0.091
-258.165	-42.298	-0.158	-0.080
-257.151	37.483	0.213	0.187
-256.136	-167.511	-0.021	0.001
-255.122	-200.000	0.005	0.071
-254.107	-11.099	-0.261	0.170
-253.092	-23.346	-0.208	-0.124
-252.078	-200.000	0.075	-0.334
-251.063	11.404	-0.301	0.228
-250.049	415.179	0.051	0.107
-249.034	-200.000	0.037	-0.183
-248.019	281.058	0.062	-0.109
-247.005	-126.405	-0.158	-0.023
-245.990	-200.000	-0.029	-0.307
-244.976	-178.673	0.126	-0.003
-243.961	-69.190	-0.111	-0.042
-242.946	10.241	-0.263	0.198
-241.932	14.700	0.243	0.188
-240.917	-150.932	-0.391	0.029
-239.903	5.248	-0.048	-0.035
-238.888	800.000	0.123	0.520
-237.873	-200.000	0.017	-0.123
-236.859	-54.170	0.394	-0.177
-235.844	140.252	0.089	-0.116
-234.830	-73.039	-0.414	0.150
-233.815	-200.000	0.016	-0.175
-232.800	-200.000	-0.005	-0.029
-231.786	-200.000	-0.004	0.064
-230.771	-88.301	-0.181	0.054
-229.757	-129.070	-0.067	0.009
-228.742	505.402	-0.052	-0.119
-227.727	-13.353	0.107	0.068
-226.713	2.600	0.208	0.149
-225.698	-104.160	-0.270	-0.062
-224.684	176.145	-0.178	0.255
-223.669	345.800	-0.039	0.076
-222.655	-91.930	0.142	0.040
-221.640	-86.482	0.230	0.070
-220.625	-200.000	0.020	0.311
-219.611	-125.966	0.280	-0.042
-218.596	46.013	0.062	-0.056
-217.582	63.299	0.065	-0.065
-216.567	-94.873	0.355	-0.095
-215.552	495.270	-0.029	0.065
-214.538	-91.250	0.172	-0.049
-213.523	-90.258	0.160	-0.046
-212.509	-200.000	-0.020	0.294
-211.494	504.238	-0.108	0.247
-210.479	800.000	0.113	0.346
-209.465	222.668	-0.048	0.076
-208.450	280.961	-0.205	-0.363
-207.436	-87.404	-0.173	-0.052
-206.421	214.496	-0.043	-0.068
-205.406	295.818	0.105	-0.191
-204.392	-200.000	-0.019	-0.157
-203.377	-49.350	-0.275	-0.129
-202.363	-160.503	0.111	0.006
-201.348	-200.000	0.059	0.260
-200.333	20.963	0.075	0.060
-199.319	26.759	-0.079	-0.065
-198.304	19.396	0.242	0.192
-197.290	-77.729	0.312	0.107
-196.275	-23.158	0.178	-0.106
-195.260	194.906	-0.074	0.111
-194.246	439.214	-0.127	0.274
-193.231	193.263	0.098	0.147
-192.217	-200.000	-0.013	0.106
-191.202	-13.578	0.130	-0.083
-190.187	-146.304	0.043	-0.004
-189.173	-52.783	0.217	-0.099
-188.158	800.000	-0.107	-0.302
-187.144	30.893	-0.125	-0.106
-186.129	33.869	0.069	-0.059
-185.114	440.740	0.122	0.264
-184.100	25.975	0.177	0.146
-183.085	-66.356	0.310	0.122
-182.071	-12.476	-0.188	0.121
-181.056	800.000	-0.040	0.111
-180.042	800.000	0.122	-0.486
-179.027	-46.102	0.031	-0.015
-178.012	-97.694	-0.206	0.053
-176.998	800.000	-0.093	0.290
-175.983	-137.416	-0.083	-0.009
-174.969	-143.992	-0.161	0.015
-173.954	436.199	-0.154	-0.330
-172.939	-177.822	0.434	-0.010
-171.925	-18.287	0.393	-0.242
-170.910	800.000	-0.023	-0.071
-169.896	800.000	0.071	0.243
-168.881	542.699	-0.138	0.326
-167.866	72.572	-0.069	-0.071
-166.852	237.347	0.106	0.173
-165.837	655.270	0.030	-0.075
-164.823	-200.000	0.074	-0.353
-163.808	5.246	-0.247	0.180
-162.793	195.625	0.009	0.013
-161.779	268.316	-0.212	-0.367
-160.764	800.000	-0.082	0.244
-159.750	700.153	0.193	0.499
-158.735	800.000	0.086	0.242
-157.720	-96.542	0.367	-0.096
-156.706	54.459	0.224	-0.213
-155.691	37.407	-0.034	-0.030
-154.677	-13.197	0.087	0.056
-153.662	440.088	0.046	-0.099
-152.647	-64.784	-0.275	0.110
-151.633	482.277	-0.117	0.261
-150.618	800.000	-0.056	-0.169
-149.604	-200.000	-0.011	0.111
-148.589	-168.644	0.289	0.011
-147.574	185.481	0.020	0.030
-146.560	800.000	0.074	-0.217
-145.545	-29.275	0.376	-0.212
-144.531	-200.000	0.010	-0.350
-143.516	-98.234	0.195	-0.049
-142.502	64.225	-0.212	-0.210
-141.487	-200.000	-0.028	0.142
-140.472	-95.630	0.170	-0.045
-139.458	205.767	0.190	0.291
-138.443	154.463	-0.142	-0.193
-137.429	-130.278	0.239	-0.032
-136.414	579.866	0.039	0.094
-135.399	180.589	0.074	0.106
-134.385	-47.889	0.232	-0.111
-133.370	-79.128	0.009	0.003
-132.356	106.830	-0.035	0.041
-131.341	-123.106	-0.347	0.055
-130.326	-161.904	-0.132	-0.007
-129.312	-200.000	-0.003	-0.276
-128.297	38.030	-0.087	0.076
-127.283	43.670	-0.063	-0.056
-126.268	-78.235	-0.372	-0.126
-125.253	-15.624	0.089	0.056
-124.239	-54.478	-0.213	0.095
-123.224	-200.000	-0.034	-0.338
-122.210	-200.000	-0.002	-0.055
-121.195	72.279	0.170	0.174
-120.180	-148.949	-0.074	0.006
-119.166	-157.117	0.160	0.010
-118.151	-177.981	-0.280	-0.007
-117.137	-51.084	-0.262	0.121
-116.122	-91.305	0.348	-0.098
-115.107	37.144	-0.269	0.234
-114.093	-200.000	-0.020	0.244
-113.078	397.293	-0.054	0.110
-112.064	-34.882	-0.144	0.077
-111.049	800.000	0.054	-0.159
-110.034	286.325	0.084	-0.149
-109.020	323.838	-0.054	0.101
-108.005	-22.655	0.227	-0.135
-106.991	11.150	-0.177	0.133
-105.976	800.000	0.063	0.201
-104.962	800.000	0.109	0.415
-103.947	144.243	-0.068	0.089
-102.932	800.000	-0.096	0.337
-101.918	-109.718	-0.284	-0.059
-100.903	-100.719	-0.097	-0.024
-99.889	228.205	0.029	0.047
-98.874	800.000	-0.063	0.253
-97.859	-46.877	-0.112	0.054
-96.845	800.000	0.130	-0.426
-95.830	-122.946	0.263	-0.042
-94.816	-200.000	-0.033	-0.177
-93.801	576.358	-0.047	-0.112
-92.786	-200.000	-0.004	-0.304
-91.772	146.381	-0.310	-0.410
-90.757	-91.549	0.204	0.057
-89.743	99.433	-0.042	-0.048
-88.728	-200.000	-0.016	-0.371
-87.713	181.647	-0.108	0.156
-86.699	-200.000	0.089	-0.531
-85.684	-200.000	-0.009	-0.137
-84.670	-200.000	0.049	-0.361
-83.655	750.138	0.040	-0.105
-82.640	-76.231	0.284	0.098
-81.626	-200.000	-0.016	0.130
-80.611	175.262	-0.040	-0.056
-79.597	280.810	0.077	0.136
-78.582	-200.000	0.034	0.168
-77.567	800.000	0.007	-0.029
-76.553	228.139	-0.049	-0.078
-75.538	-23.862	0.175	-0.103
-74.524	-200.000	0.005	-0.383
-73.509	-200.000	-0.011	-0.290
-72.494	-143.883	-0.144	0.013
-71.480	34.270	0.058	0.050
-70.465	63.704	-0.031	-0.030
-69.451	-200.000	-0.041	-0.239
-68.436	-43.434	-0.211	0.104
-67.422	-122.795	-0.319	0.051
-66.407	135.620	0.128	-0.164
-65.392	-31.775	-0.230	-0.127
-64.378	-119.030	0.290	-0.050
-63.363	-96.367	-0.154	-0.040
-62.349	800.000	-0.092	0.372
-61.334	129.496	-1.198	-1.503
-60.319	96.570	0.760	0.854
-59.305	347.164	-0.595	-1.150
-58.290	160.122	1.047	1.432
-57.276	800.000	0.486	1.430
-56.261	-200.000	121.573	614.857
-55.246	384.523	1567.090	3169.419
-54.232	138.665	2740.415	3532.297
-53.217	85.959	2347.423	2535.184
-52.203	30.562	2089.787	1754.056
-51.188	26.163	2004.432	1642.427
-50.173	24.830	1987.739	1616.653
-49.159	40.884	2057.397	1821.927
-48.144	39.936	2070.810	1824.974
-47.130	26.452	2024.444	1661.218
-46.115	24.425	2013.217	1633.409
-45.100	24.348	2009.683	1629.773
-44.086	24.310	2007.643	1627.710
-43.071	24.243	2004.962	1624.854
-42.057	24.288	2002.969	1623.592
-41.042	24.243	2001.339	1621.796
-40.027	24.333	1998.890	1620.559
-39.013	24.230	1997.560	1618.481
-37.998	24.244	1996.017	1617.299
-36.984	24.204	1994.542	1615.672
-35.969	24.250	1991.678	1613.707
-34.954	24.218	1991.024	1612.821
-33.940	24.339	1988.780	1612.040
-32.925	24.314	1987.092	1610.382
-31.911	24.361	1985.034	1609.070
-30.896	24.402	1983.456	1608.093
-29.881	24.430	1982.403	1607.429
-28.867	24.430	1980.930	1606.171
-27.852	24.439	1979.259	1604.836
-26.838	24.434	1976.946	1602.855
-25.823	24.396	1974.948	1600.830
-24.809	24.344	1973.696	1599.281
-23.794	24.405	1971.932	1598.339
-22.779	24.459	1969.521	1596.803
-21.765	24.453	1968.046	1595.490
-20.750	24.445	1966.159	1593.822
-19.736	24.433	1965.095	1592.791
-18.721	24.455	1963.488	1591.618
-17.706	24.406	1962.077	1589.977
-16.692	24.403	1960.573	1588.665
-15.677	24.401	1959.129	1587.418
-14.663	24.394	1957.209	1585.738
-13.648	24.364	1956.204	1584.594
-12.633	24.440	1954.741	1584.019
-11.619	24.423	1953.391	1582.715
-10.604	24.435	1952.040	1581.660
-9.590	24.418	1950.687	1580.355
-8.575	24.367	1949.429	1578.814
-7.560	24.322	1948.552	1577.645
-6.546	24.506	1946.832	1577.818
-5.531	24.430	1945.793	1576.242
-4.517	24.384	1944.764	1574.942
-3.502	24.428	1943.210	1574.005
-2.487	24.424	1941.771	1572.746
-1.473	24.413	1940.814	1571.814
-0.458	24.478	1935.921	1568.355
0.556	22.775	1916.832	1542.461
1.571	19.041	1898.856	1495.465
2.586	15.416	1923.897	1483.078
3.600	14.647	1959.880	1503.756
4.615	14.549	1953.210	1497.623
5.629	11.214	1851.980	1391.452
6.644	4.350	1736.242	1249.272
7.659	0.696	1701.821	1195.531
8.673	0.292	1699.460	1190.572
9.688	0.233	1698.570	1189.376
10.702	0.243	1697.053	1188.293
11.717	0.102	1692.903	1184.168
12.731	0.593	1692.021	1187.309
13.746	5.737	1702.703	1235.317
14.761	12.908	1717.157	1302.511
15.775	16.316	1722.906	1333.725
16.790	16.681	1722.259	1335.984
17.804	15.860	1719.484	1327.244
18.819	14.901	1716.236	1317.071
19.834	14.352	1713.906	1310.842
20.848	14.044	1712.365	1307.126
21.863	13.786	1711.005	1303.944
22.877	13.482	1709.287	1300.139
23.892	13.360	1707.555	1297.746
24.907	13.196	1706.367	1295.443
25.921	13.241	1705.046	1294.674
26.936	13.170	1705.207	1294.128
27.950	13.252	1703.586	1293.425
28.965	13.285	1703.205	1293.280
29.980	13.292	1702.645	1292.797
30.994	13.331	1701.483	1292.104
32.009	13.464	1700.028	1291.923
33.023	13.444	1699.567	1291.303
34.038	13.439	1699.061	1290.767
35.053	13.367	1697.676	1289.037
36.067	13.465	1696.354	1288.677
37.082	13.422	1695.419	1287.519
38.096	13.437	1694.519	1286.838
39.111	13.346	1693.856	1285.516
40.126	13.342	1693.468	1285.078
41.140	13.372	1691.690	1283.850
42.155	13.378	1689.690	1282.266
43.169	13.292	1688.787	1280.799
44.184	13.257	1688.145	1279.928
45.199	13.208	1686.778	1278.397
46.213	13.163	1685.335	1276.846
47.228	13.190	1684.635	1276.411
48.242	13.182	1683.226	1275.168
49.257	13.277	1682.176	1274.991
50.271	13.258	1680.769	1273.668
51.286	13.355	1679.002	1272.960
52.301	13.323	1677.830	1271.710
53.315	13.329	1676.209	1270.415
54.330	13.321	1674.763	1269.147
55.344	13.268	1673.345	1267.553
56.359	13.148	1672.036	1265.535
57.374	13.224	1671.036	1265.242
58.388	13.206	1669.778	1264.046
59.403	13.263	1668.135	1263.123
60.417	13.174	1666.729	1261.263
61.432	13.184	1665.248	1260.110
62.447	13.156	1664.325	1259.085
63.461	13.163	1662.781	1257.861
64.476	13.116	1662.019	1256.814
65.490	13.118	1660.860	1255.842
66.505	13.065	1659.508	1254.305
67.520	13.144	1658.559	1254.076
68.534	13.188	1657.562	1253.545
69.549	13.126	1656.387	1252.078
70.563	13.165	1655.231	1251.393
71.578	13.179	1653.715	1250.236
72.593	13.121	1652.781	1248.985
73.607	13.168	1652.042	1248.668
74.622	13.120	1650.670	1247.157
75.636	13.159	1649.397	1246.381
76.651	13.045	1648.639	1244.838
77.666	13.080	1647.847	1244.397
78.680	13.003	1646.851	1242.954
79.695	13.080	1645.637	1242.502
80.709	13.191	1644.721	1242.539
81.724	13.119	1643.554	1241.010
82.739	13.114	1643.262	1240.636
83.753	13.286	1641.573	1240.541
84.768	13.263	1640.480	1239.435
85.782	13.221	1640.523	1239.040
86.797	13.368	1638.611	1238.589
87.812	13.376	1638.113	1238.166
88.826	13.359	1636.362	1236.604
89.841	13.261	1635.637	1235.213
90.855	13.264	1634.420	1234.208
91.870	13.138	1633.866	1232.741
92.884	13.249	1632.734	1232.608
93.899	13.397	1631.312	1232.528
94.914	13.299	1630.151	1230.811
95.928	13.373	1629.001	1230.382
96.943	13.372	1627.906	1229.441
97.957	13.355	1626.238	1227.948
98.972	13.393	1624.870	1227.088
99.987	13.294	1623.764	1225.408
101.001	13.276	1621.687	1223.602
102.016	13.293	1619.973	1222.319
103.030	13.314	1618.529	1221.277
104.045	13.274	1617.477	1220.082
105.060	13.266	1616.584	1219.240
106.074	13.290	1614.777	1217.949
107.089	13.282	1613.079	1216.498
108.103	13.228	1611.231	1214.600
109.118	13.134	1610.294	1213.101
110.133	13.218	1608.445	1212.215
111.147	13.136	1607.423	1210.739
112.162	13.192	1605.725	1209.764
113.176	13.233	1603.951	1208.619
114.191	13.276	1602.871	1208.010
115.206	13.245	1602.027	1207.043
116.220	13.293	1600.419	1206.074
117.235	13.290	1599.130	1204.975
118.249	13.268	1597.896	1203.778
119.264	13.127	1597.250	1202.158
120.279	13.306	1595.460	1202.003
121.293	13.247	1594.063	1200.417
122.308	13.254	1592.366	1199.086
123.322	13.255	1590.940	1197.909
124.337	13.277	1589.034	1196.529
125.352	13.165	1588.463	1195.185
126.366	13.205	1587.053	1194.307
127.381	13.190	1585.448	1192.882
128.395	13.193	1584.471	1192.065
129.410	13.209	1582.987	1190.958
130.424	13.159	1581.778	1189.587
131.439	13.257	1580.361	1189.119
132.454	13.244	1578.735	1187.698
133.468	13.260	1577.763	1186.974
134.483	13.262	1576.299	1185.784
135.497	13.308	1575.071	1185.086
136.512	13.319	1573.377	1183.783
137.527	13.260	1572.324	1182.467
138.541	13.290	1570.934	1181.530
139.556	13.347	1569.284	1180.590
140.570	13.301	1568.154	1179.304
141.585	13.323	1566.646	1178.223
142.600	13.343	1565.605	1177.479
143.614	13.423	1564.034	1176.760
144.629	13.438	1562.961	1175.958
145.643	13.521	1561.180	1175.103
146.658	13.528	1559.629	1173.885
147.673	13.458	1558.552	1172.472
148.687	13.487	1556.942	1171.364
149.702	13.404	1555.753	1169.776
150.716	13.454	1553.765	1168.535
151.731	13.436	1552.274	1167.180
152.746	13.444	1550.861	1166.073
153.760	13.467	1549.546	1165.142
154.775	13.439	1548.296	1163.899
155.789	13.510	1546.799	1163.168
156.804	13.588	1545.326	1162.509
157.819	13.468	1544.430	1160.892
158.833	13.614	1542.998	1160.735
159.848	13.712	1541.263	1160.011
160.862	13.691	1540.359	1159.080
161.877	13.605	1539.392	1157.647
162.892	13.591	1538.297	1156.627
163.906	13.608	1536.663	1155.415
164.921	13.548	1535.650	1154.134
165.935	13.531	1534.759	1153.242
166.950	13.546	1533.642	1152.402
167.964	13.483	1532.891	1151.301
168.979	13.587	1531.941	1151.207
169.994	13.581	1530.237	1149.782
171.008	13.506	1529.432	1148.559
172.023	13.607	1528.416	1148.392
173.037	13.626	1527.330	1147.606
174.052	13.684	1525.207	1146.311
175.067	13.720	1524.718	1146.094
176.081	13.667	1523.655	1144.825
177.096	13.634	1522.150	1143.365
178.110	13.636	1520.613	1142.125
179.125	13.666	1519.652	1141.504
180.140	13.664	1518.354	1140.417
181.154	13.689	1517.622	1139.938
182.169	13.695	1516.765	1139.236
183.183	13.786	1514.732	1138.229
184.198	13.835	1513.791	1137.762
185.213	13.807	1512.664	1136.618
186.227	13.775	1511.836	1135.678
187.242	13.952	1510.312	1135.640
188.256	13.874	1509.350	1134.284
189.271	14.015	1508.283	1134.348
190.286	13.925	1507.542	1133.072
191.300	13.910	1506.351	1131.979
192.315	13.890	1504.445	1130.307
193.329	13.745	1503.621	1128.603
194.344	13.712	1502.422	1127.375
195.359	13.771	1501.824	1127.230
196.373	13.808	1500.733	1126.560
197.388	13.837	1499.373	1125.641
198.402	13.978	1497.596	1125.164
199.417	13.993	1496.696	1124.487
200.432	13.939	1496.245	1123.686
201.446	14.108	1494.781	1123.626
202.461	14.069	1493.827	1122.547
203.475	14.152	1492.653	1122.127
204.490	14.120	1491.743	1121.126
205.504	14.103	1490.874	1120.259
206.519	14.108	1489.200	1118.937
207.534	14.022	1488.379	1117.642
208.548	14.039	1487.409	1116.930
209.563	14.077	1486.111	1116.107
210.577	14.167	1484.680	1115.538
211.592	14.176	1484.142	1115.098
212.607	14.163	1483.564	1114.475
213.621	14.227	1482.953	1114.350
214.636	14.255	1481.592	1113.415
215.650	14.207	1480.125	1111.891
216.665	14.239	1479.653	1111.652
217.680	14.251	1478.912	1111.077
218.694	14.335	1478.094	1110.923
219.709	14.364	1477.183	1110.334
220.723	14.391	1476.093	1109.595
221.738	14.448	1474.648	1108.794
222.753	14.345	1474.024	1107.540
223.767	14.288	1473.353	1106.561
224.782	14.336	1472.269	1105.969
225.796	14.344	1471.246	1105.152
226.811	14.447	1470.310	1105.036
227.826	14.516	1469.103	1104.486
228.840	14.346	1468.731	1102.984
229.855	14.344	1468.445	1102.658
230.869	14.360	1466.817	1101.446
231.884	14.536	1465.507	1101.527
232.899	14.455	1464.357	1100.027
233.913	14.371	1463.511	1098.744
234.928	14.311	1462.476	1097.474
235.942	14.371	1461.276	1096.872
236.957	14.410	1459.727	1095.868
237.972	14.302	1458.916	1094.453
238.986	14.467	1457.116	1094.087
240.001	14.482	1456.392	1093.546
241.015	14.440	1455.609	1092.588
242.030	14.407	1454.981	1091.800
243.045	14.436	1453.894	1091.076
244.059	14.551	1452.372	1090.590
245.074	14.499	1451.656	1089.615
246.088	14.582	1451.021	1089.585
247.103	14.548	1450.535	1088.906
248.117	14.558	1449.612	1088.181
249.132	14.625	1448.325	1087.552
250.147	14.687	1448.231	1087.791
251.161	14.738	1447.289	1087.319
252.176	14.838	1446.307	1087.139
253.190	14.801	1446.239	1086.750
254.205	14.838	1444.797	1085.805
255.220	14.883	1444.026	1085.423
256.234	15.012	1442.957	1085.362
257.249	14.925	1442.436	1084.311
258.263	14.941	1441.697	1083.765
259.278	15.036	1440.439	1083.333
260.293	14.949	1439.299	1081.820
261.307	14.976	1438.643	1081.408
262.322	14.947	1437.967	1080.612
263.336	15.048	1437.344	1080.702
264.351	15.111	1436.406	1080.305
265.366	15.051	1435.360	1079.041
266.380	15.091	1434.261	1078.374
267.395	15.163	1433.403	1078.100
268.409	15.154	1432.388	1077.181
269.424	15.231	1431.203	1076.693
270.439	15.189	1430.147	1075.533
271.453	15.149	1429.462	1074.661
272.468	15.084	1429.027	1073.824
273.482	15.142	1427.903	1073.256
274.497	15.077	1427.436	1072.392
275.512	15.136	1426.323	1071.838
276.526	15.110	1425.419	1070.898
277.541	15.113	1424.339	1070.012
278.555	15.143	1423.439	1069.433
279.570	15.142	1422.276	1068.461
280.585	15.245	1421.403	1068.363
281.599	15.297	1420.811	1068.159
282.614	15.330	1419.466	1067.264
283.628	15.319	1418.373	1066.273
284.643	15.330	1417.379	1065.507
285.657	15.232	1416.384	1064.038
286.672	15.335	1415.177	1063.695
287.687	15.337	1414.653	1063.214
288.701	15.400	1413.225	1062.450
289.716	15.371	1412.531	1061.650
290.730	15.405	1411.386	1060.908
291.745	15.355	1411.092	1060.278
292.760	15.416	1410.033	1059.773
293.774	15.397	1409.088	1058.852
294.789	15.364	1408.228	1057.903
295.803	15.467	1407.477	1057.891
296.818	15.428	1406.192	1056.587
297.833	15.487	1405.650	1056.457
298.847	15.367	1404.469	1054.724
299.862	15.478	1403.348	1054.486
300.876	15.505	1402.377	1053.833
301.891	15.570	1401.053	1053.150
302.906	15.546	1400.461	1052.460
303.920	15.543	1400.068	1052.058
304.935	15.532	1399.133	1051.192
305.949	15.624	1398.135	1050.921
306.964	15.645	1397.219	1050.275
307.979	15.822	1396.270	1050.573
308.993	15.820	1395.058	1049.556
310.008	15.677	1394.663	1048.276
311.022	15.722	1393.412	1047.520
312.037	15.786	1392.354	1047.028
313.052	15.802	1391.363	1046.296
314.066	15.811	1390.382	1045.516
315.081	15.825	1389.567	1044.897
316.095	15.681	1388.841	1043.370
317.110	15.745	1387.284	1042.505
318.125	15.664	1386.638	1041.426
319.139	15.772	1385.589	1041.209
320.154	15.725	1384.911	1040.318
321.168	15.801	1383.504	1039.637
322.183	15.772	1382.753	1038.802
323.197	15.774	1381.582	1037.846
324.212	15.747	1380.779	1036.985
325.227	15.890	1380.136	1037.291
326.241	15.827	1378.926	1035.898
327.256	15.750	1378.323	1034.886
328.270	15.861	1377.175	1034.613
329.285	15.943	1376.263	1034.338
330.300	15.862	1375.785	1033.391
331.314	15.896	1374.580	1032.604
332.329	15.875	1373.593	1031.637
333.343	15.923	1373.043	1031.432
334.358	16.000	1371.792	1030.870
335.373	15.949	1370.949	1029.834
336.387	15.910	1370.359	1029.060
337.402	16.010	1369.637	1029.041
338.416	15.972	1369.114	1028.325
339.431	15.950	1368.309	1027.492
340.446	16.121	1367.250	1027.647
341.460	16.036	1366.923	1026.794
342.475	16.079	1365.697	1026.043
343.489	16.152	1364.501	1025.498
344.504	16.139	1363.749	1024.766
345.519	16.150	1362.913	1024.111
346.533	16.199	1361.918	1023.568
347.548	16.362	1360.952	1023.745
348.562	16.379	1359.727	1022.832
349.577	16.380	1359.219	1022.365
350.592	16.256	1358.731	1021.162
351.606	16.272	1357.629	1020.340
352.621	16.258	1356.460	1019.283
353.635	16.204	1355.308	1018.000
354.650	16.184	1354.616	1017.275
355.665	16.243	1353.679	1016.831
356.679	16.203	1352.707	1015.776
357.694	16.234	1351.177	1014.717
358.708	16.334	1349.615	1014.057
359.723	16.383	1349.073	1013.855
360.738	16.469	1347.541	1013.128
361.752	16.393	1347.143	1012.283
362.767	16.392	1345.904	1011.256
363.781	16.411	1344.872	1010.506
364.796	16.437	1344.689	1010.435
365.810	16.393	1343.838	1009.443
366.825	16.555	1342.821	1009.556
367.840	16.525	1341.949	1008.636
368.854	16.479	1341.804	1008.163
369.869	16.511	1341.043	1007.688
370.883	16.773	1339.873	1008.281
371.898	16.549	1339.572	1006.632
372.913	16.538	1339.053	1006.087
373.927	16.619	1337.567	1005.363
374.942	16.620	1336.783	1004.691
375.956	16.577	1336.339	1004.013
376.971	16.703	1335.111	1003.752
377.986	16.611	1334.665	1002.779
379.000	16.666	1333.931	1002.464
380.015	16.687	1332.566	1001.476
381.029	16.798	1331.829	1001.490
382.044	16.729	1331.606	1000.828
383.059	16.896	1330.078	1000.574
384.073	16.777	1329.864	999.625
385.088	16.761	1329.636	999.268
386.102	17.007	1328.147	999.508
387.117	16.820	1327.630	997.934
388.132	16.940	1326.882	997.988
389.146	16.833	1326.047	996.644
390.161	16.852	1325.385	996.168
391.175	16.841	1324.313	995.208
392.190	16.881	1323.832	994.997
393.205	16.842	1322.734	993.852
394.219	16.916	1321.419	993.212
395.234	16.950	1320.260	992.451
396.248	16.948	1319.471	991.758
397.263	16.955	1317.891	990.521
398.278	16.911	1316.496	989.130
399.292	16.864	1315.709	988.181
400.307	17.013	1314.318	987.914
401.321	16.877	1313.532	986.443
402.336	16.894	1312.232	985.480
403.350	16.926	1311.085	984.714
404.365	17.031	1310.159	984.540
405.380	17.050	1309.722	984.238
406.394	16.998	1308.664	983.053
407.409	16.976	1308.264	982.536
408.423	17.028	1307.375	982.084
409.438	17.075	1306.819	981.856
410.453	17.132	1306.046	981.514
411.467	17.218	1304.936	981.090
412.482	17.222	1304.684	980.834
413.496	17.212	1303.914	980.113
414.511	17.271	1303.159	979.797
415.526	17.278	1302.160	979.001
416.540	17.339	1301.509	978.775
417.555	17.249	1301.211	977.950
418.569	17.397	1300.264	978.000
419.584	17.381	1299.751	977.440
420.599	17.428	1299.277	977.266
421.613	98.418	1361.049	1485.251
422.628	96.650	1369.972	1485.339
