DTS Sentinel unit serial number:	SN413079Multiplexer serial number:	ORYXHardware model number:	OX4-SRSoftware version number:	ORYX F/W v4.00 Oryx Data Collector v3.7.2.0data status	okinstallation	princeton_trtdifferential loss correction	single-endedforward channel	channel 4reverse channel	N/Adate	2019/09/16time	07:33:34forward acquisition time	60.00reverse acquisition time	0.00gamma	496.2192k internal	0.2319k external	0.2319temperature offset calibration	0.9979default loss term (dB/km)	0.3790temperature slope calibration	1.0000multiplexer offset coefficient	1.0000multiplexer slope coefficient	1.0000fibre end	0.00T internal ref (°C)	27.69T ext. ref 1 (°C)	11.64T ext. ref 2 (°C)	24.11length (m)	temperature (°C)	Stokes	anti-Stokes-747.200	99.763	-0.235	-0.275
-746.185	-200.000	-0.021	-0.261
-745.171	147.990	-0.048	0.066
-744.156	-93.082	-0.291	0.082
-743.142	-134.693	-0.212	-0.026
-742.127	800.000	-0.049	0.143
-741.112	-22.012	0.208	0.128
-740.098	-15.430	-0.113	0.073
-739.083	-200.000	-0.066	-0.370
-738.069	800.000	-0.069	0.237
-737.054	123.889	0.022	-0.028
-736.039	-29.178	-0.449	-0.260
-735.025	129.456	0.234	0.303
-734.010	19.494	-0.282	0.230
-732.996	-200.000	-0.037	0.231
-731.981	72.170	0.177	0.187
-730.966	449.487	-0.104	-0.233
-729.952	-83.653	-0.196	0.063
-728.937	-129.056	-0.195	0.028
-727.923	800.000	-0.069	0.261
-726.908	203.337	-0.091	-0.142
-725.894	-127.418	-0.301	-0.044
-724.879	10.904	-0.064	0.049
-723.864	351.434	0.115	-0.230
-722.850	-101.009	0.251	0.062
-721.835	-5.226	0.245	0.170
-720.821	-58.414	0.153	0.067
-719.806	37.292	-0.148	-0.133
-718.791	-200.000	0.027	-0.231
-717.777	133.926	-0.156	-0.204
-716.762	-22.992	0.264	-0.161
-715.748	-87.821	0.154	0.047
-714.733	-162.600	0.178	-0.009
-713.718	122.443	-0.173	0.218
-712.704	-24.154	-0.219	-0.132
-711.689	34.066	-0.161	0.142
-710.675	-93.384	0.338	0.095
-709.660	-159.484	-0.247	0.014
-708.645	251.683	0.039	-0.067
-707.631	-43.379	0.060	-0.030
-706.616	800.000	-0.036	0.131
-705.602	-200.000	0.044	-0.218
-704.587	94.022	-0.187	0.214
-703.572	-70.140	0.128	-0.049
-702.558	-122.401	-0.184	0.030
-701.543	-200.000	0.018	-0.117
-700.529	-200.000	0.022	0.255
-699.514	224.520	0.115	-0.187
-698.499	232.056	0.235	0.389
-697.485	-108.300	0.106	-0.023
-696.470	800.000	-0.202	0.631
-695.456	79.152	-0.183	0.198
-694.441	216.823	-0.068	-0.109
-693.426	0.589	-0.291	0.210
-692.412	60.659	0.111	-0.111
-691.397	84.908	0.201	-0.222
-690.383	58.214	-0.132	0.130
-689.368	135.433	0.069	0.090
-688.354	-168.422	0.237	-0.009
-687.339	169.518	-0.046	0.066
-686.324	81.736	-0.228	-0.249
-685.310	292.641	0.045	0.083
-684.295	-200.000	0.018	0.176
-683.281	-146.015	0.119	-0.011
-682.266	69.732	-0.154	0.160
-681.251	-120.691	0.251	0.043
-680.237	-96.572	-0.073	-0.019
-679.222	343.225	-0.083	-0.165
-678.208	-200.000	0.007	-0.112
-677.193	90.050	-0.120	-0.136
-676.178	-47.299	0.145	0.071
-675.164	-200.000	-0.008	0.246
-674.149	32.008	0.182	0.158
-673.135	-200.000	0.061	0.374
-672.120	-200.000	-0.040	0.478
-671.105	800.000	-0.051	0.217
-670.091	-47.806	0.165	0.081
-669.076	298.301	0.186	-0.345
-668.062	-200.000	-0.065	-0.335
-667.047	-77.524	0.157	-0.055
-666.032	97.226	0.249	0.288
-665.018	800.000	-0.053	-0.230
-664.003	-140.697	0.327	-0.034
-662.989	319.031	0.164	-0.314
-661.974	-200.000	0.025	-0.134
-660.959	345.616	0.056	-0.112
-659.945	58.871	0.258	0.256
-658.930	-84.857	0.326	0.103
-657.916	-200.000	-0.062	-0.475
-656.901	-200.000	0.018	0.141
-655.886	-200.000	-0.005	-0.093
-654.872	655.666	0.073	-0.189
-653.857	-200.000	-0.060	-0.295
-652.843	121.178	-0.150	-0.188
-651.828	13.095	-0.297	-0.232
-650.814	19.689	0.218	0.177
-649.799	-73.635	-0.052	-0.019
-648.784	-200.000	0.014	0.211
-647.770	103.334	-0.150	0.178
-646.755	-61.559	0.356	-0.151
-645.741	-200.000	0.008	-0.172
-644.726	497.360	0.017	0.039
-643.711	-200.000	-0.046	0.357
-642.697	-0.816	0.055	0.039
-641.682	711.808	0.127	-0.339
-640.668	2.221	-0.290	0.211
-639.653	-200.000	0.044	-0.284
-638.638	-68.686	-0.159	0.062
-637.624	15.506	-0.270	0.214
-636.609	-28.388	0.226	-0.131
-635.595	30.979	0.171	-0.148
-634.580	443.292	-0.039	-0.086
-633.565	800.000	-0.036	-0.123
-632.551	416.882	0.089	0.191
-631.536	-108.440	0.096	-0.021
-630.522	800.000	-0.093	0.297
-629.507	323.996	-0.086	-0.166
-628.492	224.553	0.117	-0.190
-627.478	40.380	0.156	-0.142
-626.463	-122.381	-0.310	-0.051
-625.449	-200.000	0.070	-0.356
-624.434	-28.627	0.101	0.059
-623.419	-69.336	0.040	0.015
-622.405	-200.000	-0.012	0.125
-621.390	658.989	0.120	0.312
-620.376	-200.000	-0.002	0.273
-619.361	64.058	0.191	-0.194
-618.346	127.408	0.290	0.371
-617.332	800.000	-0.097	0.284
-616.317	-4.456	-0.339	-0.236
-615.303	-83.200	-0.056	0.018
-614.288	230.206	0.198	0.326
-613.273	-200.000	0.029	0.200
-612.259	-6.735	0.275	-0.189
-611.244	0.676	-0.160	-0.115
-610.230	-53.503	-0.202	0.093
-609.215	108.917	-0.177	-0.213
-608.201	-89.840	0.169	-0.050
-607.186	562.215	0.073	-0.178
-606.171	-122.108	0.281	0.046
-605.157	381.535	-0.172	-0.356
-604.142	-171.147	0.111	-0.004
-603.128	279.268	-0.141	0.254
-602.113	-145.371	0.416	0.038
-601.098	223.231	-0.015	-0.024
-600.084	462.402	-0.078	-0.175
-599.069	800.000	-0.057	-0.180
-598.055	61.506	-0.179	-0.180
-597.040	-200.000	0.001	0.095
-596.025	149.325	-0.047	0.064
-595.011	400.800	-0.165	-0.348
-593.996	249.369	0.177	0.301
-592.982	-32.779	0.132	-0.074
-591.967	18.956	0.312	0.252
-590.952	-53.279	0.199	-0.092
-589.938	-200.000	-0.018	0.107
-588.923	-95.423	-0.251	0.068
-587.909	243.272	-0.059	-0.099
-586.894	12.247	-0.513	0.397
-585.879	185.063	-0.057	-0.086
-584.865	-141.504	-0.305	0.031
-583.850	671.636	-0.057	-0.149
-582.836	-161.430	0.071	-0.004
-581.821	-137.988	-0.284	0.032
-580.806	43.701	0.113	0.104
-579.792	609.178	-0.099	-0.247
-578.777	86.130	-0.104	0.115
-577.763	-122.904	-0.255	0.041
-576.748	-143.141	0.193	0.019
-575.733	-27.392	-0.366	0.214
-574.719	-96.914	-0.135	-0.036
-573.704	-158.830	0.115	0.007
-572.690	37.766	0.133	-0.119
-571.675	-200.000	0.008	0.180
-570.661	-200.000	-0.026	-0.180
-569.646	-200.000	-0.009	-0.341
-568.631	-76.873	-0.170	-0.060
-567.617	86.505	0.124	-0.137
-566.602	-200.000	-0.110	-0.597
-565.588	796.151	0.084	-0.234
-564.573	150.595	-0.051	-0.069
-563.558	800.000	-0.071	-0.291
-562.544	217.937	0.131	-0.209
-561.529	-106.307	-0.114	-0.026
-560.515	-18.768	-0.381	0.238
-559.500	-64.648	0.253	-0.103
-558.485	144.335	-0.070	0.094
-557.471	-21.107	0.216	0.133
-556.456	-200.000	0.019	0.144
-555.442	-200.000	0.006	-0.143
-554.427	-25.325	0.048	0.028
-553.412	800.000	0.053	-0.157
-552.398	32.410	-0.306	-0.265
-551.383	800.000	-0.043	-0.177
-550.369	-28.568	-0.065	-0.038
-549.354	50.656	-0.206	0.196
-548.339	-88.691	-0.183	0.055
-547.325	349.064	0.096	-0.191
-546.310	-41.138	0.253	0.131
-545.296	54.345	-0.081	-0.079
-544.281	-14.465	0.127	0.082
-543.266	-170.394	-0.116	0.004
-542.252	307.822	-0.168	-0.315
-541.237	-96.402	-0.350	-0.093
-540.223	-144.007	0.054	0.005
-539.208	-36.283	-0.029	-0.016
-538.193	-68.466	-0.194	-0.076
-537.179	26.893	-0.074	-0.062
-536.164	-200.000	-0.009	0.227
-535.150	11.873	0.345	-0.266
-534.135	10.048	-0.196	0.149
-533.121	-150.068	0.474	0.037
-532.106	-200.000	0.030	0.203
-531.091	-22.649	-0.202	0.123
-530.077	-84.860	0.470	0.148
-529.062	-200.000	0.044	-0.283
-528.048	-104.961	-0.156	-0.036
-527.033	-9.238	0.428	0.287
-526.018	253.315	0.122	0.209
-525.004	-89.804	-0.157	-0.046
-523.989	-56.880	0.171	0.076
-522.975	457.222	-0.157	0.350
-521.960	654.097	-0.131	-0.336
-520.945	42.509	-0.297	-0.271
-519.931	-200.000	-0.055	0.280
-518.916	100.109	-0.043	-0.050
-517.902	-200.000	-0.021	-0.256
-516.887	-60.737	0.245	-0.104
-515.872	-200.000	-0.036	-0.313
-514.858	184.366	-0.087	-0.129
-513.843	50.437	-0.297	0.282
-512.829	-14.149	-0.451	0.292
-511.814	76.320	-0.129	0.137
-510.799	216.393	0.104	0.165
-509.785	-13.616	0.100	0.065
-508.770	800.000	0.039	0.141
-507.756	173.006	0.125	-0.180
-506.741	-200.000	0.035	-0.207
-505.726	-44.326	0.109	-0.055
-504.712	-121.732	0.202	-0.033
-503.697	3.898	-0.275	0.201
-502.683	-2.413	-0.365	-0.256
-501.668	-179.825	0.104	0.002
-500.653	-52.789	0.095	0.044
-499.639	800.000	-0.011	0.042
-498.624	317.309	-0.021	0.040
-497.610	-119.733	0.232	0.040
-496.595	103.850	-0.085	-0.100
-495.581	-200.000	0.014	0.107
-494.566	800.000	0.011	0.035
-493.551	800.000	-0.042	-0.175
-492.537	-181.533	-0.331	0.006
-491.522	-61.915	0.031	0.013
-490.508	-147.526	0.271	-0.023
-489.493	209.772	-0.073	0.115
-488.478	-90.611	-0.147	0.042
-487.464	-12.260	0.338	-0.221
-486.449	-73.135	0.129	-0.047
-485.435	-200.000	-0.061	-0.307
-484.420	800.000	0.030	-0.115
-483.405	-200.000	0.046	0.251
-482.391	-128.446	0.332	0.047
-481.376	-200.000	-0.075	-0.371
-480.362	-200.000	-0.001	-0.378
-479.347	-63.722	-0.183	0.075
-478.332	800.000	0.059	-0.192
-477.318	216.289	0.105	-0.166
-476.303	112.153	0.172	0.209
-475.289	-54.760	0.099	0.045
-474.274	-50.120	-0.168	-0.080
-473.259	540.569	0.027	0.064
-472.245	-12.408	-0.232	0.152
-471.230	-131.654	0.355	0.047
-470.216	800.000	-0.012	0.044
-469.201	-16.563	-0.217	-0.138
-468.186	800.000	0.084	0.270
-467.172	269.285	0.142	0.250
-466.157	77.987	-0.282	-0.301
-465.143	-200.000	-0.004	0.340
-464.128	-200.000	-0.045	0.263
-463.113	120.166	0.073	0.091
-462.099	800.000	-0.117	0.349
-461.084	-93.408	0.242	0.067
-460.070	416.940	0.037	0.080
-459.055	244.096	-0.095	-0.160
-458.040	-137.458	0.090	0.010
-457.026	800.000	0.095	0.384
-456.011	-106.103	0.110	0.025
-454.997	-200.000	0.003	0.067
-453.982	218.133	-0.148	-0.237
-452.968	-200.000	0.033	0.229
-451.953	-90.812	0.218	-0.063
-450.938	-120.638	0.184	0.031
-449.924	-14.853	-0.099	0.063
-448.909	-41.085	0.392	0.202
-447.895	-16.523	-0.080	-0.051
-446.880	-29.656	-0.198	0.113
-445.865	343.041	-0.053	0.104
-444.851	-107.083	-0.085	-0.019
-443.836	345.002	-0.065	-0.127
-442.822	-73.190	-0.107	0.039
-441.807	-200.000	0.018	-0.311
-440.792	-164.201	0.200	0.009
-439.778	102.686	0.118	-0.138
-438.763	-200.000	-0.060	0.293
-437.749	800.000	-0.043	-0.184
-436.734	-200.000	-0.036	0.199
-435.719	-200.000	0.014	-0.120
-434.705	-200.000	0.016	0.199
-433.690	-195.554	0.150	-0.001
-432.676	-72.971	-0.231	0.085
-431.661	-66.569	-0.171	0.068
-430.646	-16.968	-0.265	0.167
-429.632	-37.954	0.136	-0.072
-428.617	72.763	0.115	-0.120
-427.603	800.000	-0.047	-0.137
-426.588	10.036	0.110	-0.083
-425.573	434.425	-0.135	-0.293
-424.559	800.000	-0.039	0.163
-423.544	5.425	-0.130	-0.096
-422.530	-11.983	-0.171	0.112
-421.515	-136.567	0.106	-0.012
-420.500	-200.000	0.007	0.302
-419.486	-2.095	0.085	0.060
-418.471	-200.000	-0.034	-0.349
-417.457	131.013	0.087	0.111
-416.442	53.215	-0.109	-0.104
-415.428	-50.253	0.210	-0.099
-414.413	-32.472	-0.303	0.169
-413.398	-120.294	0.152	0.026
-412.384	-126.587	-0.294	-0.044
-411.369	15.725	-0.093	0.073
-410.355	800.000	0.072	0.304
-409.340	499.051	-0.100	0.230
-408.325	-29.794	-0.061	0.035
-407.311	-91.157	0.308	-0.088
-406.296	-60.252	-0.050	-0.021
-405.282	-77.297	0.034	0.012
-404.267	45.531	0.040	0.037
-403.252	-200.000	-0.099	0.526
-402.238	-106.182	0.139	0.031
-401.223	173.772	0.237	-0.342
-400.209	-124.890	0.253	0.039
-399.194	532.919	0.053	-0.124
-398.179	-200.000	-0.021	0.307
-397.165	-20.537	0.143	0.088
-396.150	-130.597	0.168	-0.023
-395.136	-40.844	0.126	0.065
-394.121	-167.789	0.260	0.010
-393.106	800.000	0.085	-0.253
-392.092	-10.468	0.174	-0.115
-391.077	110.119	-0.198	-0.237
-390.063	-42.886	0.253	0.128
-389.048	-37.382	0.214	0.114
-388.033	-192.932	-0.201	0.002
-387.019	-14.621	0.055	-0.035
-386.004	188.734	0.142	-0.213
-384.990	300.297	-0.215	0.396
-383.975	-195.601	-0.534	0.004
-382.960	-85.164	-0.223	-0.070
-381.946	-200.000	-0.008	0.088
-380.931	512.087	-0.082	-0.191
-379.917	800.000	0.018	-0.065
-378.902	-160.520	0.182	-0.010
-377.888	-200.000	0.000	-0.307
-376.873	288.409	-0.077	0.139
-375.858	154.387	0.057	0.077
-374.844	-84.963	-0.526	0.165
-373.829	-139.838	0.344	-0.036
-372.815	-106.010	-0.291	-0.065
-371.800	289.788	0.117	-0.211
-370.785	68.426	-0.092	-0.094
-369.771	-65.555	-0.402	0.161
-368.756	20.937	0.142	-0.115
-367.742	204.555	0.078	-0.121
-366.727	489.383	0.180	0.410
-365.712	800.000	-0.092	0.276
-364.698	406.125	0.046	-0.096
-363.683	203.892	0.070	0.108
-362.669	279.528	-0.089	-0.158
-361.654	800.000	-0.023	0.090
-360.639	26.519	0.153	-0.128
-359.625	-57.516	0.324	0.142
-358.610	342.163	-0.150	-0.291
-357.596	-197.968	-0.220	-0.001
-356.581	-82.823	0.274	-0.088
-355.566	-112.835	-0.144	0.028
-354.552	211.239	0.316	-0.496
-353.537	-136.709	-0.026	0.003
-352.523	85.816	0.104	0.114
-351.508	-200.000	-0.026	-0.326
-350.493	800.000	-0.015	0.065
-349.479	-167.484	0.241	-0.010
-348.464	502.562	0.032	-0.074
-347.450	-57.011	-0.123	0.054
-346.435	-200.000	0.058	-0.320
-345.420	221.372	-0.088	-0.141
-344.406	-200.000	0.029	-0.158
-343.391	-103.103	-0.136	-0.032
-342.377	-122.885	0.266	0.043
-341.362	-11.190	0.089	0.058
-340.348	171.221	-0.197	-0.282
-339.333	-121.008	-0.367	-0.061
-338.318	126.780	0.042	0.053
-337.304	334.126	0.187	-0.361
-336.289	208.802	0.009	-0.014
-335.275	18.818	-0.022	-0.017
-334.260	-55.275	0.207	-0.093
-333.245	-162.164	-0.188	0.009
-332.231	-156.129	0.443	0.028
-331.216	-115.563	-0.287	0.054
-330.202	800.000	0.087	-0.338
-329.187	-11.401	-0.395	-0.259
-328.172	78.780	-0.109	-0.116
-327.158	9.912	0.129	0.098
-326.143	-92.583	-0.091	0.025
-325.129	-19.876	-0.247	-0.152
-324.114	323.753	0.136	-0.259
-323.099	590.016	0.114	-0.279
-322.085	26.644	0.289	0.241
-321.070	38.685	-0.050	-0.044
-320.056	-200.000	-0.014	-0.116
-319.041	649.735	-0.044	0.113
-318.026	135.036	0.328	0.424
-317.012	192.341	0.073	-0.109
-315.997	31.426	0.244	-0.208
-314.983	-50.091	-0.077	-0.036
-313.968	-13.520	-0.228	0.147
-312.953	-79.096	0.389	-0.131
-311.939	-200.000	-0.021	-0.241
-310.924	320.130	0.122	0.230
-309.910	-34.782	-0.084	-0.045
-308.895	-120.552	0.501	0.085
-307.880	10.761	-0.184	-0.140
-306.866	800.000	-0.046	-0.130
-305.851	183.579	-0.117	0.172
-304.837	691.768	0.005	-0.013
-303.822	-26.954	-0.060	-0.035
-302.807	-39.165	0.132	-0.069
-301.793	-153.702	0.315	-0.022
-300.778	5.100	0.172	0.126
-299.764	-200.000	0.053	0.366
-298.749	-161.449	0.559	0.029
-297.735	-200.000	-0.010	0.283
-296.720	-200.000	-0.035	0.277
-295.705	800.000	0.038	-0.115
-294.691	-82.011	-0.075	-0.024
-293.676	-178.929	0.016	-0.000
-292.662	29.469	0.321	0.271
-291.647	81.623	0.142	-0.153
-290.632	36.049	-0.045	-0.039
-289.618	-200.000	0.028	-0.263
-288.603	-200.000	-0.077	0.339
-287.589	800.000	0.054	0.200
-286.574	-200.000	0.011	0.263
-285.559	-200.000	0.001	-0.231
-284.545	-200.000	0.003	-0.088
-283.530	184.296	-0.030	-0.044
-282.516	-163.812	-0.519	-0.024
-281.501	-191.781	-0.173	-0.002
-280.486	-200.000	0.055	0.311
-279.472	186.106	-0.063	0.093
-278.457	-200.000	-0.005	0.092
-277.443	468.220	0.146	0.325
-276.428	93.097	-0.366	-0.411
-275.413	39.768	-0.022	0.020
-274.399	-167.580	0.205	-0.008
-273.384	-200.000	-0.029	0.168
-272.370	-140.656	-0.169	0.017
-271.355	7.783	-0.065	-0.048
-270.340	-40.473	0.108	0.056
-269.326	203.500	-0.157	0.241
-268.311	-200.000	0.035	0.210
-267.297	-200.000	-0.001	0.281
-266.282	312.457	-0.055	-0.102
-265.267	39.360	-0.224	-0.199
-264.253	-69.006	0.368	-0.141
-263.238	-33.330	0.140	-0.077
-262.224	-200.000	0.025	-0.283
-261.209	499.166	0.142	0.325
-260.195	-117.190	0.097	0.018
-259.180	-38.582	-0.277	0.145
-258.165	-62.743	0.065	0.027
-257.151	-200.000	0.038	0.242
-256.136	-150.418	0.285	-0.022
-255.122	109.771	-0.217	0.258
-254.107	-200.000	-0.013	-0.175
-253.092	-42.753	-0.210	-0.106
-252.078	-56.418	-0.506	0.223
-251.063	-158.157	0.246	-0.014
-250.049	149.800	0.116	0.156
-249.034	-200.000	-0.037	-0.203
-248.019	-174.492	0.288	0.008
-247.005	-84.476	0.290	0.091
-245.990	36.665	-0.135	-0.118
-244.976	800.000	0.028	-0.112
-243.961	38.763	-0.059	0.052
-242.946	71.918	-0.064	0.066
-241.932	-73.033	0.170	0.062
-240.917	-110.507	-0.238	0.049
-239.903	412.184	0.077	0.161
-238.888	-75.521	-0.083	0.029
-237.873	271.041	0.038	-0.066
-236.859	800.000	0.022	0.081
-235.844	-143.219	-0.038	0.004
-234.830	54.966	-0.187	-0.179
-233.815	110.968	-0.074	0.088
-232.800	-58.539	-0.022	0.009
-231.786	-104.328	0.310	0.071
-230.771	-200.000	-0.065	-0.333
-229.757	-61.900	0.262	-0.108
-228.742	569.065	0.004	-0.009
-227.727	-200.000	-0.024	-0.115
-226.713	800.000	-0.044	0.124
-225.698	-200.000	-0.007	-0.181
-224.684	215.022	0.093	0.147
-223.669	-107.310	0.067	0.015
-222.655	800.000	0.070	0.204
-221.640	453.758	0.027	-0.060
-220.625	-99.613	-0.271	0.067
-219.611	18.278	0.061	0.048
-218.596	180.482	-0.057	0.083
-217.582	-45.717	-0.038	0.019
-216.567	124.301	-0.149	0.186
-215.552	-66.945	0.446	-0.175
-214.538	-80.467	-0.098	-0.032
-213.523	-200.000	0.001	-0.272
-212.509	-200.000	0.002	-0.158
-211.494	-48.680	-0.188	0.090
-210.479	352.274	0.090	-0.176
-209.465	8.314	-0.160	-0.119
-208.450	39.303	0.139	-0.123
-207.436	491.067	0.046	-0.105
-206.421	-155.487	-0.244	-0.016
-205.406	29.383	-0.086	0.073
-204.392	-116.256	-0.231	-0.042
-203.377	-200.000	-0.002	-0.446
-202.363	-200.000	0.015	0.244
-201.348	166.204	0.085	0.120
-200.333	11.280	-0.315	-0.239
-199.319	800.000	-0.083	-0.245
-198.304	-200.000	-0.022	0.189
-197.290	-102.722	-0.264	0.062
-196.275	-119.299	0.250	0.043
-195.260	188.083	0.057	-0.084
-194.246	-200.000	-0.007	-0.135
-193.231	-156.400	0.136	-0.008
-192.217	-200.000	-0.007	-0.243
-191.202	-133.990	-0.063	-0.008
-190.187	-200.000	0.006	-0.134
-189.173	800.000	-0.077	-0.217
-188.158	2.091	-0.178	0.128
-187.144	124.480	0.185	-0.231
-186.129	-200.000	-0.020	0.249
-185.114	281.319	0.124	-0.219
-184.100	-73.406	0.197	0.071
-183.085	-107.292	0.132	0.029
-182.071	800.000	0.033	-0.091
-181.056	-22.167	0.241	0.145
-180.042	-200.000	0.084	0.480
-179.027	500.459	-0.085	0.195
-178.012	-88.467	-0.284	0.084
-176.998	-200.000	0.000	-0.009
-175.983	382.653	0.083	0.168
-174.969	-52.760	0.183	0.083
-173.954	256.062	0.121	-0.205
-172.939	33.647	-0.128	-0.110
-171.925	610.385	0.066	0.163
-170.910	-200.000	0.013	0.142
-169.896	677.388	-0.022	-0.056
-168.881	-161.609	-0.208	0.011
-167.866	67.790	-0.091	0.092
-166.852	-200.000	-0.034	-0.210
-165.837	345.924	-0.095	0.186
-164.823	-200.000	0.002	0.040
-163.808	-200.000	-0.027	0.327
-162.793	800.000	-0.044	-0.151
-161.779	-41.498	0.116	-0.059
-160.764	-102.464	0.164	0.039
-159.750	-47.713	-0.114	0.055
-158.735	-107.613	-0.193	0.042
-157.720	800.000	-0.122	0.491
-156.706	42.900	0.056	0.050
-155.691	-116.491	-0.296	0.054
-154.677	52.592	-0.240	0.227
-153.662	767.050	-0.009	-0.025
-152.647	512.654	-0.094	0.217
-151.633	-96.394	-0.235	0.061
-150.618	625.075	-0.141	-0.352
-149.604	263.530	0.041	-0.070
-148.589	-189.745	0.510	-0.006
-147.574	-150.272	0.186	0.014
-146.560	-200.000	0.021	0.173
-145.545	-17.036	0.045	-0.028
-144.531	-25.505	0.127	0.074
-143.516	368.751	-0.103	0.205
-142.502	-138.560	0.204	0.022
-141.487	-200.000	-0.016	0.195
-140.472	800.000	0.093	0.322
-139.458	-172.334	-0.116	0.004
-138.443	142.697	-0.138	-0.181
-137.429	-50.840	0.198	0.092
-136.414	15.485	-0.137	0.106
-135.399	-106.339	-0.275	0.061
-134.385	744.827	-0.069	0.184
-133.370	330.558	0.121	0.231
-132.356	-27.441	-0.241	-0.139
-131.341	191.591	-0.143	-0.212
-130.326	494.685	-0.106	-0.241
-129.312	-200.000	0.039	-0.233
-128.297	145.362	-0.201	0.266
-127.283	800.000	0.039	-0.142
-126.268	800.000	0.070	0.294
-125.253	-200.000	0.014	0.505
-124.239	167.936	0.209	0.294
-123.224	-200.000	0.020	0.096
-122.210	310.829	-0.139	0.257
-121.195	97.373	-0.178	0.202
-120.180	276.225	0.102	0.179
-119.166	-200.000	-0.009	-0.117
-118.151	-200.000	0.000	0.103
-117.137	-71.524	0.090	-0.033
-116.122	800.000	0.083	0.327
-115.107	137.717	-0.034	-0.044
-114.093	30.222	-0.229	-0.193
-113.078	-20.487	0.252	-0.153
-112.064	-136.106	0.186	-0.021
-111.049	-117.352	-0.159	-0.028
-110.034	333.557	0.067	-0.127
-109.020	398.493	0.034	-0.070
-108.005	800.000	-0.030	0.105
-106.991	97.845	-0.075	0.085
-105.976	133.171	-0.108	0.137
-104.962	686.940	-0.071	0.184
-103.947	228.465	0.157	0.252
-102.932	-200.000	-0.028	0.304
-101.918	589.245	-0.102	-0.247
-100.903	-200.000	0.002	-0.069
-99.889	-200.000	0.008	-0.194
-98.874	139.139	0.159	0.206
-97.859	154.686	0.160	0.217
-96.845	282.436	0.145	-0.256
-95.830	78.054	0.092	-0.097
-94.816	800.000	0.055	-0.189
-93.801	800.000	0.036	0.148
-92.786	-112.731	0.333	-0.065
-91.772	192.858	-0.053	0.078
-90.757	-184.674	0.256	-0.004
-89.743	-57.076	0.193	0.084
-88.728	129.222	-0.122	-0.153
-87.713	-200.000	0.023	0.161
-86.699	612.147	0.040	0.098
-85.684	104.906	-0.059	0.069
-84.670	0.981	0.228	0.161
-83.655	-141.843	-0.261	-0.026
-82.640	-200.000	-0.013	0.178
-81.626	1.381	-0.247	-0.175
-80.611	-200.000	-0.009	0.093
-79.597	72.934	-0.092	-0.094
-78.582	52.206	-0.126	0.118
-77.567	-200.000	-0.027	0.364
-76.553	-81.650	0.245	0.079
-75.538	33.938	-0.157	0.135
-74.524	465.949	-0.129	0.285
-73.509	226.902	0.098	-0.157
-72.494	-68.036	0.285	0.109
-71.480	-1.198	0.251	0.175
-70.465	800.000	0.017	0.066
-69.451	127.106	-0.095	0.118
-68.436	-200.000	-0.003	-0.200
-67.422	-24.878	0.056	-0.033
-66.407	-127.608	0.051	-0.007
-65.392	-77.665	0.103	-0.035
-64.378	109.386	-0.059	0.070
-63.363	71.778	0.212	-0.217
-62.349	-42.598	-0.252	0.127
-61.334	-5.056	-0.870	-0.590
-60.319	156.173	0.448	0.608
-59.305	235.971	-0.620	-1.010
-58.290	194.847	0.807	1.205
-57.276	800.000	0.431	1.516
-56.261	-200.000	111.962	629.685
-55.246	456.703	1510.193	3301.601
-54.232	143.341	2688.764	3524.267
-53.217	94.844	2332.341	2612.760
-52.203	34.200	2080.189	1785.846
-51.188	29.451	1993.880	1668.854
-50.173	27.989	1976.861	1641.426
-49.159	45.521	2033.813	1848.884
-48.144	45.063	2050.105	1859.445
-47.130	29.997	2009.574	1686.694
-46.115	27.710	1999.134	1657.120
-45.100	27.644	1996.062	1653.904
-44.086	27.561	1994.406	1651.713
-43.071	27.483	1991.909	1648.874
-42.057	27.490	1989.423	1646.816
-41.042	27.528	1987.897	1645.831
-40.027	27.498	1985.899	1643.845
-39.013	27.568	1983.895	1642.751
-37.998	27.561	1982.463	1641.439
-36.984	27.599	1980.425	1640.021
-35.969	27.504	1978.661	1637.641
-34.954	27.664	1976.338	1637.094
-33.940	27.585	1975.473	1635.601
-32.925	27.628	1973.594	1634.363
-31.911	27.715	1971.235	1633.129
-30.896	27.668	1969.869	1631.507
-29.881	27.705	1968.548	1630.681
-28.867	27.780	1966.604	1629.681
-27.852	27.803	1965.052	1628.535
-26.838	27.784	1963.772	1627.241
-25.823	27.696	1961.895	1624.837
-24.809	27.739	1959.914	1623.513
-23.794	27.764	1958.171	1622.228
-22.779	27.712	1956.416	1620.248
-21.765	27.696	1955.063	1618.921
-20.750	27.650	1952.977	1616.722
-19.736	27.711	1951.775	1616.200
-18.721	27.724	1949.592	1614.439
-17.706	27.690	1948.331	1613.038
-16.692	27.676	1946.861	1611.634
-15.677	27.770	1945.420	1611.198
-14.663	27.734	1943.877	1609.541
-13.648	27.705	1942.581	1608.152
-12.633	27.752	1941.544	1607.645
-11.619	27.786	1940.149	1606.722
-10.604	27.727	1938.807	1605.027
-9.590	27.708	1937.417	1603.647
-8.575	27.640	1936.444	1602.184
-7.560	27.649	1935.077	1601.066
-6.546	27.746	1933.263	1600.348
-5.531	27.763	1932.341	1599.678
-4.517	27.690	1931.016	1597.874
-3.502	27.630	1930.287	1596.684
-2.487	27.691	1928.724	1595.863
-1.473	27.771	1927.538	1595.512
-0.458	27.764	1922.958	1591.602
0.556	26.081	1904.145	1567.096
1.571	22.423	1887.120	1521.395
2.586	19.013	1910.571	1510.282
3.600	18.273	1947.173	1532.461
4.615	18.259	1942.279	1528.344
5.629	16.761	1848.624	1441.778
6.644	13.635	1742.836	1334.031
7.659	11.813	1711.923	1295.838
8.673	11.657	1709.181	1292.413
9.688	11.641	1707.793	1291.125
10.702	11.693	1706.186	1290.205
11.717	11.568	1702.383	1286.232
12.731	11.756	1701.250	1286.737
13.746	14.128	1705.690	1308.668
14.761	16.963	1710.901	1334.893
15.775	17.819	1711.516	1341.992
16.790	17.410	1708.830	1336.551
17.804	16.298	1706.271	1325.707
18.819	15.302	1702.630	1314.950
19.834	14.643	1699.711	1307.424
20.848	14.228	1698.367	1303.025
21.863	13.959	1696.974	1299.733
22.877	13.763	1694.886	1296.487
23.892	13.480	1694.241	1293.670
24.907	13.436	1692.986	1292.255
25.921	13.311	1691.953	1290.373
26.936	13.463	1690.072	1290.012
27.950	13.487	1689.661	1289.768
28.965	13.471	1688.944	1288.989
29.980	13.517	1688.494	1288.888
30.994	13.603	1686.987	1288.293
32.009	13.608	1685.982	1287.444
33.023	13.616	1685.302	1286.876
34.038	13.703	1684.082	1286.510
35.053	13.682	1682.876	1285.305
36.067	13.576	1681.777	1283.535
37.082	13.501	1680.981	1282.233
38.096	13.626	1679.549	1281.992
39.111	13.615	1678.614	1281.080
40.126	13.668	1677.949	1280.872
41.140	13.653	1677.281	1280.129
42.155	13.564	1675.439	1277.927
43.169	13.439	1674.121	1275.845
44.184	13.356	1673.063	1274.288
45.199	13.358	1672.168	1273.504
46.213	13.289	1670.933	1271.920
47.228	13.443	1668.819	1271.387
48.242	13.496	1668.262	1271.254
49.257	13.547	1667.032	1270.592
50.271	13.524	1666.088	1269.585
51.286	13.451	1664.493	1267.699
52.301	13.553	1663.146	1267.341
53.315	13.471	1662.261	1265.927
54.330	13.576	1660.255	1265.089
55.344	13.479	1658.926	1263.226
56.359	13.440	1657.385	1261.643
57.374	13.530	1656.254	1261.357
58.388	13.513	1655.180	1260.300
59.403	13.361	1653.731	1257.927
60.417	13.400	1652.546	1257.210
61.432	13.391	1651.189	1255.998
62.447	13.379	1649.977	1254.874
63.461	13.323	1649.084	1253.659
64.476	13.264	1647.861	1252.174
65.490	13.290	1646.890	1251.519
66.505	13.335	1645.436	1250.646
67.520	13.281	1644.582	1249.475
68.534	13.283	1643.701	1248.709
69.549	13.344	1641.887	1247.687
70.563	13.364	1641.086	1247.117
71.578	13.321	1640.074	1245.915
72.593	13.301	1638.822	1244.700
73.607	13.213	1637.963	1243.275
74.622	13.237	1636.971	1242.596
75.636	13.157	1636.329	1241.391
76.651	13.196	1635.186	1240.708
77.666	13.218	1634.170	1239.993
78.680	13.281	1632.872	1239.369
79.695	13.270	1632.123	1238.613
80.709	13.377	1630.718	1238.239
81.724	13.296	1630.710	1237.517
82.739	13.256	1629.797	1236.415
83.753	13.400	1628.435	1236.346
84.768	13.457	1627.505	1235.955
85.782	13.527	1626.558	1235.654
86.797	13.605	1625.825	1235.567
87.812	13.649	1624.851	1235.048
88.826	13.530	1624.166	1233.526
89.841	13.571	1622.065	1232.131
90.855	13.517	1621.881	1231.475
91.870	13.566	1620.239	1230.484
92.884	13.555	1619.480	1229.720
93.899	13.581	1618.570	1229.112
94.914	13.525	1617.504	1227.776
95.928	13.504	1616.394	1226.673
96.943	13.696	1614.775	1226.755
97.957	13.650	1613.081	1225.024
98.972	13.561	1612.283	1223.649
99.987	13.552	1610.612	1222.208
101.001	13.721	1607.891	1221.275
102.016	13.570	1606.832	1219.257
103.030	13.448	1605.767	1217.440
104.045	13.481	1604.934	1216.947
105.060	13.637	1602.706	1216.293
106.074	13.587	1601.196	1214.669
107.089	13.522	1599.423	1212.742
108.103	13.386	1598.154	1210.679
109.118	13.344	1596.386	1208.927
110.133	13.327	1595.200	1207.796
111.147	13.382	1594.091	1207.251
112.162	13.314	1592.768	1205.648
113.176	13.331	1591.131	1204.428
114.191	13.413	1590.024	1204.080
115.206	13.500	1588.186	1203.212
116.220	13.397	1587.499	1201.833
117.235	13.396	1585.713	1200.373
118.249	13.419	1584.691	1199.655
119.264	13.415	1583.174	1198.376
120.279	13.453	1581.771	1197.480
121.293	13.377	1580.596	1195.933
122.308	13.379	1578.996	1194.634
123.322	13.391	1577.193	1193.251
124.337	13.301	1576.237	1191.775
125.352	13.319	1574.742	1190.668
126.366	13.251	1574.262	1189.709
127.381	13.334	1572.320	1188.731
128.395	13.287	1571.062	1187.337
129.410	13.375	1569.634	1186.784
130.424	13.354	1568.222	1185.460
131.439	13.440	1567.210	1185.208
132.454	13.429	1565.340	1183.612
133.468	13.463	1564.104	1182.818
134.483	13.458	1562.772	1181.670
135.497	13.427	1561.444	1180.337
136.512	13.445	1560.215	1179.429
137.527	13.588	1558.398	1178.970
138.541	13.436	1557.869	1177.383
139.556	13.503	1556.316	1176.586
140.570	13.495	1554.940	1175.382
141.585	13.594	1553.998	1175.270
142.600	13.563	1552.430	1173.760
143.614	13.718	1551.157	1173.793
144.629	13.668	1550.457	1172.806
145.643	13.660	1548.679	1171.297
146.658	13.779	1547.102	1170.843
147.673	13.789	1545.226	1169.392
148.687	13.696	1544.202	1167.859
149.702	13.736	1542.715	1166.913
150.716	13.595	1540.849	1164.406
151.731	13.677	1539.571	1163.914
152.746	13.645	1538.358	1162.669
153.760	13.610	1536.704	1161.066
154.775	13.593	1536.282	1160.530
155.789	13.649	1534.372	1159.372
156.804	13.749	1533.184	1159.073
157.819	13.729	1531.973	1157.914
158.833	13.675	1531.139	1156.806
159.848	13.740	1529.800	1156.145
160.862	13.859	1528.680	1156.022
161.877	13.824	1527.407	1154.714
162.892	13.746	1526.086	1153.075
163.906	13.639	1525.247	1151.594
164.921	13.660	1523.367	1150.217
165.935	13.590	1522.529	1148.997
166.950	13.694	1521.574	1148.900
167.964	13.790	1520.271	1148.477
168.979	13.846	1519.152	1147.915
169.994	13.792	1518.343	1146.827
171.008	13.809	1517.310	1146.062
172.023	13.875	1515.843	1145.313
173.037	13.792	1515.087	1144.067
174.052	13.808	1513.677	1143.010
175.067	13.967	1512.710	1143.276
176.081	13.897	1511.737	1141.957
177.096	13.775	1510.467	1140.054
178.110	13.795	1509.005	1138.991
179.125	13.731	1507.881	1137.599
180.140	13.748	1507.034	1136.979
181.154	13.878	1505.384	1136.523
182.169	13.893	1504.400	1135.780
183.183	13.931	1503.406	1135.190
184.198	13.934	1502.296	1134.271
185.213	13.978	1501.025	1133.515
186.227	14.066	1500.285	1133.455
187.242	14.048	1498.934	1132.209
188.256	14.089	1498.066	1131.734
189.271	14.119	1496.563	1130.700
190.286	14.159	1495.373	1129.973
191.300	14.058	1494.512	1128.539
192.315	13.870	1493.535	1126.428
193.329	13.823	1492.173	1124.982
194.344	13.845	1490.739	1123.948
195.359	13.811	1489.930	1123.009
196.373	13.916	1489.196	1123.069
197.388	13.928	1487.739	1121.949
198.402	14.039	1486.923	1121.983
199.417	14.172	1485.647	1121.818
200.432	14.218	1484.661	1121.287
201.446	14.303	1483.341	1120.762
202.461	14.240	1482.581	1119.663
203.475	14.411	1481.321	1119.765
204.490	14.326	1480.556	1118.514
205.504	14.328	1479.398	1117.556
206.519	14.200	1478.598	1115.993
207.534	14.319	1476.680	1115.245
208.548	14.244	1475.581	1113.813
209.563	14.240	1474.486	1112.859
210.577	14.225	1473.947	1112.256
211.592	14.293	1472.782	1111.731
212.607	14.263	1472.043	1110.874
213.621	14.423	1471.433	1111.382
214.636	14.434	1470.157	1110.391
215.650	14.422	1469.221	1109.509
216.665	14.370	1468.415	1108.453
217.680	14.333	1467.927	1107.741
218.694	14.403	1467.016	1107.421
219.709	14.480	1465.856	1106.958
220.723	14.586	1464.918	1106.859
221.738	14.484	1464.160	1105.514
222.753	14.516	1463.095	1104.823
223.767	14.447	1462.260	1103.636
224.782	14.506	1461.348	1103.240
225.796	14.549	1460.169	1102.538
226.811	14.661	1459.127	1102.391
227.826	14.604	1458.829	1101.697
228.840	14.620	1457.658	1100.816
229.855	14.605	1456.944	1100.085
230.869	14.542	1456.131	1098.954
231.884	14.500	1454.876	1097.632
232.899	14.459	1454.076	1096.661
233.913	14.547	1452.338	1095.832
234.928	14.475	1451.094	1094.328
235.942	14.395	1450.545	1093.288
236.957	14.452	1448.966	1092.378
237.972	14.478	1447.773	1091.554
238.986	14.508	1447.036	1091.095
240.001	14.538	1445.904	1090.342
241.015	14.475	1444.979	1089.136
242.030	14.554	1443.516	1088.455
243.045	14.688	1442.089	1088.156
244.059	14.652	1441.552	1087.421
245.074	14.717	1440.587	1087.018
246.088	14.694	1440.316	1086.564
247.103	14.770	1439.250	1086.163
248.117	14.830	1438.174	1085.645
249.132	14.829	1438.009	1085.411
250.147	14.858	1437.249	1084.933
251.161	14.999	1436.455	1085.149
252.176	15.023	1435.602	1084.567
253.190	15.127	1434.504	1084.317
254.205	15.021	1434.322	1083.398
255.220	15.080	1433.198	1082.833
256.234	15.085	1432.324	1082.107
257.249	15.095	1431.917	1081.773
258.263	15.114	1430.700	1080.880
259.278	15.148	1429.608	1080.175
260.293	15.205	1428.681	1079.747
261.307	15.168	1428.151	1079.010
262.322	15.138	1427.890	1078.527
263.336	15.207	1426.702	1077.980
264.351	15.272	1425.107	1077.098
265.366	15.323	1424.287	1076.709
266.380	15.256	1423.555	1075.627
267.395	15.360	1422.015	1075.039
268.409	15.345	1421.690	1074.600
269.424	15.262	1420.856	1073.344
270.439	15.239	1419.982	1072.442
271.453	15.415	1418.382	1072.260
272.468	15.346	1417.297	1070.909
273.482	15.256	1417.138	1070.118
274.497	15.273	1416.192	1069.417
275.512	15.253	1415.134	1068.396
276.526	15.328	1414.294	1068.142
277.541	15.269	1413.386	1066.987
278.555	15.318	1412.643	1066.643
279.570	15.276	1411.708	1065.575
280.585	15.419	1410.363	1065.374
281.599	15.413	1409.852	1064.857
282.614	15.573	1408.588	1064.826
283.628	15.402	1408.084	1063.265
284.643	15.366	1406.947	1062.081
285.657	15.389	1405.125	1060.758
286.672	15.507	1404.371	1060.840
287.687	15.517	1403.556	1060.193
288.701	15.508	1402.825	1059.493
289.716	15.469	1402.089	1058.598
290.730	15.469	1401.601	1058.135
291.745	15.514	1400.549	1057.528
292.760	15.546	1399.583	1056.910
293.774	15.512	1398.076	1055.463
294.789	15.588	1396.862	1054.934
295.803	15.629	1396.599	1054.900
296.818	15.649	1395.765	1054.300
297.833	15.544	1394.770	1052.795
298.847	15.519	1393.886	1051.880
299.862	15.635	1392.246	1051.273
300.876	15.700	1391.641	1051.133
301.891	15.680	1390.495	1050.047
302.906	15.758	1389.314	1049.550
303.920	15.776	1389.076	1049.389
304.935	15.771	1388.538	1048.858
305.949	15.803	1387.631	1048.281
306.964	15.871	1386.419	1047.696
307.979	15.884	1386.098	1047.439
308.993	15.920	1384.773	1046.571
310.008	15.764	1383.908	1044.852
311.022	15.843	1382.976	1044.546
312.037	15.955	1381.562	1044.085
313.052	15.951	1381.327	1043.789
314.066	15.898	1380.071	1042.419
315.081	15.815	1378.995	1040.998
316.095	15.794	1377.993	1040.022
317.110	15.871	1376.564	1039.330
318.125	15.844	1375.983	1038.631
319.139	15.944	1374.144	1037.766
320.154	15.844	1373.830	1036.817
321.168	15.901	1373.148	1036.566
322.183	15.888	1372.177	1035.661
323.197	15.829	1371.112	1034.400
324.212	15.858	1370.232	1033.827
325.227	15.939	1369.235	1033.481
326.241	16.005	1368.242	1033.043
327.256	16.002	1367.748	1032.557
328.270	16.036	1366.682	1031.869
329.285	16.003	1366.061	1031.108
330.300	15.987	1364.590	1029.812
331.314	15.937	1364.162	1029.091
332.329	16.001	1363.480	1028.877
333.343	15.934	1362.736	1027.813
334.358	15.952	1361.913	1027.210
335.373	16.061	1360.715	1026.885
336.387	16.142	1359.465	1026.343
337.402	16.116	1359.170	1025.869
338.416	16.104	1358.977	1025.562
339.431	16.216	1358.128	1025.508
340.446	16.277	1357.192	1025.080
341.460	16.224	1356.465	1024.121
342.475	16.306	1355.140	1023.527
343.489	16.384	1354.304	1023.274
344.504	16.357	1353.535	1022.440
345.519	16.430	1352.136	1021.737
346.533	16.380	1351.830	1021.110
347.548	16.460	1350.569	1020.551
348.562	16.500	1349.710	1020.056
349.577	16.446	1349.518	1019.493
350.592	16.408	1348.314	1018.265
351.606	16.365	1347.366	1017.200
352.621	16.388	1345.964	1016.186
353.635	16.342	1345.118	1015.184
354.650	16.355	1344.251	1014.517
355.665	16.327	1343.752	1013.883
356.679	16.391	1342.322	1013.101
357.694	16.422	1341.380	1012.483
358.708	16.386	1340.206	1011.292
359.723	16.414	1339.165	1010.583
360.738	16.528	1337.830	1010.166
361.752	16.498	1337.152	1009.390
362.767	16.508	1336.074	1008.545
363.781	16.501	1335.262	1007.799
364.796	16.536	1334.660	1007.466
365.810	16.576	1333.593	1006.813
366.825	16.603	1333.196	1006.584
367.840	16.657	1332.416	1006.226
368.854	16.688	1331.476	1005.607
369.869	16.753	1330.776	1005.380
370.883	16.779	1330.500	1005.235
371.898	16.723	1329.855	1004.329
372.913	16.694	1328.950	1003.383
373.927	16.718	1328.216	1002.882
374.942	16.781	1327.053	1002.290
375.956	16.876	1326.086	1002.031
376.971	16.875	1325.487	1001.484
377.986	16.869	1324.320	1000.476
379.000	16.872	1323.506	999.789
380.015	16.833	1323.084	999.155
381.029	16.830	1322.472	998.584
382.044	16.918	1321.834	998.536
383.059	17.010	1320.556	998.020
384.073	17.007	1320.115	997.581
385.088	16.985	1319.569	996.950
386.102	16.937	1318.983	996.139
387.117	16.994	1318.051	995.684
388.132	17.018	1316.967	994.918
389.146	16.993	1316.374	994.230
390.161	16.865	1315.362	992.631
391.175	16.939	1314.704	992.478
392.190	16.900	1313.908	991.566
393.205	16.986	1312.987	991.282
394.219	17.078	1312.250	991.176
395.234	17.127	1310.405	989.981
396.248	17.144	1309.189	989.072
397.263	17.145	1307.974	988.075
398.278	17.073	1307.166	986.956
399.292	17.144	1305.492	986.017
400.307	17.053	1304.626	984.749
401.321	16.974	1303.927	983.673
402.336	16.988	1302.861	982.868
403.350	16.934	1302.134	981.919
404.365	17.054	1300.640	981.396
405.380	17.018	1300.301	980.847
406.394	17.100	1299.447	980.591
407.409	17.010	1298.955	979.615
408.423	17.103	1297.953	979.309
409.438	17.248	1297.049	979.371
410.453	17.229	1296.481	978.747
411.467	17.346	1295.581	978.657
412.482	17.309	1295.182	978.055
413.496	17.415	1294.503	978.067
414.511	17.429	1293.459	977.268
415.526	17.412	1292.999	976.738
416.540	17.443	1292.469	976.430
417.555	17.503	1291.650	976.068
418.569	17.510	1291.141	975.640
419.584	17.498	1290.752	975.191
420.599	17.442	1289.632	973.935
421.613	96.783	1355.585	1476.417
422.628	94.895	1365.146	1476.501
