DTS Sentinel unit serial number:	SN413079Multiplexer serial number:	ORYXHardware model number:	OX4-SRSoftware version number:	ORYX F/W v4.00 Oryx Data Collector v3.7.2.0data status	okinstallation	princeton_trtdifferential loss correction	single-endedforward channel	channel 4reverse channel	N/Adate	2019/09/10time	20:23:10forward acquisition time	60.00reverse acquisition time	0.00gamma	496.2192k internal	0.2312k external	0.2312temperature offset calibration	0.9946default loss term (dB/km)	0.3790temperature slope calibration	1.0000multiplexer offset coefficient	1.0000multiplexer slope coefficient	1.0000fibre end	0.00T internal ref (°C)	32.12T ext. ref 1 (°C)	-0.31T ext. ref 2 (°C)	25.22length (m)	temperature (°C)	Stokes	anti-Stokes-747.200	251.569	0.026	0.045
-746.185	-200.000	0.019	0.353
-745.171	-44.058	0.458	-0.233
-744.156	255.914	-0.157	0.273
-743.142	135.700	-0.025	0.033
-742.127	464.806	-0.048	0.109
-741.112	-200.000	0.246	0.000
-740.098	-200.000	-0.008	-0.241
-739.083	-200.000	0.080	0.481
-738.069	-200.000	0.000	0.317
-737.054	800.000	0.012	0.051
-736.039	-71.550	0.058	0.022
-735.025	-200.000	0.076	0.466
-734.010	-3.077	-0.279	-0.198
-732.996	-200.000	-0.041	0.231
-731.981	-200.000	-0.028	-0.140
-730.966	-44.018	-0.084	0.043
-729.952	-92.720	-0.116	0.033
-728.937	-200.000	-0.084	0.411
-727.923	800.000	0.014	-0.058
-726.908	385.670	-0.172	-0.360
-725.894	462.461	-0.107	-0.242
-724.879	-47.437	-0.384	-0.189
-723.864	186.482	-0.073	0.111
-722.850	-200.000	0.038	0.526
-721.835	800.000	-0.155	0.574
-720.821	157.059	-0.034	-0.048
-719.806	124.700	-0.171	-0.219
-718.791	131.755	-0.117	-0.153
-717.777	-127.243	0.054	-0.008
-716.762	-36.899	-0.005	0.003
-715.748	-140.709	-0.265	-0.028
-714.733	38.903	0.297	0.269
-713.718	-93.052	0.246	0.069
-712.704	-145.445	0.265	0.024
-711.689	10.927	-0.181	0.140
-710.675	54.559	0.153	-0.150
-709.660	97.443	-0.140	-0.163
-708.645	22.446	-0.261	-0.216
-707.631	-112.590	0.061	-0.012
-706.616	278.029	-0.135	-0.244
-705.602	-54.485	0.209	0.096
-704.587	-93.058	0.270	-0.076
-703.572	43.639	0.293	0.272
-702.558	-71.349	0.146	0.055
-701.543	39.179	0.178	0.161
-700.529	374.993	-0.044	0.090
-699.514	-84.340	0.168	-0.054
-698.499	-200.000	0.040	-0.223
-697.485	-200.000	-0.067	-0.415
-696.470	87.628	-0.025	0.029
-695.456	-23.911	-0.237	0.143
-694.441	291.790	-0.009	-0.017
-693.426	34.652	-0.163	0.144
-692.412	737.005	0.078	0.210
-691.397	-200.000	0.017	-0.108
-690.383	-88.994	-0.463	0.139
-689.368	22.923	-0.201	0.167
-688.354	-121.585	-0.224	0.038
-687.339	-118.398	-0.289	0.052
-686.324	-17.270	0.353	0.225
-685.310	800.000	-0.017	0.049
-684.295	-95.682	-0.187	0.051
-683.281	-9.846	0.217	-0.146
-682.266	223.216	0.122	0.199
-681.251	-54.924	0.211	0.096
-680.237	-200.000	-0.021	-0.206
-679.222	206.852	-0.064	0.102
-678.208	746.877	-0.138	0.377
-677.193	86.226	0.081	0.090
-676.178	-67.390	-0.318	0.126
-675.164	-152.814	0.194	0.014
-674.149	-200.000	0.011	-0.134
-673.135	-200.000	-0.005	-0.094
-672.120	-55.287	-0.148	-0.067
-671.105	-97.159	-0.253	-0.067
-670.091	-143.373	0.130	-0.013
-669.076	-200.000	0.007	-0.089
-668.062	800.000	0.059	0.202
-667.047	125.056	-0.126	-0.161
-666.032	30.265	0.135	-0.117
-665.018	-75.276	-0.087	0.031
-664.003	-200.000	-0.009	-0.234
-662.989	-11.368	-0.369	-0.246
-661.974	-86.549	-0.247	0.076
-660.959	-200.000	-0.034	0.245
-659.945	-8.711	0.183	-0.124
-658.930	54.157	0.151	0.147
-657.916	276.735	-0.124	-0.222
-656.901	-200.000	-0.013	-0.280
-655.886	800.000	-0.028	-0.108
-654.872	800.000	-0.066	-0.199
-653.857	186.069	-0.254	-0.382
-652.843	40.522	-0.055	0.050
-651.828	-88.722	0.281	0.084
-650.814	40.123	0.150	0.137
-649.799	402.409	0.064	-0.136
-648.784	140.613	-0.073	-0.098
-647.770	180.543	-0.028	0.042
-646.755	200.696	-0.100	-0.155
-645.741	-135.476	-0.080	0.010
-644.726	800.000	-0.079	0.300
-643.711	249.443	-0.034	-0.058
-642.697	122.361	-0.118	-0.148
-641.682	-200.000	-0.007	-0.178
-640.668	-57.145	-0.198	-0.088
-639.653	-200.000	-0.014	-0.184
-638.638	-10.333	-0.066	0.044
-637.624	-10.011	0.186	-0.125
-636.609	-81.192	-0.155	0.052
-635.595	-200.000	0.021	-0.170
-634.580	184.957	-0.101	-0.151
-633.565	800.000	0.049	-0.146
-632.551	88.739	0.151	-0.170
-631.536	23.832	0.263	-0.219
-630.522	-35.415	-0.347	0.191
-629.507	49.525	0.221	0.210
-628.492	-200.000	0.013	-0.206
-627.478	-16.296	0.215	-0.138
-626.463	-200.000	0.040	0.311
-625.449	-47.858	-0.334	-0.163
-624.434	121.312	-0.166	0.208
-623.419	-96.355	-0.289	-0.077
-622.405	475.431	-0.090	0.205
-621.390	-83.876	-0.186	0.060
-620.376	462.912	0.156	-0.352
-619.361	-91.558	0.198	0.057
-618.346	-101.448	0.111	-0.027
-617.332	800.000	-0.095	0.322
-616.317	186.972	0.197	-0.296
-615.303	-86.163	-0.288	-0.090
-614.288	-200.000	0.024	0.149
-613.273	-32.248	0.102	0.058
-612.259	-200.000	-0.005	-0.073
-611.244	-133.059	0.111	-0.014
-610.230	-72.799	0.223	0.083
-609.215	-94.045	0.241	0.067
-608.201	389.837	0.051	-0.106
-607.186	-200.000	0.014	0.200
-606.171	-56.816	0.093	0.042
-605.157	800.000	-0.048	-0.192
-604.142	-131.566	-0.254	0.034
-603.128	-3.346	-0.282	0.198
-602.113	-108.461	0.370	0.080
-601.098	-28.507	0.263	-0.153
-600.084	-200.000	0.016	-0.345
-599.069	-6.090	0.299	0.206
-598.055	800.000	0.051	0.159
-597.040	-60.395	0.168	-0.072
-596.025	-143.856	0.210	0.020
-595.011	-10.744	0.126	-0.084
-593.996	-64.928	0.239	0.098
-592.982	189.119	0.196	0.296
-591.967	84.403	0.092	-0.101
-590.952	24.862	-0.103	0.086
-589.938	800.000	0.024	0.103
-588.923	800.000	0.065	-0.185
-587.909	755.221	-0.100	0.272
-586.894	-200.000	-0.015	-0.137
-585.879	-63.443	0.318	0.132
-584.865	-21.111	-0.298	0.184
-583.850	-78.491	-0.060	0.021
-582.836	-13.372	-0.134	-0.088
-581.821	-136.106	0.069	-0.008
-580.806	87.843	-0.153	0.170
-579.792	-200.000	0.003	0.074
-578.777	-174.435	-0.056	0.002
-577.763	238.391	0.241	-0.404
-576.748	9.368	-0.300	-0.229
-575.733	-156.975	0.354	-0.022
-574.719	142.680	-0.141	-0.189
-573.704	-55.747	0.111	0.050
-572.690	280.706	0.089	0.160
-571.675	714.575	-0.098	0.263
-570.661	-169.016	-0.173	0.007
-569.646	75.969	-0.128	0.136
-568.631	-200.000	-0.004	0.046
-567.617	-161.611	0.153	-0.008
-566.602	221.308	-0.119	0.192
-565.588	-149.117	0.222	-0.018
-564.573	800.000	-0.132	-0.410
-563.558	800.000	-0.027	0.096
-562.544	132.775	-0.135	0.175
-561.529	-200.000	0.045	-0.284
-560.515	-200.000	-0.009	0.126
-559.500	-166.566	-0.347	-0.015
-558.485	127.154	-0.286	0.366
-557.471	121.605	0.081	-0.102
-556.456	400.508	0.115	-0.244
-555.442	-6.993	-0.191	-0.130
-554.427	-1.723	-0.141	0.100
-553.412	-46.025	0.228	0.113
-552.398	49.863	-0.174	0.165
-551.383	78.994	0.082	0.089
-550.369	-41.544	-0.066	0.034
-549.354	77.798	-0.149	-0.160
-548.339	40.759	0.206	-0.188
-547.325	77.989	-0.218	-0.234
-546.310	-200.000	0.038	-0.197
-545.296	800.000	0.054	-0.226
-544.281	800.000	-0.087	0.364
-543.266	279.357	0.183	0.329
-542.252	800.000	-0.073	-0.262
-541.237	141.304	-0.102	-0.136
-540.223	-87.069	0.298	-0.091
-539.208	800.000	-0.083	0.281
-538.193	197.341	-0.333	0.511
-537.179	-200.000	-0.027	0.377
-536.164	-124.987	-0.116	0.018
-535.150	-14.407	-0.186	0.120
-534.135	800.000	-0.049	-0.141
-533.121	80.501	0.078	-0.084
-532.106	-200.000	-0.049	-0.279
-531.091	52.597	0.294	-0.283
-530.077	-16.607	0.126	-0.080
-529.062	-138.869	-0.191	-0.021
-528.048	45.734	0.229	-0.213
-527.033	800.000	0.074	0.214
-526.018	368.829	0.114	-0.232
-525.004	-80.849	-0.133	0.044
-523.989	-200.000	0.007	0.157
-522.975	-200.000	0.022	0.183
-521.960	-61.577	0.141	-0.060
-520.945	131.154	0.095	-0.123
-519.931	800.000	0.052	-0.195
-518.916	443.591	-0.049	-0.108
-517.902	231.265	0.215	-0.354
-516.887	580.907	0.031	0.077
-515.872	-200.000	-0.014	-0.221
-514.858	-15.356	0.044	0.028
-513.843	17.616	-0.033	0.026
-512.829	386.372	0.067	-0.140
-511.814	-31.581	0.185	0.104
-510.799	91.814	0.138	0.156
-509.785	-200.000	-0.047	0.271
-508.770	800.000	0.138	-0.399
-507.756	-200.000	0.080	0.405
-506.741	385.770	-0.086	0.179
-505.726	255.903	0.055	0.095
-504.712	686.238	0.075	-0.196
-503.697	-56.015	0.060	-0.027
-502.683	-52.752	0.026	-0.012
-501.668	50.964	-0.270	-0.257
-500.653	-154.648	-0.275	-0.018
-499.639	800.000	0.043	0.133
-498.624	-32.439	0.107	-0.060
-497.610	486.576	-0.097	0.221
-496.595	55.332	-0.216	-0.210
-495.581	-32.036	0.004	-0.002
-494.566	284.634	0.142	0.256
-493.551	-139.423	-0.224	0.024
-492.537	-97.641	-0.188	0.049
-491.522	258.045	-0.103	-0.178
-490.508	265.209	0.106	-0.185
-489.493	127.653	0.149	0.190
-488.478	72.279	-0.363	0.379
-487.464	800.000	-0.048	-0.169
-486.449	27.598	0.230	0.194
-485.435	-55.838	-0.251	0.113
-484.420	154.021	0.082	0.113
-483.405	-41.102	0.310	0.161
-482.391	-28.682	-0.170	-0.098
-481.376	661.351	0.067	-0.173
-480.362	261.539	0.068	-0.118
-479.347	-70.261	0.197	0.075
-478.332	69.699	-0.030	0.031
-477.318	-40.840	0.402	-0.209
-476.303	-200.000	-0.535	0.002
-475.289	800.000	0.050	0.152
-474.274	-200.000	-0.047	-0.324
-473.259	-200.000	-0.044	-0.197
-472.245	527.645	-0.178	0.422
-471.230	-118.787	-0.466	0.082
-470.216	-30.873	0.179	-0.101
-469.201	800.000	-0.100	0.278
-468.186	-50.881	0.107	0.051
-467.172	242.080	-0.105	-0.176
-466.157	-200.000	-0.014	0.111
-465.143	116.965	-0.250	-0.309
-464.128	-45.833	-0.176	0.087
-463.113	-57.740	0.192	-0.084
-462.099	66.385	-0.083	0.084
-461.084	-76.113	0.066	-0.023
-460.070	-200.000	0.037	0.181
-459.055	-139.370	-0.401	-0.043
-458.040	130.582	-0.099	-0.128
-457.026	-170.500	-0.191	-0.007
-456.011	29.026	0.167	0.142
-454.997	80.073	0.126	-0.136
-453.982	209.230	0.165	-0.260
-452.968	-30.584	-0.086	0.049
-451.953	800.000	-0.068	-0.296
-450.938	432.194	0.144	-0.313
-449.924	93.565	-0.313	0.356
-448.909	129.175	0.191	0.245
-447.895	-79.306	-0.012	0.004
-446.880	-200.000	-0.024	-0.164
-445.865	-28.391	0.139	-0.080
-444.851	-89.445	0.152	0.045
-443.836	-139.973	0.142	0.015
-442.822	-117.679	-0.364	-0.066
-441.807	78.410	-0.121	0.129
-440.792	-0.994	-0.286	0.203
-439.778	-99.145	0.307	0.078
-438.763	18.774	0.025	-0.020
-437.749	413.477	-0.092	0.196
-436.734	-11.365	0.148	-0.098
-435.719	228.517	0.223	-0.365
-434.705	-121.416	0.078	0.013
-433.690	21.690	0.136	-0.111
-432.676	-46.722	-0.114	0.056
-431.661	-165.141	0.133	0.006
-430.646	-134.678	0.089	0.011
-429.632	-51.230	0.218	-0.102
-428.617	-16.297	0.273	-0.173
-427.603	800.000	0.026	0.098
-426.588	-200.000	0.059	0.359
-425.573	-200.000	0.017	-0.168
-424.559	302.021	0.086	-0.159
-423.544	20.580	-0.396	-0.321
-422.530	780.347	0.076	-0.209
-421.515	-153.093	-0.024	-0.002
-420.500	-87.819	-0.461	0.139
-419.486	-108.996	-0.208	-0.044
-418.471	-200.000	0.024	0.433
-417.457	-200.000	0.078	-0.419
-416.442	800.000	0.103	-0.295
-415.428	31.608	-0.217	-0.187
-414.413	167.983	-0.094	-0.134
-413.398	-78.928	-0.183	0.062
-412.384	-115.452	-0.273	-0.051
-411.369	-48.732	0.201	-0.097
-410.355	-200.000	-0.012	0.058
-409.340	-134.958	0.425	0.051
-408.325	-122.428	0.366	-0.060
-407.311	-78.635	-0.257	0.088
-406.296	46.330	0.105	-0.098
-405.282	76.477	-0.054	-0.058
-404.267	-200.000	-0.001	-0.173
-403.252	-44.944	-0.073	-0.037
-402.238	-68.760	0.168	0.065
-401.223	-129.809	-0.018	0.002
-400.209	135.138	-0.152	-0.198
-399.194	-200.000	-0.026	0.401
-398.179	-200.000	0.057	0.307
-397.165	-200.000	0.010	0.178
-396.150	124.504	0.126	0.159
-395.136	-4.003	0.118	-0.082
-394.121	366.358	-0.110	0.222
-393.106	123.714	-0.251	0.316
-392.092	-66.904	0.185	0.073
-391.077	-40.606	0.140	0.073
-390.063	161.209	0.165	0.231
-389.048	588.978	0.021	0.053
-388.033	-137.764	-0.240	0.027
-387.019	-35.626	0.271	0.147
-386.004	-200.000	0.057	-0.270
-384.990	656.201	0.032	0.082
-383.975	-16.856	-0.234	-0.148
-382.960	-20.920	-0.183	0.112
-381.946	-113.939	0.165	0.032
-380.931	46.706	-0.261	0.243
-379.917	245.401	0.100	-0.169
-378.902	-200.000	0.051	0.236
-377.888	-70.713	0.326	0.123
-376.873	-22.206	0.196	-0.119
-375.858	77.055	-0.166	-0.176
-374.844	42.155	0.215	-0.195
-373.829	-200.000	-0.014	0.142
-372.815	19.884	-0.319	-0.257
-371.800	800.000	-0.038	0.157
-370.785	184.848	-0.034	-0.050
-369.771	-52.295	-0.054	-0.025
-368.756	371.639	0.076	0.155
-367.742	800.000	0.048	-0.174
-366.727	-200.000	-0.006	0.135
-365.712	570.986	-0.054	0.131
-364.698	94.868	0.106	-0.120
-363.683	-7.694	0.110	0.074
-362.669	10.346	0.231	0.176
-361.654	-40.591	-0.052	-0.027
-360.639	-107.440	-0.317	0.069
-359.625	-107.101	0.116	0.026
-358.610	-29.531	0.052	-0.030
-357.596	-200.000	-0.038	-0.181
-356.581	-98.415	-0.146	-0.037
-355.566	-45.039	-0.143	0.071
-354.552	710.415	-0.052	0.137
-353.537	-120.125	0.109	-0.019
-352.523	15.934	-0.176	0.138
-351.508	-51.675	-0.126	0.059
-350.493	29.470	-0.339	-0.288
-349.479	800.000	-0.073	-0.250
-348.464	-60.031	-0.055	0.023
-347.450	25.846	-0.180	0.150
-346.435	-93.453	-0.175	-0.049
-345.420	-149.884	0.356	0.028
-344.406	148.730	-0.152	-0.205
-343.391	23.877	0.093	0.077
-342.377	-103.319	0.411	-0.097
-341.362	-68.945	-0.377	-0.145
-340.348	-117.482	0.436	-0.079
-339.333	341.927	0.130	0.254
-338.318	800.000	-0.037	0.138
-337.304	63.113	0.021	-0.021
-336.289	-43.825	-0.237	-0.119
-335.275	-81.468	0.373	0.123
-334.260	-85.672	-0.062	-0.019
-333.245	-143.525	0.093	0.009
-332.231	100.726	0.052	0.061
-331.216	-200.000	0.014	0.184
-330.202	-8.601	-0.147	-0.099
-329.187	716.739	0.047	-0.123
-328.172	149.686	-0.079	0.107
-327.158	215.522	0.117	-0.185
-326.143	-89.434	0.207	0.061
-325.129	-181.601	-0.214	0.004
-324.114	510.094	0.037	-0.086
-323.099	-113.243	0.282	0.055
-322.085	-132.430	-0.154	0.020
-321.070	327.571	-0.096	0.183
-320.056	2.758	0.206	-0.149
-319.041	800.000	-0.069	-0.273
-318.026	325.489	0.128	0.245
-317.012	277.644	-0.184	0.326
-315.997	-200.000	0.011	-0.115
-314.983	-200.000	-0.017	-0.177
-313.968	-170.790	-0.193	0.007
-312.953	283.218	0.113	-0.203
-311.939	20.559	0.193	-0.156
-310.924	118.638	0.105	0.129
-309.910	-117.496	-0.182	-0.033
-308.895	-143.933	0.309	-0.029
-307.880	-55.397	-0.092	0.041
-306.866	-130.687	-0.193	-0.026
-305.851	199.351	0.068	-0.104
-304.837	64.296	0.070	-0.070
-303.822	-80.008	0.104	0.035
-302.807	435.726	0.074	-0.161
-301.793	800.000	-0.137	0.417
-300.778	-47.819	-0.250	-0.121
-299.764	35.807	0.111	-0.097
-298.749	96.430	-0.206	-0.235
-297.735	-12.446	0.244	-0.159
-296.720	418.699	0.151	0.322
-295.705	573.651	0.076	0.184
-294.691	-73.193	0.294	0.107
-293.676	800.000	-0.033	-0.137
-292.662	545.284	0.024	-0.058
-291.647	800.000	0.037	0.132
-290.632	800.000	0.089	-0.359
-289.618	-171.529	-0.127	-0.004
-288.603	-6.664	0.137	0.093
-287.589	206.004	0.090	-0.140
-286.574	-25.169	-0.231	0.136
-285.559	565.266	-0.085	-0.206
-284.545	-96.542	0.182	0.048
-283.530	-200.000	0.013	0.105
-282.516	-200.000	0.020	0.096
-281.501	57.292	0.174	-0.169
-280.486	126.312	-0.054	0.068
-279.472	-200.000	0.009	0.070
-278.457	-78.503	-0.170	0.058
-277.443	47.181	-0.200	0.186
-276.428	31.792	-0.185	-0.159
-275.413	-25.509	0.287	-0.169
-274.399	-28.963	0.240	0.138
-273.384	49.154	-0.194	-0.182
-272.370	800.000	-0.104	-0.330
-271.355	-200.000	0.043	-0.298
-270.340	-200.000	-0.020	0.203
-269.326	266.623	0.078	-0.136
-268.311	-98.566	0.161	-0.041
-267.297	800.000	-0.082	0.234
-266.282	-185.214	0.249	0.004
-265.267	-200.000	-0.029	0.319
-264.253	443.203	-0.080	0.175
-263.238	26.952	0.060	0.050
-262.224	33.282	-0.072	0.062
-261.209	381.400	-0.091	0.186
-260.195	-89.134	-0.240	-0.071
-259.180	55.310	-0.060	0.058
-258.165	621.300	-0.144	0.361
-257.151	258.178	-0.189	-0.324
-256.136	162.978	0.102	0.143
-255.122	36.293	-0.298	0.261
-254.107	104.410	-0.177	0.207
-253.092	487.847	-0.065	-0.148
-252.078	-74.084	-0.222	0.080
-251.063	94.404	-0.087	0.099
-250.049	-105.792	0.601	-0.135
-249.034	138.356	0.041	0.053
-248.019	-68.751	-0.381	0.147
-247.005	-22.682	-0.033	0.020
-245.990	800.000	0.034	-0.140
-244.976	-43.973	0.076	0.038
-243.961	-200.000	-0.016	-0.170
-242.946	-84.552	-0.053	-0.017
-241.932	-106.353	-0.308	-0.068
-240.917	-196.066	0.026	-0.000
-239.903	-130.040	0.228	-0.031
-238.888	461.902	-0.086	-0.190
-237.873	270.739	0.158	-0.277
-236.859	52.535	0.198	-0.188
-235.844	16.081	-0.165	0.129
-234.830	10.104	0.094	0.071
-233.815	-26.171	-0.154	-0.090
-232.800	-200.000	0.002	0.144
-231.786	-73.292	-0.113	-0.041
-230.771	88.562	-0.099	0.109
-229.757	50.923	0.137	0.129
-228.742	257.253	0.030	-0.052
-227.727	416.678	0.114	0.242
-226.713	-18.637	-0.166	0.103
-225.698	135.099	-0.136	0.176
-224.684	424.990	-0.041	0.089
-223.669	-71.298	-0.238	-0.089
-222.655	800.000	-0.052	-0.214
-221.640	-200.000	0.001	0.053
-220.625	186.393	-0.057	0.085
-219.611	238.838	-0.128	0.211
-218.596	-200.000	-0.032	0.206
-217.582	233.565	0.062	-0.102
-216.567	44.042	-0.046	-0.042
-215.552	-2.130	0.130	-0.090
-214.538	130.365	0.092	-0.117
-213.523	254.295	0.194	-0.330
-212.509	-200.000	0.026	-0.357
-211.494	794.231	0.010	0.028
-210.479	640.723	0.042	-0.107
-209.465	-59.874	0.252	-0.107
-208.450	-28.240	0.253	-0.145
-207.436	-12.038	-0.177	0.115
-206.421	-151.099	0.256	0.019
-205.406	-42.829	0.136	0.069
-204.392	328.120	0.076	0.146
-203.377	-152.621	0.351	0.025
-202.363	800.000	0.045	-0.157
-201.348	-137.033	-0.335	0.038
-200.333	110.172	-0.212	0.253
-199.319	-1.524	0.200	0.140
-198.304	181.142	-0.226	0.329
-197.290	-200.000	0.035	0.232
-196.275	-147.304	-0.250	-0.021
-195.260	800.000	-0.132	-0.400
-194.246	-9.115	0.196	-0.130
-193.231	800.000	0.052	0.175
-192.217	3.823	0.161	0.116
-191.202	79.624	-0.261	-0.278
-190.187	800.000	-0.016	-0.062
-189.173	-31.175	-0.279	0.156
-188.158	-200.000	0.031	0.203
-187.144	-29.921	0.181	-0.102
-186.129	-200.000	0.002	-0.369
-185.114	800.000	0.035	0.135
-184.100	324.637	-0.068	0.130
-183.085	146.178	-0.080	-0.106
-182.071	-200.000	-0.004	-0.116
-181.056	-26.044	0.288	-0.168
-180.042	800.000	-0.038	0.164
-179.027	800.000	-0.100	0.352
-178.012	-157.811	0.271	0.016
-176.998	216.918	-0.179	0.283
-175.983	-200.000	-0.005	-0.159
-174.969	-200.000	0.009	0.086
-173.954	54.483	0.044	-0.042
-172.939	-40.222	-0.179	0.092
-171.925	-200.000	0.001	0.069
-170.910	280.866	0.028	-0.050
-169.896	298.276	-0.137	-0.250
-168.881	-119.421	-0.389	-0.067
-167.866	800.000	-0.061	-0.181
-166.852	-141.029	0.058	-0.006
-165.837	7.370	0.176	0.131
-164.823	-135.154	0.454	-0.054
-163.808	-200.000	0.005	0.054
-162.793	619.605	0.075	0.186
-161.779	356.151	0.059	0.116
-160.764	-4.645	0.239	-0.164
-159.750	-121.309	-0.321	0.053
-158.735	345.198	-0.227	0.443
-157.720	-132.245	-0.235	-0.030
-156.706	-171.410	0.049	0.002
-155.691	800.000	-0.057	0.165
-154.677	800.000	0.039	-0.166
-153.662	243.449	0.231	-0.384
-152.647	-45.159	0.082	-0.040
-151.633	-31.089	0.235	0.132
-150.618	-128.601	0.159	0.022
-149.604	426.007	0.173	-0.369
-148.589	-79.750	0.261	0.087
-147.574	-181.677	-0.107	0.002
-146.560	59.506	0.026	0.026
-145.545	-200.000	0.046	0.249
-144.531	-200.000	-0.010	0.262
-143.516	-200.000	-0.012	0.235
-142.502	-110.882	0.248	0.051
-141.487	-40.089	-0.187	0.097
-140.472	-200.000	-0.021	0.132
-139.458	-61.074	-0.292	-0.122
-138.443	-200.000	0.003	0.056
-137.429	-95.453	-0.299	-0.079
-136.414	-200.000	0.024	0.119
-135.399	800.000	-0.140	0.445
-134.385	-98.235	-0.073	0.019
-133.370	-200.000	-0.123	-0.585
-132.356	-42.067	-0.263	0.133
-131.341	-131.757	0.213	0.028
-130.326	-200.000	0.002	-0.097
-129.312	-37.353	0.128	-0.067
-128.297	-200.000	0.012	0.143
-127.283	-155.573	0.399	0.025
-126.268	494.325	0.081	-0.184
-125.253	-19.687	0.127	-0.078
-124.239	53.568	-0.063	0.060
-123.224	-200.000	0.006	-0.114
-122.210	-68.351	-0.125	0.048
-121.195	-200.000	-0.082	0.360
-120.180	31.273	-0.078	-0.066
-119.166	-41.341	-0.049	0.025
-118.151	-132.700	-0.151	-0.019
-117.137	331.023	0.141	-0.269
-116.122	-59.257	-0.336	-0.143
-115.107	800.000	-0.043	-0.121
-114.093	388.998	0.074	-0.151
-113.078	800.000	0.089	0.245
-112.064	800.000	0.066	0.207
-111.049	207.998	0.114	0.177
-110.034	-200.000	0.050	0.282
-109.020	320.070	-0.114	-0.215
-108.005	56.527	0.179	-0.172
-106.991	675.968	0.066	-0.169
-105.976	-200.000	0.022	0.216
-104.962	-95.865	-0.274	0.072
-103.947	48.511	0.120	-0.111
-102.932	-23.140	0.221	0.131
-101.918	-200.000	-0.053	0.332
-100.903	800.000	-0.068	0.238
-99.889	10.240	-0.043	-0.032
-98.874	231.827	0.047	-0.076
-97.859	-72.971	-0.048	-0.017
-96.845	-38.660	-0.235	0.123
-95.830	-179.344	0.217	-0.005
-94.816	-93.504	0.216	0.059
-93.801	360.202	-0.120	0.238
-92.786	506.603	0.071	0.162
-91.772	-0.939	0.182	0.128
-90.757	161.860	0.128	0.177
-89.743	-200.000	-0.005	0.146
-88.728	-200.000	-0.032	-0.175
-87.713	-176.017	-0.170	-0.004
-86.699	-106.769	0.319	-0.070
-85.684	-139.235	0.287	0.031
-84.670	65.259	0.055	-0.055
-83.655	22.911	-0.215	0.174
-82.640	-200.000	-0.017	0.289
-81.626	-195.715	-0.103	0.001
-80.611	500.430	0.069	0.157
-79.597	-170.899	0.377	0.013
-78.582	-200.000	0.012	0.106
-77.567	22.269	0.355	0.287
-76.553	-51.660	-0.149	-0.069
-75.538	667.938	-0.031	-0.080
-74.524	-163.359	0.211	-0.010
-73.509	8.646	-0.015	0.011
-72.494	800.000	-0.021	0.075
-71.480	-48.141	0.232	0.111
-70.465	58.534	-0.181	-0.176
-69.451	197.021	0.175	-0.264
-68.436	-200.000	0.003	-0.281
-67.422	-31.095	-0.153	0.086
-66.407	80.775	-0.197	0.210
-65.392	-200.000	0.036	-0.181
-64.378	-200.000	-0.025	0.260
-63.363	45.621	0.013	-0.012
-62.349	110.629	-0.095	0.112
-61.334	94.274	-0.934	-1.048
-60.319	472.510	0.365	0.813
-59.305	608.411	-0.368	-0.907
-58.290	62.996	0.715	0.707
-57.276	800.000	0.406	1.154
-56.261	-200.000	97.783	596.723
-55.246	598.195	1404.933	3440.575
-54.232	187.222	2607.951	3841.236
-53.217	107.117	2311.358	2712.766
-52.203	38.782	2065.106	1821.032
-51.188	34.014	1979.572	1702.968
-50.173	32.416	1961.217	1672.912
-49.159	46.708	2012.745	1846.000
-48.144	48.259	2029.486	1875.269
-47.130	34.442	1990.817	1716.219
-46.115	32.153	1980.113	1686.401
-45.100	32.039	1977.525	1683.112
-44.086	31.896	1975.880	1680.363
-43.071	31.948	1972.692	1678.047
-42.057	31.901	1970.097	1675.357
-41.042	31.880	1968.996	1674.164
-40.027	32.011	1966.634	1673.261
-39.013	32.051	1964.143	1671.429
-37.998	32.144	1962.480	1670.775
-36.984	32.050	1960.978	1668.591
-35.969	32.006	1959.201	1666.625
-34.954	32.051	1957.791	1665.760
-33.940	32.180	1955.746	1665.097
-32.925	32.212	1954.216	1664.014
-31.911	32.137	1952.812	1662.088
-30.896	32.316	1950.259	1661.432
-29.881	32.181	1949.896	1659.857
-28.867	32.176	1948.347	1658.435
-27.852	32.183	1946.750	1657.073
-26.838	32.177	1944.330	1654.892
-25.823	32.179	1942.314	1653.131
-24.809	32.154	1940.652	1651.424
-23.794	32.131	1938.885	1649.658
-22.779	32.112	1937.386	1648.147
-21.765	32.104	1935.797	1646.663
-20.750	32.078	1934.296	1645.090
-19.736	32.060	1932.675	1643.487
-18.721	32.142	1931.015	1642.730
-17.706	32.178	1929.142	1641.387
-16.692	32.191	1927.416	1639.965
-15.677	32.155	1925.965	1638.349
-14.663	32.168	1924.774	1637.391
-13.648	32.111	1923.906	1636.089
-12.633	32.154	1922.188	1634.931
-11.619	32.083	1921.188	1633.405
-10.604	32.102	1919.191	1631.802
-9.590	32.054	1918.085	1630.385
-8.575	32.130	1916.647	1629.753
-7.560	32.075	1915.186	1627.968
-6.546	32.163	1913.443	1627.189
-5.531	32.107	1913.321	1626.536
-4.517	32.201	1911.512	1625.747
-3.502	32.117	1910.372	1623.987
-2.487	32.101	1909.002	1622.621
-1.473	32.156	1908.348	1622.472
-0.458	32.022	1903.721	1617.316
0.556	29.413	1883.994	1589.150
1.571	25.232	1864.270	1536.652
2.586	21.187	1885.566	1518.953
3.600	20.083	1921.594	1538.049
4.615	19.847	1917.648	1532.660
5.629	15.215	1818.011	1413.911
6.644	5.683	1697.619	1244.742
7.659	0.158	1659.652	1173.793
8.673	-0.221	1655.520	1167.820
9.688	-0.284	1654.088	1166.219
10.702	-0.379	1652.998	1164.612
11.717	-0.366	1649.025	1161.805
12.731	-0.043	1648.438	1163.791
13.746	6.424	1664.227	1225.263
14.761	15.683	1684.717	1312.856
15.775	19.447	1690.869	1346.971
16.790	19.793	1690.442	1349.213
17.804	19.887	1689.952	1349.439
18.819	19.846	1689.798	1348.871
19.834	20.011	1688.756	1349.210
20.848	20.152	1688.111	1349.670
21.863	20.227	1687.136	1349.355
22.877	20.138	1686.399	1347.953
23.892	20.194	1685.511	1347.564
24.907	20.216	1684.729	1346.988
25.921	20.193	1683.546	1345.746
26.936	20.177	1682.352	1344.549
27.950	20.202	1681.445	1343.897
28.965	20.233	1680.877	1343.564
29.980	20.223	1679.737	1342.453
30.994	20.276	1678.418	1341.695
32.009	20.232	1677.185	1340.248
33.023	20.206	1676.708	1339.548
34.038	20.226	1675.442	1338.570
35.053	20.194	1674.496	1337.451
36.067	20.206	1673.384	1336.533
37.082	20.298	1671.820	1335.878
38.096	20.242	1671.202	1334.835
39.111	20.154	1671.101	1333.960
40.126	20.214	1669.871	1333.322
41.140	20.226	1668.839	1332.467
42.155	20.164	1667.929	1331.150
43.169	20.158	1666.307	1329.695
44.184	20.159	1665.726	1329.115
45.199	20.197	1664.612	1328.400
46.213	20.151	1663.312	1326.895
47.228	20.120	1662.833	1326.160
48.242	20.171	1661.274	1325.184
49.257	20.233	1659.823	1324.390
50.271	20.309	1657.941	1323.346
51.286	20.245	1657.275	1322.213
52.301	20.202	1656.052	1320.790
53.315	20.234	1654.247	1319.480
54.330	20.186	1653.082	1318.064
55.344	20.217	1651.601	1317.009
56.359	20.138	1650.852	1315.694
57.374	20.184	1649.333	1314.714
58.388	20.223	1648.051	1313.868
59.403	20.167	1647.227	1312.670
60.417	20.098	1646.206	1311.222
61.432	20.223	1644.961	1311.057
62.447	20.217	1643.988	1310.122
63.461	20.318	1642.294	1309.422
64.476	20.147	1642.117	1307.875
65.490	20.295	1640.518	1307.593
66.505	20.222	1639.615	1306.213
67.520	20.209	1638.745	1305.304
68.534	20.184	1637.835	1304.278
69.549	20.291	1636.537	1303.933
70.563	20.231	1635.293	1302.375
71.578	20.206	1634.402	1301.363
72.593	20.339	1633.023	1301.147
73.607	20.250	1632.428	1299.891
74.622	20.203	1631.211	1298.456
75.636	20.161	1631.024	1297.879
76.651	20.270	1629.349	1297.241
77.666	20.193	1628.950	1296.233
78.680	20.268	1628.009	1295.935
79.695	20.193	1627.502	1294.857
80.709	20.282	1625.545	1293.846
81.724	20.228	1625.141	1293.007
82.739	20.248	1623.841	1292.005
83.753	20.338	1622.541	1291.533
84.768	20.239	1622.290	1290.481
85.782	20.256	1620.968	1289.438
86.797	20.197	1620.432	1288.459
87.812	20.166	1619.373	1287.276
88.826	20.261	1618.008	1286.782
89.841	20.228	1617.060	1285.670
90.855	20.245	1615.904	1284.763
91.870	20.253	1615.065	1284.037
92.884	20.257	1614.298	1283.345
93.899	20.316	1612.831	1282.502
94.914	20.314	1611.436	1281.263
95.928	20.255	1610.799	1280.207
96.943	20.214	1609.363	1278.650
97.957	20.215	1608.049	1277.504
98.972	20.242	1606.843	1276.632
99.987	20.249	1605.527	1275.519
101.001	20.299	1603.594	1274.241
102.016	20.326	1601.964	1273.030
103.030	20.226	1600.705	1271.185
104.045	20.234	1599.801	1270.413
105.060	20.248	1598.067	1269.025
106.074	20.264	1597.074	1268.241
107.089	20.325	1595.489	1267.317
108.103	20.350	1594.059	1266.249
109.118	20.318	1593.307	1265.308
110.133	20.340	1592.042	1264.352
111.147	20.366	1590.819	1263.457
112.162	20.310	1589.667	1262.025
113.176	20.394	1587.502	1260.807
114.191	20.371	1586.956	1260.094
115.206	20.357	1585.767	1258.934
116.220	20.341	1584.398	1257.621
117.235	20.343	1583.238	1256.600
118.249	20.316	1582.309	1255.558
119.264	20.314	1580.572	1254.056
120.279	20.236	1579.509	1252.538
121.293	20.302	1578.474	1252.082
122.308	20.316	1577.076	1250.961
123.322	20.309	1575.277	1249.374
124.337	20.449	1573.744	1249.053
125.352	20.468	1572.456	1248.061
126.366	20.457	1571.310	1246.964
127.381	20.477	1570.737	1246.541
128.395	20.456	1569.843	1245.569
129.410	20.376	1568.484	1243.811
130.424	20.452	1567.131	1243.166
131.439	20.382	1565.809	1241.510
132.454	20.356	1564.909	1240.498
133.468	20.369	1563.361	1239.259
134.483	20.415	1562.077	1238.459
135.497	20.431	1560.472	1237.185
136.512	20.473	1558.879	1236.117
137.527	20.379	1558.286	1234.867
138.541	20.332	1557.353	1233.682
139.556	20.454	1555.727	1233.150
140.570	20.391	1554.113	1231.319
141.585	20.372	1553.058	1230.236
142.600	20.413	1551.937	1229.529
143.614	20.332	1550.768	1227.922
144.629	20.428	1549.335	1227.359
145.643	20.397	1548.387	1226.282
146.658	20.346	1546.863	1224.607
147.673	20.300	1545.355	1222.979
148.687	20.342	1544.220	1222.271
149.702	20.345	1543.119	1221.308
150.716	20.284	1541.864	1219.778
151.731	20.359	1540.555	1219.160
152.746	20.430	1539.012	1218.336
153.760	20.330	1537.962	1216.695
154.775	20.353	1537.117	1216.075
155.789	20.326	1536.118	1214.987
156.804	20.425	1534.751	1214.493
157.819	20.377	1533.365	1212.955
158.833	20.459	1532.440	1212.686
159.848	20.417	1530.961	1211.116
160.862	20.416	1530.631	1210.742
161.877	20.383	1529.711	1209.675
162.892	20.488	1528.566	1209.398
163.906	20.466	1527.954	1208.653
164.921	20.424	1526.700	1207.260
165.935	20.468	1525.909	1206.835
166.950	20.507	1524.511	1205.893
167.964	20.552	1523.524	1205.318
168.979	20.540	1522.522	1204.333
169.994	20.531	1522.151	1203.873
171.008	20.478	1521.263	1202.698
172.023	20.524	1520.038	1201.936
173.037	20.566	1519.033	1201.326
174.052	20.511	1517.975	1200.003
175.067	20.555	1516.993	1199.425
176.081	20.685	1515.355	1198.919
177.096	20.544	1515.049	1197.605
178.110	20.537	1513.660	1196.353
179.125	20.565	1512.937	1195.862
180.140	20.617	1511.529	1195.003
181.154	20.610	1511.123	1194.531
182.169	20.671	1509.878	1193.858
183.183	20.582	1508.707	1192.215
184.198	20.568	1507.908	1191.382
185.213	20.583	1507.491	1191.053
186.227	20.625	1506.383	1190.359
187.242	20.671	1505.212	1189.643
188.256	20.657	1504.441	1188.832
189.271	20.629	1504.043	1188.217
190.286	20.696	1502.739	1187.544
191.300	20.597	1502.270	1186.393
192.315	20.603	1500.929	1185.264
193.329	20.626	1500.253	1184.787
194.344	20.668	1498.823	1183.841
195.359	20.749	1497.936	1183.581
196.373	20.699	1497.389	1182.708
197.388	20.620	1496.164	1181.098
198.402	20.582	1495.318	1180.065
199.417	20.517	1494.530	1178.898
200.432	20.550	1493.671	1178.342
201.446	20.610	1492.751	1177.916
202.461	20.529	1492.261	1176.882
203.475	20.642	1490.884	1176.456
204.490	20.624	1490.070	1175.583
205.504	20.581	1489.362	1174.631
206.519	20.555	1488.379	1173.577
207.534	20.622	1487.745	1173.422
208.548	20.675	1486.857	1172.975
209.563	20.631	1485.927	1171.848
210.577	20.681	1484.725	1171.132
211.592	20.651	1484.131	1170.355
212.607	20.708	1483.190	1169.892
213.621	20.697	1482.698	1169.325
214.636	20.771	1481.731	1168.957
215.650	20.776	1480.794	1168.151
216.665	20.691	1479.938	1166.801
217.680	20.742	1479.254	1166.500
218.694	20.602	1478.803	1165.104
219.709	20.688	1477.865	1164.835
220.723	20.713	1476.945	1164.178
221.738	20.758	1476.034	1163.653
222.753	20.841	1474.988	1163.284
223.767	20.583	1474.277	1160.899
224.782	20.662	1473.703	1160.868
225.796	20.632	1473.027	1160.031
226.811	20.837	1471.501	1160.095
227.826	20.802	1471.537	1159.788
228.840	20.717	1470.487	1158.291
229.855	20.844	1469.625	1158.357
230.869	20.762	1468.683	1156.963
231.884	20.697	1467.877	1155.799
232.899	20.804	1466.622	1155.417
233.913	20.798	1465.797	1154.624
234.928	20.799	1464.518	1153.523
235.942	20.800	1463.513	1152.634
236.957	20.934	1462.395	1152.540
237.972	20.910	1461.700	1151.727
238.986	20.881	1460.742	1150.683
240.001	20.834	1459.988	1149.673
241.015	20.929	1458.598	1149.102
242.030	20.969	1457.975	1148.777
243.045	20.947	1457.234	1147.944
244.059	20.999	1456.027	1147.233
245.074	20.995	1455.119	1146.389
246.088	20.962	1454.669	1145.721
247.103	20.925	1453.977	1144.826
248.117	20.937	1452.999	1144.040
249.132	20.942	1452.258	1143.384
250.147	21.039	1451.240	1143.118
251.161	21.139	1451.073	1143.541
252.176	21.093	1450.482	1142.674
253.190	21.087	1449.524	1141.776
254.205	20.996	1448.607	1140.357
255.220	21.146	1447.853	1140.647
256.234	21.124	1446.945	1139.687
257.249	21.058	1446.305	1138.651
258.263	21.066	1445.487	1137.957
259.278	21.067	1444.503	1137.090
260.293	21.087	1443.672	1136.464
261.307	21.106	1442.742	1135.753
262.322	21.107	1442.653	1135.590
263.336	21.072	1442.134	1134.856
264.351	21.158	1440.755	1134.229
265.366	21.195	1439.740	1133.568
266.380	21.195	1438.305	1132.336
267.395	21.124	1437.790	1131.374
268.409	21.082	1436.986	1130.365
269.424	21.089	1436.443	1129.883
270.439	21.080	1435.471	1128.963
271.453	21.180	1434.528	1128.767
272.468	21.130	1433.416	1127.466
273.482	21.114	1433.230	1127.119
274.497	21.120	1432.418	1126.417
275.512	21.121	1431.451	1125.567
276.526	21.275	1430.342	1125.586
277.541	21.209	1429.796	1124.631
278.555	21.136	1428.855	1123.323
279.570	21.260	1428.306	1123.589
280.585	21.313	1426.956	1122.770
281.599	21.235	1426.118	1121.510
282.614	21.193	1425.681	1120.796
283.628	21.115	1424.892	1119.578
284.643	21.130	1423.799	1118.717
285.657	21.141	1422.968	1118.036
286.672	21.278	1421.868	1117.949
287.687	21.206	1421.154	1116.827
288.701	21.217	1420.051	1115.932
289.716	21.263	1419.119	1115.397
290.730	21.411	1418.578	1115.815
291.745	21.291	1417.959	1114.466
292.760	21.368	1416.780	1113.928
293.774	21.285	1416.084	1112.753
294.789	21.431	1414.950	1112.694
295.803	21.338	1414.600	1111.729
296.818	21.410	1413.412	1111.155
297.833	21.363	1412.396	1109.957
298.847	21.362	1411.865	1109.440
299.862	21.382	1411.296	1109.017
300.876	21.412	1410.380	1108.394
301.891	21.338	1409.581	1107.199
302.906	21.365	1409.015	1106.827
303.920	21.383	1408.585	1106.503
304.935	21.519	1407.367	1106.308
305.949	21.406	1407.108	1105.291
306.964	21.536	1405.571	1104.807
307.979	21.526	1404.879	1104.104
308.993	21.495	1403.616	1102.817
310.008	21.490	1403.201	1102.365
311.022	21.531	1402.109	1101.663
312.037	21.502	1400.860	1100.403
313.052	21.536	1400.474	1100.217
314.066	21.545	1399.195	1099.169
315.081	21.494	1398.517	1098.218
316.095	21.504	1398.044	1097.816
317.110	21.567	1396.418	1096.833
318.125	21.574	1395.618	1096.154
319.139	21.594	1395.423	1096.029
320.154	21.638	1394.185	1095.235
321.168	21.568	1393.208	1093.936
322.183	21.543	1392.587	1093.191
323.197	21.618	1391.609	1092.798
324.212	21.571	1390.950	1091.889
325.227	21.585	1390.085	1091.201
326.241	21.582	1389.180	1090.377
327.256	21.624	1388.604	1090.087
328.270	21.684	1387.563	1089.549
329.285	21.716	1386.351	1088.697
330.300	21.773	1385.670	1088.424
331.314	21.727	1384.967	1087.486
332.329	21.670	1384.466	1086.647
333.343	21.680	1383.702	1086.011
334.358	21.705	1382.749	1085.324
335.373	21.731	1382.416	1085.124
336.387	21.789	1381.104	1084.356
337.402	21.798	1380.521	1083.856
338.416	21.779	1380.142	1083.347
339.431	21.732	1380.058	1082.899
340.446	21.756	1379.071	1082.173
341.460	21.981	1377.507	1082.239
342.475	21.865	1377.187	1081.177
343.489	21.915	1376.053	1080.495
344.504	21.926	1375.142	1079.752
345.519	21.806	1374.072	1078.083
346.533	21.852	1373.629	1077.923
347.548	21.877	1372.703	1077.251
348.562	21.900	1372.067	1076.797
349.577	21.907	1371.173	1076.046
350.592	22.005	1370.281	1075.848
351.606	21.863	1369.554	1074.314
352.621	21.928	1368.493	1073.786
353.635	21.877	1367.185	1072.355
354.650	21.970	1366.506	1072.290
355.665	21.896	1366.103	1071.428
356.679	22.051	1364.651	1071.140
357.694	22.032	1363.771	1070.238
358.708	22.026	1362.719	1069.287
359.723	21.998	1361.808	1068.305
360.738	21.979	1361.029	1067.485
361.752	21.952	1359.895	1066.336
362.767	22.063	1358.244	1065.622
363.781	21.950	1357.845	1064.528
364.796	22.046	1357.290	1064.578
365.810	22.118	1356.291	1064.135
366.825	22.170	1355.635	1063.845
367.840	22.034	1355.418	1062.758
368.854	22.104	1354.295	1062.202
369.869	22.169	1353.879	1062.179
370.883	22.072	1353.222	1060.980
371.898	22.168	1352.331	1060.770
372.913	22.171	1351.678	1060.183
373.927	22.133	1351.261	1059.532
374.942	22.152	1350.297	1058.796
375.956	22.126	1349.926	1058.256
376.971	22.195	1348.355	1057.346
377.986	22.206	1348.000	1057.037
379.000	22.172	1347.317	1056.204
380.015	22.241	1346.120	1055.590
381.029	22.180	1345.976	1055.015
382.044	22.299	1344.916	1054.804
383.059	22.168	1344.618	1053.694
384.073	22.287	1344.006	1053.830
385.088	22.172	1343.802	1052.889
386.102	22.226	1342.835	1052.361
387.117	22.265	1342.226	1052.023
388.132	22.321	1341.482	1051.684
389.146	22.395	1339.779	1050.698
390.161	22.360	1339.202	1049.946
391.175	22.367	1338.667	1049.472
392.190	22.333	1338.184	1048.799
393.205	22.450	1337.215	1048.646
394.219	22.425	1336.489	1047.831
395.234	22.367	1334.914	1046.160
396.248	22.377	1334.317	1045.658
397.263	22.455	1333.144	1045.108
398.278	22.461	1331.998	1044.154
399.292	22.491	1330.818	1043.318
400.307	22.469	1329.993	1042.444
401.321	22.539	1329.014	1041.998
402.336	22.568	1328.266	1041.491
403.350	22.455	1327.054	1039.786
404.365	22.465	1326.467	1039.292
405.380	22.472	1325.625	1038.579
406.394	22.542	1324.657	1038.141
407.409	22.536	1324.212	1037.666
408.423	22.496	1323.673	1036.919
409.438	22.593	1322.475	1036.458
410.453	22.613	1321.925	1036.049
411.467	22.518	1321.427	1035.011
412.482	22.591	1320.498	1034.619
413.496	22.660	1319.921	1034.481
414.511	22.497	1319.464	1033.077
415.526	22.613	1318.676	1033.047
416.540	22.677	1317.542	1032.445
417.555	22.727	1316.617	1031.917
418.569	22.555	1316.497	1030.729
419.584	22.668	1316.168	1031.040
420.599	22.655	1315.581	1030.415
421.613	138.491	1428.997	1794.311
422.628	134.660	1445.485	1794.418
