DTS Sentinel unit serial number:	SN413079Multiplexer serial number:	ORYXHardware model number:	OX4-SRSoftware version number:	ORYX F/W v4.00 Oryx Data Collector v3.7.2.0data status	okinstallation	princeton_trtdifferential loss correction	single-endedforward channel	channel 4reverse channel	N/Adate	2019/09/11time	04:59:11forward acquisition time	60.00reverse acquisition time	0.00gamma	496.2192k internal	0.2316k external	0.2316temperature offset calibration	0.9943default loss term (dB/km)	0.3790temperature slope calibration	1.0000multiplexer offset coefficient	1.0000multiplexer slope coefficient	1.0000fibre end	0.00T internal ref (°C)	29.50T ext. ref 1 (°C)	-0.26T ext. ref 2 (°C)	23.32length (m)	temperature (°C)	Stokes	anti-Stokes-747.200	295.060	-0.111	0.206
-746.185	319.995	-0.096	0.185
-745.171	135.447	-0.082	-0.108
-744.156	800.000	-0.125	0.412
-743.142	702.232	0.090	-0.240
-742.127	800.000	-0.111	0.336
-741.112	800.000	-0.049	0.159
-740.098	-79.679	0.099	-0.034
-739.083	4.027	-0.188	0.140
-738.069	66.523	0.031	-0.031
-737.054	800.000	0.130	-0.376
-736.039	80.745	0.160	-0.175
-735.025	487.883	-0.106	-0.245
-734.010	-200.000	-0.005	0.121
-732.996	-84.004	0.108	0.035
-731.981	-200.000	0.078	0.413
-730.966	381.769	-0.065	0.136
-729.952	478.302	0.098	-0.224
-728.937	771.181	0.031	-0.086
-727.923	188.822	-0.087	-0.132
-726.908	-37.661	-0.121	0.065
-725.894	-200.000	-0.020	0.152
-724.879	-200.000	0.014	0.207
-723.864	-200.000	-0.007	0.275
-722.850	800.000	0.041	-0.145
-721.835	800.000	-0.055	-0.195
-720.821	97.852	-0.176	0.205
-719.806	-72.099	0.167	0.063
-718.791	19.464	-0.309	0.252
-717.777	-187.609	-0.332	-0.004
-716.762	-88.752	-0.361	-0.109
-715.748	-44.025	0.107	-0.055
-714.733	-60.649	-0.048	-0.020
-713.718	-200.000	-0.030	0.133
-712.704	72.242	0.274	0.289
-711.689	117.364	0.113	-0.140
-710.675	52.884	0.085	-0.082
-709.660	-109.791	0.342	0.073
-708.645	-105.076	-0.286	-0.066
-707.631	-99.099	-0.116	0.030
-706.616	394.341	0.092	-0.193
-705.602	213.185	-0.164	0.263
-704.587	-200.000	-0.024	0.140
-703.572	31.955	-0.127	0.111
-702.558	-27.737	0.139	0.082
-701.543	474.947	0.129	-0.295
-700.529	9.434	-0.078	-0.060
-699.514	-200.000	-0.008	-0.372
-698.499	35.220	0.103	-0.091
-697.485	-123.394	-0.164	-0.026
-696.470	-113.928	0.154	0.030
-695.456	-50.233	0.303	-0.145
-694.441	-25.292	0.195	-0.117
-693.426	-200.000	-0.011	0.113
-692.412	-177.260	-0.282	-0.007
-691.397	800.000	0.056	-0.230
-690.383	-155.650	-0.067	0.004
-689.368	307.706	0.101	0.191
-688.354	268.104	-0.010	0.017
-687.339	277.287	-0.109	0.195
-686.324	-132.399	0.311	-0.041
-685.310	-90.865	-0.483	0.141
-684.295	-87.381	-0.349	-0.107
-683.281	-2.563	-0.271	0.192
-682.266	-65.862	-0.220	0.089
-681.251	-61.079	0.438	-0.187
-680.237	70.205	0.113	0.118
-679.222	14.567	0.289	0.228
-678.208	-93.683	0.132	-0.037
-677.193	30.178	-0.158	-0.136
-676.178	8.239	-0.169	0.128
-675.164	205.892	0.040	-0.063
-674.149	161.353	-0.054	-0.077
-673.135	-200.000	-0.412	-0.000
-672.120	-27.094	-0.289	-0.170
-671.105	-137.657	0.316	-0.036
-670.091	-156.834	0.293	-0.018
-669.076	-200.000	-0.072	-0.362
-668.062	-135.286	-0.377	0.046
-667.047	758.359	0.110	0.301
-666.032	800.000	0.072	-0.301
-665.018	241.700	0.051	0.086
-664.003	-65.780	-0.182	-0.073
-662.989	-187.282	0.087	0.001
-661.974	696.177	-0.102	0.271
-660.959	-200.000	-0.003	-0.052
-659.945	84.390	-0.141	0.155
-658.930	205.189	0.300	-0.471
-657.916	-48.810	-0.252	-0.122
-656.901	69.514	0.079	-0.082
-655.886	-65.693	0.064	-0.026
-654.872	-78.478	-0.328	-0.114
-653.857	-65.698	0.165	-0.067
-652.843	-200.000	-0.007	0.080
-651.828	20.754	-0.196	0.160
-650.814	-13.237	-0.271	-0.178
-649.799	89.724	0.142	0.160
-648.784	-200.000	-0.018	0.120
-647.770	-200.000	-0.009	0.053
-646.755	-69.243	-0.313	-0.121
-645.741	-1.775	0.197	-0.140
-644.726	147.010	-0.167	0.226
-643.711	800.000	0.037	-0.149
-642.697	322.627	-0.154	-0.297
-641.682	-200.000	-0.004	-0.017
-640.668	475.872	-0.085	-0.194
-639.653	310.131	0.108	-0.204
-638.638	17.784	-0.376	-0.302
-637.624	177.353	-0.167	-0.245
-636.609	-17.757	-0.424	-0.269
-635.595	483.491	-0.050	-0.115
-634.580	800.000	-0.027	0.116
-633.565	-163.590	-0.154	0.007
-632.551	-117.838	-0.284	0.051
-631.536	-200.000	0.015	-0.220
-630.522	-29.873	-0.150	0.086
-629.507	5.212	-0.256	-0.190
-628.492	-131.290	-0.291	0.039
-627.478	116.895	-0.340	0.421
-626.463	-200.000	-0.002	0.188
-625.449	-100.809	-0.165	-0.041
-624.434	-102.027	0.198	0.048
-623.419	-113.450	-0.071	0.014
-622.405	-200.000	0.061	0.269
-621.390	77.435	0.277	0.297
-620.376	-200.000	0.058	0.486
-619.361	518.266	0.035	0.083
-618.346	-200.000	-0.021	0.219
-617.332	-200.000	-0.042	0.237
-616.317	-108.748	-0.232	-0.050
-615.303	-200.000	-0.022	-0.312
-614.288	-153.293	-0.110	0.008
-613.273	508.872	-0.013	0.030
-612.259	370.106	-0.193	-0.394
-611.244	-19.991	0.240	0.149
-610.230	-200.000	-0.008	0.113
-609.215	7.766	0.230	0.174
-608.201	800.000	0.049	-0.170
-607.186	66.607	0.091	0.093
-606.171	-10.986	-0.067	-0.045
-605.157	-200.000	0.002	-0.171
-604.142	549.210	0.045	0.109
-603.128	-200.000	0.042	0.227
-602.113	-55.945	-0.107	0.048
-601.098	-5.509	0.194	0.134
-600.084	445.017	0.126	-0.278
-599.069	-200.000	-0.024	-0.290
-598.055	-76.476	-0.206	0.073
-597.040	-167.079	-0.302	-0.012
-596.025	-200.000	-0.032	-0.244
-595.011	-200.000	-0.011	-0.067
-593.996	119.562	0.118	-0.148
-592.982	800.000	-0.024	0.088
-591.967	-200.000	0.030	-0.227
-590.952	12.441	-0.289	-0.224
-589.938	-41.670	-0.295	0.153
-588.923	-200.000	0.019	-0.155
-587.909	390.264	-0.126	-0.264
-586.894	79.038	0.335	0.361
-585.879	50.323	-0.073	0.070
-584.865	-200.000	0.059	0.271
-583.850	-200.000	0.050	-0.261
-582.836	-79.904	-0.175	0.059
-581.821	-200.000	-0.080	0.435
-580.806	-169.191	-0.301	-0.011
-579.792	-200.000	0.023	-0.139
-578.777	5.988	0.144	-0.108
-577.763	-69.394	-0.319	-0.123
-576.748	-51.502	-0.020	0.009
-575.733	-84.484	0.367	0.117
-574.719	58.287	0.117	-0.115
-573.704	143.564	-0.276	-0.369
-572.690	-69.331	0.324	-0.125
-571.675	1.051	-0.242	0.175
-570.661	197.387	0.291	0.447
-569.646	-59.146	0.219	-0.095
-568.631	-200.000	0.007	-0.251
-567.617	-129.708	-0.124	0.017
-566.602	10.331	-0.130	0.099
-565.588	-24.991	0.191	0.114
-564.573	28.590	0.252	-0.214
-563.558	-57.605	-0.274	-0.121
-562.544	-196.394	-0.203	0.001
-561.529	800.000	-0.087	0.279
-560.515	-66.404	-0.205	-0.082
-559.500	77.281	-0.143	-0.153
-558.485	193.422	0.122	-0.185
-557.471	800.000	0.115	0.364
-556.456	212.197	-0.091	-0.144
-555.442	116.280	-0.089	-0.110
-554.427	158.316	-0.123	-0.172
-553.412	-200.000	-0.020	-0.352
-552.398	-97.499	0.067	-0.017
-551.383	53.131	0.106	0.102
-550.369	21.840	0.280	0.229
-549.354	800.000	0.025	-0.098
-548.339	-96.678	-0.321	-0.085
-547.325	-198.156	-0.278	0.002
-546.310	-87.976	0.181	-0.055
-545.296	-72.674	0.193	0.072
-544.281	-3.127	-0.152	0.107
-543.266	-91.810	-0.079	-0.022
-542.252	300.542	0.167	-0.309
-541.237	-170.587	0.285	0.010
-540.223	-127.782	-0.060	0.009
-539.208	-65.267	0.131	0.053
-538.193	-182.129	-0.453	-0.009
-537.179	-51.930	0.081	-0.038
-536.164	-200.000	-0.046	0.331
-535.150	-200.000	0.015	0.171
-534.135	-4.766	0.101	-0.070
-533.121	254.234	0.094	0.162
-532.106	115.373	0.092	0.113
-531.091	-111.162	-0.246	0.051
-530.077	31.870	0.253	-0.219
-529.062	-87.683	0.085	0.026
-528.048	-129.044	0.150	-0.021
-527.033	-158.456	-0.240	-0.014
-526.018	141.902	-0.135	0.179
-525.004	158.408	0.136	0.190
-523.989	-49.149	-0.426	0.204
-522.975	800.000	-0.030	0.104
-521.960	395.169	0.023	0.049
-520.945	64.047	-0.059	0.060
-519.931	211.789	-0.075	0.119
-518.916	-200.000	0.029	0.239
-517.902	-20.188	0.085	0.052
-516.887	12.287	0.107	-0.083
-515.872	139.640	-0.231	-0.306
-514.858	157.250	-0.105	0.146
-513.843	-45.156	-0.345	0.172
-512.829	-150.080	-0.194	-0.015
-511.814	429.976	-0.157	0.340
-510.799	-67.390	-0.267	0.105
-509.785	-200.000	0.050	0.281
-508.770	-101.875	-0.070	0.017
-507.756	-76.946	-0.159	0.056
-506.741	-106.180	0.053	0.012
-505.726	-153.650	-0.162	-0.011
-504.712	-49.177	0.171	-0.082
-503.697	-57.642	0.191	-0.084
-502.683	800.000	-0.072	-0.261
-501.668	-165.388	0.173	0.008
-500.653	800.000	-0.080	-0.242
-499.639	-54.723	-0.246	0.112
-498.624	-199.612	0.634	0.003
-497.610	-7.107	-0.044	-0.030
-496.595	104.422	0.148	0.174
-495.581	-200.000	0.010	0.168
-494.566	108.192	0.098	-0.118
-493.551	-200.000	0.006	0.237
-492.537	-200.000	-0.076	0.342
-491.522	-137.354	0.203	-0.023
-490.508	-200.000	-0.042	-0.413
-489.493	-72.160	-0.255	0.095
-488.478	-149.955	0.152	-0.012
-487.464	193.257	0.018	0.028
-486.449	-46.018	-0.210	-0.104
-485.435	259.946	0.171	-0.296
-484.420	152.633	-0.085	-0.116
-483.405	-200.000	0.014	-0.094
-482.391	373.655	0.203	0.415
-481.376	151.274	-0.070	0.096
-480.362	115.996	0.161	0.198
-479.347	633.941	0.057	-0.145
-478.332	-132.614	0.351	-0.045
-477.318	20.085	0.308	0.249
-476.303	-139.148	-0.108	0.012
-475.289	249.894	-0.091	0.155
-474.274	800.000	-0.078	0.262
-473.259	800.000	-0.095	0.391
-472.245	-76.001	-0.381	-0.135
-471.230	800.000	0.032	-0.099
-470.216	-200.000	-0.008	-0.089
-469.201	497.690	0.007	-0.017
-468.186	800.000	0.095	-0.371
-467.172	800.000	0.143	-0.503
-466.157	-33.886	-0.297	0.164
-465.143	61.437	0.073	0.073
-464.128	-200.000	-0.024	0.113
-463.113	-138.461	-0.060	-0.007
-462.099	-200.000	0.033	0.252
-461.084	-16.005	0.083	0.053
-460.070	59.852	0.241	-0.239
-459.055	-55.802	-0.347	-0.155
-458.040	30.512	-0.111	0.095
-457.026	-13.389	0.101	-0.065
-456.011	-200.000	0.023	0.124
-454.997	56.389	-0.218	-0.213
-453.982	249.192	-0.136	-0.231
-452.968	-200.000	-0.001	-0.221
-451.953	528.770	-0.031	0.072
-450.938	-15.623	0.172	-0.110
-449.924	-63.659	-0.150	-0.061
-448.909	-200.000	0.035	-0.160
-447.895	-53.932	0.084	0.038
-446.880	100.719	0.204	0.238
-445.865	-118.451	0.278	0.049
-444.851	17.374	0.355	0.282
-443.836	-200.000	-0.035	-0.203
-442.822	800.000	0.026	-0.075
-441.807	800.000	-0.082	-0.310
-440.792	10.942	-0.112	0.086
-439.778	147.003	-0.119	0.160
-438.763	-41.337	-0.323	0.167
-437.749	-200.000	-0.003	-0.162
-436.734	-200.000	0.001	-0.392
-435.719	-200.000	-0.004	-0.225
-434.705	440.100	0.055	-0.120
-433.690	36.046	-0.265	-0.234
-432.676	219.341	-0.100	-0.159
-431.661	226.278	0.039	-0.064
-430.646	-78.301	-0.404	0.139
-429.632	-139.999	-0.160	-0.017
-428.617	525.980	0.082	0.193
-427.603	-163.850	-0.158	-0.007
-426.588	-140.975	-0.065	-0.007
-425.573	145.569	0.296	0.397
-424.559	-200.000	-0.030	0.178
-423.544	-87.259	0.319	-0.097
-422.530	-200.000	0.000	0.256
-421.515	-91.327	-0.252	0.072
-420.500	-69.108	-0.283	0.109
-419.486	-170.838	-0.138	-0.005
-418.471	-68.392	0.275	0.107
-417.457	-0.835	0.042	-0.030
-416.442	-158.179	-0.303	-0.018
-415.428	-43.409	0.085	-0.043
-414.413	-0.180	-0.073	0.052
-413.398	-200.000	-0.028	-0.281
-412.384	-90.942	-0.294	0.084
-411.369	108.252	0.105	0.125
-410.355	25.878	0.253	0.211
-409.340	800.000	0.056	-0.239
-408.325	464.268	0.177	-0.396
-407.311	-163.656	0.208	-0.010
-406.296	-39.909	0.138	0.072
-405.282	-58.728	0.222	-0.096
-404.267	-200.000	-0.036	-0.205
-403.252	-136.703	0.054	-0.006
-402.238	-86.828	-0.125	0.038
-401.223	116.542	-0.147	-0.180
-400.209	91.619	0.119	0.134
-399.194	-106.289	0.192	-0.043
-398.179	96.186	0.074	-0.085
-397.165	800.000	-0.054	-0.217
-396.150	-153.131	-0.043	0.003
-395.136	800.000	-0.077	0.219
-394.121	-35.808	-0.225	-0.122
-393.106	100.621	0.020	0.024
-392.092	55.070	0.213	0.205
-391.077	-200.000	-0.002	-0.032
-390.063	125.904	-0.161	0.203
-389.048	-109.359	-0.108	0.023
-388.033	-18.202	0.080	0.050
-387.019	31.728	0.066	-0.057
-386.004	-126.858	-0.256	-0.038
-384.990	158.874	-0.158	0.220
-383.975	-166.670	0.152	0.006
-382.960	23.870	0.116	-0.095
-381.946	-144.495	0.057	-0.005
-380.931	-106.339	0.258	0.058
-379.917	-141.888	-0.121	-0.012
-378.902	-200.000	-0.037	-0.448
-377.888	-200.000	-0.021	0.282
-376.873	-140.557	0.123	0.013
-375.858	-112.796	-0.202	-0.040
-374.844	-41.330	0.042	-0.021
-373.829	-91.755	-0.364	0.103
-372.815	-23.266	-0.209	0.126
-371.800	669.795	0.073	-0.189
-370.785	167.587	0.191	0.271
-369.771	-200.000	-0.004	-0.110
-368.756	-67.771	0.311	0.121
-367.742	83.889	0.161	0.176
-366.727	89.269	0.082	-0.091
-365.712	687.625	-0.102	0.267
-364.698	443.021	-0.055	-0.119
-363.683	-200.000	-0.008	-0.412
-362.669	-200.000	0.031	0.283
-361.654	-131.231	0.049	-0.006
-360.639	629.229	-0.054	0.137
-359.625	53.283	-0.122	-0.116
-358.610	122.206	0.172	0.214
-357.596	800.000	0.079	-0.310
-356.581	-76.570	-0.331	0.116
-355.566	-28.784	-0.335	0.192
-354.552	195.182	-0.048	0.073
-353.537	598.855	-0.065	0.162
-352.523	800.000	0.013	0.052
-351.508	-30.439	0.161	0.091
-350.493	645.259	0.106	0.270
-349.479	409.804	0.186	0.393
-348.464	-7.325	-0.142	0.096
-347.450	800.000	0.043	0.184
-346.435	-16.752	0.291	-0.184
-345.420	-16.620	-0.200	-0.126
-344.406	-182.329	0.304	-0.006
-343.391	24.613	-0.251	0.207
-342.377	-200.000	0.024	-0.176
-341.362	30.880	0.173	0.148
-340.348	-86.637	0.264	-0.081
-339.333	-200.000	-0.010	-0.281
-338.318	800.000	-0.033	-0.132
-337.304	75.220	-0.167	0.176
-336.289	800.000	-0.017	-0.063
-335.275	588.942	-0.098	0.240
-334.260	-200.000	-0.292	-0.000
-333.245	-29.508	-0.343	0.195
-332.231	87.484	0.360	0.397
-331.216	-187.998	-0.443	0.006
-330.202	-90.827	-0.261	0.075
-329.187	-21.065	0.376	0.230
-328.172	81.658	-0.260	-0.280
-327.158	-40.236	0.309	0.160
-326.143	-200.000	-0.046	-0.305
-325.129	-200.000	0.017	0.081
-324.114	701.150	0.029	0.075
-323.099	489.294	0.007	-0.016
-322.085	152.606	0.105	0.143
-321.070	-136.269	0.207	-0.024
-320.056	36.382	0.430	0.377
-319.041	193.070	0.317	0.478
-318.026	800.000	-0.008	0.025
-317.012	-137.872	-0.167	-0.019
-315.997	-70.636	0.251	-0.095
-314.983	-200.000	0.028	0.363
-313.968	800.000	0.165	0.564
-312.953	-44.201	0.081	0.040
-311.939	87.666	0.113	0.124
-310.924	-118.899	-0.172	-0.030
-309.910	-178.723	-0.137	0.003
-308.895	4.299	0.466	-0.340
-307.880	-163.794	0.378	-0.018
-306.866	-41.972	0.190	0.097
-305.851	156.271	0.187	0.257
-304.837	-200.000	0.085	-0.418
-303.822	-137.717	0.269	0.030
-302.807	-140.149	0.140	-0.015
-301.793	82.191	0.124	0.133
-300.778	-70.136	-0.093	-0.035
-299.764	-67.189	-0.286	0.112
-298.749	-156.764	-0.235	0.014
-297.735	-101.188	0.213	0.052
-296.720	800.000	0.043	-0.134
-295.705	-133.905	0.112	0.014
-294.691	-35.929	0.213	-0.114
-293.676	282.201	-0.120	0.215
-292.662	-200.000	0.010	0.227
-291.647	800.000	-0.055	0.151
-290.632	-72.227	-0.498	-0.184
-289.618	-200.000	0.017	-0.104
-288.603	-200.000	-0.012	-0.391
-287.589	-66.975	0.218	-0.086
-286.574	172.561	-0.211	0.301
-285.559	169.116	-0.162	-0.230
-284.545	800.000	0.058	0.216
-283.530	226.417	0.171	0.276
-282.516	144.116	-0.039	-0.052
-281.501	-56.103	0.084	0.037
-280.486	-92.075	0.339	0.095
-279.472	54.544	-0.047	-0.045
-278.457	437.995	0.154	-0.334
-277.443	115.513	0.293	-0.357
-276.428	3.082	0.311	-0.225
-275.413	30.868	0.102	-0.087
-274.399	531.390	-0.062	-0.146
-273.384	-111.241	-0.429	-0.087
-272.370	-200.000	0.016	0.177
-271.355	-190.401	0.164	-0.002
-270.340	290.151	0.070	0.127
-269.326	295.318	0.067	-0.123
-268.311	-200.000	0.067	-0.352
-267.297	-137.784	-0.230	-0.026
-266.282	-63.598	0.165	0.067
-265.267	32.165	0.142	0.122
-264.253	-200.000	-0.011	0.082
-263.238	2.039	0.047	-0.034
-262.224	408.008	0.045	-0.095
-261.209	-153.010	-0.125	0.009
-260.195	-200.000	-0.038	-0.171
-259.180	800.000	-0.093	0.294
-258.165	-106.694	0.294	0.065
-257.151	-106.721	0.292	-0.065
-256.136	251.965	0.153	-0.259
-255.122	-144.811	-0.134	0.012
-254.107	-200.000	-0.019	0.371
-253.092	-16.964	0.131	0.082
-252.078	188.876	-0.133	-0.198
-251.063	92.198	-0.117	-0.131
-250.049	-150.577	0.040	0.003
-249.034	61.422	-0.038	-0.037
-248.019	-28.038	-0.179	0.103
-247.005	-86.662	-0.392	-0.119
-245.990	-169.001	0.289	0.011
-244.976	-200.000	-0.036	-0.163
-243.961	-200.000	-0.027	-0.189
-242.946	800.000	0.085	0.348
-241.932	800.000	0.023	-0.084
-240.917	767.383	0.049	0.132
-239.903	253.587	-0.129	-0.219
-238.888	-144.375	0.156	-0.014
-237.873	187.420	-0.119	-0.177
-236.859	59.753	-0.186	-0.182
-235.844	0.095	0.170	-0.121
-234.830	228.115	-0.031	0.050
-233.815	190.837	0.048	-0.071
-232.800	7.300	-0.291	-0.216
-231.786	-67.523	0.127	-0.050
-230.771	-200.000	0.010	-0.059
-229.757	-35.739	-0.086	0.046
-228.742	-200.000	0.026	0.145
-227.727	26.191	-0.145	0.120
-226.713	800.000	0.069	0.201
-225.698	-117.845	0.083	-0.015
-224.684	-200.000	0.084	-0.434
-223.669	-200.000	0.000	-0.042
-222.655	-200.000	-0.006	0.035
-221.640	-200.000	0.007	-0.151
-220.625	-149.931	-0.109	-0.008
-219.611	-134.783	0.493	0.059
-218.596	-89.887	0.261	-0.076
-217.582	-132.912	-0.462	-0.058
-216.567	-167.789	-0.133	-0.005
-215.552	313.543	-0.026	-0.049
-214.538	800.000	0.086	0.320
-213.523	-108.771	-0.142	-0.030
-212.509	-141.681	0.131	-0.013
-211.494	-200.000	-0.069	0.326
-210.479	-3.628	-0.297	0.205
-209.465	800.000	-0.069	0.256
-208.450	121.017	0.073	0.090
-207.436	31.484	0.319	0.272
-206.421	-200.000	0.018	-0.122
-205.406	-172.906	-0.339	0.010
-204.392	-200.000	-0.032	0.183
-203.377	-68.044	0.209	-0.081
-202.363	800.000	0.045	-0.124
-201.348	-200.000	-0.059	-0.314
-200.333	765.903	0.033	-0.089
-199.319	249.475	0.057	-0.096
-198.304	-200.000	0.037	0.175
-197.290	-41.511	0.134	-0.068
-196.275	-169.460	-0.548	-0.020
-195.260	216.225	0.121	-0.191
-194.246	-200.000	0.042	0.197
-193.231	-54.100	-0.072	-0.032
-192.217	2.494	-0.164	0.117
-191.202	-200.000	-0.001	0.075
-190.187	131.333	-0.264	-0.336
-189.173	416.152	-0.050	-0.105
-188.158	732.721	0.157	-0.415
-187.144	800.000	0.038	-0.162
-186.129	444.260	-0.108	0.235
-185.114	-200.000	-0.033	0.157
-184.100	41.774	0.191	0.171
-183.085	-113.389	0.140	0.027
-182.071	-113.188	0.189	0.037
-181.056	136.200	0.171	-0.221
-180.042	437.235	0.079	-0.170
-179.027	-47.108	-0.199	0.096
-178.012	412.746	0.175	-0.368
-176.998	800.000	-0.116	-0.335
-175.983	64.904	0.159	-0.159
-174.969	115.326	0.067	-0.082
-173.954	-37.628	0.318	0.168
-172.939	94.109	0.215	-0.242
-171.925	104.290	-0.077	-0.090
-170.910	-21.593	0.290	0.175
-169.896	800.000	0.077	0.244
-168.881	800.000	0.063	0.225
-167.866	800.000	0.090	-0.346
-166.852	800.000	-0.026	0.087
-165.837	-200.000	0.013	-0.376
-164.823	242.435	0.204	-0.338
-163.808	-90.045	0.311	-0.090
-162.793	248.231	0.150	-0.251
-161.779	-133.145	-0.243	0.030
-160.764	-48.194	0.152	0.073
-159.750	-37.729	0.256	0.135
-158.735	-46.691	-0.086	-0.041
-157.720	-200.000	0.008	-0.071
-156.706	26.321	-0.183	-0.151
-155.691	198.508	0.120	0.181
-154.677	800.000	0.072	-0.270
-153.662	-58.336	-0.134	0.058
-152.647	-136.613	-0.218	0.025
-151.633	-200.000	-0.028	-0.207
-150.618	266.425	-0.167	0.289
-149.604	-200.000	-0.043	0.552
-148.589	-159.095	-0.373	-0.021
-147.574	59.788	-0.478	0.466
-146.560	-200.000	0.014	0.145
-145.545	800.000	-0.067	0.214
-144.531	-188.279	-0.265	0.003
-143.516	-199.334	-0.198	-0.001
-142.502	616.550	0.095	0.235
-141.487	470.184	-0.067	-0.149
-140.472	19.690	-0.240	0.191
-139.458	-183.821	0.035	-0.001
-138.443	-200.000	0.025	-0.420
-137.429	137.291	0.246	-0.318
-136.414	-124.895	0.283	0.043
-135.399	576.404	-0.088	-0.213
-134.385	0.410	-0.140	-0.099
-133.370	179.888	0.039	-0.057
-132.356	-106.826	-0.211	0.046
-131.341	-28.135	-0.189	0.108
-130.326	77.912	0.091	0.096
-129.312	-24.126	0.154	0.091
-128.297	800.000	-0.151	-0.447
-127.283	-110.679	0.317	-0.065
-126.268	22.762	-0.058	-0.047
-125.253	-48.399	-0.225	-0.107
-124.239	-77.768	-0.310	0.106
-123.224	-151.896	-0.135	-0.010
-122.210	-100.926	0.138	-0.034
-121.195	-28.692	0.165	-0.094
-120.180	501.545	-0.124	-0.282
-119.166	23.101	0.237	-0.192
-118.151	-46.409	-0.140	-0.068
-117.137	-200.000	0.036	0.210
-116.122	-171.542	-0.296	0.010
-115.107	-90.949	-0.107	-0.030
-114.093	513.770	-0.181	0.417
-113.078	-161.656	-0.188	0.010
-112.064	3.434	-0.197	0.142
-111.049	-55.294	-0.267	0.118
-110.034	310.358	0.089	0.164
-109.020	62.913	0.145	-0.143
-108.005	800.000	0.093	-0.379
-106.991	29.990	0.069	0.058
-105.976	-10.000	0.211	0.138
-104.962	169.110	0.268	-0.377
-103.947	163.391	0.224	-0.311
-102.932	44.701	0.089	0.081
-101.918	-139.960	-0.389	-0.041
-100.903	-53.029	0.168	-0.076
-99.889	-92.257	-0.299	-0.083
-98.874	-200.000	0.002	0.148
-97.859	-16.620	0.260	-0.163
-96.845	-43.394	-0.087	0.043
-95.830	-143.038	0.265	-0.025
-94.816	-79.505	-0.346	0.115
-93.801	-200.000	0.052	-0.338
-92.786	-105.809	-0.098	-0.022
-91.772	-86.798	0.425	0.128
-90.757	423.768	-0.110	-0.233
-89.743	800.000	-0.056	-0.187
-88.728	-99.391	0.300	-0.075
-87.713	605.693	0.077	0.191
-86.699	-50.619	-0.060	0.028
-85.684	-124.892	0.286	-0.044
-84.670	510.216	0.063	0.144
-83.655	-12.903	-0.202	-0.130
-82.640	-36.418	-0.066	0.035
-81.626	-149.415	-0.151	-0.012
-80.611	-200.000	0.007	-0.097
-79.597	-105.700	-0.185	-0.041
-78.582	102.444	-0.066	-0.077
-77.567	-145.087	0.153	0.014
-76.553	133.128	-0.210	0.268
-75.538	-65.207	-0.103	-0.041
-74.524	800.000	-0.051	-0.189
-73.509	-102.048	0.353	0.084
-72.494	-44.816	-0.131	-0.064
-71.480	367.404	0.134	0.267
-70.465	48.766	0.379	0.351
-69.451	-43.914	-0.086	-0.043
-68.436	-65.274	-0.204	-0.081
-67.422	-54.270	-0.180	-0.081
-66.407	102.060	-0.071	0.082
-65.392	62.982	0.093	0.092
-64.378	291.450	-0.153	0.275
-63.363	264.707	0.065	-0.111
-62.349	-63.678	0.382	0.155
-61.334	82.666	-1.047	-1.121
-60.319	121.581	0.361	0.444
-59.305	800.000	-0.292	-0.950
-58.290	800.000	0.420	1.250
-57.276	787.074	0.647	1.750
-56.261	-200.000	105.976	615.591
-55.246	502.037	1508.522	3435.681
-54.232	172.342	2710.933	3844.323
-53.217	101.421	2335.195	2681.730
-52.203	36.024	2078.970	1803.958
-51.188	31.226	1991.980	1685.227
-50.173	29.808	1974.031	1657.284
-49.159	45.809	2030.849	1850.917
-48.144	46.022	2047.847	1868.272
-47.130	31.844	2005.855	1702.309
-46.115	29.585	1995.124	1672.700
-45.100	29.388	1992.593	1668.729
-44.086	29.364	1990.831	1666.977
-43.071	29.324	1987.896	1664.087
-42.057	29.319	1985.729	1662.166
-41.042	29.433	1983.051	1660.881
-40.027	29.410	1982.158	1659.860
-39.013	29.391	1980.036	1657.845
-37.998	29.430	1978.104	1656.515
-36.984	29.472	1975.908	1654.984
-35.969	29.378	1974.623	1653.001
-34.954	29.446	1972.359	1651.654
-33.940	29.397	1971.277	1650.239
-32.925	29.509	1969.449	1649.643
-31.911	29.462	1967.653	1647.655
-30.896	29.433	1965.858	1645.830
-29.881	29.442	1964.975	1645.101
-28.867	29.604	1962.316	1644.260
-27.852	29.469	1961.262	1642.111
-26.838	29.539	1959.243	1640.975
-25.823	29.548	1957.700	1639.699
-24.809	29.569	1955.690	1638.133
-23.794	29.499	1954.053	1636.072
-22.779	29.484	1952.232	1634.353
-21.765	29.552	1950.490	1633.430
-20.750	29.547	1948.591	1631.736
-19.736	29.546	1947.485	1630.732
-18.721	29.578	1945.568	1629.343
-17.706	29.543	1943.920	1627.592
-16.692	29.536	1942.497	1626.275
-15.677	29.560	1940.998	1625.165
-14.663	29.448	1940.208	1623.457
-13.648	29.491	1938.420	1622.270
-12.633	29.547	1936.543	1621.133
-11.619	29.566	1935.779	1620.592
-10.604	29.569	1934.157	1619.193
-9.590	29.441	1933.327	1617.318
-8.575	29.523	1931.848	1616.736
-7.560	29.560	1930.066	1615.497
-6.546	29.644	1928.446	1614.815
-5.531	29.528	1928.209	1613.535
-4.517	29.547	1926.531	1612.239
-3.502	29.554	1925.772	1611.599
-2.487	29.508	1924.168	1609.791
-1.473	29.613	1923.073	1609.725
-0.458	29.611	1918.236	1605.593
0.556	26.955	1898.832	1577.799
1.571	22.885	1879.754	1526.702
2.586	19.148	1903.384	1512.984
3.600	18.353	1939.825	1534.689
4.615	18.145	1935.179	1529.021
5.629	13.882	1834.582	1413.201
6.644	5.019	1715.411	1250.468
7.659	0.229	1678.838	1186.043
8.673	-0.171	1675.575	1180.487
9.688	-0.248	1674.302	1178.884
10.702	-0.264	1673.245	1177.906
11.717	-0.366	1669.131	1174.113
12.731	0.141	1668.495	1177.529
13.746	6.659	1684.916	1240.378
14.761	16.219	1706.898	1332.263
15.775	21.057	1715.113	1376.840
16.790	22.007	1716.344	1385.211
17.804	22.186	1715.744	1386.013
18.819	22.204	1715.149	1385.554
19.834	22.396	1714.193	1386.165
20.848	22.494	1714.463	1387.038
21.863	22.572	1712.933	1386.289
22.877	22.639	1711.791	1385.772
23.892	22.624	1711.027	1384.906
24.907	22.503	1710.205	1383.169
25.921	22.636	1708.805	1382.962
26.936	22.560	1708.338	1381.860
27.950	22.607	1707.087	1381.102
28.965	22.584	1706.418	1380.253
29.980	22.680	1705.325	1380.002
30.994	22.626	1704.734	1378.979
32.009	22.574	1703.477	1377.429
33.023	22.702	1702.307	1377.366
34.038	22.652	1701.210	1375.967
35.053	22.579	1700.743	1374.897
36.067	22.696	1699.596	1374.754
37.082	22.652	1698.258	1373.208
38.096	22.561	1697.266	1371.581
39.111	22.542	1696.959	1371.065
40.126	22.594	1696.037	1370.599
41.140	22.597	1695.057	1369.712
42.155	22.585	1693.931	1368.585
43.169	22.612	1692.685	1367.668
44.184	22.553	1691.753	1366.336
45.199	22.578	1690.716	1365.571
46.213	22.534	1689.972	1364.509
47.228	22.590	1688.473	1363.611
48.242	22.487	1687.369	1361.803
49.257	22.627	1686.100	1361.738
50.271	22.573	1685.134	1360.422
51.286	22.596	1683.639	1359.268
52.301	22.591	1682.744	1358.388
53.315	22.474	1680.983	1355.946
54.330	22.550	1679.404	1355.142
55.344	22.564	1677.697	1353.749
56.359	22.606	1676.243	1352.778
57.374	22.618	1675.685	1352.304
58.388	22.634	1674.668	1351.486
59.403	22.543	1673.686	1349.870
60.417	22.575	1671.910	1348.568
61.432	22.734	1670.993	1348.926
62.447	22.613	1669.993	1347.075
63.461	22.670	1668.959	1346.555
64.476	22.621	1667.851	1345.170
65.490	22.641	1667.202	1344.675
66.505	22.684	1665.608	1343.599
67.520	22.605	1664.973	1342.369
68.534	22.671	1663.993	1341.960
69.549	22.662	1662.759	1340.781
70.563	22.683	1661.510	1339.809
71.578	22.607	1660.646	1338.420
72.593	22.722	1659.798	1338.489
73.607	22.540	1659.289	1336.580
74.622	22.574	1658.116	1335.776
75.636	22.683	1656.908	1335.509
76.651	22.677	1656.065	1334.669
77.666	22.594	1655.154	1333.189
78.680	22.614	1653.900	1332.213
79.695	22.657	1652.974	1331.667
80.709	22.601	1651.986	1330.334
81.724	22.660	1651.370	1330.168
82.739	22.587	1650.862	1329.087
83.753	22.661	1649.580	1328.497
84.768	22.623	1648.415	1327.152
85.782	22.683	1647.817	1327.005
86.797	22.589	1646.599	1325.201
87.812	22.639	1645.784	1324.802
88.826	22.663	1644.041	1323.465
89.841	22.665	1643.502	1322.928
90.855	22.704	1642.561	1322.349
91.870	22.642	1641.521	1320.928
92.884	22.704	1640.494	1320.447
93.899	22.618	1639.630	1318.995
94.914	22.643	1638.544	1318.187
95.928	22.691	1637.458	1317.555
96.943	22.676	1636.022	1316.172
97.957	22.635	1634.998	1314.927
98.972	22.674	1633.340	1313.772
99.987	22.707	1631.950	1312.778
101.001	22.726	1629.964	1311.209
102.016	22.621	1629.193	1309.694
103.030	22.628	1628.366	1308.962
104.045	22.595	1626.881	1307.404
105.060	22.611	1625.306	1306.145
106.074	22.654	1624.133	1305.408
107.089	22.778	1622.393	1304.809
108.103	22.700	1621.616	1303.490
109.118	22.741	1620.707	1302.947
110.133	22.636	1619.796	1301.329
111.147	22.786	1617.852	1300.753
112.162	22.776	1616.557	1299.522
113.176	22.793	1615.323	1298.540
114.191	22.726	1614.820	1297.529
115.206	22.750	1613.087	1296.199
116.220	22.704	1612.348	1295.154
117.235	22.722	1610.874	1293.984
118.249	22.734	1610.220	1293.433
119.264	22.804	1608.645	1292.565
120.279	22.640	1607.913	1290.667
121.293	22.777	1606.471	1290.399
122.308	22.733	1605.254	1288.984
123.322	22.811	1603.702	1288.187
124.337	22.871	1602.357	1287.437
125.352	22.766	1601.199	1285.627
126.366	22.810	1600.551	1285.309
127.381	22.799	1599.589	1284.346
128.395	22.867	1598.141	1283.560
129.410	22.826	1597.352	1282.514
130.424	22.797	1596.136	1281.218
131.439	22.790	1595.131	1280.244
132.454	22.769	1593.993	1279.068
133.468	22.741	1592.660	1277.686
134.483	22.744	1591.067	1276.310
135.497	22.764	1590.040	1275.520
136.512	22.796	1588.613	1274.495
137.527	22.775	1587.518	1273.353
138.541	22.774	1586.856	1272.701
139.556	22.699	1585.279	1270.780
140.570	22.749	1584.136	1270.115
141.585	22.809	1582.213	1268.888
142.600	22.796	1581.390	1268.022
143.614	22.859	1579.912	1267.177
144.629	22.711	1579.271	1265.489
145.643	22.754	1578.677	1265.210
146.658	22.730	1576.617	1263.275
147.673	22.789	1575.078	1262.358
148.687	22.719	1574.182	1261.027
149.702	22.894	1572.897	1261.131
150.716	22.746	1571.942	1259.199
151.731	22.664	1571.199	1257.909
152.746	22.764	1569.826	1257.409
153.760	22.876	1568.421	1256.971
154.775	22.838	1567.391	1255.767
155.789	22.883	1566.250	1255.061
156.804	22.804	1565.620	1253.883
157.819	22.848	1564.182	1252.935
158.833	22.826	1563.200	1251.877
159.848	22.772	1562.401	1250.744
160.862	22.801	1561.568	1250.169
161.877	22.914	1559.766	1249.417
162.892	22.878	1559.146	1248.557
163.906	22.884	1558.428	1247.916
164.921	22.946	1557.084	1247.167
165.935	22.885	1556.557	1246.205
166.950	22.904	1555.951	1245.742
167.964	22.872	1554.758	1244.449
168.979	22.917	1553.736	1243.840
169.994	23.057	1552.606	1243.809
171.008	22.986	1552.018	1242.725
172.023	22.862	1551.235	1241.119
173.037	22.922	1549.705	1240.207
174.052	23.002	1548.546	1239.733
175.067	22.911	1548.244	1238.739
176.081	22.975	1546.705	1237.845
177.096	22.945	1545.735	1236.750
178.110	22.980	1544.682	1236.048
179.125	23.013	1543.529	1235.243
180.140	22.976	1542.724	1234.232
181.154	22.988	1542.302	1233.867
182.169	23.096	1541.027	1233.490
183.183	22.956	1539.991	1231.579
184.198	22.985	1539.072	1230.939
185.213	22.933	1538.285	1229.834
186.227	23.048	1537.032	1229.530
187.242	23.091	1536.365	1229.182
188.256	23.038	1535.715	1228.185
189.271	22.976	1535.000	1227.076
190.286	22.975	1534.307	1226.402
191.300	22.991	1533.216	1225.537
192.315	23.043	1532.240	1225.007
193.329	23.052	1531.213	1224.139
194.344	23.011	1530.494	1223.177
195.359	23.033	1530.106	1222.905
196.373	23.121	1528.774	1222.345
197.388	23.093	1528.044	1221.460
198.402	23.027	1527.041	1220.092
199.417	22.912	1526.363	1218.647
200.432	22.980	1524.950	1217.882
201.446	23.082	1524.398	1218.034
202.461	22.970	1523.876	1216.739
203.475	23.003	1522.445	1215.717
204.490	23.088	1521.447	1215.397
205.504	23.044	1520.945	1214.587
206.519	23.000	1519.511	1213.028
207.534	22.990	1519.401	1212.765
208.548	23.059	1518.637	1212.524
209.563	23.102	1517.299	1211.645
210.577	23.097	1516.338	1210.735
211.592	23.104	1515.640	1210.120
212.607	23.061	1515.061	1209.256
213.621	23.142	1514.370	1209.148
214.636	23.163	1513.433	1208.438
215.650	23.112	1512.680	1207.378
216.665	23.054	1512.114	1206.425
217.680	23.084	1511.129	1205.738
218.694	23.015	1510.846	1204.936
219.709	23.217	1509.195	1204.884
220.723	23.229	1508.528	1204.330
221.738	23.129	1507.744	1202.919
222.753	23.194	1506.651	1202.383
223.767	23.090	1505.737	1200.837
224.782	23.096	1505.425	1200.525
225.796	23.188	1503.939	1199.859
226.811	23.281	1503.296	1199.866
227.826	23.262	1503.082	1199.465
228.840	23.171	1502.252	1198.075
229.855	23.123	1501.636	1197.152
230.869	23.185	1500.587	1196.635
231.884	23.171	1499.564	1195.616
232.899	23.171	1498.302	1194.505
233.913	23.190	1497.142	1193.602
234.928	23.134	1496.466	1192.582
235.942	23.223	1495.422	1192.244
236.957	23.331	1494.252	1191.928
237.972	23.306	1493.249	1190.853
238.986	23.336	1492.195	1190.114
240.001	23.283	1491.120	1188.794
241.015	23.320	1490.038	1188.071
242.030	23.370	1489.280	1187.696
243.045	23.397	1488.451	1187.112
244.059	23.390	1487.499	1186.206
245.074	23.359	1486.893	1185.409
246.088	23.373	1485.925	1184.624
247.103	23.385	1485.682	1184.407
248.117	23.398	1484.531	1183.469
249.132	23.468	1483.401	1182.935
250.147	23.508	1482.695	1182.529
251.161	23.447	1482.579	1181.927
252.176	23.559	1481.403	1181.632
253.190	23.498	1481.027	1180.818
254.205	23.535	1479.557	1179.793
255.220	23.607	1478.566	1179.370
256.234	23.451	1477.890	1177.697
257.249	23.447	1477.609	1177.336
258.263	23.614	1476.529	1177.481
259.278	23.538	1475.750	1176.253
260.293	23.622	1474.844	1175.986
261.307	23.542	1474.375	1174.977
262.322	23.565	1473.769	1174.543
263.336	23.542	1472.921	1173.612
264.351	23.603	1472.061	1173.223
265.366	23.547	1471.085	1171.974
266.380	23.613	1470.208	1171.605
267.395	23.437	1469.683	1169.923
268.409	23.517	1468.769	1169.618
269.424	23.530	1467.675	1168.728
270.439	23.540	1466.901	1168.074
271.453	23.592	1465.877	1167.497
272.468	23.653	1464.936	1167.048
273.482	23.663	1464.363	1166.553
274.497	23.592	1463.656	1165.418
275.512	23.585	1462.559	1164.399
276.526	23.672	1461.906	1164.347
277.541	23.642	1461.018	1163.337
278.555	23.729	1460.201	1163.153
279.570	23.644	1459.110	1161.629
280.585	23.689	1458.406	1161.260
281.599	23.675	1457.778	1160.561
282.614	23.725	1456.769	1159.980
283.628	23.778	1455.206	1158.982
284.643	23.692	1454.842	1158.030
285.657	23.684	1454.172	1157.339
286.672	23.762	1452.980	1156.796
287.687	23.688	1452.508	1155.837
288.701	23.723	1451.436	1155.111
289.716	23.763	1450.585	1154.587
290.730	23.877	1449.903	1154.686
291.745	23.784	1448.982	1153.244
292.760	23.804	1448.010	1152.499
293.774	23.737	1447.212	1151.330
294.789	23.905	1445.995	1151.346
295.803	23.805	1445.556	1150.245
296.818	23.777	1444.922	1149.462
297.833	23.771	1444.413	1148.917
298.847	23.828	1443.325	1148.316
299.862	23.850	1442.493	1147.693
300.876	23.946	1441.162	1147.153
301.891	23.834	1440.733	1145.987
302.906	23.840	1439.658	1145.074
303.920	23.873	1439.416	1144.992
304.935	24.018	1438.718	1145.269
305.949	23.933	1438.106	1144.131
306.964	23.810	1437.639	1142.866
307.979	23.970	1436.045	1142.528
308.993	24.050	1435.230	1142.288
310.008	23.991	1434.461	1141.199
311.022	23.988	1433.464	1140.287
312.037	24.019	1432.380	1139.523
313.052	24.009	1431.899	1138.974
314.066	24.122	1430.589	1138.555
315.081	23.907	1429.986	1136.598
316.095	24.020	1429.103	1136.520
317.110	23.945	1428.285	1135.286
318.125	24.121	1426.846	1135.167
319.139	24.068	1426.285	1134.279
320.154	24.033	1425.746	1133.530
321.168	24.027	1425.008	1132.803
322.183	24.045	1424.143	1132.131
323.197	24.044	1423.113	1131.203
324.212	23.860	1422.364	1129.342
325.227	24.122	1421.232	1130.004
326.241	24.126	1420.305	1129.192
327.256	24.095	1420.012	1128.665
328.270	24.175	1418.886	1128.178
329.285	24.150	1418.087	1127.281
330.300	24.197	1417.191	1126.767
331.314	24.172	1416.488	1125.952
332.329	24.132	1415.764	1125.025
333.343	24.299	1414.457	1124.938
334.358	24.216	1414.041	1123.984
335.373	24.206	1413.386	1123.303
336.387	24.313	1412.215	1122.946
337.402	24.277	1412.094	1122.526
338.416	24.279	1411.862	1122.254
339.431	24.301	1410.856	1121.492
340.446	24.310	1410.487	1121.157
341.460	24.296	1409.244	1119.984
342.475	24.328	1408.177	1119.234
343.489	24.344	1407.397	1118.613
344.504	24.344	1406.739	1117.993
345.519	24.292	1405.908	1116.908
346.533	24.248	1404.794	1115.651
347.548	24.427	1403.704	1115.803
348.562	24.383	1403.311	1115.121
349.577	24.384	1402.449	1114.339
350.592	24.361	1401.808	1113.590
351.606	24.465	1400.661	1113.231
352.621	24.293	1399.860	1111.424
353.635	24.256	1399.192	1110.563
354.650	24.341	1398.510	1110.454
355.665	24.508	1396.992	1110.189
356.679	24.429	1396.123	1108.908
357.694	24.426	1395.226	1108.075
358.708	24.416	1393.941	1106.897
359.723	24.436	1392.951	1106.134
360.738	24.448	1391.565	1105.011
361.752	24.414	1390.850	1104.137
362.767	24.402	1389.866	1103.185
363.781	24.495	1388.879	1102.879
364.796	24.557	1388.165	1102.593
365.810	24.502	1388.003	1102.028
366.825	24.583	1387.137	1101.746
367.840	24.477	1385.922	1100.030
368.854	24.637	1385.110	1100.269
369.869	24.659	1384.999	1100.221
370.883	24.671	1384.190	1099.557
371.898	24.553	1383.899	1098.501
372.913	24.596	1383.031	1097.978
373.927	24.682	1381.979	1097.573
374.942	24.626	1380.967	1096.328
375.956	24.662	1380.589	1096.156
376.971	24.688	1379.773	1095.567
377.986	24.615	1379.152	1094.531
379.000	24.732	1378.149	1094.353
380.015	24.631	1377.812	1093.372
381.029	24.665	1377.136	1092.946
382.044	24.798	1375.952	1092.723
383.059	24.680	1375.736	1091.737
384.073	24.757	1374.639	1091.235
385.088	24.797	1374.160	1091.003
386.102	24.764	1373.274	1090.004
387.117	24.761	1372.943	1089.627
388.132	24.866	1372.260	1089.624
389.146	24.806	1371.129	1088.269
390.161	24.669	1370.699	1086.994
391.175	24.867	1369.651	1087.270
392.190	24.892	1369.318	1087.065
393.205	24.876	1368.309	1086.067
394.219	24.902	1367.108	1085.177
395.234	24.833	1366.329	1084.047
396.248	24.904	1365.621	1083.819
397.263	24.901	1364.299	1082.652
398.278	24.953	1363.088	1081.912
399.292	24.956	1362.473	1081.349
400.307	25.003	1361.681	1080.905
401.321	25.020	1360.639	1080.083
402.336	24.978	1359.827	1079.090
403.350	24.912	1358.906	1077.865
404.365	24.807	1357.839	1076.296
405.380	24.981	1356.943	1076.533
406.394	25.019	1356.440	1076.272
407.409	24.981	1355.760	1075.403
408.423	25.030	1354.773	1074.822
409.438	25.119	1353.985	1074.632
410.453	25.107	1353.112	1073.778
411.467	25.073	1352.725	1073.170
412.482	25.091	1352.008	1072.611
413.496	25.098	1351.596	1072.234
414.511	25.242	1350.515	1072.142
415.526	25.087	1350.114	1070.804
416.540	25.154	1349.197	1070.383
417.555	25.188	1348.352	1069.819
418.569	25.074	1347.957	1068.730
419.584	25.179	1347.238	1068.693
420.599	25.103	1347.035	1067.985
421.613	138.037	1435.992	1797.847
422.628	135.059	1448.904	1797.950
