DTS Sentinel unit serial number:	SN413079Multiplexer serial number:	ORYXHardware model number:	OX4-SRSoftware version number:	ORYX F/W v4.00 Oryx Data Collector v3.7.2.0data status	okinstallation	princeton_trtdifferential loss correction	single-endedforward channel	channel 4reverse channel	N/Adate	2019/09/18time	00:05:35forward acquisition time	60.00reverse acquisition time	0.00gamma	496.2192k internal	0.2333k external	0.2333temperature offset calibration	0.9994default loss term (dB/km)	0.3790temperature slope calibration	1.0000multiplexer offset coefficient	1.0000multiplexer slope coefficient	1.0000fibre end	0.00T internal ref (°C)	23.81T ext. ref 1 (°C)	0.17T ext. ref 2 (°C)	17.25length (m)	temperature (°C)	Stokes	anti-Stokes-747.200	-4.895	-0.132	0.092
-746.185	173.469	0.133	0.193
-745.171	-200.000	0.034	0.415
-744.156	-127.031	0.099	-0.015
-743.142	-95.249	0.147	-0.040
-742.127	263.284	-0.080	-0.140
-741.112	-24.378	-0.074	-0.044
-740.098	34.879	-0.101	0.089
-739.083	-200.000	0.012	0.115
-738.069	-145.184	-0.101	-0.009
-737.054	-143.705	-0.088	0.008
-736.039	-200.000	-0.006	0.241
-735.025	-93.255	-0.172	0.048
-734.010	-200.000	0.007	-0.239
-732.996	182.826	-0.201	-0.298
-731.981	800.000	-0.049	-0.143
-730.966	-76.868	0.063	-0.022
-729.952	-50.308	-0.102	-0.048
-728.937	92.200	0.153	-0.173
-727.923	15.205	-0.298	-0.235
-726.908	32.965	-0.095	0.083
-725.894	-7.913	0.183	-0.124
-724.879	-76.835	0.138	0.048
-723.864	-137.746	-0.395	-0.045
-722.850	88.410	-0.129	0.144
-721.835	-119.007	-0.417	-0.073
-720.821	490.504	-0.024	-0.056
-719.806	-23.433	-0.031	0.018
-718.791	-30.374	0.215	0.123
-717.777	-52.996	0.209	-0.096
-716.762	22.900	-0.192	0.158
-715.748	-164.285	-0.157	-0.007
-714.733	98.066	0.121	-0.139
-713.718	-200.000	-0.043	-0.369
-712.704	160.534	0.234	-0.327
-711.689	79.425	-0.012	0.013
-710.675	-39.347	0.379	-0.200
-709.660	-78.129	0.152	0.053
-708.645	-67.856	-0.273	-0.107
-707.631	196.978	0.093	-0.142
-706.616	-51.654	0.174	-0.082
-705.602	-164.399	0.235	-0.011
-704.587	696.105	-0.093	-0.245
-703.572	310.558	0.075	-0.141
-702.558	198.137	-0.219	-0.336
-701.543	-200.000	-0.007	-0.463
-700.529	-200.000	0.021	-0.221
-699.514	-200.000	-0.001	0.167
-698.499	270.351	0.062	0.110
-697.485	49.812	0.070	-0.066
-696.470	115.460	0.118	0.144
-695.456	800.000	-0.034	-0.108
-694.441	57.745	0.211	0.207
-693.426	-98.805	0.011	0.003
-692.412	-200.000	-0.010	0.081
-691.397	-85.980	0.393	-0.122
-690.383	800.000	0.090	0.350
-689.368	800.000	-0.030	0.094
-688.354	-200.000	0.042	-0.264
-687.339	-200.000	-0.031	0.164
-686.324	-108.802	0.066	0.014
-685.310	517.336	0.026	-0.062
-684.295	-77.088	0.072	-0.025
-683.281	-200.000	-0.008	0.136
-682.266	51.478	-0.228	-0.217
-681.251	303.054	-0.072	-0.133
-680.237	421.501	-0.110	-0.238
-679.222	279.291	0.044	0.079
-678.208	89.673	0.125	0.140
-677.193	695.162	0.122	-0.321
-676.178	15.448	-0.078	0.062
-675.164	103.749	-0.080	0.095
-674.149	-170.735	0.161	0.006
-673.135	735.327	0.058	0.156
-672.120	-33.031	-0.125	-0.069
-671.105	102.956	-0.318	-0.374
-670.091	-100.049	-0.132	-0.033
-669.076	9.442	-0.160	0.121
-668.062	-29.184	-0.165	-0.095
-667.047	-26.198	-0.101	-0.059
-666.032	-148.963	-0.190	0.015
-665.018	-82.945	0.391	-0.127
-664.003	-200.000	0.045	0.208
-662.989	-158.578	-0.453	0.026
-661.974	-52.598	-0.325	-0.151
-660.959	800.000	0.088	-0.292
-659.945	354.787	0.057	0.113
-658.930	800.000	0.048	-0.205
-657.916	-200.000	0.017	-0.076
-656.901	19.773	-0.317	0.255
-655.886	52.228	-0.090	-0.086
-654.872	535.656	0.029	-0.070
-653.857	-124.814	-0.188	-0.029
-652.843	-160.681	-0.087	0.005
-651.828	30.238	0.145	-0.124
-650.814	112.581	0.185	-0.225
-649.799	348.940	0.064	0.126
-648.784	800.000	0.094	0.346
-647.770	320.005	0.082	-0.157
-646.755	216.587	0.076	-0.121
-645.741	-58.054	-0.225	-0.098
-644.726	-200.000	0.026	-0.178
-643.711	740.674	-0.157	-0.421
-642.697	-108.300	0.145	-0.031
-641.682	-200.000	-0.008	-0.057
-640.668	691.789	-0.129	-0.338
-639.653	-3.000	-0.073	-0.051
-638.638	-200.000	0.042	-0.200
-637.624	-4.441	0.248	-0.172
-636.609	-180.018	0.204	0.004
-635.595	-123.626	-0.286	0.045
-634.580	800.000	0.081	0.266
-633.565	531.650	-0.114	-0.269
-632.551	34.049	-0.165	-0.144
-631.536	543.707	-0.251	-0.601
-630.522	-137.932	-0.122	0.014
-629.507	-179.158	-0.156	0.003
-628.492	66.460	0.149	-0.152
-627.478	84.299	0.067	0.074
-626.463	401.829	-0.086	0.181
-625.449	-57.109	0.248	0.109
-624.434	-4.830	-0.345	-0.238
-623.419	252.554	-0.030	0.052
-622.405	273.804	0.055	-0.098
-621.390	-131.696	-0.169	-0.022
-620.376	-70.151	0.115	0.044
-619.361	-119.180	-0.206	-0.036
-618.346	-52.372	0.204	0.094
-617.332	88.944	-0.163	-0.182
-616.317	-200.000	-0.008	-0.394
-615.303	-13.320	-0.246	-0.160
-614.288	-35.850	0.241	-0.131
-613.273	553.213	0.062	0.150
-612.259	89.853	0.072	0.081
-611.244	6.713	-0.304	0.226
-610.230	-200.000	0.006	0.045
-609.215	193.342	0.036	-0.054
-608.201	-64.115	0.221	0.090
-607.186	41.807	-0.285	-0.258
-606.171	-200.000	0.011	0.308
-605.157	-98.583	-0.093	0.024
-604.142	-150.510	-0.254	0.019
-603.128	800.000	0.047	-0.206
-602.113	65.438	-0.136	-0.138
-601.098	-54.651	-0.467	0.211
-600.084	-200.000	-0.043	0.276
-599.069	800.000	0.054	-0.189
-598.055	168.601	0.181	0.257
-597.040	74.404	0.020	0.021
-596.025	14.335	-0.202	-0.158
-595.011	-200.000	0.023	-0.156
-593.996	541.799	0.038	0.091
-592.982	-124.189	0.219	-0.034
-591.967	-200.000	-0.042	-0.303
-590.952	800.000	0.028	0.119
-589.938	328.873	-0.093	0.178
-588.923	-175.447	-0.122	0.003
-587.909	136.667	-0.244	0.319
-586.894	-53.636	0.346	0.158
-585.879	800.000	0.112	0.316
-584.865	77.825	-0.130	0.139
-583.850	303.365	-0.125	-0.231
-582.836	-7.437	0.202	0.136
-581.821	5.333	0.209	-0.154
-580.806	-54.752	0.115	-0.052
-579.792	800.000	-0.169	0.561
-578.777	-10.918	-0.182	-0.120
-577.763	129.658	-0.140	-0.179
-576.748	-200.000	-0.039	0.260
-575.733	44.619	0.155	-0.143
-574.719	-159.175	-0.123	0.007
-573.704	-35.754	-0.090	-0.049
-572.690	-138.218	0.093	0.010
-571.675	800.000	-0.072	-0.206
-570.661	-200.000	-0.068	0.364
-569.646	-90.714	-0.518	-0.149
-568.631	-50.031	0.185	-0.088
-567.617	-1.320	0.242	-0.171
-566.602	224.370	0.160	0.259
-565.588	769.525	0.132	-0.360
-564.573	82.719	-0.224	-0.243
-563.558	-98.125	0.246	0.063
-562.544	-200.000	-0.055	-0.345
-561.529	-200.000	0.009	-0.337
-560.515	-122.984	-0.158	0.025
-559.500	-132.847	0.034	-0.004
-558.485	-7.455	0.165	-0.111
-557.471	-200.000	-0.008	-0.230
-556.456	-133.300	-0.070	0.009
-555.442	800.000	0.088	-0.327
-554.427	58.329	-0.062	-0.061
-553.412	451.365	0.042	-0.093
-552.398	-200.000	-0.053	-0.369
-551.383	119.821	-0.206	-0.255
-550.369	648.387	-0.023	0.058
-549.354	-200.000	0.015	-0.167
-548.339	-200.000	0.006	0.128
-547.325	-200.000	-0.030	0.152
-546.310	800.000	-0.090	0.250
-545.296	68.568	0.210	0.215
-544.281	-162.311	0.241	-0.012
-543.266	-200.000	-0.021	0.124
-542.252	419.981	0.024	0.052
-541.237	-141.506	0.265	0.027
-540.223	-32.133	-0.143	0.080
-539.208	137.184	0.060	0.078
-538.193	76.317	-0.163	0.172
-537.179	-110.434	-0.404	0.084
-536.164	-48.250	-0.167	-0.080
-535.150	-32.227	-0.118	0.065
-534.135	-37.571	-0.186	-0.099
-533.121	800.000	0.130	0.380
-532.106	-120.286	0.294	-0.050
-531.091	800.000	-0.025	-0.081
-530.077	-54.623	0.071	-0.032
-529.062	-35.535	0.096	-0.052
-528.048	407.168	0.152	0.320
-527.033	-98.684	0.103	0.026
-526.018	-152.170	-0.264	-0.019
-525.004	-200.000	0.016	-0.209
-523.989	-30.723	-0.167	-0.094
-522.975	-200.000	-0.011	0.121
-521.960	144.171	0.140	0.187
-520.945	-117.679	0.192	-0.034
-519.931	103.046	-0.154	-0.180
-518.916	-200.000	-0.007	-0.160
-517.902	-135.883	-0.299	0.035
-516.887	-119.510	-0.288	0.050
-515.872	183.893	-0.018	0.027
-514.858	-200.000	0.036	0.196
-513.843	-154.076	-0.405	0.027
-512.829	10.398	0.223	-0.169
-511.814	-200.000	-0.018	-0.282
-510.799	-78.261	0.191	0.065
-509.785	63.187	-0.090	0.090
-508.770	-115.532	-0.240	0.045
-507.756	-82.946	-0.083	0.027
-506.741	-18.044	0.263	-0.164
-505.726	-158.191	-0.103	0.006
-504.712	-126.940	0.042	-0.006
-503.697	-29.359	0.191	0.109
-502.683	-200.000	0.067	0.562
-501.668	-13.416	0.182	0.117
-500.653	497.194	0.082	-0.188
-499.639	167.455	-0.169	-0.239
-498.624	10.649	0.118	0.090
-497.610	-140.731	-0.149	0.015
-496.595	-16.841	-0.143	-0.090
-495.581	665.461	-0.127	0.327
-494.566	135.910	0.133	-0.173
-493.551	179.355	-0.174	0.254
-492.537	800.000	0.071	0.226
-491.522	356.490	0.081	0.160
-490.508	265.919	-0.110	-0.192
-489.493	-87.475	0.248	-0.075
-488.478	800.000	0.056	0.195
-487.464	-102.130	-0.289	0.069
-486.449	30.863	-0.258	0.220
-485.435	-194.653	0.501	0.004
-484.420	-57.513	-0.205	-0.089
-483.405	800.000	-0.089	0.364
-482.391	133.711	-0.145	0.187
-481.376	-4.922	0.359	-0.246
-480.362	120.017	0.055	0.068
-479.347	800.000	0.075	-0.222
-478.332	-15.483	-0.311	-0.198
-477.318	310.839	-0.026	-0.049
-476.303	-96.719	-0.031	0.008
-475.289	162.517	-0.074	0.104
-474.274	-51.336	0.114	0.053
-473.259	2.382	-0.113	0.081
-472.245	367.765	-0.062	-0.125
-471.230	307.544	-0.090	0.168
-470.216	-19.562	0.312	0.192
-469.201	-67.309	-0.097	0.038
-468.186	-29.075	-0.261	-0.149
-467.172	-98.516	-0.333	0.085
-466.157	417.703	-0.059	-0.126
-465.143	-200.000	0.020	0.162
-464.128	51.334	-0.277	0.261
-463.113	13.866	-0.351	-0.272
-462.099	-200.000	-0.000	0.098
-461.084	-136.727	-0.136	0.016
-460.070	-108.556	-0.085	-0.018
-459.055	-50.543	-0.488	-0.229
-458.040	-90.876	0.343	-0.098
-457.026	-64.365	-0.311	-0.126
-456.011	-49.430	0.323	0.153
-454.997	-65.412	-0.268	0.107
-453.982	-165.181	0.134	-0.006
-452.968	-75.457	-0.285	-0.101
-451.953	800.000	-0.111	-0.334
-450.938	11.416	-0.199	0.152
-449.924	-158.057	-0.071	-0.004
-448.909	-134.067	-0.325	0.040
-447.895	156.718	0.015	0.020
-446.880	-27.169	-0.163	0.095
-445.865	-200.000	-0.007	-0.331
-444.851	472.408	0.037	0.084
-443.836	93.611	-0.070	-0.078
-442.822	-113.133	0.169	-0.033
-441.807	-46.531	-0.281	0.137
-440.792	11.587	-0.066	0.050
-439.778	-13.708	0.282	0.182
-438.763	337.903	0.106	0.204
-437.749	30.572	-0.131	0.111
-436.734	175.508	0.196	0.282
-435.719	258.370	0.090	0.154
-434.705	3.583	0.300	0.218
-433.690	124.669	-0.059	0.074
-432.676	-200.000	0.064	0.311
-431.661	-75.960	0.146	0.051
-430.646	-82.455	0.153	0.049
-429.632	-200.000	0.048	0.426
-428.617	-101.631	0.271	0.065
-427.603	-200.000	0.061	0.377
-426.588	-23.513	-0.171	0.102
-425.573	-200.000	0.028	-0.140
-424.559	10.602	0.295	-0.223
-423.544	-200.000	-0.051	0.232
-422.530	-47.929	0.205	0.098
-421.515	-147.527	-0.158	0.013
-420.500	164.797	-0.120	0.168
-419.486	-200.000	0.028	-0.293
-418.471	-45.775	-0.217	0.106
-417.457	-97.036	0.174	0.045
-416.442	83.271	0.317	-0.342
-415.428	-165.614	-0.173	0.007
-414.413	-20.280	-0.169	0.103
-413.398	-60.356	-0.161	0.068
-412.384	92.485	-0.087	0.097
-411.369	25.419	-0.016	-0.013
-410.355	-49.972	0.392	-0.184
-409.340	-200.000	-0.029	-0.154
-408.325	62.951	0.323	0.321
-407.311	800.000	-0.074	0.308
-406.296	26.104	-0.015	0.013
-405.282	-200.000	-0.075	-0.347
-404.267	792.127	0.126	-0.344
-403.252	69.137	0.280	0.285
-402.238	-54.216	0.311	0.140
-401.223	-48.004	0.392	0.188
-400.209	800.000	-0.100	-0.345
-399.194	413.860	0.088	0.186
-398.179	191.086	0.061	0.090
-397.165	597.329	0.128	-0.315
-396.150	-86.292	-0.136	0.042
-395.136	-142.184	-0.440	0.043
-394.121	251.863	-0.081	-0.137
-393.106	140.679	0.187	-0.245
-392.092	27.086	-0.251	0.209
-391.077	600.934	0.062	0.152
-390.063	78.638	-0.091	0.097
-389.048	-200.000	0.033	0.344
-388.033	11.328	0.080	-0.061
-387.019	-200.000	0.007	-0.069
-386.004	-71.612	-0.455	-0.169
-384.990	411.019	-0.073	-0.154
-383.975	453.276	-0.059	-0.129
-382.960	173.420	0.021	0.031
-381.946	800.000	-0.059	-0.241
-380.931	-100.545	0.245	0.060
-379.917	-131.112	-0.140	-0.018
-378.902	-11.923	-0.255	-0.166
-377.888	-94.262	0.300	-0.081
-376.873	-115.031	-0.315	0.059
-375.858	-200.000	0.040	0.302
-374.844	106.070	-0.095	0.112
-373.829	117.139	0.094	0.114
-372.815	800.000	0.023	0.075
-371.800	205.335	-0.105	-0.162
-370.785	-15.925	0.157	-0.099
-369.771	-86.379	-0.017	-0.005
-368.756	-13.736	-0.409	0.262
-367.742	-158.000	0.444	-0.026
-366.727	-24.865	-0.275	0.162
-365.712	-42.352	0.134	0.068
-364.698	-82.589	0.202	-0.065
-363.683	28.311	0.102	-0.085
-362.669	114.306	0.131	0.158
-361.654	-200.000	-0.023	0.138
-360.639	-110.004	0.101	-0.021
-359.625	65.321	0.065	0.065
-358.610	-80.809	0.054	-0.018
-357.596	-200.000	-0.003	0.016
-356.581	236.221	0.116	0.190
-355.566	-144.296	0.215	0.020
-354.552	22.906	-0.392	-0.319
-353.537	27.943	0.203	0.169
-352.523	-200.000	0.087	-0.446
-351.508	24.156	-0.325	-0.265
-350.493	47.779	-0.269	-0.249
-349.479	22.403	-0.106	0.086
-348.464	-200.000	-0.009	0.141
-347.450	348.297	0.155	-0.302
-346.435	-200.000	0.081	-0.513
-345.420	-133.528	0.109	-0.014
-344.406	27.818	-0.211	-0.176
-343.391	233.690	0.087	-0.142
-342.377	-35.661	-0.213	-0.115
-341.362	-181.318	-0.286	-0.006
-340.348	-200.000	0.007	-0.157
-339.333	134.910	0.036	0.047
-338.318	-200.000	-0.026	0.153
-337.304	800.000	0.088	-0.242
-336.289	-33.447	-0.051	0.028
-335.275	556.719	0.107	0.255
-334.260	-154.877	0.111	-0.007
-333.245	5.142	0.153	0.112
-332.231	-21.745	0.306	0.184
-331.216	335.195	0.102	-0.196
-330.202	-105.936	0.165	0.037
-329.187	57.464	-0.220	-0.213
-328.172	-200.000	-0.034	0.413
-327.158	12.621	0.187	-0.142
-326.143	800.000	0.080	-0.344
-325.129	69.347	-0.084	-0.086
-324.114	-200.000	0.012	-0.205
-323.099	289.700	0.195	-0.350
-322.085	-155.614	-0.353	0.022
-321.070	-15.674	0.422	0.266
-320.056	-147.523	-0.169	0.014
-319.041	-200.000	0.008	-0.116
-318.026	800.000	-0.009	0.030
-317.012	82.973	0.182	-0.196
-315.997	-200.000	0.055	0.381
-314.983	800.000	0.027	0.115
-313.968	151.226	-0.053	-0.071
-312.953	-21.207	0.152	-0.092
-311.939	-200.000	0.040	0.306
-310.924	-200.000	-0.024	0.225
-309.910	-31.589	0.085	0.047
-308.895	-95.968	0.100	-0.026
-307.880	-126.571	0.255	0.037
-306.866	278.220	0.115	0.203
-305.851	-21.785	0.218	-0.131
-304.837	278.884	-0.033	-0.059
-303.822	-119.196	0.115	0.020
-302.807	152.834	-0.084	-0.114
-301.793	-10.290	-0.226	-0.148
-300.778	-47.324	-0.358	-0.172
-299.764	-148.870	0.236	0.019
-298.749	-200.000	-0.043	-0.282
-297.735	-96.628	0.079	-0.020
-296.720	-200.000	0.009	0.119
-295.705	-111.219	-0.227	0.046
-294.691	-200.000	-0.006	0.197
-293.676	183.745	0.238	-0.347
-292.662	-9.122	-0.183	-0.121
-291.647	-53.086	0.179	0.081
-290.632	-57.797	0.332	0.144
-289.618	178.554	0.128	0.184
-288.603	-118.547	0.109	-0.019
-287.589	-200.000	0.057	0.249
-286.574	-200.000	0.015	0.093
-285.559	278.332	0.039	0.069
-284.545	-200.000	0.008	-0.171
-283.530	-58.746	-0.211	0.090
-282.516	800.000	-0.039	0.164
-281.501	-130.174	-0.269	-0.036
-280.486	-115.227	0.631	-0.118
-279.472	-200.000	0.007	-0.037
-278.457	-200.000	0.004	0.089
-277.443	-30.037	0.148	-0.083
-276.428	-200.000	-0.003	0.060
-275.413	-78.669	-0.245	-0.083
-274.399	-118.085	0.067	0.012
-273.384	1.623	0.229	-0.163
-272.370	135.311	0.182	-0.234
-271.355	-138.150	0.246	-0.027
-270.340	-112.638	0.293	0.058
-269.326	-200.000	0.015	0.127
-268.311	-139.992	-0.436	-0.045
-267.297	24.031	-0.049	0.040
-266.282	-87.036	0.228	-0.069
-265.267	479.536	0.117	0.262
-264.253	-20.356	0.507	-0.308
-263.238	197.411	-0.235	0.353
-262.224	-35.091	-0.523	0.282
-261.209	171.887	0.186	0.264
-260.195	-12.058	-0.402	0.260
-259.180	29.576	0.316	-0.266
-258.165	-200.000	0.002	0.086
-257.151	-6.529	-0.187	0.126
-256.136	191.644	0.282	0.419
-255.122	800.000	-0.093	-0.298
-254.107	-200.000	-0.080	-0.391
-253.092	-137.402	-0.276	-0.031
-252.078	-200.000	0.037	0.293
-251.063	-157.812	-0.144	-0.008
-250.049	183.156	-0.177	0.258
-249.034	18.016	-0.129	-0.102
-248.019	194.566	-0.128	0.191
-247.005	8.266	-0.164	0.121
-245.990	-2.247	-0.148	-0.103
-244.976	52.692	-0.262	0.246
-243.961	-59.932	0.214	-0.090
-242.946	358.248	0.130	0.256
-241.932	60.159	0.066	-0.064
-240.917	-159.759	-0.136	-0.007
-239.903	-200.000	0.088	0.454
-238.888	-85.538	0.198	0.061
-237.873	95.805	-0.168	-0.189
-236.859	-200.000	0.023	-0.126
-235.844	-200.000	-0.033	0.215
-234.830	-78.736	0.337	-0.113
-233.815	-200.000	-0.039	-0.239
-232.800	79.513	-0.076	0.080
-231.786	800.000	-0.053	-0.175
-230.771	10.738	0.263	0.198
-229.757	800.000	0.079	0.283
-228.742	-200.000	0.033	0.214
-227.727	-200.000	-0.035	0.205
-226.713	-200.000	-0.004	-0.212
-225.698	-103.795	0.446	0.103
-224.684	245.028	-0.148	-0.245
-223.669	-58.343	-0.122	-0.052
-222.655	107.319	-0.116	-0.136
-221.640	-108.614	-0.052	-0.011
-220.625	-51.913	0.268	-0.123
-219.611	-80.429	0.283	-0.093
-218.596	6.954	-0.156	0.114
-217.582	433.304	-0.124	-0.266
-216.567	36.852	0.164	-0.142
-215.552	-34.808	0.260	-0.140
-214.538	114.157	0.163	0.195
-213.523	-46.712	0.170	-0.082
-212.509	14.562	-0.182	-0.140
-211.494	42.684	0.275	0.246
-210.479	277.595	0.034	0.060
-209.465	123.836	-0.116	-0.143
-208.450	-200.000	0.026	-0.312
-207.436	54.513	-0.241	-0.229
-206.421	-142.288	-0.158	-0.015
-205.406	22.155	0.096	-0.077
-204.392	199.250	-0.149	-0.225
-203.377	-39.499	-0.162	0.083
-202.363	-200.000	-0.021	-0.136
-201.348	-47.410	0.065	-0.031
-200.333	-200.000	-0.030	0.285
-199.319	-200.000	0.017	-0.439
-198.304	-107.015	-0.183	-0.040
-197.290	114.722	0.242	0.290
-196.275	8.495	0.171	-0.127
-195.260	-113.330	0.104	0.020
-194.246	41.930	-0.219	-0.195
-193.231	800.000	-0.040	-0.115
-192.217	133.256	0.113	-0.144
-191.202	232.784	0.148	-0.239
-190.187	715.753	0.049	-0.129
-189.173	-5.442	-0.055	-0.037
-188.158	-165.865	-0.235	-0.010
-187.144	298.934	-0.021	0.039
-186.129	310.652	0.075	0.138
-185.114	-76.548	-0.122	0.042
-184.100	273.543	0.176	-0.305
-183.085	18.655	-0.059	-0.047
-182.071	-41.337	-0.126	0.064
-181.056	293.277	0.103	-0.185
-180.042	-58.939	0.212	0.090
-179.027	-85.130	0.446	0.137
-178.012	-173.579	-0.323	0.010
-176.998	22.302	0.090	0.072
-175.983	-155.504	0.286	0.018
-174.969	-20.058	-0.070	-0.043
-173.954	-118.819	-0.170	0.029
-172.939	-87.874	-0.287	0.085
-171.925	84.842	-0.083	-0.089
-170.910	-104.316	-0.078	-0.018
-169.896	800.000	0.061	-0.202
-168.881	-86.834	0.153	-0.046
-167.866	50.011	0.201	0.187
-166.852	-150.622	0.286	-0.021
-165.837	34.040	0.198	-0.169
-164.823	800.000	-0.010	0.035
-163.808	-200.000	0.033	0.467
-162.793	141.342	0.228	0.296
-161.779	-91.035	0.144	-0.041
-160.764	-200.000	-0.055	-0.247
-159.750	-28.670	-0.239	-0.135
-158.735	502.855	-0.080	0.182
-157.720	9.757	0.101	0.076
-156.706	800.000	-0.019	-0.081
-155.691	720.522	-0.097	0.254
-154.677	286.371	0.154	0.273
-153.662	135.947	0.050	-0.064
-152.647	22.909	0.255	0.206
-151.633	-104.679	-0.353	-0.080
-150.618	575.162	-0.005	0.012
-149.604	800.000	-0.054	-0.220
-148.589	-57.565	-0.169	0.073
-147.574	72.397	-0.211	-0.216
-146.560	-35.057	0.141	-0.075
-145.545	229.431	0.153	-0.245
-144.531	-200.000	-0.003	0.074
-143.516	-179.066	0.190	0.004
-142.502	-200.000	-0.043	0.215
-141.487	486.751	-0.118	-0.264
-140.472	-200.000	0.020	0.113
-139.458	286.966	-0.143	-0.253
-138.443	14.980	-0.220	0.169
-137.429	-200.000	-0.051	-0.347
-136.414	-200.000	0.047	-0.217
-135.399	13.278	-0.175	0.133
-134.385	656.259	-0.110	-0.276
-133.370	638.830	-0.056	-0.140
-132.356	8.416	0.141	0.104
-131.341	371.159	-0.112	0.223
-130.326	-200.000	-0.029	0.127
-129.312	-116.193	0.262	0.048
-128.297	-147.995	0.165	-0.013
-127.283	-35.106	0.143	0.076
-126.268	508.855	0.069	0.157
-125.253	-98.656	-0.110	0.027
-124.239	500.329	0.145	0.327
-123.224	-57.829	-0.379	-0.163
-122.210	212.493	-0.020	0.031
-121.195	473.366	-0.042	-0.093
-120.180	-7.751	0.196	0.130
-119.166	16.580	-0.267	-0.207
-118.151	-200.000	0.030	0.154
-117.137	623.216	0.028	0.068
-116.122	-51.578	-0.218	0.100
-115.107	-102.942	0.104	-0.024
-114.093	-36.900	-0.195	-0.102
-113.078	-108.888	0.080	-0.017
-112.064	264.345	0.012	-0.020
-111.049	363.323	0.070	-0.138
-110.034	327.011	-0.153	0.287
-109.020	77.657	0.305	-0.318
-108.005	-200.000	0.033	-0.601
-106.991	172.718	0.140	-0.198
-105.976	-63.188	-0.094	-0.038
-104.962	800.000	-0.030	0.090
-103.947	341.249	-0.169	0.323
-102.932	470.589	-0.108	0.237
-101.918	-200.000	-0.015	0.150
-100.903	800.000	-0.053	-0.155
-99.889	-200.000	0.026	-0.202
-98.874	235.859	-0.105	-0.171
-97.859	800.000	-0.166	0.535
-96.845	-129.611	-0.414	-0.056
-95.830	437.695	0.133	-0.285
-94.816	-200.000	-0.011	-0.237
-93.801	390.570	-0.178	0.363
-92.786	-200.000	0.005	-0.103
-91.772	-33.636	0.328	0.177
-90.757	-126.493	0.231	0.034
-89.743	-144.759	-0.441	-0.040
-88.728	800.000	0.030	0.114
-87.713	-200.000	0.048	0.425
-86.699	304.754	-0.140	0.255
-85.684	244.331	0.066	-0.108
-84.670	171.267	0.221	-0.311
-83.655	29.107	-0.302	-0.251
-82.640	-65.390	0.136	0.054
-81.626	-200.000	-0.028	-0.174
-80.611	82.847	0.209	0.223
-79.597	-108.099	0.218	0.046
-78.582	-111.866	-0.099	-0.020
-77.567	151.258	-0.105	-0.140
-76.553	800.000	0.090	0.274
-75.538	800.000	-0.018	-0.063
-74.524	156.313	0.134	0.181
-73.509	-107.122	0.244	-0.053
-72.494	138.639	0.159	0.204
-71.480	-72.920	-0.039	-0.014
-70.465	-42.437	-0.177	-0.089
-69.451	-81.838	-0.356	-0.114
-68.436	92.901	0.097	-0.108
-67.422	-26.117	0.188	0.108
-66.407	64.726	-0.044	0.044
-65.392	342.357	-0.140	0.269
-64.378	137.678	-0.161	0.207
-63.363	-30.949	-0.173	-0.096
-62.349	800.000	-0.083	0.317
-61.334	216.165	-0.869	-1.353
-60.319	99.290	0.676	0.766
-59.305	800.000	-0.359	-1.019
-58.290	166.244	0.979	1.358
-57.276	659.150	0.510	1.284
-56.261	-200.000	123.351	661.565
-55.246	439.249	1538.759	3288.671
-54.232	145.770	2694.233	3534.629
-53.217	89.259	2311.504	2520.985
-52.203	30.351	2061.934	1723.914
-51.188	25.522	1978.978	1611.326
-50.173	24.443	1961.772	1587.663
-49.159	42.442	2033.455	1809.787
-48.144	40.649	2046.839	1805.331
-47.130	25.927	1999.392	1631.356
-46.115	23.831	1988.112	1603.204
-45.100	23.815	1985.015	1600.500
-44.086	23.690	1983.370	1597.981
-43.071	23.611	1981.014	1595.315
-42.057	23.644	1979.231	1594.108
-41.042	23.694	1977.086	1592.764
-40.027	23.703	1974.677	1590.838
-39.013	23.715	1973.180	1589.680
-37.998	23.719	1971.112	1587.983
-36.984	23.700	1969.546	1586.491
-35.969	23.676	1967.566	1584.618
-34.954	23.767	1965.222	1583.478
-33.940	23.762	1964.441	1582.746
-32.925	23.777	1963.034	1581.678
-31.911	23.816	1961.280	1580.550
-30.896	23.845	1959.803	1579.553
-29.881	23.893	1958.317	1578.723
-28.867	23.938	1956.570	1577.653
-27.852	23.937	1954.704	1576.077
-26.838	23.896	1953.257	1574.480
-25.823	23.857	1951.236	1572.445
-24.809	23.922	1949.171	1571.295
-23.794	23.888	1947.848	1569.863
-22.779	23.916	1946.347	1568.842
-21.765	23.821	1944.663	1566.580
-20.750	23.919	1943.224	1566.221
-19.736	23.929	1941.776	1565.084
-18.721	23.913	1939.854	1563.329
-17.706	23.861	1938.411	1561.646
-16.692	23.782	1936.732	1559.545
-15.677	23.787	1934.972	1558.110
-14.663	23.725	1933.994	1556.718
-13.648	23.790	1932.800	1556.261
-12.633	23.795	1932.104	1555.679
-11.619	23.769	1929.792	1553.528
-10.604	23.884	1928.572	1553.489
-9.590	23.783	1926.879	1551.188
-8.575	23.709	1926.084	1549.841
-7.560	23.783	1925.161	1549.679
-6.546	23.752	1923.476	1547.987
-5.531	23.820	1922.431	1547.681
-4.517	23.777	1921.445	1546.454
-3.502	23.799	1919.747	1545.214
-2.487	23.794	1918.988	1544.498
-1.473	23.813	1917.548	1543.443
-0.458	23.819	1912.587	1539.441
0.556	21.954	1892.450	1510.401
1.571	17.553	1873.727	1457.741
2.586	13.617	1896.480	1441.145
3.600	12.784	1930.671	1459.621
4.615	12.730	1923.731	1453.770
5.629	9.837	1824.841	1354.663
6.644	3.814	1712.687	1223.730
7.659	0.502	1680.206	1174.664
8.673	0.194	1677.241	1170.099
9.688	0.211	1676.323	1169.483
10.702	0.246	1674.544	1168.408
11.717	0.029	1671.106	1164.231
12.731	0.434	1669.798	1166.348
13.746	5.183	1679.719	1210.047
14.761	12.500	1694.106	1277.326
15.775	16.373	1701.087	1312.624
16.790	16.698	1700.152	1314.309
17.804	15.846	1697.364	1305.431
18.819	14.884	1694.113	1295.364
19.834	14.375	1691.335	1289.188
20.848	14.040	1689.753	1285.282
21.863	13.827	1688.581	1282.632
22.877	13.615	1686.995	1279.673
23.892	13.458	1685.027	1276.857
24.907	13.285	1684.071	1274.684
25.921	13.270	1683.180	1273.788
26.936	13.243	1681.843	1272.453
27.950	13.278	1681.225	1272.141
28.965	13.301	1680.675	1271.791
29.980	13.353	1680.075	1271.626
30.994	13.428	1678.709	1271.052
32.009	13.453	1678.005	1270.598
33.023	13.478	1677.101	1269.993
34.038	13.476	1676.642	1269.516
35.053	13.481	1675.234	1268.377
36.067	13.441	1674.267	1267.224
37.082	13.476	1673.041	1266.456
38.096	13.437	1672.008	1265.262
39.111	13.517	1671.017	1265.013
40.126	13.391	1670.934	1263.874
41.140	13.422	1669.681	1263.051
42.155	13.322	1667.949	1260.865
43.169	13.339	1666.780	1260.001
44.184	13.323	1665.412	1258.734
45.199	13.284	1664.408	1257.571
46.213	13.247	1663.704	1256.646
47.228	13.316	1661.547	1255.424
48.242	13.277	1660.951	1254.572
49.257	13.397	1659.903	1254.577
50.271	13.375	1658.077	1252.920
51.286	13.295	1657.380	1251.676
52.301	13.431	1655.761	1251.368
53.315	13.360	1654.449	1249.729
54.330	13.431	1652.766	1248.884
55.344	13.303	1651.480	1246.839
56.359	13.184	1650.200	1244.867
57.374	13.283	1648.962	1244.566
58.388	13.268	1647.615	1243.324
59.403	13.233	1646.343	1241.996
60.417	13.187	1644.808	1240.382
61.432	13.254	1643.761	1239.983
62.447	13.234	1642.274	1238.605
63.461	13.157	1641.361	1237.227
64.476	13.300	1640.065	1237.212
65.490	13.182	1638.926	1235.361
66.505	13.192	1637.764	1234.450
67.520	13.095	1637.259	1233.234
68.534	13.282	1635.930	1233.520
69.549	13.265	1634.460	1232.176
70.563	13.242	1633.223	1230.964
71.578	13.305	1631.419	1229.961
72.593	13.237	1630.843	1228.915
73.607	13.116	1630.341	1227.527
74.622	13.150	1628.505	1226.290
75.636	13.198	1626.978	1225.387
76.651	13.115	1627.085	1224.742
77.666	13.126	1626.194	1224.050
78.680	13.090	1624.919	1222.716
79.695	13.167	1623.825	1222.353
80.709	13.142	1623.028	1221.455
81.724	13.185	1622.050	1220.935
82.739	13.293	1621.198	1220.977
83.753	13.218	1620.497	1219.791
84.768	13.270	1619.248	1219.123
85.782	13.362	1618.397	1219.056
86.797	13.410	1617.392	1218.541
87.812	13.421	1616.340	1217.727
88.826	13.282	1615.494	1215.959
89.841	13.289	1614.534	1215.175
90.855	13.381	1613.234	1214.768
91.870	13.351	1612.334	1213.760
92.884	13.331	1611.511	1212.888
93.899	13.406	1610.117	1212.281
94.914	13.453	1609.264	1211.880
95.928	13.507	1607.950	1211.174
96.943	13.479	1606.399	1209.695
97.957	13.385	1605.274	1208.056
98.972	13.374	1603.962	1206.882
99.987	13.303	1602.513	1205.169
101.001	13.453	1600.393	1204.559
102.016	13.407	1598.873	1202.973
103.030	13.382	1597.576	1201.706
104.045	13.373	1596.831	1200.976
105.060	13.401	1595.393	1199.992
106.074	13.443	1593.840	1199.021
107.089	13.371	1592.224	1197.181
108.103	13.285	1590.516	1195.168
109.118	13.174	1589.310	1193.355
110.133	13.206	1587.784	1192.335
111.147	13.235	1586.639	1191.572
112.162	13.260	1585.115	1190.504
113.176	13.177	1583.817	1188.827
114.191	13.272	1582.425	1188.360
115.206	13.373	1581.288	1188.125
116.220	13.300	1580.564	1186.955
117.235	13.315	1578.647	1185.517
118.249	13.291	1577.773	1184.582
119.264	13.319	1575.700	1183.122
120.279	13.378	1574.245	1182.345
121.293	13.357	1572.830	1181.033
122.308	13.261	1571.284	1179.077
123.322	13.222	1570.050	1177.774
124.337	13.296	1568.562	1177.080
125.352	13.253	1567.469	1175.846
126.366	13.223	1565.965	1174.405
127.381	13.200	1565.045	1173.448
128.395	13.175	1564.012	1172.389
129.410	13.292	1562.065	1171.652
130.424	13.281	1561.124	1170.765
131.439	13.171	1560.273	1169.246
132.454	13.314	1558.353	1168.718
133.468	13.333	1556.746	1167.544
134.483	13.328	1555.105	1166.169
135.497	13.276	1554.249	1165.064
136.512	13.305	1552.988	1164.216
137.527	13.303	1551.472	1162.962
138.541	13.320	1550.249	1162.060
139.556	13.406	1548.954	1161.597
140.570	13.363	1547.446	1160.057
141.585	13.378	1546.247	1159.163
142.600	13.372	1545.359	1158.353
143.614	13.405	1543.881	1157.369
144.629	13.524	1542.602	1157.142
145.643	13.502	1541.484	1156.050
146.658	13.514	1539.882	1154.831
147.673	13.554	1538.536	1153.998
148.687	13.547	1536.993	1152.686
149.702	13.476	1535.876	1151.252
150.716	13.579	1533.969	1150.437
151.731	13.445	1532.805	1148.535
152.746	13.394	1531.476	1147.084
153.760	13.397	1530.265	1146.097
154.775	13.476	1528.652	1145.334
155.789	13.585	1527.162	1144.865
156.804	13.594	1526.143	1144.065
157.819	13.480	1524.821	1142.186
158.833	13.594	1523.892	1142.171
159.848	13.645	1522.647	1141.488
160.862	13.631	1521.085	1140.126
161.877	13.754	1519.718	1139.843
162.892	13.701	1518.489	1138.454
163.906	13.614	1517.437	1136.970
164.921	13.566	1516.154	1135.582
165.935	13.581	1515.005	1134.720
166.950	13.626	1513.572	1133.858
167.964	13.692	1512.081	1133.087
168.979	13.649	1511.670	1132.385
169.994	13.740	1510.493	1132.023
171.008	13.704	1509.920	1131.253
172.023	13.588	1508.855	1129.559
173.037	13.734	1507.314	1129.300
174.052	13.678	1506.703	1128.366
175.067	13.788	1505.271	1127.937
176.081	13.774	1504.472	1127.147
177.096	13.636	1503.213	1125.165
178.110	13.679	1501.687	1124.215
179.125	13.679	1500.523	1123.243
180.140	13.816	1499.513	1123.319
181.154	13.780	1498.293	1122.063
182.169	13.799	1497.315	1121.355
183.183	13.806	1495.990	1120.314
184.198	13.917	1494.771	1120.053
185.213	13.875	1493.922	1119.028
186.227	13.919	1492.299	1118.010
187.242	13.885	1491.470	1117.066
188.256	13.961	1490.274	1116.581
189.271	13.982	1489.187	1115.806
190.286	14.041	1488.307	1115.448
191.300	13.951	1487.428	1114.086
192.315	13.935	1485.646	1112.545
193.329	13.864	1484.880	1111.400
194.344	13.754	1484.147	1110.011
195.359	13.876	1482.459	1109.466
196.373	13.874	1481.615	1108.723
197.388	13.922	1480.718	1108.274
198.402	13.912	1479.436	1107.152
199.417	14.025	1478.415	1107.045
200.432	13.990	1477.586	1106.090
201.446	14.162	1476.299	1106.176
202.461	14.140	1474.682	1104.720
203.475	14.114	1473.983	1103.924
204.490	14.133	1472.930	1103.161
205.504	14.231	1471.802	1102.871
206.519	14.107	1471.082	1101.412
207.534	14.114	1469.612	1100.258
208.548	14.075	1468.406	1099.003
209.563	14.166	1466.681	1098.218
210.577	14.086	1466.466	1097.430
211.592	14.228	1464.991	1097.167
212.607	14.111	1464.987	1096.291
213.621	14.235	1464.159	1096.395
214.636	14.268	1463.061	1095.691
215.650	14.144	1461.952	1093.945
216.665	14.263	1461.125	1094.016
217.680	14.272	1460.042	1093.166
218.694	14.256	1459.886	1092.849
219.709	14.379	1458.595	1092.593
220.723	14.363	1457.641	1091.673
221.738	14.363	1456.833	1090.973
222.753	14.402	1455.774	1090.339
223.767	14.343	1454.664	1089.027
224.782	14.437	1453.435	1088.623
225.796	14.390	1453.310	1088.126
226.811	14.513	1451.594	1087.545
227.826	14.540	1451.310	1087.417
228.840	14.466	1450.246	1086.038
229.855	14.453	1449.289	1085.140
230.869	14.377	1448.414	1083.896
231.884	14.512	1447.135	1083.719
232.899	14.518	1445.889	1082.727
233.913	14.481	1444.992	1081.724
234.928	14.478	1443.773	1080.692
235.942	14.457	1442.546	1079.545
236.957	14.419	1441.824	1078.662
237.972	14.391	1440.673	1077.525
238.986	14.465	1439.193	1076.803
240.001	14.472	1438.291	1076.075
241.015	14.621	1436.976	1075.956
242.030	14.423	1436.161	1073.978
243.045	14.595	1435.029	1074.144
244.059	14.590	1433.884	1073.156
245.074	14.625	1433.644	1073.110
246.088	14.703	1432.344	1072.540
247.103	14.621	1432.173	1071.794
248.117	14.698	1431.257	1071.508
249.132	14.607	1430.604	1070.337
250.147	14.726	1429.599	1070.252
251.161	14.738	1429.186	1069.930
252.176	14.838	1428.289	1069.802
253.190	14.892	1427.203	1069.237
254.205	14.913	1426.708	1068.908
255.220	14.891	1425.790	1067.988
256.234	14.939	1424.821	1067.470
257.249	15.035	1423.854	1067.266
258.263	14.984	1422.798	1066.054
259.278	15.057	1421.828	1065.694
260.293	14.985	1421.743	1065.083
261.307	15.010	1420.660	1064.330
262.322	15.023	1419.494	1063.446
263.336	15.112	1419.350	1063.814
264.351	15.046	1418.167	1062.413
265.366	15.181	1416.446	1061.884
266.380	15.177	1415.829	1061.304
267.395	15.185	1415.034	1060.664
268.409	15.241	1414.008	1060.155
269.424	15.243	1412.683	1059.078
270.439	15.155	1412.285	1058.134
271.453	15.152	1411.524	1057.449
272.468	15.125	1410.286	1056.258
273.482	15.158	1410.054	1056.199
274.497	15.129	1409.106	1055.215
275.512	15.160	1407.782	1054.325
276.526	15.179	1407.222	1053.931
277.541	15.116	1406.191	1052.669
278.555	15.189	1405.291	1052.360
279.570	15.222	1404.677	1052.013
280.585	15.257	1403.675	1051.392
281.599	15.287	1402.613	1050.692
282.614	15.412	1401.276	1050.378
283.628	15.337	1400.844	1049.489
284.643	15.349	1399.517	1048.482
285.657	15.372	1398.493	1047.760
286.672	15.363	1397.489	1046.861
287.687	15.449	1396.569	1046.617
288.701	15.363	1395.453	1045.153
289.716	15.416	1394.616	1044.762
290.730	15.403	1394.062	1044.177
291.745	15.493	1393.113	1043.931
292.760	15.469	1391.996	1042.852
293.774	15.407	1391.438	1041.957
294.789	15.541	1389.850	1041.509
295.803	15.416	1389.442	1040.333
296.818	15.616	1388.392	1040.694
297.833	15.508	1387.289	1039.105
298.847	15.501	1386.731	1038.557
299.862	15.530	1385.417	1037.660
300.876	15.548	1384.523	1037.004
301.891	15.608	1383.564	1036.569
302.906	15.598	1382.983	1035.978
303.920	15.628	1382.317	1035.574
304.935	15.679	1381.108	1034.891
305.949	15.760	1380.925	1035.162
306.964	15.711	1380.055	1034.111
307.979	15.720	1378.930	1033.235
308.993	15.729	1377.993	1032.494
310.008	15.760	1376.941	1031.805
311.022	15.809	1376.028	1031.332
312.037	15.706	1375.227	1030.010
313.052	15.751	1374.384	1029.563
314.066	15.752	1373.218	1028.605
315.081	15.736	1372.315	1027.737
316.095	15.708	1370.898	1026.416
317.110	15.710	1370.104	1025.744
318.125	15.749	1369.019	1025.075
319.139	15.769	1368.073	1024.400
320.154	15.749	1367.250	1023.573
321.168	15.752	1366.498	1022.938
322.183	15.691	1365.773	1021.930
323.197	15.742	1364.715	1021.361
324.212	15.784	1363.279	1020.451
325.227	15.908	1362.680	1020.665
326.241	15.876	1361.834	1019.743
327.256	15.926	1360.647	1019.070
328.270	15.867	1359.846	1018.022
329.285	15.967	1358.746	1017.713
330.300	15.908	1358.369	1016.983
331.314	15.850	1357.924	1016.209
332.329	15.889	1357.005	1015.665
333.343	15.897	1355.815	1014.734
334.358	16.022	1354.933	1014.739
335.373	16.017	1353.933	1013.867
336.387	15.965	1353.419	1013.082
337.402	16.141	1352.480	1013.350
338.416	16.034	1352.225	1012.424
339.431	15.977	1351.270	1011.278
340.446	16.116	1350.436	1011.397
341.460	16.155	1349.460	1010.808
342.475	16.157	1348.456	1009.983
343.489	16.193	1347.438	1009.343
344.504	16.242	1346.842	1009.104
345.519	16.317	1345.434	1008.406
346.533	16.356	1344.481	1007.832
347.548	16.276	1343.994	1006.903
348.562	16.445	1342.752	1006.892
349.577	16.422	1342.192	1006.246
350.592	16.368	1341.681	1005.450
351.606	16.330	1341.031	1004.648
352.621	16.279	1339.807	1003.340
353.635	16.303	1338.490	1002.405
354.650	16.275	1337.899	1001.708
355.665	16.253	1336.581	1000.502
356.679	16.255	1335.800	999.843
357.694	16.366	1334.311	999.296
358.708	16.388	1333.612	998.815
359.723	16.509	1331.976	998.216
360.738	16.541	1330.942	997.540
361.752	16.529	1330.174	996.806
362.767	16.439	1328.932	995.257
363.781	16.444	1328.128	994.594
364.796	16.520	1327.318	994.348
365.810	16.471	1327.372	994.016
366.825	16.568	1326.285	993.681
367.840	16.460	1325.479	992.353
368.854	16.565	1324.986	992.517
369.869	16.570	1323.978	991.699
370.883	16.628	1323.365	991.494
371.898	16.694	1322.298	990.991
372.913	16.598	1321.584	989.808
373.927	16.592	1321.359	989.515
374.942	16.689	1320.390	989.272
375.956	16.707	1319.711	988.779
376.971	16.730	1318.577	987.979
377.986	16.782	1317.453	987.353
379.000	16.774	1316.740	986.684
380.015	16.697	1316.447	985.928
381.029	16.855	1315.264	985.871
382.044	16.789	1314.932	985.156
383.059	16.822	1314.174	984.687
384.073	16.912	1313.425	984.565
385.088	16.866	1312.990	983.882
386.102	16.892	1312.050	983.245
387.117	17.040	1310.895	983.146
388.132	16.962	1310.363	982.207
389.146	16.914	1309.708	981.356
390.161	16.970	1308.783	980.900
391.175	16.926	1308.002	979.974
392.190	16.878	1307.241	979.039
393.205	16.989	1306.079	978.720
394.219	17.081	1305.135	978.458
395.234	17.071	1303.788	977.303
396.248	17.009	1302.513	975.907
397.263	16.984	1301.271	974.743
398.278	17.006	1300.316	974.071
399.292	16.976	1299.381	973.109
400.307	16.947	1298.618	972.286
401.321	16.949	1297.357	971.267
402.336	16.977	1296.001	970.328
403.350	17.036	1295.170	969.959
404.365	16.993	1294.376	969.031
405.380	16.958	1293.704	968.240
406.394	16.992	1292.721	967.612
407.409	17.065	1292.293	967.625
408.423	17.150	1291.449	967.390
409.438	17.236	1290.462	967.057
410.453	17.174	1289.812	966.131
411.467	17.289	1289.122	966.184
412.482	17.376	1288.304	965.975
413.496	17.285	1288.050	965.184
414.511	17.319	1287.149	964.617
415.526	17.408	1286.375	964.457
416.540	17.368	1285.828	963.734
417.555	17.433	1284.970	963.373
418.569	17.405	1284.111	962.484
419.584	17.381	1284.145	962.289
420.599	17.433	1283.162	961.763
421.613	100.075	1359.634	1487.258
422.628	97.852	1370.697	1487.332
