DTS Sentinel unit serial number:	SN413079Multiplexer serial number:	ORYXHardware model number:	OX4-SRSoftware version number:	ORYX F/W v4.00 Oryx Data Collector v3.7.2.0data status	okinstallation	princeton_trtdifferential loss correction	single-endedforward channel	channel 4reverse channel	N/Adate	2019/09/13time	23:45:34forward acquisition time	60.00reverse acquisition time	0.00gamma	496.2192k internal	0.2323k external	0.2323temperature offset calibration	1.0136default loss term (dB/km)	0.3790temperature slope calibration	1.0000multiplexer offset coefficient	1.0000multiplexer slope coefficient	1.0000fibre end	0.00T internal ref (°C)	26.62T ext. ref 1 (°C)	3.16T ext. ref 2 (°C)	20.93length (m)	temperature (°C)	Stokes	anti-Stokes-747.200	21.409	-0.009	-0.008
-746.185	119.423	-0.152	0.190
-745.171	386.613	0.087	-0.181
-744.156	-200.000	0.011	-0.189
-743.142	151.443	0.048	-0.065
-742.127	-144.420	0.052	0.005
-741.112	800.000	0.011	0.050
-740.098	53.950	-0.116	0.112
-739.083	-53.669	0.104	0.048
-738.069	-51.359	-0.379	0.179
-737.054	-200.000	0.030	0.192
-736.039	197.176	-0.305	-0.469
-735.025	4.309	-0.209	-0.154
-734.010	800.000	-0.041	-0.167
-732.996	-100.759	-0.257	0.064
-731.981	-200.000	0.061	-0.275
-730.966	-127.700	-0.223	0.033
-729.952	199.233	0.168	-0.260
-728.937	-127.007	-0.186	-0.028
-727.923	-91.778	-0.044	-0.013
-726.908	-191.983	-0.233	0.002
-725.894	-16.031	-0.042	-0.027
-724.879	-83.171	-0.384	0.125
-723.864	-200.000	0.025	-0.187
-722.850	186.641	-0.093	0.140
-721.835	98.257	0.116	0.135
-720.821	94.382	0.084	-0.096
-719.806	29.430	-0.153	-0.131
-718.791	-106.472	-0.378	0.085
-717.777	220.822	-0.158	-0.256
-716.762	8.730	-0.383	0.291
-715.748	79.817	-0.168	0.182
-714.733	158.587	-0.242	-0.339
-713.718	393.363	0.013	0.028
-712.704	287.985	-0.030	-0.054
-711.689	-46.173	-0.147	-0.073
-710.675	-135.011	-0.107	-0.013
-709.660	-57.748	0.264	-0.117
-708.645	-178.532	0.214	-0.005
-707.631	-200.000	-0.009	0.050
-706.616	3.930	0.134	-0.099
-705.602	-170.693	0.217	-0.008
-704.587	-24.859	-0.431	0.258
-703.572	-0.156	-0.305	0.219
-702.558	122.693	0.098	-0.124
-701.543	-147.213	-0.059	-0.005
-700.529	-110.270	-0.117	-0.025
-699.514	-97.805	0.177	0.046
-698.499	83.178	0.428	0.470
-697.485	699.046	-0.058	-0.153
-696.470	-85.672	-0.127	-0.040
-695.456	56.980	0.118	-0.115
-694.441	-200.000	0.009	0.131
-693.426	-35.816	-0.071	0.039
-692.412	800.000	0.123	-0.408
-691.397	800.000	-0.088	-0.303
-690.383	206.110	-0.098	-0.153
-689.368	-28.431	-0.246	-0.143
-688.354	-169.220	0.142	-0.005
-687.339	-37.508	0.020	-0.011
-686.324	-200.000	-0.029	0.156
-685.310	-2.817	-0.032	-0.022
-684.295	-100.216	0.187	-0.047
-683.281	8.446	-0.274	0.208
-682.266	-119.831	-0.188	-0.033
-681.251	123.938	-0.135	0.170
-680.237	52.020	-0.257	-0.247
-679.222	37.675	-0.192	0.172
-678.208	-168.385	-0.178	0.007
-677.193	20.375	0.143	-0.117
-676.178	-200.000	-0.055	-0.301
-675.164	-19.557	-0.429	-0.268
-674.149	-158.347	-0.067	0.004
-673.135	-200.000	-0.012	0.076
-672.120	-135.968	-0.240	-0.028
-671.105	-200.000	0.026	-0.131
-670.091	-74.723	0.401	-0.145
-669.076	340.559	0.124	-0.244
-668.062	-81.677	-0.182	0.060
-667.047	178.783	-0.132	-0.195
-666.032	-163.979	0.391	-0.018
-665.018	-200.000	-0.017	-0.079
-664.003	-133.914	0.439	0.055
-662.989	-56.619	0.289	0.129
-661.974	199.058	0.066	0.101
-660.959	-69.650	0.255	-0.098
-659.945	635.068	-0.077	-0.197
-658.930	-132.463	0.153	-0.020
-657.916	27.701	-0.261	0.221
-656.901	11.050	0.172	0.133
-655.886	228.049	-0.186	-0.305
-654.872	421.356	0.179	-0.386
-653.857	661.033	-0.058	-0.150
-652.843	42.907	0.104	0.095
-651.828	-120.060	-0.269	-0.046
-650.814	800.000	0.020	-0.067
-649.799	800.000	-0.039	-0.165
-648.784	109.173	-0.111	0.134
-647.770	239.823	-0.103	-0.173
-646.755	-50.051	-0.096	0.046
-645.741	-159.669	-0.044	0.002
-644.726	19.999	-0.248	0.201
-643.711	-147.750	-0.230	-0.019
-642.697	118.210	0.232	-0.288
-641.682	800.000	-0.065	-0.236
-640.668	-101.771	-0.162	0.040
-639.653	524.897	0.077	0.181
-638.638	-89.639	-0.048	0.014
-637.624	-3.519	-0.241	0.169
-636.609	-69.900	0.063	0.024
-635.595	49.256	0.439	-0.415
-634.580	-200.000	0.026	-0.183
-633.565	73.239	-0.269	-0.283
-632.551	800.000	0.022	0.061
-631.536	-90.665	-0.308	-0.089
-630.522	-96.556	-0.423	0.112
-629.507	-141.012	0.140	-0.014
-628.492	-38.812	-0.402	0.213
-627.478	-85.620	-0.103	0.032
-626.463	-200.000	0.013	0.149
-625.449	-36.413	0.191	0.103
-624.434	2.541	0.174	-0.127
-623.419	32.025	0.055	0.048
-622.405	-22.426	0.337	-0.205
-621.390	205.669	-0.125	0.196
-620.376	-112.185	-0.148	-0.030
-619.361	105.807	-0.095	0.113
-618.346	-200.000	-0.035	0.230
-617.332	109.253	-0.147	0.177
-616.317	33.042	0.145	0.126
-615.303	-98.746	0.109	-0.028
-614.288	-121.269	-0.220	-0.037
-613.273	-6.622	-0.098	0.067
-612.259	15.016	0.198	-0.156
-611.244	-4.098	-0.151	-0.105
-610.230	9.383	-0.198	-0.151
-609.215	800.000	0.091	-0.345
-608.201	-71.424	-0.155	-0.058
-607.186	800.000	0.062	0.195
-606.171	-117.234	-0.107	0.020
-605.157	19.896	-0.211	-0.171
-604.142	-156.892	-0.433	0.027
-603.128	7.519	0.138	-0.104
-602.113	-87.620	0.275	0.083
-601.098	1.585	-0.231	0.167
-600.084	-71.393	-0.231	0.087
-599.069	395.263	-0.090	-0.187
-598.055	91.876	0.057	0.064
-597.040	-104.587	-0.094	0.022
-596.025	800.000	-0.069	-0.208
-595.011	105.271	-0.084	-0.099
-593.996	-200.000	-0.009	-0.063
-592.982	302.325	-0.129	-0.239
-591.967	-80.508	0.219	0.073
-590.952	304.942	0.050	0.093
-589.938	-148.712	-0.284	-0.023
-588.923	277.398	-0.016	-0.029
-587.909	48.436	0.079	0.074
-586.894	-33.957	-0.088	-0.049
-585.879	254.042	-0.071	0.123
-584.865	127.015	-0.186	-0.237
-583.850	800.000	-0.032	-0.089
-582.836	-1.882	-0.010	-0.007
-581.821	-200.000	0.033	-0.529
-580.806	-200.000	-0.077	0.410
-579.792	-19.645	-0.085	-0.053
-578.777	-134.197	0.204	0.025
-577.763	800.000	0.020	-0.073
-576.748	-200.000	0.020	-0.260
-575.733	489.842	0.063	-0.143
-574.719	-178.729	-0.403	0.009
-573.704	-105.139	0.178	-0.041
-572.690	-98.483	0.161	0.041
-571.675	257.339	-0.044	-0.076
-570.661	276.699	0.075	0.133
-569.646	-121.993	0.138	-0.023
-568.631	77.939	-0.061	-0.066
-567.617	-94.876	0.169	0.046
-566.602	217.059	0.209	-0.333
-565.588	800.000	0.072	0.251
-564.573	30.450	0.198	-0.169
-563.558	-118.029	-0.010	-0.002
-562.544	-108.868	0.145	0.031
-561.529	52.880	-0.069	-0.066
-560.515	-27.089	0.174	0.102
-559.500	-200.000	0.002	-0.240
-558.485	800.000	-0.046	-0.145
-557.471	-90.403	-0.160	0.047
-556.456	-200.000	-0.059	0.341
-555.442	-200.000	-0.020	-0.177
-554.427	-31.179	0.123	-0.070
-553.412	701.067	-0.038	-0.100
-552.398	50.754	-0.205	-0.194
-551.383	410.118	-0.006	-0.013
-550.369	33.615	0.141	-0.123
-549.354	800.000	0.036	0.112
-548.339	-67.389	-0.074	-0.029
-547.325	78.976	-0.403	0.432
-546.310	320.265	0.077	-0.147
-545.296	-101.622	-0.260	-0.063
-544.281	130.528	0.175	-0.225
-543.266	800.000	-0.105	0.332
-542.252	-122.869	-0.032	0.005
-541.237	-11.847	0.320	0.210
-540.223	-100.804	-0.309	0.076
-539.208	299.021	0.072	-0.133
-538.193	-143.178	-0.033	0.003
-537.179	-34.160	-0.247	-0.136
-536.164	-8.365	0.413	0.278
-535.150	-200.000	-0.048	-0.250
-534.135	59.444	-0.132	0.130
-533.121	-94.155	-0.277	0.076
-532.106	-7.563	0.082	0.056
-531.091	-158.051	0.219	-0.013
-530.077	-145.554	0.192	0.017
-529.062	605.713	0.126	-0.315
-528.048	-200.000	-0.006	-0.171
-527.033	800.000	-0.143	-0.429
-526.018	85.220	-0.165	0.181
-525.004	205.780	0.150	-0.234
-523.989	-44.543	-0.045	-0.022
-522.975	-135.627	0.066	-0.008
-521.960	-200.000	0.016	0.192
-520.945	-147.751	0.019	0.002
-519.931	420.514	-0.076	-0.162
-518.916	342.023	0.038	-0.075
-517.902	178.655	0.040	-0.058
-516.887	800.000	-0.049	-0.142
-515.872	521.924	0.083	0.195
-514.858	1.455	-0.161	-0.116
-513.843	-200.000	-0.140	-0.000
-512.829	-44.393	-0.070	-0.035
-511.814	253.602	-0.028	0.047
-510.799	-200.000	0.015	0.076
-509.785	268.032	0.060	-0.106
-508.770	70.400	0.074	0.076
-507.756	46.539	-0.061	0.057
-506.741	1.591	0.122	-0.088
-505.726	-70.412	-0.429	-0.163
-504.712	-107.002	-0.094	-0.021
-503.697	139.277	-0.159	-0.210
-502.683	-41.478	0.151	-0.078
-501.668	212.838	0.069	0.109
-500.653	-104.807	-0.203	-0.047
-499.639	310.427	0.250	-0.468
-498.624	-200.000	-0.013	-0.090
-497.610	307.035	0.038	0.070
-496.595	9.639	0.342	-0.259
-495.581	800.000	-0.030	-0.089
-494.566	-13.250	-0.214	-0.139
-493.551	-39.994	-0.206	0.107
-492.537	-200.000	-0.036	0.226
-491.522	-73.155	0.098	0.036
-490.508	94.456	-0.156	-0.177
-489.493	-190.612	-0.271	-0.003
-488.478	63.637	-0.154	-0.154
-487.464	-200.000	0.040	0.180
-486.449	39.541	0.078	0.070
-485.435	-83.972	-0.318	-0.101
-484.420	-145.180	-0.216	-0.020
-483.405	-30.061	0.446	0.254
-482.391	631.676	0.027	0.067
-481.376	510.859	-0.090	0.208
-480.362	-115.777	-0.315	0.059
-479.347	-92.155	-0.016	-0.004
-478.332	-146.490	0.123	-0.011
-477.318	242.700	-0.180	-0.302
-476.303	66.044	0.085	0.086
-475.289	44.689	-0.239	0.219
-474.274	-200.000	0.027	-0.153
-473.259	-192.257	-0.150	-0.001
-472.245	-89.503	-0.115	0.034
-471.230	-200.000	0.040	-0.197
-470.216	110.920	0.169	0.203
-469.201	331.352	-0.055	-0.105
-468.186	32.326	-0.092	-0.079
-467.172	-17.954	0.108	-0.068
-466.157	-200.000	-0.029	-0.257
-465.143	-101.132	-0.192	0.047
-464.128	-28.987	-0.071	0.040
-463.113	398.528	-0.111	0.231
-462.099	345.381	0.019	-0.038
-461.084	-65.517	0.222	-0.089
-460.070	0.390	0.056	-0.040
-459.055	158.854	-0.075	-0.104
-458.040	14.348	0.175	-0.136
-457.026	-15.084	0.194	0.124
-456.011	160.143	0.115	0.159
-454.997	251.246	0.067	-0.114
-453.982	-107.465	-0.149	-0.033
-452.968	63.048	-0.295	-0.295
-451.953	-121.633	-0.082	0.014
-450.938	-200.000	0.066	0.350
-449.924	119.878	-0.069	0.086
-448.909	-78.107	-0.068	-0.023
-447.895	-200.000	-0.002	0.048
-446.880	-149.677	0.099	-0.008
-445.865	-189.249	-0.175	0.002
-444.851	-200.000	0.000	0.053
-443.836	-144.288	-0.131	-0.012
-442.822	2.666	0.175	0.126
-441.807	335.490	0.116	-0.225
-440.792	186.880	-0.344	0.512
-439.778	-60.991	0.233	0.098
-438.763	-200.000	-0.009	-0.294
-437.749	-200.000	-0.075	-0.381
-436.734	127.688	-0.367	-0.466
-435.719	-200.000	-0.034	-0.155
-434.705	-200.000	-0.012	-0.190
-433.690	-200.000	-0.010	0.156
-432.676	221.042	0.173	0.276
-431.661	361.588	0.044	-0.089
-430.646	369.993	-0.213	0.431
-429.632	90.380	0.120	0.134
-428.617	-200.000	0.018	-0.115
-427.603	3.534	-0.175	0.128
-426.588	-2.797	-0.128	0.090
-425.573	-100.273	0.207	-0.051
-424.559	32.837	-0.192	-0.166
-423.544	-154.522	0.136	0.009
-422.530	-70.695	-0.128	0.048
-421.515	-200.000	-0.017	0.297
-420.500	263.395	0.233	0.405
-419.486	-200.000	0.019	-0.102
-418.471	-110.349	-0.114	-0.024
-417.457	238.658	0.090	0.150
-416.442	-188.372	0.300	0.004
-415.428	391.908	-0.112	0.232
-414.413	28.864	-0.273	0.230
-413.398	800.000	-0.048	0.152
-412.384	730.548	0.065	-0.173
-411.369	-200.000	-0.325	0.001
-410.355	-32.911	-0.231	0.128
-409.340	-56.673	-0.165	-0.073
-408.325	372.766	-0.063	-0.128
-407.311	565.204	0.081	0.196
-406.296	185.704	-0.040	-0.059
-405.282	651.183	-0.043	0.111
-404.267	5.067	0.241	0.177
-403.252	800.000	0.047	-0.145
-402.238	-200.000	-0.012	0.203
-401.223	94.413	-0.090	-0.102
-400.209	-62.401	-0.132	0.055
-399.194	-200.000	-0.019	0.242
-398.179	69.454	-0.165	0.169
-397.165	81.281	-0.118	0.127
-396.150	128.060	-0.216	-0.273
-395.136	18.659	-0.099	-0.079
-394.121	-72.955	-0.091	0.033
-393.106	-93.912	-0.208	-0.057
-392.092	-134.679	-0.152	-0.018
-391.077	30.888	-0.038	-0.033
-390.063	-129.489	0.123	0.017
-389.048	25.475	-0.163	-0.135
-388.033	-153.869	0.289	-0.020
-387.019	-107.188	-0.118	-0.026
-386.004	-152.010	-0.254	0.018
-384.990	-29.644	0.088	-0.050
-383.975	-200.000	-0.002	0.070
-382.960	-53.848	-0.213	0.097
-381.946	-17.716	0.357	-0.223
-380.931	800.000	0.117	0.470
-379.917	-55.912	-0.101	0.045
-378.902	125.186	-0.217	0.272
-377.888	-39.034	-0.031	0.016
-376.873	-200.000	-0.003	0.246
-375.858	800.000	-0.053	-0.216
-374.844	-169.099	0.172	0.006
-373.829	-91.413	-0.135	0.038
-372.815	-149.063	-0.063	0.005
-371.800	-68.684	0.383	0.147
-370.785	289.396	-0.040	0.073
-369.771	-18.731	0.316	-0.196
-368.756	7.394	0.250	0.186
-367.742	-142.679	0.400	-0.039
-366.727	-45.317	0.205	0.101
-365.712	800.000	0.088	0.265
-364.698	800.000	-0.042	0.162
-363.683	-79.754	0.231	0.077
-362.669	-77.885	-0.251	-0.086
-361.654	94.824	-0.127	-0.144
-360.639	800.000	0.030	-0.100
-359.625	800.000	0.013	0.045
-358.610	-70.275	-0.042	-0.016
-357.596	-131.433	0.239	-0.031
-356.581	-200.000	-0.051	-0.340
-355.566	182.559	0.218	0.321
-354.552	103.174	0.078	-0.091
-353.537	395.546	-0.114	0.237
-352.523	316.084	-0.058	-0.109
-351.508	800.000	0.052	-0.156
-350.493	-200.000	0.013	0.063
-349.479	-190.658	0.410	0.004
-348.464	800.000	0.047	0.191
-347.450	506.969	0.098	0.227
-346.435	-142.689	0.165	0.016
-345.420	-200.000	0.042	0.280
-344.406	9.406	0.177	-0.133
-343.391	-1.080	0.295	-0.208
-342.377	45.912	0.074	0.068
-341.362	4.270	0.231	-0.168
-340.348	15.655	0.103	-0.080
-339.333	-40.461	0.155	-0.080
-338.318	-15.607	-0.177	0.112
-337.304	7.675	0.037	-0.028
-336.289	18.215	0.231	-0.183
-335.275	642.577	-0.052	-0.131
-334.260	-200.000	0.043	0.298
-333.245	-77.892	-0.130	0.045
-332.231	682.151	0.044	-0.113
-331.216	388.155	-0.084	0.173
-330.202	-160.636	0.134	0.007
-329.187	-200.000	0.002	0.188
-328.172	86.564	-0.244	0.268
-327.158	36.495	-0.197	-0.173
-326.143	57.883	0.011	0.010
-325.129	57.288	-0.061	0.059
-324.114	-200.000	0.017	-0.269
-323.099	-127.739	-0.084	-0.012
-322.085	220.665	0.079	-0.127
-321.070	-75.129	0.150	0.053
-320.056	-32.491	0.264	0.146
-319.041	691.647	-0.058	-0.151
-318.026	-5.134	0.131	0.090
-317.012	-200.000	-0.031	-0.145
-315.997	-6.134	-0.104	0.071
-314.983	800.000	-0.058	0.167
-313.968	571.886	0.126	-0.306
-312.953	299.256	0.010	-0.018
-311.939	-88.880	0.278	-0.082
-310.924	174.092	-0.082	-0.117
-309.910	359.349	0.120	0.238
-308.895	-200.000	0.324	0.000
-307.880	2.031	0.105	0.075
-306.866	-25.204	0.268	-0.158
-305.851	17.232	0.163	0.128
-304.837	354.627	-0.073	0.145
-303.822	351.079	0.074	-0.146
-302.807	79.064	0.123	0.131
-301.793	-178.520	0.290	0.007
-300.778	48.614	0.344	0.320
-299.764	-31.461	-0.217	-0.121
-298.749	600.861	-0.067	-0.166
-297.735	662.698	-0.029	-0.074
-296.720	702.561	-0.066	0.173
-295.705	5.997	0.419	0.308
-294.691	56.195	0.056	0.054
-293.676	-113.612	-0.221	-0.043
-292.662	149.524	0.095	-0.127
-291.647	-200.000	-0.046	-0.239
-290.632	800.000	0.102	-0.295
-289.618	800.000	0.062	0.169
-288.603	18.678	0.350	0.278
-287.589	57.331	-0.089	0.086
-286.574	-29.716	-0.451	0.255
-285.559	-152.825	-0.107	0.008
-284.545	89.743	0.153	-0.169
-283.530	31.735	-0.136	-0.116
-282.516	164.097	0.068	-0.096
-281.501	103.463	0.284	-0.330
-280.486	-75.794	-0.166	0.058
-279.472	-183.340	0.103	-0.002
-278.457	-73.542	0.104	-0.038
-277.443	-173.660	0.105	0.003
-276.428	166.728	-0.029	0.041
-275.413	-63.454	-0.152	-0.062
-274.399	240.997	0.130	-0.214
-273.384	275.212	-0.058	0.102
-272.370	169.382	0.069	0.098
-271.355	209.216	-0.119	0.185
-270.340	-200.000	0.040	-0.293
-269.326	800.000	0.012	0.045
-268.311	-200.000	-0.085	-0.404
-267.297	150.465	-0.279	-0.376
-266.282	-78.542	-0.283	0.096
-265.267	126.257	-0.188	0.236
-264.253	86.578	-0.143	-0.156
-263.238	-200.000	-0.019	0.000
-262.224	405.875	-0.060	-0.126
-261.209	-126.965	0.231	-0.034
-260.195	-200.000	0.028	-0.324
-259.180	-58.618	-0.118	-0.051
-258.165	574.656	0.028	-0.069
-257.151	-115.343	-0.103	-0.019
-256.136	217.798	-0.137	0.217
-255.122	-167.938	0.099	0.004
-254.107	-200.000	-0.015	-0.166
-253.092	70.473	0.257	-0.263
-252.078	-50.928	0.111	-0.052
-251.063	800.000	0.028	-0.084
-250.049	-43.049	-0.162	0.081
-249.034	-97.789	-0.078	-0.020
-248.019	91.745	0.116	0.129
-247.005	800.000	-0.031	0.128
-245.990	-200.000	0.034	0.159
-244.976	-124.038	0.283	0.044
-243.961	66.933	-0.203	-0.204
-242.946	800.000	-0.094	-0.297
-241.932	-200.000	0.085	-0.000
-240.917	184.883	0.263	0.386
-239.903	316.638	0.060	0.113
-238.888	-170.412	0.231	0.008
-237.873	107.658	-0.218	-0.257
-236.859	56.479	0.155	-0.149
-235.844	800.000	-0.054	-0.209
-234.830	8.041	-0.118	0.088
-233.815	-200.000	0.026	0.136
-232.800	-47.965	0.175	0.084
-231.786	38.439	0.326	0.287
-230.771	758.450	0.049	0.132
-229.757	41.630	-0.041	0.037
-228.742	402.853	-0.146	-0.303
-227.727	391.950	0.098	0.201
-226.713	122.215	0.092	-0.114
-225.698	-200.000	0.011	-0.079
-224.684	-145.819	-0.197	0.017
-223.669	-122.771	-0.380	-0.061
-222.655	35.823	0.105	0.091
-221.640	409.937	-0.107	0.224
-220.625	-127.858	0.494	-0.070
-219.611	-98.865	0.234	-0.059
-218.596	389.006	-0.039	0.080
-217.582	-113.291	-0.112	-0.022
-216.567	-139.475	0.069	-0.007
-215.552	382.890	-0.128	0.261
-214.538	-71.588	-0.315	-0.116
-213.523	-27.258	0.232	-0.134
-212.509	-90.106	-0.215	-0.062
-211.494	69.591	0.177	-0.181
-210.479	-199.722	0.147	0.001
-209.465	-200.000	0.012	0.113
-208.450	-81.095	0.095	-0.031
-207.436	800.000	-0.042	0.146
-206.421	-143.957	0.277	0.026
-205.406	400.370	0.173	0.358
-204.392	-200.000	0.010	0.180
-203.377	-200.000	-0.010	0.085
-202.363	263.180	-0.127	-0.219
-201.348	800.000	0.059	-0.193
-200.333	292.112	0.111	0.199
-199.319	-52.601	-0.235	-0.107
-198.304	-161.236	-0.335	-0.017
-197.290	-200.000	0.024	-0.215
-196.275	160.178	-0.162	0.224
-195.260	-200.000	0.049	0.289
-194.246	-76.459	0.108	0.038
-193.231	-104.415	-0.151	-0.034
-192.217	-200.000	0.014	0.132
-191.202	800.000	-0.038	0.119
-190.187	-112.825	-0.314	0.062
-189.173	-18.508	-0.151	-0.093
-188.158	-200.000	0.058	-0.353
-187.144	-157.866	-0.252	-0.015
-186.129	6.845	0.047	-0.034
-185.114	37.326	0.191	-0.167
-184.100	-115.755	0.437	-0.081
-183.085	-79.306	-0.331	-0.111
-182.071	-124.799	0.229	0.035
-181.056	-200.000	0.050	-0.229
-180.042	-77.778	-0.226	0.077
-179.027	39.209	0.077	-0.068
-178.012	800.000	-0.043	-0.163
-176.998	-24.306	0.116	0.068
-175.983	58.059	0.059	0.057
-174.969	327.052	0.032	0.060
-173.954	-146.346	0.202	0.017
-172.939	94.305	0.055	0.062
-171.925	-106.081	0.308	0.068
-170.910	379.264	0.141	0.284
-169.896	30.350	0.049	-0.042
-168.881	-2.021	0.189	0.131
-167.866	800.000	0.059	0.182
-166.852	53.424	0.219	0.207
-165.837	162.164	0.078	0.107
-164.823	-58.577	0.180	0.077
-163.808	-45.116	-0.244	0.120
-162.793	189.922	0.193	0.285
-161.779	800.000	-0.102	0.333
-160.764	-75.123	-0.053	-0.019
-159.750	539.204	-0.111	0.261
-158.735	-39.429	-0.169	0.088
-157.720	-97.981	0.157	0.040
-156.706	-71.995	0.222	-0.081
-155.691	-100.437	0.060	0.015
-154.677	9.729	0.064	-0.048
-153.662	-93.811	0.157	0.043
-152.647	88.776	0.081	0.089
-151.633	368.003	0.097	0.193
-150.618	33.485	0.237	0.203
-149.604	800.000	-0.028	-0.096
-148.589	-29.705	0.237	0.133
-147.574	194.662	-0.217	0.325
-146.560	21.249	-0.167	-0.134
-145.545	800.000	0.029	-0.117
-144.531	41.470	0.048	-0.043
-143.516	-56.711	0.232	-0.101
-142.502	-29.353	-0.192	-0.108
-141.487	130.246	0.170	0.215
-140.472	-68.226	-0.178	0.068
-139.458	276.531	-0.068	-0.119
-138.443	-145.183	-0.408	0.037
-137.429	-200.000	0.011	0.057
-136.414	-106.629	-0.320	0.070
-135.399	321.709	-0.029	-0.054
-134.385	-200.000	-0.063	-0.392
-133.370	-200.000	0.027	-0.127
-132.356	94.333	0.182	0.204
-131.341	70.648	-0.368	-0.376
-130.326	632.726	0.102	0.255
-129.312	122.401	-0.258	-0.318
-128.297	107.630	-0.161	0.189
-127.283	471.410	0.082	0.182
-126.268	60.874	0.363	-0.355
-125.253	13.714	-0.208	-0.159
-124.239	220.213	-0.195	0.308
-123.224	-5.216	0.332	0.225
-122.210	-200.000	-0.036	-0.168
-121.195	188.503	-0.237	-0.349
-120.180	-200.000	-0.036	0.240
-119.166	63.055	-0.204	-0.201
-118.151	-19.262	0.225	-0.137
-117.137	800.000	0.121	-0.363
-116.122	216.060	0.101	-0.159
-115.107	67.323	0.200	0.201
-114.093	-179.480	0.224	-0.005
-113.078	-122.362	0.264	-0.042
-112.064	-200.000	-0.073	-0.366
-111.049	-35.151	-0.241	0.129
-110.034	32.724	0.193	-0.165
-109.020	-26.321	0.032	-0.019
-108.005	28.715	0.140	-0.117
-106.991	-155.085	-0.163	0.011
-105.976	-153.015	0.241	-0.017
-104.962	113.253	0.085	-0.102
-103.947	356.661	0.142	0.280
-102.932	-52.356	-0.231	0.105
-101.918	-100.774	0.108	-0.026
-100.903	-200.000	0.103	0.604
-99.889	-113.866	0.754	0.144
-98.874	91.878	-0.077	0.085
-97.859	800.000	-0.098	0.381
-96.845	-30.872	-0.129	0.072
-95.830	-40.702	0.080	-0.041
-94.816	-36.449	0.052	-0.027
-93.801	-11.852	-0.215	-0.139
-92.786	414.567	-0.205	-0.429
-91.772	113.351	0.137	0.164
-90.757	-90.918	0.068	-0.019
-89.743	315.221	-0.192	0.357
-88.728	800.000	0.115	-0.488
-87.713	532.751	-0.131	-0.306
-86.699	-200.000	0.014	0.104
-85.684	134.031	-0.127	-0.162
-84.670	-50.397	0.166	0.077
-83.655	232.131	0.223	0.361
-82.640	-200.000	-0.237	0.001
-81.626	-116.019	0.321	0.059
-80.611	153.238	-0.187	0.252
-79.597	76.407	0.231	0.241
-78.582	-39.096	-0.217	0.112
-77.567	-139.080	-0.111	0.012
-76.553	-200.000	0.001	-0.128
-75.538	440.567	-0.113	0.243
-74.524	-94.595	-0.032	-0.008
-73.509	-116.809	-0.218	-0.039
-72.494	89.920	-0.327	0.359
-71.480	-31.180	0.135	-0.075
-70.465	-151.879	-0.368	-0.027
-69.451	-87.880	0.295	-0.087
-68.436	639.328	-0.126	-0.316
-67.422	-141.079	-0.415	-0.042
-66.407	5.270	-0.197	-0.143
-65.392	-16.795	0.081	0.050
-64.378	438.339	-0.176	-0.377
-63.363	-132.881	0.041	-0.005
-62.349	-142.396	-0.024	0.002
-61.334	41.027	-1.025	-0.910
-60.319	88.293	0.576	0.629
-59.305	367.899	-0.615	-1.222
-58.290	242.724	0.714	1.175
-57.276	800.000	0.506	1.668
-56.261	-200.000	114.899	643.637
-55.246	501.625	1530.049	3473.313
-54.232	173.679	2708.489	3842.385
-53.217	96.296	2320.403	2608.553
-52.203	33.104	2065.375	1759.772
-51.188	28.495	1981.050	1646.583
-50.173	27.075	1964.541	1620.140
-49.159	43.746	2025.054	1821.682
-48.144	42.757	2039.281	1825.442
-47.130	28.841	1998.431	1663.900
-46.115	26.653	1988.018	1635.431
-45.100	26.618	1984.372	1632.055
-44.086	26.561	1982.606	1630.023
-43.071	26.523	1979.989	1627.468
-42.057	26.421	1977.727	1624.623
-41.042	26.565	1975.701	1624.188
-40.027	26.519	1974.343	1622.598
-39.013	26.596	1971.964	1621.265
-37.998	26.563	1970.415	1619.630
-36.984	26.561	1968.523	1617.993
-35.969	26.534	1967.007	1616.445
-34.954	26.507	1965.459	1614.870
-33.940	26.669	1962.960	1614.191
-32.925	26.644	1961.380	1612.608
-31.911	26.593	1960.353	1611.242
-30.896	26.570	1958.706	1609.622
-29.881	26.639	1957.212	1608.941
-28.867	26.687	1955.512	1607.908
-27.852	26.714	1953.758	1606.643
-26.838	26.722	1951.673	1604.932
-25.823	26.716	1950.010	1603.447
-24.809	26.717	1947.803	1601.578
-23.794	26.596	1946.903	1599.705
-22.779	26.683	1944.634	1598.550
-21.765	26.560	1943.804	1596.714
-20.750	26.631	1941.586	1595.457
-19.736	26.721	1939.854	1594.763
-18.721	26.614	1938.801	1592.896
-17.706	26.642	1936.771	1591.409
-16.692	26.588	1935.480	1589.809
-15.677	26.663	1933.336	1588.639
-14.663	26.607	1932.373	1587.294
-13.648	26.663	1930.841	1586.466
-12.633	26.623	1929.652	1585.079
-11.619	26.694	1927.952	1584.238
-10.604	26.631	1927.099	1582.924
-9.590	26.589	1926.035	1581.621
-8.575	26.640	1924.421	1580.675
-7.560	26.641	1923.180	1579.601
-6.546	26.633	1922.251	1578.711
-5.531	26.641	1920.198	1577.027
-4.517	26.649	1918.973	1576.032
-3.502	26.689	1917.502	1575.111
-2.487	26.605	1916.742	1573.693
-1.473	26.690	1915.756	1573.560
-0.458	26.698	1911.054	1569.701
0.556	27.370	1891.091	1540.470
1.571	23.000	1872.172	1488.215
2.586	19.086	1895.311	1473.048
3.600	18.087	1930.778	1491.765
4.615	17.565	1923.372	1481.372
5.629	13.398	1823.524	1369.915
6.644	6.482	1710.940	1231.338
7.659	3.397	1678.151	1183.968
8.673	3.180	1675.333	1180.209
9.688	3.151	1674.187	1179.073
10.702	3.196	1672.773	1178.323
11.717	3.133	1669.638	1175.525
12.731	3.586	1668.561	1178.120
13.746	8.309	1679.566	1222.007
14.761	15.944	1696.408	1292.980
15.775	20.112	1703.380	1330.231
16.790	20.320	1702.646	1331.136
17.804	19.451	1699.429	1321.855
18.819	18.521	1696.368	1312.241
19.834	17.875	1693.564	1305.016
20.848	17.651	1692.956	1302.719
21.863	17.616	1691.228	1301.005
22.877	17.418	1689.593	1298.125
23.892	17.043	1688.922	1294.632
24.907	17.049	1687.533	1293.498
25.921	17.056	1686.642	1292.756
26.936	17.054	1685.523	1291.766
27.950	17.099	1684.611	1291.295
28.965	17.123	1684.126	1290.995
29.980	17.158	1683.636	1290.772
30.994	17.296	1681.995	1290.447
32.009	17.361	1681.141	1290.167
33.023	17.475	1680.021	1290.062
34.038	17.447	1679.337	1289.205
35.053	17.320	1678.094	1287.182
36.067	17.255	1676.842	1285.613
37.082	17.230	1675.960	1284.632
38.096	17.234	1674.861	1283.710
39.111	17.324	1673.829	1283.481
40.126	17.353	1673.480	1283.321
41.140	17.355	1672.545	1282.503
42.155	17.124	1670.279	1278.916
43.169	16.999	1668.893	1276.801
44.184	16.836	1668.299	1275.007
45.199	16.931	1666.531	1274.256
46.213	16.838	1665.786	1272.874
47.228	16.937	1664.136	1272.244
48.242	17.092	1663.078	1272.481
49.257	17.128	1662.936	1272.530
50.271	17.137	1661.511	1271.397
51.286	17.117	1659.953	1269.942
52.301	17.191	1658.926	1269.600
53.315	17.164	1657.203	1267.962
54.330	17.106	1656.134	1266.603
55.344	16.917	1654.093	1263.524
56.359	16.987	1652.392	1262.629
57.374	16.929	1651.599	1261.482
58.388	16.979	1650.316	1260.760
59.403	17.017	1648.790	1259.770
60.417	16.923	1647.017	1257.604
61.432	16.770	1646.503	1255.966
62.447	16.882	1644.692	1255.301
63.461	16.773	1643.947	1253.816
64.476	16.714	1643.250	1252.737
65.490	16.673	1641.967	1251.344
66.505	16.688	1640.291	1250.071
67.520	16.686	1639.752	1249.530
68.534	16.731	1639.040	1249.212
69.549	16.767	1637.611	1248.278
70.563	16.816	1636.073	1247.352
71.578	16.828	1634.680	1246.271
72.593	16.694	1633.941	1244.614
73.607	16.595	1632.657	1242.795
74.622	16.609	1631.647	1242.017
75.636	16.569	1630.925	1241.071
76.651	16.556	1630.291	1240.379
77.666	16.645	1629.348	1240.207
78.680	16.698	1628.143	1239.566
79.695	16.621	1627.551	1238.445
80.709	16.684	1626.560	1238.041
81.724	16.830	1625.631	1238.289
82.739	16.886	1624.814	1237.968
83.753	17.032	1623.724	1238.092
84.768	17.064	1623.298	1237.888
85.782	17.114	1623.098	1237.995
86.797	17.192	1622.174	1237.745
87.812	17.303	1621.005	1237.553
88.826	17.228	1619.869	1236.030
89.841	17.038	1619.016	1233.892
90.855	17.181	1617.257	1233.481
91.870	17.260	1616.711	1233.528
92.884	17.360	1615.678	1233.350
93.899	17.314	1614.717	1232.181
94.914	17.284	1613.598	1230.997
95.928	17.294	1612.646	1230.232
96.943	17.392	1610.805	1229.427
97.957	17.339	1609.515	1227.953
98.972	17.310	1607.694	1226.248
99.987	17.277	1606.774	1225.195
101.001	17.247	1604.750	1223.331
102.016	17.290	1603.594	1222.651
103.030	17.238	1602.703	1221.489
104.045	17.234	1601.072	1220.109
105.060	17.313	1600.060	1219.796
106.074	17.144	1598.737	1217.466
107.089	17.115	1596.202	1215.221
108.103	16.906	1594.716	1212.492
109.118	16.751	1593.376	1210.254
110.133	16.796	1591.570	1209.102
111.147	16.748	1590.242	1207.640
112.162	16.796	1588.770	1206.757
113.176	16.745	1587.832	1205.577
114.191	16.792	1586.513	1204.805
115.206	16.899	1585.479	1204.672
116.220	16.848	1584.268	1203.279
117.235	16.846	1582.957	1202.165
118.249	16.891	1581.081	1200.954
119.264	16.800	1580.465	1199.732
120.279	16.833	1578.683	1198.506
121.293	16.711	1577.266	1196.464
122.308	16.730	1575.548	1195.188
123.322	16.690	1573.910	1193.564
124.337	16.572	1572.345	1191.436
125.352	16.604	1571.019	1190.553
126.366	16.644	1570.172	1190.088
127.381	16.602	1569.126	1188.894
128.395	16.520	1568.315	1187.597
129.410	16.598	1566.760	1186.861
130.424	16.664	1565.409	1186.193
131.439	16.744	1564.086	1185.650
132.454	16.798	1562.843	1184.978
133.468	16.813	1561.568	1184.015
134.483	16.836	1560.364	1183.153
135.497	16.801	1559.072	1181.829
136.512	16.911	1557.538	1181.328
137.527	16.926	1556.538	1180.571
138.541	16.819	1555.254	1178.742
139.556	16.842	1553.947	1177.808
140.570	16.949	1552.340	1177.229
141.585	17.087	1550.963	1177.037
142.600	17.142	1550.182	1176.724
143.614	17.261	1548.733	1176.345
144.629	17.284	1547.799	1175.691
145.643	17.403	1546.277	1175.253
146.658	17.338	1544.887	1173.639
147.673	17.239	1543.965	1172.155
148.687	17.172	1541.747	1169.903
149.702	17.179	1540.523	1168.923
150.716	17.007	1538.697	1166.248
151.731	16.986	1537.156	1164.834
152.746	17.029	1535.832	1164.024
153.760	17.046	1534.456	1162.993
154.775	17.033	1533.847	1162.337
155.789	17.138	1532.315	1161.793
156.804	17.215	1530.773	1161.048
157.819	17.176	1529.973	1160.071
158.833	17.163	1529.133	1159.245
159.848	17.323	1527.788	1159.217
160.862	17.423	1526.535	1158.844
161.877	17.417	1525.734	1158.089
162.892	17.372	1524.043	1156.398
163.906	17.159	1522.348	1153.563
164.921	17.102	1520.731	1151.852
165.935	17.081	1519.952	1151.018
166.950	17.075	1519.010	1150.157
167.964	17.157	1517.966	1149.824
168.979	17.157	1516.882	1148.898
169.994	17.180	1515.461	1147.880
171.008	17.205	1514.761	1147.412
172.023	17.146	1514.056	1146.380
173.037	17.183	1512.794	1145.575
174.052	17.423	1511.679	1146.242
175.067	17.461	1510.236	1145.303
176.081	17.299	1509.292	1143.396
177.096	17.061	1508.103	1140.794
178.110	17.021	1506.710	1139.371
179.125	16.961	1505.648	1138.065
180.140	17.288	1503.942	1138.867
181.154	17.198	1503.159	1137.569
182.169	17.183	1502.586	1136.940
183.183	17.340	1501.492	1137.056
184.198	17.421	1499.817	1136.230
185.213	17.520	1499.315	1136.408
186.227	17.520	1497.999	1135.313
187.242	17.466	1497.240	1134.278
188.256	17.445	1496.222	1133.265
189.271	17.575	1495.168	1133.228
190.286	17.627	1494.803	1133.198
191.300	17.569	1493.438	1131.678
192.315	17.283	1491.577	1128.272
193.329	17.103	1489.903	1125.712
194.344	17.122	1488.232	1124.473
195.359	17.165	1487.833	1124.357
196.373	17.229	1487.130	1124.150
197.388	17.372	1485.695	1123.916
198.402	17.404	1484.823	1123.361
199.417	17.521	1484.180	1123.548
200.432	17.635	1483.635	1123.791
201.446	17.697	1482.875	1123.525
202.461	17.817	1481.599	1123.251
203.475	17.878	1480.698	1122.866
204.490	17.986	1479.135	1122.293
205.504	17.915	1478.247	1121.056
206.519	17.779	1476.984	1119.105
207.534	17.632	1475.939	1117.250
208.548	17.694	1474.652	1116.581
209.563	17.598	1473.876	1115.264
210.577	17.674	1472.667	1114.752
211.592	17.720	1471.626	1114.168
212.607	17.800	1471.143	1114.226
213.621	17.799	1470.816	1113.874
214.636	17.881	1470.175	1113.823
215.650	17.782	1468.956	1112.152
216.665	17.801	1467.680	1111.215
217.680	17.919	1466.668	1111.116
218.694	17.897	1466.273	1110.577
219.709	18.102	1465.563	1111.275
220.723	18.057	1464.432	1110.023
221.738	18.004	1463.424	1108.819
222.753	17.985	1462.644	1108.004
223.767	18.009	1461.771	1107.405
224.782	17.878	1460.537	1105.524
225.796	17.877	1460.186	1105.151
226.811	18.089	1459.252	1105.717
227.826	18.155	1458.098	1105.175
228.840	18.050	1457.555	1103.985
229.855	17.989	1456.083	1102.378
230.869	18.024	1454.950	1101.651
231.884	17.894	1454.145	1100.105
232.899	17.886	1453.243	1099.275
233.913	17.811	1451.808	1097.607
234.928	17.920	1450.266	1097.045
235.942	17.781	1449.295	1095.323
236.957	17.791	1447.860	1094.205
237.972	17.733	1446.900	1093.009
238.986	17.721	1445.598	1091.854
240.001	17.861	1444.463	1091.793
241.015	17.908	1443.717	1091.432
242.030	17.828	1442.686	1090.045
243.045	17.906	1441.586	1089.619
244.059	17.962	1441.111	1089.521
245.074	17.963	1440.490	1088.962
246.088	18.012	1439.491	1088.422
247.103	18.068	1438.554	1087.973
248.117	18.078	1438.136	1087.621
249.132	18.190	1437.265	1087.578
250.147	18.232	1436.859	1087.443
251.161	18.453	1436.104	1088.177
252.176	18.523	1435.735	1088.249
253.190	18.579	1435.121	1088.041
254.205	18.681	1434.165	1087.870
255.220	18.720	1433.003	1087.136
256.234	18.808	1432.623	1087.308
257.249	18.769	1431.662	1086.238
258.263	18.746	1430.766	1085.313
259.278	18.718	1429.908	1084.389
260.293	18.689	1428.919	1083.360
261.307	18.745	1427.605	1082.622
262.322	18.846	1427.602	1083.163
263.336	18.856	1427.123	1082.765
264.351	18.828	1426.252	1081.831
265.366	18.862	1425.037	1081.033
266.380	19.008	1423.670	1080.816
267.395	18.973	1422.892	1079.907
268.409	18.902	1422.220	1078.859
269.424	18.800	1420.902	1077.122
270.439	18.787	1419.741	1076.063
271.453	18.797	1418.620	1075.182
272.468	18.766	1418.108	1074.506
273.482	18.729	1417.056	1073.381
274.497	18.642	1416.060	1071.989
275.512	18.659	1415.530	1071.597
276.526	18.587	1414.773	1070.482
277.541	18.783	1413.194	1070.411
278.555	18.735	1412.631	1069.593
279.570	18.797	1411.401	1068.958
280.585	18.837	1410.741	1068.611
281.599	18.965	1410.502	1069.131
282.614	18.979	1409.656	1068.477
283.628	18.943	1407.970	1066.884
284.643	18.742	1406.912	1064.740
285.657	18.852	1405.417	1064.199
286.672	18.861	1404.695	1063.611
287.687	18.848	1404.315	1063.148
288.701	18.731	1403.045	1061.371
289.716	18.907	1402.098	1061.651
290.730	18.958	1400.971	1061.019
291.745	18.925	1400.257	1060.175
292.760	18.923	1399.655	1059.614
293.774	18.943	1398.378	1058.681
294.789	18.973	1397.525	1058.125
295.803	19.035	1396.870	1057.912
296.818	19.080	1395.911	1057.369
297.833	19.036	1394.753	1056.133
298.847	18.963	1393.657	1054.763
299.862	18.949	1392.571	1053.759
300.876	18.893	1391.721	1052.680
301.891	19.070	1390.599	1052.822
302.906	19.018	1390.326	1052.200
303.920	19.108	1389.819	1052.278
304.935	19.222	1388.905	1052.189
305.949	19.288	1388.140	1051.919
306.964	19.404	1387.298	1051.892
307.979	19.513	1386.192	1051.624
308.993	19.350	1385.564	1050.061
310.008	19.267	1384.266	1048.485
311.022	19.168	1383.581	1047.267
312.037	19.285	1382.570	1047.123
313.052	19.390	1381.603	1046.933
314.066	19.333	1380.060	1045.326
315.081	19.300	1379.061	1044.276
316.095	19.106	1378.364	1042.481
317.110	18.992	1377.083	1040.733
318.125	19.065	1375.637	1039.988
319.139	19.098	1375.077	1039.672
320.154	19.056	1374.152	1038.627
321.168	19.056	1373.219	1037.833
322.183	19.164	1371.886	1037.383
323.197	19.123	1371.486	1036.743
324.212	19.207	1369.973	1036.008
325.227	19.234	1369.517	1035.736
326.241	19.266	1368.379	1034.974
327.256	19.315	1367.495	1034.512
328.270	19.201	1366.766	1033.183
329.285	19.210	1366.198	1032.716
330.300	19.263	1365.330	1032.286
331.314	19.256	1364.267	1031.349
332.329	19.198	1363.469	1030.306
333.343	19.269	1362.075	1029.587
334.358	19.151	1361.845	1028.618
335.373	19.260	1361.277	1028.751
336.387	19.380	1360.522	1028.805
337.402	19.525	1359.266	1028.624
338.416	19.550	1358.649	1028.214
339.431	19.535	1358.086	1027.613
340.446	19.573	1357.674	1027.431
341.460	19.741	1356.033	1027.099
342.475	19.767	1355.487	1026.747
343.489	19.740	1354.844	1026.015
344.504	19.789	1354.141	1025.676
345.519	19.831	1353.153	1025.091
346.533	19.984	1352.125	1025.125
347.548	19.874	1351.990	1024.278
348.562	19.974	1350.396	1023.571
349.577	19.923	1349.862	1022.777
350.592	19.880	1349.203	1021.935
351.606	19.733	1347.733	1019.863
352.621	19.650	1346.423	1018.293
353.635	19.628	1345.350	1017.260
354.650	19.624	1344.327	1016.376
355.665	19.572	1343.352	1015.243
356.679	19.577	1342.590	1014.606
357.694	19.663	1341.298	1014.043
358.708	19.654	1340.640	1013.401
359.723	19.736	1339.228	1012.729
360.738	19.821	1338.557	1012.629
361.752	19.759	1337.831	1011.624
362.767	19.771	1336.186	1010.363
363.781	19.785	1335.460	1009.804
364.796	19.841	1334.980	1009.680
365.810	19.947	1333.806	1009.323
366.825	20.031	1333.706	1009.647
367.840	20.081	1332.857	1009.207
368.854	20.189	1332.044	1009.131
369.869	20.224	1331.708	1008.988
370.883	20.240	1331.691	1008.977
371.898	20.263	1330.139	1007.847
372.913	20.096	1329.667	1006.429
373.927	20.070	1328.527	1005.329
374.942	20.156	1328.067	1005.391
375.956	20.273	1327.012	1005.182
376.971	20.309	1326.581	1004.976
377.986	20.080	1325.603	1002.816
379.000	20.192	1324.382	1002.453
380.015	20.331	1323.499	1002.497
381.029	20.443	1322.902	1002.605
382.044	20.512	1322.295	1002.456
383.059	20.432	1321.740	1001.482
384.073	20.366	1321.087	1000.521
385.088	20.320	1320.710	999.881
386.102	20.433	1319.615	999.610
387.117	20.512	1318.677	999.269
388.132	20.496	1317.863	998.470
389.146	20.313	1316.744	996.487
390.161	20.246	1316.036	995.473
391.175	20.232	1315.528	994.925
392.190	20.126	1314.489	993.443
393.205	20.376	1313.782	994.252
394.219	20.470	1312.669	993.859
395.234	20.455	1311.930	993.128
396.248	20.491	1310.259	991.976
397.263	20.348	1309.141	990.230
398.278	20.306	1307.559	988.706
399.292	20.290	1306.514	987.738
400.307	20.252	1305.062	986.338
401.321	20.152	1304.093	984.947
402.336	20.185	1303.060	984.267
403.350	20.147	1302.291	983.385
404.365	20.175	1301.017	982.493
405.380	20.297	1300.471	982.688
406.394	20.271	1300.089	982.160
407.409	20.328	1299.330	981.828
408.423	20.326	1298.901	981.405
409.438	20.440	1298.145	981.388
410.453	20.618	1297.591	981.889
411.467	20.686	1296.680	981.497
412.482	20.548	1296.750	980.684
413.496	20.740	1295.944	981.071
414.511	20.764	1295.035	980.427
415.526	20.811	1294.217	979.988
416.540	20.841	1293.164	979.272
417.555	21.051	1292.638	979.967
418.569	20.937	1292.219	978.924
419.584	21.037	1291.164	978.597
420.599	20.919	1290.593	977.419
421.613	145.654	1435.704	1797.144
422.628	140.608	1456.787	1797.217
