DTS Sentinel unit serial number:	SN413079Multiplexer serial number:	ORYXHardware model number:	OX4-SRSoftware version number:	ORYX F/W v4.00 Oryx Data Collector v3.7.2.0data status	okinstallation	princeton_trtdifferential loss correction	single-endedforward channel	channel 4reverse channel	N/Adate	2019/09/12time	18:29:19forward acquisition time	15.00reverse acquisition time	0.00gamma	496.2192k internal	0.2308k external	0.2308temperature offset calibration	1.0129default loss term (dB/km)	0.3790temperature slope calibration	1.0000multiplexer offset coefficient	1.0000multiplexer slope coefficient	1.0000fibre end	0.00T internal ref (°C)	33.31T ext. ref 1 (°C)	2.95T ext. ref 2 (°C)	27.89length (m)	temperature (°C)	Stokes	anti-Stokes-747.200	-200.000	-0.089	-1.061
-746.185	800.000	-0.173	-0.695
-745.171	-88.261	0.102	-0.031
-744.156	800.000	0.095	-0.285
-743.142	-40.594	-0.449	0.237
-742.127	589.923	-0.098	0.246
-741.112	-116.986	0.535	-0.099
-740.098	-118.603	-0.281	0.051
-739.083	40.233	-0.494	0.452
-738.069	800.000	0.249	0.736
-737.054	-88.436	-0.562	-0.170
-736.039	6.717	0.201	0.152
-735.025	-16.177	0.250	0.161
-734.010	636.045	0.058	-0.150
-732.996	263.837	0.147	0.259
-731.981	90.101	-0.546	-0.620
-730.966	-103.175	0.745	-0.179
-729.952	237.526	0.177	-0.297
-728.937	-200.000	-0.048	-0.280
-727.923	178.130	-0.250	0.370
-726.908	-57.925	-0.625	0.277
-725.894	-135.725	0.264	0.032
-724.879	-7.412	0.379	0.260
-723.864	800.000	0.155	-0.643
-722.850	129.322	-0.563	0.730
-721.835	-80.827	-1.148	-0.387
-720.821	-200.000	0.029	-0.202
-719.806	-129.442	0.263	0.037
-718.791	-16.176	-0.110	-0.071
-717.777	24.755	0.476	0.400
-716.762	102.724	0.382	-0.454
-715.748	-69.401	-0.807	0.314
-714.733	-130.567	-0.559	-0.077
-713.718	800.000	0.084	-0.320
-712.704	-200.000	0.007	-0.060
-711.689	246.895	-0.322	-0.552
-710.675	-89.293	-0.543	-0.163
-709.660	-24.490	0.553	0.334
-708.645	800.000	-0.130	-0.396
-707.631	189.894	-0.083	-0.126
-706.616	597.348	0.400	1.005
-705.602	5.088	0.548	-0.409
-704.587	48.305	0.413	-0.392
-703.572	30.977	-0.253	-0.220
-702.558	82.427	0.343	0.377
-701.543	-200.000	0.086	-0.393
-700.529	-56.372	0.586	-0.264
-699.514	142.228	0.380	-0.511
-698.499	-172.023	-0.772	0.025
-697.485	271.111	0.482	-0.861
-696.470	-78.026	0.114	-0.040
-695.456	-12.038	0.362	0.241
-694.441	-200.000	0.023	-0.331
-693.426	-162.908	-0.051	-0.003
-692.412	800.000	-0.128	-0.371
-691.397	93.344	0.198	-0.228
-690.383	-200.000	0.013	-0.089
-689.368	-30.225	-0.542	0.312
-688.354	-200.000	0.036	-0.382
-687.339	64.117	0.407	0.415
-686.324	-200.000	-0.040	0.251
-685.310	-117.945	-0.382	-0.069
-684.295	37.620	-0.537	0.484
-683.281	231.126	0.197	-0.327
-682.266	0.897	0.278	-0.202
-681.251	431.686	0.336	-0.737
-680.237	29.449	-0.384	-0.331
-679.222	127.878	-0.270	0.348
-678.208	122.514	-0.339	-0.429
-677.193	-90.041	-0.503	0.149
-676.178	393.714	0.117	-0.246
-675.164	324.817	-0.119	0.230
-674.149	-142.106	-0.324	-0.033
-673.135	504.829	0.010	0.024
-672.120	800.000	-0.182	0.803
-671.105	51.829	-0.772	0.745
-670.091	-106.212	-0.102	-0.023
-669.076	-200.000	-0.153	-0.687
-668.062	-132.673	-0.199	0.026
-667.047	-200.000	0.012	-0.886
-666.032	22.517	-0.153	-0.127
-665.018	-122.450	0.488	-0.081
-664.003	-89.048	-0.289	0.087
-662.989	-128.519	0.526	0.076
-661.974	469.991	-0.287	-0.653
-660.959	800.000	0.122	0.451
-659.945	-116.971	0.330	-0.061
-658.930	93.233	-0.386	0.442
-657.916	-142.633	-0.438	0.043
-656.901	-144.622	0.840	-0.078
-655.886	-23.439	-0.286	-0.174
-654.872	3.051	-0.567	0.418
-653.857	-12.226	-0.681	-0.452
-652.843	84.559	-0.701	-0.777
-651.828	-88.528	-0.590	0.178
-650.814	-33.084	0.712	-0.400
-649.799	-140.525	0.703	-0.074
-648.784	149.160	0.215	0.295
-647.770	-159.858	-1.179	0.066
-646.755	-146.415	-0.245	-0.022
-645.741	-143.547	-0.530	-0.051
-644.726	-200.000	-0.073	-0.852
-643.711	-127.370	-0.191	0.028
-642.697	-200.000	0.089	-0.464
-641.682	-200.000	0.001	0.340
-640.668	-28.874	0.515	-0.299
-639.653	50.209	-0.327	0.312
-638.638	338.731	0.352	-0.694
-637.624	-76.071	-0.393	0.141
-636.609	-82.745	-0.657	0.215
-635.595	800.000	0.197	-0.675
-634.580	800.000	0.065	0.258
-633.565	-33.314	-0.401	-0.225
-632.551	-73.633	0.224	0.082
-631.536	800.000	-0.106	-0.370
-630.522	-79.939	0.776	-0.264
-629.507	-151.297	0.580	0.044
-628.492	13.588	0.190	0.149
-627.478	-58.814	-0.230	-0.101
-626.463	8.090	1.348	-1.024
-625.449	-43.465	0.388	0.198
-624.434	-200.000	-0.029	-0.742
-623.419	212.084	-0.377	-0.601
-622.405	-103.534	-1.076	-0.256
-621.390	-95.710	-0.444	-0.120
-620.376	-19.867	0.278	0.174
-619.361	-109.832	-0.165	0.035
-618.346	127.609	0.109	-0.141
-617.332	302.829	-0.379	0.709
-616.317	78.364	-0.205	-0.222
-615.303	237.062	-0.522	-0.875
-614.288	-188.175	-0.394	-0.005
-613.273	-120.733	0.570	-0.097
-612.259	112.770	0.225	-0.276
-611.244	-64.111	-0.437	-0.180
-610.230	-131.030	-0.593	0.080
-609.215	37.485	0.543	-0.487
-608.201	50.992	0.631	-0.605
-607.186	28.176	-0.597	0.510
-606.171	800.000	-0.222	0.736
-605.157	-129.652	-0.361	0.050
-604.142	703.071	-0.221	0.588
-603.128	-104.426	-0.235	0.055
-602.113	667.027	-0.149	-0.390
-601.098	-55.410	0.574	0.260
-600.084	-200.000	0.077	0.540
-599.069	-200.000	0.082	-0.555
-598.055	-145.562	-1.262	0.114
-597.040	591.626	-0.461	1.150
-596.025	-126.696	0.221	-0.033
-595.011	-200.000	0.007	-0.107
-593.996	-200.000	0.014	0.238
-592.982	-172.438	-0.532	0.017
-591.967	-121.904	-0.649	-0.108
-590.952	-13.475	0.480	0.315
-589.938	1.347	-0.511	-0.371
-588.923	-200.000	-0.063	0.486
-587.909	-99.941	-0.475	-0.120
-586.894	-4.517	0.328	-0.229
-585.879	800.000	0.361	-1.087
-584.865	-43.156	-0.194	-0.099
-583.850	-121.929	0.138	0.023
-582.836	193.639	-0.103	-0.158
-581.821	800.000	0.088	0.251
-580.806	-200.000	0.049	0.379
-579.792	277.370	0.153	-0.275
-578.777	166.037	-0.433	-0.619
-577.763	-73.397	-0.429	-0.158
-576.748	-22.265	0.971	-0.594
-575.733	-200.000	0.033	0.388
-574.719	135.530	-0.281	-0.369
-573.704	800.000	-0.122	-0.362
-572.690	79.364	0.261	-0.282
-571.675	45.059	0.958	-0.891
-570.661	77.343	0.412	0.443
-569.646	-200.000	0.062	0.552
-568.631	-123.402	-0.917	0.148
-567.617	-2.560	0.359	-0.254
-566.602	800.000	-0.168	0.597
-565.588	-149.011	0.258	-0.021
-564.573	800.000	-0.269	1.039
-563.558	-68.383	-0.179	-0.070
-562.544	134.139	0.619	-0.809
-561.529	-13.919	-0.540	-0.352
-560.515	-141.805	0.852	0.086
-559.500	-200.000	0.093	-0.738
-558.485	-83.605	0.331	-0.107
-557.471	-7.141	-0.137	0.094
-556.456	-47.596	0.119	-0.058
-555.442	-76.999	-0.721	-0.254
-554.427	121.876	-0.420	-0.528
-553.412	-43.399	0.404	0.206
-552.398	167.546	0.305	-0.437
-551.383	-164.053	0.287	-0.013
-550.369	-200.000	-0.176	-0.816
-549.354	-179.725	0.360	-0.008
-548.339	36.448	-0.157	-0.140
-547.325	800.000	0.148	0.460
-546.310	452.623	-0.243	-0.543
-545.296	3.938	0.275	-0.203
-544.281	-200.000	-0.005	0.316
-543.266	386.297	0.315	-0.656
-542.252	428.910	0.462	1.007
-541.237	209.776	0.207	0.328
-540.223	-50.564	0.432	0.205
-539.208	31.848	-0.455	-0.395
-538.193	-200.000	-0.133	0.601
-537.179	-200.000	-0.052	-0.447
-536.164	-73.860	0.294	0.108
-535.150	-132.264	0.857	0.112
-534.135	-200.000	0.055	0.576
-533.121	99.899	-0.458	-0.535
-532.106	112.704	0.340	0.415
-531.091	800.000	-0.303	-0.861
-530.077	-33.739	0.255	0.142
-529.062	-67.655	0.682	0.269
-528.048	-103.894	0.273	-0.064
-527.033	147.058	0.418	0.566
-526.018	378.736	-0.349	-0.720
-525.004	-103.109	0.271	0.065
-523.989	-157.357	0.624	0.038
-522.975	-98.792	-0.640	0.164
-521.960	208.575	0.422	-0.666
-520.945	-87.305	0.569	0.174
-519.931	-2.717	0.126	0.089
-518.916	-105.936	1.087	0.247
-517.902	-97.293	-0.646	-0.170
-516.887	-0.507	-0.418	0.299
-515.872	85.928	0.458	0.508
-514.858	30.916	-0.301	0.260
-513.843	800.000	-0.137	-0.403
-512.829	156.773	0.582	-0.810
-511.814	-118.578	-0.450	0.080
-510.799	-109.874	-0.357	0.076
-509.785	800.000	-0.122	-0.414
-508.770	800.000	-0.181	0.507
-507.756	-164.677	0.651	-0.030
-506.741	123.726	-0.247	0.312
-505.726	-166.054	1.826	0.078
-504.712	141.604	-0.497	0.663
-503.697	-76.387	-0.459	0.163
-502.683	-105.202	0.791	0.182
-501.668	117.600	0.410	-0.507
-500.653	48.575	0.405	-0.382
-499.639	75.047	0.332	-0.352
-498.624	-200.000	-0.076	0.412
-497.610	-15.249	-0.550	-0.354
-496.595	786.572	-0.261	-0.720
-495.581	184.983	-0.287	0.429
-494.566	-28.626	0.508	0.295
-493.551	76.608	0.751	0.802
-492.537	576.641	-0.183	0.451
-491.522	-169.318	0.292	0.011
-490.508	77.466	0.482	0.516
-489.493	242.722	0.256	0.432
-488.478	168.017	-0.285	0.408
-487.464	41.112	0.239	0.217
-486.449	-146.204	-0.424	0.037
-485.435	427.540	-0.348	-0.755
-484.420	82.551	-0.371	-0.405
-483.405	-157.633	0.413	0.025
-482.391	-32.910	-0.574	-0.320
-481.376	27.412	0.214	0.181
-480.362	126.735	-0.113	-0.144
-479.347	27.194	-0.021	0.018
-478.332	31.437	-0.182	-0.157
-477.318	-61.497	-0.515	-0.218
-476.303	-34.328	-0.512	0.283
-475.289	-96.417	1.174	0.312
-474.274	-200.000	-0.070	-0.365
-473.259	-182.898	0.749	-0.014
-472.245	374.949	-0.210	-0.431
-471.230	-141.345	-0.300	0.031
-470.216	-200.000	-0.031	-0.349
-469.201	114.012	0.554	0.678
-468.186	800.000	-0.043	-0.166
-467.172	-96.236	0.623	-0.166
-466.157	164.297	0.303	0.430
-465.143	-59.487	-0.129	0.056
-464.128	-94.453	-0.765	-0.210
-463.113	-200.000	0.081	-0.553
-462.099	316.290	-0.161	0.305
-461.084	800.000	-0.161	0.459
-460.070	-41.355	0.138	-0.071
-459.055	91.108	0.819	-0.924
-458.040	-200.000	-0.038	-0.174
-457.026	-84.720	-0.750	-0.237
-456.011	160.351	0.211	0.296
-454.997	-171.903	0.358	-0.012
-453.982	-76.175	0.691	0.245
-452.968	101.782	-0.404	0.474
-451.953	569.944	0.273	-0.667
-450.938	343.411	-0.248	0.488
-449.924	-16.089	-0.041	0.026
-448.909	16.278	-0.541	0.429
-447.895	-146.631	-0.632	0.055
-446.880	-139.003	0.975	0.106
-445.865	64.391	0.560	0.567
-444.851	58.122	-0.268	0.264
-443.836	15.668	0.218	0.172
-442.822	129.801	-0.395	-0.508
-441.807	-133.905	-0.444	-0.055
-440.792	-18.633	0.252	-0.158
-439.778	160.946	0.497	0.697
-438.763	-160.250	-0.738	-0.040
-437.749	546.896	0.271	-0.651
-436.734	59.818	0.212	-0.210
-435.719	44.897	0.270	-0.250
-434.705	-200.000	-0.082	-0.669
-433.690	800.000	-0.115	-0.321
-432.676	-200.000	0.009	-0.784
-431.661	-28.918	-0.262	-0.151
-430.646	249.735	-0.504	-0.858
-429.632	-38.131	-0.921	-0.490
-428.617	107.410	0.223	-0.266
-427.603	227.755	0.266	-0.434
-426.588	357.447	0.293	0.586
-425.573	91.419	0.117	-0.132
-424.559	-145.447	0.889	0.080
-423.544	-163.118	0.110	-0.005
-422.530	130.716	-0.246	-0.316
-421.515	48.762	0.192	0.181
-420.500	46.873	-0.439	-0.409
-419.486	253.854	-0.279	-0.479
-418.471	-200.000	-0.056	0.436
-417.457	-145.173	-0.390	0.035
-416.442	-200.000	-0.016	-0.272
-415.428	115.502	0.263	0.323
-414.413	96.837	0.350	0.402
-413.398	224.388	0.213	0.345
-412.384	-130.812	-0.657	-0.088
-411.369	3.020	0.157	-0.114
-410.355	-200.000	-0.125	0.588
-409.340	-146.409	0.430	0.038
-408.325	-177.048	-0.196	0.005
-407.311	800.000	-0.144	0.563
-406.296	191.925	0.299	-0.452
-405.282	-172.931	-0.714	-0.022
-404.267	800.000	-0.024	0.096
-403.252	467.510	-0.291	0.654
-402.238	364.981	0.223	0.451
-401.223	582.463	0.212	-0.522
-400.209	35.655	0.364	0.321
-399.194	-28.236	0.067	0.039
-398.179	120.484	-0.569	-0.708
-397.165	69.238	-0.181	-0.186
-396.150	-42.110	-0.648	-0.332
-395.136	-200.000	-0.006	0.079
-394.121	-200.000	-0.133	-0.732
-393.106	-79.551	0.295	0.100
-392.092	33.452	0.539	-0.469
-391.077	-187.628	-0.877	-0.012
-390.063	42.614	0.268	-0.245
-389.048	56.646	0.278	0.271
-388.033	39.559	-0.551	-0.495
-387.019	142.787	-0.737	0.981
-386.004	-46.970	-0.372	0.182
-384.990	31.171	-0.077	-0.066
-383.975	800.000	0.093	0.352
-382.960	167.923	-0.564	0.805
-381.946	-200.000	-0.140	-0.751
-380.931	-200.000	-0.086	-0.826
-379.917	-115.828	0.249	0.047
-378.902	550.890	-0.173	0.417
-377.888	-157.278	0.907	-0.055
-376.873	-126.772	-0.310	-0.046
-375.858	51.180	0.573	-0.545
-374.844	346.599	-0.181	-0.356
-373.829	-51.816	-0.750	-0.350
-372.815	12.870	-0.086	-0.067
-371.800	40.330	0.595	0.536
-370.785	-75.005	0.482	0.173
-369.771	-162.943	0.127	0.006
-368.756	62.391	0.190	-0.190
-367.742	-112.964	-0.690	0.137
-366.727	-50.063	-0.385	0.183
-365.712	-43.996	-0.589	0.296
-364.698	107.083	-0.298	-0.355
-363.683	42.317	-0.252	-0.230
-362.669	155.198	-0.417	0.574
-361.654	-169.308	0.486	0.018
-360.639	224.502	0.301	0.487
-359.625	-200.000	-0.073	0.391
-358.610	-200.000	-0.036	0.610
-357.596	-200.000	0.004	-0.286
-356.581	-200.000	-0.017	-0.200
-355.566	-30.701	-0.638	-0.362
-354.552	-25.031	-0.377	-0.224
-353.537	-30.544	-0.263	-0.149
-352.523	-84.480	-0.140	0.044
-351.508	241.450	-0.292	0.489
-350.493	800.000	-0.045	0.145
-349.479	59.199	-0.569	-0.561
-348.464	215.187	-0.100	-0.159
-347.450	151.943	0.538	-0.734
-346.435	-43.448	-0.357	0.180
-345.420	-200.000	-0.054	0.697
-344.406	-44.558	0.235	-0.118
-343.391	-200.000	-0.078	0.589
-342.377	800.000	0.078	0.230
-341.362	100.558	0.103	-0.120
-340.348	3.083	0.301	0.219
-339.333	19.550	0.638	0.513
-338.318	451.239	-0.113	-0.250
-337.304	327.385	0.195	-0.374
-336.289	443.205	0.387	-0.848
-335.275	102.771	0.424	-0.496
-334.260	-200.000	0.128	-0.888
-333.245	327.627	0.455	0.874
-332.231	-58.922	0.613	0.265
-331.216	150.521	0.412	0.560
-330.202	43.441	0.148	-0.136
-329.187	-8.146	0.180	-0.121
-328.172	160.104	0.266	-0.370
-327.158	-17.609	-0.243	0.153
-326.143	135.204	0.196	0.255
-325.129	-133.193	0.445	0.056
-324.114	800.000	-0.093	0.314
-323.099	800.000	0.324	1.303
-322.085	449.225	0.150	0.330
-321.070	-163.845	-0.662	-0.031
-320.056	800.000	0.263	-1.032
-319.041	340.394	-0.353	0.688
-318.026	54.337	-0.324	-0.312
-317.012	508.667	0.035	0.081
-315.997	-99.443	0.357	-0.090
-314.983	-23.122	-1.000	-0.602
-313.968	108.441	0.095	0.113
-312.953	-200.000	0.032	0.204
-311.939	-200.000	0.085	-0.509
-310.924	221.071	-0.365	-0.585
-309.910	-186.070	0.528	-0.008
-308.895	-200.000	0.005	0.217
-307.880	-200.000	-0.126	-0.688
-306.866	-200.000	0.014	-0.262
-305.851	-200.000	-0.037	-0.471
-304.837	-78.604	0.040	-0.014
-303.822	420.947	-0.026	0.055
-302.807	430.649	0.319	-0.689
-301.793	-82.566	0.223	0.072
-300.778	-65.668	-0.677	0.271
-299.764	-200.000	0.251	1.213
-298.749	199.628	0.371	0.568
-297.735	-69.932	0.574	-0.219
-296.720	112.131	-0.504	0.608
-295.705	326.551	0.232	0.445
-294.691	497.153	-0.615	1.413
-293.676	99.304	-0.131	-0.152
-292.662	-129.538	0.111	0.015
-291.647	706.307	-0.253	-0.666
-290.632	-97.246	-0.375	0.098
-289.618	800.000	-0.107	0.413
-288.603	-200.000	-0.020	-0.411
-287.589	-200.000	-0.053	0.260
-286.574	-52.369	0.868	0.401
-285.559	60.854	-0.426	0.422
-284.545	39.812	0.114	0.102
-283.530	27.179	-0.917	-0.769
-282.516	-31.093	0.139	0.078
-281.501	-99.783	-0.787	-0.197
-280.486	153.311	0.211	0.288
-279.472	-200.000	-0.012	0.119
-278.457	186.607	0.243	-0.361
-277.443	387.159	-0.490	1.012
-276.428	-129.277	-0.692	0.096
-275.413	201.474	-0.146	0.224
-274.399	786.082	-0.112	0.306
-273.384	-78.436	0.283	-0.097
-272.370	-200.000	0.035	0.237
-271.355	23.918	0.396	0.326
-270.340	154.930	0.379	0.519
-269.326	-200.000	0.076	-0.750
-268.311	-200.000	-0.174	1.052
-267.297	-62.132	-0.211	-0.088
-266.282	13.360	-0.634	0.490
-265.267	-134.397	0.519	-0.063
-264.253	-165.175	-0.498	-0.022
-263.238	-22.075	0.796	0.482
-262.224	800.000	-0.213	0.615
-261.209	-200.000	0.051	0.750
-260.195	102.408	-0.317	0.369
-259.180	129.416	-0.226	-0.288
-258.165	-200.000	0.040	-0.365
-257.151	-200.000	-0.182	1.018
-256.136	324.716	0.155	-0.295
-255.122	30.254	-0.492	-0.419
-254.107	-200.000	0.000	-0.202
-253.092	689.161	-0.385	1.004
-252.078	-172.858	0.425	-0.013
-251.063	-17.553	-0.335	0.210
-250.049	596.197	-0.292	0.720
-249.034	-57.299	-0.327	0.143
-248.019	-76.694	-0.353	-0.123
-247.005	800.000	-0.385	-1.110
-245.990	104.317	-0.441	-0.517
-244.976	800.000	0.072	-0.281
-243.961	-29.601	1.103	-0.628
-242.946	-146.196	0.385	0.034
-241.932	-135.639	-0.656	0.078
-240.917	-98.032	0.479	0.123
-239.903	800.000	0.051	0.214
-238.888	35.772	-0.053	0.047
-237.873	-57.477	0.354	-0.155
-236.859	384.874	0.526	-1.081
-235.844	144.567	-0.300	-0.400
-234.830	27.867	0.153	0.128
-233.815	105.874	0.519	-0.612
-232.800	-117.607	0.318	-0.057
-231.786	-65.891	-0.707	-0.281
-230.771	0.257	0.517	0.368
-229.757	456.628	-0.335	-0.741
-228.742	-142.293	0.227	-0.022
-227.727	-163.268	-0.993	0.047
-226.713	-75.916	0.802	0.283
-225.698	-200.000	-0.039	0.405
-224.684	11.361	0.044	0.033
-223.669	7.142	-0.195	-0.145
-222.655	175.724	0.075	0.108
-221.640	-147.775	0.336	-0.028
-220.625	-58.797	-0.836	0.360
-219.611	70.848	0.355	-0.366
-218.596	516.370	-0.217	0.506
-217.582	-103.300	-0.407	-0.096
-216.567	46.424	-0.188	0.174
-215.552	-148.946	-1.432	0.115
-214.538	-132.943	0.637	0.081
-213.523	93.594	-0.211	0.238
-212.509	-73.808	-0.314	-0.114
-211.494	-200.000	0.008	-0.665
-210.479	800.000	0.142	-0.426
-209.465	248.000	0.246	-0.415
-208.450	123.489	0.283	0.353
-207.436	102.131	-0.456	-0.530
-206.421	-200.000	0.061	0.309
-205.406	61.720	-0.060	0.059
-204.392	553.926	0.198	-0.474
-203.377	-36.235	-0.865	-0.464
-202.363	-36.934	0.348	0.186
-201.348	216.674	-0.241	0.382
-200.333	165.787	0.298	0.420
-199.319	-72.612	0.436	0.160
-198.304	800.000	0.281	0.948
-197.290	18.730	0.467	-0.372
-196.275	-200.000	0.015	0.194
-195.260	-200.000	0.259	1.280
-194.246	-48.189	-0.439	0.211
-193.231	-67.019	0.428	0.168
-192.217	26.444	0.235	0.195
-191.202	-200.000	-0.023	-0.162
-190.187	-96.174	0.207	-0.055
-189.173	191.681	0.543	0.814
-188.158	52.731	-0.516	0.491
-187.144	-200.000	-0.038	-0.402
-186.129	800.000	0.215	0.671
-185.114	126.059	0.369	0.464
-184.100	-92.063	-0.869	0.244
-183.085	102.107	-0.430	-0.499
-182.071	-79.092	1.013	0.342
-181.056	-175.119	0.188	-0.005
-180.042	43.177	-0.518	0.470
-179.027	36.334	0.107	0.093
-178.012	-4.477	0.427	-0.294
-176.998	-28.807	0.573	0.328
-175.983	-141.249	0.397	0.040
-174.969	381.136	0.381	-0.777
-173.954	-86.472	0.762	0.233
-172.939	-42.714	0.801	0.405
-171.925	22.094	-0.514	0.417
-170.910	440.847	0.257	0.560
-169.896	75.472	-0.243	0.255
-168.881	37.100	0.436	-0.383
-167.866	-200.000	-0.037	-0.398
-166.852	-151.196	-0.165	-0.012
-165.837	-15.530	-0.338	0.214
-164.823	255.122	-0.511	-0.870
-163.808	-200.000	0.038	-0.324
-162.793	62.482	0.305	0.303
-161.779	-200.000	-0.006	-0.375
-160.764	119.474	0.452	0.555
-159.750	-100.519	-0.694	0.170
-158.735	26.510	0.361	-0.300
-157.720	75.892	-0.179	-0.188
-156.706	-167.030	-1.219	-0.049
-155.691	-200.000	-0.561	0.001
-154.677	-200.000	-0.136	0.742
-153.662	-200.000	-0.125	-0.628
-152.647	281.488	-0.165	-0.293
-151.633	-200.000	0.136	0.821
-150.618	-171.617	0.875	0.029
-149.604	800.000	-0.261	-0.998
-148.589	800.000	-0.179	-0.535
-147.574	800.000	-0.315	0.992
-146.560	-182.850	0.662	0.012
-145.545	211.128	-0.470	0.735
-144.531	105.945	-0.233	-0.274
-143.516	290.542	0.317	0.572
-142.502	-200.000	-0.017	-0.094
-141.487	-44.012	-0.762	-0.380
-140.472	-200.000	-0.009	-0.209
-139.458	34.152	-0.506	0.438
-138.443	-3.934	-0.553	-0.381
-137.429	47.425	-0.102	0.094
-136.414	-200.000	0.437	-0.000
-135.399	800.000	0.088	-0.331
-134.385	-39.027	0.437	0.228
-133.370	-49.700	1.029	0.486
-132.356	-36.540	-0.640	0.342
-131.341	800.000	0.153	0.570
-130.326	-108.316	-0.557	0.119
-129.312	55.873	-0.345	-0.332
-128.297	91.074	0.653	-0.727
-127.283	662.243	-0.087	-0.223
-126.268	-1.739	0.420	0.293
-125.253	800.000	0.144	0.601
-124.239	800.000	-0.219	0.776
-123.224	567.432	0.210	-0.506
-122.210	369.128	0.166	-0.333
-121.195	-58.599	-0.132	-0.057
-120.180	-85.380	-0.660	-0.204
-119.166	397.735	0.343	0.712
-118.151	-164.583	-0.293	0.013
-117.137	405.166	-0.032	0.066
-116.122	99.520	0.413	-0.474
-115.107	-104.244	-0.231	0.053
-114.093	800.000	-0.019	-0.064
-113.078	395.944	-0.193	-0.400
-112.064	-200.000	0.123	0.837
-111.049	-36.708	-0.714	0.380
-110.034	-144.380	-0.425	0.039
-109.020	37.768	0.205	0.181
-108.005	384.919	-0.516	1.056
-106.991	-200.000	0.080	0.484
-105.976	-85.992	-0.301	-0.092
-104.962	-79.594	0.286	0.096
-103.947	238.090	-0.244	-0.402
-102.932	-200.000	-0.016	-0.119
-101.918	-200.000	-0.121	0.666
-100.903	-36.039	-0.818	0.438
-99.889	800.000	-0.115	-0.334
-98.874	8.907	0.388	-0.290
-97.859	389.170	0.229	-0.470
-96.845	74.065	-0.221	0.229
-95.830	49.486	-0.259	-0.242
-94.816	-200.000	0.069	-0.745
-93.801	800.000	-0.165	0.594
-92.786	-10.745	0.206	-0.135
-91.772	-200.000	0.236	-1.057
-90.757	800.000	0.039	0.155
-89.743	-100.797	0.151	0.037
-88.728	-134.205	0.716	0.087
-87.713	800.000	0.085	-0.259
-86.699	-200.000	-0.215	-0.984
-85.684	-200.000	-0.014	-0.430
-84.670	-33.039	0.365	0.200
-83.655	-116.316	-0.766	-0.140
-82.640	-16.288	0.290	-0.182
-81.626	-200.000	-0.012	-0.163
-80.611	-93.444	-0.657	0.180
-79.597	438.030	0.134	-0.289
-78.582	84.888	-0.584	0.633
-77.567	-200.000	-0.064	-0.482
-76.553	138.968	0.251	-0.327
-75.538	58.034	-0.551	-0.534
-74.524	-5.917	-0.882	-0.597
-73.509	21.555	0.352	-0.284
-72.494	223.436	-0.272	0.435
-71.480	-56.724	0.153	-0.067
-70.465	4.692	-0.439	0.319
-69.451	150.346	-0.520	0.699
-68.436	55.251	0.432	0.414
-67.422	187.536	0.083	-0.123
-66.407	630.806	-0.086	-0.215
-65.392	-200.000	0.003	-0.608
-64.378	411.025	-0.432	-0.907
-63.363	238.461	-0.356	0.586
-62.349	-156.024	-0.387	0.024
-61.334	337.912	-0.348	-0.669
-60.319	65.679	0.878	0.880
-59.305	800.000	-0.212	-0.701
-58.290	248.200	0.785	1.313
-57.276	-200.000	0.173	1.574
-56.261	-200.000	96.333	576.943
-55.246	641.643	1368.706	3449.633
-54.232	196.881	2544.720	3838.594
-53.217	109.026	2288.533	2708.155
-52.203	39.771	2050.826	1820.662
-51.188	35.075	1964.544	1702.365
-50.173	33.684	1946.446	1674.346
-49.159	49.147	1999.332	1858.521
-48.144	49.915	2017.147	1881.882
-47.130	35.506	1978.582	1718.116
-46.115	33.389	1966.622	1688.804
-45.100	33.010	1964.406	1683.462
-44.086	33.140	1961.254	1681.848
-43.071	33.258	1959.596	1681.406
-42.057	33.001	1958.181	1677.844
-41.042	33.112	1955.082	1676.107
-40.027	33.443	1952.315	1676.601
-39.013	33.195	1950.656	1672.911
-37.998	33.326	1949.582	1673.086
-36.984	33.058	1947.803	1669.125
-35.969	33.104	1947.195	1668.939
-34.954	33.185	1944.424	1667.219
-33.940	33.365	1942.849	1667.386
-32.925	33.390	1941.100	1666.032
-31.911	33.435	1939.371	1664.881
-30.896	33.121	1938.680	1661.459
-29.881	33.429	1936.139	1661.926
-28.867	33.459	1934.106	1660.375
-27.852	33.265	1934.003	1658.524
-26.838	33.121	1933.327	1656.613
-25.823	33.254	1929.657	1654.565
-24.809	33.348	1927.504	1653.473
-23.794	33.406	1926.665	1653.191
-22.779	33.256	1923.407	1649.025
-21.765	33.391	1922.386	1649.259
-20.750	33.339	1921.068	1647.616
-19.736	33.451	1918.289	1646.141
-18.721	33.254	1918.122	1644.218
-17.706	33.579	1915.998	1645.156
-16.692	33.204	1915.404	1641.321
-15.677	33.423	1912.422	1640.598
-14.663	33.460	1910.912	1639.561
-13.648	33.526	1909.685	1639.016
-12.633	33.463	1909.119	1637.916
-11.619	33.300	1907.587	1635.132
-10.604	33.263	1906.576	1633.880
-9.590	33.127	1905.692	1631.886
-8.575	33.233	1903.278	1630.664
-7.560	33.437	1901.610	1630.927
-6.546	33.337	1900.972	1629.457
-5.531	33.359	1899.881	1628.644
-4.517	33.196	1899.451	1626.809
-3.502	33.165	1897.930	1625.172
-2.487	33.348	1895.634	1624.715
-1.473	33.361	1894.850	1624.091
-0.458	33.465	1890.497	1621.187
0.556	34.079	1872.525	1592.914
1.571	29.854	1850.926	1539.345
2.586	25.808	1871.745	1522.405
3.600	24.481	1907.282	1539.731
4.615	23.958	1902.207	1530.999
5.629	18.436	1801.707	1404.839
6.644	8.520	1681.627	1234.850
7.659	3.277	1646.315	1169.090
8.673	3.129	1640.663	1163.853
9.688	2.860	1641.040	1161.983
10.702	2.947	1638.555	1160.778
11.717	2.864	1636.017	1158.252
12.731	3.348	1635.324	1161.308
13.746	9.954	1651.631	1222.940
14.761	19.882	1672.889	1314.351
15.775	24.777	1682.161	1358.800
16.790	25.431	1681.877	1363.416
17.804	25.780	1680.653	1364.947
18.819	25.617	1681.350	1364.159
19.834	25.764	1680.544	1364.499
20.848	25.934	1680.574	1365.687
21.863	26.159	1678.878	1365.890
22.877	26.119	1678.132	1364.860
23.892	26.263	1676.482	1364.485
24.907	26.254	1675.534	1363.525
25.921	26.155	1674.338	1361.686
26.936	26.299	1673.150	1361.684
27.950	26.275	1672.271	1360.667
28.965	26.208	1672.136	1359.937
29.980	26.252	1671.061	1359.270
30.994	26.219	1669.450	1357.594
32.009	26.005	1670.031	1356.334
33.023	26.164	1667.884	1355.668
34.038	26.347	1665.790	1355.216
35.053	26.271	1667.016	1355.524
36.067	26.226	1665.198	1353.590
37.082	26.197	1663.552	1351.910
38.096	26.222	1663.478	1351.923
39.111	26.215	1661.200	1349.896
40.126	26.101	1661.619	1349.265
41.140	26.237	1660.508	1349.261
42.155	26.335	1659.564	1349.104
43.169	26.387	1657.284	1347.523
44.184	26.076	1656.776	1344.668
45.199	26.305	1655.527	1345.240
46.213	26.154	1654.846	1343.444
47.228	26.188	1653.840	1342.766
48.242	26.131	1652.232	1340.912
49.257	26.076	1651.131	1339.498
50.271	26.182	1649.781	1339.068
51.286	26.119	1648.393	1337.357
52.301	26.214	1646.431	1336.350
53.315	26.155	1645.836	1335.309
54.330	26.383	1643.898	1335.307
55.344	26.322	1642.063	1333.246
56.359	26.296	1640.740	1331.861
57.374	26.349	1640.196	1331.695
58.388	26.143	1638.476	1328.664
59.403	26.245	1637.955	1328.875
60.417	26.170	1636.754	1327.231
61.432	26.283	1634.647	1326.233
62.447	26.106	1635.207	1325.272
63.461	26.224	1633.837	1324.909
64.476	26.297	1632.657	1324.368
65.490	26.294	1631.616	1323.385
66.505	26.190	1631.103	1322.092
67.520	26.438	1629.165	1322.213
68.534	26.141	1629.035	1319.823
69.549	26.445	1627.344	1320.559
70.563	26.424	1625.285	1318.618
71.578	26.393	1625.634	1318.554
72.593	26.507	1625.075	1318.817
73.607	26.208	1624.302	1315.897
74.622	26.248	1623.818	1315.678
75.636	26.274	1622.218	1314.457
76.651	26.520	1620.897	1315.055
77.666	26.440	1619.410	1313.151
78.680	26.570	1619.616	1314.148
79.695	26.529	1617.851	1312.303
80.709	26.558	1617.302	1311.949
81.724	26.335	1617.568	1310.432
82.739	26.462	1615.672	1309.701
83.753	26.435	1614.903	1308.767
84.768	26.521	1613.271	1307.950
85.782	26.459	1611.573	1306.008
86.797	26.472	1611.789	1306.161
87.812	26.694	1609.584	1305.863
88.826	26.407	1610.372	1304.310
89.841	26.697	1606.419	1303.083
90.855	26.591	1607.649	1303.199
91.870	26.355	1606.737	1300.652
92.884	26.395	1605.758	1300.030
93.899	26.409	1603.837	1298.463
94.914	26.444	1602.354	1297.393
95.928	26.526	1600.647	1296.486
96.943	26.601	1599.670	1296.118
97.957	26.355	1598.111	1292.982
98.972	26.550	1596.809	1293.208
99.987	26.515	1594.825	1291.237
101.001	26.406	1594.461	1290.049
102.016	26.322	1593.307	1288.400
103.030	26.307	1591.645	1286.839
104.045	26.364	1590.554	1286.246
105.060	26.523	1588.468	1285.578
106.074	26.393	1587.307	1283.595
107.089	26.539	1585.186	1282.806
108.103	26.617	1584.254	1282.491
109.118	26.500	1583.221	1280.714
110.133	26.411	1581.682	1278.724
111.147	26.335	1580.121	1276.812
112.162	26.252	1580.497	1276.420
113.176	26.454	1578.611	1276.209
114.191	26.472	1576.568	1274.569
115.206	26.453	1575.953	1273.825
116.220	26.488	1575.054	1273.231
117.235	26.759	1572.505	1272.965
118.249	26.575	1572.409	1271.480
119.264	26.379	1571.037	1268.880
120.279	26.398	1570.399	1268.391
121.293	26.554	1568.711	1268.002
122.308	26.680	1567.400	1267.717
123.322	26.560	1566.218	1265.807
124.337	26.501	1565.029	1264.320
125.352	26.713	1563.153	1264.176
126.366	26.635	1563.445	1263.752
127.381	26.562	1561.477	1261.542
128.395	26.688	1560.475	1261.498
129.410	26.702	1558.799	1260.131
130.424	26.652	1558.705	1259.594
131.439	26.620	1557.797	1258.529
132.454	26.646	1556.319	1257.399
133.468	26.563	1554.242	1255.041
134.483	26.568	1552.320	1253.408
135.497	26.721	1551.878	1253.998
136.512	26.651	1550.850	1252.575
137.527	26.723	1549.388	1251.779
138.541	26.647	1548.867	1250.722
139.556	26.780	1546.638	1249.731
140.570	26.847	1545.016	1248.768
141.585	26.672	1544.077	1246.698
142.600	26.762	1544.365	1247.440
143.614	26.736	1542.609	1245.728
144.629	26.571	1541.452	1243.554
145.643	26.712	1539.062	1242.479
146.658	26.603	1539.058	1241.622
147.673	26.741	1537.867	1241.496
148.687	26.647	1536.622	1239.735
149.702	26.675	1535.258	1238.718
150.716	26.757	1533.023	1237.364
151.731	26.885	1531.797	1237.142
152.746	26.827	1531.695	1236.551
153.760	26.952	1530.134	1236.033
154.775	26.794	1530.255	1234.947
155.789	26.967	1528.206	1234.361
156.804	27.066	1526.725	1233.728
157.819	26.841	1525.373	1231.000
158.833	27.013	1525.041	1231.789
159.848	26.702	1524.973	1229.517
160.862	26.780	1524.533	1229.580
161.877	26.733	1523.235	1228.103
162.892	26.902	1520.624	1227.034
163.906	26.896	1520.517	1226.798
164.921	26.641	1520.858	1225.239
165.935	26.977	1518.403	1225.428
166.950	26.784	1518.443	1224.042
167.964	26.796	1517.484	1223.244
168.979	26.807	1516.568	1222.473
169.994	26.877	1515.441	1221.924
171.008	27.007	1513.255	1220.928
172.023	26.960	1513.352	1220.588
173.037	27.097	1510.950	1219.458
174.052	26.960	1511.740	1219.070
175.067	26.889	1510.654	1217.611
176.081	26.796	1509.226	1215.728
177.096	26.915	1508.406	1215.756
178.110	26.838	1507.388	1214.314
179.125	26.810	1507.699	1214.268
180.140	26.787	1505.886	1212.545
181.154	26.998	1504.817	1212.985
182.169	27.043	1503.198	1211.877
183.183	27.150	1502.089	1211.586
184.198	27.075	1501.392	1210.418
185.213	27.076	1501.135	1210.110
186.227	27.028	1500.176	1208.912
187.242	27.076	1499.945	1208.939
188.256	27.131	1498.816	1208.289
189.271	27.337	1496.634	1207.786
190.286	27.114	1496.451	1206.055
191.300	27.151	1495.544	1205.462
192.315	27.046	1495.464	1204.597
193.329	27.160	1494.906	1204.793
194.344	27.340	1493.607	1204.832
195.359	27.216	1492.614	1203.103
196.373	27.087	1491.862	1201.536
197.388	27.083	1491.047	1200.752
198.402	27.120	1490.047	1200.081
199.417	27.045	1489.264	1198.850
200.432	27.270	1486.058	1197.647
201.446	27.181	1487.951	1198.479
202.461	27.322	1486.333	1197.994
203.475	27.231	1485.689	1196.772
204.490	27.310	1484.132	1195.933
205.504	27.128	1484.359	1194.812
206.519	27.239	1482.898	1194.260
207.534	27.215	1482.024	1193.291
208.548	27.129	1481.894	1192.520
209.563	27.365	1480.698	1192.995
210.577	27.538	1479.216	1192.834
211.592	27.364	1479.362	1191.705
212.607	27.215	1478.808	1190.175
213.621	27.338	1476.689	1189.167
214.636	27.292	1477.116	1189.107
215.650	27.195	1476.347	1187.748
216.665	27.150	1475.763	1186.884
217.680	27.550	1473.837	1187.833
218.694	27.282	1473.482	1185.694
219.709	27.258	1473.426	1185.392
220.723	27.379	1471.825	1184.787
221.738	27.519	1471.045	1184.962
222.753	27.515	1469.775	1183.812
223.767	27.194	1468.822	1180.855
224.782	27.402	1468.507	1181.844
225.796	27.236	1468.608	1180.741
226.811	27.307	1467.009	1179.817
227.826	27.378	1466.740	1179.953
228.840	26.946	1466.872	1177.152
229.855	27.341	1464.682	1177.849
230.869	27.351	1463.563	1176.910
231.884	27.321	1462.971	1176.136
232.899	27.315	1461.614	1174.906
233.913	27.409	1460.577	1174.570
234.928	27.369	1460.166	1173.876
235.942	27.541	1458.426	1173.487
236.957	27.632	1458.157	1173.751
237.972	27.683	1456.600	1172.724
238.986	27.639	1455.066	1171.098
240.001	27.538	1454.808	1170.141
241.015	27.554	1454.047	1169.528
242.030	27.464	1453.220	1168.178
243.045	27.768	1451.796	1168.882
244.059	27.682	1450.969	1167.561
245.074	27.752	1450.383	1167.435
246.088	27.957	1448.608	1167.208
247.103	28.003	1448.969	1167.692
248.117	27.790	1448.138	1165.559
249.132	27.796	1447.792	1165.214
250.147	27.688	1446.399	1163.304
251.161	27.881	1445.989	1164.103
252.176	27.945	1446.289	1164.649
253.190	27.954	1445.293	1163.799
254.205	27.825	1444.200	1161.997
255.220	27.820	1443.808	1161.547
256.234	27.892	1442.225	1160.627
257.249	27.917	1441.826	1160.360
258.263	28.007	1439.761	1159.165
259.278	27.708	1440.659	1157.889
260.293	27.802	1439.623	1157.551
261.307	27.717	1438.953	1156.372
262.322	27.895	1438.230	1156.817
263.336	27.945	1437.084	1156.110
264.351	27.771	1436.788	1154.668
265.366	27.757	1435.407	1153.369
266.380	28.008	1434.746	1154.321
267.395	27.754	1433.701	1151.772
268.409	27.962	1432.866	1152.312
269.424	27.828	1432.193	1150.821
270.439	27.884	1431.098	1150.193
271.453	27.938	1430.517	1149.966
272.468	27.820	1429.061	1147.953
273.482	27.893	1428.985	1148.251
274.497	28.054	1428.815	1149.021
275.512	28.086	1426.894	1147.579
276.526	27.966	1425.959	1145.968
277.541	28.031	1425.075	1145.565
278.555	27.999	1424.438	1144.753
279.570	27.909	1424.070	1143.790
280.585	27.870	1423.660	1143.116
281.599	28.293	1420.833	1143.389
282.614	27.921	1421.181	1141.244
283.628	28.071	1421.081	1142.001
284.643	27.885	1419.887	1139.780
285.657	27.772	1419.322	1138.521
286.672	27.881	1418.422	1138.375
287.687	28.014	1417.338	1138.230
288.701	27.733	1417.464	1136.484
289.716	28.002	1415.351	1136.362
290.730	28.139	1415.565	1137.285
291.745	28.067	1414.979	1136.262
292.760	27.972	1413.393	1134.298
293.774	28.246	1412.016	1134.797
294.789	27.882	1412.294	1132.660
295.803	28.020	1411.688	1132.930
296.818	28.359	1409.328	1133.032
297.833	28.221	1409.494	1132.213
298.847	28.298	1408.489	1131.780
299.862	28.146	1407.031	1129.569
300.876	27.908	1407.564	1128.428
301.891	28.081	1405.004	1127.345
302.906	28.073	1404.806	1127.033
303.920	28.275	1403.821	1127.388
304.935	27.962	1403.941	1125.457
305.949	28.037	1402.515	1124.673
306.964	28.159	1401.908	1124.838
307.979	28.181	1400.836	1124.016
308.993	28.192	1399.579	1122.978
310.008	28.125	1398.966	1121.976
311.022	28.139	1398.416	1121.518
312.037	28.340	1397.153	1121.635
313.052	28.026	1397.294	1119.725
314.066	28.007	1396.119	1118.568
315.081	28.036	1394.749	1117.555
316.095	27.994	1394.012	1116.608
317.110	28.071	1393.205	1116.332
318.125	27.702	1393.772	1114.433
319.139	27.814	1391.968	1113.576
320.154	27.959	1390.526	1113.205
321.168	27.837	1389.971	1111.920
322.183	27.955	1388.833	1111.630
323.197	28.104	1387.277	1111.190
324.212	28.087	1387.300	1111.011
325.227	28.084	1385.842	1109.724
326.241	28.084	1384.960	1108.920
327.256	28.116	1383.806	1108.091
328.270	28.126	1384.938	1108.957
329.285	28.244	1383.175	1108.165
330.300	28.105	1382.322	1106.541
331.314	28.487	1381.114	1107.788
332.329	28.265	1380.661	1105.982
333.343	28.022	1380.480	1104.275
334.358	28.313	1379.515	1105.161
335.373	28.368	1378.670	1104.717
336.387	28.291	1378.453	1103.982
337.402	27.969	1377.618	1101.273
338.416	28.286	1375.896	1101.707
339.431	28.290	1376.009	1101.725
340.446	28.143	1375.126	1100.034
341.460	28.478	1373.518	1100.664
342.475	28.428	1372.894	1099.767
343.489	28.143	1372.094	1097.321
344.504	28.266	1371.081	1097.148
345.519	28.243	1370.618	1096.546
346.533	28.364	1368.936	1095.826
347.548	28.063	1368.413	1093.510
348.562	28.008	1368.533	1093.179
349.577	28.193	1366.552	1092.602
350.592	28.370	1365.749	1092.925
351.606	27.823	1366.406	1090.085
352.621	28.177	1364.538	1090.608
353.635	28.274	1362.997	1089.857
354.650	28.329	1362.778	1089.915
355.665	28.212	1361.959	1088.468
356.679	28.056	1361.670	1087.211
357.694	28.269	1359.366	1086.540
358.708	28.353	1358.544	1086.285
359.723	28.094	1357.958	1084.186
360.738	28.291	1357.262	1084.703
361.752	28.153	1356.096	1082.859
362.767	28.261	1354.333	1081.990
363.781	28.435	1353.772	1082.476
364.796	28.363	1353.387	1081.648
365.810	28.214	1353.011	1080.371
366.825	28.386	1352.047	1080.520
367.840	28.215	1352.236	1079.568
368.854	28.092	1350.509	1077.371
369.869	28.151	1350.531	1077.635
370.883	28.249	1349.070	1076.954
371.898	28.332	1348.378	1076.792
372.913	28.390	1347.074	1076.000
373.927	28.194	1347.575	1075.149
374.942	28.449	1344.960	1074.467
375.956	28.317	1345.723	1074.207
376.971	28.149	1345.235	1072.736
377.986	28.140	1343.931	1071.550
379.000	28.263	1342.931	1071.378
380.015	28.087	1342.551	1069.949
381.029	28.108	1342.419	1069.868
382.044	28.116	1341.044	1068.725
383.059	28.042	1340.708	1067.930
384.073	28.085	1339.377	1067.030
385.088	28.226	1339.156	1067.583
386.102	27.915	1338.821	1065.405
387.117	28.230	1337.809	1066.342
388.132	28.054	1336.849	1064.456
389.146	28.095	1335.935	1063.874
390.161	28.162	1335.517	1063.839
391.175	28.237	1335.428	1064.105
392.190	28.489	1334.076	1064.401
393.205	28.135	1333.192	1061.545
394.219	28.226	1332.875	1061.725
395.234	28.104	1331.713	1060.002
396.248	28.345	1330.569	1060.393
397.263	28.278	1328.954	1058.622
398.278	28.158	1329.168	1058.005
399.292	28.032	1327.511	1055.864
400.307	28.174	1326.495	1055.785
401.321	28.288	1324.993	1055.154
402.336	28.337	1324.199	1054.707
403.350	28.085	1324.109	1053.090
404.365	28.075	1322.967	1052.033
405.380	28.020	1323.562	1052.095
406.394	28.218	1321.401	1051.426
407.409	28.324	1320.402	1051.146
408.423	28.160	1320.417	1050.124
409.438	28.308	1318.968	1049.725
410.453	28.108	1318.160	1047.843
411.467	28.277	1317.704	1048.358
412.482	28.491	1316.382	1048.436
413.496	28.191	1315.900	1046.241
414.511	27.941	1315.602	1044.484
415.526	28.277	1314.564	1045.489
416.540	28.279	1314.444	1045.310
417.555	28.406	1312.352	1044.276
418.569	28.082	1312.970	1042.830
419.584	28.188	1312.688	1043.120
420.599	28.366	1311.830	1043.360
421.613	142.011	1436.115	1792.081
422.628	137.761	1454.198	1792.188
