DTS Sentinel unit serial number:	SN413079Multiplexer serial number:	ORYXHardware model number:	OX4-SRSoftware version number:	ORYX F/W v4.00 Oryx Data Collector v3.7.2.0data status	okinstallation	princeton_trtdifferential loss correction	single-endedforward channel	channel 4reverse channel	N/Adate	2019/09/12time	19:22:19forward acquisition time	15.00reverse acquisition time	0.00gamma	496.2192k internal	0.2308k external	0.2308temperature offset calibration	1.0147default loss term (dB/km)	0.3790temperature slope calibration	1.0000multiplexer offset coefficient	1.0000multiplexer slope coefficient	1.0000fibre end	0.00T internal ref (°C)	32.37T ext. ref 1 (°C)	3.22T ext. ref 2 (°C)	26.95length (m)	temperature (°C)	Stokes	anti-Stokes-747.200	-27.931	0.682	-0.402
-746.185	-200.000	0.019	-0.229
-745.171	-61.599	0.533	0.227
-744.156	73.138	-0.281	0.299
-743.142	-113.541	-0.734	0.146
-742.127	32.796	0.267	0.235
-741.112	-121.739	0.979	0.164
-740.098	114.669	-0.314	0.389
-739.083	289.496	-0.157	-0.289
-738.069	62.024	0.719	0.729
-737.054	-187.066	0.401	-0.006
-736.039	-69.150	0.476	0.186
-735.025	800.000	-0.179	-0.651
-734.010	586.867	-0.210	0.525
-732.996	55.034	0.560	0.549
-731.981	-141.833	0.422	-0.043
-730.966	10.225	-0.308	0.238
-729.952	-179.250	-0.710	-0.016
-728.937	-86.056	0.591	0.185
-727.923	-111.161	-0.529	-0.110
-726.908	-184.609	0.586	0.010
-725.894	800.000	0.300	0.861
-724.879	-200.000	0.020	0.686
-723.864	-150.188	0.489	-0.038
-722.850	-57.757	-0.504	0.224
-721.835	-153.006	0.522	-0.037
-720.821	386.732	0.514	1.079
-719.806	-200.000	-0.009	0.258
-718.791	216.280	0.216	0.349
-717.777	-10.647	-0.084	0.056
-716.762	-134.108	-0.464	0.058
-715.748	-200.000	0.010	0.626
-714.733	73.532	-0.363	0.386
-713.718	-118.316	0.204	-0.037
-712.704	800.000	-0.234	0.773
-711.689	-75.093	-0.554	0.201
-710.675	34.194	-0.646	-0.571
-709.660	190.562	0.291	0.444
-708.645	77.627	0.377	-0.407
-707.631	-141.320	-0.491	0.051
-706.616	-137.858	0.456	0.052
-705.602	-200.000	0.045	0.572
-704.587	321.757	0.288	-0.556
-703.572	-55.434	0.924	-0.421
-702.558	425.650	0.312	0.683
-701.543	-6.189	-0.356	-0.247
-700.529	-99.007	-0.698	-0.180
-699.514	-52.558	0.592	-0.278
-698.499	0.632	0.642	0.466
-697.485	61.585	-0.448	-0.452
-696.470	402.230	-0.169	-0.361
-695.456	-200.000	-0.145	-0.856
-694.441	-57.516	0.548	-0.244
-693.426	-82.472	-0.461	-0.152
-692.412	-109.816	-0.780	0.166
-691.397	-106.801	0.423	-0.095
-690.383	90.306	0.319	0.362
-689.368	322.300	-0.083	0.160
-688.354	-200.000	-0.054	-0.655
-687.339	800.000	-0.316	-0.960
-686.324	-200.000	0.117	-0.810
-685.310	-180.617	0.637	0.013
-684.295	800.000	0.086	-0.381
-683.281	-35.407	-0.256	0.141
-682.266	-1.641	-0.686	-0.490
-681.251	800.000	0.289	-0.930
-680.237	2.627	1.062	-0.780
-679.222	51.096	0.314	0.302
-678.208	800.000	0.078	0.271
-677.193	14.861	-0.596	-0.473
-676.178	15.616	-0.328	0.261
-675.164	-158.975	-0.153	0.009
-674.149	-101.720	-0.239	-0.059
-673.135	-168.784	-0.553	-0.021
-672.120	3.132	0.248	-0.183
-671.105	-1.872	0.854	-0.609
-670.091	800.000	-0.183	0.666
-669.076	800.000	0.007	-0.024
-668.062	800.000	0.070	0.230
-667.047	79.757	0.422	0.459
-666.032	800.000	0.307	-0.996
-665.018	493.295	-0.058	-0.135
-664.003	71.376	-0.219	-0.230
-662.989	433.845	0.192	0.421
-661.974	41.935	-0.670	-0.616
-660.959	-200.000	0.033	0.296
-659.945	-200.000	0.131	0.658
-658.930	51.089	0.198	-0.190
-657.916	-30.504	0.322	0.185
-656.901	381.840	-0.096	0.200
-655.886	168.916	0.566	0.817
-654.872	139.813	0.468	0.624
-653.857	543.086	-0.193	0.465
-652.843	800.000	-0.171	0.584
-651.828	-55.657	0.221	0.100
-650.814	-86.162	-1.039	-0.324
-649.799	-148.477	0.147	0.012
-648.784	-89.422	-0.809	0.241
-647.770	148.542	-0.482	0.660
-646.755	-132.470	-0.554	-0.072
-645.741	308.305	0.268	0.506
-644.726	306.975	-0.496	-0.936
-643.711	-73.336	-0.350	-0.130
-642.697	-167.198	0.846	-0.035
-641.682	-34.830	-0.540	0.299
-640.668	-41.461	-0.278	-0.145
-639.653	800.000	0.164	0.559
-638.638	-25.889	0.958	-0.571
-637.624	-200.000	0.077	0.367
-636.609	-200.000	0.075	1.625
-635.595	800.000	-0.086	0.348
-634.580	283.429	-0.311	0.566
-633.565	-110.561	-0.680	-0.142
-632.551	92.242	-0.412	-0.470
-631.536	-70.158	-0.232	-0.089
-630.522	-200.000	-0.120	0.575
-629.507	54.197	-0.416	-0.405
-628.492	-102.667	0.950	0.229
-627.478	-47.084	0.140	-0.069
-626.463	426.686	0.369	0.805
-625.449	-120.376	-0.438	0.075
-624.434	-119.346	0.285	0.050
-623.419	24.012	0.449	0.375
-622.405	42.148	-0.616	-0.566
-621.390	-114.594	0.146	0.028
-620.376	-69.572	-0.062	-0.024
-619.361	-64.752	0.725	0.297
-618.346	536.502	0.040	0.097
-617.332	456.464	-0.248	-0.557
-616.317	-69.497	0.830	-0.322
-615.303	-172.485	-0.921	0.030
-614.288	126.133	0.431	0.551
-613.273	-143.621	0.339	-0.033
-612.259	-36.509	-0.350	0.191
-611.244	-200.000	0.070	-0.570
-610.230	223.324	-0.069	-0.112
-609.215	-110.978	0.336	-0.070
-608.201	-42.802	-0.583	0.299
-607.186	115.060	-0.407	-0.503
-606.171	-43.200	-0.345	-0.176
-605.157	563.932	0.396	-0.968
-604.142	146.829	0.142	0.193
-603.128	109.378	0.294	0.356
-602.113	-98.328	-0.560	0.145
-601.098	309.759	-0.501	-0.948
-600.084	267.833	-0.388	-0.687
-599.069	-146.928	0.332	0.029
-598.055	645.618	-0.123	-0.319
-597.040	-200.000	-0.053	-0.409
-596.025	-200.000	-0.059	0.462
-595.011	800.000	0.157	0.492
-593.996	-64.745	-0.438	-0.179
-592.982	341.178	-0.087	0.171
-591.967	368.996	-0.413	0.845
-590.952	514.448	0.256	-0.602
-589.938	357.620	-0.080	0.161
-588.923	-200.000	1.033	-0.002
-587.909	7.183	-0.189	0.142
-586.894	22.878	-0.202	0.168
-585.879	-136.592	-0.769	0.090
-584.865	-200.000	0.086	-0.521
-583.850	538.475	0.306	-0.734
-582.836	-55.144	-0.205	0.093
-581.821	190.964	0.036	0.054
-580.806	-99.443	-0.351	0.089
-579.792	800.000	0.133	-0.581
-578.777	-192.467	-0.285	-0.003
-577.763	-57.135	-0.134	0.059
-576.748	147.844	-0.843	-1.148
-575.733	30.308	-1.033	0.891
-574.719	175.076	0.270	0.394
-573.704	162.326	-0.378	-0.536
-572.690	800.000	0.140	-0.447
-571.675	-100.676	0.695	-0.173
-570.661	800.000	0.063	-0.258
-569.646	173.735	0.387	0.564
-568.631	-9.478	-0.361	-0.243
-567.617	-200.000	-0.076	-0.427
-566.602	-110.857	0.614	-0.128
-565.588	192.307	0.030	0.046
-564.573	-70.025	-0.606	-0.233
-563.558	-139.322	-0.480	-0.052
-562.544	571.007	-0.385	0.946
-561.529	91.427	-0.824	0.935
-560.515	643.366	-0.225	0.578
-559.500	-200.000	0.377	0.001
-558.485	-200.000	0.086	-0.398
-557.471	143.889	0.051	0.069
-556.456	-4.067	-0.376	-0.263
-555.442	-116.041	-0.831	0.156
-554.427	-184.077	-0.451	0.008
-553.412	-200.000	0.003	-0.211
-552.398	-200.000	0.079	0.835
-551.383	-180.688	-0.356	0.007
-550.369	-200.000	0.023	0.814
-549.354	-200.000	-0.028	-0.262
-548.339	-200.000	-0.071	-0.630
-547.325	94.834	-0.316	0.363
-546.310	-78.442	0.484	0.167
-545.296	-200.000	-0.004	0.602
-544.281	-200.000	1.322	-0.006
-543.266	-41.715	0.670	-0.347
-542.252	118.890	0.393	0.489
-541.237	-200.000	0.156	-0.858
-540.223	561.196	0.061	-0.150
-539.208	-200.000	0.071	-0.407
-538.193	691.971	-0.244	0.645
-537.179	-55.086	0.911	-0.414
-536.164	211.518	0.034	-0.054
-535.150	396.312	-0.161	-0.338
-534.135	-200.000	-0.176	0.886
-533.121	68.374	-0.564	0.583
-532.106	-58.509	0.884	0.387
-531.091	-56.467	0.266	-0.119
-530.077	577.010	0.170	-0.419
-529.062	-90.077	-0.245	-0.072
-528.048	800.000	-0.059	-0.230
-527.033	-13.575	0.045	-0.029
-526.018	60.005	-0.416	-0.414
-525.004	-200.000	-0.027	-0.292
-523.989	520.636	0.203	-0.479
-522.975	458.803	-0.134	0.301
-521.960	137.896	0.540	0.712
-520.945	-200.000	0.017	-0.259
-519.931	91.998	0.803	-0.911
-518.916	-13.114	-0.509	-0.333
-517.902	2.928	0.275	0.201
-516.887	159.539	0.672	-0.942
-515.872	104.368	-0.543	-0.643
-514.858	-9.549	0.409	0.275
-513.843	247.602	0.458	0.780
-512.829	235.729	-0.539	-0.898
-511.814	800.000	0.151	0.448
-510.799	-79.678	0.314	-0.107
-509.785	328.725	-0.243	0.469
-508.770	-10.828	-0.388	-0.258
-507.756	-138.506	0.097	-0.011
-506.741	-43.923	0.493	0.249
-505.726	283.266	-0.229	-0.414
-504.712	206.126	-0.412	-0.646
-503.697	760.446	-0.150	0.409
-502.683	178.287	-0.404	0.594
-501.668	-98.002	-0.287	0.074
-500.653	-150.779	-0.661	-0.051
-499.639	-200.000	0.071	-0.507
-498.624	75.444	0.339	-0.360
-497.610	21.405	-0.411	-0.336
-496.595	-42.576	0.444	-0.228
-495.581	553.635	-0.195	0.473
-494.566	272.877	0.290	0.515
-493.551	800.000	0.294	0.839
-492.537	36.107	0.338	-0.299
-491.522	-183.179	0.132	0.002
-490.508	82.842	-0.453	-0.496
-489.493	220.997	-0.257	-0.415
-488.478	480.994	0.420	-0.960
-487.464	107.963	-0.368	-0.442
-486.449	89.044	0.227	0.254
-485.435	-138.669	-0.289	-0.032
-484.420	64.958	-0.757	0.769
-483.405	546.647	-0.153	-0.369
-482.391	174.309	-0.483	0.702
-481.376	-119.125	-0.789	0.139
-480.362	-16.832	0.195	-0.124
-479.347	800.000	-0.139	-0.420
-478.332	-200.000	-0.013	0.156
-477.318	4.998	-0.303	-0.225
-476.303	-200.000	0.059	-0.337
-475.289	800.000	-0.180	0.561
-474.274	-49.974	-0.172	0.082
-473.259	76.072	-0.220	-0.234
-472.245	-189.951	0.783	-0.009
-471.230	800.000	0.107	-0.458
-470.216	146.843	0.034	-0.046
-469.201	-175.014	-0.414	0.012
-468.186	-200.000	0.960	0.000
-467.172	-200.000	0.076	-0.712
-466.157	254.020	0.550	0.945
-465.143	257.109	-0.417	-0.720
-464.128	-39.765	0.522	0.274
-463.113	-140.280	0.729	-0.077
-462.099	-72.782	0.305	0.113
-461.084	110.367	0.077	-0.093
-460.070	-160.090	0.436	-0.024
-459.055	368.012	-0.237	-0.481
-458.040	281.365	0.150	0.270
-457.026	-34.048	0.780	0.431
-456.011	800.000	0.151	0.621
-454.997	573.499	-0.292	0.715
-453.982	-200.000	0.029	-0.442
-452.968	-28.395	-0.234	-0.136
-451.953	-136.189	0.289	0.034
-450.938	-56.043	-0.240	0.108
-449.924	800.000	-0.033	0.134
-448.909	5.333	0.596	-0.442
-447.895	-195.144	-0.629	0.005
-446.880	-62.393	-0.617	-0.258
-445.865	-143.061	1.001	0.097
-444.851	238.345	-0.242	-0.403
-443.836	134.783	0.343	-0.448
-442.822	-144.486	0.897	0.083
-441.807	134.456	0.226	-0.294
-440.792	-79.477	-0.256	-0.087
-439.778	38.476	0.358	-0.321
-438.763	-43.488	-0.336	-0.171
-437.749	158.379	0.282	0.393
-436.734	192.080	0.280	-0.424
-435.719	-176.211	-0.275	0.007
-434.705	800.000	-0.256	-0.999
-433.690	-146.834	1.175	-0.102
-432.676	-79.196	0.167	0.057
-431.661	187.965	-0.356	-0.534
-430.646	125.371	-0.099	0.125
-429.632	306.396	-0.398	-0.744
-428.617	-88.088	0.724	-0.218
-427.603	526.359	-0.020	-0.048
-426.588	-135.929	-0.615	0.073
-425.573	-200.000	-0.009	0.363
-424.559	-200.000	-0.068	0.550
-423.544	-200.000	0.010	-0.365
-422.530	-117.289	-0.630	0.115
-421.515	800.000	0.208	-0.855
-420.500	140.553	-0.250	0.331
-419.486	-84.887	0.818	0.258
-418.471	69.882	0.528	-0.546
-417.457	-146.546	-0.228	0.020
-416.442	384.096	-0.279	-0.577
-415.428	-24.532	0.443	0.265
-414.413	800.000	-0.077	-0.277
-413.398	-96.986	-0.555	0.146
-412.384	-131.421	-0.334	0.044
-411.369	-200.000	0.096	-1.081
-410.355	-200.000	-0.028	-0.233
-409.340	-60.727	-0.101	-0.043
-408.325	-200.000	-0.620	0.003
-407.311	-62.547	-0.269	0.112
-406.296	-112.023	-0.137	0.028
-405.282	-200.000	0.016	0.084
-404.267	330.807	0.089	0.173
-403.252	-54.582	-0.537	0.244
-402.238	126.634	-0.330	0.420
-401.223	-170.538	0.635	-0.022
-400.209	-34.506	0.717	0.394
-399.194	393.490	-0.322	0.672
-398.179	119.469	0.792	0.983
-397.165	429.815	-0.152	-0.330
-396.150	124.924	-0.433	-0.547
-395.136	-60.079	-0.599	-0.256
-394.121	-200.000	0.204	-1.044
-393.106	-25.723	-0.348	-0.206
-392.092	68.867	0.213	-0.219
-391.077	800.000	0.078	0.253
-390.063	-64.090	0.957	-0.392
-389.048	305.490	-0.119	-0.223
-388.033	-200.000	-0.041	-0.609
-387.019	800.000	-0.307	0.947
-386.004	-30.565	-0.424	-0.241
-384.990	-104.749	0.425	-0.098
-383.975	-81.214	-0.398	0.132
-382.960	361.788	0.374	-0.752
-381.946	-46.374	-0.846	0.416
-380.931	-53.009	0.562	-0.259
-379.917	-82.470	-0.767	-0.250
-378.902	246.105	-0.511	-0.863
-377.888	-117.835	0.109	-0.020
-376.873	215.177	-0.213	-0.338
-375.858	-200.000	0.001	-0.099
-374.844	-200.000	0.089	-0.511
-373.829	800.000	-0.155	-0.489
-372.815	-200.000	-0.031	0.394
-371.800	-79.397	0.379	0.128
-370.785	140.079	0.111	-0.146
-369.771	-53.311	-0.540	0.248
-368.756	-69.566	0.519	-0.199
-367.742	-142.611	-0.516	-0.051
-366.727	-200.000	-0.012	0.411
-365.712	-126.349	-0.725	-0.108
-364.698	-200.000	0.007	-0.050
-363.683	-200.000	0.131	-0.716
-362.669	7.349	-0.483	0.361
-361.654	-200.000	0.071	-0.429
-360.639	13.718	0.626	0.487
-359.625	427.177	0.269	0.581
-358.610	-51.224	0.687	-0.322
-357.596	800.000	-0.159	-0.595
-356.581	99.728	0.227	0.263
-355.566	-94.014	-0.245	-0.067
-354.552	-130.989	-0.131	0.018
-353.537	48.066	0.329	0.308
-352.523	-176.884	0.571	-0.014
-351.508	-200.000	0.072	0.778
-350.493	-99.918	-0.811	-0.203
-349.479	-130.832	0.449	0.060
-348.464	-200.000	-0.067	-0.678
-347.450	800.000	0.268	-0.804
-346.435	-200.000	0.048	-0.877
-345.420	800.000	0.076	-0.308
-344.406	187.358	0.773	-1.154
-343.391	-131.358	0.935	-0.124
-342.377	-54.259	-0.515	-0.234
-341.362	44.477	0.360	0.330
-340.348	512.886	-0.160	-0.373
-339.333	-80.534	-0.323	0.108
-338.318	7.954	-0.812	0.609
-337.304	-146.940	0.231	0.020
-336.289	220.462	-0.070	-0.112
-335.275	4.177	0.820	0.601
-334.260	-200.000	-0.119	0.829
-333.245	-45.289	-0.309	0.154
-332.231	-138.613	0.950	-0.104
-331.216	236.345	0.257	0.426
-330.202	-106.762	-0.241	-0.054
-329.187	148.035	-0.658	-0.888
-328.172	800.000	-0.083	-0.233
-327.158	-80.785	-0.680	-0.226
-326.143	-131.937	-0.186	0.024
-325.129	800.000	0.205	0.699
-324.114	195.335	0.254	0.386
-323.099	-200.000	0.093	-0.537
-322.085	-200.000	-0.109	0.515
-321.070	105.710	-0.035	-0.041
-320.056	30.012	-0.488	0.416
-319.041	83.845	0.412	-0.449
-318.026	171.008	0.412	-0.591
-317.012	-122.371	0.494	0.081
-315.997	-200.000	0.062	0.797
-314.983	-11.358	0.460	0.303
-313.968	450.517	0.456	-1.006
-312.953	405.149	0.449	-0.945
-311.939	-45.805	-0.166	0.082
-310.924	800.000	0.101	0.354
-309.910	-9.379	-0.717	0.479
-308.895	-20.207	-0.467	-0.288
-307.880	118.718	0.179	0.220
-306.866	409.043	0.066	0.140
-305.851	51.530	0.690	-0.655
-304.837	-34.256	0.130	0.071
-303.822	195.741	-0.343	-0.521
-302.807	800.000	-0.152	0.488
-301.793	305.465	0.381	0.706
-300.778	242.927	-0.126	0.211
-299.764	-180.378	-1.025	0.021
-298.749	-55.902	-0.377	-0.168
-297.735	-139.099	-0.529	-0.057
-296.720	800.000	0.124	-0.385
-295.705	311.737	0.146	-0.273
-294.691	-200.000	-0.017	0.232
-293.676	69.049	-0.032	0.033
-292.662	-200.000	0.055	-0.271
-291.647	130.979	-0.406	-0.520
-290.632	99.943	-0.214	0.248
-289.618	-51.945	-0.713	-0.331
-288.603	-68.542	0.657	0.254
-287.589	-170.905	0.192	0.007
-286.574	-62.563	0.767	-0.318
-285.559	-164.218	-0.155	0.007
-284.545	-5.046	0.379	0.261
-283.530	-200.000	-0.084	0.498
-282.516	212.763	0.255	0.401
-281.501	124.915	0.176	0.221
-280.486	-26.543	-0.377	-0.220
-279.472	158.429	0.128	0.177
-278.457	-21.561	0.387	0.235
-277.443	-130.559	0.116	-0.016
-276.428	-200.000	0.203	1.018
-275.413	735.192	-0.105	0.282
-274.399	193.574	-0.205	0.310
-273.384	-200.000	0.094	0.636
-272.370	183.233	-0.097	0.143
-271.355	259.626	0.321	-0.553
-270.340	4.266	0.450	0.329
-269.326	277.387	-0.276	-0.490
-268.311	164.856	-0.278	0.391
-267.297	-33.488	0.418	0.231
-266.282	-200.000	0.036	-0.317
-265.267	390.586	-0.287	0.593
-264.253	92.493	0.733	0.824
-263.238	81.075	-0.084	0.090
-262.224	-15.142	-0.080	0.051
-261.209	-28.136	-0.479	0.276
-260.195	800.000	0.142	0.494
-259.180	800.000	-0.060	0.195
-258.165	129.322	-0.415	-0.528
-257.151	-200.000	0.148	0.719
-256.136	-32.355	-0.646	0.360
-255.122	-124.932	0.901	0.138
-254.107	299.685	-0.291	-0.535
-253.092	-78.701	0.434	-0.148
-252.078	42.767	0.711	0.646
-251.063	-87.742	-0.364	0.110
-250.049	-27.943	-1.114	0.643
-249.034	-200.000	0.054	0.346
-248.019	-160.113	-1.098	-0.059
-247.005	-141.376	-0.443	-0.045
-245.990	800.000	-0.188	-0.550
-244.976	-200.000	0.054	0.398
-243.961	-200.000	0.051	0.307
-242.946	-200.000	-0.033	-0.347
-241.932	-38.278	-0.723	0.382
-240.917	-93.864	-0.439	0.120
-239.903	-79.662	0.759	-0.255
-238.888	-200.000	0.065	-0.584
-237.873	36.383	0.587	0.516
-236.859	92.401	-0.455	-0.511
-235.844	138.196	-0.271	-0.354
-234.830	-66.449	0.624	0.247
-233.815	-46.710	-0.398	0.194
-232.800	-200.000	0.001	0.458
-231.786	225.815	0.186	0.300
-230.771	-200.000	-0.065	-0.703
-229.757	-82.650	-0.967	-0.312
-228.742	682.925	-0.185	0.480
-227.727	79.476	0.500	-0.534
-226.713	425.921	-0.123	0.263
-225.698	285.441	-0.227	0.408
-224.684	-62.011	-0.364	0.152
-223.669	-200.000	0.129	1.221
-222.655	800.000	0.169	0.601
-221.640	-71.569	0.571	0.212
-220.625	70.837	0.158	0.163
-219.611	-42.180	0.546	-0.278
-218.596	108.281	-0.353	0.419
-217.582	-200.000	0.024	0.236
-216.567	-145.168	0.651	0.059
-215.552	800.000	0.211	0.728
-214.538	-37.602	-0.364	0.193
-213.523	-60.844	-0.574	-0.242
-212.509	258.524	-0.239	-0.410
-211.494	64.728	0.264	0.265
-210.479	24.029	-0.591	0.485
-209.465	-200.000	-0.063	-0.376
-208.450	-85.714	-0.713	0.220
-207.436	259.455	-0.283	-0.487
-206.421	-200.000	0.115	-0.567
-205.406	111.378	-0.490	0.588
-204.392	466.526	-0.036	0.080
-203.377	800.000	0.106	0.317
-202.363	-127.795	0.247	-0.035
-201.348	800.000	0.383	-1.394
-200.333	304.530	-0.461	0.851
-199.319	-61.113	0.350	-0.147
-198.304	24.859	-0.285	0.235
-197.290	-76.067	0.906	0.319
-196.275	-200.000	-0.121	0.677
-195.260	-63.840	-0.419	-0.171
-194.246	169.485	0.448	0.636
-193.231	37.830	-0.288	0.254
-192.217	788.628	0.284	0.777
-191.202	115.423	-0.633	0.770
-190.187	-54.244	1.139	-0.514
-189.173	29.002	0.486	-0.410
-188.158	102.607	0.227	0.264
-187.144	800.000	-0.296	0.828
-186.129	-79.283	-0.306	0.103
-185.114	-27.187	0.870	0.504
-184.100	48.816	0.771	-0.719
-183.085	-81.575	0.544	-0.178
-182.071	389.029	0.271	0.557
-181.056	-52.316	0.510	0.235
-180.042	555.790	0.161	-0.384
-179.027	10.300	0.331	0.250
-178.012	-200.000	0.026	-0.512
-176.998	-27.307	-0.126	0.073
-175.983	113.569	-0.221	0.267
-174.969	232.387	-0.146	-0.239
-173.954	87.642	-0.311	0.343
-172.939	-150.790	-0.372	-0.028
-171.925	328.963	-0.360	-0.687
-170.910	-154.240	0.855	0.057
-169.896	-49.186	0.522	-0.248
-168.881	522.666	-0.229	-0.534
-167.866	137.760	-0.661	-0.860
-166.852	-200.000	-0.000	-0.637
-165.837	124.682	0.083	0.104
-164.823	252.248	0.110	0.186
-163.808	800.000	-0.063	-0.184
-162.793	-125.051	0.314	0.048
-161.779	-126.880	1.043	0.153
-160.764	169.052	-0.204	0.289
-159.750	800.000	0.043	-0.133
-158.735	-200.000	-0.027	-0.207
-157.720	149.736	-0.295	0.397
-156.706	-200.000	0.075	0.574
-155.691	341.527	0.215	0.417
-154.677	-200.000	-0.018	0.272
-153.662	483.099	0.236	-0.532
-152.647	424.155	-0.118	-0.253
-151.633	257.187	-0.247	0.421
-150.618	-95.616	-0.187	-0.050
-149.604	7.549	0.283	-0.210
-148.589	-18.933	-0.126	0.078
-147.574	46.849	-0.169	0.156
-146.560	-180.769	1.106	0.022
-145.545	263.230	-0.385	-0.665
-144.531	-200.000	-0.027	-0.191
-143.516	-118.717	0.700	0.122
-142.502	611.734	-0.237	-0.588
-141.487	218.663	0.478	-0.758
-140.472	-72.306	-0.485	-0.178
-139.458	-21.379	0.355	-0.215
-138.443	-112.699	0.184	-0.036
-137.429	-39.173	-0.526	-0.274
-136.414	-98.452	-1.375	-0.349
-135.399	-140.441	-0.390	0.040
-134.385	-17.156	0.170	-0.106
-133.370	-200.000	0.022	0.520
-132.356	254.566	0.506	0.859
-131.341	356.875	0.327	-0.646
-130.326	150.019	0.250	0.336
-129.312	-1.289	-0.596	0.418
-128.297	220.589	0.312	-0.497
-127.283	-200.000	-0.040	0.536
-126.268	-141.895	-0.381	0.038
-125.253	-200.000	0.209	-0.950
-124.239	-116.816	-0.509	-0.093
-123.224	-124.898	-0.301	0.046
-122.210	-35.567	1.044	0.562
-121.195	74.669	-0.553	0.577
-120.180	-50.472	-0.266	-0.124
-119.166	-62.913	-0.676	-0.277
-118.151	290.649	-0.244	-0.440
-117.137	800.000	-0.047	0.137
-116.122	205.769	0.438	0.676
-115.107	800.000	-0.100	-0.286
-114.093	185.903	0.300	-0.442
-113.078	-109.879	-0.456	-0.095
-112.064	-188.817	-0.526	0.006
-111.049	-23.226	0.787	-0.470
-110.034	-67.860	0.448	-0.174
-109.020	140.301	-0.436	0.570
-108.005	-77.851	-0.631	-0.216
-106.991	-102.432	0.613	-0.146
-105.976	-9.960	0.657	0.433
-104.962	107.603	-0.297	-0.351
-103.947	261.590	-0.617	1.059
-102.932	90.008	-0.661	0.733
-101.918	590.755	0.078	0.190
-100.903	244.718	0.154	0.256
-99.889	-200.000	0.011	-0.374
-98.874	-168.867	0.670	-0.025
-97.859	70.218	0.185	0.190
-96.845	104.671	-0.091	-0.106
-95.830	230.854	0.241	-0.391
-94.816	800.000	-0.111	0.454
-93.801	-3.519	0.361	0.249
-92.786	37.784	-0.416	-0.366
-91.772	225.038	0.398	0.637
-90.757	-35.974	-0.929	-0.498
-89.743	800.000	-0.107	-0.354
-88.728	800.000	0.176	-0.568
-87.713	-154.055	-0.872	-0.059
-86.699	281.364	0.234	0.415
-85.684	110.476	0.174	-0.207
-84.670	282.765	-0.263	-0.467
-83.655	257.581	0.236	-0.403
-82.640	-62.209	-0.146	-0.060
-81.626	-128.528	-0.075	0.011
-80.611	80.599	0.464	-0.495
-79.597	800.000	0.226	-0.839
-78.582	7.373	0.255	0.189
-77.567	-181.597	1.135	0.022
-76.553	-98.442	-0.791	0.200
-75.538	301.696	0.133	-0.244
-74.524	-148.113	0.542	0.044
-73.509	-149.925	0.328	0.025
-72.494	-0.404	0.280	0.197
-71.480	-200.000	-0.021	0.509
-70.465	-139.816	1.073	-0.113
-69.451	800.000	0.230	-0.686
-68.436	-102.976	-0.400	0.094
-67.422	5.160	0.635	-0.463
-66.407	-171.003	-0.540	0.018
-65.392	263.166	-0.518	0.890
-64.378	30.743	0.092	0.078
-63.363	236.348	-0.111	0.182
-62.349	-61.421	-0.844	0.351
-61.334	26.259	-1.030	-0.851
-60.319	324.759	0.546	1.032
-59.305	-200.000	0.158	-1.287
-58.290	800.000	0.172	0.654
-57.276	601.407	0.595	1.462
-56.261	-200.000	95.691	595.496
-55.246	669.596	1349.450	3455.858
-54.232	200.673	2524.751	3840.356
-53.217	110.388	2279.821	2710.011
-52.203	38.937	2046.423	1808.868
-51.188	34.123	1962.259	1691.730
-50.173	32.640	1943.997	1662.843
-49.159	48.040	1996.235	1845.614
-48.144	48.690	2014.042	1867.823
-47.130	34.753	1974.721	1707.840
-46.115	32.451	1965.593	1679.367
-45.100	32.324	1962.585	1675.594
-44.086	32.389	1959.287	1673.289
-43.071	32.142	1957.910	1669.860
-42.057	32.108	1955.399	1667.344
-41.042	32.297	1953.156	1667.042
-40.027	32.185	1951.185	1664.301
-39.013	32.333	1948.845	1663.547
-37.998	32.256	1948.056	1662.131
-36.984	32.226	1946.107	1660.136
-35.969	32.284	1944.641	1659.327
-34.954	32.199	1942.198	1656.427
-33.940	32.335	1940.559	1656.162
-32.925	32.340	1938.960	1654.776
-31.911	32.333	1938.235	1654.029
-30.896	32.536	1935.879	1653.743
-29.881	32.546	1933.811	1651.998
-28.867	32.519	1931.453	1649.675
-27.852	32.486	1929.895	1647.992
-26.838	32.381	1928.796	1646.072
-25.823	32.460	1926.499	1644.736
-24.809	32.406	1925.373	1643.235
-23.794	32.368	1924.041	1641.702
-22.779	32.379	1921.943	1639.942
-21.765	32.333	1919.723	1637.587
-20.750	32.422	1918.873	1637.572
-19.736	32.425	1916.300	1635.332
-18.721	32.298	1915.237	1633.260
-17.706	32.304	1914.933	1632.984
-16.692	32.297	1912.611	1630.879
-15.677	32.312	1911.036	1629.603
-14.663	32.486	1908.819	1629.152
-13.648	32.433	1908.294	1628.187
-12.633	32.425	1907.126	1627.054
-11.619	32.380	1905.348	1625.082
-10.604	32.423	1903.860	1624.119
-9.590	32.409	1903.054	1623.252
-8.575	32.542	1901.443	1622.960
-7.560	32.344	1901.014	1620.818
-6.546	32.343	1899.891	1619.791
-5.531	32.442	1897.879	1618.863
-4.517	32.320	1897.763	1617.648
-3.502	32.370	1895.663	1616.220
-2.487	32.257	1894.669	1614.342
-1.473	32.468	1893.902	1615.438
-0.458	32.516	1889.073	1611.659
0.556	33.443	1870.028	1582.477
1.571	29.125	1850.315	1529.872
2.586	24.963	1872.219	1512.772
3.600	23.601	1907.687	1529.564
4.615	23.349	1901.553	1522.347
5.629	17.887	1802.250	1398.105
6.644	8.496	1684.176	1234.197
7.659	3.637	1647.200	1170.236
8.673	3.186	1643.683	1164.222
9.688	3.257	1643.023	1164.188
10.702	3.173	1641.363	1162.277
11.717	3.264	1637.213	1159.917
12.731	3.591	1638.004	1162.841
13.746	10.336	1651.547	1223.449
14.761	19.698	1674.769	1311.942
15.775	24.350	1681.656	1352.590
16.790	24.784	1682.059	1356.083
17.804	24.624	1679.644	1352.804
18.819	24.345	1678.926	1349.994
19.834	24.499	1675.988	1348.679
20.848	24.551	1676.876	1349.661
21.863	24.378	1675.476	1347.113
22.877	24.557	1674.687	1347.711
23.892	24.490	1674.313	1346.781
24.907	24.635	1672.523	1346.314
25.921	24.598	1671.156	1344.815
26.936	24.488	1671.182	1343.892
27.950	24.446	1670.499	1342.909
28.965	24.608	1669.068	1342.860
29.980	24.428	1668.889	1341.243
30.994	24.583	1668.072	1341.626
32.009	24.798	1665.707	1341.217
33.023	24.829	1665.595	1341.243
34.038	24.719	1666.010	1340.638
35.053	24.637	1663.457	1337.848
36.067	24.744	1662.519	1337.776
37.082	24.603	1662.232	1336.376
38.096	24.639	1660.293	1334.964
39.111	24.409	1659.500	1332.493
40.126	24.734	1658.360	1333.879
41.140	24.785	1658.634	1334.369
42.155	24.626	1656.186	1331.091
43.169	24.234	1656.143	1328.018
44.184	24.202	1654.983	1326.734
45.199	24.295	1654.098	1326.601
46.213	24.236	1652.346	1324.639
47.228	24.171	1652.526	1324.185
48.242	24.401	1651.394	1324.866
49.257	24.469	1650.470	1324.510
50.271	24.697	1648.745	1324.698
51.286	24.721	1646.940	1323.309
52.301	24.605	1646.604	1322.069
53.315	24.525	1645.069	1320.122
54.330	24.582	1643.554	1319.214
55.344	24.473	1641.908	1316.975
56.359	24.412	1641.173	1315.814
57.374	24.328	1640.350	1314.423
58.388	24.260	1639.551	1313.159
59.403	24.464	1637.410	1312.831
60.417	24.367	1636.258	1311.079
61.432	24.154	1634.691	1308.142
62.447	24.099	1635.227	1308.051
63.461	24.324	1632.569	1307.459
64.476	24.363	1631.456	1306.737
65.490	24.136	1631.292	1304.828
66.505	24.186	1630.274	1304.267
67.520	24.142	1629.823	1303.470
68.534	24.086	1628.425	1301.821
69.549	23.993	1628.047	1300.728
70.563	24.257	1626.277	1301.130
71.578	24.249	1624.883	1299.836
72.593	24.008	1623.594	1296.934
73.607	23.981	1622.889	1296.062
74.622	24.068	1621.187	1295.220
75.636	24.330	1620.236	1296.252
76.651	24.102	1620.382	1294.595
77.666	24.087	1619.018	1293.284
78.680	24.037	1619.496	1293.183
79.695	24.010	1617.914	1291.614
80.709	24.211	1617.525	1292.644
81.724	24.222	1617.747	1292.784
82.739	24.343	1615.039	1291.385
83.753	24.223	1616.194	1291.322
84.768	24.348	1614.039	1290.390
85.782	24.780	1612.860	1292.459
86.797	24.897	1613.651	1293.824
87.812	24.857	1610.735	1291.082
88.826	24.689	1611.683	1290.513
89.841	24.488	1610.394	1287.918
90.855	24.328	1610.283	1286.562
91.870	24.511	1608.808	1286.587
92.884	24.828	1607.623	1287.808
93.899	25.026	1606.766	1288.436
94.914	24.784	1605.461	1285.536
95.928	24.820	1604.137	1284.621
96.943	24.837	1602.591	1283.391
97.957	24.734	1602.985	1282.854
98.972	24.910	1601.135	1282.515
99.987	24.820	1598.230	1279.434
101.001	24.845	1596.330	1277.976
102.016	24.851	1595.727	1277.427
103.030	24.802	1595.544	1276.814
104.045	24.631	1593.705	1274.012
105.060	24.635	1593.204	1273.525
106.074	24.488	1591.206	1270.772
107.089	24.423	1589.504	1268.839
108.103	24.368	1588.157	1267.263
109.118	24.288	1585.796	1264.695
110.133	24.013	1585.490	1262.394
111.147	24.141	1582.878	1261.107
112.162	24.268	1581.996	1261.191
113.176	24.213	1582.235	1260.877
114.191	24.399	1580.040	1260.333
115.206	24.261	1579.280	1258.638
116.220	24.292	1578.484	1258.113
117.235	24.496	1577.616	1258.746
118.249	24.152	1577.663	1256.251
119.264	24.183	1575.283	1254.459
120.279	24.109	1572.783	1251.838
121.293	24.195	1572.535	1252.135
122.308	24.061	1571.786	1250.491
123.322	23.978	1570.005	1248.380
124.337	24.092	1567.663	1247.202
125.352	23.865	1567.185	1245.122
126.366	23.821	1566.153	1243.887
127.381	24.059	1564.487	1244.116
128.395	23.936	1564.973	1243.529
129.410	23.890	1563.739	1242.119
130.424	23.745	1561.137	1238.929
131.439	23.792	1560.609	1238.732
132.454	23.740	1560.286	1238.003
133.468	24.030	1558.072	1238.151
134.483	24.268	1557.019	1238.863
135.497	24.313	1556.023	1238.271
136.512	24.233	1554.950	1236.754
137.527	24.314	1553.134	1235.764
138.541	24.236	1552.062	1234.261
139.556	24.386	1550.730	1234.127
140.570	24.320	1549.756	1232.787
141.585	24.432	1549.664	1233.376
142.600	24.583	1548.263	1233.195
143.614	24.703	1547.513	1233.320
144.629	24.727	1547.658	1233.494
145.643	24.674	1545.950	1231.654
146.658	24.576	1544.860	1230.006
147.673	24.544	1543.943	1228.943
148.687	24.790	1541.644	1228.699
149.702	24.695	1540.501	1227.027
150.716	24.426	1539.625	1224.374
151.731	24.384	1536.669	1221.624
152.746	23.978	1537.260	1219.208
153.760	24.114	1534.427	1217.785
154.775	24.244	1533.060	1217.476
155.789	24.080	1534.046	1217.033
156.804	24.569	1532.661	1219.161
157.819	24.500	1531.611	1217.748
158.833	24.330	1530.073	1215.261
159.848	24.526	1528.716	1215.410
160.862	24.639	1528.182	1215.647
161.877	24.843	1526.369	1215.484
162.892	24.520	1525.618	1212.583
163.906	24.371	1525.165	1211.104
164.921	24.306	1521.984	1208.033
165.935	24.211	1520.402	1206.028
166.950	24.236	1521.859	1207.244
167.964	24.263	1521.231	1206.820
168.979	24.416	1521.027	1207.590
169.994	24.397	1520.064	1206.586
171.008	24.565	1516.808	1205.032
172.023	24.183	1516.865	1202.392
173.037	24.375	1515.194	1202.255
174.052	24.424	1515.411	1202.650
175.067	24.634	1513.494	1202.439
176.081	24.804	1511.064	1201.544
177.096	24.544	1510.905	1199.565
178.110	24.176	1510.214	1196.441
179.125	24.106	1509.741	1195.487
180.140	24.434	1507.564	1195.855
181.154	24.293	1508.073	1195.207
182.169	24.551	1507.627	1196.481
183.183	24.371	1507.156	1194.790
184.198	24.595	1504.975	1194.456
185.213	24.477	1505.102	1193.665
186.227	24.673	1503.722	1193.769
187.242	24.691	1502.531	1192.841
188.256	24.666	1501.384	1191.660
189.271	24.519	1501.384	1190.571
190.286	24.616	1500.505	1190.417
191.300	24.865	1498.961	1190.745
192.315	24.817	1496.703	1188.523
193.329	24.145	1496.190	1183.546
194.344	24.473	1495.348	1184.956
195.359	24.509	1494.896	1184.728
196.373	24.248	1493.653	1181.912
197.388	24.067	1492.041	1179.333
198.402	23.974	1490.767	1177.607
199.417	24.367	1489.238	1178.889
200.432	24.489	1490.185	1180.339
201.446	24.916	1489.726	1182.692
202.461	25.075	1488.583	1182.731
203.475	24.699	1488.116	1179.774
204.490	24.640	1487.296	1178.630
205.504	24.659	1485.306	1177.077
206.519	24.471	1483.977	1174.680
207.534	24.542	1483.141	1174.384
208.548	24.240	1482.427	1171.730
209.563	24.245	1480.485	1170.125
210.577	24.126	1479.054	1168.109
211.592	24.109	1480.064	1168.691
212.607	24.075	1478.931	1167.471
213.621	24.309	1479.516	1169.362
214.636	24.808	1477.922	1171.265
215.650	24.568	1477.458	1169.225
216.665	24.390	1476.572	1167.255
217.680	24.512	1475.618	1167.198
218.694	24.573	1476.028	1167.815
219.709	24.774	1474.930	1168.158
220.723	24.957	1472.701	1167.479
221.738	24.633	1471.917	1164.646
222.753	24.710	1470.846	1164.196
223.767	24.504	1470.236	1162.271
224.782	24.184	1469.201	1159.263
225.796	24.570	1467.132	1160.041
226.811	24.646	1467.831	1160.980
227.826	24.944	1465.402	1160.893
228.840	24.614	1465.684	1158.869
229.855	24.553	1465.366	1158.120
230.869	24.334	1464.301	1155.761
231.884	24.188	1463.853	1154.360
232.899	24.432	1462.396	1154.686
233.913	24.068	1461.057	1151.173
234.928	24.206	1458.612	1150.036
235.942	24.128	1457.899	1148.866
236.957	24.257	1457.741	1149.470
237.972	24.075	1456.678	1147.360
238.986	23.928	1455.119	1145.085
240.001	24.080	1453.987	1145.072
241.015	24.017	1452.882	1143.695
242.030	24.101	1452.399	1143.750
243.045	24.101	1450.826	1142.413
244.059	24.211	1450.429	1142.706
245.074	24.569	1450.328	1144.817
246.088	24.573	1449.387	1143.997
247.103	24.564	1449.499	1143.929
248.117	24.656	1447.554	1142.879
249.132	24.668	1447.370	1142.709
250.147	24.672	1447.271	1142.560
251.161	25.107	1446.506	1144.631
252.176	25.402	1446.468	1146.384
253.190	25.284	1446.131	1145.264
254.205	25.279	1444.793	1144.071
255.220	25.345	1444.113	1143.846
256.234	25.490	1443.236	1143.975
257.249	25.502	1443.477	1144.141
258.263	25.682	1441.755	1143.823
259.278	25.361	1440.820	1140.939
260.293	25.429	1439.423	1140.161
261.307	25.310	1438.795	1138.809
262.322	25.528	1438.624	1139.958
263.336	25.574	1436.830	1138.724
264.351	25.796	1435.175	1138.719
265.366	25.679	1435.084	1137.806
266.380	25.379	1434.729	1135.522
267.395	25.612	1431.979	1134.720
268.409	25.476	1432.662	1134.302
269.424	25.381	1432.014	1133.087
270.439	25.070	1430.745	1130.021
271.453	25.134	1429.635	1129.448
272.468	25.458	1429.340	1131.157
273.482	25.131	1427.722	1127.719
274.497	25.058	1427.070	1126.645
275.512	24.915	1426.134	1124.908
276.526	25.142	1424.540	1124.979
277.541	25.136	1424.145	1124.527
278.555	25.167	1422.752	1123.522
279.570	24.950	1423.767	1122.865
280.585	25.061	1423.002	1122.859
281.599	25.316	1422.335	1123.830
282.614	25.534	1420.743	1123.835
283.628	25.188	1420.113	1121.075
284.643	25.129	1418.539	1119.366
285.657	24.883	1417.703	1117.070
286.672	24.884	1417.619	1116.913
287.687	25.044	1415.931	1116.477
288.701	25.107	1414.717	1115.814
289.716	25.310	1414.080	1116.474
290.730	25.223	1414.431	1116.115
291.745	25.138	1412.668	1114.098
292.760	25.148	1411.866	1113.426
293.774	25.172	1410.629	1112.503
294.789	25.196	1410.090	1112.127
295.803	25.350	1409.837	1112.782
296.818	25.427	1409.024	1112.517
297.833	25.316	1408.189	1111.074
298.847	25.376	1405.946	1109.575
299.862	25.272	1404.620	1107.791
300.876	25.395	1404.158	1108.088
301.891	24.857	1404.788	1105.165
302.906	24.874	1403.582	1104.222
303.920	25.449	1403.241	1107.405
304.935	25.339	1402.730	1106.222
305.949	25.670	1401.129	1106.901
306.964	25.519	1401.343	1106.043
307.979	25.682	1400.076	1105.947
308.993	25.689	1398.457	1104.610
310.008	25.398	1398.189	1102.519
311.022	25.494	1396.771	1101.888
312.037	25.606	1395.254	1101.281
313.052	25.712	1394.542	1101.272
314.066	25.438	1394.452	1099.425
315.081	25.354	1393.472	1098.040
316.095	25.090	1392.590	1095.635
317.110	24.879	1390.511	1092.616
318.125	24.927	1389.803	1092.257
319.139	24.890	1388.698	1091.065
320.154	24.761	1388.832	1090.286
321.168	24.971	1386.903	1089.958
322.183	24.969	1385.491	1088.734
323.197	24.858	1385.369	1087.869
324.212	25.045	1384.425	1088.168
325.227	25.030	1383.334	1087.126
326.241	25.103	1383.407	1087.525
327.256	25.029	1382.918	1086.599
328.270	25.146	1382.117	1086.579
329.285	25.028	1380.593	1084.570
330.300	24.837	1379.589	1082.532
331.314	25.291	1377.762	1083.745
332.329	25.089	1377.807	1082.462
333.343	25.090	1376.511	1081.360
334.358	25.027	1375.959	1080.445
335.373	25.219	1375.390	1081.065
336.387	25.243	1375.264	1081.012
337.402	25.477	1374.425	1081.664
338.416	25.486	1373.154	1080.623
339.431	25.556	1373.098	1080.902
340.446	25.302	1372.972	1079.183
341.460	25.315	1372.646	1078.909
342.475	25.813	1371.335	1080.770
343.489	25.919	1370.312	1080.507
344.504	25.981	1369.634	1080.250
345.519	25.976	1367.835	1078.704
346.533	26.102	1366.561	1078.353
347.548	25.986	1366.794	1077.753
348.562	26.325	1366.318	1079.304
349.577	26.117	1365.761	1077.526
350.592	25.861	1364.626	1075.010
351.606	25.729	1363.059	1072.891
352.621	25.564	1361.691	1070.741
353.635	25.330	1360.402	1068.239
354.650	25.176	1359.726	1066.696
355.665	25.353	1358.727	1066.872
356.679	25.223	1357.741	1065.232
357.694	25.562	1356.274	1065.995
358.708	25.678	1355.451	1065.941
359.723	25.663	1355.552	1065.841
360.738	25.627	1353.506	1063.925
361.752	25.602	1353.883	1063.978
362.767	25.530	1351.945	1061.932
363.781	25.485	1350.989	1060.825
364.796	25.687	1349.061	1060.408
365.810	25.703	1350.228	1061.324
366.825	25.912	1350.345	1062.553
367.840	25.981	1349.147	1061.925
368.854	26.188	1348.983	1062.921
369.869	26.145	1349.103	1062.668
370.883	26.217	1348.130	1062.229
371.898	26.172	1346.399	1060.507
372.913	26.026	1345.399	1058.772
373.927	25.696	1345.571	1056.876
374.942	25.543	1343.627	1054.358
375.956	25.843	1343.340	1055.796
376.971	26.196	1342.776	1057.326
377.986	26.066	1342.039	1055.890
379.000	26.020	1340.924	1054.651
380.015	26.041	1340.606	1054.433
381.029	26.306	1339.665	1055.148
382.044	26.401	1339.332	1055.345
383.059	26.261	1338.761	1053.983
384.073	26.116	1338.139	1052.558
385.088	26.414	1335.204	1051.888
386.102	26.253	1336.398	1051.799
387.117	26.225	1336.359	1051.510
388.132	26.036	1334.890	1049.164
389.146	25.883	1332.921	1046.634
390.161	25.845	1331.909	1045.524
391.175	25.911	1331.545	1045.534
392.190	25.577	1331.292	1043.304
393.205	25.617	1330.721	1042.994
394.219	25.943	1330.412	1044.548
395.234	26.252	1329.303	1045.377
396.248	25.972	1327.611	1042.332
397.263	25.838	1326.476	1040.575
398.278	25.606	1325.117	1038.081
399.292	25.757	1323.455	1037.558
400.307	25.867	1323.138	1037.849
401.321	25.695	1322.227	1036.051
402.336	25.993	1320.761	1036.526
403.350	25.550	1320.684	1033.828
404.365	25.201	1318.851	1030.296
405.380	25.525	1317.448	1030.970
406.394	26.013	1317.148	1033.440
407.409	25.984	1316.552	1032.712
408.423	25.653	1316.496	1030.685
409.438	26.145	1315.453	1032.592
410.453	26.466	1314.313	1033.440
411.467	26.087	1314.724	1031.506
412.482	26.330	1314.287	1032.457
413.496	26.596	1313.387	1033.178
414.511	26.363	1312.267	1030.874
415.526	26.371	1311.922	1030.562
416.540	26.492	1311.784	1031.048
417.555	26.557	1310.634	1030.425
418.569	26.705	1309.427	1030.225
419.584	26.645	1309.248	1029.651
420.599	26.447	1308.969	1028.216
421.613	143.218	1435.050	1793.567
422.628	138.862	1453.392	1793.589
