DTS Sentinel unit serial number:	SN413079Multiplexer serial number:	ORYXHardware model number:	OX4-SRSoftware version number:	ORYX F/W v4.00 Oryx Data Collector v3.7.2.0data status	okinstallation	princeton_trtdifferential loss correction	single-endedforward channel	channel 4reverse channel	N/Adate	2019/09/12time	18:39:18forward acquisition time	15.00reverse acquisition time	0.00gamma	496.2192k internal	0.2307k external	0.2307temperature offset calibration	1.0134default loss term (dB/km)	0.3790temperature slope calibration	1.0000multiplexer offset coefficient	1.0000multiplexer slope coefficient	1.0000fibre end	0.00T internal ref (°C)	33.12T ext. ref 1 (°C)	2.97T ext. ref 2 (°C)	27.68length (m)	temperature (°C)	Stokes	anti-Stokes-747.200	-200.000	-0.024	0.510
-746.185	-19.034	-0.542	0.343
-745.171	-180.057	0.508	0.011
-744.156	-156.805	-0.114	0.007
-743.142	-200.000	-0.029	0.223
-742.127	-200.000	-0.051	0.726
-741.112	-82.698	-0.907	0.298
-740.098	-31.350	0.406	-0.232
-739.083	152.832	-0.477	-0.663
-738.069	-135.226	0.487	-0.059
-737.054	137.798	-0.254	-0.338
-736.039	-102.756	0.173	-0.042
-735.025	-3.356	-0.738	0.522
-734.010	-200.000	-0.131	-0.613
-732.996	251.458	0.386	0.667
-731.981	-200.000	0.008	-0.178
-730.966	230.380	0.246	0.408
-729.952	-200.000	-0.009	-0.678
-728.937	113.512	-0.430	0.531
-727.923	-200.000	-0.084	0.735
-726.908	-12.416	0.313	0.208
-725.894	-121.534	-0.582	-0.098
-724.879	-74.635	-1.129	-0.413
-723.864	-55.487	-0.530	0.241
-722.850	-98.321	-0.878	-0.229
-721.835	126.167	0.299	-0.384
-720.821	-182.097	-0.294	0.006
-719.806	686.513	0.128	-0.339
-718.791	800.000	0.127	0.466
-717.777	-71.307	-0.511	0.195
-716.762	-105.279	-0.295	0.068
-715.748	-41.512	0.380	0.198
-714.733	114.431	0.218	-0.270
-713.718	-68.267	0.779	-0.307
-712.704	800.000	0.049	-0.213
-711.689	-146.891	1.023	0.089
-710.675	71.779	-0.339	-0.358
-709.660	-37.849	-0.324	0.175
-708.645	800.000	-0.220	0.619
-707.631	-200.000	-0.051	0.401
-706.616	-102.306	0.347	-0.085
-705.602	77.154	0.429	0.463
-704.587	134.414	-0.494	0.650
-703.572	27.110	0.141	-0.120
-702.558	131.924	0.601	0.785
-701.543	-77.932	0.200	0.070
-700.529	-171.368	0.994	-0.034
-699.514	-200.000	0.045	0.297
-698.499	-49.019	0.188	-0.091
-697.485	-5.766	0.709	0.493
-696.470	-200.000	-0.088	0.719
-695.456	-107.804	-0.265	0.059
-694.441	-200.000	-0.087	-0.474
-693.426	321.536	0.293	-0.565
-692.412	-159.176	0.412	0.024
-691.397	252.594	-0.443	0.766
-690.383	-115.776	0.830	-0.158
-689.368	555.048	-0.267	0.651
-688.354	-200.000	-0.052	0.561
-687.339	800.000	0.031	-0.107
-686.324	-200.000	-0.054	0.392
-685.310	-99.956	-0.839	0.212
-684.295	7.585	-0.678	-0.515
-683.281	800.000	0.443	-1.315
-682.266	-200.000	0.043	-0.366
-681.251	800.000	-0.162	-0.609
-680.237	2.383	-0.996	-0.731
-679.222	13.771	0.727	0.573
-678.208	-200.000	0.004	0.383
-677.193	-200.000	-0.083	-0.553
-676.178	738.781	-0.191	0.520
-675.164	-134.826	0.641	0.079
-674.149	-82.845	1.050	0.344
-673.135	800.000	-0.113	0.325
-672.120	265.791	-0.279	0.494
-671.105	384.395	-0.139	0.290
-670.091	800.000	-0.148	-0.522
-669.076	27.502	0.602	0.513
-668.062	256.946	-0.312	-0.543
-667.047	57.004	-0.633	-0.626
-666.032	-200.000	0.070	-1.033
-665.018	38.911	-0.298	-0.270
-664.003	-200.000	-0.068	-0.369
-662.989	143.845	-0.524	-0.708
-661.974	291.519	-0.335	-0.617
-660.959	-47.539	0.208	0.102
-659.945	694.801	-0.102	0.272
-658.930	192.965	0.157	0.240
-657.916	112.530	-0.283	-0.347
-656.901	89.605	0.193	0.219
-655.886	-7.061	-0.836	-0.575
-654.872	800.000	0.081	0.290
-653.857	-35.940	-0.437	-0.240
-652.843	-200.000	-0.096	0.925
-651.828	290.436	-0.152	0.280
-650.814	125.379	0.116	0.148
-649.799	55.659	0.456	-0.448
-648.784	197.900	-0.404	0.625
-647.770	-200.000	-0.001	-0.630
-646.755	-70.536	-0.173	0.066
-645.741	-200.000	-0.096	1.016
-644.726	800.000	-0.132	-0.444
-643.711	-176.908	-0.180	-0.005
-642.697	-197.228	-0.840	-0.005
-641.682	40.788	-0.175	0.160
-640.668	-200.000	0.035	0.204
-639.653	676.886	0.059	0.155
-638.638	467.365	0.123	-0.280
-637.624	116.637	0.502	-0.624
-636.609	-35.119	-0.201	0.111
-635.595	59.097	0.204	0.204
-634.580	-200.000	-0.066	0.322
-633.565	-140.613	0.464	-0.049
-632.551	-96.734	-0.466	0.124
-631.536	800.000	0.009	0.030
-630.522	800.000	-0.331	1.103
-629.507	800.000	-0.067	0.298
-628.492	-2.269	0.273	-0.194
-627.478	-200.000	-0.145	0.756
-626.463	-13.864	0.260	-0.170
-625.449	-4.179	-0.375	0.263
-624.434	-28.388	0.261	0.153
-623.419	-200.000	-0.259	-1.452
-622.405	14.757	-0.151	-0.120
-621.390	-200.000	-0.003	0.833
-620.376	-200.000	0.014	0.296
-619.361	-66.964	-0.739	-0.295
-618.346	-41.900	-0.434	0.225
-617.332	-169.781	0.361	-0.013
-616.317	-200.000	-0.134	-0.824
-615.303	-143.580	-0.717	0.069
-614.288	223.535	0.298	-0.487
-613.273	-119.457	-0.591	-0.104
-612.259	-45.090	-0.407	0.205
-611.244	-200.000	-0.200	1.061
-610.230	-200.000	0.122	0.776
-609.215	-178.384	0.587	-0.014
-608.201	178.692	-0.135	-0.200
-607.186	-138.197	0.383	0.043
-606.171	-67.303	0.487	-0.194
-605.157	218.048	0.251	0.406
-604.142	-54.305	-0.293	-0.135
-603.128	-63.236	-0.673	0.281
-602.113	-130.356	-0.460	-0.063
-601.098	-200.000	-0.087	-0.486
-600.084	43.673	0.231	0.213
-599.069	-11.460	-0.484	0.322
-598.055	-200.000	0.023	-0.167
-597.040	145.715	0.463	-0.627
-596.025	-114.465	-0.392	0.076
-595.011	-200.000	0.092	-0.715
-593.996	79.837	0.443	-0.481
-592.982	87.088	0.240	-0.269
-591.967	231.013	0.255	0.423
-590.952	-63.558	-0.337	-0.140
-589.938	69.562	-0.355	-0.370
-588.923	-200.000	0.125	0.819
-587.909	-5.916	-0.235	-0.162
-586.894	275.209	-0.216	-0.386
-585.879	-58.474	-0.608	-0.267
-584.865	483.167	-0.269	-0.619
-583.850	800.000	-0.321	0.977
-582.836	-113.585	-0.587	-0.116
-581.821	81.628	-0.314	0.343
-580.806	483.791	0.122	-0.279
-579.792	408.092	-0.054	-0.115
-578.777	-200.000	0.032	0.171
-577.763	29.387	-0.420	-0.361
-576.748	62.532	-0.717	-0.724
-575.733	-63.556	0.491	0.204
-574.719	3.411	0.296	0.217
-573.704	800.000	0.269	-0.834
-572.690	115.016	0.363	0.447
-571.675	-30.332	0.443	-0.254
-570.661	-24.162	0.707	0.426
-569.646	-81.346	0.337	-0.112
-568.631	-11.871	1.068	-0.707
-567.617	-132.870	-0.195	-0.025
-566.602	-200.000	0.043	0.625
-565.588	-189.158	-0.329	-0.004
-564.573	-48.005	0.052	0.026
-563.558	-200.000	-0.012	0.766
-562.544	-38.253	-0.329	-0.176
-561.529	298.864	-0.350	0.651
-560.515	-100.194	-0.598	0.150
-559.500	108.698	0.247	-0.298
-558.485	800.000	0.133	0.464
-557.471	201.774	-0.338	0.525
-556.456	-100.320	-0.493	0.123
-555.442	220.698	-0.340	0.550
-554.427	159.028	0.530	0.744
-553.412	-62.921	0.510	0.213
-552.398	159.529	-0.643	-0.903
-551.383	-43.876	-0.573	0.291
-550.369	66.748	-0.180	-0.185
-549.354	800.000	0.148	0.467
-548.339	14.933	0.359	0.284
-547.325	497.061	0.057	0.132
-546.310	19.001	0.503	-0.407
-545.296	-10.310	0.468	-0.313
-544.281	-200.000	0.017	-0.406
-543.266	-200.000	0.082	1.304
-542.252	17.766	-0.400	0.321
-541.237	77.602	-0.077	-0.082
-540.223	-12.073	-0.376	0.248
-539.208	-200.000	-0.017	-0.386
-538.193	-200.000	0.065	1.022
-537.179	-200.000	0.069	-0.435
-536.164	134.585	0.177	-0.232
-535.150	-200.000	-0.008	0.375
-534.135	-70.499	0.069	0.026
-533.121	232.038	-0.484	-0.800
-532.106	130.408	0.296	-0.383
-531.091	-200.000	0.082	0.363
-530.077	-80.233	-0.454	0.153
-529.062	800.000	-0.291	1.113
-528.048	-148.783	0.270	-0.022
-527.033	-119.161	-0.224	0.039
-526.018	70.455	0.350	-0.365
-525.004	-103.854	0.379	0.089
-523.989	100.931	-0.118	0.138
-522.975	395.847	0.167	-0.351
-521.960	199.007	-0.097	0.150
-520.945	600.838	-0.237	0.594
-519.931	-2.564	-0.547	0.386
-518.916	53.612	0.360	-0.348
-517.902	528.045	-0.022	0.051
-516.887	74.074	0.563	-0.595
-515.872	267.186	-0.173	-0.305
-514.858	-200.000	-0.075	-0.481
-513.843	-200.000	-0.048	-0.593
-512.829	134.233	-0.257	-0.336
-511.814	479.666	-0.221	-0.505
-510.799	109.187	-0.115	-0.139
-509.785	793.173	-0.104	0.289
-508.770	77.008	-0.197	-0.210
-507.756	-0.707	0.344	0.246
-506.741	62.833	-0.527	0.531
-505.726	219.310	-0.449	-0.724
-504.712	-200.000	0.002	0.112
-503.697	10.456	-0.921	-0.707
-502.683	-14.075	-0.590	-0.383
-501.668	34.296	0.557	0.490
-500.653	-113.391	-0.641	0.127
-499.639	-86.392	-0.228	-0.070
-498.624	-128.965	0.258	0.036
-497.610	-82.913	0.308	-0.100
-496.595	-89.431	0.149	0.044
-495.581	112.761	-0.617	-0.752
-494.566	-125.261	0.271	-0.042
-493.551	118.045	-0.271	0.337
-492.537	29.750	-0.266	-0.228
-491.522	-200.000	0.028	-0.141
-490.508	-113.153	-0.211	-0.042
-489.493	800.000	0.219	-0.720
-488.478	-200.000	0.109	0.711
-487.464	-160.442	-0.275	-0.015
-486.449	350.399	0.241	-0.480
-485.435	-152.378	0.710	-0.051
-484.420	-108.149	0.775	0.169
-483.405	-200.000	-0.004	-0.134
-482.391	-181.454	0.793	0.016
-481.376	800.000	-0.063	-0.192
-480.362	800.000	0.226	-0.775
-479.347	339.033	-0.268	0.525
-478.332	265.573	-0.257	0.451
-477.318	-141.927	0.320	0.032
-476.303	92.248	0.446	-0.505
-475.289	90.735	0.729	0.822
-474.274	800.000	0.194	-0.768
-473.259	-47.326	-0.359	-0.176
-472.245	-34.290	-0.551	0.304
-471.230	-200.000	0.148	0.690
-470.216	-200.000	0.086	0.804
-469.201	-7.164	-0.757	0.516
-468.186	-128.892	0.314	0.044
-467.172	58.849	0.322	0.319
-466.157	222.024	0.021	-0.034
-465.143	-14.750	0.283	0.183
-464.128	800.000	0.215	0.718
-463.113	-200.000	-0.038	-0.454
-462.099	7.450	-0.291	0.218
-461.084	-142.494	-0.748	-0.074
-460.070	-200.000	0.004	0.226
-459.055	47.072	-0.301	-0.282
-458.040	-94.008	0.861	-0.238
-457.026	4.109	-0.818	-0.602
-456.011	-200.000	0.040	-0.559
-454.997	222.628	-0.464	-0.751
-453.982	25.352	-0.366	-0.306
-452.968	-71.818	0.969	-0.363
-451.953	147.084	-0.386	0.522
-450.938	136.294	-0.306	-0.401
-449.924	-151.006	0.243	-0.018
-448.909	704.879	0.247	0.655
-447.895	-16.440	-0.450	0.287
-446.880	125.927	-0.683	0.867
-445.865	507.837	-0.060	-0.139
-444.851	96.972	0.338	-0.390
-443.836	-138.625	0.182	0.020
-442.822	16.679	0.338	-0.269
-441.807	-200.000	-0.136	-0.805
-440.792	-101.781	0.420	0.102
-439.778	121.758	0.286	0.358
-438.763	269.676	-0.175	0.308
-437.749	-57.774	0.393	0.173
-436.734	-200.000	-0.043	-0.547
-435.719	-200.000	0.106	-0.552
-434.705	-10.795	0.691	-0.459
-433.690	-200.000	-0.140	-0.760
-432.676	-177.682	-0.038	-0.001
-431.661	-200.000	0.040	-0.768
-430.646	121.168	0.165	-0.206
-429.632	223.806	0.348	0.563
-428.617	-200.000	0.015	0.073
-427.603	800.000	0.168	-0.702
-426.588	-95.218	0.536	-0.145
-425.573	28.045	0.523	-0.443
-424.559	-200.000	-0.052	0.381
-423.544	316.304	-0.187	0.355
-422.530	22.193	0.679	-0.557
-421.515	-200.000	0.008	-0.419
-420.500	-118.844	-0.189	-0.033
-419.486	-178.427	0.599	-0.014
-418.471	19.922	-0.379	0.307
-417.457	-13.724	0.575	0.374
-416.442	-119.079	-0.023	0.004
-415.428	-109.782	1.026	0.216
-414.413	-73.392	-0.360	0.132
-413.398	-83.332	0.423	-0.136
-412.384	520.664	-0.179	-0.420
-411.369	154.321	0.182	0.250
-410.355	24.881	0.473	0.393
-409.340	-200.000	0.249	1.280
-408.325	-54.166	0.413	0.189
-407.311	-159.290	0.283	0.016
-406.296	-2.410	0.084	0.059
-405.282	-76.415	-0.338	-0.119
-404.267	-200.000	0.069	-0.380
-403.252	-42.827	0.022	-0.011
-402.238	33.057	0.301	-0.262
-401.223	289.147	0.140	0.254
-400.209	-142.655	-0.557	-0.055
-399.194	-52.365	0.655	-0.304
-398.179	-200.000	-0.000	0.060
-397.165	-200.000	-0.030	-0.237
-396.150	24.034	0.165	-0.137
-395.136	-36.707	-0.437	-0.235
-394.121	170.617	-0.087	0.125
-393.106	-200.000	-0.008	0.183
-392.092	-200.000	0.045	-0.542
-391.077	135.409	-0.330	-0.430
-390.063	-45.930	0.054	0.027
-389.048	-200.000	-0.130	0.704
-388.033	45.737	-0.291	0.270
-387.019	-79.063	0.953	-0.325
-386.004	465.944	0.072	-0.161
-384.990	800.000	-0.078	0.307
-383.975	63.740	-0.072	-0.073
-382.960	80.115	-0.543	0.585
-381.946	31.653	0.431	0.371
-380.931	-143.243	0.706	-0.068
-379.917	-69.727	-0.497	-0.191
-378.902	-200.000	-0.020	-0.206
-377.888	18.149	-0.497	-0.397
-376.873	-128.383	0.695	0.099
-375.858	271.238	-0.322	0.569
-374.844	82.965	0.024	0.026
-373.829	-200.000	0.063	-0.464
-372.815	-200.000	0.051	-0.767
-371.800	-51.443	0.620	0.290
-370.785	-112.649	-0.313	-0.062
-369.771	528.392	0.143	0.339
-368.756	150.273	0.533	-0.725
-367.742	-75.452	-1.231	0.439
-366.727	37.912	-0.379	0.337
-365.712	80.935	-0.233	0.252
-364.698	108.892	-0.463	0.554
-363.683	91.984	0.273	0.308
-362.669	305.197	0.272	-0.506
-361.654	-120.038	-0.372	0.064
-360.639	-9.630	0.537	-0.358
-359.625	-200.000	-0.106	0.604
-358.610	-87.315	-0.288	0.087
-357.596	-134.294	-0.951	-0.117
-356.581	-25.281	-0.166	-0.098
-355.566	357.174	-0.274	-0.547
-354.552	-53.551	0.704	0.322
-353.537	-6.091	0.267	-0.183
-352.523	624.652	-0.114	0.288
-351.508	568.808	-0.194	-0.472
-350.493	30.529	0.295	-0.252
-349.479	784.716	0.176	0.483
-348.464	-200.000	-0.012	0.342
-347.450	61.613	0.633	-0.631
-346.435	-51.188	-0.382	-0.179
-345.420	800.000	0.230	-0.685
-344.406	-134.080	-0.625	-0.077
-343.391	111.440	-0.341	0.411
-342.377	-55.148	0.238	-0.107
-341.362	800.000	0.049	0.138
-340.348	92.673	0.376	-0.425
-339.333	97.461	-0.475	-0.546
-338.318	23.875	0.519	-0.428
-337.304	800.000	-0.089	0.250
-336.289	538.364	0.189	0.449
-335.275	-200.000	0.045	0.413
-334.260	110.699	0.401	-0.482
-333.245	-2.612	0.731	0.512
-332.231	800.000	-0.114	-0.449
-331.216	130.695	0.348	0.447
-330.202	30.092	-0.161	0.138
-329.187	-87.793	0.605	-0.182
-328.172	-87.125	-0.231	0.070
-327.158	-55.952	-0.602	-0.269
-326.143	-200.000	0.010	-0.176
-325.129	215.825	-0.130	0.207
-324.114	-200.000	-0.165	1.107
-323.099	-200.000	0.007	-0.282
-322.085	-200.000	0.036	0.962
-321.070	-30.557	-0.428	0.243
-320.056	-86.445	0.332	-0.102
-319.041	-200.000	-0.017	1.042
-318.026	46.720	-0.192	-0.179
-317.012	-114.763	-0.980	0.187
-315.997	800.000	0.233	0.674
-314.983	-28.785	-0.687	-0.395
-313.968	-131.591	0.301	-0.040
-312.953	59.906	-0.321	0.317
-311.939	-63.363	-0.482	-0.198
-310.924	-87.014	-0.749	-0.228
-309.910	252.758	-0.142	-0.243
-308.895	264.978	-0.172	0.300
-307.880	800.000	-0.061	0.246
-306.866	-118.244	-0.363	-0.065
-305.851	390.010	0.018	0.037
-304.837	59.915	-0.427	0.421
-303.822	213.280	-0.224	0.353
-302.807	-43.049	0.712	0.361
-301.793	-37.729	-0.339	-0.180
-300.778	205.288	-0.261	-0.405
-299.764	-62.061	-0.846	-0.353
-298.749	168.173	0.330	-0.470
-297.735	-200.000	0.104	-1.109
-296.720	221.608	0.238	0.382
-295.705	151.604	-0.355	-0.483
-294.691	41.397	0.489	0.442
-293.676	-200.000	-0.095	-0.563
-292.662	-200.000	0.111	0.522
-291.647	-163.771	-0.657	-0.031
-290.632	708.702	-0.186	-0.492
-289.618	800.000	0.314	-1.301
-288.603	-200.000	-0.002	0.162
-287.589	-146.330	0.470	0.041
-286.574	344.434	0.571	-1.119
-285.559	518.453	-0.183	0.428
-284.545	102.740	-0.363	0.424
-283.530	-78.820	0.370	-0.126
-282.516	57.963	0.348	-0.341
-281.501	23.658	0.698	-0.574
-280.486	-105.774	0.699	0.158
-279.472	-147.526	0.790	0.067
-278.457	-114.327	0.891	-0.171
-277.443	-87.105	-0.181	-0.055
-276.428	800.000	0.024	-0.089
-275.413	-95.685	-0.679	-0.181
-274.399	800.000	0.137	0.403
-273.384	173.072	-0.216	-0.311
-272.370	800.000	-0.181	-0.768
-271.355	-133.207	0.766	0.097
-270.340	47.832	-0.212	-0.198
-269.326	20.252	0.218	0.176
-268.311	800.000	-0.098	-0.284
-267.297	153.284	0.506	0.691
-266.282	21.193	0.228	0.185
-265.267	528.583	0.223	-0.525
-264.253	-94.293	-0.628	0.171
-263.238	800.000	-0.087	0.253
-262.224	-14.563	0.435	-0.279
-261.209	-200.000	-0.131	-0.815
-260.195	629.385	0.134	0.337
-259.180	-100.650	-0.481	0.118
-258.165	134.893	-0.342	0.443
-257.151	-128.159	0.282	0.040
-256.136	800.000	0.199	-0.706
-255.122	-119.642	-0.424	0.073
-254.107	-11.753	0.340	-0.222
-253.092	-155.747	-0.783	0.050
-252.078	-131.478	1.047	0.138
-251.063	-176.715	0.230	-0.006
-250.049	-19.994	0.577	0.355
-249.034	380.892	-0.192	0.393
-248.019	30.645	-0.444	-0.379
-247.005	-200.000	-0.006	0.109
-245.990	282.161	0.368	-0.658
-244.976	150.379	-0.315	0.426
-243.961	-122.281	0.755	0.123
-242.946	144.032	-0.233	-0.310
-241.932	-98.043	0.400	-0.103
-240.917	-2.010	-0.681	0.477
-239.903	75.104	-1.011	-1.063
-238.888	-73.035	-0.413	-0.151
-237.873	-19.171	0.704	-0.436
-236.859	66.199	-0.375	0.379
-235.844	-200.000	0.094	0.638
-234.830	1.488	-0.387	0.278
-233.815	-84.167	-0.496	0.157
-232.800	-200.000	-0.035	-0.313
-231.786	208.852	0.204	-0.317
-230.771	-200.000	0.090	-0.567
-229.757	-125.957	-0.503	0.075
-228.742	750.270	0.246	0.662
-227.727	-14.254	0.668	-0.429
-226.713	-141.972	0.589	0.059
-225.698	-200.000	-0.055	-1.073
-224.684	-200.000	0.096	0.570
-223.669	435.570	0.248	0.538
-222.655	168.996	0.427	-0.607
-221.640	-121.857	0.970	0.159
-220.625	-200.000	0.027	-0.293
-219.611	-68.572	-0.625	0.241
-218.596	-68.832	-1.104	-0.425
-217.582	-200.000	0.096	-0.634
-216.567	232.731	-0.195	-0.319
-215.552	800.000	0.203	0.778
-214.538	800.000	-0.075	-0.286
-213.523	744.768	0.156	0.417
-212.509	209.525	0.149	0.232
-211.494	-119.789	-0.888	-0.152
-210.479	800.000	-0.442	-1.222
-209.465	112.545	-0.415	0.500
-208.450	800.000	0.250	0.742
-207.436	-73.625	-0.602	-0.218
-206.421	229.617	0.269	0.437
-205.406	-24.734	0.648	0.383
-204.392	639.062	-0.356	0.902
-203.377	432.594	0.281	0.606
-202.363	-200.000	0.041	-0.631
-201.348	-200.000	0.052	-0.480
-200.333	51.417	-0.344	0.325
-199.319	443.909	-0.396	0.864
-198.304	456.615	0.375	-0.829
-197.290	98.658	0.311	0.357
-196.275	364.498	-0.209	0.418
-195.260	334.222	0.157	-0.303
-194.246	-93.602	0.399	-0.110
-193.231	39.043	0.481	-0.428
-192.217	800.000	-0.528	1.467
-191.202	-80.682	0.554	-0.183
-190.187	800.000	-0.104	-0.331
-189.173	-112.941	0.249	-0.049
-188.158	-200.000	-0.017	0.604
-187.144	153.421	-0.149	0.203
-186.129	223.647	-0.371	-0.596
-185.114	-110.426	0.623	-0.129
-184.100	-200.000	0.165	1.112
-183.085	-200.000	-0.133	0.830
-182.071	-92.814	0.062	-0.017
-181.056	-13.619	-0.451	-0.291
-180.042	166.160	0.242	-0.341
-179.027	174.557	0.311	-0.447
-178.012	-159.386	0.496	-0.028
-176.998	-15.821	0.735	-0.466
-175.983	72.065	0.187	0.194
-174.969	85.854	-0.302	0.331
-173.954	-151.367	-0.283	0.021
-172.939	-17.545	-0.300	0.188
-171.925	-124.478	-0.187	0.029
-170.910	170.915	0.228	0.325
-169.896	-104.174	0.474	-0.109
-168.881	171.321	-0.177	0.253
-167.866	-81.345	0.493	0.161
-166.852	767.960	-0.207	0.561
-165.837	-147.068	0.480	0.041
-164.823	-200.000	-0.106	0.622
-163.808	73.609	0.500	-0.520
-162.793	364.498	-0.108	0.216
-161.779	-1.583	-0.110	-0.077
-160.764	19.676	0.444	0.355
-159.750	-96.053	-0.628	-0.166
-158.735	-71.480	-0.696	0.259
-157.720	714.521	-0.084	0.220
-156.706	-90.807	0.827	-0.237
-155.691	-72.091	-0.527	0.195
-154.677	-33.937	0.430	-0.235
-153.662	32.087	-0.268	0.230
-152.647	-123.563	-0.495	0.078
-151.633	219.869	-0.547	-0.871
-150.618	-5.936	-0.117	0.080
-149.604	-73.870	-0.709	0.256
-148.589	22.694	-0.354	0.288
-147.574	-96.984	0.233	0.061
-146.560	-2.048	0.129	-0.090
-145.545	-78.702	-0.654	-0.222
-144.531	800.000	-0.328	1.338
-143.516	-29.035	0.154	0.088
-142.502	60.718	-0.182	-0.179
-141.487	246.951	-0.230	-0.385
-140.472	-122.581	-0.431	0.069
-139.458	-83.949	1.082	-0.342
-138.443	39.216	0.490	0.435
-137.429	608.118	-0.276	0.683
-136.414	18.098	-0.442	-0.350
-135.399	141.560	0.152	-0.200
-134.385	-200.000	-0.036	-0.959
-133.370	-200.000	-0.012	0.169
-132.356	-200.000	0.134	0.627
-131.341	-200.000	0.091	-0.840
-130.326	114.240	-0.143	-0.173
-129.312	30.516	-0.391	0.332
-128.297	-121.307	0.681	0.113
-127.283	528.692	0.412	-0.965
-126.268	-200.000	-0.006	0.303
-125.253	-200.000	0.035	-0.310
-124.239	-200.000	0.046	0.344
-123.224	-200.000	-0.095	-0.636
-122.210	-16.017	-0.346	-0.219
-121.195	182.416	0.309	-0.451
-120.180	-51.922	-0.458	-0.211
-119.166	26.753	-0.680	0.565
-118.151	-200.000	-0.102	-0.629
-117.137	397.261	-0.187	-0.388
-116.122	21.616	0.164	-0.132
-115.107	49.945	-0.486	-0.455
-114.093	-200.000	-0.134	0.734
-113.078	-200.000	0.136	0.722
-112.064	800.000	-0.165	0.522
-111.049	663.085	-0.221	0.565
-110.034	-54.057	-0.740	0.334
-109.020	-200.000	0.000	-0.777
-108.005	77.788	0.176	-0.187
-106.991	694.381	-0.314	0.818
-105.976	25.808	0.514	0.425
-104.962	349.431	-0.061	0.120
-103.947	119.188	-0.416	-0.510
-102.932	14.000	0.225	0.174
-101.918	610.343	-0.160	-0.397
-100.903	667.719	-0.064	0.164
-99.889	-141.788	0.753	-0.075
-98.874	-150.200	1.133	0.087
-97.859	-32.304	0.922	0.510
-96.845	800.000	0.191	0.632
-95.830	235.722	-0.345	0.565
-94.816	-95.181	-0.264	-0.070
-93.801	-200.000	-0.004	-1.079
-92.786	26.279	-0.088	-0.073
-91.772	126.031	0.134	-0.168
-90.757	800.000	0.232	0.903
-89.743	658.262	0.197	0.502
-88.728	112.877	0.558	0.671
-87.713	40.914	0.420	-0.376
-86.699	-29.659	-0.371	-0.210
-85.684	293.168	-0.206	-0.373
-84.670	103.940	0.231	0.269
-83.655	-84.421	0.681	-0.213
-82.640	423.303	-0.085	-0.180
-81.626	-56.960	-0.263	0.115
-80.611	141.546	0.217	-0.285
-79.597	-200.000	0.011	-0.484
-78.582	-200.000	0.064	-0.554
-77.567	155.788	0.159	-0.217
-76.553	-89.017	0.490	0.144
-75.538	-17.175	0.243	-0.152
-74.524	-89.998	0.119	-0.034
-73.509	115.479	-0.210	0.255
-72.494	73.109	-0.534	0.553
-71.480	-6.874	-0.303	0.204
-70.465	-200.000	0.042	-0.970
-69.451	-9.360	-0.737	-0.488
-68.436	-75.447	0.461	-0.163
-67.422	374.744	-0.238	0.481
-66.407	104.911	0.575	0.672
-65.392	231.874	-0.065	-0.106
-64.378	-17.660	0.509	0.316
-63.363	15.696	0.480	0.374
-62.349	-200.000	-0.003	-0.154
-61.334	-200.000	-0.092	-2.207
-60.319	104.930	-0.250	-0.292
-59.305	-200.000	0.241	-1.355
-58.290	800.000	0.200	0.562
-57.276	-200.000	0.215	1.299
-56.261	-200.000	94.107	565.750
-55.246	636.269	1359.566	3416.823
-54.232	198.030	2537.166	3838.407
-53.217	108.115	2288.878	2701.115
-52.203	39.729	2047.993	1818.397
-51.188	34.730	1964.081	1699.490
-50.173	33.462	1944.345	1671.168
-49.159	48.829	1995.640	1852.920
-48.144	49.611	2014.213	1877.089
-47.130	35.511	1976.403	1716.859
-46.115	32.890	1966.710	1685.012
-45.100	33.009	1963.015	1682.841
-44.086	33.042	1960.708	1681.090
-43.071	32.837	1958.870	1677.632
-42.057	32.635	1956.989	1674.157
-41.042	32.880	1953.957	1673.671
-40.027	32.961	1952.199	1672.810
-39.013	32.905	1950.384	1670.698
-37.998	33.017	1948.236	1669.783
-36.984	33.237	1946.585	1670.238
-35.969	33.079	1944.939	1667.368
-34.954	33.088	1942.656	1665.426
-33.940	33.093	1940.701	1663.731
-32.925	33.063	1939.433	1662.313
-31.911	33.209	1937.793	1662.123
-30.896	33.133	1937.652	1661.262
-29.881	33.209	1935.185	1659.754
-28.867	33.128	1933.760	1657.753
-27.852	33.073	1932.542	1656.162
-26.838	33.204	1930.052	1655.111
-25.823	33.053	1928.253	1652.184
-24.809	33.225	1927.446	1652.930
-23.794	33.118	1925.070	1649.892
-22.779	33.121	1923.175	1648.225
-21.765	33.035	1921.964	1646.375
-20.750	33.239	1918.427	1645.057
-19.736	32.913	1918.683	1642.373
-18.721	33.076	1916.794	1642.107
-17.706	33.267	1915.129	1642.273
-16.692	33.268	1913.186	1640.553
-15.677	33.121	1912.244	1638.405
-14.663	33.180	1910.569	1637.415
-13.648	33.003	1909.779	1635.142
-12.633	32.998	1908.692	1634.098
-11.619	33.246	1906.725	1634.491
-10.604	33.212	1905.346	1632.954
-9.590	33.268	1904.003	1632.220
-8.575	33.272	1902.328	1630.751
-7.560	33.163	1901.532	1629.072
-6.546	33.074	1900.335	1627.214
-5.531	33.212	1899.184	1627.346
-4.517	33.088	1897.168	1624.496
-3.502	33.090	1897.569	1624.787
-2.487	33.118	1894.780	1622.577
-1.473	33.190	1894.722	1623.079
-0.458	33.310	1889.761	1619.791
0.556	34.194	1869.281	1590.803
1.571	29.872	1850.440	1538.777
2.586	25.529	1872.278	1520.166
3.600	24.268	1906.725	1537.132
4.615	23.655	1901.207	1527.280
5.629	18.193	1802.406	1403.107
6.644	8.421	1682.083	1234.168
7.659	3.461	1644.893	1169.239
8.673	3.070	1640.366	1162.965
9.688	3.082	1639.108	1162.054
10.702	2.939	1638.857	1160.698
11.717	2.789	1634.878	1156.646
12.731	3.308	1633.759	1159.659
13.746	9.928	1649.975	1221.265
14.761	19.673	1671.358	1311.291
15.775	24.656	1678.649	1354.773
16.790	25.285	1680.418	1360.851
17.804	25.246	1679.474	1359.667
18.819	25.484	1677.899	1360.076
19.834	25.767	1677.461	1361.742
20.848	25.915	1677.515	1362.783
21.863	25.712	1677.207	1360.881
22.877	25.965	1675.407	1361.207
23.892	25.924	1673.469	1359.201
24.907	25.905	1672.482	1358.142
25.921	25.911	1673.690	1359.044
26.936	25.947	1671.930	1357.764
27.950	25.976	1671.211	1357.279
28.965	25.784	1669.816	1354.585
29.980	25.770	1669.439	1354.055
30.994	26.002	1667.790	1354.338
32.009	26.110	1666.686	1354.131
33.023	26.108	1666.312	1353.692
34.038	25.820	1666.614	1351.657
35.053	25.784	1664.960	1349.926
36.067	25.857	1663.346	1349.046
37.082	25.808	1662.719	1348.052
38.096	26.068	1661.852	1349.171
39.111	25.897	1660.057	1346.320
40.126	25.994	1660.653	1347.410
41.140	25.898	1659.315	1345.486
42.155	26.006	1657.276	1344.521
43.169	25.957	1656.473	1343.383
44.184	26.054	1655.526	1343.219
45.199	25.740	1655.634	1340.852
46.213	25.827	1653.729	1339.833
47.228	26.035	1652.915	1340.605
48.242	26.041	1651.498	1339.383
49.257	25.966	1650.654	1338.020
50.271	25.803	1650.460	1336.533
51.286	25.899	1648.651	1335.666
52.301	25.839	1647.013	1333.775
53.315	25.828	1646.014	1332.763
54.330	26.003	1643.282	1331.726
55.344	25.717	1644.029	1330.103
56.359	25.966	1641.824	1330.037
57.374	25.939	1641.163	1329.191
58.388	25.931	1641.106	1328.965
59.403	25.818	1639.312	1326.559
60.417	25.789	1637.800	1325.006
61.432	26.012	1636.114	1325.163
62.447	25.747	1635.607	1322.691
63.461	25.967	1634.452	1323.252
64.476	26.075	1634.045	1323.597
65.490	25.936	1632.675	1321.352
66.505	25.942	1631.721	1320.508
67.520	26.121	1630.581	1320.781
68.534	26.031	1629.605	1319.216
69.549	25.909	1628.839	1317.582
70.563	26.037	1626.987	1316.908
71.578	25.961	1625.508	1315.034
72.593	25.947	1625.121	1314.508
73.607	25.933	1624.262	1313.591
74.622	25.731	1624.561	1312.242
75.636	26.113	1622.617	1313.339
76.651	26.076	1622.288	1312.687
77.666	26.096	1621.394	1311.995
78.680	26.054	1619.933	1310.394
79.695	26.049	1620.386	1310.601
80.709	25.952	1620.099	1309.553
81.724	26.053	1617.928	1308.416
82.739	26.142	1616.779	1308.015
83.753	26.173	1616.249	1307.694
84.768	25.922	1615.559	1305.205
85.782	26.080	1614.684	1305.522
86.797	26.023	1613.271	1303.850
87.812	26.095	1613.128	1304.145
88.826	26.184	1611.242	1303.148
89.841	25.969	1610.507	1300.886
90.855	26.256	1608.435	1301.166
91.870	26.244	1608.107	1300.699
92.884	26.057	1607.264	1298.551
93.899	26.239	1606.184	1298.877
94.914	25.912	1605.814	1296.107
95.928	25.907	1603.910	1294.421
96.943	26.216	1602.787	1295.615
97.957	26.018	1601.796	1293.282
98.972	26.110	1600.409	1292.710
99.987	25.902	1599.645	1290.486
101.001	26.075	1597.914	1290.213
102.016	26.128	1595.814	1288.783
103.030	26.129	1595.251	1288.219
104.045	26.170	1593.273	1286.799
105.060	26.123	1591.536	1284.952
106.074	26.057	1591.048	1283.970
107.089	26.092	1590.038	1283.294
108.103	26.311	1588.860	1283.786
109.118	26.271	1586.484	1281.469
110.133	26.213	1585.665	1280.280
111.147	26.215	1584.098	1278.917
112.162	26.081	1583.840	1277.644
113.176	26.236	1581.663	1276.873
114.191	26.410	1580.668	1277.188
115.206	26.237	1579.685	1275.057
116.220	26.086	1580.054	1274.176
117.235	26.276	1577.525	1273.364
118.249	26.247	1575.764	1271.628
119.264	26.331	1575.187	1271.636
120.279	26.112	1575.745	1270.432
121.293	26.310	1573.316	1269.753
122.308	26.395	1571.506	1268.781
123.322	26.154	1570.945	1266.521
124.337	26.114	1570.897	1266.093
125.352	26.213	1568.345	1264.616
126.366	26.194	1568.246	1264.293
127.381	26.224	1566.563	1263.034
128.395	26.286	1565.647	1262.619
129.410	26.248	1563.999	1260.907
130.424	26.183	1563.314	1259.792
131.439	26.311	1561.864	1259.408
132.454	26.088	1561.544	1257.483
133.468	26.221	1559.646	1256.768
134.483	26.334	1557.234	1255.495
135.497	26.452	1555.970	1255.188
136.512	26.271	1555.396	1253.357
137.527	26.415	1554.089	1253.193
138.541	26.205	1553.344	1251.024
139.556	26.396	1552.188	1251.307
140.570	26.106	1551.259	1248.438
141.585	26.491	1549.253	1249.372
142.600	26.294	1548.517	1247.309
143.614	26.247	1547.503	1246.061
144.629	26.205	1547.929	1246.004
145.643	26.181	1545.037	1243.399
146.658	26.197	1544.314	1242.819
147.673	26.060	1543.513	1241.123
148.687	26.272	1542.317	1241.504
149.702	26.224	1540.237	1239.392
150.716	26.174	1538.807	1237.787
151.731	26.267	1538.221	1237.843
152.746	26.231	1536.843	1236.379
153.760	26.368	1535.337	1235.995
154.775	26.291	1534.732	1234.876
155.789	26.370	1533.146	1234.024
156.804	26.263	1532.536	1232.695
157.819	26.283	1532.632	1232.804
158.833	26.254	1530.436	1230.731
159.848	26.353	1528.617	1229.829
160.862	26.550	1528.255	1230.771
161.877	26.354	1526.821	1228.176
162.892	26.399	1526.297	1227.950
163.906	26.503	1525.474	1227.887
164.921	26.484	1523.484	1226.048
165.935	26.387	1522.762	1224.698
166.950	26.496	1522.069	1224.769
167.964	26.429	1521.256	1223.555
168.979	26.431	1520.147	1222.567
169.994	26.537	1518.909	1222.184
171.008	26.553	1518.700	1222.014
172.023	26.303	1518.390	1219.965
173.037	26.521	1516.828	1220.074
174.052	26.389	1515.419	1217.943
175.067	26.421	1514.692	1217.469
176.081	26.489	1513.058	1216.501
177.096	26.511	1511.313	1215.140
178.110	26.473	1510.829	1214.389
179.125	26.432	1510.872	1214.039
180.140	26.574	1509.407	1213.709
181.154	26.385	1509.710	1212.579
182.169	26.442	1508.256	1211.687
183.183	26.392	1506.415	1209.764
184.198	26.483	1505.410	1209.457
185.213	26.467	1504.923	1208.855
186.227	26.385	1504.537	1207.890
187.242	26.575	1503.627	1208.321
188.256	26.640	1502.022	1207.356
189.271	26.539	1501.761	1206.367
190.286	26.441	1500.164	1204.325
191.300	26.520	1499.417	1204.143
192.315	26.267	1499.514	1202.428
193.329	26.582	1498.568	1203.658
194.344	26.562	1497.165	1202.293
195.359	26.498	1497.474	1202.009
196.373	26.660	1494.441	1200.545
197.388	26.623	1494.761	1200.448
198.402	26.359	1493.866	1197.875
199.417	26.471	1492.147	1197.129
200.432	26.710	1491.472	1198.066
201.446	26.514	1491.603	1196.771
202.461	26.622	1489.711	1195.855
203.475	26.590	1489.200	1195.132
204.490	26.616	1487.973	1194.212
205.504	26.517	1487.873	1193.371
206.519	26.411	1487.012	1191.875
207.534	26.374	1485.669	1190.451
208.548	26.580	1485.015	1191.179
209.563	26.609	1483.684	1190.195
210.577	26.374	1483.947	1188.757
211.592	26.746	1481.764	1189.347
212.607	26.484	1481.648	1187.427
213.621	26.696	1480.603	1187.870
214.636	26.614	1479.517	1186.359
215.650	26.377	1479.315	1184.537
216.665	26.424	1478.234	1183.875
217.680	26.861	1476.901	1185.559
218.694	26.811	1476.574	1184.865
219.709	26.827	1474.974	1183.586
220.723	26.875	1474.648	1183.530
221.738	26.543	1474.684	1181.287
222.753	26.566	1473.476	1180.364
223.767	26.605	1473.160	1180.265
224.782	26.524	1472.263	1178.911
225.796	26.641	1470.832	1178.420
226.811	26.724	1470.888	1178.902
227.826	26.541	1470.059	1176.945
228.840	26.686	1468.550	1176.572
229.855	26.670	1468.271	1176.142
230.869	26.780	1467.458	1176.099
231.884	26.834	1466.019	1175.194
232.899	26.670	1464.985	1173.198
233.913	26.623	1464.417	1172.339
234.928	26.469	1463.198	1170.259
235.942	26.628	1462.795	1170.866
236.957	26.773	1460.779	1170.081
237.972	26.689	1459.825	1168.671
238.986	26.739	1458.438	1167.779
240.001	26.576	1459.310	1167.322
241.015	26.533	1458.180	1166.041
242.030	26.689	1456.449	1165.559
243.045	26.910	1455.157	1165.841
244.059	26.550	1455.018	1163.310
245.074	26.762	1453.706	1163.520
246.088	26.731	1453.107	1162.741
247.103	26.796	1452.575	1162.629
248.117	26.744	1451.886	1161.643
249.132	26.994	1449.825	1161.486
250.147	26.976	1448.700	1160.368
251.161	27.125	1449.482	1161.845
252.176	27.129	1448.050	1160.622
253.190	27.133	1446.786	1159.529
254.205	26.870	1447.135	1158.027
255.220	26.811	1445.179	1155.986
256.234	26.811	1444.932	1155.684
257.249	26.975	1444.307	1156.129
258.263	27.135	1443.421	1156.334
259.278	26.961	1443.114	1154.879
260.293	27.009	1441.318	1153.647
261.307	26.919	1441.763	1153.323
262.322	26.897	1441.305	1152.720
263.336	26.921	1439.648	1151.442
264.351	26.776	1439.345	1150.180
265.366	27.051	1437.173	1150.085
266.380	26.961	1436.656	1148.997
267.395	26.813	1436.649	1147.953
268.409	26.839	1435.596	1147.173
269.424	26.808	1434.751	1146.203
270.439	26.590	1433.042	1143.357
271.453	27.159	1431.609	1145.701
272.468	26.860	1431.443	1143.584
273.482	26.939	1431.519	1144.042
274.497	26.850	1430.050	1142.205
275.512	26.899	1428.858	1141.462
276.526	26.957	1428.492	1141.431
277.541	26.948	1428.050	1140.919
278.555	27.155	1426.588	1140.954
279.570	27.031	1424.765	1138.617
280.585	27.064	1425.973	1139.691
281.599	26.971	1424.214	1137.599
282.614	26.906	1423.960	1136.889
283.628	27.171	1421.817	1136.736
284.643	26.857	1421.903	1134.738
285.657	27.113	1419.914	1134.648
286.672	26.903	1420.510	1133.712
287.687	26.918	1419.270	1132.715
288.701	26.754	1417.989	1130.569
289.716	26.982	1417.858	1131.786
290.730	27.228	1416.352	1132.015
291.745	26.970	1416.514	1130.440
292.760	26.870	1415.780	1129.131
293.774	26.968	1414.193	1128.373
294.789	26.940	1413.074	1127.209
295.803	27.147	1412.223	1127.714
296.818	27.188	1411.179	1127.038
297.833	27.026	1411.173	1125.927
298.847	26.888	1410.154	1124.160
299.862	26.938	1409.191	1123.601
300.876	26.970	1408.160	1122.877
301.891	27.175	1406.929	1123.062
302.906	27.108	1406.612	1122.296
303.920	26.973	1406.037	1120.906
304.935	27.236	1405.184	1121.750
305.949	27.013	1404.138	1119.440
306.964	27.084	1402.471	1118.449
307.979	27.036	1403.523	1118.894
308.993	27.023	1402.293	1117.736
310.008	26.721	1401.831	1115.409
311.022	27.129	1399.837	1116.228
312.037	26.896	1398.683	1113.779
313.052	27.006	1398.024	1113.834
314.066	26.969	1397.169	1112.829
315.081	26.963	1396.133	1111.863
316.095	26.841	1395.964	1110.885
317.110	27.010	1394.632	1110.764
318.125	26.929	1394.291	1109.897
319.139	26.972	1393.125	1109.133
320.154	27.069	1391.749	1108.528
321.168	27.105	1391.016	1108.066
322.183	27.271	1389.390	1107.684
323.197	27.212	1389.489	1107.311
324.212	26.785	1388.900	1104.138
325.227	27.157	1387.616	1105.285
326.241	26.751	1387.398	1102.542
327.256	27.148	1385.987	1103.739
328.270	27.114	1385.213	1102.817
329.285	26.955	1384.796	1101.424
330.300	27.129	1383.378	1101.253
331.314	27.057	1382.638	1100.129
332.329	27.076	1382.211	1099.807
333.343	27.320	1381.092	1100.298
334.358	26.860	1381.653	1097.861
335.373	27.022	1380.512	1097.835
336.387	26.844	1380.311	1096.503
337.402	26.948	1380.019	1096.803
338.416	27.110	1377.847	1095.959
339.431	26.992	1377.839	1095.143
340.446	27.260	1376.048	1095.234
341.460	27.300	1374.855	1094.433
342.475	27.134	1374.423	1092.992
343.489	27.129	1373.348	1092.008
344.504	27.200	1372.600	1091.745
345.519	27.059	1372.813	1090.969
346.533	27.175	1371.236	1090.316
347.548	27.341	1369.314	1089.687
348.562	27.140	1369.448	1088.494
349.577	26.971	1368.921	1086.968
350.592	27.007	1368.208	1086.516
351.606	27.286	1366.656	1086.860
352.621	27.328	1365.497	1086.092
353.635	26.864	1366.279	1083.844
354.650	26.962	1364.165	1082.654
355.665	27.069	1363.401	1082.592
356.679	26.978	1361.872	1080.739
357.694	26.870	1361.438	1079.659
358.708	27.125	1360.829	1080.594
359.723	27.189	1359.053	1079.470
360.738	27.065	1358.168	1077.937
361.752	27.022	1357.579	1077.115
362.767	27.057	1355.644	1075.697
363.781	27.118	1354.489	1075.044
364.796	27.009	1355.065	1074.763
365.810	27.143	1354.596	1075.084
366.825	26.980	1353.990	1073.547
367.840	27.195	1352.727	1073.717
368.854	27.120	1351.705	1072.369
369.869	27.220	1351.396	1072.622
370.883	27.036	1350.387	1070.639
371.898	27.209	1349.692	1071.013
372.913	27.177	1348.177	1069.530
373.927	26.957	1348.416	1068.331
374.942	27.113	1348.813	1069.466
375.956	27.065	1347.214	1067.824
376.971	27.063	1345.589	1066.427
377.986	27.303	1344.514	1066.892
379.000	27.016	1344.426	1065.044
380.015	27.257	1343.688	1065.778
381.029	27.097	1343.076	1064.261
382.044	27.231	1341.601	1063.782
383.059	27.030	1342.694	1063.374
384.073	27.025	1341.196	1062.065
385.088	26.976	1340.865	1061.422
386.102	27.046	1339.063	1060.312
387.117	27.220	1338.529	1060.809
388.132	27.184	1337.563	1059.741
389.146	27.155	1337.479	1059.410
390.161	27.015	1336.390	1057.642
391.175	26.989	1335.451	1056.650
392.190	27.020	1335.424	1056.714
393.205	27.093	1334.333	1056.184
394.219	27.157	1333.804	1056.042
395.234	27.170	1332.095	1054.674
396.248	27.130	1331.505	1053.879
397.263	27.088	1330.421	1052.683
398.278	27.128	1328.595	1051.379
399.292	27.297	1327.520	1051.415
400.307	27.187	1327.219	1050.443
401.321	27.026	1326.260	1048.662
402.336	26.981	1325.582	1047.778
403.350	27.124	1323.810	1047.105
404.365	27.227	1322.977	1046.946
405.380	27.225	1321.982	1046.058
406.394	27.230	1320.505	1044.823
407.409	27.129	1320.931	1044.486
408.423	26.797	1321.243	1042.731
409.438	27.118	1320.115	1043.595
410.453	27.143	1318.515	1042.381
411.467	27.304	1318.213	1042.973
412.482	27.278	1316.700	1041.536
413.496	27.269	1316.631	1041.337
414.511	27.212	1315.684	1040.170
415.526	27.073	1315.079	1038.807
416.540	26.920	1315.545	1038.205
417.555	27.140	1314.059	1038.195
418.569	27.201	1313.539	1038.044
419.584	27.085	1312.921	1036.799
420.599	27.156	1312.190	1036.534
421.613	142.182	1435.958	1792.402
422.628	137.933	1453.990	1792.475
