DTS Sentinel unit serial number:	SN413079Multiplexer serial number:	ORYXHardware model number:	OX4-SRSoftware version number:	ORYX F/W v4.00 Oryx Data Collector v3.7.2.0data status	okinstallation	princeton_trtdifferential loss correction	single-endedforward channel	channel 4reverse channel	N/Adate	2019/09/13time	12:57:35forward acquisition time	60.00reverse acquisition time	0.00gamma	496.2192k internal	0.2297k external	0.2297temperature offset calibration	1.0210default loss term (dB/km)	0.3790temperature slope calibration	1.0000multiplexer offset coefficient	1.0000multiplexer slope coefficient	1.0000fibre end	0.00T internal ref (°C)	34.77T ext. ref 1 (°C)	4.58T ext. ref 2 (°C)	30.71length (m)	temperature (°C)	Stokes	anti-Stokes-747.200	-51.989	-0.227	-0.108
-746.185	-117.659	-0.292	-0.054
-745.171	345.188	-0.047	-0.094
-744.156	205.022	0.093	-0.148
-743.142	-69.838	-0.229	0.089
-742.127	-8.620	-0.185	0.127
-741.112	-86.949	0.258	0.080
-740.098	-200.000	0.014	0.242
-739.083	-108.753	-0.216	-0.047
-738.069	53.598	-0.213	0.209
-737.054	211.480	-0.196	-0.314
-736.039	242.016	-0.172	-0.293
-735.025	244.873	-0.207	0.355
-734.010	-52.714	-0.256	-0.121
-732.996	800.000	-0.091	-0.322
-731.981	323.616	-0.019	0.038
-730.966	-121.442	0.188	-0.032
-729.952	-200.000	0.004	0.148
-728.937	255.511	-0.097	-0.170
-727.923	-101.901	0.191	0.047
-726.908	-97.033	-0.158	-0.042
-725.894	-113.014	0.090	-0.018
-724.879	-159.543	-0.189	0.011
-723.864	163.666	0.082	-0.118
-722.850	13.149	-0.124	0.098
-721.835	48.821	0.108	-0.103
-720.821	800.000	-0.113	-0.475
-719.806	-7.297	-0.198	-0.137
-718.791	-120.844	-0.361	-0.062
-717.777	-200.000	-0.061	-0.408
-716.762	-107.475	0.193	0.043
-715.748	-39.184	-0.098	-0.053
-714.733	-62.909	0.224	-0.094
-713.718	97.050	0.298	-0.349
-712.704	85.541	-0.041	0.046
-711.689	84.912	0.083	0.092
-710.675	800.000	0.018	-0.063
-709.660	-200.000	0.071	-0.342
-708.645	800.000	0.122	-0.402
-707.631	481.170	-0.067	-0.156
-706.616	800.000	-0.040	-0.164
-705.602	20.966	0.162	0.134
-704.587	9.390	-0.068	-0.052
-703.572	800.000	0.018	-0.055
-702.558	-46.295	-0.380	-0.191
-701.543	443.994	0.098	0.219
-700.529	-200.000	-0.041	-0.230
-699.514	11.866	-0.196	-0.154
-698.499	-102.189	0.087	0.021
-697.485	800.000	0.036	0.137
-696.470	-61.674	-0.101	-0.043
-695.456	-200.000	-0.024	-0.426
-694.441	-31.403	-0.083	-0.047
-693.426	-24.457	0.224	-0.136
-692.412	324.126	0.121	-0.235
-691.397	131.343	0.178	0.233
-690.383	-67.317	-0.125	-0.050
-689.368	213.594	-0.166	0.267
-688.354	800.000	0.057	0.206
-687.339	4.724	0.149	-0.111
-686.324	416.907	-0.049	-0.107
-685.310	582.511	-0.173	-0.432
-684.295	245.882	0.097	0.166
-683.281	508.947	0.115	-0.273
-682.266	-116.324	0.073	0.014
-681.251	-200.000	0.038	-0.244
-680.237	-76.315	-0.273	0.098
-679.222	-41.811	-0.138	-0.072
-678.208	666.523	0.082	0.216
-677.193	-11.067	-0.133	-0.089
-676.178	179.061	-0.195	-0.290
-675.164	319.490	-0.081	-0.157
-674.149	69.906	0.123	-0.129
-673.135	74.029	-0.127	0.136
-672.120	800.000	-0.043	-0.176
-671.105	114.880	0.206	-0.256
-670.091	378.923	-0.045	-0.094
-669.076	-166.058	-0.061	0.003
-668.062	129.764	-0.194	-0.252
-667.047	-1.917	-0.160	-0.114
-666.032	-200.000	-0.011	0.115
-665.018	800.000	0.044	-0.171
-664.003	335.349	0.268	0.530
-662.989	800.000	-0.028	0.099
-661.974	-200.000	0.021	-0.111
-660.959	162.905	-0.164	-0.234
-659.945	260.484	0.096	0.170
-658.930	-200.000	0.005	-0.219
-657.916	173.897	-0.068	0.100
-656.901	-193.346	0.563	0.005
-655.886	202.262	-0.240	-0.378
-654.872	-184.472	0.105	0.002
-653.857	289.517	0.055	-0.102
-652.843	24.576	0.085	0.072
-651.828	273.960	0.291	-0.524
-650.814	11.022	0.023	-0.018
-649.799	166.838	-0.100	0.145
-648.784	61.315	0.107	-0.108
-647.770	-74.247	0.118	0.044
-646.755	330.733	-0.094	-0.184
-645.741	-200.000	0.080	-0.498
-644.726	-16.282	-0.044	0.028
-643.711	291.949	0.133	0.247
-642.697	-4.949	0.145	0.102
-641.682	-87.742	-0.287	-0.088
-640.668	800.000	0.050	-0.205
-639.653	-200.000	0.008	-0.057
-638.638	-200.000	0.017	0.141
-637.624	54.543	-0.099	-0.097
-636.609	800.000	0.058	0.242
-635.595	-156.506	-0.404	0.026
-634.580	-163.078	-0.282	-0.014
-633.565	800.000	0.097	-0.389
-632.551	-65.388	-0.233	-0.095
-631.536	-104.568	-0.322	-0.076
-630.522	-122.155	-0.376	0.063
-629.507	800.000	-0.038	0.145
-628.492	-11.459	0.241	-0.161
-627.478	636.085	-0.094	0.242
-626.463	-200.000	-0.073	-0.386
-625.449	3.175	-0.099	0.073
-624.434	329.383	0.153	0.299
-623.419	142.275	-0.129	0.174
-622.405	150.379	0.080	0.110
-621.390	-200.000	0.065	0.394
-620.376	78.069	0.124	0.135
-619.361	-136.778	-0.179	0.021
-618.346	395.587	-0.025	0.053
-617.332	-200.000	0.048	-0.481
-616.317	-41.915	0.155	0.081
-615.303	-71.883	0.188	0.071
-614.288	120.391	-0.193	0.244
-613.273	12.259	-0.222	0.174
-612.259	474.743	-0.111	-0.254
-611.244	149.885	-0.061	0.084
-610.230	177.670	0.197	0.291
-609.215	-200.000	0.006	0.160
-608.201	261.898	-0.210	-0.371
-607.186	362.765	0.022	-0.045
-606.171	-13.481	-0.400	-0.264
-605.157	-23.723	0.229	-0.140
-604.142	-90.880	-0.190	-0.056
-603.128	172.999	-0.165	0.242
-602.113	-56.747	-0.268	0.120
-601.098	800.000	0.065	0.221
-600.084	146.668	0.127	0.174
-599.069	-5.188	-0.204	-0.142
-598.055	-200.000	-0.037	-0.264
-597.040	800.000	0.043	0.123
-596.025	800.000	-0.058	-0.209
-595.011	48.549	0.220	-0.209
-593.996	297.062	-0.116	-0.217
-592.982	-200.000	-0.069	-0.355
-591.967	148.705	0.100	0.138
-590.952	-148.123	0.296	-0.025
-589.938	-44.799	0.075	-0.038
-588.923	-44.035	-0.077	0.039
-587.909	-41.519	0.307	0.160
-586.894	141.668	-0.028	-0.038
-585.879	56.422	-0.262	-0.259
-584.865	132.701	0.212	0.277
-583.850	-41.783	0.069	0.036
-582.836	-100.313	-0.292	0.074
-581.821	800.000	0.041	0.130
-580.806	-86.402	-0.255	-0.080
-579.792	-200.000	0.034	0.222
-578.777	83.803	-0.180	-0.199
-577.763	227.765	0.076	-0.126
-576.748	-83.278	-0.167	-0.054
-575.733	417.205	0.022	-0.048
-574.719	-139.765	-0.230	-0.025
-573.704	-60.715	-0.211	0.091
-572.690	586.336	0.119	0.298
-571.675	-15.383	0.215	-0.139
-570.661	183.196	0.068	0.102
-569.646	49.655	0.146	-0.140
-568.631	154.597	0.123	-0.171
-567.617	235.853	0.024	-0.040
-566.602	60.399	0.305	-0.306
-565.588	679.190	0.064	0.168
-564.573	-200.000	0.027	0.174
-563.558	195.192	-0.218	0.336
-562.544	800.000	0.057	-0.186
-561.529	800.000	0.065	-0.224
-560.515	800.000	0.033	-0.108
-559.500	252.419	-0.091	-0.157
-558.485	-164.673	-0.315	0.014
-557.471	800.000	-0.035	0.104
-556.456	781.151	-0.054	0.149
-555.442	-92.057	-0.248	-0.071
-554.427	683.662	-0.117	-0.308
-553.412	-49.954	-0.183	-0.088
-552.398	-200.000	0.020	-0.120
-551.383	-113.697	0.212	0.042
-550.369	-200.000	0.013	0.232
-549.354	-47.634	-0.258	-0.127
-548.339	336.282	0.113	-0.223
-547.325	-105.509	0.105	0.024
-546.310	310.945	0.173	-0.329
-545.296	800.000	-0.120	0.339
-544.281	-43.351	0.134	0.069
-543.266	-11.334	0.328	-0.219
-542.252	-64.664	-0.172	0.071
-541.237	-200.000	-0.020	-0.108
-540.223	37.438	-0.255	0.229
-539.208	-200.000	0.058	0.449
-538.193	126.317	-0.092	-0.117
-537.179	174.629	-0.118	0.173
-536.164	-200.000	0.003	-0.039
-535.150	102.135	-0.103	-0.122
-534.135	-200.000	0.008	0.228
-533.121	122.264	-0.124	0.157
-532.106	-200.000	-0.015	-0.188
-531.091	800.000	-0.049	0.152
-530.077	-17.121	0.286	0.182
-529.062	-200.000	0.020	-0.376
-528.048	407.785	-0.035	0.075
-527.033	-35.864	0.196	0.108
-526.018	-68.962	0.213	0.083
-525.004	-1.235	0.119	-0.085
-523.989	55.894	-0.215	-0.211
-522.975	45.793	-0.229	-0.214
-521.960	473.012	-0.121	-0.277
-520.945	-200.000	0.043	0.236
-519.931	-17.966	-0.139	-0.088
-518.916	56.296	0.072	-0.071
-517.902	-200.000	-0.039	0.237
-516.887	383.724	0.135	-0.280
-515.872	12.482	0.270	0.211
-514.858	-145.639	-0.205	-0.019
-513.843	40.729	-0.182	-0.166
-512.829	-139.161	0.398	-0.044
-511.814	800.000	0.047	0.200
-510.799	138.587	-0.062	0.083
-509.785	-200.000	-0.094	0.503
-508.770	50.181	0.464	-0.443
-507.756	800.000	0.139	-0.467
-506.741	-28.952	-0.251	0.146
-505.726	101.027	0.137	0.161
-504.712	-139.666	-0.040	-0.004
-503.697	-200.000	0.038	-0.217
-502.683	-200.000	0.006	-0.231
-501.668	-200.000	-0.065	-0.348
-500.653	293.884	0.072	-0.133
-499.639	-0.632	-0.034	0.024
-498.624	800.000	0.048	-0.136
-497.610	-78.498	-0.261	-0.091
-496.595	-125.173	0.226	0.035
-495.581	-76.288	-0.018	-0.007
-494.566	-184.409	-0.110	-0.002
-493.551	65.830	0.224	-0.229
-492.537	-84.147	0.032	0.010
-491.522	-200.000	0.016	-0.077
-490.508	409.837	0.013	0.027
-489.493	-103.918	0.175	-0.041
-488.478	340.652	-0.090	0.178
-487.464	-44.340	-0.153	0.077
-486.449	707.916	-0.038	-0.101
-485.435	-200.000	-0.027	0.175
-484.420	-200.000	0.045	-0.224
-483.405	2.542	0.390	-0.285
-482.391	-61.506	-0.100	0.042
-481.376	-152.423	0.110	-0.008
-480.362	800.000	-0.078	-0.235
-479.347	-93.404	-0.219	0.061
-478.332	-166.976	0.033	-0.001
-477.318	129.972	-0.103	0.133
-476.303	-200.000	0.029	0.134
-475.289	217.180	-0.299	0.481
-474.274	101.453	-0.255	0.301
-473.259	-145.695	0.312	-0.028
-472.245	-111.114	0.277	-0.057
-471.230	-158.834	-0.054	0.003
-470.216	2.461	-0.247	-0.181
-469.201	-99.429	0.257	0.065
-468.186	430.295	0.156	0.342
-467.172	-36.324	0.162	0.088
-466.157	-78.548	0.312	-0.108
-465.143	-71.056	0.096	0.037
-464.128	-94.914	-0.030	0.008
-463.113	220.601	-0.021	-0.034
-462.099	-160.122	0.061	0.003
-461.084	-165.088	-0.195	-0.009
-460.070	-184.413	0.124	0.002
-459.055	800.000	-0.054	0.169
-458.040	-80.368	-0.013	-0.004
-457.026	166.303	0.101	0.145
-456.011	-91.366	0.236	0.068
-454.997	-75.129	-0.574	0.207
-453.982	-200.000	0.000	0.062
-452.968	361.195	0.075	-0.152
-451.953	252.402	0.097	-0.168
-450.938	107.606	-0.118	0.142
-449.924	94.381	-0.077	-0.089
-448.909	400.217	-0.068	-0.145
-447.895	-133.226	0.115	0.015
-446.880	31.007	0.218	0.189
-445.865	58.533	-0.201	-0.199
-444.851	-59.071	0.086	0.037
-443.836	312.708	0.246	-0.466
-442.822	-200.000	0.031	-0.150
-441.807	322.188	0.087	-0.168
-440.792	-124.579	0.179	-0.028
-439.778	-142.773	-0.279	0.027
-438.763	414.186	0.137	0.293
-437.749	-35.158	0.334	0.184
-436.734	-87.980	0.239	-0.072
-435.719	257.380	0.098	-0.170
-434.705	800.000	-0.098	-0.285
-433.690	-200.000	0.008	0.125
-432.676	-5.802	0.206	-0.142
-431.661	20.829	0.268	-0.219
-430.646	-44.893	-0.045	-0.023
-429.632	800.000	0.100	0.300
-428.617	128.582	-0.134	-0.172
-427.603	-80.161	-0.176	-0.059
-426.588	-28.260	0.283	-0.165
-425.573	-82.622	0.154	-0.050
-424.559	291.345	0.109	0.201
-423.544	345.441	-0.145	-0.287
-422.530	103.129	0.072	-0.085
-421.515	-200.000	-0.010	0.181
-420.500	-166.876	0.165	0.007
-419.486	12.344	0.287	-0.223
-418.471	190.556	0.164	-0.248
-417.457	-200.000	-0.020	0.112
-416.442	-64.047	0.007	0.003
-415.428	-105.455	0.196	-0.045
-414.413	614.297	0.060	0.151
-413.398	641.744	-0.043	0.111
-412.384	-72.869	-0.287	-0.107
-411.369	-82.371	0.186	0.061
-410.355	-166.595	0.091	-0.004
-409.340	-157.367	0.216	-0.013
-408.325	-200.000	-0.010	0.161
-407.311	28.309	-0.077	0.066
-406.296	-51.056	-0.247	-0.117
-405.282	-7.447	0.028	0.019
-404.267	-200.000	0.008	-0.172
-403.252	-95.459	-0.057	-0.015
-402.238	147.031	0.203	-0.275
-401.223	-51.449	-0.036	0.017
-400.209	-142.623	-0.131	0.013
-399.194	-200.000	-0.064	0.341
-398.179	-200.000	0.007	-0.078
-397.165	800.000	0.029	0.115
-396.150	79.385	-0.062	-0.068
-395.136	-65.850	0.092	0.037
-394.121	6.240	0.240	-0.179
-393.106	150.827	-0.162	-0.222
-392.092	800.000	-0.125	0.402
-391.077	-200.000	0.044	0.376
-390.063	34.385	0.131	0.115
-389.048	-15.312	0.034	-0.022
-388.033	-43.628	-0.097	0.049
-387.019	260.295	0.061	-0.107
-386.004	8.887	-0.225	-0.171
-384.990	-15.116	-0.161	-0.104
-383.975	-40.482	0.257	0.135
-382.960	108.251	0.086	0.103
-381.946	-200.000	-0.016	0.324
-380.931	2.413	-0.150	-0.109
-379.917	185.741	-0.121	-0.181
-378.902	-200.000	-0.016	0.094
-377.888	182.019	-0.253	0.376
-376.873	-167.877	0.168	0.007
-375.858	-67.294	0.116	-0.046
-374.844	-200.000	-0.046	0.363
-373.829	-131.909	0.168	0.022
-372.815	-141.197	0.452	0.046
-371.800	800.000	0.085	-0.291
-370.785	119.074	-0.139	-0.173
-369.771	-111.586	-0.448	0.092
-368.756	-96.025	-0.109	0.029
-367.742	-200.000	0.007	-0.118
-366.727	139.889	0.042	-0.056
-365.712	186.710	0.295	-0.442
-364.698	8.264	0.199	0.151
-363.683	800.000	0.034	-0.117
-362.669	337.726	-0.076	-0.149
-361.654	-200.000	-0.052	0.306
-360.639	66.019	0.177	0.180
-359.625	-8.401	-0.159	0.108
-358.610	212.505	-0.133	-0.211
-357.596	-158.645	0.352	0.020
-356.581	22.962	0.117	0.096
-355.566	-26.031	0.246	-0.145
-354.552	-150.067	-0.042	-0.003
-353.537	-22.704	0.230	-0.140
-352.523	405.258	-0.136	0.288
-351.508	800.000	0.053	-0.210
-350.493	-200.000	-0.056	-0.488
-349.479	-123.554	0.079	-0.013
-348.464	-79.457	0.104	0.035
-347.450	-88.697	0.188	-0.056
-346.435	-48.166	0.146	-0.071
-345.420	-68.195	-0.191	-0.075
-344.406	-200.000	0.052	0.296
-343.391	-91.507	-0.096	-0.028
-342.377	-119.399	-0.079	0.014
-341.362	-174.076	-0.095	-0.003
-340.348	-91.102	-0.171	-0.049
-339.333	-63.991	0.335	0.137
-338.318	168.002	0.190	-0.272
-337.304	-200.000	0.041	0.238
-336.289	166.623	0.049	-0.069
-335.275	-163.541	-0.390	0.019
-334.260	23.117	-0.221	-0.182
-333.245	-125.084	0.423	0.065
-332.231	-200.000	0.131	0.578
-331.216	-200.000	0.089	0.484
-330.202	-48.651	-0.213	-0.103
-329.187	549.095	0.061	0.147
-328.172	780.217	-0.093	-0.257
-327.158	126.634	0.084	0.107
-326.143	30.797	0.105	-0.090
-325.129	800.000	0.114	-0.360
-324.114	157.408	-0.180	0.250
-323.099	-122.068	0.097	0.016
-322.085	800.000	0.073	-0.252
-321.070	3.578	-0.142	-0.104
-320.056	110.554	0.040	0.049
-319.041	-200.000	0.004	-0.355
-318.026	800.000	-0.047	-0.187
-317.012	68.055	-0.218	-0.224
-315.997	-104.497	0.264	-0.061
-314.983	470.274	-0.209	-0.471
-313.968	-182.078	0.284	-0.005
-312.953	318.045	-0.028	0.054
-311.939	18.237	-0.140	0.112
-310.924	780.723	0.016	0.045
-309.910	-200.000	0.008	0.157
-308.895	-93.997	-0.592	-0.163
-307.880	-11.700	0.058	-0.038
-306.866	-111.071	0.251	-0.052
-305.851	-141.935	-0.270	-0.027
-304.837	-25.882	-0.217	0.129
-303.822	-163.856	-0.042	-0.002
-302.807	-3.332	0.147	-0.103
-301.793	800.000	0.074	0.279
-300.778	436.653	-0.013	-0.028
-299.764	398.200	-0.072	0.150
-298.749	67.503	0.150	-0.153
-297.735	20.048	0.238	-0.193
-296.720	465.556	-0.091	0.203
-295.705	-200.000	-0.024	-0.167
-294.691	-200.000	0.021	0.251
-293.676	117.410	-0.035	0.043
-292.662	-200.000	-0.024	-0.335
-291.647	-200.000	0.023	0.274
-290.632	234.883	0.093	0.154
-289.618	65.988	0.046	0.047
-288.603	-200.000	0.048	0.212
-287.589	800.000	-0.112	-0.398
-286.574	136.858	-0.171	-0.224
-285.559	155.643	-0.101	0.140
-284.545	-65.886	0.346	-0.139
-283.530	226.053	0.221	-0.359
-282.516	-200.000	-0.010	0.091
-281.501	62.584	0.032	0.032
-280.486	-86.249	-0.299	0.092
-279.472	136.753	-0.062	0.082
-278.457	137.764	-0.136	0.178
-277.443	-200.000	0.057	0.334
-276.428	-200.000	-0.039	-0.248
-275.413	-200.000	0.010	0.337
-274.399	-14.000	0.091	0.059
-273.384	273.693	0.199	-0.352
-272.370	-39.630	-0.116	-0.061
-271.355	-200.000	0.023	-0.260
-270.340	100.906	0.048	-0.056
-269.326	-200.000	-0.018	0.147
-268.311	-200.000	-0.006	-0.078
-267.297	189.266	-0.129	-0.194
-266.282	-167.262	-0.201	-0.008
-265.267	667.723	-0.056	-0.146
-264.253	-173.713	0.175	0.005
-263.238	-31.728	0.106	-0.060
-262.224	-150.492	-0.269	0.021
-261.209	-48.686	0.286	0.138
-260.195	-159.471	0.341	0.019
-259.180	-78.301	-0.295	0.101
-258.165	55.506	0.282	0.273
-257.151	39.861	-0.098	-0.088
-256.136	-200.000	0.040	-0.228
-255.122	-19.851	-0.237	0.147
-254.107	-107.717	-0.553	0.121
-253.092	61.712	-0.029	-0.029
-252.078	800.000	0.091	0.371
-251.063	-200.000	-0.012	-0.150
-250.049	-200.000	0.018	-0.179
-249.034	-38.244	0.133	0.071
-248.019	745.010	-0.098	-0.263
-247.005	-0.242	0.129	-0.092
-245.990	-28.699	-0.144	-0.083
-244.976	-134.875	-0.287	-0.035
-243.961	-200.000	-0.217	0.001
-242.946	-19.403	0.124	-0.077
-241.932	257.980	-0.149	0.257
-240.917	51.169	-0.354	0.336
-239.903	278.318	0.026	-0.046
-238.888	-11.201	0.180	-0.119
-237.873	18.818	0.104	-0.084
-236.859	-32.833	-0.360	0.200
-235.844	160.361	0.075	0.105
-234.830	-200.000	0.054	0.266
-233.815	599.694	-0.120	-0.298
-232.800	223.308	-0.085	-0.137
-231.786	-35.534	0.072	0.039
-230.771	-200.000	-0.026	-0.185
-229.757	-85.130	0.127	0.040
-228.742	274.309	-0.056	-0.099
-227.727	-136.595	0.442	-0.051
-226.713	-92.993	-0.095	0.026
-225.698	-102.231	-0.243	0.059
-224.684	-41.530	-0.272	-0.140
-223.669	-127.360	0.428	0.062
-222.655	800.000	0.077	0.289
-221.640	-89.853	-0.121	-0.035
-220.625	-31.879	-0.061	0.034
-219.611	281.980	0.137	0.246
-218.596	68.460	-0.101	-0.104
-217.582	-96.325	-0.483	0.128
-216.567	-154.748	0.325	-0.022
-215.552	-36.737	-0.138	0.074
-214.538	-31.398	-0.221	0.124
-213.523	54.808	0.260	0.251
-212.509	-200.000	0.025	-0.204
-211.494	-136.278	0.142	-0.017
-210.479	46.248	0.181	0.168
-209.465	-200.000	-0.006	0.378
-208.450	317.699	-0.070	0.132
-207.436	-133.297	-0.225	0.028
-206.421	365.729	0.077	-0.154
-205.406	135.287	0.075	-0.098
-204.392	95.815	-0.158	-0.180
-203.377	-0.157	0.325	-0.231
-202.363	553.919	0.123	0.296
-201.348	-83.520	0.298	-0.095
-200.333	648.110	-0.131	-0.336
-199.319	-55.961	0.073	-0.033
-198.304	169.948	-0.176	0.252
-197.290	115.492	-0.117	0.143
-196.275	324.479	0.139	0.264
-195.260	-123.616	-0.285	0.045
-194.246	81.501	-0.132	0.143
-193.231	-124.758	-0.295	-0.046
-192.217	-200.000	-0.005	0.132
-191.202	22.906	0.190	0.156
-190.187	800.000	-0.050	-0.163
-189.173	-200.000	-0.006	0.217
-188.158	800.000	-0.045	-0.147
-187.144	-49.640	0.158	-0.075
-186.129	-49.288	0.174	-0.083
-185.114	135.371	0.110	-0.143
-184.100	182.957	-0.148	0.218
-183.085	800.000	0.079	0.335
-182.071	22.123	-0.474	0.386
-181.056	-118.979	-0.175	-0.031
-180.042	248.294	0.178	0.301
-179.027	800.000	0.106	0.305
-178.012	5.180	0.166	0.122
-176.998	140.514	-0.223	-0.293
-175.983	20.234	-0.150	0.121
-174.969	-137.334	-0.315	-0.036
-173.954	-78.133	-0.219	0.075
-172.939	-200.000	-0.041	0.283
-171.925	249.584	0.124	0.210
-170.910	260.415	-0.213	0.367
-169.896	-200.000	-0.005	-0.109
-168.881	-200.000	-0.032	0.315
-167.866	-32.470	0.082	-0.045
-166.852	225.951	0.084	0.136
-165.837	-39.838	-0.130	0.068
-164.823	107.541	0.204	0.242
-163.808	800.000	-0.067	0.275
-162.793	-103.774	-0.226	-0.053
-161.779	47.583	0.256	-0.238
-160.764	184.584	0.133	-0.197
-159.750	-200.000	0.001	0.213
-158.735	360.985	-0.124	-0.248
-157.720	737.031	-0.051	-0.137
-156.706	-19.106	0.180	-0.112
-155.691	-130.179	-0.159	0.022
-154.677	50.075	0.156	-0.147
-153.662	52.898	-0.176	0.168
-152.647	-109.927	0.212	-0.044
-151.633	800.000	0.112	-0.360
-150.618	705.039	0.016	0.043
-149.604	18.172	0.254	0.202
-148.589	31.886	-0.250	-0.215
-147.574	-155.182	0.364	0.024
-146.560	-9.823	0.162	-0.107
-145.545	-124.582	-0.152	-0.023
-144.531	228.132	0.228	0.371
-143.516	-114.862	0.259	-0.049
-142.502	-140.058	0.376	-0.039
-141.487	-200.000	-0.021	-0.127
-140.472	80.301	-0.137	-0.147
-139.458	-137.409	0.191	-0.022
-138.443	-200.000	-0.016	-0.075
-137.429	656.604	-0.089	-0.227
-136.414	-119.982	0.137	0.023
-135.399	-108.566	-0.261	-0.056
-134.385	-33.204	0.149	0.082
-133.370	135.325	-0.150	-0.194
-132.356	-85.846	0.307	0.095
-131.341	-86.260	-0.491	0.151
-130.326	-200.000	-0.004	-0.071
-129.312	-78.595	0.392	0.134
-128.297	-4.778	0.141	-0.097
-127.283	-68.413	0.089	-0.034
-126.268	800.000	-0.081	-0.276
-125.253	6.189	-0.238	-0.176
-124.239	81.723	0.038	0.041
-123.224	-130.995	0.251	0.033
-122.210	-168.076	0.087	-0.003
-121.195	54.996	-0.165	-0.159
-120.180	800.000	0.082	0.286
-119.166	31.228	0.330	-0.283
-118.151	209.417	-0.258	-0.402
-117.137	800.000	0.032	-0.117
-116.122	686.160	0.115	0.299
-115.107	83.945	-0.242	-0.264
-114.093	-55.706	0.286	-0.127
-113.078	93.230	-0.136	-0.154
-112.064	-200.000	0.369	-0.002
-111.049	-18.196	-0.159	0.099
-110.034	54.706	-0.098	0.094
-109.020	-76.768	-0.238	0.083
-108.005	-78.413	0.223	-0.076
-106.991	366.076	-0.130	0.261
-105.976	-114.929	-0.471	-0.089
-104.962	109.293	0.221	-0.264
-103.947	-82.697	0.223	-0.072
-102.932	-72.435	0.366	-0.135
-101.918	-10.958	0.328	0.215
-100.903	148.845	-0.111	0.149
-99.889	-200.000	0.040	-0.275
-98.874	800.000	0.041	0.145
-97.859	-152.572	0.110	-0.008
-96.845	800.000	0.074	0.267
-95.830	220.696	-0.315	0.503
-94.816	-174.595	0.244	0.007
-93.801	-200.000	0.001	-0.182
-92.786	-121.972	-0.046	0.008
-91.772	-200.000	0.031	0.213
-90.757	-143.260	-0.276	0.026
-89.743	-200.000	-0.019	-0.222
-88.728	-200.000	-0.014	0.212
-87.713	-200.000	0.053	0.291
-86.699	-110.319	0.086	0.018
-85.684	-81.401	-0.221	0.073
-84.670	-77.068	-0.173	0.060
-83.655	205.355	-0.161	-0.249
-82.640	-97.323	0.229	0.059
-81.626	-160.358	0.194	0.010
-80.611	-109.027	0.249	-0.053
-79.597	522.447	0.097	-0.228
-78.582	-200.000	-0.037	-0.223
-77.567	474.220	0.121	-0.273
-76.553	-130.607	0.202	0.027
-75.538	576.294	0.033	-0.081
-74.524	91.629	0.186	-0.208
-73.509	229.661	-0.033	-0.053
-72.494	301.417	0.097	-0.178
-71.480	-80.152	0.191	0.064
-70.465	-67.607	0.111	-0.043
-69.451	-142.730	0.148	-0.014
-68.436	-113.576	0.270	0.053
-67.422	800.000	-0.039	-0.124
-66.407	-49.786	-0.387	-0.183
-65.392	-173.985	-0.453	0.013
-64.378	-21.173	-0.121	-0.074
-63.363	800.000	0.056	-0.237
-62.349	73.688	0.023	0.024
-61.334	49.147	-0.760	-0.710
-60.319	800.000	0.142	0.479
-59.305	-200.000	-0.193	-0.847
-58.290	46.663	0.754	0.696
-57.276	479.223	0.716	1.612
-56.261	-200.000	95.413	563.482
-55.246	626.752	1388.333	3483.998
-54.232	181.661	2622.747	3836.762
-53.217	111.399	2356.251	2823.817
-52.203	41.474	2102.295	1891.216
-51.188	36.527	2014.346	1766.939
-50.173	34.993	1995.722	1736.623
-49.159	48.870	2046.924	1909.099
-48.144	51.799	2065.946	1953.716
-47.130	37.246	2023.726	1781.483
-46.115	34.786	2012.315	1748.891
-45.100	34.690	2009.395	1745.406
-44.086	34.676	2006.642	1742.822
-43.071	34.637	2004.228	1740.301
-42.057	34.542	2002.340	1737.725
-41.042	34.646	2000.500	1737.004
-40.027	34.579	1998.641	1734.712
-39.013	34.583	1996.477	1732.800
-37.998	34.637	1994.138	1731.191
-36.984	34.674	1992.447	1729.996
-35.969	34.721	1990.526	1728.684
-34.954	34.675	1988.828	1726.725
-33.940	34.716	1987.477	1725.847
-32.925	34.736	1985.694	1724.419
-31.911	34.675	1984.111	1722.425
-30.896	34.807	1981.603	1721.361
-29.881	34.756	1980.581	1719.952
-28.867	34.806	1978.675	1718.676
-27.852	34.766	1976.790	1716.614
-26.838	34.753	1975.098	1714.955
-25.823	34.785	1973.290	1713.606
-24.809	34.800	1971.479	1712.097
-23.794	34.742	1969.767	1710.024
-22.779	34.781	1967.969	1708.749
-21.765	34.797	1966.346	1707.412
-20.750	34.825	1964.748	1706.209
-19.736	34.811	1963.234	1704.700
-18.721	34.789	1961.673	1703.078
-17.706	34.799	1960.252	1701.867
-16.692	34.792	1958.290	1700.034
-15.677	34.787	1956.764	1698.601
-14.663	34.903	1954.985	1698.017
-13.648	34.836	1953.666	1696.207
-12.633	34.885	1952.204	1695.311
-11.619	34.833	1951.338	1694.029
-10.604	34.848	1949.649	1692.625
-9.590	34.827	1948.667	1691.521
-8.575	34.775	1947.481	1689.967
-7.560	34.777	1946.127	1688.738
-6.546	34.795	1944.703	1687.599
-5.531	34.794	1943.583	1686.547
-4.517	34.855	1941.743	1685.422
-3.502	34.864	1940.759	1684.576
-2.487	34.791	1939.842	1683.073
-1.473	34.815	1939.060	1682.542
-0.458	34.837	1934.934	1679.090
0.556	37.420	1913.769	1650.907
1.571	32.633	1893.602	1593.018
2.586	28.140	1914.726	1572.135
3.600	26.808	1951.286	1590.342
4.615	25.397	1944.727	1572.506
5.629	19.495	1841.334	1439.697
6.644	9.848	1720.378	1269.467
7.659	4.862	1682.038	1202.639
8.673	4.456	1678.762	1197.067
9.688	4.633	1676.772	1196.906
10.702	4.609	1674.988	1195.341
11.717	4.631	1672.179	1193.400
12.731	5.289	1672.453	1198.536
13.746	11.807	1688.658	1260.390
14.761	20.246	1706.108	1338.702
15.775	23.013	1709.494	1362.597
16.790	22.551	1707.396	1357.247
17.804	21.569	1704.662	1347.400
18.819	20.656	1701.163	1337.500
19.834	20.016	1698.910	1330.697
20.848	19.821	1697.107	1327.670
21.863	19.685	1696.256	1325.846
22.877	19.512	1695.251	1323.614
23.892	19.299	1693.986	1320.879
24.907	19.208	1692.646	1319.015
25.921	19.177	1691.534	1317.798
26.936	19.153	1690.553	1316.732
27.950	19.279	1689.014	1316.377
28.965	19.180	1689.294	1315.729
29.980	19.356	1688.345	1316.217
30.994	19.437	1687.244	1315.859
32.009	19.562	1686.530	1316.138
33.023	19.697	1684.855	1315.739
34.038	19.672	1684.606	1315.237
35.053	19.573	1683.148	1313.230
36.067	19.514	1681.608	1311.467
37.082	19.344	1681.028	1309.604
38.096	19.469	1679.479	1309.229
39.111	19.486	1678.742	1308.667
40.126	19.616	1678.091	1309.033
41.140	19.442	1677.488	1307.125
42.155	19.384	1675.424	1304.966
43.169	19.085	1673.874	1301.383
44.184	19.004	1672.612	1299.672
45.199	18.905	1671.324	1297.810
46.213	18.901	1670.454	1296.991
47.228	18.970	1670.226	1297.220
48.242	19.130	1668.646	1297.085
49.257	19.389	1667.415	1297.962
50.271	19.306	1666.113	1296.210
51.286	19.308	1665.567	1295.682
52.301	19.356	1663.796	1294.552
53.315	19.333	1662.345	1293.136
54.330	19.278	1660.500	1291.176
55.344	19.190	1659.010	1289.243
56.359	19.098	1657.261	1287.078
57.374	19.144	1655.952	1286.293
58.388	19.161	1654.867	1285.464
59.403	18.982	1653.995	1283.336
60.417	18.947	1652.693	1281.957
61.432	18.969	1651.553	1281.117
62.447	18.954	1650.358	1279.965
63.461	18.824	1648.816	1277.694
64.476	18.754	1647.898	1276.344
65.490	18.719	1646.604	1274.972
66.505	18.753	1645.173	1273.999
67.520	18.771	1644.720	1273.674
68.534	18.762	1643.650	1272.665
69.549	18.808	1642.932	1272.334
70.563	18.793	1641.567	1271.058
71.578	18.782	1640.375	1269.937
72.593	18.618	1639.052	1267.590
73.607	18.592	1638.135	1266.581
74.622	18.501	1637.306	1265.155
75.636	18.511	1636.373	1264.392
76.651	18.555	1635.935	1264.266
77.666	18.664	1634.682	1263.993
78.680	18.665	1634.148	1263.475
79.695	18.669	1633.331	1262.761
80.709	18.864	1632.490	1263.430
81.724	18.923	1631.560	1263.033
82.739	18.991	1630.956	1262.957
83.753	19.050	1630.270	1262.747
84.768	19.172	1629.195	1262.696
85.782	19.377	1629.196	1264.082
86.797	19.487	1628.213	1264.017
87.812	19.569	1627.248	1263.756
88.826	19.483	1625.997	1262.043
89.841	19.366	1625.087	1260.369
90.855	19.316	1624.035	1259.076
91.870	19.389	1622.582	1258.374
92.884	19.480	1622.438	1258.810
93.899	19.533	1620.803	1257.819
94.914	19.507	1619.584	1256.575
95.928	19.545	1618.873	1256.189
96.943	19.508	1617.699	1254.894
97.957	19.590	1616.306	1254.302
98.972	19.494	1614.511	1252.099
99.987	19.467	1613.072	1250.678
101.001	19.474	1611.247	1249.200
102.016	19.476	1609.188	1247.513
103.030	19.479	1608.325	1246.755
104.045	19.455	1607.374	1245.730
105.060	19.393	1606.210	1244.274
106.074	19.422	1604.296	1242.884
107.089	19.153	1602.473	1239.432
108.103	18.905	1600.917	1236.337
109.118	18.826	1598.974	1234.157
110.133	18.813	1597.306	1232.667
111.147	18.742	1596.258	1231.235
112.162	18.822	1595.128	1230.831
113.176	18.840	1593.563	1229.645
114.191	18.841	1592.600	1228.801
115.206	18.955	1591.849	1228.929
116.220	18.937	1590.450	1227.608
117.235	18.906	1588.664	1225.900
118.249	18.801	1587.522	1224.165
119.264	18.883	1586.026	1223.484
120.279	18.871	1584.473	1222.091
121.293	18.766	1582.947	1220.058
122.308	18.714	1581.700	1218.620
123.322	18.701	1579.530	1216.754
124.337	18.644	1577.956	1215.030
125.352	18.454	1577.293	1213.062
126.366	18.578	1575.568	1212.510
127.381	18.551	1574.708	1211.549
128.395	18.582	1573.432	1210.674
129.410	18.598	1572.433	1209.917
130.424	18.558	1571.266	1208.627
131.439	18.667	1569.686	1208.072
132.454	18.782	1568.166	1207.602
133.468	18.839	1567.217	1207.164
134.483	18.949	1565.734	1206.688
135.497	18.934	1564.702	1205.685
136.512	18.979	1562.854	1204.471
137.527	19.014	1561.895	1203.870
138.541	19.014	1560.942	1203.027
139.556	18.996	1559.452	1201.646
140.570	19.105	1557.985	1201.170
141.585	19.142	1557.298	1200.792
142.600	19.279	1555.945	1200.595
143.614	19.332	1555.266	1200.333
144.629	19.381	1554.316	1199.835
145.643	19.565	1552.729	1199.786
146.658	19.587	1551.540	1198.912
147.673	19.445	1549.788	1196.467
148.687	19.333	1548.221	1194.373
149.702	19.253	1546.476	1192.372
150.716	19.130	1544.912	1190.209
151.731	19.050	1543.596	1188.540
152.746	19.067	1542.396	1187.627
153.760	19.043	1540.821	1186.143
154.775	19.106	1539.690	1185.599
155.789	19.186	1538.815	1185.372
156.804	19.232	1537.625	1184.668
157.819	19.376	1536.318	1184.543
158.833	19.341	1535.434	1183.515
159.848	19.309	1534.436	1182.427
160.862	19.600	1533.267	1183.417
161.877	19.661	1531.930	1182.693
162.892	19.484	1530.780	1180.492
163.906	19.266	1528.766	1177.347
164.921	19.113	1527.806	1175.453
165.935	19.029	1526.791	1173.996
166.950	19.087	1526.401	1173.989
167.964	19.287	1524.679	1173.923
168.979	19.280	1523.554	1172.909
169.994	19.241	1522.463	1171.700
171.008	19.197	1521.345	1170.434
172.023	19.196	1520.612	1169.763
173.037	19.315	1519.266	1169.427
174.052	19.404	1518.273	1169.164
175.067	19.575	1517.040	1169.271
176.081	19.379	1515.901	1166.960
177.096	19.214	1514.307	1164.515
178.110	19.120	1513.065	1162.826
179.125	19.200	1511.684	1162.195
180.140	19.218	1510.882	1161.602
181.154	19.275	1510.460	1161.558
182.169	19.341	1509.147	1160.889
183.183	19.408	1508.542	1160.773
184.198	19.500	1507.367	1160.384
185.213	19.599	1506.508	1160.287
186.227	19.492	1505.478	1158.673
187.242	19.586	1504.720	1158.619
188.256	19.675	1502.943	1157.738
189.271	19.759	1502.093	1157.544
190.286	19.858	1500.851	1157.149
191.300	19.673	1500.242	1155.343
192.315	19.356	1498.788	1151.999
193.329	19.072	1496.813	1148.488
194.344	19.133	1495.291	1147.622
195.359	19.128	1494.797	1147.111
196.373	19.274	1493.682	1147.126
197.388	19.300	1493.208	1146.829
198.402	19.530	1491.503	1146.946
199.417	19.571	1491.004	1146.737
200.432	19.812	1489.890	1147.376
201.446	19.865	1489.998	1147.711
202.461	19.968	1488.601	1147.213
203.475	19.982	1487.912	1146.673
204.490	20.195	1486.340	1146.770
205.504	19.957	1485.184	1144.202
206.519	19.789	1483.944	1142.037
207.534	19.668	1482.719	1140.194
208.548	19.682	1481.627	1139.351
209.563	19.526	1480.822	1137.600
210.577	19.711	1479.524	1137.724
211.592	19.699	1478.814	1136.993
212.607	19.769	1477.577	1136.406
213.621	19.824	1477.610	1136.689
214.636	20.004	1476.565	1136.965
215.650	19.871	1475.753	1135.369
216.665	19.908	1474.353	1134.432
217.680	19.892	1474.354	1134.226
218.694	20.086	1473.116	1134.447
219.709	20.174	1472.700	1134.599
220.723	20.222	1471.898	1134.199
221.738	20.140	1470.402	1132.407
222.753	20.085	1469.652	1131.373
223.767	20.060	1468.051	1129.874
224.782	20.039	1467.438	1129.166
225.796	20.201	1466.062	1129.064
226.811	20.232	1465.827	1128.987
227.826	20.340	1464.938	1128.904
228.840	20.211	1463.912	1127.172
229.855	19.977	1462.958	1124.818
230.869	20.037	1462.013	1124.384
231.884	20.001	1460.880	1123.181
232.899	19.952	1459.550	1121.737
233.913	19.904	1458.491	1120.517
234.928	19.885	1456.945	1119.103
235.942	19.754	1455.505	1117.051
236.957	19.806	1454.418	1116.454
237.972	19.695	1453.279	1114.770
238.986	19.658	1452.344	1113.714
240.001	19.691	1451.802	1113.409
241.015	19.794	1450.423	1112.920
242.030	19.793	1449.168	1111.848
243.045	19.924	1448.544	1112.112
244.059	19.915	1447.672	1111.290
245.074	19.990	1447.442	1111.496
246.088	20.033	1446.591	1111.018
247.103	20.113	1445.517	1110.608
248.117	20.125	1445.096	1110.266
249.132	20.247	1444.195	1110.252
250.147	20.419	1443.808	1110.957
251.161	20.649	1443.324	1111.962
252.176	20.812	1442.175	1112.015
253.190	20.939	1441.731	1112.383
254.205	20.845	1441.397	1111.427
255.220	20.867	1440.788	1111.002
256.234	20.908	1439.886	1110.468
257.249	20.958	1439.205	1110.165
258.263	20.946	1437.887	1108.976
259.278	20.957	1437.283	1108.477
260.293	20.788	1436.142	1106.428
261.307	20.922	1435.107	1106.381
262.322	20.967	1434.688	1106.245
263.336	21.054	1433.791	1106.006
264.351	21.120	1432.492	1105.327
265.366	21.058	1431.940	1104.410
266.380	21.055	1431.123	1103.662
267.395	21.152	1429.646	1103.038
268.409	21.124	1429.051	1102.308
269.424	21.122	1427.431	1100.947
270.439	20.873	1426.937	1098.900
271.453	20.867	1425.720	1097.829
272.468	20.862	1424.833	1097.017
273.482	20.825	1423.923	1095.982
274.497	20.835	1422.726	1095.028
275.512	20.860	1421.691	1094.292
276.526	20.826	1420.747	1093.256
277.541	20.766	1420.119	1092.302
278.555	20.820	1419.409	1091.992
279.570	20.825	1418.533	1091.254
280.585	20.842	1417.584	1090.537
281.599	21.147	1417.309	1092.140
282.614	21.066	1416.533	1090.933
283.628	21.064	1415.081	1089.710
284.643	20.973	1413.941	1088.166
285.657	20.920	1412.529	1086.654
286.672	20.837	1411.904	1085.561
287.687	20.879	1410.580	1084.704
288.701	20.876	1409.371	1083.661
289.716	20.892	1409.261	1083.581
290.730	21.047	1408.036	1083.506
291.745	21.013	1406.705	1082.172
292.760	21.008	1406.043	1081.538
293.774	21.081	1405.057	1081.140
294.789	21.029	1404.486	1080.278
295.803	21.221	1403.736	1080.795
296.818	21.229	1402.735	1079.978
297.833	21.164	1401.658	1078.651
298.847	20.967	1400.483	1076.436
299.862	21.053	1399.550	1076.153
300.876	20.931	1399.079	1074.945
301.891	21.037	1398.227	1074.849
302.906	21.045	1397.741	1074.432
303.920	21.177	1396.637	1074.298
304.935	21.316	1396.149	1074.684
305.949	21.555	1394.724	1074.960
306.964	21.542	1394.676	1074.745
307.979	21.532	1393.750	1073.876
308.993	21.516	1392.193	1072.483
310.008	21.370	1391.173	1070.707
311.022	21.472	1389.945	1070.292
312.037	21.530	1388.996	1069.823
313.052	21.588	1388.135	1069.419
314.066	21.517	1387.403	1068.328
315.081	21.299	1386.209	1065.983
316.095	21.137	1384.995	1063.968
317.110	21.089	1383.781	1062.649
318.125	20.861	1383.235	1060.748
319.139	21.009	1382.080	1060.665
320.154	21.022	1381.054	1059.868
321.168	21.029	1379.649	1058.736
322.183	21.091	1378.973	1058.498
323.197	21.121	1378.514	1058.236
324.212	21.190	1377.198	1057.550
325.227	21.219	1377.070	1057.531
326.241	21.263	1376.142	1056.993
327.256	21.291	1375.161	1056.318
328.270	21.201	1374.135	1054.890
329.285	21.117	1373.322	1053.666
330.300	21.231	1371.766	1053.065
331.314	21.101	1371.384	1051.894
332.329	21.320	1370.293	1052.284
333.343	21.256	1369.430	1051.143
334.358	21.185	1368.862	1050.186
335.373	21.322	1367.846	1050.142
336.387	21.473	1366.899	1050.228
337.402	21.470	1366.841	1050.068
338.416	21.515	1366.057	1049.646
339.431	21.487	1365.723	1049.127
340.446	21.636	1364.571	1049.043
341.460	21.663	1363.521	1048.305
342.475	21.912	1362.539	1048.947
343.489	21.906	1362.263	1048.605
344.504	22.016	1360.845	1048.076
345.519	22.011	1360.267	1047.505
346.533	22.139	1358.846	1047.085
347.548	22.035	1358.652	1046.225
348.562	22.096	1358.307	1046.228
349.577	22.221	1356.988	1045.864
350.592	22.028	1356.225	1044.034
351.606	21.828	1354.945	1041.770
352.621	21.635	1353.756	1039.619
353.635	21.656	1352.510	1038.693
354.650	21.556	1351.542	1037.265
355.665	21.578	1350.371	1036.406
356.679	21.613	1349.181	1035.604
357.694	21.621	1348.814	1035.283
358.708	21.726	1347.733	1034.978
359.723	21.791	1346.581	1034.387
360.738	21.702	1346.165	1033.451
361.752	21.767	1344.893	1032.765
362.767	21.839	1343.391	1031.944
363.781	21.973	1342.350	1031.840
364.796	21.871	1341.887	1030.794
365.810	21.968	1341.001	1030.591
366.825	22.036	1341.005	1030.907
367.840	22.209	1340.229	1031.232
368.854	22.313	1339.577	1031.250
369.869	22.300	1339.337	1030.898
370.883	22.435	1338.604	1031.032
371.898	22.364	1337.544	1029.708
372.913	22.343	1336.358	1028.578
373.927	22.236	1335.465	1027.179
374.942	22.224	1334.870	1026.556
375.956	22.413	1333.995	1026.897
376.971	22.417	1333.442	1026.407
377.986	22.297	1332.596	1024.965
379.000	22.333	1331.599	1024.315
380.015	22.386	1331.282	1024.288
381.029	22.482	1330.741	1024.343
382.044	22.548	1329.959	1024.029
383.059	22.601	1329.204	1023.668
384.073	22.519	1328.512	1022.569
385.088	22.578	1327.458	1022.011
386.102	22.522	1327.090	1021.308
387.117	22.520	1326.375	1020.658
388.132	22.545	1325.010	1019.662
389.146	22.308	1323.988	1017.416
390.161	22.250	1323.027	1016.250
391.175	22.238	1322.374	1015.588
392.190	22.309	1321.454	1015.205
393.205	22.399	1320.365	1014.796
394.219	22.379	1320.105	1014.391
395.234	22.552	1318.853	1014.337
396.248	22.441	1317.567	1012.616
397.263	22.380	1316.236	1011.152
398.278	22.332	1314.627	1009.551
399.292	22.291	1313.323	1008.229
400.307	22.178	1312.478	1006.843
401.321	22.161	1311.307	1005.756
402.336	22.048	1310.414	1004.337
403.350	22.109	1309.187	1003.657
404.365	22.137	1308.202	1002.972
405.380	22.181	1307.169	1002.345
406.394	22.176	1307.084	1002.164
407.409	22.316	1306.290	1002.261
408.423	22.397	1305.690	1002.172
409.438	22.512	1305.115	1002.297
410.453	22.611	1304.653	1002.419
411.467	22.757	1303.812	1002.512
412.482	22.828	1303.400	1002.509
413.496	22.866	1302.703	1002.103
414.511	22.888	1301.897	1001.518
415.526	23.017	1301.087	1001.538
416.540	23.036	1300.870	1001.388
417.555	23.171	1300.143	1001.503
418.569	23.089	1299.761	1000.659
419.584	23.131	1298.853	1000.106
420.599	22.973	1298.066	998.519
421.613	143.591	1432.113	1789.097
422.628	138.954	1451.642	1789.199
