DTS Sentinel unit serial number:	SN413079Multiplexer serial number:	ORYXHardware model number:	OX4-SRSoftware version number:	ORYX F/W v4.00 Oryx Data Collector v3.7.2.0data status	okinstallation	princeton_trtdifferential loss correction	single-endedforward channel	channel 4reverse channel	N/Adate	2019/09/10time	16:47:11forward acquisition time	60.00reverse acquisition time	0.00gamma	496.2192k internal	0.2297k external	0.2297temperature offset calibration	0.9939default loss term (dB/km)	0.3790temperature slope calibration	1.0000multiplexer offset coefficient	1.0000multiplexer slope coefficient	1.0000fibre end	0.00T internal ref (°C)	37.64T ext. ref 1 (°C)	-0.33T ext. ref 2 (°C)	31.06length (m)	temperature (°C)	Stokes	anti-Stokes-747.200	-39.152	-0.283	-0.152
-746.185	800.000	0.091	0.286
-745.171	70.671	-0.076	0.081
-744.156	-23.086	-0.181	0.111
-743.142	57.458	0.153	-0.152
-742.127	26.967	0.197	0.168
-741.112	-135.263	0.510	-0.062
-740.098	589.113	-0.043	-0.107
-739.083	-200.000	0.018	0.224
-738.069	-200.000	-0.028	0.367
-737.054	183.255	0.075	0.113
-736.039	-149.032	-0.522	-0.043
-735.025	289.300	0.301	0.558
-734.010	38.106	-0.420	0.382
-732.996	69.190	-0.427	-0.448
-731.981	-108.080	-0.147	-0.033
-730.966	141.805	0.176	0.238
-729.952	800.000	0.036	0.153
-728.937	800.000	0.085	-0.243
-727.923	800.000	-0.029	-0.124
-726.908	164.454	-0.185	-0.266
-725.894	-97.196	0.203	0.054
-724.879	-129.543	-0.091	0.013
-723.864	-119.973	-0.334	0.058
-722.850	-39.396	0.286	-0.153
-721.835	-2.312	-0.132	0.094
-720.821	50.698	-0.228	-0.220
-719.806	87.718	0.245	-0.277
-718.791	-200.000	-0.028	-0.328
-717.777	209.003	0.178	-0.285
-716.762	-70.593	0.214	-0.083
-715.748	-106.748	-0.069	-0.016
-714.733	-128.970	-0.162	0.023
-713.718	85.058	0.212	0.237
-712.704	-130.485	0.075	0.010
-711.689	-81.014	0.310	-0.105
-710.675	-147.387	0.343	-0.030
-709.660	-200.000	-0.029	-0.338
-708.645	-30.455	-0.129	0.074
-707.631	-5.392	0.171	0.120
-706.616	-175.494	0.450	-0.012
-705.602	800.000	-0.164	-0.587
-704.587	800.000	0.041	0.130
-703.572	-45.037	-0.165	-0.084
-702.558	-68.802	-0.045	0.018
-701.543	-0.887	-0.282	0.204
-700.529	-90.995	0.259	-0.076
-699.514	-200.000	0.012	-0.221
-698.499	-2.977	-0.099	-0.071
-697.485	130.196	0.241	-0.314
-696.470	188.672	0.051	-0.078
-695.456	261.346	-0.027	0.048
-694.441	-41.424	-0.188	-0.099
-693.426	-55.512	-0.342	-0.156
-692.412	-137.480	0.077	0.009
-691.397	16.030	0.100	0.080
-690.383	24.240	-0.183	0.154
-689.368	265.502	0.040	-0.071
-688.354	-155.900	0.246	0.016
-687.339	-197.097	0.190	-0.001
-686.324	-112.177	-0.258	-0.053
-685.310	800.000	0.105	-0.305
-684.295	-64.869	-0.229	-0.094
-683.281	-14.896	-0.106	-0.069
-682.266	91.490	-0.097	-0.111
-681.251	-17.311	0.133	-0.085
-680.237	369.247	0.119	-0.246
-679.222	62.677	0.106	-0.108
-678.208	118.079	-0.221	-0.277
-677.193	-200.000	-0.006	-0.243
-676.178	183.709	-0.140	0.210
-675.164	322.302	-0.045	0.088
-674.149	800.000	-0.104	-0.306
-673.135	201.878	0.078	-0.122
-672.120	-96.864	0.092	0.025
-671.105	-32.790	-0.310	-0.175
-670.091	14.253	0.108	-0.086
-669.076	47.510	-0.271	0.258
-668.062	481.324	0.034	0.080
-667.047	-65.558	-0.088	-0.036
-666.032	800.000	0.015	0.065
-665.018	38.311	0.163	-0.148
-664.003	-46.945	0.241	0.120
-662.989	-200.000	-0.041	0.184
-661.974	112.278	-0.102	0.126
-660.959	-171.260	-0.240	-0.008
-659.945	-200.000	0.001	-0.406
-658.930	113.988	-0.104	0.129
-657.916	60.666	0.204	0.206
-656.901	-200.000	-0.002	0.271
-655.886	13.584	0.069	0.055
-654.872	284.662	0.158	-0.289
-653.857	-145.388	0.190	0.017
-652.843	32.181	0.075	0.065
-651.828	-19.006	0.061	-0.038
-650.814	-95.672	0.172	-0.047
-649.799	46.955	0.169	-0.160
-648.784	800.000	0.057	0.191
-647.770	53.755	-0.294	-0.287
-646.755	-200.000	-0.027	-0.129
-645.741	-176.814	0.156	-0.004
-644.726	95.196	-0.120	-0.139
-643.711	800.000	-0.019	-0.059
-642.697	-200.000	-0.021	-0.111
-641.682	800.000	-0.106	-0.315
-640.668	52.072	-0.113	0.109
-639.653	-121.811	-0.200	-0.034
-638.638	98.227	0.170	0.199
-637.624	179.983	0.011	-0.017
-636.609	-65.024	-0.133	0.054
-635.595	-26.841	-0.243	-0.144
-634.580	800.000	0.115	-0.325
-633.565	145.193	0.195	0.265
-632.551	500.014	-0.056	0.131
-631.536	62.056	-0.057	0.058
-630.522	230.350	0.042	0.070
-629.507	-3.328	0.125	-0.089
-628.492	800.000	0.062	-0.202
-627.478	115.237	-0.177	-0.220
-626.463	181.685	-0.119	0.179
-625.449	-149.398	0.155	-0.012
-624.434	16.384	-0.100	-0.081
-623.419	84.002	-0.236	0.262
-622.405	800.000	-0.048	-0.163
-621.390	17.716	-0.002	-0.002
-620.376	97.310	-0.017	-0.020
-619.361	0.334	0.123	0.089
-618.346	-30.568	0.027	-0.016
-617.332	86.683	-0.081	0.091
-616.317	-47.040	-0.043	-0.021
-615.303	-88.777	0.244	0.074
-614.288	-52.623	-0.150	-0.070
-613.273	800.000	0.018	-0.061
-612.259	387.650	0.105	-0.220
-611.244	-200.000	0.036	0.245
-610.230	-200.000	0.022	0.313
-609.215	-63.975	-0.432	0.179
-608.201	800.000	-0.080	0.353
-607.186	-89.438	-0.230	-0.069
-606.171	233.485	-0.119	-0.200
-605.157	206.070	-0.061	0.097
-604.142	394.508	-0.046	0.098
-603.128	114.756	-0.161	-0.199
-602.113	-200.000	0.020	0.186
-601.098	706.170	0.083	-0.222
-600.084	16.993	-0.050	0.041
-599.069	-88.190	-0.224	-0.068
-598.055	800.000	0.057	-0.177
-597.040	-200.000	-0.018	0.252
-596.025	-60.427	-0.233	0.101
-595.011	146.902	0.010	-0.013
-593.996	-101.582	-0.198	-0.049
-592.982	374.358	0.195	-0.404
-591.967	2.228	0.163	-0.120
-590.952	-113.632	-0.079	0.016
-589.938	59.493	0.237	-0.237
-588.923	-200.000	0.025	-0.172
-587.909	19.578	-0.307	0.251
-586.894	119.800	-0.059	0.075
-585.879	-62.937	-0.323	-0.135
-584.865	-200.000	-0.017	0.244
-583.850	402.370	0.033	0.070
-582.836	45.661	0.084	-0.079
-581.821	571.817	0.019	-0.047
-580.806	62.872	0.252	-0.256
-579.792	800.000	-0.054	0.151
-578.777	-200.000	-0.092	0.653
-577.763	107.310	0.107	0.129
-576.748	105.335	0.211	0.253
-575.733	303.344	0.019	-0.036
-574.719	64.431	0.203	-0.208
-573.704	-200.000	-0.001	-0.165
-572.690	-36.845	-0.309	0.168
-571.675	-73.305	-0.213	0.079
-570.661	-136.832	-0.460	0.054
-569.646	800.000	0.037	0.111
-568.631	269.354	-0.199	-0.354
-567.617	-100.358	0.532	-0.134
-566.602	391.594	-0.051	-0.107
-565.588	214.751	-0.208	-0.334
-564.573	186.183	-0.146	0.221
-563.558	-125.333	-0.312	0.048
-562.544	-93.524	0.144	0.040
-561.529	64.471	-0.280	0.287
-560.515	-147.205	-0.110	-0.010
-559.500	122.080	-0.026	-0.033
-558.485	-164.507	0.128	0.006
-557.471	-9.128	0.275	0.186
-556.456	-200.000	0.034	-0.346
-555.442	13.504	-0.110	-0.087
-554.427	-50.740	-0.276	-0.132
-553.412	-76.013	-0.295	0.106
-552.398	35.044	-0.189	-0.168
-551.383	329.731	-0.073	0.142
-550.369	-56.223	0.470	0.212
-549.354	34.138	-0.169	-0.149
-548.339	-149.716	0.139	0.011
-547.325	-200.000	0.009	0.209
-546.310	-200.000	-0.031	-0.222
-545.296	242.374	0.158	-0.269
-544.281	-97.807	-0.232	0.061
-543.266	352.798	-0.035	-0.071
-542.252	-95.353	-0.372	0.101
-541.237	217.141	-0.068	0.111
-540.223	800.000	0.060	-0.211
-539.208	-200.000	-0.022	-0.157
-538.193	13.143	-0.113	0.088
-537.179	-200.000	0.051	0.322
-536.164	-30.763	-0.321	-0.184
-535.150	800.000	-0.085	-0.303
-534.135	-200.000	0.094	0.444
-533.121	124.975	0.239	0.304
-532.106	130.258	-0.139	0.180
-531.091	-73.350	-0.392	0.145
-530.077	-200.000	-0.003	0.089
-529.062	63.773	0.029	-0.029
-528.048	108.854	-0.076	0.092
-527.033	-17.157	-0.225	0.144
-526.018	-119.076	0.234	-0.042
-525.004	6.210	-0.247	0.185
-523.989	-30.672	0.234	-0.134
-522.975	-43.898	0.392	-0.200
-521.960	140.158	0.027	-0.036
-520.945	-32.001	-0.106	-0.060
-519.931	-111.357	0.123	0.025
-518.916	56.788	0.014	0.014
-517.902	240.749	-0.115	0.195
-516.887	199.269	-0.073	-0.113
-515.872	6.281	0.284	-0.214
-514.858	-47.472	-0.522	0.257
-513.843	118.357	-0.057	0.071
-512.829	101.144	-0.090	0.107
-511.814	18.461	0.196	-0.158
-510.799	800.000	0.081	-0.330
-509.785	94.227	0.054	0.062
-508.770	1.504	0.192	-0.140
-507.756	390.251	-0.177	0.371
-506.741	800.000	-0.070	-0.271
-505.726	-106.560	-0.135	0.030
-504.712	800.000	-0.079	0.223
-503.697	-132.080	0.388	-0.051
-502.683	288.987	0.183	-0.335
-501.668	-158.588	0.189	-0.011
-500.653	-93.991	-0.150	-0.042
-499.639	-200.000	-0.036	0.178
-498.624	800.000	0.031	-0.089
-497.610	-200.000	0.005	-0.125
-496.595	800.000	-0.044	0.127
-495.581	42.018	-0.208	-0.191
-494.566	-180.541	0.146	0.003
-493.551	-117.821	-0.101	0.018
-492.537	13.811	0.088	0.069
-491.522	-200.000	0.005	0.230
-490.508	2.809	0.394	-0.289
-489.493	-39.273	-0.125	0.066
-488.478	-27.306	-0.092	-0.054
-487.464	-125.068	-0.191	-0.030
-486.449	-44.423	-0.196	0.099
-485.435	-121.970	-0.506	-0.084
-484.420	-152.453	-0.295	0.021
-483.405	96.356	-0.153	-0.177
-482.391	-200.000	-0.022	0.112
-481.376	-200.000	0.039	0.304
-480.362	800.000	-0.034	0.150
-479.347	-35.109	-0.168	0.092
-478.332	71.111	0.048	-0.050
-477.318	800.000	0.086	-0.293
-476.303	-63.328	-0.035	-0.014
-475.289	-142.067	-0.348	0.035
-474.274	-75.036	0.087	-0.031
-473.259	146.270	0.222	-0.301
-472.245	533.298	-0.144	-0.345
-471.230	48.511	0.099	-0.093
-470.216	-79.333	0.066	0.023
-469.201	-145.811	0.053	-0.005
-468.186	800.000	0.056	-0.167
-467.172	462.542	0.010	0.022
-466.157	149.340	0.140	0.192
-465.143	255.396	-0.015	-0.026
-464.128	398.762	0.055	-0.115
-463.113	-124.420	0.311	-0.049
-462.099	800.000	-0.091	0.335
-461.084	-118.981	0.244	-0.043
-460.070	-193.802	-0.216	-0.002
-459.055	-61.794	-0.376	-0.159
-458.040	-148.787	0.325	0.027
-457.026	800.000	0.025	-0.077
-456.011	728.950	-0.027	0.073
-454.997	454.567	-0.224	-0.502
-453.982	800.000	-0.041	0.168
-452.968	-37.417	0.236	0.127
-451.953	11.072	-0.100	0.077
-450.938	-64.409	-0.426	0.175
-449.924	800.000	0.046	0.191
-448.909	73.004	0.259	0.273
-447.895	77.551	-0.049	0.052
-446.880	800.000	-0.020	-0.068
-445.865	800.000	-0.095	-0.378
-444.851	232.025	-0.203	-0.337
-443.836	-154.266	0.345	0.024
-442.822	-28.659	0.200	0.116
-441.807	226.307	-0.148	-0.243
-440.792	-97.068	0.206	-0.054
-439.778	-16.870	-0.051	-0.033
-438.763	-200.000	-0.015	0.137
-437.749	26.225	-0.192	0.162
-436.734	-200.000	0.276	-0.000
-435.719	150.782	-0.255	-0.350
-434.705	15.807	0.119	-0.094
-433.690	800.000	-0.042	-0.171
-432.676	-58.958	-0.181	0.079
-431.661	800.000	-0.101	0.309
-430.646	-29.803	-0.193	0.111
-429.632	-78.892	-0.168	-0.058
-428.617	156.727	0.298	-0.415
-427.603	-64.868	-0.153	-0.062
-426.588	0.907	-0.304	0.220
-425.573	800.000	0.070	0.267
-424.559	-200.000	-0.014	-0.163
-423.544	-165.723	-0.222	-0.010
-422.530	602.932	-0.094	0.235
-421.515	-39.911	0.121	0.064
-420.500	-54.691	-0.087	-0.040
-419.486	93.275	0.126	-0.143
-418.471	199.268	0.029	0.044
-417.457	-51.560	0.047	0.022
-416.442	-46.867	-0.063	0.031
-415.428	-200.000	0.006	0.056
-414.413	-69.920	0.318	0.122
-413.398	42.146	0.089	-0.081
-412.384	-163.959	0.331	0.016
-411.369	295.589	-0.133	0.246
-410.355	-39.666	0.097	0.051
-409.340	-48.895	0.196	-0.095
-408.325	233.516	0.085	-0.141
-407.311	-16.575	0.252	0.161
-406.296	17.503	0.387	-0.310
-405.282	-200.000	0.028	0.268
-404.267	2.618	-0.053	-0.039
-403.252	12.437	-0.058	0.045
-402.238	-78.808	0.254	-0.087
-401.223	-146.037	0.144	-0.013
-400.209	-200.000	0.002	0.074
-399.194	655.136	-0.161	0.416
-398.179	276.885	0.191	0.342
-397.165	-0.416	0.174	0.124
-396.150	-148.002	0.408	0.034
-395.136	399.591	-0.106	0.223
-394.121	-34.325	0.166	-0.091
-393.106	14.555	0.117	-0.092
-392.092	254.337	-0.009	0.016
-391.077	156.626	0.084	0.117
-390.063	-200.000	-0.039	-0.198
-389.048	-40.233	-0.332	-0.174
-388.033	340.995	-0.143	-0.282
-387.019	-84.332	-0.193	-0.061
-386.004	445.262	0.038	-0.083
-384.990	800.000	0.034	0.097
-383.975	-99.165	0.065	-0.017
-382.960	30.413	0.134	-0.115
-381.946	-61.875	0.062	-0.026
-380.931	-200.000	0.015	0.072
-379.917	-20.838	0.306	-0.189
-378.902	-200.000	0.010	0.098
-377.888	-200.000	0.042	-0.263
-376.873	800.000	0.064	0.195
-375.858	-60.507	0.246	-0.105
-374.844	212.894	-0.094	-0.150
-373.829	-68.847	0.389	-0.151
-372.815	-121.641	-0.486	-0.081
-371.800	259.825	-0.092	0.161
-370.785	54.610	0.072	0.070
-369.771	84.778	0.294	0.324
-368.756	47.326	-0.236	0.221
-367.742	-200.000	0.063	0.324
-366.727	-57.804	-0.222	0.098
-365.712	-56.437	-0.322	-0.144
-364.698	-25.529	-0.432	-0.257
-363.683	158.670	-0.193	0.270
-362.669	22.979	0.038	0.031
-361.654	800.000	0.031	-0.095
-360.639	14.023	-0.176	-0.137
-359.625	-33.537	-0.248	0.138
-358.610	-75.663	0.331	0.118
-357.596	-59.769	0.036	-0.015
-356.581	-69.876	0.221	-0.085
-355.566	800.000	-0.033	-0.114
-354.552	123.999	0.122	-0.154
-353.537	800.000	0.055	0.163
-352.523	61.529	0.145	0.145
-351.508	-131.762	0.134	-0.018
-350.493	28.368	-0.056	0.047
-349.479	692.886	-0.128	0.338
-348.464	-53.753	-0.254	-0.117
-347.450	-8.291	-0.161	-0.109
-346.435	-200.000	-0.013	-0.231
-345.420	106.182	-0.306	0.364
-344.406	-78.963	-0.060	0.021
-343.391	-116.075	0.226	-0.042
-342.377	-200.000	0.024	0.287
-341.362	41.410	-0.276	-0.251
-340.348	-110.902	-0.361	-0.075
-339.333	334.447	0.039	-0.076
-338.318	-151.657	-0.079	-0.006
-337.304	334.115	0.157	0.305
-336.289	-56.235	0.114	-0.051
-335.275	666.907	-0.215	-0.559
-334.260	-200.000	0.022	0.259
-333.245	-200.000	-0.029	-0.131
-332.231	800.000	-0.037	-0.136
-331.216	800.000	0.092	-0.310
-330.202	32.615	0.360	0.313
-329.187	53.851	0.187	-0.180
-328.172	173.435	-0.212	-0.307
-327.158	6.304	-0.158	0.118
-326.143	-128.547	0.289	0.041
-325.129	29.526	-0.094	-0.080
-324.114	-128.364	-0.452	-0.065
-323.099	-69.878	0.419	-0.160
-322.085	63.201	0.230	0.232
-321.070	-80.579	-0.148	0.049
-320.056	-151.422	-0.215	-0.016
-319.041	90.760	-0.320	0.360
-318.026	-200.000	-0.046	-0.204
-317.012	567.463	-0.083	-0.203
-315.997	-67.319	0.231	-0.091
-314.983	800.000	0.023	0.065
-313.968	15.930	0.116	-0.092
-312.953	455.477	-0.057	0.128
-311.939	-200.000	0.050	0.379
-310.924	62.432	-0.166	0.167
-309.910	-124.030	0.312	0.049
-308.895	-4.593	-0.039	-0.027
-307.880	153.133	0.070	0.096
-306.866	33.559	0.139	-0.121
-305.851	517.624	-0.126	-0.297
-304.837	-24.189	-0.220	-0.132
-303.822	-68.849	-0.311	0.121
-302.807	-39.764	0.215	-0.113
-301.793	-184.477	-0.314	0.005
-300.778	291.728	0.170	0.310
-299.764	800.000	0.152	-0.494
-298.749	-200.000	-0.022	0.428
-297.735	-116.335	-0.227	0.042
-296.720	-69.604	0.442	0.170
-295.705	-96.722	0.285	0.075
-294.691	800.000	0.030	-0.099
-293.676	240.414	-0.135	-0.225
-292.662	-126.861	0.149	0.022
-291.647	105.160	0.156	-0.185
-290.632	87.732	0.129	0.143
-289.618	-1.338	0.285	-0.202
-288.603	-143.722	0.304	-0.029
-287.589	-55.974	0.247	0.110
-286.574	33.442	-0.174	-0.152
-285.559	-138.116	-0.205	-0.023
-284.545	-10.444	-0.081	-0.054
-283.530	-30.920	0.351	-0.199
-282.516	56.759	0.111	-0.108
-281.501	-61.237	-0.207	-0.088
-280.486	119.234	0.091	0.112
-279.472	-200.000	-0.020	-0.108
-278.457	44.158	-0.127	0.117
-277.443	-200.000	0.014	-0.079
-276.428	56.676	-0.088	-0.086
-275.413	800.000	0.088	-0.258
-274.399	114.328	-0.283	-0.346
-273.384	-200.000	0.057	0.333
-272.370	-77.201	-0.156	0.054
-271.355	800.000	0.074	0.220
-270.340	-96.485	0.101	-0.027
-269.326	800.000	0.014	-0.044
-268.311	413.218	0.115	-0.244
-267.297	-200.000	-0.063	0.319
-266.282	131.984	-0.075	-0.097
-265.267	-49.485	0.390	-0.187
-264.253	470.466	0.115	0.259
-263.238	-200.000	0.020	0.197
-262.224	6.976	-0.303	0.226
-261.209	-200.000	-0.016	0.256
-260.195	45.798	-0.082	0.076
-259.180	232.124	0.216	-0.355
-258.165	-200.000	-0.030	-0.223
-257.151	-44.832	0.286	-0.143
-256.136	325.208	0.101	0.194
-255.122	-108.782	0.086	0.018
-254.107	48.248	-0.185	-0.174
-253.092	-42.036	0.492	-0.252
-252.078	27.741	0.273	0.231
-251.063	-41.619	0.206	0.106
-250.049	222.615	0.158	0.255
-249.034	-113.913	0.343	0.067
-248.019	800.000	-0.095	0.276
-247.005	-200.000	-0.000	-0.158
-245.990	800.000	-0.051	-0.162
-244.976	-98.607	0.304	0.078
-243.961	-22.257	-0.198	0.120
-242.946	335.591	-0.130	-0.253
-241.932	-200.000	0.020	-0.219
-240.917	-147.776	-0.063	-0.005
-239.903	-96.190	-0.077	0.020
-238.888	800.000	-0.016	0.049
-237.873	-200.000	-0.013	-0.279
-236.859	639.899	-0.155	-0.396
-235.844	30.213	0.132	-0.113
-234.830	-50.525	-0.404	-0.191
-233.815	-200.000	-0.027	-0.247
-232.800	-200.000	-0.004	-0.037
-231.786	-117.001	-0.210	0.038
-230.771	-160.679	-0.243	-0.013
-229.757	335.340	0.164	0.317
-228.742	-127.789	0.119	-0.017
-227.727	-200.000	-0.057	-0.256
-226.713	-122.508	0.294	-0.048
-225.698	-33.172	-0.304	-0.169
-224.684	-200.000	-0.004	-0.559
-223.669	34.574	0.128	-0.112
-222.655	800.000	-0.084	0.306
-221.640	142.894	0.123	0.163
-220.625	-200.000	-0.023	-0.140
-219.611	594.203	0.127	-0.313
-218.596	-72.730	0.158	-0.058
-217.582	-68.401	0.142	-0.055
-216.567	800.000	-0.028	-0.107
-215.552	725.160	-0.070	0.187
-214.538	414.392	-0.056	0.120
-213.523	800.000	0.063	-0.260
-212.509	35.012	0.059	-0.052
-211.494	316.553	0.209	0.394
-210.479	-200.000	-0.068	0.320
-209.465	800.000	-0.067	0.285
-208.450	-42.200	0.312	0.159
-207.436	800.000	0.067	-0.293
-206.421	173.360	0.159	0.229
-205.406	-200.000	-0.041	0.217
-204.392	-200.000	0.018	0.418
-203.377	140.372	-0.224	0.296
-202.363	197.001	-0.085	-0.130
-201.348	-137.682	0.230	0.026
-200.333	-117.025	-0.317	-0.058
-199.319	521.637	-0.080	0.189
-198.304	57.656	0.116	-0.113
-197.290	-57.549	0.024	0.011
-196.275	87.196	-0.175	0.194
-195.260	71.059	0.136	0.141
-194.246	135.714	0.144	-0.187
-193.231	783.287	-0.064	0.176
-192.217	31.845	-0.147	0.127
-191.202	-23.551	-0.074	0.044
-190.187	-65.361	0.314	-0.126
-189.173	245.394	0.083	-0.139
-188.158	88.288	0.134	-0.149
-187.144	148.812	0.029	-0.039
-186.129	-200.000	0.013	-0.104
-185.114	-21.236	0.136	-0.083
-184.100	-109.180	0.334	0.071
-183.085	800.000	0.045	0.141
-182.071	71.953	0.137	0.143
-181.056	38.346	0.213	0.190
-180.042	-200.000	0.002	-0.059
-179.027	-55.457	-0.323	0.145
-178.012	14.162	-0.258	0.201
-176.998	-142.898	0.084	-0.008
-175.983	-68.602	0.129	0.050
-174.969	19.377	-0.252	-0.202
-173.954	-70.808	0.392	0.148
-172.939	800.000	0.054	0.196
-171.925	-92.073	0.293	0.083
-170.910	366.518	0.096	0.193
-169.896	58.995	0.181	-0.178
-168.881	404.544	-0.073	-0.154
-167.866	800.000	-0.012	-0.045
-166.852	-175.996	0.186	-0.005
-165.837	-185.366	0.228	0.004
-164.823	-200.000	0.058	0.282
-163.808	-52.220	0.185	-0.085
-162.793	90.029	-0.156	-0.174
-161.779	-19.719	0.270	-0.167
-160.764	-123.255	-0.279	-0.045
-159.750	23.536	0.143	0.117
-158.735	576.955	0.071	0.174
-157.720	-171.984	0.308	-0.010
-156.706	-96.867	-0.260	-0.068
-155.691	51.708	-0.280	0.266
-154.677	-128.298	0.294	0.042
-153.662	-97.914	-0.531	0.137
-152.647	312.275	-0.021	0.040
-151.633	-189.807	-0.096	-0.001
-150.618	562.463	-0.044	-0.106
-149.604	316.992	-0.071	-0.134
-148.589	27.605	0.260	-0.219
-147.574	16.302	-0.045	-0.035
-146.560	-200.000	0.011	-0.219
-145.545	608.265	-0.076	-0.189
-144.531	800.000	0.089	-0.325
-143.516	-30.336	-0.460	-0.260
-142.502	48.757	-0.169	-0.158
-141.487	-200.000	0.003	0.244
-140.472	800.000	0.073	-0.235
-139.458	-200.000	0.043	0.519
-138.443	335.806	0.052	-0.101
-137.429	102.595	0.065	-0.076
-136.414	800.000	-0.065	0.227
-135.399	-200.000	-0.004	-0.193
-134.385	307.327	-0.049	-0.091
-133.370	314.655	0.184	-0.346
-132.356	-19.272	0.206	-0.128
-131.341	-200.000	-0.017	0.128
-130.326	29.371	0.182	0.155
-129.312	59.257	0.192	0.188
-128.297	-123.681	0.279	-0.044
-127.283	37.545	-0.222	-0.196
-126.268	800.000	0.080	0.323
-125.253	305.742	0.142	0.264
-124.239	6.601	-0.085	-0.063
-123.224	267.957	0.013	-0.022
-122.210	-200.000	0.006	0.033
-121.195	-200.000	0.014	0.192
-120.180	-22.037	0.430	-0.260
-119.166	-85.990	0.197	0.061
-118.151	-57.356	0.265	-0.116
-117.137	-112.555	-0.444	0.088
-116.122	-200.000	-0.002	-0.149
-115.107	44.823	0.107	-0.098
-114.093	-200.000	0.048	0.229
-113.078	-200.000	-0.051	0.336
-112.064	18.077	-0.037	0.029
-111.049	185.613	0.177	-0.262
-110.034	443.405	-0.018	0.039
-109.020	276.765	0.183	-0.324
-108.005	-200.000	0.030	0.239
-106.991	-33.966	0.146	0.080
-105.976	1.671	-0.055	0.039
-104.962	49.903	-0.078	-0.073
-103.947	308.528	0.179	0.333
-102.932	-200.000	-0.005	-0.279
-101.918	-1.037	-0.073	-0.051
-100.903	-38.592	0.069	0.036
-99.889	-200.000	0.005	-0.180
-98.874	-200.000	-0.028	0.302
-97.859	-13.823	0.222	0.143
-96.845	-200.000	0.012	-0.110
-95.830	-200.000	0.023	-0.207
-94.816	5.288	0.293	-0.215
-93.801	42.235	0.238	0.215
-92.786	-200.000	-0.050	0.334
-91.772	800.000	0.097	0.358
-90.757	-3.045	-0.053	-0.037
-89.743	61.787	0.235	-0.233
-88.728	7.479	0.016	-0.012
-87.713	292.673	0.060	0.110
-86.699	-200.000	0.009	0.067
-85.684	-23.414	0.168	0.100
-84.670	-117.209	-0.118	0.021
-83.655	-100.644	0.177	0.043
-82.640	800.000	0.079	0.312
-81.626	-200.000	0.010	0.250
-80.611	84.078	-0.106	0.116
-79.597	52.091	-0.227	-0.215
-78.582	-57.891	0.075	0.033
-77.567	114.625	0.174	0.211
-76.553	-200.000	0.101	0.504
-75.538	-56.858	-0.574	-0.252
-74.524	-96.203	0.060	-0.016
-73.509	-152.408	-0.018	0.001
-72.494	-146.011	0.174	-0.015
-71.480	-200.000	0.012	-0.281
-70.465	198.167	0.133	-0.202
-69.451	-40.922	0.117	-0.060
-68.436	215.476	0.120	-0.190
-67.422	-56.726	-0.191	0.084
-66.407	23.804	0.224	0.183
-65.392	533.189	0.037	-0.086
-64.378	33.250	0.202	-0.174
-63.363	82.710	0.196	-0.212
-62.349	-5.054	0.111	-0.076
-61.334	460.469	-0.424	-0.939
-60.319	233.459	0.286	0.468
-59.305	571.117	-0.195	-0.472
-58.290	356.659	0.463	0.917
-57.276	800.000	0.459	1.307
-56.261	-200.000	87.007	503.781
-55.246	539.109	1381.580	3267.424
-54.232	177.102	2644.825	3827.300
-53.217	109.729	2408.735	2871.078
-52.203	44.071	2147.187	1957.086
-51.188	39.504	2054.239	1830.000
-50.173	37.834	2034.057	1796.570
-49.159	50.722	2079.121	1956.675
-48.144	53.881	2098.568	2004.344
-47.130	40.205	2059.167	1840.621
-46.115	37.660	2047.991	1806.970
-45.100	37.595	2045.348	1803.968
-44.086	37.567	2042.874	1801.450
-43.071	37.488	2040.690	1798.726
-42.057	37.467	2038.809	1796.800
-41.042	37.442	2036.815	1794.741
-40.027	37.483	2034.680	1793.170
-39.013	37.582	2032.309	1791.921
-37.998	37.561	2030.368	1789.942
-36.984	37.551	2028.863	1788.452
-35.969	37.579	2026.937	1786.945
-34.954	37.573	2025.138	1785.235
-33.940	37.648	2023.434	1784.344
-32.925	37.685	2021.899	1783.261
-31.911	37.689	2020.166	1781.696
-30.896	37.700	2018.294	1780.078
-29.881	37.665	2017.420	1778.918
-28.867	37.693	2015.376	1777.296
-27.852	37.571	2013.695	1774.635
-26.838	37.750	2011.264	1774.050
-25.823	37.702	2010.059	1772.480
-24.809	37.707	2007.781	1770.445
-23.794	37.727	2005.848	1768.848
-22.779	37.657	2003.871	1766.405
-21.765	37.560	2002.908	1764.604
-20.750	37.637	2000.799	1763.371
-19.736	37.663	1999.214	1762.141
-18.721	37.651	1997.969	1760.864
-17.706	37.637	1996.291	1759.196
-16.692	37.604	1994.895	1757.591
-15.677	37.718	1992.301	1756.266
-14.663	37.687	1991.408	1755.130
-13.648	37.671	1989.955	1753.633
-12.633	37.648	1988.950	1752.470
-11.619	37.549	1987.903	1750.595
-10.604	37.630	1985.814	1749.410
-9.590	37.670	1984.159	1748.243
-8.575	37.678	1983.287	1747.475
-7.560	37.658	1981.500	1745.657
-6.546	37.638	1980.342	1744.384
-5.531	37.697	1979.186	1743.823
-4.517	37.654	1977.753	1742.112
-3.502	37.630	1976.508	1740.728
-2.487	37.595	1975.527	1739.480
-1.473	37.690	1974.119	1739.025
-0.458	37.692	1969.875	1735.229
0.556	35.060	1949.316	1706.860
1.571	30.723	1929.440	1650.932
2.586	26.528	1951.728	1632.113
3.600	25.343	1989.520	1652.671
4.615	24.722	1986.243	1644.096
5.629	19.040	1881.272	1507.431
6.644	7.206	1750.781	1305.711
7.659	0.485	1705.983	1218.063
8.673	-0.207	1702.306	1209.757
9.688	-0.271	1700.612	1207.935
10.702	-0.312	1698.810	1206.218
11.717	-0.530	1695.996	1202.365
12.731	-0.201	1695.368	1204.449
13.746	6.554	1712.135	1270.840
14.761	14.920	1730.289	1352.104
15.775	16.027	1729.587	1360.376
16.790	14.664	1726.084	1346.512
17.804	14.622	1725.193	1345.360
18.819	14.585	1723.822	1343.874
19.834	14.702	1723.502	1344.446
20.848	14.768	1723.041	1344.502
21.863	14.874	1721.181	1343.785
22.877	14.840	1720.873	1343.149
23.892	14.763	1719.637	1341.450
24.907	14.770	1718.939	1340.843
25.921	14.824	1717.526	1340.059
26.936	14.779	1716.695	1338.930
27.950	14.825	1715.648	1338.359
28.965	14.759	1714.962	1337.176
29.980	14.838	1714.029	1336.966
30.994	14.787	1712.856	1335.524
32.009	14.796	1710.719	1333.814
33.023	14.786	1710.111	1333.138
34.038	14.839	1708.952	1332.539
35.053	14.793	1707.449	1330.887
36.067	14.736	1706.471	1329.547
37.082	14.748	1705.021	1328.396
38.096	14.796	1703.788	1327.704
39.111	14.751	1703.136	1326.723
40.126	14.768	1702.122	1325.945
41.140	14.768	1701.013	1324.967
42.155	14.809	1700.023	1324.403
43.169	14.747	1698.386	1322.515
44.184	14.782	1697.258	1321.804
45.199	14.790	1696.164	1320.897
46.213	14.766	1695.201	1319.839
47.228	14.721	1693.894	1318.347
48.242	14.730	1692.315	1317.073
49.257	14.699	1691.316	1315.934
50.271	14.788	1689.365	1315.001
51.286	14.721	1688.575	1313.747
52.301	14.714	1687.051	1312.390
53.315	14.739	1685.569	1311.314
54.330	14.709	1684.253	1309.935
55.344	14.666	1682.782	1308.339
56.359	14.710	1681.022	1307.199
57.374	14.725	1679.918	1306.345
58.388	14.738	1678.940	1305.569
59.403	14.699	1677.190	1303.788
60.417	14.657	1675.894	1302.340
61.432	14.766	1674.356	1301.882
62.447	14.708	1673.765	1300.852
63.461	14.672	1672.643	1299.588
64.476	14.735	1671.252	1298.881
65.490	14.765	1669.975	1298.004
66.505	14.639	1669.084	1296.215
67.520	14.709	1667.580	1295.478
68.534	14.715	1666.700	1294.728
69.549	14.681	1665.174	1293.164
70.563	14.766	1663.944	1292.754
71.578	14.602	1662.732	1290.426
72.593	14.661	1661.606	1289.895
73.607	14.768	1659.933	1289.312
74.622	14.723	1658.895	1288.040
75.636	14.710	1657.999	1287.135
76.651	14.647	1656.908	1285.684
77.666	14.665	1656.124	1285.105
78.680	14.637	1655.399	1284.213
79.695	14.712	1653.520	1283.218
80.709	14.657	1652.706	1282.044
81.724	14.678	1651.501	1281.162
82.739	14.700	1650.317	1280.298
83.753	14.623	1649.250	1278.768
84.768	14.746	1647.527	1278.262
85.782	14.732	1646.416	1277.177
86.797	14.651	1646.101	1276.201
87.812	14.638	1644.474	1274.723
88.826	14.571	1643.469	1273.324
89.841	14.639	1641.752	1272.400
90.855	14.597	1640.848	1271.265
91.870	14.638	1639.569	1270.472
92.884	14.611	1638.441	1269.283
93.899	14.695	1637.275	1268.905
94.914	14.657	1635.355	1267.018
95.928	14.653	1634.235	1266.004
96.943	14.754	1632.514	1265.328
97.957	14.724	1630.890	1263.730
98.972	14.610	1629.716	1261.845
99.987	14.670	1627.754	1260.670
101.001	14.680	1625.902	1259.194
102.016	14.657	1623.926	1257.384
103.030	14.620	1622.086	1255.570
104.045	14.482	1621.139	1253.685
105.060	14.496	1619.344	1252.292
106.074	14.556	1617.463	1251.178
107.089	14.622	1616.357	1250.703
108.103	14.713	1613.956	1249.416
109.118	14.552	1613.132	1247.468
110.133	14.592	1611.330	1246.259
111.147	14.660	1609.945	1245.584
112.162	14.660	1608.448	1244.317
113.176	14.559	1607.256	1242.537
114.191	14.625	1605.347	1241.439
115.206	14.586	1604.022	1240.017
116.220	14.631	1602.798	1239.295
117.235	14.640	1600.894	1237.776
118.249	14.586	1599.820	1236.435
119.264	14.568	1597.981	1234.773
120.279	14.607	1596.793	1234.037
121.293	14.620	1594.801	1232.484
122.308	14.597	1593.323	1231.063
123.322	14.560	1591.419	1229.210
124.337	14.564	1589.847	1227.919
125.352	14.548	1588.474	1226.629
126.366	14.595	1587.116	1225.817
127.381	14.648	1585.641	1224.957
128.395	14.585	1585.081	1223.957
129.410	14.640	1582.766	1222.460
130.424	14.583	1581.353	1220.847
131.439	14.560	1579.635	1219.240
132.454	14.598	1578.281	1218.369
133.468	14.641	1576.724	1217.374
134.483	14.649	1574.572	1215.659
135.497	14.585	1573.391	1214.174
136.512	14.581	1571.845	1212.845
137.527	14.624	1570.330	1211.882
138.541	14.537	1569.171	1210.251
139.556	14.574	1567.731	1209.299
140.570	14.647	1565.443	1207.957
141.585	14.646	1564.058	1206.776
142.600	14.590	1563.080	1205.508
143.614	14.612	1561.246	1204.143
144.629	14.577	1560.235	1203.006
145.643	14.569	1558.640	1201.611
146.658	14.583	1556.880	1200.250
147.673	14.592	1555.123	1198.852
148.687	14.509	1554.213	1197.447
149.702	14.554	1552.652	1196.467
150.716	14.549	1550.934	1195.002
151.731	14.413	1549.756	1193.010
152.746	14.527	1548.326	1192.622
153.760	14.548	1546.775	1191.472
154.775	14.510	1545.436	1190.063
155.789	14.478	1544.680	1189.145
156.804	14.493	1542.815	1187.716
157.819	14.482	1541.665	1186.642
158.833	14.563	1540.005	1185.839
159.848	14.460	1539.016	1184.240
160.862	14.480	1537.424	1183.053
161.877	14.412	1536.844	1182.015
162.892	14.507	1535.435	1181.504
163.906	14.525	1534.431	1180.753
164.921	14.452	1533.221	1179.202
165.935	14.459	1532.408	1178.524
166.950	14.528	1530.684	1177.578
167.964	14.602	1529.503	1177.090
168.979	14.486	1528.858	1175.671
169.994	14.529	1527.627	1174.924
171.008	14.461	1526.987	1173.847
172.023	14.486	1525.649	1172.891
173.037	14.406	1524.661	1171.464
174.052	14.494	1523.386	1170.997
175.067	14.443	1522.063	1169.523
176.081	14.467	1521.136	1168.875
177.096	14.499	1520.174	1168.256
178.110	14.488	1518.705	1166.943
179.125	14.501	1517.235	1165.805
180.140	14.484	1516.182	1164.775
181.154	14.477	1515.436	1164.046
182.169	14.466	1514.417	1163.081
183.183	14.396	1512.938	1161.360
184.198	14.433	1511.689	1160.556
185.213	14.462	1510.578	1159.804
186.227	14.550	1509.412	1159.414
187.242	14.550	1508.733	1158.787
188.256	14.508	1508.035	1157.862
189.271	14.510	1506.609	1156.674
190.286	14.533	1505.668	1156.013
191.300	14.539	1504.595	1155.125
192.315	14.514	1503.775	1154.220
193.329	14.540	1502.621	1153.414
194.344	14.460	1501.967	1152.254
195.359	14.468	1500.861	1151.362
196.373	14.470	1499.776	1150.442
197.388	14.472	1498.561	1149.422
198.402	14.444	1497.744	1148.503
199.417	14.487	1496.502	1147.743
200.432	14.340	1495.860	1146.139
201.446	14.518	1494.065	1145.883
202.461	14.461	1493.111	1144.662
203.475	14.489	1492.225	1144.070
204.490	14.353	1491.363	1142.376
205.504	14.384	1490.032	1141.467
206.519	14.327	1489.258	1140.382
207.534	14.478	1487.549	1140.009
208.548	14.436	1487.295	1139.423
209.563	14.489	1485.890	1138.610
210.577	14.469	1484.990	1137.680
211.592	14.372	1484.325	1136.412
212.607	14.379	1483.622	1135.820
213.621	14.455	1482.652	1135.495
214.636	14.481	1481.376	1134.596
215.650	14.453	1480.477	1133.610
216.665	14.513	1479.535	1133.196
217.680	14.474	1478.821	1132.287
218.694	14.388	1478.560	1131.403
219.709	14.367	1477.649	1130.462
220.723	14.450	1476.390	1129.966
221.738	14.441	1475.268	1128.940
222.753	14.434	1474.152	1127.943
223.767	14.345	1473.119	1126.447
224.782	14.284	1472.466	1125.439
225.796	14.283	1471.943	1124.931
226.811	14.368	1470.653	1124.420
227.826	14.449	1469.802	1124.215
228.840	14.462	1469.111	1123.674
229.855	14.410	1468.123	1122.474
230.869	14.353	1467.334	1121.387
231.884	14.401	1466.296	1120.815
232.899	14.426	1465.069	1119.949
233.913	14.283	1464.028	1118.090
234.928	14.350	1462.674	1117.409
235.942	14.403	1462.041	1117.178
236.957	14.439	1460.365	1116.042
237.972	14.469	1458.951	1115.065
238.986	14.495	1457.937	1114.363
240.001	14.436	1457.460	1113.505
241.015	14.288	1456.927	1112.014
242.030	14.465	1454.985	1111.611
243.045	14.480	1454.482	1111.228
244.059	14.440	1453.477	1110.099
245.074	14.355	1452.606	1108.766
246.088	14.386	1452.267	1108.615
247.103	14.380	1451.264	1107.712
248.117	14.335	1450.535	1106.762
249.132	14.360	1449.557	1106.081
250.147	14.503	1448.410	1106.054
251.161	14.343	1448.165	1104.714
252.176	14.439	1446.963	1104.329
253.190	14.445	1446.322	1103.788
254.205	14.403	1445.327	1102.650
255.220	14.403	1444.826	1102.170
256.234	14.356	1443.967	1101.107
257.249	14.403	1443.014	1100.596
258.263	14.392	1442.198	1099.800
259.278	14.482	1441.011	1099.391
260.293	14.431	1439.818	1098.048
261.307	14.442	1439.439	1097.738
262.322	14.434	1438.338	1096.743
263.336	14.436	1437.934	1096.354
264.351	14.423	1436.935	1095.408
265.366	14.377	1436.257	1094.494
266.380	14.413	1435.116	1093.761
267.395	14.366	1433.996	1092.503
268.409	14.409	1433.359	1092.202
269.424	14.504	1431.598	1091.385
270.439	14.411	1431.138	1090.333
271.453	14.347	1430.201	1089.103
272.468	14.340	1429.641	1088.532
273.482	14.328	1428.891	1087.788
274.497	14.363	1428.050	1087.283
275.512	14.405	1427.011	1086.670
276.526	14.386	1426.286	1085.898
277.541	14.397	1425.052	1084.931
278.555	14.404	1424.203	1084.233
279.570	14.347	1423.628	1083.331
280.585	14.308	1422.480	1082.105
281.599	14.353	1421.837	1081.817
282.614	14.400	1420.378	1080.912
283.628	14.365	1419.755	1080.114
284.643	14.361	1418.191	1078.805
285.657	14.373	1417.090	1077.953
286.672	14.363	1416.008	1076.970
287.687	14.335	1415.314	1076.161
288.701	14.403	1414.512	1075.895
289.716	14.313	1413.747	1074.640
290.730	14.298	1412.995	1073.879
291.745	14.270	1411.831	1072.716
292.760	14.321	1410.912	1072.254
293.774	14.245	1410.094	1071.047
294.789	14.363	1408.726	1070.671
295.803	14.303	1408.370	1069.923
296.818	14.361	1407.184	1069.295
297.833	14.326	1406.348	1068.345
298.847	14.357	1405.245	1067.609
299.862	14.373	1404.579	1067.110
300.876	14.330	1403.662	1066.046
301.891	14.327	1402.459	1065.014
302.906	14.381	1401.229	1064.330
303.920	14.443	1400.778	1064.290
304.935	14.392	1400.440	1063.615
305.949	14.405	1399.353	1062.782
306.964	14.345	1398.751	1061.848
307.979	14.414	1397.317	1061.099
308.993	14.445	1395.971	1060.186
310.008	14.385	1395.622	1059.442
311.022	14.414	1394.431	1058.632
312.037	14.410	1393.019	1057.436
313.052	14.512	1392.569	1057.652
314.066	14.519	1391.399	1056.712
315.081	14.363	1390.932	1055.275
316.095	14.445	1389.572	1054.669
317.110	14.459	1388.967	1054.203
318.125	14.433	1388.202	1053.365
319.139	14.511	1387.214	1053.019
320.154	14.613	1385.666	1052.395
321.168	14.546	1384.578	1051.049
322.183	14.496	1383.625	1049.918
323.197	14.533	1382.714	1049.369
324.212	14.531	1382.072	1048.778
325.227	14.595	1381.275	1048.481
326.241	14.637	1380.200	1047.836
327.256	14.583	1379.839	1047.130
328.270	14.574	1378.592	1046.033
329.285	14.592	1377.918	1045.540
330.300	14.706	1376.821	1045.334
331.314	14.642	1376.043	1044.250
332.329	14.670	1374.787	1043.377
333.343	14.637	1374.493	1042.853
334.358	14.639	1373.809	1042.254
335.373	14.689	1372.958	1041.831
336.387	14.729	1372.126	1041.356
337.402	14.714	1371.861	1040.973
338.416	14.732	1370.982	1040.320
339.431	14.845	1370.161	1040.310
340.446	14.812	1369.246	1039.317
341.460	14.928	1368.295	1039.226
342.475	14.861	1367.487	1038.104
343.489	14.783	1366.568	1036.829
344.504	14.853	1365.346	1036.247
345.519	14.840	1364.598	1035.506
346.533	14.858	1363.968	1035.049
347.548	14.842	1363.179	1034.258
348.562	14.827	1362.483	1033.547
349.577	15.059	1360.996	1033.758
350.592	14.921	1360.759	1032.637
351.606	14.956	1359.779	1032.020
352.621	15.058	1358.750	1031.776
353.635	15.051	1357.674	1030.820
354.650	15.041	1357.127	1030.254
355.665	15.131	1356.193	1030.008
356.679	15.091	1354.825	1028.634
357.694	15.113	1353.625	1027.765
358.708	15.186	1352.654	1027.381
359.723	15.158	1351.992	1026.616
360.738	15.128	1350.653	1025.330
361.752	15.081	1349.831	1024.324
362.767	15.141	1349.007	1023.976
363.781	15.212	1347.629	1023.270
364.796	15.230	1347.345	1023.074
365.810	15.289	1346.476	1022.684
366.825	15.278	1346.089	1022.237
367.840	15.299	1344.759	1021.263
368.854	15.262	1344.107	1020.450
369.869	15.309	1343.377	1020.091
370.883	15.295	1343.264	1019.830
371.898	15.353	1341.942	1019.090
372.913	15.322	1341.803	1018.707
373.927	15.408	1340.870	1018.427
374.942	15.438	1339.963	1017.832
375.956	15.436	1338.977	1016.980
376.971	15.450	1338.505	1016.617
377.986	15.304	1337.853	1015.147
379.000	15.341	1336.838	1014.513
380.015	15.483	1335.647	1014.375
381.029	15.398	1335.132	1013.386
382.044	15.521	1334.099	1013.252
383.059	15.538	1333.415	1012.745
384.073	15.571	1332.715	1012.324
385.088	15.605	1332.246	1012.082
386.102	15.576	1331.576	1011.306
387.117	15.558	1330.574	1010.352
388.132	15.576	1329.684	1009.694
389.146	15.538	1329.426	1009.179
390.161	15.565	1328.692	1008.693
391.175	15.631	1328.241	1008.657
392.190	15.648	1327.026	1007.749
393.205	15.680	1326.239	1007.252
394.219	15.681	1324.777	1006.058
395.234	15.706	1323.501	1005.151
396.248	15.726	1322.365	1004.319
397.263	15.750	1321.345	1003.599
398.278	15.773	1319.954	1002.592
399.292	15.914	1318.760	1002.435
400.307	15.760	1318.097	1000.927
401.321	15.794	1317.182	1000.343
402.336	15.770	1315.780	999.047
403.350	15.814	1315.281	998.844
404.365	15.849	1314.429	998.317
405.380	15.821	1313.428	997.299
406.394	15.747	1312.831	996.318
407.409	15.807	1312.302	996.183
408.423	15.924	1310.962	995.770
409.438	15.890	1310.325	994.999
410.453	15.921	1309.496	994.467
411.467	15.865	1309.298	993.896
412.482	15.954	1308.446	993.688
413.496	15.923	1307.623	992.789
414.511	16.000	1306.855	992.576
415.526	15.972	1305.789	991.512
416.540	15.869	1305.315	990.457
417.555	15.851	1304.291	989.487
418.569	16.033	1303.466	989.842
419.584	15.913	1303.557	989.117
420.599	15.931	1302.872	988.620
421.613	135.387	1420.117	1779.881
422.628	131.465	1437.163	1780.008
