DTS Sentinel unit serial number:	SN413079Multiplexer serial number:	ORYXHardware model number:	OX4-SRSoftware version number:	ORYX F/W v4.00 Oryx Data Collector v3.7.2.0data status	okinstallation	princeton_trtdifferential loss correction	single-endedforward channel	channel 4reverse channel	N/Adate	2019/09/12time	18:45:18forward acquisition time	15.00reverse acquisition time	0.00gamma	496.2192k internal	0.2307k external	0.2307temperature offset calibration	1.0135default loss term (dB/km)	0.3790temperature slope calibration	1.0000multiplexer offset coefficient	1.0000multiplexer slope coefficient	1.0000fibre end	0.00T internal ref (°C)	33.00T ext. ref 1 (°C)	2.96T ext. ref 2 (°C)	27.50length (m)	temperature (°C)	Stokes	anti-Stokes-747.200	553.218	-0.221	0.539
-746.185	-52.244	-0.207	-0.098
-745.171	-132.499	-1.040	0.136
-744.156	-70.613	-0.227	0.087
-743.142	-200.000	-0.001	0.106
-742.127	484.532	-0.294	0.681
-741.112	-132.313	0.746	0.098
-740.098	-200.000	-0.022	-0.370
-739.083	-200.000	-0.056	-0.293
-738.069	-200.000	-0.035	0.415
-737.054	108.472	-0.269	-0.326
-736.039	-195.568	-0.060	0.000
-735.025	-200.000	0.013	-0.628
-734.010	-200.000	0.144	0.744
-732.996	-113.314	-0.575	0.115
-731.981	-132.829	-0.416	-0.054
-730.966	29.402	0.856	-0.740
-729.952	-200.000	-0.024	0.577
-728.937	-91.339	0.415	-0.121
-727.923	-84.805	-0.765	-0.244
-726.908	142.746	0.440	0.595
-725.894	503.831	-0.322	-0.757
-724.879	-200.000	-0.109	0.533
-723.864	-145.741	-0.387	-0.035
-722.850	-38.454	-0.774	-0.416
-721.835	-200.000	-0.115	0.569
-720.821	-40.981	0.219	0.115
-719.806	139.046	0.394	0.526
-718.791	4.325	-0.260	-0.193
-717.777	387.304	0.211	-0.442
-716.762	21.747	-0.738	-0.610
-715.748	-15.860	-0.264	-0.171
-714.733	362.192	-0.143	-0.291
-713.718	-200.000	-0.215	-1.228
-712.704	58.780	-0.262	-0.262
-711.689	-123.110	0.160	-0.026
-710.675	22.113	0.288	-0.239
-709.660	13.857	-0.347	0.274
-708.645	332.373	-0.171	0.335
-707.631	789.881	0.125	0.350
-706.616	324.349	0.022	0.043
-705.602	134.020	-0.373	0.491
-704.587	399.668	-0.363	-0.773
-703.572	-73.290	0.391	-0.145
-702.558	-185.174	0.753	-0.012
-701.543	467.401	0.397	-0.903
-700.529	6.802	0.102	-0.077
-699.514	-162.575	1.339	-0.067
-698.499	179.848	0.402	-0.599
-697.485	24.283	-0.274	0.230
-696.470	109.108	0.537	0.652
-695.456	800.000	0.221	0.621
-694.441	34.490	0.594	-0.526
-693.426	12.688	-0.189	-0.148
-692.412	113.485	-0.458	0.564
-691.397	444.701	0.269	0.599
-690.383	800.000	-0.173	0.750
-689.368	199.689	0.379	0.590
-688.354	-55.519	-0.561	0.255
-687.339	-200.000	0.067	0.513
-686.324	-48.153	0.418	0.205
-685.310	-131.212	-0.551	0.074
-684.295	524.962	0.422	1.008
-683.281	-117.475	-0.580	-0.106
-682.266	142.219	0.194	-0.262
-681.251	-200.000	0.078	-0.425
-680.237	656.964	0.238	0.621
-679.222	-102.574	-0.714	-0.173
-678.208	35.238	0.601	-0.535
-677.193	-200.000	-0.032	0.203
-676.178	323.062	-0.346	0.670
-675.164	-142.641	-0.646	-0.064
-674.149	-12.264	0.232	-0.154
-673.135	-119.532	0.453	-0.080
-672.120	-8.271	-0.530	0.362
-671.105	-27.534	0.864	-0.509
-670.091	-53.443	0.659	0.306
-669.076	-127.260	0.956	0.142
-668.062	-135.053	-1.007	0.123
-667.047	-113.208	0.187	-0.037
-666.032	-20.338	0.505	0.315
-665.018	-24.765	0.020	-0.012
-664.003	187.604	0.154	-0.234
-662.989	800.000	0.145	-0.509
-661.974	59.293	0.249	0.249
-660.959	-145.888	0.409	0.037
-659.945	-57.759	0.386	0.171
-658.930	-200.000	-0.006	0.740
-657.916	-84.973	-0.726	-0.231
-656.901	-96.994	0.518	0.138
-655.886	-101.367	0.598	-0.148
-654.872	172.893	0.123	-0.179
-653.857	-200.000	-0.071	-0.524
-652.843	119.619	0.194	-0.244
-651.828	-200.000	0.009	-0.164
-650.814	-136.910	-0.677	0.079
-649.799	800.000	0.279	0.899
-648.784	-97.401	-0.793	0.209
-647.770	259.656	-0.304	0.532
-646.755	800.000	-0.344	1.005
-645.741	-200.000	-0.021	0.563
-644.726	-187.340	0.513	0.007
-643.711	27.586	-0.485	-0.414
-642.697	30.464	0.621	-0.538
-641.682	800.000	-0.354	-1.298
-640.668	-54.415	-0.645	-0.296
-639.653	800.000	-0.243	-0.682
-638.638	309.114	-0.393	-0.743
-637.624	285.023	-0.315	-0.575
-636.609	-95.502	1.005	-0.273
-635.595	351.940	0.090	0.181
-634.580	-43.775	-0.590	0.301
-633.565	203.083	-0.018	0.029
-632.551	57.592	-0.377	0.373
-631.536	-23.491	0.693	0.421
-630.522	-200.000	0.050	0.381
-629.507	638.358	0.299	-0.770
-628.492	-123.484	0.263	-0.042
-627.478	-47.682	0.085	0.041
-626.463	-78.370	0.641	0.222
-625.449	-200.000	0.025	0.596
-624.434	-92.665	-0.259	-0.073
-623.419	651.150	0.127	0.330
-622.405	-200.000	0.062	0.563
-621.390	1.264	0.521	0.379
-620.376	420.496	0.254	0.550
-619.361	-200.000	-0.100	-0.586
-618.346	-200.000	-0.012	0.069
-617.332	-200.000	-0.012	0.257
-616.317	266.398	-0.203	-0.359
-615.303	32.571	0.407	-0.356
-614.288	-200.000	0.087	0.840
-613.273	28.516	0.231	-0.198
-612.259	-68.903	0.371	0.145
-611.244	-200.000	-0.028	-0.138
-610.230	-200.000	-0.002	-0.280
-609.215	800.000	0.154	-0.558
-608.201	536.537	-0.164	-0.394
-607.186	235.415	-0.231	-0.385
-606.171	88.373	0.293	-0.329
-605.157	-86.342	0.282	-0.088
-604.142	19.595	-0.448	0.365
-603.128	497.413	-0.129	-0.300
-602.113	800.000	0.042	0.169
-601.098	-200.000	0.071	-0.372
-600.084	245.697	-0.495	0.842
-599.069	-31.188	-0.911	0.519
-598.055	-18.317	0.547	-0.346
-597.040	-55.810	-0.721	-0.326
-596.025	33.757	-0.336	-0.296
-595.011	-37.076	-0.206	-0.112
-593.996	245.036	0.172	0.292
-592.982	800.000	-0.071	-0.264
-591.967	-101.742	-0.895	0.219
-590.952	-79.230	-0.049	0.017
-589.938	57.953	0.395	-0.391
-588.923	-117.279	0.809	0.149
-587.909	176.328	0.052	0.076
-586.894	-10.677	0.328	-0.220
-585.879	-59.015	-0.463	-0.202
-584.865	-11.349	-0.205	0.136
-583.850	-128.166	0.838	-0.121
-582.836	17.306	-0.516	0.414
-581.821	-15.682	0.335	-0.216
-580.806	-152.476	0.953	-0.069
-579.792	-200.000	-0.030	-0.194
-578.777	-138.233	-0.322	-0.036
-577.763	-200.000	0.050	0.600
-576.748	800.000	0.119	0.451
-575.733	-200.000	0.057	0.387
-574.719	-147.653	-0.574	0.049
-573.704	162.237	0.228	0.323
-572.690	-200.000	0.035	0.486
-571.675	-200.000	-0.079	-0.428
-570.661	767.475	-0.288	-0.792
-569.646	-74.742	-0.326	-0.118
-568.631	-41.364	-0.614	-0.319
-567.617	800.000	0.204	-0.727
-566.602	-78.467	-0.835	0.289
-565.588	-63.348	-0.240	-0.100
-564.573	-200.000	-0.070	0.987
-563.558	-133.449	-0.427	-0.054
-562.544	712.845	-0.100	0.268
-561.529	348.581	-0.246	-0.491
-560.515	-30.633	0.230	0.131
-559.500	-137.300	0.126	0.014
-558.485	-181.378	0.572	-0.011
-557.471	800.000	0.141	-0.471
-556.456	-120.638	-0.809	0.138
-555.442	-33.921	0.371	-0.206
-554.427	-23.728	0.249	0.151
-553.412	-65.803	-0.607	0.245
-552.398	-45.985	0.262	-0.130
-551.383	-200.000	0.085	1.049
-550.369	-200.000	0.070	-0.316
-549.354	800.000	-0.301	0.936
-548.339	145.042	-0.356	-0.481
-547.325	-128.876	0.881	0.125
-546.310	-188.161	-0.268	0.003
-545.296	156.677	-0.169	-0.235
-544.281	377.112	0.210	-0.434
-543.266	800.000	-0.115	0.394
-542.252	800.000	0.028	0.090
-541.237	60.918	-0.331	-0.331
-540.223	366.124	0.182	-0.371
-539.208	800.000	0.305	1.144
-538.193	257.063	0.567	0.983
-537.179	508.507	0.265	-0.621
-536.164	-200.000	-0.014	-0.671
-535.150	800.000	0.084	-0.237
-534.135	196.460	-0.272	0.418
-533.121	128.117	-0.128	0.165
-532.106	31.012	-0.249	-0.215
-531.091	-132.524	-0.665	-0.086
-530.077	-8.607	-0.202	-0.137
-529.062	800.000	-0.144	0.534
-528.048	190.916	-0.178	0.271
-527.033	-123.633	-0.614	0.098
-526.018	18.528	-0.244	0.196
-525.004	34.690	0.205	-0.181
-523.989	-200.000	0.095	-0.477
-522.975	316.500	-0.184	0.350
-521.960	-98.749	-0.316	-0.081
-520.945	-200.000	-0.014	0.134
-519.931	-200.000	-0.125	0.696
-518.916	-200.000	0.088	0.906
-517.902	-200.000	0.009	-0.074
-516.887	-171.464	0.166	0.006
-515.872	-142.311	0.325	0.032
-514.858	77.129	0.315	0.337
-513.843	-153.142	-0.713	-0.050
-512.829	-121.043	-0.419	-0.071
-511.814	405.482	0.189	-0.401
-510.799	-145.924	0.372	-0.033
-509.785	-105.097	-0.210	-0.048
-508.770	243.806	0.287	-0.485
-507.756	700.494	-0.217	0.576
-506.741	-145.557	-0.856	-0.077
-505.726	-20.649	-0.942	0.583
-504.712	-200.000	-0.193	-1.262
-503.697	129.096	0.336	0.432
-502.683	33.025	-0.392	0.342
-501.668	699.130	0.092	0.244
-500.653	281.634	0.055	0.099
-499.639	91.268	-0.164	0.185
-498.624	800.000	0.111	0.330
-497.610	-93.347	-0.563	0.157
-496.595	-45.444	0.138	0.069
-495.581	217.031	-0.175	0.281
-494.566	-103.289	0.077	-0.018
-493.551	157.210	-0.216	0.302
-492.537	-200.000	0.025	0.571
-491.522	49.138	-0.487	-0.461
-490.508	5.895	-0.200	-0.149
-489.493	21.966	-0.010	-0.008
-488.478	-12.944	-0.592	-0.388
-487.464	78.796	0.308	0.332
-486.449	-33.444	0.219	-0.122
-485.435	-46.102	-0.387	-0.192
-484.420	148.144	-0.356	-0.484
-483.405	-200.000	-0.079	-1.368
-482.391	16.536	0.823	0.655
-481.376	114.331	-0.546	-0.669
-480.362	-200.000	0.005	-1.009
-479.347	-200.000	0.106	-0.482
-478.332	156.699	-0.359	0.500
-477.318	118.205	0.328	-0.407
-476.303	-200.000	-0.037	-0.441
-475.289	-34.840	-0.413	0.227
-474.274	-19.944	-0.279	0.174
-473.259	-20.124	0.946	0.587
-472.245	278.500	0.132	-0.236
-471.230	-1.051	-0.677	-0.482
-470.216	-70.136	0.442	-0.169
-469.201	548.473	-0.267	-0.643
-468.186	20.239	0.438	0.356
-467.172	-60.211	0.129	0.055
-466.157	-144.136	-0.769	-0.072
-465.143	215.302	-0.322	0.514
-464.128	800.000	-0.200	0.670
-463.113	175.453	-0.524	-0.764
-462.099	-153.878	0.290	-0.020
-461.084	263.009	-0.235	0.410
-460.070	-57.968	1.046	-0.459
-459.055	-86.777	0.504	0.155
-458.040	29.983	0.137	0.118
-457.026	-200.000	-0.023	-0.116
-456.011	189.699	0.261	0.394
-454.997	-12.209	0.466	-0.307
-453.982	105.897	-0.231	-0.275
-452.968	-16.918	0.402	0.255
-451.953	-200.000	-0.059	-1.299
-450.938	-71.059	-0.214	-0.081
-449.924	183.306	-0.165	0.244
-448.909	38.595	0.155	-0.139
-447.895	-160.150	-0.557	0.030
-446.880	21.756	0.531	-0.434
-445.865	173.332	-0.109	0.159
-444.851	-14.972	-0.788	-0.508
-443.836	-33.388	-0.510	0.284
-442.822	-63.731	-0.258	-0.106
-441.807	800.000	0.045	0.194
-440.792	24.745	-0.117	-0.097
-439.778	27.336	0.345	-0.291
-438.763	1.101	-0.890	-0.642
-437.749	-36.543	0.261	-0.141
-436.734	17.690	-0.251	0.201
-435.719	-117.244	-0.247	-0.045
-434.705	-200.000	-0.036	-0.419
-433.690	-200.000	-0.004	0.122
-432.676	74.387	-0.111	0.117
-431.661	640.812	-0.045	-0.114
-430.646	-200.000	0.057	-0.557
-429.632	491.896	-0.069	0.158
-428.617	193.245	0.275	0.418
-427.603	629.662	-0.378	0.960
-426.588	51.707	0.320	0.306
-425.573	-200.000	-0.024	-0.613
-424.559	-200.000	-0.005	-0.094
-423.544	-82.992	0.533	0.173
-422.530	-111.220	0.754	-0.155
-421.515	-200.000	0.033	-1.125
-420.500	98.415	-0.474	-0.549
-419.486	-200.000	0.011	0.232
-418.471	145.870	0.783	1.054
-417.457	246.096	-0.249	0.422
-416.442	-23.966	-0.765	-0.459
-415.428	-34.583	-0.728	0.400
-414.413	800.000	-0.070	0.225
-413.398	-145.133	-0.444	0.040
-412.384	-155.314	0.670	0.044
-411.369	-142.861	0.535	0.052
-410.355	-200.000	0.075	0.424
-409.340	-134.591	-1.025	-0.125
-408.325	338.912	-0.309	0.604
-407.311	-200.000	-0.005	-0.346
-406.296	-200.000	0.009	-0.264
-405.282	-200.000	0.014	0.136
-404.267	-20.157	0.171	0.106
-403.252	99.973	-0.330	0.384
-402.238	35.312	-0.181	-0.160
-401.223	68.183	-0.542	0.557
-400.209	-30.971	-0.666	-0.378
-399.194	-55.477	0.115	-0.052
-398.179	31.690	0.284	0.245
-397.165	49.412	0.365	0.345
-396.150	285.330	-0.325	-0.587
-395.136	-21.386	0.724	-0.444
-394.121	-62.531	0.613	0.256
-393.106	-62.070	-0.552	-0.231
-392.092	-200.000	-0.027	0.696
-391.077	-15.712	0.307	0.196
-390.063	0.631	-0.595	-0.427
-389.048	-41.296	0.677	0.350
-388.033	1.513	0.260	-0.188
-387.019	-200.000	0.051	-0.250
-386.004	111.190	-0.200	-0.242
-384.990	-37.089	-0.190	0.102
-383.975	0.341	-0.428	-0.306
-382.960	-200.000	-0.002	-0.123
-381.946	539.954	0.263	-0.626
-380.931	-174.200	0.408	-0.012
-379.917	-2.554	0.150	-0.105
-378.902	-151.214	0.262	-0.020
-377.888	-139.828	0.298	-0.032
-376.873	57.955	0.688	-0.675
-375.858	-112.056	0.572	0.115
-374.844	1.833	-0.399	-0.289
-373.829	28.275	0.446	-0.377
-372.815	-39.403	0.582	-0.306
-371.800	-176.292	0.464	-0.012
-370.785	76.021	0.246	0.261
-369.771	-125.698	-0.279	0.042
-368.756	-40.894	0.396	0.205
-367.742	159.803	0.447	0.624
-366.727	-29.242	0.212	0.122
-365.712	-139.480	0.295	0.032
-364.698	-200.000	-0.005	0.208
-363.683	-146.568	-0.102	0.009
-362.669	-44.997	-0.236	-0.118
-361.654	-112.473	0.364	0.073
-360.639	-31.538	-0.498	-0.280
-359.625	-117.225	-0.324	-0.059
-358.610	-63.604	1.016	0.418
-357.596	-200.000	-0.022	-0.970
-356.581	166.314	0.358	-0.508
-355.566	-200.000	0.071	-0.515
-354.552	-98.743	0.853	-0.217
-353.537	-52.649	-0.348	-0.161
-352.523	-163.351	-0.521	0.025
-351.508	-48.939	-0.391	-0.187
-350.493	64.484	-0.264	0.267
-349.479	514.143	-0.326	-0.761
-348.464	139.981	0.065	0.086
-347.450	91.862	-0.284	-0.320
-346.435	-56.806	0.436	-0.193
-345.420	-30.405	-0.585	0.332
-344.406	-123.972	-0.270	0.043
-343.391	408.074	-0.261	0.552
-342.377	175.570	0.273	-0.397
-341.362	46.835	0.445	0.414
-340.348	367.234	-0.295	0.597
-339.333	168.385	0.268	0.382
-338.318	147.209	-0.290	0.391
-337.304	-200.000	0.028	0.668
-336.289	146.023	-0.497	-0.667
-335.275	272.059	0.452	0.798
-334.260	11.459	0.583	-0.447
-333.245	626.887	-0.311	0.786
-332.231	240.481	0.226	-0.378
-331.216	411.120	-0.118	-0.251
-330.202	98.131	-0.434	-0.500
-329.187	-200.000	0.155	0.745
-328.172	286.440	-0.284	-0.514
-327.158	-162.948	0.564	-0.027
-326.143	-119.967	0.681	0.117
-325.129	-27.683	-0.494	0.287
-324.114	-18.102	-0.326	-0.204
-323.099	-84.572	0.833	0.263
-322.085	-200.000	0.004	-0.100
-321.070	299.447	0.246	0.453
-320.056	-107.067	0.654	0.145
-319.041	800.000	-0.074	0.314
-318.026	-80.703	-0.702	-0.234
-317.012	-200.000	-0.115	0.718
-315.997	45.226	-0.217	0.200
-314.983	-116.385	-0.831	-0.154
-313.968	-200.000	0.063	-0.399
-312.953	-57.593	0.606	0.265
-311.939	-55.625	0.247	-0.111
-310.924	21.983	-0.408	-0.333
-309.910	258.632	-0.142	-0.245
-308.895	609.370	-0.057	0.143
-307.880	-200.000	0.182	0.867
-306.866	24.289	0.717	0.592
-305.851	-158.080	0.413	0.024
-304.837	299.131	0.374	0.689
-303.822	2.464	-0.578	0.418
-302.807	-87.315	-0.300	-0.091
-301.793	800.000	-0.138	0.575
-300.778	-200.000	-0.050	0.648
-299.764	-102.865	-0.150	0.036
-298.749	800.000	0.102	0.406
-297.735	582.547	-0.228	0.559
-296.720	668.702	0.210	-0.542
-295.705	-64.193	-0.153	-0.062
-294.691	-39.193	-0.159	0.083
-293.676	443.364	0.288	-0.631
-292.662	74.513	0.558	0.586
-291.647	-200.000	-0.037	0.548
-290.632	67.552	0.310	0.316
-289.618	-76.018	-0.339	-0.120
-288.603	-50.355	0.833	-0.393
-287.589	-82.420	-0.119	-0.039
-286.574	800.000	0.092	0.266
-285.559	-135.366	-0.392	-0.047
-284.545	156.434	-0.225	-0.311
-283.530	-21.694	0.730	-0.444
-282.516	-6.539	-0.788	-0.536
-281.501	135.169	0.109	-0.142
-280.486	-200.000	0.034	-0.274
-279.472	-85.544	0.562	0.175
-278.457	71.495	0.655	-0.680
-277.443	-144.514	-0.069	0.006
-276.428	-25.654	0.356	0.210
-275.413	800.000	-0.126	-0.397
-274.399	-94.066	0.467	0.128
-273.384	-64.879	0.447	0.181
-272.370	-200.000	-0.037	0.324
-271.355	157.947	0.474	0.657
-270.340	-86.206	-0.222	-0.068
-269.326	111.604	-0.248	-0.298
-268.311	-200.000	0.013	0.912
-267.297	766.861	-0.176	0.477
-266.282	196.057	-0.680	-1.033
-265.267	-42.307	-0.293	-0.150
-264.253	-97.732	0.297	-0.077
-263.238	-138.448	0.352	-0.039
-262.224	-87.192	-0.541	-0.164
-261.209	-109.001	0.105	0.022
-260.195	-14.674	0.576	0.369
-259.180	-83.868	-0.925	-0.294
-258.165	180.071	0.444	-0.650
-257.151	64.605	0.351	0.353
-256.136	311.330	-0.046	-0.087
-255.122	-20.588	-0.668	-0.410
-254.107	675.578	0.174	0.450
-253.092	197.073	0.328	0.499
-252.078	-200.000	-0.009	-0.172
-251.063	-44.639	-0.660	-0.329
-250.049	-200.000	-0.063	-0.458
-249.034	-89.891	1.181	-0.344
-248.019	-107.682	-0.160	-0.035
-247.005	79.713	1.032	1.105
-245.990	800.000	-0.259	0.869
-244.976	-49.766	-0.220	0.104
-243.961	-40.156	0.443	0.230
-242.946	116.354	0.074	-0.090
-241.932	-39.715	0.260	0.136
-240.917	179.924	-0.179	0.261
-239.903	-102.713	0.542	-0.129
-238.888	7.197	0.468	0.348
-237.873	-108.646	0.981	0.210
-236.859	-200.000	0.059	-0.514
-235.844	-200.000	0.059	0.749
-234.830	214.014	0.396	-0.625
-233.815	-200.000	0.120	-0.797
-232.800	80.017	-0.160	-0.171
-231.786	800.000	0.059	0.212
-230.771	-69.078	0.624	0.239
-229.757	-200.000	0.017	-0.365
-228.742	70.083	0.650	0.668
-227.727	-200.000	0.009	-0.778
-226.713	-8.313	0.135	-0.091
-225.698	-101.470	0.223	-0.054
-224.684	-20.661	-0.437	-0.267
-223.669	613.104	0.162	-0.404
-222.655	-117.775	-0.486	-0.087
-221.640	-200.000	-0.169	0.917
-220.625	88.467	0.468	0.519
-219.611	-128.225	-0.271	-0.038
-218.596	-14.847	-0.365	0.233
-217.582	-161.616	0.663	-0.034
-216.567	-66.360	-0.743	0.294
-215.552	-179.172	0.471	0.010
-214.538	-6.286	-0.577	0.392
-213.523	-11.784	0.235	-0.154
-212.509	132.041	-0.527	-0.676
-211.494	-7.261	-0.040	0.027
-210.479	-200.000	-0.004	-0.321
-209.465	800.000	-0.136	0.459
-208.450	34.857	-0.531	0.463
-207.436	-200.000	-0.058	-0.466
-206.421	-8.067	-0.801	-0.537
-205.406	-131.906	-0.430	-0.056
-204.392	-70.405	0.435	-0.164
-203.377	173.866	-0.143	-0.206
-202.363	-2.699	-1.062	-0.739
-201.348	-200.000	0.124	-0.592
-200.333	-178.065	0.650	0.015
-199.319	800.000	0.053	0.226
-198.304	-3.059	-0.319	0.222
-197.290	28.102	0.012	-0.010
-196.275	-121.113	0.327	0.055
-195.260	-200.000	-0.005	0.484
-194.246	-61.402	-0.237	-0.099
-193.231	-140.668	0.702	0.072
-192.217	192.163	0.482	-0.724
-191.202	129.108	-0.217	-0.276
-190.187	106.776	-0.301	0.355
-189.173	-42.288	-0.336	-0.171
-188.158	334.985	0.580	1.118
-187.144	-200.000	-0.037	-0.191
-186.129	516.776	0.200	-0.465
-185.114	123.174	0.347	-0.433
-184.100	68.590	-0.807	-0.823
-183.085	455.765	0.330	0.728
-182.071	9.101	0.324	0.243
-181.056	-52.765	-0.527	0.242
-180.042	231.437	0.092	-0.151
-179.027	113.059	-0.741	-0.894
-178.012	-122.491	0.386	0.062
-176.998	800.000	-0.103	-0.313
-175.983	-165.553	0.170	-0.007
-174.969	-200.000	-0.013	-0.228
-173.954	-0.355	0.608	-0.430
-172.939	-200.000	-0.034	0.829
-171.925	83.619	0.413	0.448
-170.910	779.243	0.465	1.263
-169.896	800.000	-0.366	-1.134
-168.881	495.361	-0.157	-0.358
-167.866	270.152	-0.333	0.582
-166.852	-52.906	0.285	0.131
-165.837	48.587	-0.295	-0.275
-164.823	-41.191	-0.110	-0.056
-163.808	-151.044	0.896	-0.067
-162.793	98.017	-0.491	-0.562
-161.779	-61.511	-0.915	-0.382
-160.764	-101.134	0.788	-0.192
-159.750	199.146	-0.300	-0.457
-158.735	60.566	0.205	-0.202
-157.720	-200.000	-0.061	0.367
-156.706	-200.000	-0.089	0.623
-155.691	-103.372	0.055	-0.013
-154.677	-192.154	-0.421	0.004
-153.662	-155.540	0.424	-0.027
-152.647	212.235	0.232	0.364
-151.633	800.000	0.148	-0.523
-150.618	103.379	-0.119	-0.138
-149.604	63.049	0.088	-0.087
-148.589	-4.343	0.200	-0.137
-147.574	-76.457	0.763	-0.266
-146.560	-80.800	-0.256	-0.084
-145.545	41.571	0.657	0.591
-144.531	-26.956	0.254	0.147
-143.516	-81.244	0.802	-0.263
-142.502	506.043	0.172	-0.395
-141.487	-48.775	0.184	-0.088
-140.472	-5.015	-0.457	-0.313
-139.458	315.644	0.477	-0.893
-138.443	-114.399	0.464	0.089
-137.429	271.576	-0.360	0.631
-136.414	-200.000	0.044	-0.481
-135.399	800.000	-0.100	-0.393
-134.385	97.085	-0.434	-0.494
-133.370	254.377	0.233	-0.395
-132.356	6.705	0.343	-0.253
-131.341	800.000	0.168	-0.529
-130.326	-200.000	0.006	-0.155
-129.312	-121.507	0.127	0.021
-128.297	-156.040	0.450	-0.028
-127.283	267.224	0.144	-0.251
-126.268	-100.929	-0.690	-0.168
-125.253	734.825	-0.231	0.615
-124.239	-93.926	-0.223	0.061
-123.224	800.000	-0.149	0.632
-122.210	-121.997	0.385	-0.063
-121.195	-33.263	-0.545	-0.300
-120.180	-115.827	-0.204	0.038
-119.166	-200.000	0.039	-0.331
-118.151	800.000	0.048	0.182
-117.137	800.000	0.124	-0.426
-116.122	-61.524	0.905	0.377
-115.107	-164.676	0.757	-0.034
-114.093	-9.575	-0.125	-0.083
-113.078	800.000	-0.113	-0.470
-112.064	138.873	-0.205	-0.267
-111.049	29.724	0.369	-0.311
-110.034	-200.000	-0.048	0.473
-109.020	734.824	0.022	0.059
-108.005	-34.144	0.710	0.387
-106.991	250.059	0.080	-0.135
-105.976	376.630	-0.257	0.521
-104.962	-200.000	0.008	-0.593
-103.947	123.233	0.087	0.108
-102.932	463.745	0.089	0.196
-101.918	150.118	-0.620	0.835
-100.903	-200.000	-0.036	0.725
-99.889	800.000	0.279	0.799
-98.874	-115.301	0.480	-0.090
-97.859	-67.138	0.704	-0.275
-96.845	120.767	-0.272	-0.335
-95.830	130.330	-0.169	-0.214
-94.816	27.617	-0.291	0.243
-93.801	-200.000	-0.024	0.106
-92.786	800.000	-0.184	0.699
-91.772	-200.000	0.112	0.832
-90.757	-200.000	0.058	-0.606
-89.743	-44.738	-0.603	0.298
-88.728	557.593	-0.211	0.504
-87.713	128.843	0.453	0.573
-86.699	232.805	-0.600	-0.977
-85.684	-123.665	-0.397	0.062
-84.670	-13.292	-0.328	0.211
-83.655	800.000	0.065	-0.201
-82.640	-200.000	0.065	-0.622
-81.626	-3.145	-0.499	0.345
-80.611	-127.295	-0.330	0.048
-79.597	-145.903	0.252	0.022
-78.582	-200.000	0.151	-0.812
-77.567	-200.000	0.149	0.765
-76.553	-161.961	-0.349	-0.017
-75.538	800.000	-0.239	0.752
-74.524	71.709	-0.575	0.592
-73.509	21.500	0.184	0.148
-72.494	-69.706	-0.045	0.017
-71.480	90.206	-0.279	0.310
-70.465	78.643	-0.271	0.287
-69.451	-200.000	-0.031	-0.287
-68.436	-134.203	-0.503	-0.061
-67.422	-200.000	0.001	0.701
-66.407	-163.115	-0.394	-0.019
-65.392	-39.976	0.322	-0.167
-64.378	800.000	-0.126	-0.517
-63.363	-18.028	0.180	0.112
-62.349	-5.321	0.404	-0.275
-61.334	12.020	-0.866	-0.659
-60.319	262.591	-0.403	0.693
-59.305	104.560	-0.711	-0.829
-58.290	596.120	0.419	1.027
-57.276	145.595	0.864	1.145
-56.261	-200.000	95.873	576.127
-55.246	646.638	1361.614	3443.523
-54.232	198.684	2534.556	3840.545
-53.217	108.847	2283.929	2702.350
-52.203	39.450	2047.036	1815.202
-51.188	34.621	1963.242	1698.012
-50.173	33.114	1945.253	1669.085
-49.159	48.803	1997.206	1854.375
-48.144	49.564	2014.813	1877.464
-47.130	35.262	1976.391	1714.842
-46.115	33.025	1964.925	1684.901
-45.100	32.943	1962.377	1681.926
-44.086	32.791	1961.163	1679.458
-43.071	32.838	1958.757	1677.756
-42.057	32.694	1955.593	1673.697
-41.042	32.973	1953.890	1674.648
-40.027	32.805	1952.286	1671.719
-39.013	32.948	1949.651	1670.665
-37.998	32.901	1948.923	1669.554
-36.984	32.862	1946.273	1666.872
-35.969	32.982	1943.889	1665.827
-34.954	32.821	1942.273	1662.957
-33.940	32.972	1942.664	1664.559
-32.925	32.966	1939.563	1661.782
-31.911	32.950	1938.730	1660.857
-30.896	32.956	1937.238	1659.565
-29.881	33.056	1935.101	1658.552
-28.867	33.107	1933.993	1657.984
-27.852	32.994	1931.839	1655.082
-26.838	33.198	1928.397	1653.852
-25.823	33.023	1927.726	1651.677
-24.809	33.038	1925.239	1649.610
-23.794	33.030	1924.607	1648.937
-22.779	32.936	1922.907	1646.593
-21.765	32.985	1920.887	1645.225
-20.750	33.102	1918.597	1644.221
-19.736	32.999	1917.996	1642.738
-18.721	33.218	1916.313	1643.135
-17.706	33.018	1914.107	1639.449
-16.692	33.042	1912.787	1638.453
-15.677	33.155	1910.533	1637.436
-14.663	33.083	1910.792	1636.975
-13.648	32.976	1909.804	1635.139
-12.633	33.115	1906.983	1633.856
-11.619	32.992	1906.697	1632.485
-10.604	33.049	1904.813	1631.300
-9.590	32.954	1903.878	1629.609
-8.575	32.915	1902.767	1628.260
-7.560	32.993	1901.512	1627.796
-6.546	32.901	1900.723	1626.259
-5.531	33.015	1899.331	1625.989
-4.517	32.883	1898.607	1624.170
-3.502	33.068	1896.101	1623.552
-2.487	33.117	1895.379	1623.286
-1.473	33.081	1893.571	1621.364
-0.458	33.120	1890.023	1618.596
0.556	34.003	1869.230	1589.246
1.571	29.679	1849.101	1536.145
2.586	25.369	1871.994	1518.665
3.600	24.480	1904.834	1537.522
4.615	23.665	1900.691	1527.030
5.629	18.340	1800.311	1402.758
6.644	8.253	1681.813	1232.748
7.659	3.464	1643.744	1168.508
8.673	3.019	1640.261	1162.567
9.688	3.116	1638.780	1162.145
10.702	2.881	1638.031	1159.739
11.717	2.824	1634.699	1156.843
12.731	3.277	1634.169	1159.781
13.746	10.022	1648.314	1220.817
14.761	19.588	1671.021	1310.454
15.775	24.282	1677.974	1351.468
16.790	24.981	1679.086	1357.545
17.804	25.050	1678.186	1357.222
18.819	24.897	1678.476	1356.169
19.834	25.184	1676.448	1356.585
20.848	25.566	1675.698	1358.747
21.863	25.339	1674.932	1356.288
22.877	25.478	1674.263	1356.675
23.892	25.609	1672.468	1356.091
24.907	25.528	1671.430	1354.519
25.921	25.402	1671.143	1353.219
26.936	25.423	1670.439	1352.688
27.950	25.442	1669.510	1351.959
28.965	25.237	1669.908	1350.619
29.980	25.506	1668.554	1351.424
30.994	25.441	1666.212	1348.921
32.009	25.341	1666.013	1347.893
33.023	25.310	1665.497	1347.118
34.038	25.518	1663.739	1347.138
35.053	25.550	1663.001	1346.659
36.067	25.587	1661.655	1345.730
37.082	25.662	1660.480	1345.214
38.096	25.413	1661.088	1343.733
39.111	25.615	1659.727	1344.021
40.126	25.603	1659.571	1343.686
41.140	25.591	1657.920	1342.136
42.155	25.489	1657.917	1341.258
43.169	25.691	1656.040	1341.124
44.184	25.566	1654.695	1338.989
45.199	25.553	1654.021	1338.224
46.213	25.728	1652.451	1338.136
47.228	25.614	1651.268	1336.218
48.242	25.692	1649.517	1335.256
49.257	25.495	1649.477	1333.646
50.271	25.531	1648.585	1333.072
51.286	25.364	1648.546	1331.684
52.301	25.360	1646.502	1329.889
53.315	25.517	1644.191	1329.066
54.330	25.390	1643.130	1327.149
55.344	25.391	1642.061	1326.180
56.359	25.573	1639.295	1325.170
57.374	25.713	1638.982	1325.826
58.388	25.677	1637.747	1324.445
59.403	25.518	1638.129	1323.466
60.417	25.420	1635.882	1320.818
61.432	25.478	1635.332	1320.682
62.447	25.567	1634.234	1320.331
63.461	25.519	1633.617	1319.363
64.476	25.631	1632.828	1319.427
65.490	25.602	1632.328	1318.694
66.505	25.673	1630.241	1317.413
67.520	25.740	1629.095	1316.862
68.534	25.682	1628.539	1315.869
69.549	25.597	1626.831	1313.753
70.563	25.712	1626.059	1313.852
71.578	25.657	1624.680	1312.225
72.593	25.665	1624.287	1311.846
73.607	25.950	1622.705	1312.530
74.622	25.715	1621.767	1309.943
75.636	25.684	1622.035	1309.821
76.651	25.532	1621.577	1308.230
77.666	25.587	1620.806	1307.890
78.680	25.477	1620.837	1306.995
79.695	25.649	1618.728	1306.432
80.709	25.642	1618.237	1305.865
81.724	25.681	1616.965	1305.006
82.739	25.532	1616.477	1303.420
83.753	25.715	1615.552	1303.884
84.768	25.439	1615.733	1301.911
85.782	25.777	1612.716	1301.817
86.797	25.564	1613.193	1300.541
87.812	25.758	1611.405	1300.387
88.826	25.591	1611.244	1298.935
89.841	25.791	1610.213	1299.435
90.855	25.759	1608.790	1297.937
91.870	25.682	1607.969	1296.604
92.884	25.782	1607.005	1296.435
93.899	25.645	1606.936	1295.277
94.914	25.593	1605.563	1293.684
95.928	25.807	1603.710	1293.611
96.943	25.514	1602.385	1290.328
97.957	25.528	1601.458	1289.564
98.972	25.832	1598.995	1289.647
99.987	25.734	1598.041	1288.064
101.001	25.489	1598.061	1286.212
102.016	26.007	1594.295	1286.760
103.030	25.540	1594.706	1283.649
104.045	25.519	1593.439	1282.363
105.060	25.833	1591.738	1283.121
106.074	25.685	1591.651	1281.880
107.089	25.680	1590.426	1280.743
108.103	25.734	1588.512	1279.471
109.118	25.653	1588.350	1278.652
110.133	25.915	1585.513	1278.113
111.147	25.662	1584.909	1275.725
112.162	25.777	1583.882	1275.596
113.176	25.836	1583.346	1275.469
114.191	25.952	1581.339	1274.565
115.206	25.622	1580.957	1271.812
116.220	25.728	1578.710	1270.636
117.235	25.631	1579.006	1270.077
118.249	25.633	1577.775	1268.987
119.264	25.611	1576.449	1267.654
120.279	25.745	1575.961	1268.097
121.293	25.842	1573.572	1266.742
122.308	25.828	1572.395	1265.586
123.322	25.816	1571.845	1264.945
124.337	25.941	1570.390	1264.541
125.352	25.799	1569.757	1262.920
126.366	25.852	1569.205	1262.735
127.381	25.797	1567.787	1261.097
128.395	25.760	1567.127	1260.199
129.410	25.669	1565.950	1258.501
130.424	25.781	1565.183	1258.561
131.439	25.575	1564.619	1256.553
132.454	25.910	1561.655	1256.400
133.468	25.873	1561.489	1255.899
134.483	25.896	1559.119	1254.039
135.497	26.007	1557.565	1253.447
136.512	25.985	1557.456	1253.101
137.527	25.531	1557.308	1249.712
138.541	25.982	1555.147	1250.997
139.556	25.848	1553.191	1248.384
140.570	25.799	1553.062	1247.833
141.585	25.915	1550.351	1246.342
142.600	25.837	1550.058	1245.463
143.614	25.886	1549.042	1244.871
144.629	25.808	1547.781	1243.212
145.643	25.789	1547.981	1243.129
146.658	25.842	1546.062	1241.843
147.673	25.875	1544.813	1240.961
148.687	25.709	1544.033	1239.083
149.702	25.681	1542.400	1237.469
150.716	25.861	1540.354	1236.954
151.731	25.590	1541.073	1235.556
152.746	25.901	1538.248	1235.313
153.760	25.853	1537.856	1234.563
154.775	26.051	1536.531	1234.745
155.789	25.939	1535.809	1233.289
156.804	25.700	1535.426	1231.237
157.819	25.962	1533.262	1231.186
158.833	25.903	1533.090	1230.536
159.848	25.922	1530.810	1228.722
160.862	25.990	1530.192	1228.580
161.877	25.980	1529.085	1227.515
162.892	25.907	1528.503	1226.447
163.906	26.081	1527.512	1226.727
164.921	26.010	1526.206	1225.084
165.935	25.983	1525.158	1223.950
166.950	26.107	1525.278	1224.779
167.964	25.952	1523.851	1222.476
168.979	26.010	1523.448	1222.436
169.994	25.938	1522.193	1220.833
171.008	26.031	1521.139	1220.509
172.023	25.734	1521.165	1218.415
173.037	25.971	1519.297	1218.412
174.052	26.052	1518.240	1218.001
175.067	26.118	1516.993	1217.337
176.081	25.850	1515.944	1214.582
177.096	25.997	1515.072	1214.770
178.110	25.877	1513.508	1212.596
179.125	26.164	1513.062	1214.062
180.140	26.095	1511.778	1212.465
181.154	25.997	1510.930	1211.016
182.169	26.041	1509.869	1210.357
183.183	25.780	1509.214	1207.974
184.198	26.178	1507.295	1208.997
185.213	26.188	1506.673	1208.459
186.227	26.066	1505.790	1206.826
187.242	26.045	1505.409	1206.274
188.256	25.864	1505.469	1205.002
189.271	25.969	1504.573	1204.883
190.286	26.072	1503.117	1204.294
191.300	26.195	1502.813	1204.767
192.315	25.959	1502.318	1202.688
193.329	26.019	1500.512	1201.536
194.344	26.170	1499.792	1201.861
195.359	26.191	1498.379	1200.764
196.373	26.112	1497.621	1199.521
197.388	25.985	1496.593	1197.746
198.402	25.859	1495.583	1195.998
199.417	25.704	1495.325	1194.656
200.432	26.131	1494.314	1196.573
201.446	26.008	1494.320	1195.660
202.461	26.219	1492.984	1195.881
203.475	25.901	1492.192	1193.036
204.490	25.763	1490.959	1191.033
205.504	25.971	1488.622	1190.433
206.519	25.966	1488.585	1190.268
207.534	26.120	1487.897	1190.627
208.548	26.112	1486.584	1189.420
209.563	25.907	1486.643	1188.010
210.577	25.781	1484.738	1185.549
211.592	25.810	1484.089	1185.118
212.607	25.876	1483.576	1185.040
213.621	26.053	1483.145	1185.753
214.636	26.292	1481.623	1185.997
215.650	26.088	1481.678	1184.603
216.665	25.960	1480.182	1182.457
217.680	26.046	1479.313	1182.227
218.694	26.130	1478.781	1182.246
219.709	26.076	1477.742	1180.955
220.723	26.184	1476.438	1180.519
221.738	25.764	1477.410	1178.440
222.753	26.111	1475.377	1178.985
223.767	25.892	1474.605	1176.831
224.782	25.956	1474.254	1176.862
225.796	25.936	1473.694	1176.182
226.811	25.913	1473.206	1175.539
227.826	26.124	1471.710	1175.617
228.840	25.849	1471.000	1173.155
229.855	26.043	1471.028	1174.333
230.869	26.182	1468.971	1173.495
231.884	25.954	1468.696	1171.690
232.899	25.909	1467.758	1170.542
233.913	25.950	1466.841	1169.971
234.928	26.092	1465.260	1169.534
235.942	26.009	1463.605	1167.570
236.957	26.121	1463.023	1167.727
237.972	26.369	1460.739	1167.400
238.986	26.087	1460.884	1165.595
240.001	26.021	1459.461	1163.929
241.015	26.028	1458.972	1163.482
242.030	26.300	1457.150	1163.678
243.045	26.162	1458.040	1163.393
244.059	25.929	1457.082	1161.029
245.074	26.071	1455.584	1160.642
246.088	26.516	1454.268	1162.349
247.103	26.349	1454.348	1161.236
248.117	26.178	1454.720	1160.337
249.132	26.386	1452.781	1160.022
250.147	26.490	1451.946	1159.918
251.161	26.438	1450.918	1158.661
252.176	26.244	1450.868	1157.277
253.190	26.274	1449.982	1156.657
254.205	26.320	1448.444	1155.622
255.220	26.324	1447.913	1155.121
256.234	26.647	1446.774	1156.173
257.249	26.626	1446.662	1155.849
258.263	26.428	1445.772	1153.770
259.278	26.288	1444.366	1151.653
260.293	26.407	1443.608	1151.708
261.307	26.462	1443.718	1152.046
262.322	26.229	1443.366	1150.180
263.336	26.425	1442.175	1150.375
264.351	26.556	1440.512	1149.774
265.366	26.467	1439.893	1148.619
266.380	26.474	1439.405	1148.171
267.395	26.522	1437.352	1146.734
268.409	26.544	1436.577	1146.154
269.424	26.529	1436.649	1146.015
270.439	26.489	1434.742	1144.142
271.453	26.473	1434.479	1143.724
272.468	26.478	1434.224	1143.452
273.482	26.526	1432.917	1142.611
274.497	26.401	1431.951	1140.953
275.512	26.276	1431.681	1139.851
276.526	26.182	1431.918	1139.345
277.541	26.310	1430.325	1138.782
278.555	26.489	1428.862	1138.645
279.570	26.378	1427.826	1137.019
280.585	26.486	1427.291	1137.172
281.599	26.514	1426.296	1136.453
282.614	26.362	1425.870	1135.063
283.628	26.510	1424.795	1135.030
284.643	26.404	1424.383	1133.939
285.657	26.491	1422.574	1132.944
286.672	26.442	1422.242	1132.270
287.687	26.426	1421.155	1131.208
288.701	26.407	1419.026	1129.294
289.716	26.402	1420.131	1130.043
290.730	26.548	1418.776	1129.772
291.745	26.252	1418.326	1127.468
292.760	26.450	1417.141	1127.662
293.774	26.201	1416.691	1125.654
294.789	26.463	1415.225	1126.021
295.803	26.638	1414.177	1126.171
296.818	26.555	1412.826	1124.480
297.833	26.544	1411.879	1123.562
298.847	26.570	1412.010	1123.729
299.862	26.470	1411.388	1122.513
300.876	26.400	1410.413	1121.203
301.891	26.434	1409.636	1120.695
302.906	26.633	1408.288	1120.758
303.920	26.676	1408.266	1120.905
304.935	26.712	1407.600	1120.502
305.949	26.576	1406.715	1118.854
306.964	26.208	1405.787	1115.743
307.979	26.540	1405.081	1117.137
308.993	26.633	1404.249	1116.949
310.008	26.578	1402.783	1115.349
311.022	26.582	1401.779	1114.475
312.037	26.561	1400.593	1113.305
313.052	26.616	1400.451	1113.433
314.066	26.385	1399.840	1111.428
315.081	26.433	1398.245	1110.354
316.095	26.498	1397.472	1110.043
317.110	26.367	1397.125	1108.862
318.125	26.571	1394.621	1108.026
319.139	26.602	1393.506	1107.237
320.154	26.861	1392.861	1108.207
321.168	26.575	1391.528	1105.302
322.183	26.677	1392.053	1106.243
323.197	26.554	1390.061	1103.813
324.212	26.606	1390.313	1104.235
325.227	26.778	1389.333	1104.405
326.241	26.717	1388.484	1103.262
327.256	26.513	1388.479	1101.914
328.270	26.635	1387.354	1101.669
329.285	26.719	1385.765	1100.819
330.300	26.512	1385.050	1098.898
331.314	26.402	1384.909	1098.022
332.329	26.852	1383.407	1099.461
333.343	26.520	1383.657	1097.549
334.358	26.332	1383.780	1096.409
335.373	26.561	1381.573	1095.952
336.387	26.701	1380.469	1095.827
337.402	26.643	1379.760	1094.816
338.416	26.996	1378.841	1096.119
339.431	26.426	1380.060	1093.544
340.446	26.814	1378.160	1094.284
341.460	26.726	1377.292	1092.969
342.475	26.936	1376.111	1093.201
343.489	26.752	1376.070	1091.965
344.504	26.876	1374.445	1091.320
345.519	26.697	1373.894	1089.715
346.533	26.525	1373.787	1088.495
347.548	26.550	1372.674	1087.666
348.562	26.855	1371.545	1088.507
349.577	26.911	1371.323	1088.569
350.592	26.992	1368.881	1087.022
351.606	26.575	1368.785	1084.351
352.621	26.732	1368.334	1084.840
353.635	26.667	1367.458	1083.662
354.650	26.807	1365.499	1082.846
355.665	26.678	1366.042	1082.413
356.679	26.462	1364.389	1079.716
357.694	26.775	1362.048	1079.636
358.708	26.778	1361.295	1078.961
359.723	26.791	1360.608	1078.396
360.738	27.112	1358.628	1078.638
361.752	26.747	1358.867	1076.564
362.767	26.749	1357.236	1075.191
363.781	26.593	1357.263	1074.189
364.796	26.471	1356.794	1072.998
365.810	26.671	1356.183	1073.607
366.825	26.772	1355.389	1073.484
367.840	26.700	1354.946	1072.607
368.854	26.941	1353.308	1072.641
369.869	26.651	1353.442	1070.940
370.883	26.974	1352.664	1072.136
371.898	26.759	1351.493	1069.844
372.913	26.861	1351.008	1069.969
373.927	26.753	1350.721	1069.012
374.942	26.971	1348.490	1068.433
375.956	26.888	1347.982	1067.446
376.971	26.942	1347.268	1067.105
377.986	26.715	1346.895	1065.380
379.000	26.815	1345.853	1065.050
380.015	26.947	1344.994	1065.051
381.029	26.777	1344.921	1063.900
382.044	26.687	1344.762	1063.154
383.059	26.710	1344.009	1062.599
384.073	26.779	1342.684	1061.863
385.088	27.082	1342.124	1063.099
386.102	26.790	1341.925	1061.136
387.117	26.847	1340.840	1060.519
388.132	26.939	1339.701	1060.059
389.146	26.733	1339.455	1058.571
390.161	26.819	1338.714	1058.392
391.175	26.878	1337.363	1057.573
392.190	26.807	1336.808	1056.626
393.205	26.979	1335.903	1056.822
394.219	26.946	1335.874	1056.515
395.234	26.906	1334.767	1055.312
396.248	26.870	1332.751	1053.413
397.263	27.009	1331.500	1053.140
398.278	26.757	1330.626	1050.891
399.292	26.460	1330.260	1048.792
400.307	26.807	1328.487	1049.306
401.321	26.839	1328.000	1049.017
402.336	26.843	1327.263	1048.362
403.350	26.657	1325.870	1046.098
404.365	26.900	1324.562	1046.374
405.380	26.800	1324.910	1045.982
406.394	26.889	1322.988	1044.879
407.409	26.730	1323.602	1044.360
408.423	26.645	1322.524	1042.924
409.438	26.605	1321.570	1041.853
410.453	27.056	1320.575	1043.568
411.467	27.010	1320.530	1043.175
412.482	27.014	1320.100	1042.765
413.496	26.900	1319.265	1041.360
414.511	27.064	1316.713	1040.190
415.526	26.914	1317.764	1040.072
416.540	26.919	1316.217	1038.786
417.555	26.995	1316.201	1039.115
418.569	26.794	1316.061	1037.766
419.584	26.986	1314.129	1037.243
420.599	27.052	1314.094	1037.506
421.613	142.497	1435.926	1794.081
422.628	138.315	1453.653	1794.170
