DTS Sentinel unit serial number:	SN413079Multiplexer serial number:	ORYXHardware model number:	OX4-SRSoftware version number:	ORYX F/W v4.00 Oryx Data Collector v3.7.2.0data status	okinstallation	princeton_trtdifferential loss correction	single-endedforward channel	channel 4reverse channel	N/Adate	2019/09/16time	02:45:35forward acquisition time	60.00reverse acquisition time	0.00gamma	496.2192k internal	0.2320k external	0.2320temperature offset calibration	0.9973default loss term (dB/km)	0.3790temperature slope calibration	1.0000multiplexer offset coefficient	1.0000multiplexer slope coefficient	1.0000fibre end	0.00T internal ref (°C)	27.75T ext. ref 1 (°C)	10.33T ext. ref 2 (°C)	22.34length (m)	temperature (°C)	Stokes	anti-Stokes-747.200	303.549	-0.137	-0.256
-746.185	88.460	0.111	-0.125
-745.171	15.156	0.076	-0.060
-744.156	-172.996	-0.218	0.007
-743.142	-79.976	0.280	-0.095
-742.127	18.388	-0.362	-0.292
-741.112	13.951	-0.094	-0.074
-740.098	121.954	-0.117	0.148
-739.083	-33.097	0.128	0.072
-738.069	34.109	-0.202	-0.178
-737.054	261.856	-0.167	-0.293
-736.039	178.236	-0.167	-0.246
-735.025	106.350	0.119	0.142
-734.010	186.654	0.159	-0.239
-732.996	91.664	-0.194	-0.220
-731.981	-200.000	0.036	-0.180
-730.966	279.501	-0.133	0.240
-729.952	-200.000	0.005	0.394
-728.937	-173.304	-0.039	0.001
-727.923	-82.890	-0.197	-0.064
-726.908	181.790	0.101	-0.150
-725.894	-52.231	-0.138	0.064
-724.879	-123.921	-0.048	-0.008
-723.864	-82.036	-0.084	0.028
-722.850	-110.646	-0.252	0.053
-721.835	-200.000	0.035	0.263
-720.821	93.585	-0.159	0.182
-719.806	-200.000	-0.004	-0.343
-718.791	-105.072	-0.244	-0.056
-717.777	-200.000	-0.000	-0.329
-716.762	-67.711	-0.348	0.138
-715.748	-111.340	-0.507	-0.105
-714.733	-145.063	0.378	0.035
-713.718	-132.362	-0.169	0.022
-712.704	8.969	-0.305	0.232
-711.689	-200.000	-0.003	-0.186
-710.675	-61.091	-0.213	0.091
-709.660	196.012	-0.023	-0.035
-708.645	-9.501	-0.089	-0.060
-707.631	347.943	-0.077	-0.152
-706.616	-103.684	-0.093	0.022
-705.602	-76.038	0.344	0.123
-704.587	-200.000	0.021	-0.189
-703.572	-5.364	0.109	0.076
-702.558	-26.280	-0.182	0.108
-701.543	-69.942	0.060	0.023
-700.529	34.443	0.199	0.175
-699.514	-2.553	-0.182	-0.129
-698.499	-200.000	-0.036	0.230
-697.485	69.268	0.146	-0.152
-696.470	67.491	0.091	0.094
-695.456	-200.000	-0.047	-0.219
-694.441	-91.371	0.095	0.027
-693.426	-14.700	0.048	0.031
-692.412	385.913	0.091	-0.190
-691.397	7.763	-0.092	-0.070
-690.383	800.000	-0.014	-0.060
-689.368	440.843	0.104	-0.229
-688.354	89.192	-0.202	0.227
-687.339	16.603	-0.264	0.210
-686.324	-111.534	0.095	0.019
-685.310	334.387	-0.032	-0.063
-684.295	-90.172	-0.048	-0.014
-683.281	186.624	0.108	-0.163
-682.266	-30.098	-0.117	0.067
-681.251	-200.000	-0.006	-0.333
-680.237	95.065	0.189	-0.217
-679.222	-200.000	-0.025	-0.331
-678.208	496.431	0.105	-0.243
-677.193	800.000	0.034	0.133
-676.178	-123.988	-0.162	-0.026
-675.164	-200.000	-0.011	-0.190
-674.149	32.719	-0.278	0.242
-673.135	307.489	0.135	-0.254
-672.120	-57.906	0.030	-0.013
-671.105	-200.000	0.043	0.284
-670.091	-72.097	0.470	-0.176
-669.076	-56.151	-0.293	0.132
-668.062	-144.593	0.501	-0.047
-667.047	-65.033	-0.143	-0.058
-666.032	-95.201	-0.145	-0.039
-665.018	-168.264	-0.221	0.009
-664.003	-31.762	-0.222	-0.125
-662.989	198.794	-0.124	0.191
-661.974	-5.453	-0.286	-0.198
-660.959	19.950	0.438	-0.356
-659.945	-31.266	0.320	-0.182
-658.930	661.127	-0.055	0.142
-657.916	-50.522	-0.102	0.049
-656.901	-16.822	0.038	0.024
-655.886	22.229	-0.201	-0.166
-654.872	-35.080	-0.265	-0.145
-653.857	201.821	0.190	0.295
-652.843	-108.026	-0.164	0.036
-651.828	-43.261	0.164	0.084
-650.814	-14.179	-0.332	0.216
-649.799	713.529	-0.078	0.209
-648.784	755.549	-0.023	-0.063
-647.770	35.861	0.184	-0.163
-646.755	99.402	-0.076	-0.088
-645.741	-1.504	0.292	-0.207
-644.726	-190.514	0.123	-0.001
-643.711	-200.000	0.020	0.228
-642.697	-83.274	-0.426	0.138
-641.682	800.000	-0.079	-0.289
-640.668	-200.000	0.012	0.081
-639.653	800.000	0.048	0.134
-638.638	-95.277	0.052	0.014
-637.624	281.065	-0.206	0.371
-636.609	-200.000	0.008	-0.135
-635.595	-1.557	-0.086	-0.061
-634.580	226.056	0.135	0.220
-633.565	71.775	-0.178	0.186
-632.551	800.000	0.092	-0.274
-631.536	800.000	-0.019	-0.062
-630.522	800.000	0.071	0.216
-629.507	-200.000	-0.056	0.365
-628.492	288.401	-0.094	-0.171
-627.478	-200.000	-0.007	0.215
-626.463	-47.279	-0.312	-0.153
-625.449	62.532	0.175	0.176
-624.434	90.886	0.145	0.164
-623.419	-45.997	0.058	-0.029
-622.405	-200.000	0.013	-0.324
-621.390	682.508	0.030	0.078
-620.376	-58.439	0.082	-0.036
-619.361	162.757	-0.082	-0.116
-618.346	-200.000	-0.039	-0.259
-617.332	-200.000	-0.038	0.247
-616.317	172.790	0.091	0.132
-615.303	-16.238	-0.216	-0.138
-614.288	-134.399	0.222	-0.027
-613.273	-7.499	-0.241	-0.164
-612.259	28.293	0.101	0.086
-611.244	-88.130	0.059	-0.018
-610.230	-40.450	-0.117	0.061
-609.215	-105.087	-0.399	0.092
-608.201	41.972	-0.115	-0.105
-607.186	378.371	-0.089	0.183
-606.171	378.784	-0.098	0.202
-605.157	140.691	0.129	-0.171
-604.142	800.000	0.060	-0.234
-603.128	348.607	0.188	0.373
-602.113	-200.000	0.024	0.361
-601.098	-200.000	-0.009	0.184
-600.084	-200.000	0.021	0.104
-599.069	-67.898	-0.100	-0.039
-598.055	-133.815	-0.203	0.025
-597.040	-200.000	0.002	-0.160
-596.025	-200.000	-0.049	-0.336
-595.011	-97.521	0.079	-0.021
-593.996	-200.000	-0.036	-0.231
-592.982	114.204	0.228	-0.279
-591.967	26.359	0.239	0.200
-590.952	204.384	-0.117	-0.182
-589.938	254.891	-0.071	0.123
-588.923	41.670	-0.139	0.127
-587.909	-25.065	0.213	0.127
-586.894	800.000	-0.053	0.227
-585.879	-100.137	-0.161	-0.040
-584.865	4.079	0.326	0.240
-583.850	16.349	0.061	-0.048
-582.836	800.000	-0.027	-0.086
-581.821	0.616	0.189	-0.136
-580.806	225.729	0.144	-0.234
-579.792	-169.897	-0.416	0.015
-578.777	-122.340	-0.245	0.040
-577.763	570.772	0.130	0.318
-576.748	-200.000	-0.007	-0.079
-575.733	160.380	0.087	0.122
-574.719	2.927	-0.346	0.252
-573.704	800.000	0.062	-0.205
-572.690	-66.879	-0.173	-0.069
-571.675	-200.000	-0.007	-0.072
-570.661	-55.739	0.112	-0.050
-569.646	64.922	0.092	0.093
-568.631	-200.000	0.000	0.331
-567.617	-200.000	0.013	0.199
-566.602	743.476	0.118	-0.319
-565.588	-71.952	-0.069	-0.026
-564.573	800.000	0.037	0.161
-563.558	-136.495	-0.335	-0.039
-562.544	-137.853	-0.187	-0.021
-561.529	800.000	0.183	-0.593
-560.515	-200.000	-0.010	-0.229
-559.500	-200.000	-0.002	0.066
-558.485	-200.000	-0.039	0.369
-557.471	-135.759	-0.251	-0.030
-556.456	0.249	0.031	-0.022
-555.442	-57.563	0.350	-0.154
-554.427	-200.000	0.001	-0.172
-553.412	800.000	0.151	0.493
-552.398	-140.843	0.183	-0.019
-551.383	-124.292	0.048	-0.008
-550.369	39.115	-0.268	-0.241
-549.354	231.244	0.116	-0.191
-548.339	-116.037	0.355	0.066
-547.325	-200.000	0.034	0.253
-546.310	159.500	0.087	-0.122
-545.296	191.987	0.022	0.034
-544.281	-200.000	0.004	-0.197
-543.266	-200.000	-0.053	-0.250
-542.252	285.612	0.163	0.295
-541.237	-117.334	0.069	-0.013
-540.223	-48.515	0.277	-0.134
-539.208	-200.000	0.002	-0.113
-538.193	-80.070	-0.312	-0.105
-537.179	-110.213	0.117	-0.024
-536.164	94.690	0.159	-0.181
-535.150	800.000	-0.050	-0.204
-534.135	-21.260	-0.178	-0.109
-533.121	-200.000	-0.052	-0.438
-532.106	642.131	0.079	-0.202
-531.091	-33.115	0.066	-0.037
-530.077	365.853	-0.045	0.091
-529.062	117.077	0.079	0.097
-528.048	800.000	-0.026	0.095
-527.033	410.129	0.023	-0.049
-526.018	-13.902	-0.329	-0.213
-525.004	565.339	0.043	-0.106
-523.989	6.315	0.147	0.110
-522.975	420.431	-0.140	0.301
-521.960	800.000	-0.074	-0.244
-520.945	-79.853	0.060	0.020
-519.931	-76.253	-0.127	0.045
-518.916	800.000	-0.123	0.376
-517.902	-200.000	-0.047	-0.210
-516.887	800.000	-0.060	-0.184
-515.872	-53.885	-0.122	0.056
-514.858	-33.265	-0.179	-0.099
-513.843	0.469	-0.366	0.262
-512.829	800.000	0.069	0.204
-511.814	-127.067	-0.246	0.036
-510.799	15.026	-0.060	-0.047
-509.785	-200.000	0.051	-0.424
-508.770	236.430	0.403	-0.668
-507.756	-98.818	-0.422	-0.107
-506.741	711.045	-0.057	-0.151
-505.726	-150.471	0.207	0.016
-504.712	-37.904	0.239	-0.127
-503.697	-52.576	-0.261	0.121
-502.683	-138.723	-0.290	-0.032
-501.668	344.325	-0.036	0.071
-500.653	170.830	-0.086	0.123
-499.639	167.142	0.053	-0.076
-498.624	-97.957	-0.189	-0.049
-497.610	63.282	0.124	-0.124
-496.595	-11.844	-0.295	0.194
-495.581	60.385	0.369	0.366
-494.566	-154.611	0.049	0.003
-493.551	3.607	-0.250	-0.182
-492.537	36.148	-0.204	0.180
-491.522	800.000	-0.113	-0.397
-490.508	-108.009	-0.228	0.050
-489.493	349.690	0.147	-0.290
-488.478	50.040	-0.229	-0.217
-487.464	-200.000	-0.005	0.112
-486.449	56.654	0.243	0.237
-485.435	-200.000	-0.036	-0.234
-484.420	800.000	-0.041	0.135
-483.405	-128.730	0.151	-0.021
-482.391	-21.461	0.272	-0.166
-481.376	20.283	0.136	-0.110
-480.362	-73.219	0.025	0.009
-479.347	43.159	0.177	0.161
-478.332	-200.000	0.007	-0.166
-477.318	-15.611	-0.230	-0.147
-476.303	105.781	0.135	-0.159
-475.289	343.989	0.062	0.122
-474.274	88.034	-0.188	-0.209
-473.259	-200.000	-0.007	-0.094
-472.245	-111.178	0.332	0.068
-471.230	-200.000	-0.018	0.269
-470.216	-40.410	0.208	0.108
-469.201	800.000	-0.069	-0.295
-468.186	-200.000	-0.065	-0.298
-467.172	-89.796	-0.140	-0.041
-466.157	800.000	0.020	-0.063
-465.143	-200.000	0.004	-0.246
-464.128	44.019	-0.138	0.127
-463.113	-57.078	-0.312	-0.137
-462.099	-200.000	0.042	-0.329
-461.084	-80.518	0.221	0.074
-460.070	800.000	-0.136	-0.497
-459.055	800.000	-0.039	0.134
-458.040	3.975	-0.332	0.242
-457.026	-13.483	-0.067	0.043
-456.011	-81.930	-0.449	0.147
-454.997	-102.888	0.186	-0.044
-453.982	-200.000	-0.041	0.216
-452.968	-8.289	-0.079	-0.053
-451.953	800.000	-0.065	0.222
-450.938	-200.000	-0.010	-0.149
-449.924	75.059	0.166	0.175
-448.909	-173.263	-0.140	-0.004
-447.895	95.138	-0.139	0.158
-446.880	91.572	0.074	0.083
-445.865	-77.833	-0.140	-0.048
-444.851	118.328	0.060	0.074
-443.836	407.019	0.040	0.085
-442.822	52.864	-0.081	0.077
-441.807	-130.991	-0.255	-0.034
-440.792	800.000	0.042	0.141
-439.778	-14.666	0.264	0.169
-438.763	800.000	0.064	-0.192
-437.749	28.842	0.159	-0.134
-436.734	242.084	-0.160	0.268
-435.719	124.091	-0.283	-0.355
-434.705	76.104	-0.120	-0.127
-433.690	-4.524	-0.092	0.064
-432.676	9.355	-0.301	0.227
-431.661	241.341	0.040	-0.066
-430.646	800.000	-0.104	0.339
-429.632	-10.824	-0.189	0.125
-428.617	-200.000	-0.027	-0.272
-427.603	596.954	-0.060	0.148
-426.588	-97.202	0.195	-0.051
-425.573	-200.000	-0.010	-0.070
-424.559	-91.721	0.162	0.046
-423.544	-200.000	0.002	0.018
-422.530	18.489	-0.099	-0.079
-421.515	174.718	0.193	-0.279
-420.500	-105.308	0.330	0.075
-419.486	174.301	-0.204	0.295
-418.471	-4.620	-0.354	-0.244
-417.457	-200.000	-0.025	0.333
-416.442	288.501	0.014	-0.026
-415.428	386.071	-0.051	0.105
-414.413	800.000	0.080	0.347
-413.398	205.500	-0.089	-0.138
-412.384	10.503	0.100	0.076
-411.369	87.873	0.153	-0.169
-410.355	35.914	-0.167	-0.147
-409.340	-82.257	-0.257	0.084
-408.325	18.034	-0.031	0.024
-407.311	-66.868	0.117	0.046
-406.296	523.485	0.044	0.103
-405.282	12.906	-0.073	-0.056
-404.267	17.722	-0.139	0.110
-403.252	800.000	0.028	-0.109
-402.238	-200.000	-0.003	0.233
-401.223	-200.000	-0.032	0.279
-400.209	-92.341	-0.342	0.096
-399.194	61.628	0.109	-0.108
-398.179	44.984	0.307	0.282
-397.165	-187.654	-0.237	-0.003
-396.150	-44.371	0.289	-0.144
-395.136	800.000	0.049	0.138
-394.121	432.041	-0.073	-0.158
-393.106	27.817	-0.125	-0.105
-392.092	-136.759	0.230	0.026
-391.077	-99.944	0.130	0.032
-390.063	-5.108	-0.126	-0.086
-389.048	-87.041	-0.146	-0.044
-388.033	679.166	0.043	0.111
-387.019	130.463	0.077	-0.098
-386.004	-179.405	-0.208	-0.005
-384.990	-132.766	0.391	-0.050
-383.975	-129.683	-0.350	0.048
-382.960	-14.386	-0.309	-0.199
-381.946	-99.887	-0.290	0.072
-380.931	-200.000	0.016	0.127
-379.917	53.159	0.273	-0.261
-378.902	246.348	0.156	0.262
-377.888	800.000	-0.018	-0.080
-376.873	-200.000	0.057	-0.333
-375.858	800.000	-0.069	0.211
-374.844	800.000	0.118	0.373
-373.829	4.425	-0.183	0.134
-372.815	80.044	0.003	0.004
-371.800	406.907	-0.064	-0.134
-370.785	-200.000	-0.022	0.124
-369.771	-173.343	-0.073	-0.002
-368.756	224.081	0.092	0.148
-367.742	80.972	-0.097	-0.105
-366.727	-51.674	0.281	0.130
-365.712	507.959	-0.087	-0.201
-364.698	49.035	-0.292	0.273
-363.683	46.877	0.265	0.245
-362.669	-200.000	0.055	0.308
-361.654	210.591	0.179	0.281
-360.639	-200.000	0.016	-0.120
-359.625	-93.536	0.041	0.011
-358.610	-200.000	0.018	-0.109
-357.596	-200.000	-0.016	0.081
-356.581	-48.481	-0.059	-0.028
-355.566	-200.000	0.034	0.179
-354.552	108.313	-0.070	0.083
-353.537	-136.146	-0.338	0.039
-352.523	644.779	-0.159	-0.404
-351.508	-68.383	0.189	-0.073
-350.493	-20.631	-0.018	0.011
-349.479	597.126	-0.085	-0.210
-348.464	-125.413	-0.116	-0.018
-347.450	129.875	0.098	0.125
-346.435	-39.780	-0.027	0.014
-345.420	47.179	0.053	0.049
-344.406	-200.000	0.009	-0.309
-343.391	450.152	-0.066	-0.144
-342.377	-137.284	0.215	-0.024
-341.362	-87.603	0.111	0.033
-340.348	-200.000	-0.003	-0.020
-339.333	-93.363	0.121	-0.033
-338.318	96.930	0.172	-0.197
-337.304	-82.103	0.189	0.061
-336.289	-174.523	-0.245	0.007
-335.275	800.000	-0.108	-0.398
-334.260	-82.010	0.062	-0.020
-333.245	-60.968	0.335	0.141
-332.231	800.000	0.019	-0.075
-331.216	658.122	-0.021	-0.054
-330.202	68.400	0.201	0.205
-329.187	-31.270	0.266	-0.149
-328.172	12.237	0.202	-0.154
-327.158	-81.128	-0.355	-0.117
-326.143	-106.923	-0.219	0.048
-325.129	57.619	0.095	-0.092
-324.114	800.000	-0.087	0.325
-323.099	800.000	-0.016	-0.070
-322.085	800.000	0.018	-0.070
-321.070	-32.773	0.135	0.075
-320.056	-39.860	0.271	-0.141
-319.041	-200.000	0.009	0.174
-318.026	76.319	0.213	0.225
-317.012	214.023	-0.044	0.069
-315.997	-200.000	-0.006	-0.160
-314.983	-141.710	-0.047	-0.005
-313.968	-56.831	0.029	0.013
-312.953	-200.000	-0.006	-0.246
-311.939	-69.596	-0.102	-0.039
-310.924	-200.000	0.015	0.167
-309.910	-40.713	-0.311	-0.160
-308.895	27.771	0.024	-0.020
-307.880	2.346	0.095	-0.068
-306.866	239.260	0.028	0.046
-305.851	7.709	-0.203	0.151
-304.837	559.062	-0.049	-0.117
-303.822	800.000	-0.180	-0.641
-302.807	136.288	-0.151	0.195
-301.793	800.000	-0.012	0.041
-300.778	800.000	0.097	-0.269
-299.764	800.000	-0.024	0.077
-298.749	-58.730	-0.062	0.027
-297.735	332.979	-0.063	-0.122
-296.720	-12.542	0.206	-0.133
-295.705	52.060	0.087	0.082
-294.691	-157.667	0.261	0.015
-293.676	11.917	-0.180	-0.137
-292.662	151.286	0.106	0.143
-291.647	-93.144	-0.349	0.096
-290.632	511.619	0.152	0.351
-289.618	-168.476	0.172	-0.007
-288.603	-106.508	0.375	0.083
-287.589	800.000	0.050	0.176
-286.574	191.452	0.206	0.308
-285.559	-2.837	0.107	0.074
-284.545	160.242	0.427	0.591
-283.530	168.080	-0.139	0.196
-282.516	-139.213	-0.195	-0.021
-281.501	285.925	0.209	0.374
-280.486	-200.000	0.031	-0.000
-279.472	-41.762	0.278	-0.141
-278.457	-200.000	-0.027	0.287
-277.443	-123.268	-0.099	0.016
-276.428	-144.534	-0.443	0.041
-275.413	-200.000	0.052	0.371
-274.399	-115.872	-0.190	0.035
-273.384	-58.838	-0.178	0.076
-272.370	73.964	0.139	0.144
-271.355	98.851	-0.128	-0.146
-270.340	-200.000	-0.009	0.301
-269.326	-200.000	-0.009	-0.216
-268.311	-17.262	0.122	0.076
-267.297	180.996	0.078	0.114
-266.282	-74.849	0.145	-0.052
-265.267	178.817	-0.031	-0.045
-264.253	19.236	0.407	0.324
-263.238	-15.070	-0.115	-0.073
-262.224	102.243	0.183	-0.212
-261.209	29.481	-0.089	0.075
-260.195	-71.952	0.178	0.066
-259.180	28.477	-0.174	-0.146
-258.165	-63.561	-0.240	-0.098
-257.151	800.000	-0.034	0.102
-256.136	655.243	-0.110	-0.280
-255.122	-97.533	0.174	-0.045
-254.107	685.615	0.125	0.325
-253.092	300.834	0.208	-0.381
-252.078	-200.000	-0.090	-0.401
-251.063	-109.817	0.525	0.109
-250.049	452.168	0.056	0.123
-249.034	-130.635	0.094	-0.013
-248.019	114.622	0.103	0.124
-247.005	-22.412	-0.205	-0.123
-245.990	-16.028	-0.291	0.184
-244.976	-68.851	0.143	-0.055
-243.961	-44.760	-0.042	0.021
-242.946	122.824	0.274	-0.340
-241.932	-61.869	0.079	0.033
-240.917	-56.455	-0.208	-0.091
-239.903	-120.983	0.392	0.065
-238.888	12.551	-0.048	0.036
-237.873	800.000	-0.090	-0.265
-236.859	731.501	0.166	-0.439
-235.844	800.000	0.049	-0.137
-234.830	151.396	-0.099	0.134
-233.815	72.558	-0.061	0.063
-232.800	143.382	0.157	-0.207
-231.786	-136.083	-0.244	0.028
-230.771	-93.471	-0.136	-0.037
-229.757	34.253	0.165	-0.142
-228.742	-88.462	-0.137	0.041
-227.727	-31.093	-0.141	0.079
-226.713	98.637	0.165	0.188
-225.698	207.431	0.119	0.184
-224.684	-200.000	0.010	0.204
-223.669	-122.303	-0.155	-0.025
-222.655	-81.944	-0.251	0.081
-221.640	293.455	-0.031	0.055
-220.625	-28.080	0.049	-0.028
-219.611	35.492	0.339	-0.295
-218.596	-56.826	-0.158	0.069
-217.582	28.197	0.228	-0.191
-216.567	-77.475	0.056	-0.019
-215.552	-38.126	-0.100	-0.052
-214.538	-12.749	0.183	-0.118
-213.523	392.888	0.161	0.331
-212.509	800.000	-0.073	0.214
-211.494	104.536	0.163	0.190
-210.479	-186.373	-0.239	0.003
-209.465	-200.000	-0.005	0.229
-208.450	61.472	-0.064	-0.063
-207.436	-200.000	-0.062	-0.341
-206.421	393.261	-0.088	0.181
-205.406	800.000	0.045	-0.157
-204.392	-50.291	0.339	-0.159
-203.377	-60.549	-0.084	-0.035
-202.363	23.937	0.258	-0.211
-201.348	482.128	0.070	-0.157
-200.333	330.943	0.208	0.396
-199.319	-200.000	0.016	0.253
-198.304	-200.000	0.131	0.000
-197.290	16.647	0.063	-0.049
-196.275	-165.214	-0.231	-0.010
-195.260	-200.000	0.048	-0.234
-194.246	800.000	-0.105	-0.383
-193.231	-2.667	0.060	0.042
-192.217	186.921	0.259	0.381
-191.202	170.509	0.074	0.105
-190.187	21.479	0.100	0.080
-189.173	152.633	-0.113	0.153
-188.158	-200.000	0.009	-0.047
-187.144	208.387	0.226	-0.350
-186.129	-116.836	0.191	0.035
-185.114	-50.183	0.045	0.021
-184.100	51.466	-0.191	0.180
-183.085	159.550	-0.098	0.135
-182.071	-100.535	-0.128	0.031
-181.056	800.000	-0.040	-0.163
-180.042	-87.206	0.308	0.092
-179.027	-131.941	0.197	-0.025
-178.012	800.000	-0.079	0.220
-176.998	555.237	-0.062	-0.147
-175.983	139.718	-0.235	0.307
-174.969	316.703	-0.144	-0.269
-173.954	-44.959	0.492	0.243
-172.939	-21.274	-0.056	-0.034
-171.925	-120.314	-0.096	0.016
-170.910	-188.091	0.411	0.005
-169.896	-50.657	-0.096	0.045
-168.881	-107.554	0.203	-0.044
-167.866	-128.235	-0.214	0.030
-166.852	-76.593	-0.222	-0.077
-165.837	606.967	0.113	0.278
-164.823	13.614	0.185	-0.142
-163.808	-107.803	0.072	0.016
-162.793	103.128	-0.227	-0.263
-161.779	-162.781	0.282	-0.014
-160.764	501.683	0.082	0.187
-159.750	-30.445	0.284	0.159
-158.735	125.323	-0.161	-0.201
-157.720	-200.000	0.005	-0.270
-156.706	-62.357	-0.510	-0.210
-155.691	800.000	-0.077	0.288
-154.677	-31.191	-0.219	-0.122
-153.662	-130.293	-0.125	0.017
-152.647	-58.840	0.159	-0.068
-151.633	-122.652	0.125	-0.020
-150.618	81.048	-0.113	-0.120
-149.604	94.511	0.077	0.086
-148.589	83.288	0.298	-0.321
-147.574	267.993	0.169	-0.293
-146.560	-140.124	0.010	-0.001
-145.545	56.184	-0.060	0.058
-144.531	-137.510	0.274	0.031
-143.516	44.993	-0.214	0.195
-142.502	-200.000	0.018	-0.158
-141.487	800.000	-0.013	-0.040
-140.472	136.026	0.275	0.354
-139.458	186.069	0.118	0.173
-138.443	-200.000	0.016	-0.166
-137.429	28.952	-0.179	-0.150
-136.414	-51.978	0.337	-0.155
-135.399	201.636	-0.063	0.096
-134.385	-126.875	0.317	-0.046
-133.370	-106.365	-0.119	0.026
-132.356	37.416	-0.136	-0.119
-131.341	-200.000	-0.010	0.206
-130.326	-103.329	0.178	0.042
-129.312	-200.000	-0.013	0.139
-128.297	75.878	0.196	0.205
-127.283	-67.664	-0.240	-0.093
-126.268	-103.987	-0.084	-0.019
-125.253	-47.718	-0.251	-0.120
-124.239	-109.463	-0.219	0.046
-123.224	-116.608	0.230	0.042
-122.210	-200.000	-0.004	0.314
-121.195	-182.708	-0.198	0.004
-120.180	314.554	0.168	0.313
-119.166	-61.231	0.121	-0.050
-118.151	-200.000	-0.012	-0.104
-117.137	79.245	-0.094	-0.099
-116.122	-120.081	0.216	-0.036
-115.107	85.072	0.144	0.156
-114.093	800.000	-0.052	-0.168
-113.078	274.397	-0.192	-0.336
-112.064	-8.247	-0.062	-0.041
-111.049	182.059	-0.214	-0.311
-110.034	6.286	0.218	-0.159
-109.020	-200.000	0.016	-0.171
-108.005	800.000	-0.042	-0.129
-106.991	-54.512	-0.074	-0.033
-105.976	-76.471	-0.235	0.081
-104.962	-70.937	0.192	0.071
-103.947	800.000	0.140	-0.469
-102.932	800.000	0.036	-0.130
-101.918	197.794	0.246	-0.371
-100.903	-126.240	0.396	0.058
-99.889	653.100	-0.074	0.188
-98.874	-12.747	0.112	0.072
-97.859	82.748	0.373	0.400
-96.845	-117.436	0.163	0.029
-95.830	-87.139	0.130	-0.039
-94.816	-66.433	0.159	0.062
-93.801	-65.078	0.097	0.038
-92.786	-82.615	-0.221	-0.071
-91.772	122.956	-0.120	0.148
-90.757	-200.000	-0.022	-0.173
-89.743	-27.741	0.334	0.191
-88.728	-81.481	0.248	0.080
-87.713	-138.876	-0.412	-0.044
-86.699	-88.035	0.184	0.054
-85.684	-57.479	0.379	0.164
-84.670	-127.947	-0.208	-0.030
-83.655	-200.000	0.028	0.174
-82.640	56.651	-0.186	0.178
-81.626	-200.000	0.140	-0.000
-80.611	-144.110	-0.264	-0.024
-79.597	370.428	-0.128	-0.256
-78.582	3.749	-0.182	-0.131
-77.567	800.000	-0.063	-0.234
-76.553	-84.301	-0.093	-0.029
-75.538	-106.299	0.135	-0.030
-74.524	-100.861	-0.151	0.037
-73.509	47.217	-0.124	0.113
-72.494	-30.695	0.473	0.264
-71.480	-200.000	-0.071	0.475
-70.465	-200.000	0.219	0.000
-69.451	-116.074	0.305	-0.056
-68.436	-32.339	-0.057	-0.032
-67.422	-128.363	-0.171	0.024
-66.407	424.540	-0.149	-0.315
-65.392	5.126	0.298	-0.216
-64.378	-88.054	0.191	-0.056
-63.363	-0.801	-0.119	-0.083
-62.349	-115.848	-0.062	-0.011
-61.334	98.789	-0.742	-0.843
-60.319	229.476	0.467	0.750
-59.305	669.769	-0.341	-0.868
-58.290	219.853	0.681	1.073
-57.276	446.462	0.677	1.464
-56.261	-200.000	111.367	632.157
-55.246	465.529	1498.115	3300.020
-54.232	145.445	2673.472	3523.252
-53.217	94.219	2322.379	2594.158
-52.203	34.086	2071.163	1776.010
-51.188	29.457	1985.957	1661.327
-50.173	28.105	1968.706	1634.755
-49.159	46.174	2026.303	1846.868
-48.144	45.428	2042.760	1855.039
-47.130	30.050	2001.945	1679.811
-46.115	27.751	1991.877	1650.528
-45.100	27.652	1988.766	1646.989
-44.086	27.686	1986.480	1645.334
-43.071	27.578	1983.934	1642.195
-42.057	27.527	1981.870	1639.957
-41.042	27.611	1980.379	1639.414
-40.027	27.549	1978.700	1637.405
-39.013	27.592	1976.720	1636.089
-37.998	27.664	1974.483	1634.817
-36.984	27.698	1972.628	1633.521
-35.969	27.636	1971.210	1631.722
-34.954	27.669	1968.718	1629.893
-33.940	27.742	1967.670	1629.615
-32.925	27.669	1966.430	1627.868
-31.911	27.689	1964.644	1626.508
-30.896	27.720	1962.801	1625.189
-29.881	27.734	1961.225	1623.945
-28.867	27.784	1959.502	1622.899
-27.852	27.725	1958.599	1621.559
-26.838	27.813	1956.039	1620.159
-25.823	27.759	1954.459	1618.304
-24.809	27.761	1952.500	1616.641
-23.794	27.795	1950.601	1615.305
-22.779	27.768	1949.045	1613.715
-21.765	27.830	1947.025	1612.525
-20.750	27.810	1945.952	1611.391
-19.736	27.861	1943.984	1610.153
-18.721	27.818	1942.525	1608.502
-17.706	27.850	1940.606	1607.127
-16.692	27.773	1939.625	1605.573
-15.677	27.834	1937.792	1604.529
-14.663	27.774	1936.269	1602.678
-13.648	27.832	1934.926	1602.014
-12.633	27.740	1933.851	1600.250
-11.619	27.801	1932.754	1599.813
-10.604	27.791	1931.219	1598.392
-9.590	27.747	1930.155	1597.065
-8.575	27.803	1928.399	1596.038
-7.560	27.720	1927.115	1594.189
-6.546	27.768	1925.994	1593.611
-5.531	27.776	1924.422	1592.320
-4.517	27.742	1923.755	1591.412
-3.502	27.784	1922.334	1590.533
-2.487	27.782	1921.418	1589.698
-1.473	27.803	1920.383	1588.963
-0.458	27.871	1915.254	1585.242
0.556	25.873	1895.612	1558.268
1.571	21.841	1877.709	1508.799
2.586	18.114	1901.107	1494.934
3.600	17.177	1937.235	1514.860
4.615	17.109	1930.868	1509.140
5.629	15.486	1838.989	1423.450
6.644	12.412	1733.901	1317.382
7.659	10.538	1702.600	1278.726
8.673	10.380	1699.724	1275.210
9.688	10.327	1698.662	1273.885
10.702	10.343	1696.925	1272.593
11.717	10.269	1693.365	1269.233
12.731	10.443	1692.248	1269.647
13.746	12.818	1696.700	1291.501
14.761	16.141	1703.071	1322.332
15.775	17.648	1704.797	1335.375
16.790	17.246	1702.463	1330.279
17.804	16.133	1699.367	1319.048
18.819	15.184	1695.996	1308.897
19.834	14.519	1693.235	1301.464
20.848	14.197	1691.829	1297.760
21.863	13.994	1689.892	1294.577
22.877	13.669	1688.383	1290.777
23.892	13.487	1687.132	1288.293
24.907	13.210	1686.617	1285.631
25.921	13.252	1685.612	1285.072
26.936	13.371	1683.845	1284.537
27.950	13.348	1683.277	1283.812
28.965	13.370	1682.689	1283.418
29.980	13.434	1682.000	1283.281
30.994	13.506	1680.896	1282.881
32.009	13.531	1679.782	1282.111
33.023	13.584	1678.390	1281.344
34.038	13.645	1677.556	1281.065
35.053	13.565	1676.450	1279.492
36.067	13.625	1675.125	1278.829
37.082	13.581	1673.851	1277.407
38.096	13.540	1672.685	1276.083
39.111	13.500	1672.294	1275.365
40.126	13.631	1670.793	1275.115
41.140	13.571	1670.779	1274.532
42.155	13.443	1668.949	1272.036
43.169	13.371	1667.560	1270.312
44.184	13.362	1666.408	1269.258
45.199	13.311	1664.893	1267.601
46.213	13.294	1664.204	1266.833
47.228	13.289	1663.021	1265.778
48.242	13.367	1661.402	1265.034
49.257	13.412	1660.424	1264.518
50.271	13.358	1659.205	1263.068
51.286	13.368	1657.801	1261.961
52.301	13.457	1656.435	1261.488
53.315	13.440	1654.577	1259.834
54.330	13.429	1653.552	1258.857
55.344	13.358	1651.865	1256.926
56.359	13.273	1650.704	1255.285
57.374	13.378	1649.277	1254.882
58.388	13.385	1648.332	1254.106
59.403	13.304	1646.862	1252.266
60.417	13.240	1645.785	1250.847
61.432	13.253	1644.771	1250.064
62.447	13.244	1643.844	1249.187
63.461	13.181	1641.994	1247.188
64.476	13.134	1640.686	1245.736
65.490	13.192	1639.492	1245.155
66.505	13.215	1638.885	1244.755
67.520	13.144	1638.160	1243.558
68.534	13.157	1637.108	1242.749
69.549	13.235	1636.134	1242.489
70.563	13.258	1634.545	1241.346
71.578	13.233	1633.405	1240.180
72.593	13.235	1632.209	1239.176
73.607	13.097	1631.658	1237.611
74.622	13.110	1630.356	1236.612
75.636	13.054	1629.971	1235.792
76.651	13.074	1629.049	1235.138
77.666	13.149	1627.877	1234.695
78.680	13.169	1626.513	1233.707
79.695	13.164	1626.020	1233.185
80.709	13.160	1624.950	1232.234
81.724	13.239	1624.333	1232.242
82.739	13.312	1622.583	1231.351
83.753	13.326	1622.288	1231.120
84.768	13.340	1621.814	1230.760
85.782	13.492	1620.635	1230.884
86.797	13.491	1620.057	1230.330
87.812	13.497	1619.197	1229.615
88.826	13.438	1617.741	1227.961
89.841	13.439	1616.568	1226.972
90.855	13.484	1615.392	1226.302
91.870	13.408	1614.775	1225.162
92.884	13.505	1613.148	1224.538
93.899	13.508	1612.315	1223.818
94.914	13.413	1611.357	1222.284
95.928	13.571	1609.845	1222.190
96.943	13.652	1608.576	1221.715
97.957	13.519	1607.459	1219.780
98.972	13.452	1605.711	1217.851
99.987	13.525	1604.551	1217.400
101.001	13.551	1602.783	1216.142
102.016	13.450	1601.218	1214.110
103.030	13.401	1600.270	1212.919
104.045	13.481	1598.496	1212.054
105.060	13.550	1597.091	1211.391
106.074	13.651	1595.142	1210.542
107.089	13.437	1594.133	1208.108
108.103	13.360	1592.047	1205.858
109.118	13.311	1590.916	1204.537
110.133	13.239	1589.516	1202.846
111.147	13.255	1587.966	1201.683
112.162	13.286	1586.838	1200.948
113.176	13.241	1585.415	1199.438
114.191	13.277	1584.246	1198.707
115.206	13.330	1583.096	1198.116
116.220	13.351	1581.683	1197.092
117.235	13.400	1579.991	1196.064
118.249	13.315	1578.925	1194.536
119.264	13.374	1577.728	1193.951
120.279	13.372	1576.291	1192.740
121.293	13.289	1575.171	1191.190
122.308	13.236	1573.378	1189.351
123.322	13.325	1571.624	1188.555
124.337	13.194	1570.331	1186.531
125.352	13.275	1568.924	1185.946
126.366	13.323	1567.948	1185.445
127.381	13.158	1566.745	1183.251
128.395	13.285	1565.246	1182.921
129.410	13.218	1564.171	1181.524
130.424	13.259	1562.685	1180.591
131.439	13.311	1560.981	1179.575
132.454	13.318	1559.708	1178.555
133.468	13.400	1558.541	1178.152
134.483	13.296	1557.198	1176.294
135.497	13.424	1555.597	1175.893
136.512	13.378	1554.415	1174.568
137.527	13.351	1552.805	1173.056
138.541	13.378	1551.711	1172.317
139.556	13.409	1550.512	1171.523
140.570	13.494	1548.524	1170.517
141.585	13.416	1548.088	1169.539
142.600	13.560	1546.500	1169.247
143.614	13.538	1545.367	1168.133
144.629	13.572	1544.020	1167.251
145.643	13.567	1542.670	1166.091
146.658	13.606	1541.399	1165.304
147.673	13.609	1539.633	1163.885
148.687	13.569	1538.418	1162.583
149.702	13.607	1536.594	1161.369
150.716	13.507	1535.319	1159.605
151.731	13.534	1533.800	1158.540
152.746	13.480	1532.771	1157.285
153.760	13.570	1530.944	1156.432
154.775	13.526	1530.052	1155.348
155.789	13.507	1529.064	1154.367
156.804	13.560	1527.529	1153.474
157.819	13.686	1526.317	1153.336
158.833	13.642	1525.107	1152.010
159.848	13.745	1524.104	1151.872
160.862	13.776	1522.402	1150.698
161.877	13.715	1522.039	1149.899
162.892	13.769	1520.393	1148.927
163.906	13.673	1519.269	1147.312
164.921	13.562	1517.837	1145.356
165.935	13.531	1517.038	1144.440
166.950	13.560	1515.904	1143.680
167.964	13.555	1514.817	1142.729
168.979	13.581	1513.580	1141.876
169.994	13.661	1512.423	1141.450
171.008	13.620	1511.364	1140.267
172.023	13.672	1510.525	1139.893
173.037	13.721	1508.861	1138.872
174.052	13.719	1508.140	1138.214
175.067	13.827	1506.562	1137.662
176.081	13.780	1505.864	1136.711
177.096	13.696	1504.649	1135.120
178.110	13.623	1502.831	1133.144
179.125	13.677	1502.108	1132.870
180.140	13.653	1500.543	1131.425
181.154	13.720	1499.812	1131.231
182.169	13.709	1498.707	1130.222
183.183	13.797	1497.751	1130.002
184.198	13.883	1496.163	1129.286
185.213	13.862	1495.370	1128.447
186.227	13.925	1494.194	1127.890
187.242	13.956	1493.188	1127.239
188.256	13.958	1492.069	1126.309
189.271	14.065	1490.818	1125.992
190.286	14.036	1489.929	1125.025
191.300	13.942	1488.934	1123.538
192.315	13.837	1487.276	1121.479
193.329	13.744	1486.151	1119.900
194.344	13.727	1485.341	1119.076
195.359	13.783	1483.801	1118.195
196.373	13.786	1482.904	1117.442
197.388	13.878	1482.115	1117.369
198.402	13.956	1481.004	1116.955
199.417	14.066	1479.669	1116.589
200.432	14.154	1478.710	1116.357
201.446	14.156	1478.100	1115.809
202.461	14.193	1476.634	1114.853
203.475	14.221	1475.358	1113.976
204.490	14.183	1474.528	1112.997
205.504	14.210	1473.467	1112.277
206.519	14.131	1472.358	1110.817
207.534	14.076	1470.905	1109.257
208.548	14.077	1470.113	1108.567
209.563	14.130	1468.940	1107.936
210.577	14.190	1468.447	1107.865
211.592	14.163	1466.944	1106.457
212.607	14.221	1466.306	1106.259
213.621	14.226	1465.740	1105.771
214.636	14.309	1464.715	1105.451
215.650	14.285	1463.852	1104.541
216.665	14.283	1462.637	1103.512
217.680	14.297	1461.833	1102.899
218.694	14.343	1461.285	1102.693
219.709	14.388	1460.153	1102.038
220.723	14.420	1459.645	1101.773
221.738	14.399	1458.411	1100.600
222.753	14.369	1457.708	1099.777
223.767	14.533	1455.947	1099.436
224.782	14.416	1455.141	1097.957
225.796	14.414	1454.330	1097.237
226.811	14.405	1453.812	1096.684
227.826	14.516	1453.112	1096.792
228.840	14.436	1452.393	1095.623
229.855	14.386	1451.212	1094.310
230.869	14.410	1449.886	1093.372
231.884	14.498	1448.685	1092.946
232.899	14.461	1448.173	1092.218
233.913	14.478	1446.898	1091.272
234.928	14.415	1445.712	1089.871
235.942	14.472	1443.947	1088.813
236.957	14.478	1442.661	1087.788
237.972	14.410	1442.472	1087.105
238.986	14.412	1441.011	1085.920
240.001	14.414	1440.409	1085.383
241.015	14.428	1439.169	1084.443
242.030	14.429	1437.841	1083.357
243.045	14.553	1436.971	1083.412
244.059	14.608	1436.063	1082.986
245.074	14.538	1435.505	1082.016
246.088	14.580	1434.852	1081.697
247.103	14.595	1433.688	1080.824
248.117	14.558	1433.373	1080.252
249.132	14.707	1432.213	1080.245
250.147	14.742	1431.812	1080.071
251.161	14.886	1430.667	1080.044
252.176	14.923	1429.973	1079.662
253.190	14.931	1429.645	1079.374
254.205	15.015	1428.360	1078.847
255.220	15.106	1426.892	1078.228
256.234	15.059	1426.453	1077.502
257.249	15.062	1425.848	1076.963
258.263	15.123	1424.958	1076.590
259.278	15.069	1424.356	1075.697
260.293	15.168	1422.862	1075.109
261.307	15.079	1422.360	1074.060
262.322	15.087	1421.911	1073.682
263.336	15.041	1421.272	1072.806
264.351	15.159	1419.942	1072.460
265.366	15.098	1419.272	1071.473
266.380	15.292	1417.923	1071.601
267.395	15.291	1416.814	1070.657
268.409	15.300	1415.892	1069.925
269.424	15.088	1415.416	1068.118
270.439	15.127	1414.085	1067.270
271.453	15.220	1413.020	1066.961
272.468	15.197	1412.150	1066.063
273.482	15.236	1411.082	1065.411
274.497	15.176	1410.823	1064.738
275.512	15.266	1409.698	1064.366
276.526	15.212	1408.569	1063.076
277.541	15.169	1408.002	1062.284
278.555	15.191	1406.707	1061.356
279.570	15.285	1405.981	1061.308
280.585	15.383	1404.615	1060.798
281.599	15.453	1404.158	1060.802
282.614	15.456	1403.213	1060.015
283.628	15.503	1401.951	1059.263
284.643	15.293	1401.162	1057.250
285.657	15.346	1400.247	1056.801
286.672	15.353	1399.342	1056.066
287.687	15.425	1398.356	1055.682
288.701	15.396	1397.153	1054.498
289.716	15.373	1396.798	1053.994
290.730	15.387	1395.976	1053.368
291.745	15.394	1394.914	1052.520
292.760	15.368	1394.227	1051.741
293.774	15.532	1392.988	1051.744
294.789	15.574	1391.714	1050.951
295.803	15.446	1391.061	1049.563
296.818	15.620	1390.100	1049.832
297.833	15.521	1389.515	1048.679
298.847	15.498	1388.016	1047.313
299.862	15.461	1387.701	1046.750
300.876	15.462	1386.400	1045.685
301.891	15.593	1385.199	1045.503
302.906	15.627	1384.582	1045.154
303.920	15.601	1383.890	1044.379
304.935	15.657	1383.605	1044.415
305.949	15.705	1382.517	1043.805
306.964	15.714	1381.800	1043.227
307.979	15.772	1380.948	1042.848
308.993	15.804	1379.068	1041.534
310.008	15.800	1378.203	1040.764
311.022	15.818	1377.447	1040.210
312.037	15.830	1376.472	1039.462
313.052	15.765	1375.730	1038.404
314.066	15.828	1374.586	1037.836
315.081	15.686	1373.845	1036.311
316.095	15.663	1372.985	1035.431
317.110	15.687	1371.679	1034.500
318.125	15.755	1370.378	1033.844
319.139	15.696	1369.906	1033.039
320.154	15.757	1368.595	1032.331
321.168	15.713	1367.711	1031.303
322.183	15.706	1366.898	1030.557
323.197	15.741	1365.758	1029.821
324.212	15.799	1364.802	1029.360
325.227	15.936	1364.061	1029.552
326.241	15.968	1363.151	1028.969
327.256	15.883	1362.342	1027.745
328.270	15.832	1361.452	1026.674
329.285	15.895	1360.435	1026.202
330.300	15.788	1359.802	1024.979
331.314	15.876	1358.544	1024.474
332.329	15.878	1358.175	1024.122
333.343	15.947	1356.964	1023.532
334.358	15.954	1356.166	1022.887
335.373	16.013	1355.026	1022.292
336.387	15.953	1354.710	1021.602
337.402	16.015	1354.158	1021.469
338.416	15.987	1353.313	1020.572
339.431	16.066	1352.536	1020.373
340.446	16.074	1352.137	1020.030
341.460	16.136	1350.946	1019.415
342.475	16.233	1349.754	1019.013
343.489	16.286	1348.721	1018.461
344.504	16.353	1347.842	1018.115
345.519	16.262	1347.583	1017.279
346.533	16.321	1345.825	1016.214
347.548	16.336	1345.369	1015.873
348.562	16.405	1344.391	1015.461
349.577	16.397	1343.754	1014.837
350.592	16.458	1342.946	1014.507
351.606	16.262	1342.031	1012.548
352.621	16.266	1340.945	1011.661
353.635	16.235	1340.095	1010.749
354.650	16.288	1339.009	1010.156
355.665	16.334	1338.278	1009.792
356.679	16.284	1337.056	1008.482
357.694	16.336	1335.883	1007.815
358.708	16.356	1334.904	1007.109
359.723	16.350	1333.699	1006.075
360.738	16.373	1332.668	1005.345
361.752	16.390	1331.668	1004.602
362.767	16.472	1330.661	1004.237
363.781	16.450	1329.646	1003.254
364.796	16.519	1328.754	1002.900
365.810	16.477	1328.327	1002.241
366.825	16.577	1327.411	1002.057
367.840	16.600	1326.928	1001.735
368.854	16.533	1326.685	1001.072
369.869	16.650	1325.775	1000.984
370.883	16.658	1325.213	1000.521
371.898	16.658	1324.427	999.838
372.913	16.598	1323.494	998.691
373.927	16.669	1322.054	997.934
374.942	16.658	1321.703	997.515
375.956	16.694	1320.737	996.914
376.971	16.783	1320.038	996.817
377.986	16.762	1319.405	996.132
379.000	16.737	1318.381	995.121
380.015	16.696	1317.660	994.248
381.029	16.812	1316.926	994.287
382.044	16.884	1316.063	993.971
383.059	16.922	1315.404	993.609
384.073	16.927	1315.079	993.306
385.088	16.871	1313.969	992.050
386.102	16.928	1313.386	991.853
387.117	16.993	1312.597	991.551
388.132	16.964	1311.636	990.571
389.146	16.905	1310.778	989.490
390.161	16.775	1310.528	988.452
391.175	16.910	1309.643	988.485
392.190	16.884	1308.452	987.350
393.205	16.900	1307.947	986.972
394.219	16.922	1307.232	986.472
395.234	16.913	1305.704	985.183
396.248	17.043	1304.075	984.618
397.263	16.978	1302.941	983.298
398.278	16.904	1301.770	981.899
399.292	16.794	1300.882	980.507
400.307	16.935	1299.497	980.191
401.321	16.862	1298.578	978.988
402.336	16.893	1297.557	978.311
403.350	17.020	1295.974	977.761
404.365	17.036	1295.349	977.297
405.380	16.942	1294.841	976.285
406.394	17.019	1293.946	975.969
407.409	17.014	1293.617	975.603
408.423	17.041	1292.680	974.965
409.438	17.152	1291.554	974.666
410.453	17.199	1290.874	974.341
411.467	17.231	1290.241	973.957
412.482	17.329	1289.836	974.130
413.496	17.289	1289.277	973.391
414.511	17.325	1288.505	972.926
415.526	17.346	1287.632	972.303
416.540	17.252	1287.147	971.311
417.555	17.327	1286.326	971.037
418.569	17.389	1285.793	970.898
419.584	17.326	1285.462	970.207
420.599	17.439	1284.360	969.933
421.613	96.469	1356.288	1475.488
422.628	94.413	1366.702	1475.566
