DTS Sentinel unit serial number:	SN413079Multiplexer serial number:	ORYXHardware model number:	OX4-SRSoftware version number:	ORYX F/W v4.00 Oryx Data Collector v3.7.2.0data status	okinstallation	princeton_trtdifferential loss correction	single-endedforward channel	channel 4reverse channel	N/Adate	2019/09/11time	18:31:10forward acquisition time	60.00reverse acquisition time	0.00gamma	496.2192k internal	0.2276k external	0.2276temperature offset calibration	1.0025default loss term (dB/km)	0.3790temperature slope calibration	1.0000multiplexer offset coefficient	1.0000multiplexer slope coefficient	1.0000fibre end	0.00T internal ref (°C)	43.81T ext. ref 1 (°C)	1.17T ext. ref 2 (°C)	37.44length (m)	temperature (°C)	Stokes	anti-Stokes-747.200	466.614	-0.044	0.103
-746.185	-120.284	-0.140	-0.025
-745.171	800.000	0.088	0.345
-744.156	54.221	0.188	0.187
-743.142	-200.000	0.031	0.188
-742.127	-163.525	-0.125	-0.006
-741.112	10.616	-0.316	-0.248
-740.098	55.519	0.213	0.213
-739.083	-200.000	-0.017	-0.301
-738.069	96.065	-0.190	-0.224
-737.054	-31.655	-0.220	0.127
-736.039	-123.188	0.105	0.017
-735.025	171.158	0.154	-0.228
-734.010	349.384	0.110	-0.224
-732.996	174.435	0.104	0.154
-731.981	-132.408	-0.396	0.053
-730.966	-200.000	-0.012	-0.074
-729.952	157.709	-0.054	0.076
-728.937	-200.000	0.050	-0.250
-727.923	-20.918	-0.441	0.278
-726.908	-51.236	-0.184	-0.089
-725.894	486.446	-0.096	-0.226
-724.879	57.503	-0.206	0.207
-723.864	-18.510	0.182	0.117
-722.850	34.131	0.153	-0.137
-721.835	371.225	-0.107	0.224
-720.821	165.313	-0.027	0.040
-719.806	64.761	-0.078	0.081
-718.791	-200.000	-0.047	0.295
-717.777	-162.144	-0.403	0.021
-716.762	-31.243	-0.119	0.069
-715.748	1.454	-0.152	-0.112
-714.733	58.995	-0.195	-0.197
-713.718	-95.404	-0.190	-0.052
-712.704	-135.711	-0.114	0.014
-711.689	800.000	0.021	-0.073
-710.675	601.279	-0.024	-0.062
-709.660	419.017	0.122	-0.269
-708.645	-200.000	-0.010	0.115
-707.631	-147.600	-0.258	0.022
-706.616	-35.569	-0.280	-0.156
-705.602	-200.000	-0.007	-0.115
-704.587	800.000	0.077	-0.339
-703.572	-15.915	-0.027	-0.017
-702.558	145.089	-0.032	0.044
-701.543	-135.763	0.240	-0.029
-700.529	-113.699	0.183	-0.037
-699.514	-25.263	-0.220	-0.134
-698.499	297.859	0.047	-0.089
-697.485	800.000	0.079	0.229
-696.470	-200.000	0.030	-0.180
-695.456	800.000	-0.043	0.191
-694.441	781.417	-0.075	0.210
-693.426	-56.924	-0.114	-0.052
-692.412	345.932	0.062	-0.125
-691.397	-200.000	0.011	0.130
-690.383	800.000	0.023	-0.079
-689.368	-6.935	0.216	-0.151
-688.354	-200.000	0.050	-0.450
-687.339	560.969	0.066	-0.165
-686.324	-48.384	0.148	0.073
-685.310	-200.000	0.024	-0.172
-684.295	-200.000	0.011	-0.139
-683.281	-90.884	-0.093	0.027
-682.266	-200.000	0.011	0.056
-681.251	-2.373	0.294	-0.212
-680.237	278.270	-0.214	0.392
-679.222	-183.232	-0.481	0.009
-678.208	-200.000	0.032	-0.174
-677.193	-137.796	0.145	0.017
-676.178	-28.714	-0.080	0.047
-675.164	19.707	0.127	-0.105
-674.149	-23.497	-0.268	0.165
-673.135	293.224	-0.037	0.070
-672.120	167.649	-0.030	-0.043
-671.105	393.933	0.107	0.230
-670.091	257.556	-0.066	0.117
-669.076	-116.075	-0.272	0.052
-668.062	-147.262	-0.292	-0.026
-667.047	-200.000	-0.046	-0.259
-666.032	186.498	-0.106	-0.161
-665.018	434.027	0.025	0.057
-664.003	68.430	-0.158	-0.166
-662.989	-35.593	-0.242	0.135
-661.974	25.560	-0.359	0.307
-660.959	-200.000	-0.003	0.307
-659.945	-96.899	-0.464	0.125
-658.930	-162.292	-0.178	0.009
-657.916	-200.000	-0.031	-0.183
-656.901	-43.435	0.159	-0.083
-655.886	89.638	0.162	0.186
-654.872	-200.000	-0.010	-0.081
-653.857	-47.301	-0.059	-0.030
-652.843	-200.000	-0.037	-0.302
-651.828	800.000	-0.061	0.237
-650.814	800.000	0.012	0.041
-649.799	-64.458	-0.212	-0.089
-648.784	390.658	0.152	-0.325
-647.770	-147.333	0.143	-0.013
-646.755	3.733	0.084	0.063
-645.741	32.970	-0.156	-0.139
-644.726	800.000	0.050	-0.146
-643.711	-76.370	0.108	-0.039
-642.697	84.360	-0.102	0.115
-641.682	800.000	0.031	0.106
-640.668	-43.597	0.231	-0.120
-639.653	-128.145	-0.332	-0.049
-638.638	417.509	-0.066	-0.145
-637.624	-122.113	-0.253	-0.043
-636.609	345.010	0.047	0.095
-635.595	57.921	-0.150	0.150
-634.580	800.000	-0.032	-0.126
-633.565	391.794	-0.141	-0.300
-632.551	482.460	0.008	0.018
-631.536	-200.000	-0.076	-0.403
-630.522	148.039	-0.251	-0.347
-629.507	170.664	0.138	-0.204
-628.492	-79.446	-0.137	0.048
-627.478	800.000	-0.052	0.213
-626.463	37.977	-0.121	-0.111
-625.449	624.074	0.017	-0.045
-624.434	-200.000	-0.028	-0.332
-623.419	-200.000	-0.064	-0.329
-622.405	-7.148	-0.103	-0.071
-621.390	-104.912	0.292	-0.069
-620.376	-65.559	-0.103	-0.042
-619.361	-200.000	-0.021	-0.213
-618.346	355.795	0.133	-0.272
-617.332	44.642	-0.323	-0.304
-616.317	86.884	0.134	0.152
-615.303	-1.801	0.272	0.196
-614.288	294.829	0.096	-0.180
-613.273	107.114	0.375	-0.457
-612.259	-200.000	0.008	0.045
-611.244	70.424	-0.145	-0.153
-610.230	-92.950	-0.452	-0.129
-609.215	800.000	-0.106	-0.306
-608.201	53.161	-0.240	0.236
-607.186	268.850	0.160	0.287
-606.171	234.795	-0.161	-0.271
-605.157	-10.808	-0.139	-0.094
-604.142	315.344	0.038	-0.074
-603.128	-137.345	0.161	0.019
-602.113	-93.739	-0.142	-0.040
-601.098	-61.345	-0.121	0.052
-600.084	-80.125	0.269	-0.092
-599.069	86.882	0.169	-0.191
-598.055	-118.939	0.111	0.020
-597.040	-117.473	-0.082	-0.015
-596.025	447.073	0.069	-0.156
-595.011	178.220	-0.075	0.112
-593.996	800.000	0.067	-0.238
-592.982	9.274	0.183	-0.142
-591.967	-110.459	-0.289	0.062
-590.952	-200.000	0.041	-0.203
-589.938	-200.000	-0.048	0.255
-588.923	-200.000	-0.056	-0.256
-587.909	-152.077	-0.073	0.005
-586.894	23.146	0.076	0.064
-585.879	-161.843	-0.522	-0.027
-584.865	-0.880	0.250	0.181
-583.850	-34.816	-0.068	-0.038
-582.836	-41.679	0.344	0.181
-581.821	-200.000	-0.059	-0.462
-580.806	-101.259	-0.194	-0.048
-579.792	800.000	0.103	0.359
-578.777	238.535	0.099	-0.169
-577.763	-53.681	0.079	0.037
-576.748	-13.594	-0.147	-0.098
-575.733	-29.509	-0.076	-0.044
-574.719	-65.328	-0.257	-0.106
-573.704	-2.365	-0.196	0.141
-572.690	68.537	-0.177	-0.186
-571.675	238.660	-0.053	0.091
-570.661	314.608	-0.033	0.064
-569.646	-153.997	0.278	0.019
-568.631	244.919	-0.210	0.362
-567.617	-71.860	-0.255	-0.097
-566.602	-126.239	0.089	-0.014
-565.588	-200.000	0.023	0.247
-564.573	10.436	-0.215	-0.168
-563.558	-133.048	0.165	0.021
-562.544	-27.674	-0.139	-0.083
-561.529	752.897	-0.131	-0.364
-560.515	-165.642	-0.305	0.014
-559.500	-63.427	0.082	-0.035
-558.485	-200.000	0.009	-0.102
-557.471	402.092	-0.081	-0.174
-556.456	272.961	0.122	-0.220
-555.442	-57.086	0.220	0.099
-554.427	800.000	-0.037	-0.161
-553.412	-200.000	-0.022	-0.307
-552.398	-200.000	-0.061	0.288
-551.383	-200.000	-0.023	-0.109
-550.369	-105.002	0.079	-0.018
-549.354	-9.211	0.138	0.095
-548.339	131.686	-0.192	0.252
-547.325	-155.297	-0.063	-0.004
-546.310	-75.432	0.114	-0.041
-545.296	-134.200	0.141	-0.018
-544.281	312.832	0.024	0.046
-543.266	800.000	0.037	-0.109
-542.252	-92.723	0.111	0.032
-541.237	4.114	0.088	0.066
-540.223	-75.999	-0.048	-0.017
-539.208	-129.909	-0.220	0.031
-538.193	-48.667	0.152	0.075
-537.179	-56.862	-0.193	0.087
-536.164	179.177	-0.279	-0.418
-535.150	800.000	0.139	-0.469
-534.135	-200.000	0.011	-0.122
-533.121	-98.548	0.208	0.054
-532.106	-11.530	0.200	-0.135
-531.091	-100.701	-0.077	-0.019
-530.077	487.582	0.121	-0.282
-529.062	-29.529	-0.227	-0.133
-528.048	132.813	-0.075	0.100
-527.033	-104.870	0.402	-0.094
-526.018	-42.039	-0.359	0.188
-525.004	-110.501	-0.035	0.008
-523.989	-88.008	-0.098	0.030
-522.975	-76.999	0.163	0.058
-521.960	58.223	0.135	0.135
-520.945	-61.626	0.248	-0.107
-519.931	-3.221	-0.081	-0.058
-518.916	-4.373	0.217	-0.153
-517.902	-200.000	-0.021	0.515
-516.887	800.000	-0.085	-0.245
-515.872	119.133	0.090	0.113
-514.858	-117.926	0.116	0.021
-513.843	-32.941	0.106	-0.060
-512.829	-146.234	-0.166	0.015
-511.814	-200.000	-0.008	0.129
-510.799	800.000	-0.065	0.248
-509.785	-60.164	-0.278	-0.121
-508.770	142.760	-0.215	0.291
-507.756	800.000	0.045	0.150
-506.741	69.298	0.178	0.187
-505.726	401.276	0.069	-0.148
-504.712	-173.153	-0.143	-0.004
-503.697	30.352	0.169	-0.147
-502.683	-138.316	-0.221	-0.025
-501.668	800.000	-0.068	0.200
-500.653	327.899	0.099	0.193
-499.639	184.826	-0.115	-0.173
-498.624	183.101	0.065	0.098
-497.610	8.552	-0.063	0.049
-496.595	-62.952	-0.248	-0.105
-495.581	-151.575	-0.079	0.006
-494.566	-176.292	0.380	-0.010
-493.551	-200.000	-0.013	0.067
-492.537	10.697	-0.071	-0.056
-491.522	800.000	0.054	-0.176
-490.508	36.110	-0.112	-0.101
-489.493	36.575	0.138	0.125
-488.478	26.431	-0.251	0.214
-487.464	92.374	-0.246	-0.283
-486.449	-65.482	0.250	0.103
-485.435	14.395	-0.214	0.170
-484.420	145.143	0.182	0.249
-483.405	-170.406	-0.446	0.016
-482.391	800.000	-0.017	0.058
-481.376	-200.000	-0.004	-0.025
-480.362	-200.000	0.032	-0.192
-479.347	-200.000	0.041	0.320
-478.332	44.313	-0.182	0.171
-477.318	419.068	-0.064	-0.140
-476.303	6.145	0.010	-0.008
-475.289	-110.978	-0.315	0.066
-474.274	12.660	0.300	-0.236
-473.259	-76.035	0.117	-0.042
-472.245	142.829	0.320	-0.433
-471.230	159.246	0.113	-0.160
-470.216	96.458	-0.179	-0.209
-469.201	-122.087	-0.243	0.041
-468.186	-50.879	0.175	-0.084
-467.172	-74.862	0.089	0.033
-466.157	39.756	-0.081	-0.074
-465.143	-200.000	-0.034	0.214
-464.128	-200.000	-0.017	0.089
-463.113	145.230	0.116	0.159
-462.099	-0.208	0.296	0.215
-461.084	-127.433	0.084	0.013
-460.070	-200.000	0.021	0.110
-459.055	264.998	-0.081	0.144
-458.040	-134.540	0.205	0.026
-457.026	-168.220	0.096	0.004
-456.011	800.000	0.099	0.285
-454.997	-200.000	0.057	-0.454
-453.982	-200.000	0.084	-0.381
-452.968	800.000	-0.144	-0.486
-451.953	-31.898	0.262	0.149
-450.938	164.332	-0.104	0.149
-449.924	-14.722	-0.259	0.170
-448.909	-102.975	0.431	0.104
-447.895	17.404	0.167	0.135
-446.880	-34.301	0.080	0.045
-445.865	-200.000	-0.013	0.137
-444.851	-61.629	-0.301	-0.129
-443.836	87.478	-0.058	-0.066
-442.822	800.000	0.024	-0.105
-441.807	308.580	-0.137	0.260
-440.792	-26.963	-0.149	0.088
-439.778	140.775	-0.054	0.072
-438.763	-139.777	0.283	-0.031
-437.749	-175.634	-0.305	0.008
-436.734	22.125	-0.087	-0.072
-435.719	-200.000	0.055	0.272
-434.705	303.279	0.087	0.164
-433.690	614.179	-0.048	0.122
-432.676	-200.000	-0.061	-0.369
-431.661	-72.202	-0.067	-0.025
-430.646	-52.698	0.194	0.091
-429.632	-200.000	0.032	-0.234
-428.617	184.033	0.029	0.044
-427.603	152.933	-0.074	-0.103
-426.588	-200.000	-0.060	-0.422
-425.573	-59.596	0.022	-0.010
-424.559	-150.628	-0.264	0.021
-423.544	800.000	0.085	-0.265
-422.530	-23.079	0.135	-0.083
-421.515	259.431	0.059	0.104
-420.500	-38.922	0.137	-0.074
-419.486	31.386	0.138	0.121
-418.471	-77.879	0.345	0.121
-417.457	800.000	-0.089	0.319
-416.442	-41.171	0.286	0.150
-415.428	136.260	0.088	-0.116
-414.413	-187.783	-0.273	0.004
-413.398	-12.914	0.054	-0.036
-412.384	800.000	0.050	-0.144
-411.369	414.072	-0.105	-0.227
-410.355	-200.000	0.052	-0.274
-409.340	-134.080	-0.440	-0.055
-408.325	-96.622	0.233	-0.062
-407.311	-78.158	-0.131	-0.046
-406.296	18.017	0.044	0.036
-405.282	245.530	0.098	0.168
-404.267	250.351	-0.047	-0.082
-403.252	-200.000	-0.003	0.155
-402.238	-40.917	0.039	-0.021
-401.223	-200.000	0.011	0.134
-400.209	-51.008	0.105	0.050
-399.194	296.775	-0.117	0.219
-398.179	-96.358	-0.241	0.065
-397.165	166.925	0.149	-0.214
-396.150	800.000	-0.028	-0.110
-395.136	367.029	0.058	-0.120
-394.121	-200.000	-0.012	0.208
-393.106	130.850	-0.164	-0.214
-392.092	-69.481	0.154	-0.060
-391.077	-137.070	0.361	-0.042
-390.063	166.540	0.156	-0.225
-389.048	-35.663	-0.300	-0.165
-388.033	-43.899	0.143	-0.073
-387.019	-106.940	-0.483	-0.109
-386.004	253.935	0.123	0.214
-384.990	-41.201	-0.249	-0.130
-383.975	-200.000	-0.014	0.066
-382.960	59.175	0.173	-0.173
-381.946	-103.356	-0.332	0.080
-380.931	14.907	0.026	0.021
-379.917	49.397	0.291	0.279
-378.902	-179.263	-0.179	-0.004
-377.888	-147.789	0.149	0.013
-376.873	383.705	0.124	-0.259
-375.858	-48.984	0.156	-0.076
-374.844	-105.012	0.165	0.038
-373.829	-73.756	-0.178	0.066
-372.815	-2.351	-0.161	-0.115
-371.800	-96.738	-0.138	-0.037
-370.785	438.047	-0.116	-0.256
-369.771	-180.641	-0.394	-0.008
-368.756	231.051	0.170	-0.283
-367.742	14.389	0.208	0.165
-366.727	132.430	0.026	0.034
-365.712	-62.732	0.259	-0.109
-364.698	45.683	0.136	-0.128
-363.683	-24.952	0.128	0.077
-362.669	-162.025	0.120	-0.006
-361.654	-109.469	0.258	0.055
-360.639	43.946	0.282	-0.262
-359.625	10.719	0.275	0.213
-358.610	-96.868	0.309	0.082
-357.596	-200.000	-0.014	0.456
-356.581	-200.000	-0.012	0.095
-355.566	-51.588	-0.326	-0.155
-354.552	-91.382	-0.272	0.079
-353.537	-112.930	0.235	0.047
-352.523	-76.298	0.118	0.042
-351.508	-171.653	-0.104	-0.003
-350.493	-5.874	-0.104	0.072
-349.479	-155.022	0.055	0.004
-348.464	-115.984	-0.344	0.065
-347.450	-200.000	-0.021	0.274
-346.435	-141.509	0.165	-0.017
-345.420	74.455	-0.195	0.208
-344.406	-94.366	0.228	0.063
-343.391	265.573	-0.127	0.225
-342.377	52.204	0.111	-0.108
-341.362	-50.540	-0.134	-0.064
-340.348	221.693	-0.032	-0.053
-339.333	-9.670	-0.209	-0.141
-338.318	-17.588	-0.099	-0.063
-337.304	660.166	0.039	-0.101
-336.289	-116.817	-0.216	0.040
-335.275	222.713	0.046	-0.075
-334.260	131.197	0.181	0.236
-333.245	5.815	-0.151	0.113
-332.231	-200.000	0.022	0.122
-331.216	-71.086	0.166	-0.063
-330.202	484.098	-0.168	0.388
-329.187	20.952	0.215	-0.176
-328.172	35.080	-0.127	-0.113
-327.158	-79.952	0.228	0.078
-326.143	277.483	0.016	0.029
-325.129	-113.097	0.077	-0.015
-324.114	43.756	-0.140	-0.130
-323.099	-27.113	0.321	0.190
-322.085	-200.000	-0.035	0.368
-321.070	-71.922	-0.145	0.055
-320.056	-26.034	-0.329	-0.196
-319.041	-200.000	-0.001	0.207
-318.026	-7.372	0.276	-0.189
-317.012	-9.245	-0.268	0.181
-315.997	-53.161	-0.171	0.080
-314.983	-124.904	0.227	0.035
-313.968	-96.056	-0.234	0.063
-312.953	-100.542	-0.147	0.037
-311.939	-125.199	0.152	0.024
-310.924	-95.972	-0.105	-0.028
-309.910	373.999	0.065	-0.135
-308.895	-155.350	-0.533	0.035
-307.880	-122.059	-0.170	0.028
-306.866	425.775	0.109	-0.237
-305.851	85.592	-0.226	0.251
-304.837	103.575	0.021	-0.024
-303.822	-83.347	-0.321	0.104
-302.807	800.000	0.074	0.252
-301.793	39.101	0.096	0.087
-300.778	-121.138	0.298	0.051
-299.764	250.749	-0.084	0.145
-298.749	501.477	0.175	0.409
-297.735	67.868	-0.102	0.105
-296.720	620.073	0.095	0.242
-295.705	188.123	0.171	-0.259
-294.691	800.000	0.015	-0.053
-293.676	101.157	-0.143	-0.168
-292.662	136.324	0.278	0.367
-291.647	800.000	-0.063	0.221
-290.632	239.563	0.122	-0.205
-289.618	-94.409	0.214	0.059
-288.603	572.236	-0.023	-0.057
-287.589	-59.225	-0.366	-0.160
-286.574	-60.587	-0.144	-0.062
-285.559	-52.123	0.191	0.090
-284.545	36.697	0.207	-0.185
-283.530	800.000	-0.030	-0.099
-282.516	92.115	-0.215	0.245
-281.501	-78.719	0.041	-0.014
-280.486	154.779	0.086	0.119
-279.472	-31.484	-0.362	-0.206
-278.457	604.101	-0.061	-0.154
-277.443	-200.000	-0.042	0.232
-276.428	-200.000	-0.012	0.183
-275.413	-2.405	-0.257	-0.182
-274.399	-200.000	0.083	-0.374
-273.384	-132.659	0.239	0.031
-272.370	455.733	-0.063	0.143
-271.355	171.837	0.130	0.189
-270.340	758.888	0.065	-0.177
-269.326	6.769	0.157	0.118
-268.311	-193.524	0.077	0.001
-267.297	-5.664	-0.296	-0.206
-266.282	-150.055	-0.174	0.014
-265.267	800.000	0.015	0.055
-264.253	-200.000	-0.021	0.189
-263.238	-197.341	0.264	-0.002
-262.224	35.249	-0.129	-0.114
-261.209	-21.773	0.094	0.058
-260.195	739.883	-0.047	0.129
-259.180	-91.805	0.266	-0.076
-258.165	-26.586	-0.171	0.101
-257.151	133.667	-0.140	0.183
-256.136	31.778	0.308	0.268
-255.122	601.817	0.137	0.345
-254.107	800.000	-0.061	0.245
-253.092	-49.469	0.165	-0.079
-252.078	124.564	0.054	0.069
-251.063	-40.326	0.145	0.076
-250.049	278.240	-0.068	-0.122
-249.034	114.642	0.115	0.142
-248.019	203.767	0.106	0.165
-247.005	386.090	-0.150	0.312
-245.990	-200.000	0.005	0.214
-244.976	346.173	0.065	-0.129
-243.961	-137.439	-0.111	0.013
-242.946	800.000	0.033	-0.133
-241.932	-18.736	-0.196	-0.123
-240.917	-65.234	-0.025	0.010
-239.903	-200.000	0.040	-0.267
-238.888	49.113	0.189	-0.180
-237.873	-43.625	-0.477	-0.243
-236.859	-42.973	-0.164	0.084
-235.844	-73.319	-0.196	0.072
-234.830	-15.138	0.207	0.134
-233.815	759.444	-0.074	0.203
-232.800	306.020	0.242	-0.455
-231.786	145.121	0.040	-0.054
-230.771	-13.725	-0.081	0.053
-229.757	-200.000	-0.038	-0.221
-228.742	433.102	0.089	0.196
-227.727	226.345	0.134	0.219
-226.713	800.000	-0.097	-0.346
-225.698	88.358	-0.164	-0.184
-224.684	327.955	0.106	0.205
-223.669	800.000	-0.054	0.201
-222.655	336.042	0.085	0.166
-221.640	-200.000	0.102	0.477
-220.625	-129.509	-0.129	0.018
-219.611	40.234	0.227	0.206
-218.596	48.269	-0.083	-0.078
-217.582	23.269	0.095	-0.079
-216.567	549.702	-0.085	0.206
-215.552	-200.000	-0.014	-0.177
-214.538	-200.000	-0.047	0.254
-213.523	-93.057	0.155	0.044
-212.509	-154.906	-0.457	-0.030
-211.494	-40.533	-0.137	0.072
-210.479	141.436	-0.060	-0.080
-209.465	-117.693	0.175	-0.032
-208.450	183.063	0.049	0.073
-207.436	-128.125	0.316	0.046
-206.421	-101.405	0.115	-0.028
-205.406	17.194	-0.066	0.053
-204.392	-14.525	-0.321	-0.209
-203.377	-56.458	0.243	0.109
-202.363	242.283	-0.156	0.263
-201.348	-62.905	-0.108	-0.045
-200.333	-18.214	0.390	0.246
-199.319	800.000	-0.032	0.132
-198.304	31.572	0.347	0.301
-197.290	-172.259	-0.204	-0.007
-196.275	180.235	0.142	-0.209
-195.260	-200.000	-0.007	0.206
-194.246	3.201	0.157	-0.115
-193.231	126.212	-0.247	-0.315
-192.217	-200.000	-0.040	0.189
-191.202	251.958	0.170	-0.293
-190.187	-101.574	-0.064	0.016
-189.173	108.341	-0.097	0.117
-188.158	-110.295	-0.290	0.061
-187.144	-71.092	0.301	0.114
-186.129	800.000	0.072	0.235
-185.114	-119.537	0.072	-0.013
-184.100	250.685	0.147	0.252
-183.085	326.343	-0.135	0.262
-182.071	-200.000	0.021	0.443
-181.056	800.000	0.090	0.275
-180.042	113.413	0.098	-0.119
-179.027	-104.924	-0.101	-0.023
-178.012	-100.175	-0.217	0.054
-176.998	428.901	-0.074	0.162
-175.983	18.148	0.073	-0.059
-174.969	358.990	0.083	-0.167
-173.954	275.106	0.151	0.270
-172.939	-126.697	-0.079	-0.012
-171.925	-109.348	0.222	0.047
-170.910	800.000	-0.060	0.173
-169.896	436.784	0.086	-0.189
-168.881	12.762	0.120	-0.093
-167.866	-77.591	-0.021	0.008
-166.852	4.723	-0.139	0.103
-165.837	-127.700	0.435	-0.063
-164.823	800.000	-0.016	-0.053
-163.808	800.000	-0.134	0.383
-162.793	32.849	-0.069	-0.060
-161.779	-102.496	0.232	0.056
-160.764	324.271	0.172	-0.332
-159.750	-119.728	0.210	-0.036
-158.735	800.000	-0.063	-0.214
-157.720	-57.672	-0.105	-0.046
-156.706	-54.047	0.388	0.178
-155.691	-143.894	-0.175	-0.017
-154.677	31.065	0.066	-0.057
-153.662	-95.025	0.215	0.058
-152.647	28.735	0.120	-0.103
-151.633	-8.659	-0.126	0.085
-150.618	-200.000	-0.027	-0.143
-149.604	-200.000	0.003	0.133
-148.589	-1.990	0.029	0.021
-147.574	49.749	0.122	0.116
-146.560	564.105	0.064	-0.156
-145.545	-67.332	0.354	0.140
-144.531	93.097	-0.136	-0.155
-143.516	800.000	-0.087	-0.282
-142.502	-149.831	0.110	-0.009
-141.487	800.000	0.030	-0.109
-140.472	-4.801	0.267	0.185
-139.458	800.000	0.070	0.244
-138.443	0.231	0.138	0.099
-137.429	-200.000	-0.014	0.143
-136.414	-26.467	0.088	0.052
-135.399	-60.496	-0.080	0.034
-134.385	-59.434	0.381	-0.165
-133.370	800.000	0.101	-0.309
-132.356	253.731	0.105	0.180
-131.341	-65.185	-0.154	0.062
-130.326	429.028	-0.171	0.372
-129.312	-197.974	0.255	-0.002
-128.297	194.378	0.063	0.096
-127.283	-111.768	-0.231	-0.047
-126.268	-39.110	0.071	0.038
-125.253	392.746	-0.096	-0.202
-124.239	-200.000	0.054	0.379
-123.224	-71.105	-0.101	0.038
-122.210	319.461	0.080	0.153
-121.195	508.684	-0.115	0.269
-120.180	596.978	0.077	0.193
-119.166	-76.223	-0.074	0.026
-118.151	64.723	-0.138	0.140
-117.137	-200.000	-0.057	0.285
-116.122	54.980	0.132	0.128
-115.107	-15.196	0.231	0.149
-114.093	20.937	-0.350	0.286
-113.078	200.195	-0.042	-0.065
-112.064	-80.151	-0.134	-0.045
-111.049	299.273	0.088	-0.163
-110.034	-200.000	0.006	-0.087
-109.020	800.000	-0.042	-0.169
-108.005	-149.164	0.409	0.033
-106.991	22.863	-0.060	-0.049
-105.976	78.028	0.146	-0.157
-104.962	32.089	-0.057	0.050
-103.947	605.707	0.109	0.274
-102.932	283.298	-0.018	0.032
-101.918	-200.000	0.031	0.176
-100.903	-85.099	0.243	-0.076
-99.889	-11.466	0.061	-0.041
-98.874	800.000	-0.037	0.137
-97.859	599.989	-0.137	0.343
-96.845	49.365	-0.142	0.134
-95.830	10.781	0.240	0.184
-94.816	165.651	-0.123	0.175
-93.801	14.114	-0.054	0.042
-92.786	-200.000	0.030	-0.206
-91.772	-200.000	0.060	-0.449
-90.757	-200.000	-0.031	-0.262
-89.743	-200.000	-0.073	-0.428
-88.728	-34.898	-0.243	0.134
-87.713	-53.147	0.133	-0.061
-86.699	-26.404	0.293	0.172
-85.684	-200.000	0.042	0.235
-84.670	136.990	0.094	0.124
-83.655	131.910	-0.285	0.368
-82.640	-75.955	-0.065	-0.023
-81.626	86.658	0.259	0.287
-80.611	-19.557	0.164	-0.102
-79.597	800.000	-0.064	-0.190
-78.582	-73.776	-0.223	-0.081
-77.567	-78.047	-0.361	-0.125
-76.553	37.068	0.012	0.011
-75.538	-200.000	0.045	-0.387
-74.524	428.938	0.048	-0.105
-73.509	800.000	0.077	-0.246
-72.494	-44.577	-0.091	0.046
-71.480	800.000	-0.011	-0.040
-70.465	800.000	0.028	0.102
-69.451	-61.754	0.052	0.022
-68.436	-200.000	0.001	-0.133
-67.422	-127.843	0.177	0.026
-66.407	-30.545	0.048	0.027
-65.392	800.000	-0.050	0.149
-64.378	-200.000	-0.023	-0.119
-63.363	-200.000	0.011	0.077
-62.349	-200.000	0.005	0.205
-61.334	-66.082	-0.750	-0.300
-60.319	195.983	0.195	0.298
-59.305	800.000	0.182	-0.696
-58.290	597.216	0.230	0.572
-57.276	727.850	0.579	1.552
-56.261	-200.000	72.349	530.873
-55.246	585.595	1279.538	3156.252
-54.232	144.271	2504.960	3354.115
-53.217	111.404	2366.424	2862.380
-52.203	51.142	2103.960	2002.245
-51.188	46.052	2010.272	1866.893
-50.173	44.051	1991.901	1831.708
-49.159	55.468	2026.805	1967.835
-48.144	61.465	2047.166	2042.041
-47.130	46.772	2012.818	1875.519
-46.115	43.877	2001.571	1838.729
-45.100	43.727	1999.647	1835.534
-44.086	43.762	1996.927	1833.276
-43.071	43.742	1994.707	1830.991
-42.057	43.648	1992.757	1828.274
-41.042	43.643	1990.768	1826.328
-40.027	43.775	1988.127	1825.028
-39.013	43.774	1986.657	1823.599
-37.998	43.721	1985.166	1821.674
-36.984	43.703	1983.280	1819.715
-35.969	43.730	1981.440	1818.193
-34.954	43.786	1979.764	1817.085
-33.940	43.775	1978.049	1815.341
-32.925	43.718	1976.537	1813.371
-31.911	43.827	1974.650	1812.548
-30.896	43.862	1972.177	1810.520
-29.881	43.838	1971.188	1809.322
-28.867	43.851	1969.682	1807.986
-27.852	43.880	1967.616	1806.276
-26.838	43.803	1965.668	1803.730
-25.823	43.902	1963.626	1802.662
-24.809	43.899	1962.173	1801.229
-23.794	43.848	1960.699	1799.358
-22.779	43.889	1958.544	1797.667
-21.765	43.893	1956.906	1796.133
-20.750	43.916	1954.943	1794.459
-19.736	43.864	1954.070	1793.130
-18.721	43.825	1952.854	1791.599
-17.706	43.809	1951.387	1790.042
-16.692	43.730	1949.410	1787.456
-15.677	43.766	1947.780	1786.210
-14.663	43.839	1946.199	1785.335
-13.648	43.792	1944.693	1783.467
-12.633	43.810	1943.555	1782.507
-11.619	43.787	1942.414	1781.185
-10.604	43.875	1940.650	1780.274
-9.590	43.764	1939.084	1777.794
-8.575	43.781	1938.415	1777.259
-7.560	43.866	1936.498	1776.171
-6.546	43.869	1935.004	1774.760
-5.531	43.885	1933.992	1773.905
-4.517	43.793	1932.734	1771.870
-3.502	43.883	1931.632	1771.580
-2.487	43.799	1930.388	1769.637
-1.473	43.891	1929.365	1769.428
-0.458	43.909	1924.928	1765.445
0.556	42.890	1904.995	1736.698
1.571	38.009	1883.460	1675.144
2.586	33.217	1902.420	1650.179
3.600	31.519	1938.791	1666.467
4.615	30.342	1936.663	1654.009
5.629	22.798	1831.221	1499.982
6.644	9.262	1699.359	1284.366
7.659	1.918	1653.283	1192.174
8.673	1.312	1648.583	1183.952
9.688	1.218	1646.965	1181.958
10.702	1.163	1645.938	1180.688
11.717	1.007	1643.048	1177.292
12.731	1.343	1642.283	1179.254
13.746	8.961	1661.574	1252.681
14.761	20.002	1685.939	1357.986
15.775	24.710	1693.349	1400.815
16.790	25.146	1693.422	1404.163
17.804	25.117	1693.255	1403.674
18.819	25.181	1692.195	1403.176
19.834	25.373	1691.193	1403.720
20.848	25.496	1690.769	1404.203
21.863	25.467	1690.310	1403.471
22.877	25.526	1688.908	1402.646
23.892	25.547	1687.646	1401.637
24.907	25.464	1687.239	1400.526
25.921	25.471	1686.019	1399.445
26.936	25.458	1684.768	1398.182
27.950	25.426	1684.559	1397.636
28.965	25.527	1683.404	1397.337
29.980	25.553	1682.651	1396.796
30.994	25.544	1681.137	1395.346
32.009	25.596	1679.773	1394.491
33.023	25.544	1678.934	1393.269
34.038	25.506	1678.295	1392.322
35.053	25.445	1677.417	1390.993
36.067	25.501	1676.062	1390.185
37.082	25.447	1675.478	1389.153
38.096	25.443	1674.388	1388.097
39.111	25.494	1673.408	1387.555
40.126	25.611	1672.430	1387.525
41.140	25.534	1671.657	1386.169
42.155	25.426	1671.037	1384.703
43.169	25.508	1669.409	1383.857
44.184	25.515	1668.697	1383.198
45.199	25.473	1667.754	1381.973
46.213	25.494	1666.562	1381.029
47.228	25.444	1665.379	1379.540
48.242	25.429	1664.113	1378.254
49.257	25.497	1662.692	1377.474
50.271	25.511	1661.720	1376.657
51.286	25.458	1661.037	1375.562
52.301	25.484	1659.467	1374.338
53.315	25.462	1658.029	1372.855
54.330	25.495	1656.623	1371.821
55.344	25.496	1655.386	1370.690
56.359	25.515	1653.856	1369.444
57.374	25.489	1653.005	1368.422
58.388	25.466	1651.927	1367.228
59.403	25.429	1651.089	1366.135
60.417	25.573	1648.965	1365.349
61.432	25.471	1648.901	1364.402
62.447	25.521	1647.894	1363.825
63.461	25.538	1646.286	1362.502
64.476	25.552	1645.438	1361.786
65.490	25.493	1644.577	1360.505
66.505	25.579	1643.197	1359.898
67.520	25.561	1642.264	1358.872
68.534	25.611	1641.519	1358.511
69.549	25.565	1640.861	1357.498
70.563	25.525	1640.179	1356.513
71.578	25.527	1638.474	1354.995
72.593	25.602	1637.229	1354.414
73.607	25.570	1636.802	1353.699
74.622	25.552	1635.967	1352.751
75.636	25.536	1635.210	1351.888
76.651	25.551	1634.439	1351.246
77.666	25.554	1633.032	1349.985
78.680	25.538	1632.245	1349.093
79.695	25.496	1631.787	1348.276
80.709	25.572	1630.687	1347.819
81.724	25.515	1629.999	1346.704
82.739	25.649	1628.579	1346.417
83.753	25.540	1627.771	1344.813
84.768	25.618	1627.045	1344.677
85.782	25.501	1626.355	1343.113
86.797	25.479	1625.352	1342.002
87.812	25.543	1624.670	1341.797
88.826	25.551	1623.582	1340.841
89.841	25.604	1622.246	1340.012
90.855	25.530	1622.118	1339.237
91.870	25.582	1620.288	1337.996
92.884	25.603	1619.740	1337.581
93.899	25.612	1618.498	1336.500
94.914	25.576	1617.789	1335.534
95.928	25.582	1616.103	1334.067
96.943	25.520	1615.215	1332.753
97.957	25.449	1614.100	1331.189
98.972	25.572	1612.610	1330.754
99.987	25.606	1611.490	1329.962
101.001	25.578	1609.838	1328.280
102.016	25.585	1608.203	1326.862
103.030	25.536	1607.369	1325.693
104.045	25.585	1606.052	1324.852
105.060	25.570	1604.963	1323.729
106.074	25.483	1603.684	1321.916
107.089	25.568	1602.431	1321.388
108.103	25.571	1601.554	1320.572
109.118	25.621	1600.256	1319.752
110.133	25.570	1599.530	1318.666
111.147	25.610	1598.019	1317.591
112.162	25.647	1597.113	1317.002
113.176	25.711	1595.538	1316.054
114.191	25.650	1594.472	1314.613
115.206	25.652	1593.615	1313.804
116.220	25.661	1592.303	1312.670
117.235	25.672	1591.227	1311.744
118.249	25.586	1590.428	1310.344
119.264	25.656	1588.615	1309.248
120.279	25.552	1588.002	1307.870
121.293	25.621	1586.871	1307.327
122.308	25.697	1585.494	1306.628
123.322	25.654	1584.230	1305.157
124.337	25.647	1583.161	1304.106
125.352	25.657	1582.283	1303.343
126.366	25.623	1581.441	1302.286
127.381	25.795	1579.972	1302.205
128.395	25.797	1579.354	1301.595
129.410	25.795	1577.964	1300.321
130.424	25.764	1576.951	1299.145
131.439	25.769	1576.325	1298.553
132.454	25.707	1575.222	1297.081
133.468	25.701	1573.688	1295.665
134.483	25.736	1572.131	1294.520
135.497	25.658	1570.975	1292.888
136.512	25.725	1569.653	1292.166
137.527	25.668	1569.134	1291.219
138.541	25.752	1567.663	1290.496
139.556	25.808	1566.366	1289.716
140.570	25.755	1565.439	1288.459
141.585	25.756	1564.129	1287.270
142.600	25.733	1563.029	1286.093
143.614	25.823	1562.014	1285.785
144.629	25.846	1560.613	1284.678
145.643	25.759	1560.052	1283.487
146.658	25.703	1558.501	1281.694
147.673	25.640	1556.481	1279.476
148.687	25.743	1555.667	1279.425
149.702	25.765	1554.570	1278.567
150.716	25.731	1553.590	1277.402
151.731	25.688	1552.627	1276.197
152.746	25.635	1551.523	1274.800
153.760	25.658	1550.186	1273.749
154.775	25.745	1548.957	1273.241
155.789	25.701	1548.053	1272.073
156.804	25.778	1546.666	1271.366
157.819	25.784	1545.808	1270.594
158.833	25.657	1545.594	1269.409
159.848	25.703	1544.084	1268.379
160.862	25.710	1543.580	1267.904
161.877	25.818	1541.802	1267.091
162.892	25.795	1541.511	1266.574
163.906	25.763	1540.603	1265.494
164.921	25.811	1539.056	1264.444
165.935	25.874	1538.120	1264.006
166.950	25.839	1537.446	1263.097
167.964	25.846	1536.604	1262.346
168.979	25.772	1535.814	1261.062
169.994	25.850	1534.314	1260.268
171.008	25.880	1533.143	1259.401
172.023	25.870	1532.518	1258.709
173.037	25.937	1531.325	1258.084
174.052	25.907	1530.592	1257.160
175.067	25.864	1529.522	1255.870
176.081	25.869	1528.647	1255.078
177.096	25.905	1527.393	1254.184
178.110	25.799	1526.714	1252.780
179.125	25.800	1525.851	1251.969
180.140	25.857	1524.859	1251.443
181.154	25.939	1524.294	1251.432
182.169	25.873	1523.389	1250.124
183.183	25.853	1522.403	1249.062
184.198	25.851	1521.482	1248.183
185.213	25.844	1520.512	1247.230
186.227	25.847	1520.085	1246.790
187.242	25.902	1518.861	1246.059
188.256	25.935	1518.105	1245.556
189.271	25.831	1517.479	1244.210
190.286	25.963	1515.940	1243.751
191.300	25.930	1515.460	1243.017
192.315	25.953	1514.248	1242.076
193.329	25.913	1513.352	1240.955
194.344	25.993	1512.345	1240.567
195.359	25.958	1511.847	1239.812
196.373	25.941	1511.248	1239.090
197.388	26.035	1509.789	1238.433
198.402	25.907	1509.280	1237.025
199.417	25.881	1508.091	1235.761
200.432	25.870	1507.897	1235.418
201.446	25.888	1506.909	1234.622
202.461	25.930	1505.937	1234.007
203.475	25.936	1504.874	1233.069
204.490	25.946	1504.088	1232.384
205.504	25.948	1503.559	1231.853
206.519	26.017	1502.755	1231.555
207.534	25.929	1501.485	1229.808
208.548	26.006	1500.722	1229.594
209.563	25.984	1500.197	1228.906
210.577	25.971	1499.291	1227.968
211.592	25.994	1498.195	1227.120
212.607	25.983	1497.712	1226.540
213.621	26.035	1496.825	1226.056
214.636	26.081	1496.382	1225.903
215.650	26.040	1495.429	1224.733
216.665	26.109	1494.287	1224.156
217.680	26.184	1493.176	1223.648
218.694	26.052	1492.849	1222.375
219.709	26.012	1492.294	1221.545
220.723	26.029	1491.470	1220.872
221.738	26.131	1490.020	1220.268
222.753	26.080	1489.333	1219.251
223.767	25.950	1489.134	1218.105
224.782	25.957	1487.724	1216.893
225.796	26.086	1487.115	1217.156
226.811	26.087	1486.500	1216.553
227.826	26.145	1485.464	1215.989
228.840	26.172	1484.842	1215.552
229.855	26.180	1484.253	1215.019
230.869	26.193	1482.934	1213.915
231.884	26.103	1482.040	1212.471
232.899	26.123	1481.278	1211.875
233.913	26.146	1480.161	1211.009
234.928	26.197	1478.981	1210.281
235.942	26.171	1478.513	1209.615
236.957	26.242	1477.317	1209.001
237.972	26.223	1476.282	1207.922
238.986	26.160	1475.532	1206.779
240.001	26.159	1474.477	1205.801
241.015	26.261	1473.529	1205.600
242.030	26.442	1471.670	1205.180
243.045	26.413	1471.286	1204.568
244.059	26.291	1470.733	1203.197
245.074	26.310	1469.756	1202.419
246.088	26.314	1469.065	1201.772
247.103	26.343	1468.467	1201.371
248.117	26.307	1468.211	1200.814
249.132	26.450	1466.698	1200.420
250.147	26.335	1466.245	1199.182
251.161	26.394	1465.544	1198.894
252.176	26.444	1464.866	1198.562
253.190	26.429	1464.142	1197.766
254.205	26.408	1463.357	1196.876
255.220	26.435	1462.128	1195.946
256.234	26.426	1461.490	1195.254
257.249	26.421	1461.101	1194.798
258.263	26.474	1460.154	1194.269
259.278	26.410	1459.343	1193.078
260.293	26.314	1458.764	1191.866
261.307	26.420	1457.868	1191.728
262.322	26.556	1457.056	1191.854
263.336	26.518	1456.196	1190.796
264.351	26.518	1455.237	1189.904
265.366	26.483	1454.283	1188.793
266.380	26.509	1453.488	1188.206
267.395	26.434	1452.842	1187.081
268.409	26.434	1452.233	1186.480
269.424	26.412	1451.193	1185.377
270.439	26.413	1450.152	1184.430
271.453	26.482	1449.157	1183.963
272.468	26.555	1448.967	1184.178
273.482	26.476	1447.998	1182.770
274.497	26.505	1447.068	1182.091
275.512	26.535	1446.200	1181.478
276.526	26.614	1445.441	1181.268
277.541	26.650	1444.654	1180.756
278.555	26.645	1443.595	1179.751
279.570	26.607	1442.860	1178.796
280.585	26.539	1442.455	1177.921
281.599	26.475	1441.859	1176.911
282.614	26.647	1440.328	1176.675
283.628	26.580	1439.501	1175.461
284.643	26.566	1438.468	1174.425
285.657	26.719	1437.572	1174.583
286.672	26.700	1436.596	1173.556
287.687	26.658	1436.264	1172.906
288.701	26.642	1434.985	1171.655
289.716	26.606	1434.920	1171.265
290.730	26.631	1434.188	1170.728
291.745	26.723	1432.728	1170.024
292.760	26.696	1432.026	1169.172
293.774	26.744	1431.671	1169.089
294.789	26.669	1430.319	1167.400
295.803	26.857	1429.501	1167.842
296.818	26.796	1429.163	1167.070
297.833	26.747	1427.697	1165.453
298.847	26.685	1427.332	1164.652
299.862	26.745	1426.590	1164.334
300.876	26.861	1425.503	1164.084
301.891	26.739	1424.699	1162.545
302.906	26.749	1423.922	1161.869
303.920	26.816	1423.473	1161.830
304.935	26.877	1422.932	1161.679
305.949	26.896	1421.980	1160.919
306.964	26.819	1421.086	1159.594
307.979	26.877	1420.111	1159.066
308.993	26.901	1419.618	1158.714
310.008	26.772	1419.176	1157.429
311.022	26.894	1417.768	1156.953
312.037	26.965	1416.624	1156.368
313.052	26.929	1415.911	1155.459
314.066	26.933	1415.317	1154.895
315.081	26.908	1414.133	1153.670
316.095	26.957	1413.190	1153.107
317.110	26.944	1412.360	1152.247
318.125	26.948	1411.683	1151.617
319.139	26.936	1410.948	1150.840
320.154	26.938	1409.836	1149.843
321.168	27.146	1408.390	1149.881
322.183	27.010	1407.697	1148.352
323.197	27.037	1406.943	1147.805
324.212	27.032	1406.194	1147.061
325.227	27.048	1405.392	1146.409
326.241	27.049	1404.732	1145.775
327.256	27.094	1404.094	1145.436
328.270	27.179	1403.051	1145.020
329.285	27.096	1402.777	1144.170
330.300	27.191	1401.434	1143.569
331.314	27.034	1401.105	1142.215
332.329	27.051	1399.869	1141.214
333.343	27.093	1398.895	1140.582
334.358	27.127	1398.649	1140.495
335.373	27.125	1398.018	1139.866
336.387	27.178	1397.324	1139.528
337.402	27.230	1396.282	1138.908
338.416	27.202	1396.302	1138.646
339.431	27.213	1395.793	1138.199
340.446	27.190	1395.301	1137.551
341.460	27.224	1394.241	1136.798
342.475	27.219	1393.162	1135.792
343.489	27.223	1392.513	1135.185
344.504	27.314	1391.146	1134.539
345.519	27.346	1389.920	1133.636
346.533	27.310	1389.073	1132.623
347.548	27.295	1388.816	1132.217
348.562	27.333	1387.664	1131.415
349.577	27.243	1387.322	1130.477
350.592	27.282	1386.205	1129.708
351.606	27.247	1385.353	1128.700
352.621	27.225	1384.347	1127.640
353.635	27.348	1383.522	1127.634
354.650	27.314	1383.156	1127.021
355.665	27.383	1381.795	1126.241
356.679	27.297	1381.287	1125.192
357.694	27.460	1379.890	1124.966
358.708	27.457	1378.798	1123.958
359.723	27.456	1378.020	1123.217
360.738	27.373	1376.927	1121.716
361.752	27.383	1375.683	1120.661
362.767	27.398	1374.616	1119.786
363.781	27.454	1373.781	1119.352
364.796	27.533	1373.141	1119.215
365.810	27.501	1372.088	1118.061
366.825	27.447	1371.942	1117.515
367.840	27.459	1370.797	1116.554
368.854	27.476	1370.528	1116.341
369.869	27.476	1370.501	1116.221
370.883	27.585	1369.052	1115.611
371.898	27.571	1368.460	1114.943
372.913	27.548	1368.007	1114.336
373.927	27.488	1367.273	1113.270
374.942	27.536	1366.408	1112.761
375.956	27.603	1365.813	1112.588
376.971	27.669	1364.829	1112.092
377.986	27.586	1364.319	1111.072
379.000	27.558	1363.450	1110.096
380.015	27.602	1362.757	1109.699
381.029	27.738	1361.727	1109.588
382.044	27.648	1361.018	1108.364
383.059	27.688	1360.370	1107.981
384.073	27.641	1360.362	1107.592
385.088	27.680	1359.613	1107.120
386.102	27.776	1358.810	1106.954
387.117	27.719	1358.351	1106.139
388.132	27.791	1357.722	1105.961
389.146	27.783	1356.972	1105.202
390.161	27.655	1356.159	1103.673
391.175	27.796	1355.456	1103.851
392.190	27.662	1354.983	1102.558
393.205	27.786	1354.068	1102.467
394.219	27.774	1353.070	1101.488
395.234	27.754	1352.422	1100.740
396.248	27.719	1351.108	1099.359
397.263	27.717	1349.983	1098.334
398.278	27.783	1349.059	1097.882
399.292	27.896	1348.073	1097.662
400.307	27.887	1347.132	1096.744
401.321	27.907	1346.186	1096.000
402.336	27.917	1344.928	1094.937
403.350	27.936	1344.240	1094.395
404.365	27.848	1343.652	1093.293
405.380	27.935	1342.857	1093.069
406.394	27.933	1342.246	1092.460
407.409	27.924	1341.422	1091.640
408.423	28.002	1340.386	1091.169
409.438	28.079	1339.611	1090.898
410.453	28.053	1338.974	1090.130
411.467	28.070	1338.288	1089.578
412.482	28.010	1337.648	1088.603
413.496	28.035	1337.226	1088.309
414.511	28.032	1336.364	1087.497
415.526	28.078	1335.328	1086.830
416.540	28.177	1334.507	1086.651
417.555	28.070	1334.112	1085.598
418.569	28.153	1333.319	1085.353
419.584	28.019	1333.335	1084.475
420.599	28.073	1332.806	1084.269
421.613	70.535	1309.857	1306.008
422.628	71.193	1306.495	1306.142
