DTS Sentinel unit serial number:	SN413079Multiplexer serial number:	ORYXHardware model number:	OX4-SRSoftware version number:	ORYX F/W v4.00 Oryx Data Collector v3.7.2.0data status	okinstallation	princeton_trtdifferential loss correction	single-endedforward channel	channel 4reverse channel	N/Adate	2019/09/16time	20:45:35forward acquisition time	60.00reverse acquisition time	0.00gamma	496.2192k internal	0.2313k external	0.2313temperature offset calibration	0.9963default loss term (dB/km)	0.3790temperature slope calibration	1.0000multiplexer offset coefficient	1.0000multiplexer slope coefficient	1.0000fibre end	0.00T internal ref (°C)	32.37T ext. ref 1 (°C)	0.06T ext. ref 2 (°C)	26.01length (m)	temperature (°C)	Stokes	anti-Stokes-747.200	-200.000	-0.018	0.138
-746.185	-98.988	-0.140	0.036
-745.171	-115.050	0.266	-0.051
-744.156	-17.253	0.347	-0.222
-743.142	-200.000	-0.002	0.094
-742.127	-44.155	-0.266	-0.135
-741.112	-200.000	0.066	-0.336
-740.098	-133.369	-0.225	0.029
-739.083	-129.117	0.299	0.042
-738.069	-136.003	0.267	0.032
-737.054	365.586	0.070	0.143
-736.039	-55.772	-0.371	-0.168
-735.025	760.219	-0.085	0.234
-734.010	76.662	-0.185	0.199
-732.996	-19.188	-0.162	-0.102
-731.981	-186.973	0.028	-0.000
-730.966	-103.835	-0.193	-0.046
-729.952	538.262	0.145	0.351
-728.937	-200.000	0.026	0.205
-727.923	-200.000	-0.049	0.256
-726.908	-160.913	-0.114	-0.006
-725.894	20.842	-0.107	0.088
-724.879	-200.000	0.004	-0.038
-723.864	-200.000	-0.047	-0.344
-722.850	-70.232	-0.106	0.041
-721.835	-115.208	-0.102	-0.020
-720.821	-168.054	-0.297	-0.012
-719.806	1.928	-0.376	0.275
-718.791	271.411	-0.109	-0.195
-717.777	-114.908	0.347	-0.067
-716.762	-86.766	0.146	0.045
-715.748	-48.410	0.309	-0.151
-714.733	-84.968	-0.060	0.019
-713.718	263.790	-0.078	-0.137
-712.704	-130.807	-0.349	0.047
-711.689	215.555	0.034	0.055
-710.675	800.000	-0.058	0.226
-709.660	-125.259	-0.239	0.037
-708.645	-25.286	0.237	0.142
-707.631	-100.733	0.365	0.091
-706.616	-200.000	-0.045	-0.319
-705.602	672.498	-0.066	0.173
-704.587	-141.646	0.138	-0.014
-703.572	653.363	-0.049	0.127
-702.558	-140.058	-0.111	0.012
-701.543	-52.650	-0.208	0.097
-700.529	-200.000	-0.037	0.215
-699.514	-34.819	0.165	0.092
-698.499	492.813	-0.148	-0.344
-697.485	-200.000	0.009	0.076
-696.470	-160.706	0.094	-0.005
-695.456	-200.000	-0.184	0.001
-694.441	88.544	0.136	0.153
-693.426	241.623	0.212	0.359
-692.412	104.665	-0.123	0.147
-691.397	-143.317	-0.263	0.026
-690.383	113.774	-0.133	0.163
-689.368	-145.052	-0.373	-0.034
-688.354	800.000	-0.082	0.295
-687.339	8.861	0.218	0.166
-686.324	238.747	0.102	-0.171
-685.310	-200.000	-0.019	0.092
-684.295	1.844	-0.243	-0.178
-683.281	-200.000	0.042	-0.186
-682.266	-26.888	-0.230	0.136
-681.251	-200.000	0.014	-0.098
-680.237	-61.352	0.210	0.090
-679.222	87.420	-0.214	0.239
-678.208	-135.011	-0.321	-0.039
-677.193	45.809	-0.104	-0.098
-676.178	-103.674	-0.295	0.070
-675.164	-66.733	-0.285	-0.114
-674.149	-131.739	0.342	-0.045
-673.135	-26.169	0.198	0.117
-672.120	-200.000	-0.000	0.280
-671.105	-94.372	-0.106	-0.029
-670.091	-200.000	-0.068	0.000
-669.076	-200.000	-0.022	-0.245
-668.062	-149.477	-0.220	0.018
-667.047	116.830	-0.148	-0.184
-666.032	-37.778	0.168	0.091
-665.018	-26.994	0.222	0.131
-664.003	-200.000	-0.029	-0.273
-662.989	-128.380	-0.289	-0.042
-661.974	-10.199	-0.154	0.103
-660.959	-138.723	-0.457	0.050
-659.945	83.411	0.074	-0.082
-658.930	278.390	-0.084	0.151
-657.916	-115.563	0.177	0.034
-656.901	-132.913	0.080	0.010
-655.886	395.044	0.094	-0.199
-654.872	-134.366	-0.077	-0.010
-653.857	-174.803	-0.671	0.019
-652.843	55.879	-0.176	0.173
-651.828	-98.154	-0.090	0.023
-650.814	341.620	-0.111	-0.220
-649.799	263.849	-0.164	-0.288
-648.784	-62.164	0.167	0.070
-647.770	800.000	-0.066	0.233
-646.755	-51.860	0.158	0.074
-645.741	-103.655	-0.279	0.066
-644.726	-28.109	0.274	0.160
-643.711	-189.965	0.287	0.003
-642.697	-122.210	-0.197	0.033
-641.682	76.613	0.168	0.180
-640.668	15.352	0.090	-0.072
-639.653	27.829	0.248	-0.211
-638.638	800.000	-0.015	0.054
-637.624	800.000	-0.104	-0.290
-636.609	126.019	0.051	-0.065
-635.595	800.000	-0.069	0.240
-634.580	194.116	0.051	-0.079
-633.565	-199.677	-0.087	-0.000
-632.551	-38.436	0.215	0.115
-631.536	205.887	0.072	0.113
-630.522	-22.273	-0.214	0.131
-629.507	800.000	-0.114	0.353
-628.492	40.067	0.131	0.119
-627.478	100.096	-0.083	-0.097
-626.463	-50.422	-0.284	0.135
-625.449	43.885	-0.244	-0.226
-624.434	-45.016	-0.434	0.218
-623.419	-91.379	-0.143	0.041
-622.405	800.000	0.075	-0.252
-621.390	229.598	0.085	0.141
-620.376	47.066	0.155	0.146
-619.361	-200.000	-0.079	0.478
-618.346	-200.000	-0.039	0.205
-617.332	-143.164	-0.317	-0.031
-616.317	-144.809	0.102	-0.009
-615.303	-65.365	-0.249	0.101
-614.288	234.435	-0.129	-0.215
-613.273	84.811	-0.048	0.053
-612.259	-186.206	0.309	-0.005
-611.244	-62.708	-0.389	-0.163
-610.230	-200.000	0.078	-0.540
-609.215	-11.412	0.138	-0.091
-608.201	-62.376	0.339	0.142
-607.186	-200.000	-0.016	0.182
-606.171	-200.000	0.076	0.360
-605.157	-59.120	-0.347	-0.151
-604.142	-9.570	0.281	-0.189
-603.128	-200.000	-0.027	0.241
-602.113	0.237	-0.233	-0.168
-601.098	144.109	-0.188	-0.254
-600.084	161.041	-0.083	0.117
-599.069	742.319	-0.140	-0.379
-598.055	800.000	-0.051	-0.148
-597.040	-200.000	0.030	0.260
-596.025	-99.035	0.207	0.053
-595.011	98.985	-0.064	-0.075
-593.996	67.109	0.050	0.051
-592.982	158.578	-0.100	-0.140
-591.967	-23.050	-0.169	0.103
-590.952	800.000	0.128	0.484
-589.938	-200.000	0.025	0.206
-588.923	800.000	-0.076	0.237
-587.909	-111.897	-0.150	-0.030
-586.894	-76.600	0.159	-0.056
-585.879	-31.391	0.260	0.147
-584.865	382.248	0.226	0.469
-583.850	24.094	-0.347	-0.289
-582.836	481.997	0.115	0.262
-581.821	25.134	0.079	0.066
-580.806	800.000	-0.138	-0.549
-579.792	-200.000	-0.028	-0.154
-578.777	800.000	-0.053	-0.165
-577.763	17.564	-0.108	0.086
-576.748	-106.002	0.093	-0.021
-575.733	-200.000	0.035	-0.529
-574.719	800.000	0.053	0.166
-573.704	41.674	0.217	0.198
-572.690	-21.121	0.247	-0.152
-571.675	-200.000	-0.015	-0.166
-570.661	127.324	0.075	-0.096
-569.646	-130.632	0.131	-0.018
-568.631	32.706	-0.085	-0.074
-567.617	448.874	0.180	-0.400
-566.602	-57.259	0.192	0.085
-565.588	-200.000	0.043	-0.269
-564.573	-124.157	0.211	-0.033
-563.558	800.000	-0.015	0.061
-562.544	-81.161	-0.390	-0.130
-561.529	248.118	0.021	-0.035
-560.515	-147.546	-0.475	-0.040
-559.500	-176.569	0.334	0.009
-558.485	-123.945	-0.031	0.005
-557.471	-200.000	0.034	-0.388
-556.456	465.205	-0.062	-0.139
-555.442	241.712	-0.163	0.273
-554.427	-74.689	0.213	-0.077
-553.412	-94.742	0.115	0.031
-552.398	-47.131	0.340	-0.167
-551.383	-5.629	-0.163	-0.113
-550.369	-178.806	0.116	0.003
-549.354	-53.909	-0.194	0.089
-548.339	800.000	0.016	0.057
-547.325	95.351	0.174	-0.199
-546.310	-148.984	-0.231	-0.019
-545.296	24.334	-0.349	-0.290
-544.281	800.000	0.086	-0.296
-543.266	352.248	0.097	-0.193
-542.252	-91.614	0.123	0.035
-541.237	110.320	-0.084	0.102
-540.223	-200.000	-0.001	0.210
-539.208	-67.721	-0.274	0.108
-538.193	256.643	0.066	0.114
-537.179	-62.954	-0.125	0.052
-536.164	670.954	-0.013	0.033
-535.150	351.051	-0.089	0.177
-534.135	58.513	0.074	0.073
-533.121	-20.808	-0.158	-0.098
-532.106	-71.189	0.427	0.161
-531.091	-200.000	0.047	-0.287
-530.077	-200.000	-0.042	0.253
-529.062	-118.102	0.222	0.040
-528.048	800.000	0.082	0.323
-527.033	-27.636	-0.075	-0.044
-526.018	-137.444	0.192	-0.022
-525.004	-22.079	0.222	0.136
-523.989	-120.026	0.138	0.024
-522.975	-91.492	0.256	0.073
-521.960	-200.000	-0.005	0.080
-520.945	-200.000	0.030	-0.173
-519.931	-14.499	0.016	0.011
-518.916	323.618	-0.035	0.068
-517.902	21.836	-0.175	-0.144
-516.887	-200.000	-0.010	-0.144
-515.872	-100.206	0.043	-0.011
-514.858	-61.677	0.294	-0.124
-513.843	483.087	-0.047	0.107
-512.829	-166.204	-0.165	0.007
-511.814	167.433	-0.113	-0.161
-510.799	-25.156	0.147	0.088
-509.785	-59.307	0.161	-0.070
-508.770	-29.532	0.087	0.050
-507.756	26.682	-0.240	0.202
-506.741	378.806	-0.041	-0.084
-505.726	138.862	-0.042	-0.056
-504.712	800.000	-0.073	-0.231
-503.697	661.706	0.048	-0.124
-502.683	79.117	-0.152	0.164
-501.668	-200.000	0.053	0.322
-500.653	-200.000	-0.013	0.097
-499.639	-157.906	-0.185	-0.011
-498.624	-119.612	0.147	-0.026
-497.610	-19.539	-0.390	-0.243
-496.595	-43.133	-0.122	0.062
-495.581	-17.479	0.164	-0.104
-494.566	97.443	-0.070	-0.081
-493.551	-100.277	0.094	0.024
-492.537	-200.000	0.048	0.240
-491.522	-130.116	0.257	0.035
-490.508	-200.000	0.011	0.080
-489.493	564.294	0.099	0.241
-488.478	-200.000	0.039	0.249
-487.464	246.567	-0.104	0.177
-486.449	-16.940	-0.376	-0.239
-485.435	-200.000	-0.020	-0.502
-484.420	81.165	0.138	-0.150
-483.405	224.294	0.252	-0.409
-482.391	-200.000	0.029	-0.157
-481.376	474.067	0.064	-0.145
-480.362	-94.109	-0.342	0.094
-479.347	775.242	0.136	0.372
-478.332	-20.474	0.320	0.197
-477.318	663.605	0.070	0.181
-476.303	-67.614	0.220	0.087
-475.289	-105.019	0.390	0.090
-474.274	800.000	-0.015	-0.061
-473.259	-18.772	0.158	-0.099
-472.245	167.498	0.214	-0.305
-471.230	-46.978	0.070	0.035
-470.216	-200.000	-0.014	-0.078
-469.201	-200.000	-0.005	0.135
-468.186	-76.256	-0.056	-0.020
-467.172	-83.445	0.343	0.110
-466.157	-164.445	0.325	0.015
-465.143	5.632	0.095	0.070
-464.128	-200.000	-0.263	-0.000
-463.113	88.591	0.193	-0.215
-462.099	-200.000	-0.020	0.131
-461.084	289.851	-0.125	-0.227
-460.070	230.819	-0.126	0.206
-459.055	-38.107	-0.221	0.118
-458.040	-200.000	0.031	-0.410
-457.026	712.196	-0.006	0.016
-456.011	-200.000	0.017	0.391
-454.997	-60.470	0.136	0.058
-453.982	29.854	-0.112	-0.096
-452.968	373.987	-0.077	-0.158
-451.953	-100.380	-0.441	-0.110
-450.938	588.366	-0.079	0.196
-449.924	-200.000	-0.019	-0.384
-448.909	-10.568	-0.259	-0.172
-447.895	-200.000	0.012	-0.075
-446.880	245.218	0.044	-0.075
-445.865	-200.000	-0.013	-0.122
-444.851	-48.129	-0.304	-0.147
-443.836	-142.251	-0.144	0.014
-442.822	-19.635	-0.201	0.125
-441.807	72.917	0.180	0.189
-440.792	23.451	0.123	-0.102
-439.778	256.903	0.086	-0.148
-438.763	-134.984	0.439	-0.053
-437.749	-17.782	-0.245	0.154
-436.734	147.838	-0.223	0.302
-435.719	-200.000	0.002	0.193
-434.705	-28.235	-0.299	0.173
-433.690	-200.000	0.022	0.194
-432.676	193.116	0.202	-0.306
-431.661	-71.717	0.101	-0.038
-430.646	800.000	0.082	0.282
-429.632	-29.336	0.101	0.058
-428.617	-200.000	-0.052	-0.298
-427.603	40.195	-0.134	-0.120
-426.588	378.079	0.102	-0.208
-425.573	-103.405	0.017	0.004
-424.559	238.754	-0.022	-0.037
-423.544	132.543	-0.226	-0.292
-422.530	127.324	-0.243	0.309
-421.515	-200.000	-0.039	-0.452
-420.500	228.585	-0.093	-0.152
-419.486	29.507	0.151	0.128
-418.471	9.645	-0.310	0.235
-417.457	-75.541	-0.373	-0.133
-416.442	-200.000	-0.026	-0.406
-415.428	-200.000	0.007	-0.244
-414.413	119.107	-0.188	0.233
-413.398	-97.869	-0.139	-0.036
-412.384	-200.000	-0.001	0.154
-411.369	-200.000	0.046	0.229
-410.355	-149.083	-0.207	0.017
-409.340	-200.000	0.007	-0.137
-408.325	800.000	0.039	-0.146
-407.311	73.963	-0.102	-0.108
-406.296	-200.000	-0.019	0.123
-405.282	96.534	-0.295	0.338
-404.267	73.580	0.229	0.240
-403.252	-200.000	0.029	-0.243
-402.238	523.320	0.074	0.175
-401.223	-200.000	0.073	-0.339
-400.209	242.628	-0.195	-0.326
-399.194	-100.057	-0.163	-0.041
-398.179	196.274	0.145	-0.222
-397.165	-57.223	0.070	-0.031
-396.150	-156.498	0.072	-0.004
-395.136	-114.854	-0.337	-0.064
-394.121	800.000	0.021	0.076
-393.106	-200.000	0.049	-0.464
-392.092	414.253	-0.118	-0.252
-391.077	172.519	-0.090	0.129
-390.063	38.389	-0.164	-0.146
-389.048	220.592	0.141	-0.227
-388.033	80.007	-0.303	0.326
-387.019	120.784	-0.095	-0.119
-386.004	403.873	-0.113	-0.237
-384.990	-65.384	0.355	-0.143
-383.975	418.904	0.011	0.024
-382.960	-135.884	0.230	-0.027
-381.946	-57.246	0.112	-0.049
-380.931	-46.980	0.240	0.117
-379.917	-71.134	0.150	0.056
-378.902	146.120	0.205	-0.275
-377.888	-19.893	0.306	-0.189
-376.873	-148.094	0.046	-0.004
-375.858	-141.591	-0.196	-0.020
-374.844	-200.000	0.271	0.000
-373.829	541.214	-0.039	-0.094
-372.815	-200.000	-0.036	0.378
-371.800	-147.986	-0.316	0.026
-370.785	-30.718	-0.278	-0.157
-369.771	800.000	0.054	0.207
-368.756	-149.723	0.176	0.014
-367.742	800.000	0.068	0.211
-366.727	-200.000	0.015	-0.163
-365.712	-172.094	0.299	-0.010
-364.698	-89.942	0.033	0.010
-363.683	-61.674	-0.266	-0.112
-362.669	-120.908	-0.329	0.055
-361.654	-129.869	0.194	-0.027
-360.639	-108.329	-0.301	0.065
-359.625	329.573	0.090	0.174
-358.610	576.562	-0.022	-0.054
-357.596	292.272	0.096	0.175
-356.581	800.000	0.059	0.178
-355.566	293.045	0.186	0.338
-354.552	-200.000	-0.007	0.083
-353.537	83.958	-0.079	0.086
-352.523	-126.147	0.193	-0.029
-351.508	118.910	-0.119	-0.147
-350.493	-13.969	0.306	0.197
-349.479	800.000	-0.092	-0.294
-348.464	-200.000	-0.039	0.366
-347.450	204.072	0.111	0.171
-346.435	-200.000	0.032	0.393
-345.420	-170.783	-0.224	0.008
-344.406	-47.862	-0.342	-0.165
-343.391	-77.453	0.219	0.076
-342.377	200.412	0.319	-0.489
-341.362	-68.294	-0.060	0.023
-340.348	-81.414	0.242	0.080
-339.333	-200.000	0.023	0.254
-338.318	800.000	-0.034	0.121
-337.304	278.574	-0.134	-0.238
-336.289	224.369	0.080	0.129
-335.275	-124.754	0.364	0.056
-334.260	346.402	-0.128	0.251
-333.245	800.000	-0.033	0.137
-332.231	-93.671	-0.165	-0.045
-331.216	-54.773	0.473	-0.213
-330.202	-53.755	0.172	0.078
-329.187	-129.892	-0.369	-0.051
-328.172	273.556	-0.191	-0.337
-327.158	304.060	-0.101	0.187
-326.143	58.213	-0.090	-0.088
-325.129	-200.000	0.012	-0.093
-324.114	26.885	-0.212	0.177
-323.099	-200.000	-0.011	-0.320
-322.085	642.332	0.054	-0.137
-321.070	148.685	-0.043	-0.058
-320.056	800.000	-0.052	0.162
-319.041	-200.000	-0.030	-0.239
-318.026	126.739	-0.174	0.220
-317.012	-200.000	0.036	0.331
-315.997	800.000	0.085	0.334
-314.983	50.578	-0.110	-0.104
-313.968	-48.780	-0.258	0.123
-312.953	-119.459	0.240	0.042
-311.939	353.732	0.109	-0.217
-310.924	-116.960	0.060	-0.011
-309.910	-4.555	-0.179	0.123
-308.895	800.000	0.113	-0.325
-307.880	-172.447	0.245	0.008
-306.866	85.654	-0.129	-0.141
-305.851	-31.605	0.052	-0.029
-304.837	54.317	0.145	-0.140
-303.822	-139.314	-0.367	0.039
-302.807	-200.000	-0.002	-0.108
-301.793	-113.608	0.223	0.043
-300.778	-200.000	0.024	-0.270
-299.764	45.214	-0.371	-0.341
-298.749	-41.912	-0.316	-0.161
-297.735	-200.000	0.021	0.141
-296.720	-114.669	-0.054	0.010
-295.705	-200.000	-0.008	-0.120
-294.691	-93.704	0.144	-0.040
-293.676	-200.000	-0.060	0.341
-292.662	392.242	-0.158	0.328
-291.647	256.980	-0.065	0.112
-290.632	-200.000	0.027	0.579
-289.618	-177.781	-0.047	-0.001
-288.603	-200.000	-0.001	0.179
-287.589	-63.713	0.176	-0.072
-286.574	800.000	0.110	-0.328
-285.559	-200.000	0.017	-0.126
-284.545	86.030	-0.148	0.162
-283.530	800.000	0.102	-0.329
-282.516	-21.833	-0.191	-0.116
-281.501	205.989	0.139	-0.216
-280.486	478.557	-0.086	-0.194
-279.472	-200.000	0.013	-0.196
-278.457	200.892	0.088	0.135
-277.443	-93.587	-0.032	-0.009
-276.428	-200.000	-0.093	-0.534
-275.413	292.724	-0.039	0.071
-274.399	103.163	0.253	-0.296
-273.384	154.550	0.055	-0.076
-272.370	369.835	0.102	-0.206
-271.355	-78.203	-0.232	-0.079
-270.340	2.912	-0.110	-0.080
-269.326	-200.000	-0.006	0.065
-268.311	162.657	0.047	-0.065
-267.297	-57.957	0.382	0.166
-266.282	526.071	0.093	0.217
-265.267	-118.144	0.157	-0.028
-264.253	-200.000	0.051	0.503
-263.238	-55.751	0.062	0.028
-262.224	-93.452	-0.106	-0.029
-261.209	-73.363	-0.110	-0.040
-260.195	-138.605	-0.201	-0.022
-259.180	484.002	-0.072	0.163
-258.165	-105.011	0.115	-0.026
-257.151	257.866	-0.098	0.168
-256.136	195.919	-0.190	-0.287
-255.122	-86.765	0.069	-0.021
-254.107	-88.383	0.154	-0.046
-253.092	-96.958	0.104	0.027
-252.078	-140.537	-0.043	0.004
-251.063	-89.556	0.217	-0.063
-250.049	-48.875	-0.103	0.049
-249.034	4.718	0.093	-0.068
-248.019	-200.000	-0.012	0.080
-247.005	168.781	-0.093	0.132
-245.990	368.892	-0.076	0.154
-244.976	34.467	0.119	0.104
-243.961	211.263	0.137	0.215
-242.946	4.034	0.163	-0.119
-241.932	-170.729	-0.190	0.007
-240.917	-200.000	0.033	-0.278
-239.903	77.797	-0.105	0.111
-238.888	-44.824	-0.176	-0.087
-237.873	-125.757	-0.177	-0.027
-236.859	25.910	-0.328	-0.272
-235.844	-142.772	0.070	-0.007
-234.830	-145.179	-0.174	-0.016
-233.815	4.290	0.221	-0.161
-232.800	-62.346	0.246	0.102
-231.786	-113.919	-0.084	-0.016
-230.771	-12.921	0.111	0.072
-229.757	-200.000	-0.050	0.282
-228.742	-124.155	0.148	0.023
-227.727	322.249	-0.188	-0.355
-226.713	-200.000	0.008	-0.216
-225.698	-44.678	-0.323	0.160
-224.684	2.481	0.197	0.142
-223.669	-67.123	0.117	0.046
-222.655	168.514	0.051	-0.072
-221.640	-24.088	0.351	-0.209
-220.625	573.929	-0.112	0.272
-219.611	800.000	-0.033	-0.095
-218.596	602.909	0.052	-0.129
-217.582	1.328	0.304	-0.217
-216.567	-10.583	-0.356	0.234
-215.552	-41.130	-0.368	0.189
-214.538	242.971	0.036	-0.061
-213.523	800.000	0.015	-0.053
-212.509	800.000	-0.144	0.432
-211.494	-13.674	-0.175	0.113
-210.479	10.116	-0.108	0.082
-209.465	-64.113	-0.196	0.079
-208.450	-86.422	-0.281	0.086
-207.436	48.423	0.187	0.174
-206.421	106.014	-0.197	0.232
-205.406	-191.203	0.088	-0.001
-204.392	-81.137	0.227	0.074
-203.377	-11.108	-0.108	-0.071
-202.363	697.406	-0.140	0.365
-201.348	409.534	-0.072	-0.152
-200.333	800.000	-0.085	0.250
-199.319	-93.442	0.221	-0.061
-198.304	86.290	-0.181	0.198
-197.290	-172.592	-0.085	0.003
-196.275	17.368	-0.140	0.110
-195.260	-116.325	0.027	-0.005
-194.246	48.598	0.108	0.101
-193.231	-84.930	0.295	-0.092
-192.217	-200.000	-0.021	0.269
-191.202	180.954	-0.077	0.113
-190.187	-200.000	0.016	-0.165
-189.173	718.549	0.020	0.052
-188.158	-23.486	0.075	0.045
-187.144	17.677	0.175	-0.138
-186.129	-75.675	-0.032	0.011
-185.114	12.418	0.171	-0.131
-184.100	-84.116	0.215	0.068
-183.085	-76.053	0.199	-0.070
-182.071	-97.369	-0.342	-0.088
-181.056	800.000	0.080	0.303
-180.042	152.531	-0.206	-0.279
-179.027	-83.959	0.453	0.143
-178.012	-77.774	0.092	-0.031
-176.998	-24.291	-0.333	-0.197
-175.983	108.298	-0.068	0.081
-174.969	92.637	0.075	0.084
-173.954	513.119	-0.063	-0.146
-172.939	230.437	-0.285	-0.463
-171.925	-29.454	-0.112	0.064
-170.910	8.325	-0.109	-0.082
-169.896	393.342	0.262	-0.541
-168.881	146.135	-0.137	0.182
-167.866	-200.000	0.034	0.206
-166.852	-66.922	0.093	0.036
-165.837	800.000	0.123	0.452
-164.823	-200.000	-0.012	-0.184
-163.808	140.259	0.333	0.436
-162.793	699.465	0.135	0.352
-161.779	402.498	0.143	0.297
-160.764	606.055	0.099	-0.244
-159.750	-200.000	0.014	-0.174
-158.735	-162.400	0.337	0.017
-157.720	-111.072	-0.248	0.050
-156.706	183.250	0.102	0.149
-155.691	29.908	0.132	-0.112
-154.677	-66.650	-0.113	-0.044
-153.662	-27.893	0.293	0.168
-152.647	284.480	0.188	0.336
-151.633	800.000	-0.080	0.293
-150.618	-171.350	0.277	-0.009
-149.604	-180.781	-0.152	-0.003
-148.589	-200.000	-0.010	-0.149
-147.574	-67.791	-0.209	-0.081
-146.560	168.782	0.045	0.063
-145.545	-39.796	0.195	0.101
-144.531	-182.516	-0.172	-0.003
-143.516	125.815	-0.180	0.225
-142.502	433.670	0.094	-0.201
-141.487	-200.000	-0.116	0.552
-140.472	-99.547	-0.135	-0.034
-139.458	-87.346	-0.336	-0.101
-138.443	114.905	-0.061	0.073
-137.429	-11.666	0.109	-0.071
-136.414	-200.000	0.076	-0.362
-135.399	-200.000	0.003	-0.306
-134.385	-105.887	-0.097	-0.022
-133.370	134.403	-0.173	-0.223
-132.356	652.397	0.105	-0.267
-131.341	187.377	-0.065	0.097
-130.326	-68.067	-0.218	0.084
-129.312	-200.000	-0.005	0.029
-128.297	-120.539	0.339	-0.057
-127.283	-151.769	-0.131	0.010
-126.268	-48.904	-0.096	0.046
-125.253	-109.907	0.333	-0.069
-124.239	-129.434	0.182	0.025
-123.224	58.172	-0.197	0.191
-122.210	306.143	-0.067	0.124
-121.195	-200.000	0.028	-0.275
-120.180	485.722	-0.125	0.282
-119.166	-87.917	-0.032	0.009
-118.151	-200.000	0.017	-0.405
-117.137	13.201	0.176	-0.135
-116.122	19.799	0.090	-0.072
-115.107	-198.262	-0.242	0.001
-114.093	93.923	-0.164	0.184
-113.078	-164.428	-0.254	0.011
-112.064	-85.915	0.392	0.120
-111.049	800.000	0.086	0.358
-110.034	-93.735	-0.135	-0.037
-109.020	173.836	-0.012	-0.017
-108.005	656.085	0.110	0.279
-106.991	0.430	-0.270	-0.191
-105.976	-103.823	-0.157	0.036
-104.962	603.981	0.134	0.330
-103.947	-1.697	0.192	-0.134
-102.932	-132.258	-0.407	-0.052
-101.918	-133.343	0.299	0.037
-100.903	355.534	-0.091	0.180
-99.889	-125.329	-0.048	-0.007
-98.874	123.509	-0.113	-0.141
-97.859	-200.000	-0.005	-0.059
-96.845	-200.000	0.027	0.346
-95.830	800.000	-0.040	0.146
-94.816	-192.519	0.187	-0.002
-93.801	459.209	-0.068	0.150
-92.786	303.845	0.072	0.132
-91.772	800.000	0.028	-0.081
-90.757	-200.000	0.013	0.189
-89.743	-200.000	0.006	0.129
-88.728	66.448	-0.105	0.106
-87.713	104.925	-0.199	0.231
-86.699	-49.545	0.211	-0.099
-85.684	800.000	-0.014	0.060
-84.670	376.077	-0.033	-0.066
-83.655	800.000	-0.062	-0.171
-82.640	-200.000	0.043	0.237
-81.626	-52.139	-0.283	0.130
-80.611	-0.971	-0.191	-0.134
-79.597	-200.000	-0.016	-0.071
-78.582	-176.980	0.521	0.013
-77.567	250.752	0.030	0.050
-76.553	-73.648	0.168	-0.061
-75.538	800.000	-0.059	-0.239
-74.524	-200.000	0.001	0.290
-73.509	10.588	-0.132	0.099
-72.494	-86.581	-0.102	0.031
-71.480	-52.258	0.268	-0.123
-70.465	45.862	-0.056	-0.051
-69.451	-200.000	0.009	0.217
-68.436	30.100	-0.054	0.046
-67.422	800.000	0.089	0.285
-66.407	-65.915	-0.430	-0.170
-65.392	-14.136	0.234	0.149
-64.378	800.000	-0.036	0.144
-63.363	15.064	-0.187	0.145
-62.349	-86.525	0.290	0.088
-61.334	14.004	-1.056	-0.812
-60.319	14.117	0.727	0.559
-59.305	716.680	-0.426	-1.115
-58.290	8.019	0.817	0.605
-57.276	229.036	0.959	1.545
-56.261	-200.000	94.398	575.149
-55.246	556.511	1361.756	3239.569
-54.232	161.985	2535.659	3507.127
-53.217	104.040	2296.053	2665.273
-52.203	38.959	2061.227	1818.578
-51.188	34.067	1976.907	1700.512
-50.173	32.621	1958.138	1671.485
-49.159	47.582	2006.971	1847.823
-48.144	48.797	2025.416	1875.646
-47.130	34.757	1988.136	1716.103
-46.115	32.461	1977.375	1686.205
-45.100	32.296	1975.348	1682.930
-44.086	32.248	1972.654	1680.142
-43.071	32.226	1969.793	1677.439
-42.057	32.163	1967.304	1674.697
-41.042	32.204	1965.810	1673.724
-40.027	32.257	1963.556	1672.210
-39.013	32.214	1962.268	1670.665
-37.998	32.321	1959.937	1669.563
-36.984	32.267	1958.352	1667.668
-35.969	32.297	1956.547	1666.332
-34.954	32.381	1954.636	1665.381
-33.940	32.399	1953.149	1664.203
-32.925	32.426	1951.541	1663.008
-31.911	32.440	1950.074	1661.812
-30.896	32.363	1948.822	1660.001
-29.881	32.463	1947.049	1659.307
-28.867	32.448	1945.353	1657.669
-27.852	32.478	1942.994	1655.850
-26.838	32.466	1941.210	1654.163
-25.823	32.379	1939.791	1652.122
-24.809	32.345	1938.194	1650.402
-23.794	32.345	1936.578	1648.959
-22.779	32.390	1934.378	1647.409
-21.765	32.356	1932.971	1645.850
-20.750	32.356	1931.073	1644.169
-19.736	32.395	1929.475	1643.081
-18.721	32.413	1927.942	1641.868
-17.706	32.418	1926.474	1640.598
-16.692	32.375	1924.989	1638.896
-15.677	32.454	1923.432	1638.196
-14.663	32.397	1921.674	1636.131
-13.648	32.358	1920.732	1634.933
-12.633	32.431	1919.115	1634.119
-11.619	32.379	1918.126	1632.759
-10.604	32.354	1916.947	1631.474
-9.590	32.300	1915.816	1629.983
-8.575	32.410	1913.660	1629.035
-7.560	32.421	1912.673	1628.230
-6.546	32.380	1911.145	1626.504
-5.531	32.383	1910.072	1625.554
-4.517	32.436	1908.500	1624.607
-3.502	32.325	1908.341	1623.450
-2.487	32.363	1906.492	1622.141
-1.473	32.402	1905.413	1621.492
-0.458	32.468	1900.815	1618.084
0.556	30.099	1880.678	1589.033
1.571	25.619	1861.205	1534.327
2.586	21.498	1882.732	1516.298
3.600	20.272	1918.258	1533.939
4.615	19.889	1912.972	1526.201
5.629	15.395	1813.311	1408.912
6.644	6.089	1693.054	1242.091
7.659	0.630	1653.606	1170.816
8.673	0.171	1649.750	1164.429
9.688	0.127	1648.602	1163.175
10.702	0.031	1647.513	1161.562
11.717	-0.078	1644.219	1158.295
12.731	0.547	1643.788	1162.709
13.746	7.061	1658.821	1223.745
14.761	15.451	1675.023	1300.862
15.775	17.940	1676.751	1321.373
16.790	16.975	1673.692	1311.388
17.804	15.815	1670.434	1299.763
18.819	14.900	1666.590	1289.606
19.834	14.268	1664.495	1282.996
20.848	13.930	1663.269	1279.339
21.863	13.735	1661.517	1276.379
22.877	13.508	1659.900	1273.275
23.892	13.293	1659.052	1270.862
24.907	13.131	1657.350	1268.200
25.921	13.022	1656.785	1266.818
26.936	13.177	1655.202	1266.688
27.950	13.211	1654.777	1266.509
28.965	13.196	1653.833	1265.558
29.980	13.233	1653.403	1265.403
30.994	13.248	1652.562	1264.765
32.009	13.352	1651.620	1264.724
33.023	13.379	1650.561	1264.010
34.038	13.354	1649.817	1263.134
35.053	13.446	1648.673	1262.849
36.067	13.436	1647.538	1261.795
37.082	13.357	1646.552	1260.324
38.096	13.298	1645.849	1259.221
39.111	13.394	1644.631	1258.912
40.126	13.428	1643.985	1258.565
41.140	13.353	1643.056	1257.172
42.155	13.265	1641.794	1255.429
43.169	13.151	1640.612	1253.545
44.184	13.117	1639.431	1252.278
45.199	13.063	1638.630	1251.146
46.213	13.120	1636.929	1250.164
47.228	13.205	1636.049	1250.022
48.242	13.194	1634.537	1248.676
49.257	13.244	1633.345	1248.036
50.271	13.214	1632.324	1246.913
51.286	13.222	1631.424	1246.181
52.301	13.233	1629.894	1244.979
53.315	13.334	1628.000	1244.185
54.330	13.294	1626.492	1242.620
55.344	13.098	1625.637	1240.386
56.359	13.089	1623.903	1238.883
57.374	13.208	1622.855	1238.865
58.388	13.254	1621.310	1237.922
59.403	13.156	1619.969	1236.058
60.417	13.077	1618.597	1234.309
61.432	13.120	1617.801	1233.918
62.447	13.153	1616.503	1233.062
63.461	13.134	1615.204	1231.823
64.476	13.014	1614.089	1229.969
65.490	12.906	1613.583	1228.671
66.505	13.026	1611.622	1227.956
67.520	13.088	1610.818	1227.698
68.534	13.095	1609.790	1226.863
69.549	13.093	1608.679	1225.891
70.563	13.096	1607.104	1224.605
71.578	13.073	1605.663	1223.225
72.593	13.075	1605.128	1222.728
73.607	13.080	1603.972	1221.774
74.622	13.016	1602.837	1220.327
75.636	13.016	1601.978	1219.569
76.651	12.999	1601.169	1218.717
77.666	12.924	1600.449	1217.508
78.680	13.005	1599.317	1217.132
79.695	12.979	1598.658	1216.337
80.709	13.018	1597.232	1215.427
81.724	13.096	1596.474	1215.317
82.739	13.101	1595.525	1214.524
83.753	13.097	1595.059	1214.036
84.768	13.110	1593.672	1212.965
85.782	13.192	1593.123	1213.043
86.797	13.261	1592.379	1212.878
87.812	13.269	1591.290	1211.996
88.826	13.226	1590.150	1210.707
89.841	13.148	1588.612	1208.861
90.855	13.229	1587.866	1208.777
91.870	13.280	1586.835	1208.255
92.884	13.233	1585.634	1206.891
93.899	13.335	1584.700	1206.819
94.914	13.317	1583.658	1205.789
95.928	13.313	1582.554	1204.815
96.943	13.381	1581.073	1204.070
97.957	13.274	1580.033	1202.395
98.972	13.316	1578.448	1201.391
99.987	13.270	1577.045	1199.881
101.001	13.235	1575.648	1198.460
102.016	13.210	1574.128	1197.012
103.030	13.225	1572.933	1196.111
104.045	13.350	1571.248	1195.622
105.060	13.325	1569.662	1194.132
106.074	13.310	1568.544	1193.067
107.089	13.213	1567.129	1191.183
108.103	13.126	1565.584	1189.282
109.118	13.074	1564.013	1187.605
110.133	13.028	1562.988	1186.394
111.147	13.100	1561.439	1185.625
112.162	13.131	1559.939	1184.605
113.176	13.110	1558.754	1183.450
114.191	13.124	1557.849	1182.760
115.206	13.146	1556.419	1181.730
116.220	13.151	1555.125	1180.678
117.235	13.206	1554.039	1180.141
118.249	13.225	1552.880	1179.290
119.264	13.188	1550.828	1177.364
120.279	13.106	1549.496	1175.665
121.293	13.108	1548.483	1174.806
122.308	13.105	1547.182	1173.693
123.322	13.111	1545.277	1172.187
124.337	13.069	1543.997	1170.819
125.352	13.154	1542.280	1170.010
126.366	13.018	1542.399	1169.039
127.381	13.044	1541.268	1168.258
128.395	13.069	1539.937	1167.324
129.410	13.148	1538.170	1166.440
130.424	13.173	1536.815	1165.489
131.439	13.117	1536.252	1164.560
132.454	13.122	1534.617	1163.255
133.468	13.118	1533.145	1162.007
134.483	13.201	1531.895	1161.541
135.497	13.165	1530.596	1160.200
136.512	13.219	1528.992	1159.257
137.527	13.277	1527.947	1158.773
138.541	13.275	1526.370	1157.457
139.556	13.311	1525.195	1156.720
140.570	13.307	1523.414	1155.234
141.585	13.257	1522.355	1153.978
142.600	13.388	1521.269	1153.972
143.614	13.451	1519.813	1153.202
144.629	13.461	1518.491	1152.166
145.643	13.513	1516.676	1151.049
146.658	13.469	1515.971	1150.109
147.673	13.485	1514.525	1149.017
148.687	13.417	1512.791	1147.134
149.702	13.286	1511.673	1145.271
150.716	13.341	1509.793	1144.127
151.731	13.311	1508.076	1142.516
152.746	13.300	1507.098	1141.603
153.760	13.368	1506.099	1141.215
154.775	13.247	1505.038	1139.475
155.789	13.428	1503.170	1139.205
156.804	13.417	1501.976	1138.123
157.819	13.467	1501.204	1137.778
158.833	13.431	1500.019	1136.534
159.848	13.432	1498.820	1135.535
160.862	13.465	1497.855	1134.926
161.877	13.566	1496.482	1134.477
162.892	13.569	1495.237	1133.456
163.906	13.463	1493.874	1131.594
164.921	13.431	1492.338	1130.117
165.935	13.489	1491.327	1129.645
166.950	13.485	1490.309	1128.747
167.964	13.483	1489.292	1127.863
168.979	13.550	1488.311	1127.475
169.994	13.405	1487.527	1125.794
171.008	13.507	1486.460	1125.581
172.023	13.589	1485.113	1125.018
173.037	13.590	1483.772	1123.911
174.052	13.660	1482.807	1123.554
175.067	13.717	1481.388	1122.770
176.081	13.570	1480.354	1120.890
177.096	13.604	1478.839	1119.870
178.110	13.537	1477.926	1118.628
179.125	13.528	1476.977	1117.751
180.140	13.518	1475.870	1116.751
181.154	13.545	1474.944	1116.128
182.169	13.608	1473.665	1115.489
183.183	13.643	1472.278	1114.577
184.198	13.701	1471.271	1114.101
185.213	13.747	1469.819	1113.214
186.227	13.804	1469.063	1112.925
187.242	13.756	1468.108	1111.781
188.256	13.898	1467.019	1111.806
189.271	13.817	1466.414	1110.710
190.286	13.814	1465.601	1109.974
191.300	13.789	1464.254	1108.690
192.315	13.648	1462.918	1106.641
193.329	13.629	1461.621	1105.435
194.344	13.601	1460.563	1104.348
195.359	13.583	1459.672	1103.459
196.373	13.678	1458.655	1103.224
197.388	13.781	1457.580	1102.996
198.402	13.855	1456.247	1102.384
199.417	13.814	1455.659	1101.565
200.432	13.959	1454.099	1101.254
201.446	13.902	1453.610	1100.404
202.461	14.033	1452.300	1100.187
203.475	13.967	1451.097	1098.739
204.490	14.101	1449.183	1098.074
205.504	14.043	1448.578	1097.137
206.519	14.038	1447.599	1096.266
207.534	13.958	1446.426	1094.754
208.548	13.948	1445.306	1093.746
209.563	13.989	1444.216	1093.092
210.577	14.018	1443.187	1092.408
211.592	13.883	1442.597	1090.979
212.607	14.090	1441.947	1091.751
213.621	14.051	1441.338	1090.936
214.636	14.131	1440.060	1090.397
215.650	14.139	1439.061	1089.596
216.665	14.208	1437.899	1089.069
217.680	14.129	1437.284	1087.992
218.694	14.220	1436.296	1087.744
219.709	14.218	1435.800	1087.255
220.723	14.257	1435.025	1086.826
221.738	14.199	1433.808	1085.433
222.753	14.304	1432.844	1085.290
223.767	14.195	1432.141	1083.956
224.782	14.190	1431.088	1083.026
225.796	14.266	1430.313	1082.837
226.811	14.346	1429.218	1082.435
227.826	14.295	1428.733	1081.640
228.840	14.322	1427.694	1080.930
229.855	14.324	1426.470	1079.923
230.869	14.371	1425.152	1079.137
231.884	14.322	1424.691	1078.373
232.899	14.248	1423.396	1076.817
233.913	14.289	1422.335	1076.185
234.928	14.233	1421.492	1075.090
235.942	14.253	1419.628	1073.713
236.957	14.283	1418.650	1073.070
237.972	14.203	1418.102	1072.051
238.986	14.238	1417.047	1071.383
240.001	14.303	1415.930	1070.857
241.015	14.384	1414.888	1070.501
242.030	14.385	1413.541	1069.391
243.045	14.464	1412.745	1069.201
244.059	14.381	1412.075	1068.064
245.074	14.448	1411.135	1067.693
246.088	14.464	1410.220	1067.004
247.103	14.433	1410.069	1066.597
248.117	14.494	1409.143	1066.196
249.132	14.563	1407.806	1065.527
250.147	14.621	1407.572	1065.627
251.161	14.679	1406.992	1065.466
252.176	14.735	1406.071	1065.033
253.190	14.794	1405.422	1064.818
254.205	14.799	1404.735	1064.235
255.220	14.781	1403.833	1063.344
256.234	14.940	1402.564	1063.299
257.249	14.967	1401.876	1062.858
258.263	14.970	1401.085	1062.185
259.278	14.995	1399.817	1061.287
260.293	14.939	1399.117	1060.304
261.307	14.896	1398.352	1059.362
262.322	14.990	1397.862	1059.493
263.336	14.975	1397.365	1058.926
264.351	15.026	1395.897	1058.038
265.366	15.005	1395.324	1057.378
266.380	15.064	1394.077	1056.712
267.395	15.025	1393.472	1055.919
268.409	15.070	1392.660	1055.491
269.424	15.014	1391.792	1054.386
270.439	15.038	1390.486	1053.454
271.453	15.022	1389.209	1052.293
272.468	15.189	1387.941	1052.289
273.482	15.009	1387.908	1051.043
274.497	14.980	1386.890	1049.995
275.512	15.081	1385.679	1049.616
276.526	15.075	1385.063	1049.022
277.541	15.054	1383.895	1047.910
278.555	15.097	1383.511	1047.795
279.570	15.097	1382.823	1047.181
280.585	15.184	1381.686	1046.776
281.599	15.213	1380.808	1046.200
282.614	15.261	1379.768	1045.617
283.628	15.260	1378.404	1044.484
284.643	15.141	1377.948	1043.303
285.657	15.192	1376.303	1042.286
286.672	15.219	1375.624	1041.845
287.687	15.246	1374.400	1040.993
288.701	15.222	1373.797	1040.297
289.716	15.212	1373.192	1039.686
290.730	15.298	1372.270	1039.427
291.745	15.225	1371.095	1037.990
292.760	15.271	1370.488	1037.726
293.774	15.361	1369.041	1037.093
294.789	15.412	1367.822	1036.397
295.803	15.373	1367.964	1036.169
296.818	15.443	1366.856	1035.669
297.833	15.429	1365.657	1034.586
298.847	15.383	1364.869	1033.614
299.862	15.356	1364.073	1032.751
300.876	15.490	1362.734	1032.473
301.891	15.339	1362.073	1030.951
302.906	15.392	1361.053	1030.414
303.920	15.510	1360.839	1030.887
304.935	15.591	1359.494	1030.273
305.949	15.513	1359.041	1029.358
306.964	15.601	1358.418	1029.333
307.979	15.734	1357.120	1029.073
308.993	15.638	1356.368	1027.824
310.008	15.623	1355.219	1026.770
311.022	15.584	1354.050	1025.556
312.037	15.697	1353.313	1025.598
313.052	15.829	1352.000	1025.319
314.066	15.812	1351.080	1024.424
315.081	15.782	1349.941	1023.287
316.095	15.735	1349.033	1022.224
317.110	15.639	1348.371	1021.050
318.125	15.720	1347.315	1020.647
319.139	15.601	1346.354	1019.113
320.154	15.581	1345.479	1018.237
321.168	15.621	1344.589	1017.716
322.183	15.606	1343.601	1016.785
323.197	15.741	1342.573	1016.735
324.212	15.666	1341.926	1015.704
325.227	15.728	1341.154	1015.399
326.241	15.867	1340.091	1015.348
327.256	15.692	1339.628	1013.848
328.270	15.750	1338.609	1013.339
329.285	15.703	1337.800	1012.352
330.300	15.811	1336.445	1011.890
331.314	15.786	1336.054	1011.350
332.329	15.805	1334.912	1010.514
333.343	15.771	1333.971	1009.506
334.358	15.786	1333.454	1009.118
335.373	15.835	1332.851	1008.862
336.387	15.943	1331.238	1008.199
337.402	15.884	1331.106	1007.660
338.416	15.890	1330.437	1007.100
339.431	15.947	1329.779	1006.850
340.446	15.993	1328.702	1006.222
341.460	16.026	1328.150	1005.911
342.475	16.077	1327.188	1005.401
343.489	16.135	1326.412	1005.066
344.504	16.161	1324.980	1004.048
345.519	16.131	1324.061	1003.086
346.533	16.098	1323.410	1002.307
347.548	16.283	1322.369	1002.530
348.562	16.179	1321.498	1001.165
349.577	16.218	1321.028	1000.949
350.592	16.208	1320.692	1000.547
351.606	16.180	1319.472	999.366
352.621	16.095	1318.202	997.816
353.635	16.125	1317.125	997.086
354.650	16.062	1316.647	996.267
355.665	16.117	1315.265	995.458
356.679	16.182	1314.132	994.893
357.694	16.196	1313.177	994.167
358.708	16.239	1312.048	993.478
359.723	16.340	1311.363	993.464
360.738	16.276	1310.273	992.172
361.752	16.284	1309.048	991.206
362.767	16.312	1308.131	990.587
363.781	16.357	1307.104	989.986
364.796	16.355	1306.769	989.635
365.810	16.291	1306.034	988.615
366.825	16.394	1305.342	988.604
367.840	16.474	1304.246	988.157
368.854	16.424	1303.813	987.449
369.869	16.531	1303.276	987.579
370.883	16.526	1302.630	986.972
371.898	16.476	1301.963	986.087
372.913	16.542	1301.128	985.754
373.927	16.464	1300.123	984.450
374.942	16.564	1299.336	984.351
375.956	16.670	1298.177	984.002
376.971	16.650	1297.855	983.550
377.986	16.541	1297.096	982.260
379.000	16.561	1296.540	981.864
380.015	16.594	1295.800	981.409
381.029	16.713	1294.912	981.341
382.044	16.727	1294.233	980.819
383.059	16.820	1292.838	980.213
384.073	16.663	1292.683	979.103
385.088	16.740	1292.022	978.961
386.102	16.785	1291.334	978.613
387.117	16.815	1290.542	978.100
388.132	16.785	1289.841	977.308
389.146	16.735	1289.208	976.454
390.161	16.713	1288.288	975.545
391.175	16.702	1287.509	974.805
392.190	16.742	1286.831	974.433
393.205	16.722	1286.063	973.648
394.219	16.775	1284.747	972.872
395.234	16.783	1283.553	971.929
396.248	16.797	1282.136	970.851
397.263	16.800	1281.066	969.970
398.278	16.864	1279.276	968.895
399.292	16.830	1278.379	967.936
400.307	16.926	1277.076	967.410
401.321	16.851	1276.497	966.463
402.336	16.835	1275.734	965.705
403.350	16.905	1274.689	965.229
404.365	16.866	1273.965	964.373
405.380	16.922	1272.777	963.708
406.394	16.936	1271.795	962.954
407.409	16.913	1271.553	962.556
408.423	16.938	1271.334	962.448
409.438	17.004	1270.794	962.327
410.453	17.088	1269.419	961.675
411.467	17.060	1269.023	961.136
412.482	17.121	1268.451	960.964
413.496	17.219	1267.560	960.754
414.511	17.199	1266.827	959.999
415.526	17.199	1266.111	959.373
416.540	17.137	1265.664	958.600
417.555	17.256	1264.826	958.551
418.569	17.368	1263.765	958.294
419.584	17.306	1263.561	957.706
420.599	17.298	1263.081	957.210
421.613	93.683	1349.143	1459.138
422.628	91.247	1361.614	1459.241
