DTS Sentinel unit serial number:	SN413079Multiplexer serial number:	ORYXHardware model number:	OX4-SRSoftware version number:	ORYX F/W v4.00 Oryx Data Collector v3.7.2.0data status	okinstallation	princeton_trtdifferential loss correction	single-endedforward channel	channel 4reverse channel	N/Adate	2019/09/17time	17:17:35forward acquisition time	60.00reverse acquisition time	0.00gamma	496.2192k internal	0.2279k external	0.2279temperature offset calibration	0.9978default loss term (dB/km)	0.3790temperature slope calibration	1.0000multiplexer offset coefficient	1.0000multiplexer slope coefficient	1.0000fibre end	0.00T internal ref (°C)	42.94T ext. ref 1 (°C)	0.35T ext. ref 2 (°C)	38.85length (m)	temperature (°C)	Stokes	anti-Stokes-747.200	-137.026	-0.168	0.020
-746.185	-5.327	0.278	0.197
-745.171	779.671	0.017	-0.048
-744.156	305.094	-0.051	0.098
-743.142	-200.000	-0.036	-0.229
-742.127	152.424	0.048	0.067
-741.112	-167.146	0.228	-0.010
-740.098	27.934	0.180	0.156
-739.083	-200.000	-0.039	0.209
-738.069	-200.000	-0.028	-0.345
-737.054	-200.000	-0.022	0.216
-736.039	-200.000	0.003	-0.029
-735.025	211.247	-0.086	0.139
-734.010	55.074	-0.305	-0.303
-732.996	-58.577	-0.173	0.077
-731.981	155.131	0.060	-0.086
-730.966	553.913	0.028	0.069
-729.952	800.000	0.057	0.176
-728.937	250.663	-0.045	-0.078
-727.923	-200.000	0.020	-0.507
-726.908	494.686	-0.177	0.419
-725.894	-28.827	-0.353	-0.209
-724.879	800.000	-0.156	-0.463
-723.864	-68.388	-0.153	-0.061
-722.850	238.709	-0.080	-0.137
-721.835	208.546	0.024	-0.039
-720.821	-21.614	0.244	0.153
-719.806	-200.000	-0.007	0.069
-718.791	-72.017	-0.480	-0.184
-717.777	-105.177	-0.196	-0.046
-716.762	-200.000	0.031	-0.221
-715.748	-140.827	0.161	-0.017
-714.733	44.262	0.213	-0.201
-713.718	290.495	0.142	0.265
-712.704	-74.006	0.095	-0.036
-711.689	-200.000	0.032	-0.179
-710.675	344.164	-0.168	-0.339
-709.660	-200.000	0.009	-0.051
-708.645	48.669	0.303	-0.292
-707.631	24.713	-0.034	0.029
-706.616	-66.688	0.103	0.042
-705.602	-123.259	-0.342	-0.056
-704.587	5.434	-0.142	-0.108
-703.572	-200.000	-0.014	-0.110
-702.558	535.594	0.055	-0.133
-701.543	-7.672	0.152	-0.105
-700.529	-121.440	-0.252	0.043
-699.514	-105.107	-0.134	0.031
-698.499	448.257	0.071	0.160
-697.485	63.307	0.248	-0.255
-696.470	-200.000	0.349	-0.001
-695.456	-77.900	-0.394	-0.140
-694.441	83.020	-0.123	-0.138
-693.426	16.286	-0.153	-0.124
-692.412	-46.393	0.309	0.156
-691.397	-84.474	-0.238	-0.077
-690.383	-97.219	0.118	0.032
-689.368	547.776	0.038	0.092
-688.354	152.532	-0.110	0.155
-687.339	-16.200	0.126	-0.082
-686.324	201.834	0.067	-0.106
-685.310	-95.805	0.226	-0.062
-684.295	800.000	0.041	-0.145
-683.281	-200.000	-0.055	-0.270
-682.266	1.206	-0.141	-0.104
-681.251	688.845	-0.152	0.409
-680.237	-151.334	0.498	-0.038
-679.222	-20.411	0.099	0.063
-678.208	447.713	0.107	-0.243
-677.193	800.000	-0.065	0.220
-676.178	119.746	-0.147	0.187
-675.164	4.492	0.281	-0.211
-674.149	-31.418	0.061	0.035
-673.135	-200.000	0.002	0.232
-672.120	-37.844	-0.223	0.122
-671.105	-12.714	-0.156	0.104
-670.091	-62.652	-0.122	0.052
-669.076	-200.000	-0.062	0.311
-668.062	-101.618	0.201	-0.050
-667.047	-47.442	0.200	0.100
-666.032	335.573	0.054	-0.107
-665.018	154.501	0.214	-0.302
-664.003	800.000	0.102	0.369
-662.989	-48.531	-0.418	-0.206
-661.974	-122.827	0.193	0.032
-660.959	-181.875	0.401	-0.008
-659.945	111.912	-0.022	0.028
-658.930	-129.434	-0.053	0.008
-657.916	224.835	-0.037	0.061
-656.901	-200.000	-0.002	-0.080
-655.886	598.842	0.140	-0.356
-654.872	-184.018	-0.172	0.003
-653.857	-96.529	0.081	0.022
-652.843	-69.287	-0.137	0.054
-651.828	-130.124	-0.436	-0.061
-650.814	-93.739	-0.090	0.025
-649.799	382.117	-0.183	-0.385
-648.784	-130.392	0.404	0.056
-647.770	688.993	0.015	-0.042
-646.755	-89.467	0.558	-0.168
-645.741	-90.523	0.240	-0.071
-644.726	-82.327	0.077	-0.026
-643.711	180.855	0.102	0.153
-642.697	97.052	0.146	-0.172
-641.682	24.875	0.107	-0.091
-640.668	-120.464	0.185	-0.032
-639.653	-200.000	-0.007	0.047
-638.638	-33.820	0.212	-0.120
-637.624	334.202	0.108	-0.214
-636.609	-26.429	-0.126	0.076
-635.595	-116.952	0.152	0.028
-634.580	340.606	-0.121	-0.242
-633.565	800.000	-0.030	0.130
-632.551	800.000	-0.064	-0.216
-631.536	-200.000	-0.006	0.058
-630.522	-57.748	-0.146	0.065
-629.507	-200.000	-0.011	-0.286
-628.492	114.795	0.168	-0.210
-627.478	-16.867	0.072	0.046
-626.463	800.000	-0.006	-0.017
-625.449	800.000	0.172	-0.510
-624.434	391.626	0.042	0.090
-623.419	-200.000	-0.007	0.356
-622.405	-200.000	-0.010	-0.267
-621.390	-200.000	0.012	0.110
-620.376	567.239	-0.130	0.322
-619.361	319.862	0.217	0.421
-618.346	-188.043	-0.158	-0.002
-617.332	-200.000	-0.054	0.244
-616.317	450.665	0.062	0.139
-615.303	569.007	0.083	0.206
-614.288	800.000	0.036	0.126
-613.273	161.043	-0.178	-0.255
-612.259	-111.226	0.315	0.066
-611.244	3.088	0.238	-0.177
-610.230	-23.538	0.111	0.068
-609.215	301.930	0.100	0.189
-608.201	-190.262	-0.198	-0.002
-607.186	-200.000	0.017	0.293
-606.171	-109.465	-0.229	-0.050
-605.157	-12.303	-0.126	-0.084
-604.142	-92.243	-0.232	0.067
-603.128	-200.000	0.037	-0.281
-602.113	-200.000	-0.059	-0.326
-601.098	-200.000	-0.018	-0.093
-600.084	34.739	-0.079	0.071
-599.069	-200.000	0.087	0.391
-598.055	110.476	-0.129	0.158
-597.040	402.982	0.088	0.190
-596.025	-115.173	0.124	-0.024
-595.011	-200.000	0.046	0.504
-593.996	147.475	-0.022	-0.031
-592.982	-200.000	-0.002	0.175
-591.967	-65.201	-0.092	0.038
-590.952	-116.762	-0.246	0.046
-589.938	4.184	-0.104	0.078
-588.923	-127.832	-0.277	0.041
-587.909	505.006	0.062	0.146
-586.894	229.209	0.144	-0.241
-585.879	-51.940	0.267	-0.127
-584.865	-92.051	-0.264	-0.076
-583.850	-200.000	0.011	-0.302
-582.836	792.521	-0.099	-0.277
-581.821	282.630	-0.132	0.242
-580.806	-142.966	0.225	-0.022
-579.792	-13.363	0.196	0.130
-578.777	18.938	-0.127	0.104
-577.763	-200.000	0.065	-0.303
-576.748	-200.000	0.011	0.153
-575.733	336.303	-0.062	-0.124
-574.719	800.000	0.073	-0.296
-573.704	-41.062	-0.158	-0.083
-572.690	-200.000	-0.043	-0.252
-571.675	446.273	-0.200	-0.450
-570.661	68.562	0.174	-0.182
-569.646	-182.489	0.142	-0.003
-568.631	19.816	-0.146	-0.120
-567.617	148.182	0.143	-0.197
-566.602	-52.169	-0.215	-0.102
-565.588	-174.153	0.179	-0.005
-564.573	-137.113	0.299	-0.035
-563.558	12.438	0.113	-0.089
-562.544	153.425	-0.449	0.629
-561.529	800.000	0.017	-0.076
-560.515	-55.279	0.141	0.065
-559.500	-123.087	-0.201	0.033
-558.485	-114.695	0.452	0.088
-557.471	165.892	0.087	0.126
-556.456	-177.049	0.091	0.002
-555.442	614.312	0.117	0.301
-554.427	-14.054	0.080	0.053
-553.412	-126.785	-0.312	-0.047
-552.398	-44.265	-0.202	0.103
-551.383	-67.516	-0.103	-0.041
-550.369	48.491	-0.171	0.164
-549.354	800.000	-0.067	-0.200
-548.339	-12.028	0.194	-0.130
-547.325	39.747	0.170	0.156
-546.310	-120.928	-0.259	-0.044
-545.296	283.755	0.067	-0.123
-544.281	196.000	-0.168	-0.261
-543.266	-200.000	0.018	0.164
-542.252	123.405	0.055	0.070
-541.237	-200.000	0.005	-0.407
-540.223	22.926	0.179	0.150
-539.208	-117.944	0.148	-0.027
-538.193	-123.809	0.373	0.060
-537.179	686.475	-0.092	-0.244
-536.164	9.938	0.179	-0.139
-535.150	-89.683	0.115	-0.035
-534.135	-93.710	-0.302	0.085
-533.121	149.522	0.165	0.228
-532.106	-98.570	-0.158	-0.041
-531.091	-200.000	-0.004	0.144
-530.077	9.260	-0.168	-0.130
-529.062	158.384	0.021	-0.030
-528.048	388.455	-0.152	-0.321
-527.033	-104.530	-0.463	-0.109
-526.018	37.658	-0.222	-0.202
-525.004	-2.870	-0.184	-0.131
-523.989	-24.309	-0.194	-0.118
-522.975	800.000	0.136	-0.384
-521.960	-200.000	-0.013	0.187
-520.945	-7.898	-0.155	0.107
-519.931	-154.402	0.182	-0.012
-518.916	-75.684	0.315	-0.114
-517.902	-193.612	0.225	-0.002
-516.887	-200.000	0.008	0.128
-515.872	-180.319	0.234	0.005
-514.858	-135.566	-0.012	0.001
-513.843	128.640	0.075	0.097
-512.829	287.444	-0.042	-0.078
-511.814	7.252	-0.166	0.126
-510.799	-200.000	0.043	0.410
-509.785	800.000	0.027	-0.091
-508.770	13.731	0.150	0.119
-507.756	800.000	-0.026	-0.076
-506.741	-86.906	-0.420	0.131
-505.726	-64.031	0.076	-0.032
-504.712	522.990	-0.111	-0.267
-503.697	-120.436	0.225	0.039
-502.683	-127.541	0.478	-0.071
-501.668	-136.791	-0.184	0.022
-500.653	-200.000	-0.008	-0.064
-499.639	34.850	0.221	-0.197
-498.624	-200.000	-0.020	0.331
-497.610	-200.000	-0.001	0.416
-496.595	-114.942	-0.218	-0.042
-495.581	-200.000	0.009	0.070
-494.566	46.627	0.148	0.140
-493.551	-29.736	-0.101	0.059
-492.537	-85.458	-0.316	0.100
-491.522	-200.000	0.036	0.288
-490.508	800.000	-0.124	0.446
-489.493	-19.709	0.283	0.179
-488.478	31.234	0.107	-0.094
-487.464	79.469	-0.296	-0.323
-486.449	49.738	-0.250	-0.240
-485.435	-95.254	-0.303	-0.083
-484.420	-40.710	-0.124	0.065
-483.405	800.000	-0.040	-0.161
-482.391	96.931	-0.066	0.077
-481.376	800.000	-0.048	-0.209
-480.362	198.281	-0.041	-0.064
-479.347	-40.872	0.104	-0.055
-478.332	-168.730	0.292	0.011
-477.318	-45.720	-0.351	0.177
-476.303	2.614	0.216	-0.159
-475.289	-18.865	-0.200	-0.127
-474.274	800.000	0.036	0.103
-473.259	625.908	0.054	-0.140
-472.245	-200.000	-0.054	0.246
-471.230	23.076	-0.053	-0.044
-470.216	160.090	-0.076	-0.108
-469.201	-64.772	-0.369	-0.152
-468.186	-36.500	0.130	0.071
-467.172	800.000	-0.049	-0.165
-466.157	253.098	0.206	-0.358
-465.143	117.427	-0.245	-0.307
-464.128	113.892	0.231	0.286
-463.113	58.067	-0.014	-0.014
-462.099	62.390	0.181	0.184
-461.084	568.584	0.033	0.083
-460.070	-200.000	-0.024	0.357
-459.055	-113.249	0.143	0.029
-458.040	713.755	-0.084	-0.227
-457.026	-123.144	0.162	-0.026
-456.011	-89.505	-0.336	0.101
-454.997	800.000	-0.022	0.088
-453.982	25.780	0.222	-0.188
-452.968	800.000	-0.029	0.123
-451.953	-127.462	0.346	-0.051
-450.938	77.140	0.201	0.217
-449.924	-72.517	-0.109	0.041
-448.909	254.687	0.116	0.203
-447.895	38.960	0.135	0.123
-446.880	-200.000	0.020	0.187
-445.865	800.000	0.039	0.161
-444.851	800.000	0.045	-0.135
-443.836	-49.640	0.180	-0.087
-442.822	-124.947	0.034	-0.005
-441.807	-200.000	0.025	0.273
-440.792	-200.000	0.375	0.000
-439.778	79.272	-0.138	-0.150
-438.763	10.039	-0.104	-0.080
-437.749	87.637	-0.084	0.095
-436.734	-171.830	0.331	-0.011
-435.719	-4.053	-0.134	-0.095
-434.705	60.560	-0.179	-0.181
-433.690	-200.000	0.032	-0.340
-432.676	800.000	-0.100	0.312
-431.661	-56.558	-0.211	0.095
-430.646	-200.000	-0.258	0.001
-429.632	332.432	-0.042	-0.082
-428.617	-93.424	-0.078	0.022
-427.603	-200.000	0.028	-0.138
-426.588	-75.984	0.168	-0.060
-425.573	261.325	-0.063	0.111
-424.559	195.756	-0.137	0.212
-423.544	-200.000	0.029	0.247
-422.530	-10.688	-0.157	0.106
-421.515	-92.335	0.308	-0.088
-420.500	-169.783	0.181	0.007
-419.486	-4.913	-0.108	-0.076
-418.471	101.871	0.048	0.057
-417.457	202.846	0.106	0.166
-416.442	-200.000	0.041	-0.257
-415.428	-160.857	0.387	0.021
-414.413	62.157	-0.122	0.124
-413.398	291.245	0.258	-0.477
-412.384	109.595	-0.256	0.312
-411.369	-200.000	0.017	0.164
-410.355	-200.000	-0.046	0.267
-409.340	263.273	0.116	-0.204
-408.325	41.460	0.091	0.084
-407.311	243.816	0.196	0.335
-406.296	-200.000	0.019	-0.097
-405.282	0.486	-0.119	-0.086
-404.267	26.699	0.118	-0.101
-403.252	-87.226	0.198	-0.061
-402.238	-91.122	-0.248	0.072
-401.223	-9.178	-0.184	0.125
-400.209	36.695	0.192	-0.172
-399.194	63.655	0.160	0.163
-398.179	-143.909	0.439	0.042
-397.165	-57.509	-0.376	-0.167
-396.150	158.861	0.176	-0.248
-395.136	41.250	0.252	-0.231
-394.121	344.035	-0.151	0.301
-393.106	-200.000	-0.001	0.329
-392.092	-123.936	-0.278	-0.044
-391.077	-130.982	-0.164	-0.022
-390.063	23.758	0.129	0.108
-389.048	-200.000	0.032	-0.151
-388.033	-181.396	0.214	0.004
-387.019	-11.479	-0.285	0.190
-386.004	-106.103	-0.229	0.052
-384.990	-99.029	-0.070	0.018
-383.975	-166.639	-0.514	-0.022
-382.960	-89.166	-0.406	0.122
-381.946	209.036	0.186	0.296
-380.931	52.620	0.240	-0.233
-379.917	800.000	0.050	-0.187
-378.902	-200.000	0.016	0.191
-377.888	-149.547	-0.229	-0.018
-376.873	14.491	-0.066	-0.052
-375.858	800.000	-0.055	-0.230
-374.844	-200.000	-0.029	0.505
-373.829	200.338	0.147	0.229
-372.815	800.000	-0.050	0.177
-371.800	30.339	-0.183	-0.159
-370.785	200.113	-0.029	0.045
-369.771	800.000	-0.130	-0.387
-368.756	-46.126	-0.328	0.164
-367.742	-91.465	-0.147	0.042
-366.727	-140.691	0.089	-0.009
-365.712	-117.044	-0.293	-0.054
-364.698	729.576	0.085	-0.231
-363.683	656.801	-0.059	0.155
-362.669	-74.805	-0.284	0.103
-361.654	-119.623	0.357	0.063
-360.639	420.098	-0.079	0.172
-359.625	-163.345	-0.247	0.012
-358.610	31.681	0.110	-0.096
-357.596	53.061	0.081	-0.079
-356.581	219.080	-0.074	0.119
-355.566	-120.666	-0.281	0.048
-354.552	94.827	-0.252	0.291
-353.537	-200.000	0.007	-0.136
-352.523	93.378	-0.131	-0.150
-351.508	-59.891	-0.154	0.067
-350.493	-161.246	-0.197	0.010
-349.479	800.000	-0.018	-0.066
-348.464	-102.683	-0.121	-0.029
-347.450	-200.000	-0.002	-0.311
-346.435	-200.000	0.011	-0.189
-345.420	800.000	-0.016	0.071
-344.406	-86.447	-0.117	-0.036
-343.391	-91.000	-0.091	-0.027
-342.377	209.501	0.008	0.013
-341.362	534.929	0.089	0.213
-340.348	-2.966	0.053	0.037
-339.333	-200.000	0.009	0.124
-338.318	-137.270	-0.273	-0.031
-337.304	155.979	-0.095	0.132
-336.289	-200.000	-0.029	0.170
-335.275	-45.680	-0.379	-0.190
-334.260	-47.583	-0.210	-0.103
-333.245	-29.157	0.291	0.169
-332.231	150.167	-0.045	0.061
-331.216	-200.000	-0.003	0.165
-330.202	-79.380	0.148	0.051
-329.187	-100.040	0.083	-0.021
-328.172	192.292	0.076	0.116
-327.158	252.953	-0.140	-0.242
-326.143	-10.275	-0.178	-0.120
-325.129	58.774	-0.037	-0.037
-324.114	347.730	-0.102	0.204
-323.099	-174.621	0.389	0.011
-322.085	1.044	-0.214	-0.155
-321.070	55.872	0.156	-0.153
-320.056	-200.000	-0.005	-0.068
-319.041	268.809	-0.168	-0.298
-318.026	-155.673	-0.294	0.019
-317.012	-88.983	0.287	0.086
-315.997	-2.499	0.292	0.207
-314.983	800.000	-0.132	0.483
-313.968	-200.000	-0.031	0.162
-312.953	800.000	0.036	-0.134
-311.939	-61.223	-0.215	0.092
-310.924	115.774	-0.094	0.117
-309.910	-200.000	-0.018	0.163
-308.895	-3.566	0.198	0.139
-307.880	97.453	-0.106	-0.123
-306.866	-200.000	-0.029	0.359
-305.851	-154.457	0.061	0.004
-304.837	-116.193	-0.485	0.091
-303.822	-200.000	-0.005	-0.085
-302.807	-11.215	-0.352	0.234
-301.793	-11.438	0.296	-0.197
-300.778	-159.556	0.030	-0.002
-299.764	143.094	-0.257	-0.346
-298.749	800.000	-0.024	0.094
-297.735	-96.866	0.359	-0.095
-296.720	-120.173	-0.071	-0.012
-295.705	681.752	0.018	-0.046
-294.691	-151.606	0.161	-0.012
-293.676	-59.165	0.135	-0.059
-292.662	-76.868	0.132	-0.047
-291.647	800.000	0.044	-0.159
-290.632	181.248	-0.133	-0.198
-289.618	800.000	-0.025	0.083
-288.603	388.454	-0.116	-0.242
-287.589	-200.000	-0.028	-0.154
-286.574	254.914	0.164	-0.284
-285.559	800.000	-0.107	0.348
-284.545	-80.122	0.157	-0.053
-283.530	24.960	-0.044	-0.037
-282.516	326.092	-0.138	0.266
-281.501	-200.000	-0.003	-0.022
-280.486	-46.574	0.118	0.059
-279.472	-114.656	-0.241	0.047
-278.457	38.572	-0.145	0.131
-277.443	24.029	-0.195	0.162
-276.428	800.000	-0.084	-0.264
-275.413	-49.966	-0.037	0.018
-274.399	-91.924	0.298	0.085
-273.384	-200.000	-0.002	0.224
-272.370	800.000	0.007	0.028
-271.355	-86.192	-0.034	-0.011
-270.340	26.745	0.105	-0.089
-269.326	-143.243	-0.076	-0.007
-268.311	-200.000	0.009	-0.110
-267.297	9.152	-0.299	0.228
-266.282	-58.876	0.210	0.092
-265.267	-16.744	0.309	-0.197
-264.253	212.714	-0.111	-0.177
-263.238	-87.239	0.280	-0.086
-262.224	73.753	0.250	-0.264
-261.209	800.000	0.072	-0.260
-260.195	800.000	-0.033	0.132
-259.180	-200.000	0.004	0.049
-258.165	25.497	0.070	0.059
-257.151	156.007	0.271	0.378
-256.136	-79.835	-0.192	0.065
-255.122	-73.018	0.221	-0.082
-254.107	-38.048	-0.047	0.025
-253.092	-25.617	-0.145	0.086
-252.078	125.962	-0.006	-0.008
-251.063	65.120	0.170	0.173
-250.049	225.335	0.203	0.332
-249.034	465.025	0.097	-0.219
-248.019	-85.503	-0.218	0.069
-247.005	11.330	-0.065	0.050
-245.990	-200.000	-0.001	0.092
-244.976	-159.201	-0.068	0.004
-243.961	-200.000	-0.033	0.213
-242.946	150.411	0.208	-0.285
-241.932	-151.670	0.164	-0.012
-240.917	-200.000	0.009	-0.069
-239.903	291.014	-0.221	-0.405
-238.888	637.239	-0.200	0.513
-237.873	-200.000	0.041	0.304
-236.859	-132.184	0.111	0.015
-235.844	32.235	0.193	-0.168
-234.830	-200.000	-0.026	0.180
-233.815	294.894	-0.068	0.126
-232.800	498.216	0.080	-0.186
-231.786	348.453	0.010	-0.020
-230.771	-1.759	-0.012	0.008
-229.757	-85.563	-0.158	-0.050
-228.742	119.742	-0.249	0.311
-227.727	-51.911	-0.257	0.121
-226.713	-119.627	-0.155	-0.027
-225.698	60.295	0.220	-0.219
-224.684	55.417	0.307	-0.300
-223.669	-200.000	-0.033	0.149
-222.655	800.000	-0.056	-0.214
-221.640	14.695	0.035	0.028
-220.625	124.562	-0.133	0.169
-219.611	-97.398	-0.230	-0.060
-218.596	321.631	0.012	-0.023
-217.582	-46.617	-0.064	0.032
-216.567	160.403	-0.143	0.201
-215.552	113.959	-0.064	-0.079
-214.538	203.894	0.189	0.295
-213.523	178.242	0.184	0.270
-212.509	-123.388	0.137	0.022
-211.494	800.000	-0.085	0.262
-210.479	800.000	-0.032	-0.095
-209.465	-71.998	0.106	0.040
-208.450	56.766	-0.249	-0.244
-207.436	800.000	0.048	-0.138
-206.421	108.325	0.064	-0.077
-205.406	18.592	0.153	0.123
-204.392	44.145	-0.063	-0.058
-203.377	147.143	0.167	0.227
-202.363	244.911	0.085	-0.143
-201.348	572.926	-0.052	-0.129
-200.333	-91.809	0.521	-0.149
-199.319	570.741	0.049	-0.121
-198.304	-200.000	-0.024	-0.135
-197.290	124.062	0.072	-0.092
-196.275	-80.790	-0.066	0.022
-195.260	-58.237	0.179	0.078
-194.246	46.427	-0.057	0.053
-193.231	-72.205	0.159	0.060
-192.217	-174.619	0.129	0.004
-191.202	42.907	0.232	-0.213
-190.187	347.082	0.091	0.181
-189.173	-21.724	0.126	0.077
-188.158	-3.862	0.114	-0.080
-187.144	-200.000	0.021	0.106
-186.129	781.960	0.129	0.357
-185.114	-200.000	-0.019	0.296
-184.100	800.000	0.049	0.167
-183.085	-108.794	-0.212	-0.046
-182.071	800.000	-0.155	-0.493
-181.056	-35.093	-0.269	-0.148
-180.042	-36.981	0.113	0.061
-179.027	-200.000	0.019	-0.188
-178.012	-200.000	0.058	-0.274
-176.998	-167.006	0.329	-0.014
-175.983	227.324	0.105	0.171
-174.969	-10.713	0.120	-0.080
-173.954	232.281	-0.114	0.189
-172.939	572.909	-0.097	-0.238
-171.925	335.484	-0.230	-0.449
-170.910	70.997	0.179	-0.187
-169.896	-200.000	0.022	0.193
-168.881	-200.000	-0.024	-0.186
-167.866	386.156	-0.239	0.496
-166.852	352.495	0.063	0.126
-165.837	-78.674	-0.118	-0.041
-164.823	187.506	0.215	-0.323
-163.808	472.929	-0.105	-0.237
-162.793	-102.384	0.266	-0.064
-161.779	-200.000	0.016	-0.177
-160.764	-200.000	-0.012	-0.206
-159.750	7.649	0.224	-0.168
-158.735	-182.177	-0.277	-0.005
-157.720	-2.768	-0.059	0.041
-156.706	800.000	-0.090	-0.352
-155.691	-156.489	-0.267	-0.017
-154.677	-200.000	0.007	-0.365
-153.662	516.124	-0.116	-0.273
-152.647	-200.000	0.026	0.196
-151.633	-104.811	0.303	0.070
-150.618	-9.881	-0.176	-0.118
-149.604	19.252	0.239	-0.193
-148.589	116.076	0.100	-0.123
-147.574	339.633	-0.122	0.238
-146.560	-55.974	0.105	-0.047
-145.545	383.144	0.144	0.298
-144.531	-187.243	0.274	-0.004
-143.516	23.948	-0.087	-0.072
-142.502	87.796	-0.240	-0.268
-141.487	500.755	0.085	-0.198
-140.472	-31.793	0.100	0.056
-139.458	176.485	0.129	0.189
-138.443	800.000	-0.089	0.248
-137.429	-200.000	-0.011	-0.052
-136.414	-29.804	0.266	0.153
-135.399	-117.587	-0.105	0.019
-134.385	-200.000	0.013	-0.120
-133.370	800.000	-0.056	-0.196
-132.356	-14.728	-0.177	-0.114
-131.341	-57.308	-0.095	-0.042
-130.326	206.003	0.152	0.237
-129.312	-64.379	-0.310	0.127
-128.297	800.000	0.038	0.114
-127.283	-9.159	0.255	0.171
-126.268	-200.000	0.005	-0.169
-125.253	528.167	-0.059	0.139
-124.239	329.082	0.029	-0.057
-123.224	800.000	0.019	0.081
-122.210	-200.000	0.067	-0.358
-121.195	-74.552	0.191	0.069
-120.180	-67.633	0.157	0.062
-119.166	-189.335	0.150	0.002
-118.151	631.781	0.055	0.140
-117.137	-61.924	0.072	-0.030
-116.122	-60.537	-0.095	0.040
-115.107	800.000	-0.011	-0.041
-114.093	90.443	0.128	-0.143
-113.078	60.288	-0.230	0.229
-112.064	-53.774	0.230	0.106
-111.049	800.000	0.059	0.230
-110.034	123.419	0.166	0.209
-109.020	-60.647	-0.345	-0.147
-108.005	-200.000	-0.031	-0.162
-106.991	81.466	-0.194	0.210
-105.976	-54.290	0.177	0.081
-104.962	-200.000	0.060	-0.572
-103.947	309.735	-0.139	-0.261
-102.932	152.388	0.137	-0.188
-101.918	622.147	0.125	0.317
-100.903	-2.467	-0.098	0.069
-99.889	66.904	0.066	-0.067
-98.874	325.181	-0.161	0.310
-97.859	-90.347	-0.184	0.053
-96.845	267.321	0.162	0.284
-95.830	-200.000	0.009	0.390
-94.816	-200.000	-0.032	-0.174
-93.801	67.469	0.185	0.189
-92.786	-84.166	-0.093	0.029
-91.772	-88.901	0.338	-0.101
-90.757	-100.502	-0.214	0.053
-89.743	800.000	-0.059	-0.208
-88.728	63.592	-0.373	-0.376
-87.713	57.125	0.015	-0.015
-86.699	370.457	0.159	-0.323
-85.684	800.000	-0.080	0.266
-84.670	278.363	-0.117	0.210
-83.655	-137.298	0.340	0.039
-82.640	368.683	-0.066	-0.133
-81.626	35.275	-0.192	-0.169
-80.611	87.062	0.104	-0.116
-79.597	607.070	0.013	0.032
-78.582	-200.000	0.003	0.042
-77.567	-200.000	-0.054	-0.328
-76.553	61.590	0.316	0.315
-75.538	-200.000	-0.010	-0.179
-74.524	-81.560	0.314	0.103
-73.509	-28.337	-0.102	0.059
-72.494	-200.000	0.020	-0.274
-71.480	478.606	0.095	0.215
-70.465	-4.022	-0.104	-0.072
-69.451	-30.448	0.064	0.036
-68.436	136.430	-0.108	-0.141
-67.422	-200.000	0.074	0.380
-66.407	138.728	0.100	-0.131
-65.392	-166.504	-0.114	-0.005
-64.378	-200.000	-0.023	0.198
-63.363	-159.787	0.181	-0.010
-62.349	254.590	-0.042	0.072
-61.334	32.367	-0.746	-0.646
-60.319	-107.423	0.090	0.020
-59.305	-200.000	0.035	-0.610
-58.290	800.000	0.317	0.899
-57.276	800.000	0.550	1.595
-56.261	-200.000	73.539	554.422
-55.246	539.520	1326.296	3161.672
-54.232	133.960	2594.782	3366.568
-53.217	108.981	2411.417	2888.948
-52.203	50.137	2145.778	2029.475
-51.188	44.882	2052.684	1892.732
-50.173	43.140	2033.413	1858.850
-49.159	55.139	2069.530	2003.441
-48.144	60.774	2089.917	2075.364
-47.130	45.803	2055.462	1903.549
-46.115	43.025	2043.844	1867.025
-45.100	42.896	2041.819	1863.902
-44.086	42.913	2039.176	1861.575
-43.071	42.812	2036.732	1858.338
-42.057	42.784	2034.703	1856.153
-41.042	42.762	2033.211	1854.513
-40.027	42.808	2031.155	1852.987
-39.013	42.917	2028.494	1851.494
-37.998	42.864	2026.678	1849.273
-36.984	42.872	2024.413	1847.209
-35.969	42.913	2022.969	1846.196
-34.954	42.961	2020.757	1844.540
-33.940	42.905	2019.691	1842.984
-32.925	42.844	2018.139	1840.935
-31.911	42.943	2016.201	1840.000
-30.896	42.896	2014.714	1838.139
-29.881	42.991	2012.379	1836.801
-28.867	43.018	2010.455	1835.222
-27.852	42.923	2009.119	1833.064
-26.838	42.925	2007.033	1831.099
-25.823	43.015	2004.909	1829.906
-24.809	42.989	2003.483	1828.300
-23.794	42.997	2001.880	1826.836
-22.779	43.027	1999.697	1825.048
-21.765	42.961	1998.667	1823.434
-20.750	42.974	1997.170	1822.118
-19.736	42.972	1995.117	1820.148
-18.721	42.950	1994.332	1819.159
-17.706	42.927	1992.113	1816.862
-16.692	42.950	1989.888	1814.968
-15.677	42.968	1988.073	1813.402
-14.663	42.966	1986.805	1812.149
-13.648	42.901	1985.817	1810.595
-12.633	42.902	1984.930	1809.722
-11.619	42.944	1983.131	1808.394
-10.604	43.013	1981.430	1807.387
-9.590	42.931	1980.247	1805.504
-8.575	42.991	1978.355	1804.241
-7.560	42.933	1976.985	1802.401
-6.546	42.916	1975.822	1801.118
-5.531	42.923	1974.033	1799.478
-4.517	42.912	1973.342	1798.675
-3.502	42.887	1971.990	1797.150
-2.487	42.917	1970.853	1796.309
-1.473	42.968	1969.393	1795.364
-0.458	43.058	1965.988	1792.988
0.556	41.745	1947.618	1771.195
1.571	37.462	1925.957	1713.700
2.586	31.540	1942.673	1675.570
3.600	28.428	1976.485	1676.180
4.615	26.779	1971.772	1656.979
5.629	20.358	1865.980	1512.204
6.644	8.281	1733.668	1306.539
7.659	1.186	1687.021	1214.603
8.673	0.531	1682.329	1205.882
9.688	0.341	1681.063	1203.351
10.702	0.309	1679.365	1201.778
11.717	0.210	1676.852	1199.082
12.731	0.737	1676.497	1202.916
13.746	7.818	1692.383	1270.933
14.761	16.384	1709.562	1352.583
15.775	18.177	1710.927	1367.896
16.790	17.166	1707.567	1357.013
17.804	16.135	1704.220	1346.007
18.819	15.104	1701.105	1335.215
19.834	14.495	1698.194	1327.959
20.848	14.228	1696.124	1324.105
21.863	13.845	1694.235	1319.465
22.877	13.520	1693.040	1315.841
23.892	13.360	1691.386	1313.166
24.907	13.251	1691.186	1312.029
25.921	13.281	1689.718	1311.015
26.936	13.269	1688.700	1310.009
27.950	13.309	1687.702	1309.438
28.965	13.360	1687.505	1309.569
29.980	13.307	1686.605	1308.334
30.994	13.435	1685.649	1308.491
32.009	13.500	1684.624	1308.098
33.023	13.430	1683.951	1306.906
34.038	13.514	1682.872	1306.610
35.053	13.493	1682.195	1305.805
36.067	13.511	1680.267	1304.333
37.082	13.469	1679.803	1303.530
38.096	13.415	1678.976	1302.345
39.111	13.462	1677.927	1301.786
40.126	13.458	1677.296	1301.153
41.140	13.479	1676.060	1300.243
42.155	13.317	1675.047	1298.071
43.169	13.374	1673.391	1297.120
44.184	13.194	1672.766	1295.111
45.199	13.248	1671.185	1294.197
46.213	13.326	1669.640	1293.491
47.228	13.287	1668.786	1292.411
48.242	13.320	1667.673	1291.698
49.257	13.323	1666.682	1290.832
50.271	13.313	1665.534	1289.751
51.286	13.324	1664.379	1288.834
52.301	13.409	1662.767	1288.127
53.315	13.430	1661.228	1286.990
54.330	13.431	1659.644	1285.654
55.344	13.312	1658.591	1283.800
56.359	13.330	1656.557	1282.252
57.374	13.336	1655.235	1281.159
58.388	13.340	1654.068	1280.176
59.403	13.262	1653.182	1278.776
60.417	13.285	1651.571	1277.590
61.432	13.159	1650.587	1275.745
62.447	13.215	1649.241	1275.026
63.461	13.266	1647.752	1274.153
64.476	13.171	1646.616	1272.430
65.490	13.144	1646.013	1271.645
66.505	13.123	1644.408	1270.128
67.520	13.209	1643.224	1269.762
68.534	13.251	1642.120	1269.125
69.549	13.254	1641.347	1268.436
70.563	13.276	1640.041	1267.480
71.578	13.303	1638.478	1266.371
72.593	13.239	1637.392	1264.931
73.607	13.138	1636.972	1263.718
74.622	13.165	1635.354	1262.564
75.636	13.146	1634.521	1261.661
76.651	13.116	1634.014	1260.931
77.666	13.063	1632.846	1259.515
78.680	13.118	1631.399	1258.707
79.695	13.183	1630.622	1258.488
80.709	13.235	1629.829	1258.166
81.724	13.210	1629.084	1257.289
82.739	13.281	1628.229	1257.051
83.753	13.273	1627.106	1256.014
84.768	13.377	1625.992	1255.833
85.782	13.368	1625.510	1255.285
86.797	13.395	1624.774	1254.811
87.812	13.419	1623.510	1253.903
88.826	13.374	1622.482	1252.655
89.841	13.320	1621.302	1251.225
90.855	13.333	1620.110	1250.295
91.870	13.361	1619.300	1249.769
92.884	13.440	1617.980	1249.240
93.899	13.406	1617.409	1248.432
94.914	13.367	1615.577	1246.610
95.928	13.458	1614.217	1246.137
96.943	13.422	1613.057	1244.862
97.957	13.455	1611.582	1243.856
98.972	13.352	1610.435	1242.094
99.987	13.454	1608.627	1241.354
101.001	13.466	1606.861	1239.970
102.016	13.449	1605.494	1238.676
103.030	13.420	1603.899	1237.119
104.045	13.476	1603.363	1237.018
105.060	13.406	1601.736	1235.130
106.074	13.393	1600.820	1234.215
107.089	13.320	1598.932	1232.107
108.103	13.245	1597.434	1230.287
109.118	13.175	1595.855	1228.438
110.133	13.218	1594.594	1227.677
111.147	13.268	1593.069	1226.766
112.162	13.283	1591.268	1225.387
113.176	13.312	1589.568	1224.181
114.191	13.311	1588.747	1223.431
115.206	13.302	1587.636	1222.403
116.220	13.334	1586.024	1221.290
117.235	13.276	1585.283	1220.186
118.249	13.395	1583.966	1219.939
119.264	13.373	1581.739	1217.956
120.279	13.245	1581.010	1216.346
121.293	13.296	1579.593	1215.518
122.308	13.314	1578.338	1214.580
123.322	13.344	1576.336	1213.155
124.337	13.281	1575.436	1211.892
125.352	13.336	1573.502	1210.694
126.366	13.367	1572.421	1209.985
127.381	13.303	1571.389	1208.614
128.395	13.276	1570.255	1207.437
129.410	13.349	1568.680	1206.655
130.424	13.257	1568.082	1205.418
131.439	13.374	1566.586	1205.014
132.454	13.359	1565.433	1203.913
133.468	13.349	1564.008	1202.636
134.483	13.418	1562.356	1201.758
135.497	13.434	1560.985	1200.715
136.512	13.449	1560.002	1199.958
137.527	13.463	1558.239	1198.602
138.541	13.357	1557.097	1196.852
139.556	13.461	1555.485	1196.256
140.570	13.479	1554.616	1195.609
141.585	13.483	1552.855	1194.181
142.600	13.552	1551.609	1193.616
143.614	13.613	1550.541	1193.123
144.629	13.589	1549.492	1192.041
145.643	13.607	1547.842	1190.797
146.658	13.608	1546.588	1189.730
147.673	13.576	1545.056	1188.219
148.687	13.464	1544.064	1186.545
149.702	13.555	1542.421	1185.833
150.716	13.517	1540.615	1184.070
151.731	13.533	1538.740	1182.632
152.746	13.531	1537.549	1181.599
153.760	13.395	1536.140	1179.445
154.775	13.552	1534.757	1179.396
155.789	13.597	1533.787	1178.867
156.804	13.605	1532.520	1177.846
157.819	13.601	1531.374	1176.830
158.833	13.644	1529.853	1175.863
159.848	13.703	1528.630	1175.237
160.862	13.725	1527.454	1174.386
161.877	13.687	1526.534	1173.306
162.892	13.686	1525.506	1172.401
163.906	13.689	1523.792	1171.007
164.921	13.551	1522.901	1169.241
165.935	13.632	1521.762	1168.837
166.950	13.675	1520.386	1167.977
167.964	13.592	1519.756	1166.803
168.979	13.704	1518.464	1166.499
169.994	13.769	1516.822	1165.594
171.008	13.698	1515.903	1164.282
172.023	13.680	1515.007	1163.364
173.037	13.695	1514.186	1162.737
174.052	13.748	1512.798	1161.942
175.067	13.835	1511.453	1161.414
176.081	13.780	1510.286	1160.032
177.096	13.669	1509.525	1158.563
178.110	13.675	1507.909	1157.268
179.125	13.640	1506.463	1155.811
180.140	13.787	1505.334	1155.862
181.154	13.795	1503.969	1154.773
182.169	13.751	1503.493	1153.995
183.183	13.676	1502.310	1152.464
184.198	13.747	1501.238	1152.036
185.213	13.881	1499.856	1151.798
186.227	13.861	1498.579	1150.578
187.242	13.960	1497.444	1150.295
188.256	13.963	1496.351	1149.372
189.271	13.897	1495.853	1148.431
190.286	13.924	1494.562	1147.523
191.300	13.910	1493.533	1146.537
192.315	13.852	1491.727	1144.649
193.329	13.750	1491.376	1143.576
194.344	13.797	1489.498	1142.354
195.359	13.812	1488.841	1141.857
196.373	13.871	1487.912	1141.446
197.388	13.986	1486.225	1140.844
198.402	13.921	1486.083	1140.185
199.417	14.018	1484.289	1139.373
200.432	14.093	1483.407	1139.106
201.446	14.109	1482.386	1138.332
202.461	14.123	1481.229	1137.442
203.475	14.140	1479.934	1136.460
204.490	14.204	1478.948	1136.042
205.504	14.150	1477.952	1134.806
206.519	14.092	1476.545	1133.234
207.534	14.187	1475.323	1132.836
208.548	14.217	1474.182	1132.065
209.563	14.184	1473.067	1130.887
210.577	14.157	1472.355	1130.060
211.592	14.136	1471.345	1129.037
212.607	14.222	1470.607	1128.955
213.621	14.280	1469.994	1128.781
214.636	14.244	1469.260	1127.870
215.650	14.182	1468.382	1126.674
216.665	14.255	1467.284	1126.232
217.680	14.214	1466.944	1125.590
218.694	14.340	1465.710	1125.396
219.709	14.276	1465.091	1124.390
220.723	14.421	1463.731	1124.226
221.738	14.323	1463.294	1123.130
222.753	14.382	1462.036	1122.462
223.767	14.428	1460.720	1121.658
224.782	14.372	1459.781	1120.463
225.796	14.443	1459.018	1120.257
226.811	14.450	1458.418	1119.741
227.826	14.361	1458.216	1118.890
228.840	14.476	1456.775	1118.459
229.855	14.462	1455.763	1117.490
230.869	14.512	1454.647	1116.867
231.884	14.520	1453.631	1116.042
232.899	14.478	1452.380	1114.705
233.913	14.392	1451.460	1113.325
234.928	14.403	1449.957	1112.147
235.942	14.482	1448.609	1111.537
236.957	14.446	1447.245	1110.153
237.972	14.465	1446.597	1109.689
238.986	14.424	1445.850	1108.742
240.001	14.345	1445.228	1107.645
241.015	14.486	1443.354	1107.042
242.030	14.570	1442.110	1106.549
243.045	14.501	1441.663	1105.652
244.059	14.578	1440.529	1105.192
245.074	14.640	1439.732	1104.893
246.088	14.644	1438.953	1104.226
247.103	14.725	1437.930	1103.879
248.117	14.683	1437.512	1103.185
249.132	14.716	1436.772	1102.735
250.147	14.712	1435.942	1101.975
251.161	14.817	1434.974	1101.824
252.176	14.892	1434.432	1101.806
253.190	14.993	1433.780	1101.875
254.205	14.972	1432.391	1100.569
255.220	15.051	1431.364	1100.201
256.234	14.969	1431.106	1099.368
257.249	14.975	1430.385	1098.756
258.263	15.040	1428.984	1098.008
259.278	15.023	1428.058	1097.091
260.293	14.977	1427.418	1096.202
261.307	14.969	1426.869	1095.627
262.322	15.054	1425.967	1095.397
263.336	15.202	1424.915	1095.455
264.351	15.099	1424.206	1094.140
265.366	15.167	1423.005	1093.567
266.380	15.098	1422.575	1092.692
267.395	15.205	1421.078	1092.139
268.409	15.187	1420.061	1091.143
269.424	15.173	1419.324	1090.389
270.439	15.143	1418.355	1089.351
271.453	15.172	1417.002	1088.407
272.468	15.283	1415.857	1088.154
273.482	15.175	1415.592	1087.154
274.497	15.178	1414.789	1086.456
275.512	15.217	1413.876	1085.910
276.526	15.146	1413.095	1084.756
277.541	15.226	1412.003	1084.343
278.555	15.247	1410.923	1083.552
279.570	15.189	1410.304	1082.609
280.585	15.272	1409.382	1082.336
281.599	15.246	1408.624	1081.490
282.614	15.302	1407.581	1080.957
283.628	15.338	1406.648	1080.379
284.643	15.345	1405.681	1079.584
285.657	15.241	1404.350	1077.796
286.672	15.203	1403.716	1076.968
287.687	15.424	1402.483	1077.350
288.701	15.364	1401.421	1076.050
289.716	15.409	1400.887	1075.836
290.730	15.371	1400.032	1074.839
291.745	15.390	1398.856	1073.963
292.760	15.511	1398.253	1074.178
293.774	15.425	1397.170	1072.701
294.789	15.437	1395.921	1071.728
295.803	15.484	1395.348	1071.494
296.818	15.504	1394.550	1070.915
297.833	15.583	1393.474	1070.491
298.847	15.465	1392.079	1068.574
299.862	15.544	1391.319	1068.400
300.876	15.551	1390.405	1067.647
301.891	15.592	1389.350	1067.007
302.906	15.740	1388.219	1066.978
303.920	15.576	1387.873	1065.578
304.935	15.605	1386.976	1064.983
305.949	15.653	1386.442	1064.778
306.964	15.700	1385.894	1064.564
307.979	15.803	1384.562	1064.100
308.993	15.836	1383.055	1063.051
310.008	15.714	1382.905	1062.076
311.022	15.707	1381.899	1061.164
312.037	15.848	1380.101	1060.577
313.052	15.813	1379.786	1060.021
314.066	15.810	1378.856	1059.193
315.081	15.740	1377.560	1057.665
316.095	15.711	1376.576	1056.632
317.110	15.677	1375.933	1055.834
318.125	15.736	1374.720	1055.177
319.139	15.661	1373.851	1053.946
320.154	15.786	1372.930	1053.933
321.168	15.732	1371.683	1052.543
322.183	15.767	1371.054	1052.187
323.197	15.907	1369.724	1051.946
324.212	15.878	1369.035	1051.145
325.227	15.797	1368.475	1050.114
326.241	15.848	1367.437	1049.542
327.256	15.816	1366.592	1048.604
328.270	15.919	1365.801	1048.543
329.285	15.807	1365.181	1047.277
330.300	15.885	1363.980	1046.747
331.314	15.890	1362.781	1045.770
332.329	15.813	1362.158	1044.722
333.343	15.909	1361.099	1044.410
334.358	15.947	1359.932	1043.658
335.373	15.942	1359.322	1043.065
336.387	16.089	1358.379	1043.162
337.402	16.002	1358.060	1042.284
338.416	16.013	1357.165	1041.575
339.431	16.087	1356.972	1041.788
340.446	16.257	1355.439	1041.572
341.460	16.113	1355.077	1040.314
342.475	16.214	1353.928	1039.963
343.489	16.221	1352.744	1039.003
344.504	16.240	1352.106	1038.536
345.519	16.231	1351.049	1037.578
346.533	16.271	1350.125	1037.021
347.548	16.310	1349.357	1036.582
348.562	16.362	1348.184	1035.906
349.577	16.365	1347.584	1035.368
350.592	16.343	1346.675	1034.449
351.606	16.296	1346.224	1033.719
352.621	16.242	1345.145	1032.472
353.635	16.287	1344.313	1032.013
354.650	16.243	1342.931	1030.593
355.665	16.204	1342.161	1029.673
356.679	16.260	1341.399	1029.340
357.694	16.336	1339.896	1028.559
358.708	16.339	1338.912	1027.733
359.723	16.394	1337.908	1027.203
360.738	16.483	1336.710	1026.734
361.752	16.410	1335.868	1025.553
362.767	16.473	1334.463	1024.767
363.781	16.435	1334.012	1024.098
364.796	16.462	1333.285	1023.611
365.810	16.441	1332.711	1022.957
366.825	16.542	1331.516	1022.555
367.840	16.511	1330.968	1021.858
368.854	16.528	1330.192	1021.274
369.869	16.622	1329.731	1021.400
370.883	16.747	1328.685	1021.256
371.898	16.610	1328.237	1020.001
372.913	16.680	1327.506	1019.765
373.927	16.756	1326.420	1019.302
374.942	16.688	1325.577	1018.152
375.956	16.707	1324.807	1017.584
376.971	16.723	1323.817	1016.832
377.986	16.716	1323.209	1016.236
379.000	16.714	1322.659	1015.711
380.015	16.827	1321.553	1015.444
381.029	16.808	1320.755	1014.632
382.044	16.812	1320.426	1014.312
383.059	16.911	1319.283	1013.938
384.073	16.936	1318.668	1013.521
385.088	16.856	1318.547	1012.862
386.102	16.882	1317.819	1012.367
387.117	16.923	1316.804	1011.742
388.132	16.830	1315.890	1010.397
389.146	16.887	1315.086	1010.030
390.161	16.849	1314.123	1008.972
391.175	16.874	1313.286	1008.392
392.190	16.991	1312.500	1008.394
393.205	16.988	1311.708	1007.680
394.219	17.024	1310.747	1007.065
395.234	17.001	1309.469	1005.858
396.248	16.945	1308.548	1004.731
397.263	16.904	1307.140	1003.320
398.278	17.056	1305.563	1002.917
399.292	16.984	1304.443	1001.541
400.307	16.968	1303.431	1000.581
401.321	16.972	1302.488	999.796
402.336	16.938	1301.787	998.967
403.350	16.993	1300.781	998.428
404.365	17.005	1300.056	997.858
405.380	17.079	1298.830	997.261
406.394	17.064	1297.711	996.227
407.409	17.047	1297.241	995.675
408.423	17.167	1296.250	995.535
409.438	17.035	1296.367	994.762
410.453	17.238	1295.163	994.938
411.467	17.240	1294.309	994.201
412.482	17.176	1294.127	993.602
413.496	17.252	1293.314	993.334
414.511	17.367	1292.162	993.036
415.526	17.254	1291.963	992.130
416.540	17.282	1291.034	991.492
417.555	17.389	1290.639	991.725
418.569	17.408	1289.771	991.083
419.584	17.421	1289.081	990.544
420.599	17.408	1288.376	989.837
421.613	71.580	1312.278	1318.440
422.628	70.992	1315.769	1318.582
