DTS Sentinel unit serial number:	SN413079Multiplexer serial number:	ORYXHardware model number:	OX4-SRSoftware version number:	ORYX F/W v4.00 Oryx Data Collector v3.7.2.0data status	okinstallation	princeton_trtdifferential loss correction	single-endedforward channel	channel 4reverse channel	N/Adate	2019/09/13time	19:37:34forward acquisition time	60.00reverse acquisition time	0.00gamma	496.2192k internal	0.2315k external	0.2315temperature offset calibration	1.0135default loss term (dB/km)	0.3790temperature slope calibration	1.0000multiplexer offset coefficient	1.0000multiplexer slope coefficient	1.0000fibre end	0.00T internal ref (°C)	30.48T ext. ref 1 (°C)	3.23T ext. ref 2 (°C)	24.41length (m)	temperature (°C)	Stokes	anti-Stokes-747.200	580.302	0.073	0.180
-746.185	703.119	0.080	0.213
-745.171	-123.628	0.325	-0.052
-744.156	-167.507	0.044	-0.002
-743.142	179.094	-0.153	0.227
-742.127	-136.487	-0.346	0.041
-741.112	659.054	0.058	0.152
-740.098	16.998	-0.223	0.179
-739.083	-119.484	-0.299	-0.053
-738.069	-101.686	-0.066	-0.016
-737.054	-29.235	-0.115	0.067
-736.039	-51.152	-0.097	-0.046
-735.025	-2.096	-0.100	-0.071
-734.010	0.010	0.153	0.111
-732.996	-135.156	-0.203	0.025
-731.981	-76.690	0.209	-0.074
-730.966	152.061	0.098	0.136
-729.952	161.994	0.109	-0.155
-728.937	-200.000	-0.003	0.168
-727.923	327.780	-0.126	-0.244
-726.908	-153.545	-0.264	-0.019
-725.894	-127.882	-0.455	-0.066
-724.879	-127.642	-0.257	-0.038
-723.864	-200.000	0.002	0.217
-722.850	-200.000	0.018	0.269
-721.835	-126.610	-0.201	0.030
-720.821	57.382	0.223	0.221
-719.806	537.443	0.067	-0.162
-718.791	-43.570	-0.232	0.118
-717.777	800.000	-0.086	0.247
-716.762	-4.264	0.223	-0.156
-715.748	-2.347	-0.094	-0.067
-714.733	733.126	0.042	0.115
-713.718	25.387	-0.271	0.228
-712.704	-128.708	-0.274	-0.039
-711.689	800.000	-0.104	-0.304
-710.675	-200.000	-0.001	-0.151
-709.660	351.070	-0.214	0.428
-708.645	144.068	0.135	0.182
-707.631	-96.998	0.403	-0.107
-706.616	50.937	-0.211	0.202
-705.602	532.918	0.125	-0.299
-704.587	-137.911	-0.151	-0.017
-703.572	-200.000	-0.029	0.227
-702.558	-106.058	0.192	-0.044
-701.543	-130.087	-0.238	-0.033
-700.529	-200.000	-0.003	0.077
-699.514	-200.000	-0.007	0.081
-698.499	-56.874	-0.081	0.036
-697.485	800.000	0.098	-0.375
-696.470	546.535	-0.075	-0.181
-695.456	76.961	-0.220	-0.236
-694.441	356.095	-0.126	-0.254
-693.426	36.448	0.192	-0.171
-692.412	10.914	0.192	-0.149
-691.397	77.404	0.204	-0.220
-690.383	-14.174	-0.235	-0.153
-689.368	-200.000	-0.039	0.257
-688.354	194.139	-0.082	-0.125
-687.339	-133.367	-0.071	0.009
-686.324	82.593	0.167	-0.183
-685.310	-200.000	-0.045	-0.300
-684.295	405.636	0.089	0.189
-683.281	300.417	0.264	-0.493
-682.266	-200.000	-0.024	0.238
-681.251	800.000	-0.066	-0.197
-680.237	-200.000	0.031	0.180
-679.222	-69.698	0.133	0.051
-678.208	-48.016	0.227	-0.111
-677.193	-1.184	0.166	-0.119
-676.178	0.752	0.121	0.088
-675.164	-158.862	0.275	0.016
-674.149	-30.457	-0.321	0.184
-673.135	-88.265	0.310	0.094
-672.120	70.380	-0.072	-0.075
-671.105	265.858	-0.061	-0.107
-670.091	-169.692	0.159	0.006
-669.076	-48.898	-0.153	0.074
-668.062	18.772	0.178	0.144
-667.047	-102.590	-0.259	0.062
-666.032	-200.000	-0.038	0.348
-665.018	-200.000	-0.001	-0.042
-664.003	134.687	0.192	-0.252
-662.989	-200.000	0.025	-0.140
-661.974	555.684	-0.130	0.316
-660.959	-48.408	0.372	0.181
-659.945	-170.049	0.284	-0.010
-658.930	-127.313	-0.390	-0.057
-657.916	196.834	-0.200	0.309
-656.901	-21.401	0.139	-0.085
-655.886	4.514	-0.126	0.093
-654.872	-200.000	-0.003	0.048
-653.857	-98.583	0.209	-0.054
-652.843	152.101	0.241	-0.332
-651.828	-107.676	-0.204	0.045
-650.814	-34.424	0.129	0.071
-649.799	127.809	0.131	-0.168
-648.784	-197.057	0.436	-0.003
-647.770	800.000	0.070	0.230
-646.755	-200.000	0.009	-0.051
-645.741	164.400	-0.102	0.145
-644.726	250.090	-0.099	-0.169
-643.711	240.573	0.129	-0.217
-642.697	800.000	-0.111	-0.321
-641.682	121.098	0.032	0.040
-640.668	800.000	0.032	0.124
-639.653	636.570	0.124	0.318
-638.638	-200.000	0.027	-0.190
-637.624	800.000	0.085	0.243
-636.609	729.589	-0.075	0.202
-635.595	301.566	-0.102	0.189
-634.580	-161.966	0.472	-0.024
-633.565	621.995	0.190	0.482
-632.551	-104.735	0.213	-0.049
-631.536	575.703	-0.126	-0.310
-630.522	800.000	-0.053	-0.225
-629.507	800.000	0.097	-0.379
-628.492	252.871	0.140	-0.240
-627.478	-118.162	-0.383	0.069
-626.463	-118.796	0.308	-0.055
-625.449	69.705	-0.084	-0.087
-624.434	331.447	-0.071	-0.138
-623.419	-84.812	-0.160	-0.051
-622.405	-200.000	-0.160	-0.000
-621.390	800.000	0.094	0.275
-620.376	40.382	0.328	-0.298
-619.361	61.508	0.234	0.235
-618.346	27.360	-0.103	0.088
-617.332	-131.913	-0.247	0.032
-616.317	439.794	-0.041	0.089
-615.303	589.750	-0.079	0.197
-614.288	8.721	-0.088	-0.067
-613.273	771.808	0.049	0.134
-612.259	-145.040	-0.389	0.036
-611.244	39.502	0.295	0.266
-610.230	305.427	0.064	-0.119
-609.215	800.000	-0.054	0.159
-608.201	-103.125	0.036	-0.009
-607.186	330.121	-0.052	0.101
-606.171	-200.000	-0.001	-0.108
-605.157	-129.894	-0.286	-0.040
-604.142	79.539	0.225	0.243
-603.128	746.732	-0.034	-0.091
-602.113	-56.120	0.134	0.060
-601.098	800.000	-0.047	-0.163
-600.084	800.000	0.069	-0.293
-599.069	-114.725	0.064	-0.012
-598.055	-6.734	0.210	-0.144
-597.040	155.369	0.170	-0.235
-596.025	5.607	-0.210	0.156
-595.011	284.924	-0.172	-0.311
-593.996	-159.678	0.128	-0.007
-592.982	-14.295	0.209	0.135
-591.967	-200.000	0.033	-0.197
-590.952	161.716	0.136	0.192
-589.938	141.670	0.143	-0.191
-588.923	-142.508	0.073	-0.007
-587.909	800.000	-0.055	-0.185
-586.894	-47.498	0.221	-0.108
-585.879	793.190	0.145	0.402
-584.865	441.174	0.136	-0.300
-583.850	800.000	0.029	0.107
-582.836	-72.283	0.108	0.040
-581.821	-61.288	-0.092	0.039
-580.806	-127.554	-0.132	-0.019
-579.792	-37.643	0.155	0.083
-578.777	-84.647	-0.151	0.048
-577.763	800.000	-0.040	-0.153
-576.748	248.490	0.123	0.209
-575.733	-101.815	-0.172	-0.042
-574.719	-75.820	-0.308	0.110
-573.704	-68.738	0.060	-0.023
-572.690	-200.000	-0.015	0.194
-571.675	583.885	-0.110	-0.271
-570.661	133.280	-0.222	0.289
-569.646	224.787	-0.071	-0.116
-568.631	8.274	-0.151	-0.114
-567.617	671.116	0.014	-0.035
-566.602	800.000	0.048	-0.209
-565.588	-6.183	-0.365	-0.251
-564.573	-78.658	-0.136	0.047
-563.558	242.751	0.162	-0.274
-562.544	-96.285	0.135	-0.036
-561.529	161.354	0.127	-0.178
-560.515	-195.989	0.207	-0.001
-559.500	-154.738	0.427	-0.028
-558.485	800.000	0.069	-0.301
-557.471	-112.247	-0.338	0.068
-556.456	435.126	0.087	0.191
-555.442	264.866	-0.142	0.249
-554.427	-13.373	-0.440	-0.287
-553.412	-13.528	-0.343	-0.224
-552.398	800.000	-0.044	-0.146
-551.383	-57.833	0.157	-0.069
-550.369	-21.964	-0.032	0.019
-549.354	-200.000	0.014	0.113
-548.339	-107.440	-0.179	-0.039
-547.325	436.225	0.119	0.260
-546.310	610.201	-0.001	-0.001
-545.296	-40.411	-0.188	-0.098
-544.281	-91.654	0.292	0.084
-543.266	-1.989	0.209	0.148
-542.252	79.856	0.040	0.043
-541.237	-66.792	0.114	-0.045
-540.223	800.000	0.044	-0.190
-539.208	730.638	-0.051	0.137
-538.193	-54.553	0.210	0.095
-537.179	-200.000	-0.010	-0.126
-536.164	199.773	-0.030	-0.047
-535.150	-200.000	0.020	-0.182
-534.135	19.857	-0.164	-0.133
-533.121	334.850	-0.165	-0.322
-532.106	800.000	0.064	0.250
-531.091	-23.640	0.070	0.042
-530.077	-200.000	-0.002	-0.139
-529.062	615.502	0.052	0.130
-528.048	75.834	0.123	-0.130
-527.033	23.357	0.021	0.017
-526.018	-41.164	0.142	-0.074
-525.004	-20.571	-0.074	-0.046
-523.989	-132.405	0.406	-0.053
-522.975	-19.405	-0.297	0.185
-521.960	-128.397	0.130	-0.019
-520.945	-127.240	-0.129	0.019
-519.931	144.172	0.135	0.180
-518.916	379.923	-0.087	0.179
-517.902	37.610	-0.174	0.155
-516.887	98.202	-0.207	0.239
-515.872	-22.885	-0.268	-0.162
-514.858	-20.402	-0.165	0.102
-513.843	-186.562	0.175	-0.003
-512.829	-5.340	-0.254	-0.175
-511.814	-13.415	-0.183	-0.119
-510.799	-22.952	0.381	-0.231
-509.785	47.782	0.287	-0.269
-508.770	236.401	-0.061	0.102
-507.756	-200.000	0.046	-0.394
-506.741	-103.182	-0.369	-0.087
-505.726	16.780	-0.223	-0.177
-504.712	-29.978	0.180	0.103
-503.697	263.770	-0.196	0.342
-502.683	-35.876	-0.098	0.053
-501.668	-200.000	-0.030	0.396
-500.653	800.000	-0.021	0.068
-499.639	-200.000	0.005	0.132
-498.624	-55.107	-0.210	-0.095
-497.610	-200.000	0.025	-0.129
-496.595	-11.542	0.143	-0.094
-495.581	-144.352	0.200	0.019
-494.566	109.927	-0.102	-0.123
-493.551	-121.004	0.145	-0.024
-492.537	264.458	-0.027	0.048
-491.522	-30.221	0.065	0.037
-490.508	-61.076	0.281	0.119
-489.493	399.256	-0.115	-0.242
-488.478	-141.961	0.139	-0.014
-487.464	62.725	0.114	-0.115
-486.449	233.944	0.044	-0.073
-485.435	62.112	0.173	-0.174
-484.420	-36.856	-0.183	0.099
-483.405	-127.037	-0.294	-0.043
-482.391	41.681	0.207	-0.188
-481.376	251.504	-0.038	0.065
-480.362	800.000	-0.053	0.206
-479.347	-200.000	-0.024	0.320
-478.332	270.275	0.157	-0.277
-477.318	800.000	0.012	0.040
-476.303	-84.495	-0.477	-0.151
-475.289	-124.850	-0.172	-0.027
-474.274	278.159	-0.279	0.498
-473.259	-200.000	0.016	0.084
-472.245	-200.000	0.063	0.000
-471.230	613.023	0.028	-0.071
-470.216	-200.000	0.065	0.348
-469.201	-87.014	-0.124	0.038
-468.186	285.909	0.138	-0.250
-467.172	-200.000	-0.041	-0.283
-466.157	-200.000	-0.023	0.225
-465.143	329.579	-0.099	0.190
-464.128	79.498	-0.129	0.139
-463.113	-190.103	0.317	-0.004
-462.099	147.237	0.082	-0.110
-461.084	800.000	-0.046	-0.163
-460.070	-154.199	0.326	0.022
-459.055	538.993	-0.041	-0.097
-458.040	-145.105	0.368	-0.034
-457.026	42.652	0.183	0.167
-456.011	38.360	-0.070	0.062
-454.997	-200.000	-0.009	0.285
-453.982	19.632	0.115	0.092
-452.968	-65.118	0.113	0.046
-451.953	-104.627	0.205	0.047
-450.938	61.414	0.159	0.158
-449.924	800.000	-0.040	-0.140
-448.909	20.766	-0.173	-0.141
-447.895	-191.772	-0.137	-0.001
-446.880	-100.937	-0.288	0.071
-445.865	-200.000	-0.029	-0.196
-444.851	-200.000	0.015	-0.211
-443.836	-200.000	0.012	-0.253
-442.822	1.322	-0.193	0.139
-441.807	-13.886	-0.076	0.049
-440.792	228.957	0.073	0.120
-439.778	-200.000	-0.034	-0.319
-438.763	231.963	0.237	-0.389
-437.749	52.372	-0.090	-0.086
-436.734	689.477	-0.107	0.281
-435.719	-200.000	0.004	-0.261
-434.705	800.000	-0.068	-0.263
-433.690	24.160	0.273	-0.226
-432.676	-65.302	-0.329	-0.133
-431.661	-12.247	-0.198	0.130
-430.646	800.000	0.051	-0.148
-429.632	-200.000	-0.017	0.094
-428.617	-162.933	0.402	-0.020
-427.603	-175.696	-0.296	0.008
-426.588	156.464	0.086	0.118
-425.573	-134.668	-0.281	-0.034
-424.559	-172.771	-0.366	0.011
-423.544	-69.391	-0.270	0.104
-422.530	13.020	0.128	-0.099
-421.515	6.846	-0.236	0.176
-420.500	-200.000	0.081	-0.375
-419.486	-78.569	0.216	0.074
-418.471	45.046	-0.162	-0.149
-417.457	-154.059	0.270	0.018
-416.442	731.329	-0.065	-0.175
-415.428	-120.552	0.200	-0.034
-414.413	38.825	-0.237	-0.212
-413.398	291.843	-0.160	-0.292
-412.384	-137.315	-0.368	-0.042
-411.369	225.798	0.150	-0.242
-410.355	-93.124	-0.131	0.036
-409.340	366.240	0.111	0.224
-408.325	800.000	-0.113	0.452
-407.311	114.256	-0.079	0.096
-406.296	-200.000	0.042	-0.233
-405.282	-14.101	-0.071	0.046
-404.267	-77.845	-0.361	-0.125
-403.252	-7.584	0.093	-0.063
-402.238	187.875	0.099	0.148
-401.223	-200.000	0.002	-0.119
-400.209	-141.012	0.070	0.007
-399.194	800.000	-0.072	0.250
-398.179	-36.207	0.313	0.169
-397.165	660.757	0.039	-0.101
-396.150	-200.000	-0.002	-0.012
-395.136	-106.101	-0.145	-0.033
-394.121	-104.101	0.408	-0.095
-393.106	13.422	-0.169	0.131
-392.092	-200.000	0.005	-0.062
-391.077	94.697	0.032	-0.036
-390.063	22.338	-0.238	0.194
-389.048	54.572	0.165	0.159
-388.033	-77.713	-0.067	0.023
-387.019	-167.330	-0.100	-0.004
-386.004	-15.486	-0.408	0.260
-384.990	-95.899	-0.239	-0.064
-383.975	-114.305	0.191	-0.037
-382.960	-71.250	-0.097	0.036
-381.946	102.158	0.246	-0.287
-380.931	239.263	0.095	0.157
-379.917	239.735	0.158	-0.262
-378.902	-24.656	0.312	-0.185
-377.888	226.980	0.104	0.169
-376.873	-2.823	-0.174	-0.122
-375.858	641.470	0.139	0.353
-374.844	732.324	0.090	0.241
-373.829	138.052	0.216	-0.283
-372.815	800.000	-0.054	0.206
-371.800	185.874	0.074	-0.110
-370.785	6.419	-0.256	-0.190
-369.771	-27.664	0.194	0.113
-368.756	51.672	0.044	0.041
-367.742	48.532	0.191	0.179
-366.727	771.698	-0.125	-0.339
-365.712	-200.000	0.000	-0.050
-364.698	-98.040	0.092	0.024
-363.683	249.013	-0.129	0.217
-362.669	-18.949	0.078	0.048
-361.654	-158.459	0.208	0.012
-360.639	433.878	0.117	0.253
-359.625	66.404	-0.214	0.217
-358.610	106.885	-0.012	0.015
-357.596	127.208	0.067	0.084
-356.581	90.490	0.070	-0.078
-355.566	-200.000	0.005	0.029
-354.552	-200.000	0.040	0.376
-353.537	-123.778	-0.145	-0.023
-352.523	458.482	0.170	0.376
-351.508	-200.000	0.034	-0.199
-350.493	-19.579	0.365	0.226
-349.479	555.934	0.053	0.128
-348.464	3.212	-0.240	0.174
-347.450	-46.892	0.281	-0.137
-346.435	489.418	-0.126	-0.288
-345.420	90.531	0.149	0.167
-344.406	-142.143	0.016	0.002
-343.391	-162.542	0.280	0.014
-342.377	71.376	-0.185	-0.191
-341.362	-152.015	-0.202	-0.015
-340.348	-200.000	-0.019	0.257
-339.333	-200.000	0.008	-0.087
-338.318	-117.395	0.334	-0.060
-337.304	-44.652	0.103	-0.051
-336.289	-200.000	0.007	0.393
-335.275	105.566	-0.318	-0.375
-334.260	56.782	0.131	-0.127
-333.245	175.472	-0.098	0.142
-332.231	-200.000	0.029	-0.251
-331.216	-96.583	-0.178	0.047
-330.202	91.340	0.106	0.118
-329.187	-166.001	0.034	-0.001
-328.172	231.229	-0.051	0.084
-327.158	-103.173	0.179	0.042
-326.143	-50.350	-0.212	-0.100
-325.129	1.826	0.333	0.239
-324.114	730.098	-0.054	-0.143
-323.099	-18.160	-0.260	0.162
-322.085	99.292	-0.085	0.098
-321.070	-200.000	-0.067	0.369
-320.056	-200.000	0.024	0.157
-319.041	-0.940	-0.124	0.087
-318.026	-78.883	0.135	-0.046
-317.012	75.669	-0.133	-0.140
-315.997	155.821	0.196	0.269
-314.983	-200.000	-0.019	-0.186
-313.968	137.385	0.179	0.234
-312.953	-103.415	0.229	-0.054
-311.939	594.564	0.079	-0.195
-310.924	-48.348	0.200	-0.096
-309.910	800.000	0.070	-0.276
-308.895	-76.062	0.090	0.032
-307.880	574.126	0.104	-0.253
-306.866	800.000	0.044	0.144
-305.851	-34.956	0.100	-0.054
-304.837	-148.186	-0.021	-0.002
-303.822	-49.116	-0.378	0.180
-302.807	-144.139	-0.202	-0.019
-301.793	-151.748	0.190	0.014
-300.778	-73.297	-0.225	-0.082
-299.764	-13.793	-0.342	0.220
-298.749	-13.825	-0.384	-0.247
-297.735	-77.479	-0.107	0.037
-296.720	378.156	-0.106	0.216
-295.705	20.283	-0.070	-0.056
-294.691	91.481	0.272	0.304
-293.676	-200.000	-0.001	-0.056
-292.662	-146.946	0.236	0.020
-291.647	105.112	-0.209	0.246
-290.632	-157.376	-0.380	-0.023
-289.618	154.453	0.097	0.133
-288.603	-200.000	0.032	0.141
-287.589	-127.855	-0.075	-0.011
-286.574	-200.000	0.002	0.058
-285.559	-90.078	-0.224	-0.065
-284.545	-200.000	-0.021	-0.202
-283.530	-94.197	0.358	0.098
-282.516	-9.800	-0.218	-0.145
-281.501	-200.000	-0.066	0.329
-280.486	-25.578	-0.235	-0.138
-279.472	-141.049	0.141	0.014
-278.457	-200.000	0.023	-0.252
-277.443	-34.070	0.246	0.134
-276.428	200.660	-0.094	0.144
-275.413	485.756	0.064	0.144
-274.399	-200.000	0.026	0.146
-273.384	90.921	-0.190	0.212
-272.370	-152.673	-0.098	-0.007
-271.355	-178.427	0.102	0.002
-270.340	-148.533	0.319	0.026
-269.326	31.897	0.107	0.092
-268.311	436.710	0.145	0.314
-267.297	-156.602	-0.296	-0.018
-266.282	570.773	-0.114	0.276
-265.267	-86.464	-0.139	-0.043
-264.253	-137.377	0.057	0.006
-263.238	-105.720	0.111	0.025
-262.224	-152.833	0.309	-0.022
-261.209	300.136	0.164	-0.300
-260.195	-4.758	-0.325	-0.223
-259.180	-72.879	-0.266	-0.097
-258.165	-96.815	0.215	0.056
-257.151	-31.837	-0.113	0.063
-256.136	18.250	-0.152	0.120
-255.122	-200.000	0.016	0.305
-254.107	-78.328	-0.199	-0.068
-253.092	166.988	0.139	0.196
-252.078	800.000	-0.085	0.261
-251.063	-200.000	0.007	0.045
-250.049	-130.964	-0.309	-0.041
-249.034	-57.643	-0.078	0.034
-248.019	5.069	0.227	0.166
-247.005	-200.000	0.041	0.228
-245.990	-134.203	0.334	-0.041
-244.976	-155.176	0.281	-0.018
-243.961	506.222	-0.089	0.206
-242.946	136.968	-0.121	-0.157
-241.932	579.866	0.091	0.222
-240.917	422.760	0.134	0.285
-239.903	-200.000	-0.028	0.421
-238.888	-200.000	-0.057	0.293
-237.873	45.543	-0.087	-0.080
-236.859	62.037	-0.248	-0.245
-235.844	366.285	0.009	0.018
-234.830	-67.154	-0.131	0.051
-233.815	31.315	-0.322	0.274
-232.800	-26.987	-0.066	0.039
-231.786	-136.796	-0.105	-0.012
-230.771	-34.209	-0.252	0.138
-229.757	51.204	-0.241	-0.227
-228.742	-136.303	0.225	-0.026
-227.727	-200.000	0.011	-0.057
-226.713	-173.596	0.079	0.002
-225.698	378.726	0.093	0.189
-224.684	16.994	-0.081	-0.063
-223.669	-47.545	0.136	-0.066
-222.655	679.692	0.055	0.141
-221.640	-200.000	-0.063	-0.421
-220.625	-145.766	0.319	-0.028
-219.611	465.014	-0.041	-0.091
-218.596	-44.381	0.277	0.138
-217.582	37.891	0.080	-0.071
-216.567	-25.847	-0.051	-0.030
-215.552	800.000	0.108	-0.386
-214.538	426.434	-0.081	-0.174
-213.523	-167.820	0.269	-0.011
-212.509	47.500	-0.111	-0.103
-211.494	-12.091	-0.218	-0.142
-210.479	149.477	-0.156	-0.210
-209.465	135.299	0.210	-0.271
-208.450	-200.000	-0.048	-0.208
-207.436	132.712	0.047	0.060
-206.421	800.000	0.006	-0.019
-205.406	117.493	-0.235	-0.287
-204.392	9.416	-0.175	0.131
-203.377	-3.104	0.235	-0.163
-202.363	-200.000	0.001	0.009
-201.348	-106.213	-0.235	-0.052
-200.333	-111.305	0.088	0.018
-199.319	127.969	-0.189	-0.238
-198.304	31.098	0.076	0.065
-197.290	-87.712	0.490	-0.147
-196.275	-91.312	-0.261	0.074
-195.260	249.605	0.164	-0.277
-194.246	-51.412	-0.478	-0.222
-193.231	-27.886	0.227	-0.130
-192.217	161.829	-0.198	-0.275
-191.202	101.030	-0.113	-0.131
-190.187	47.760	-0.281	-0.260
-189.173	800.000	0.153	-0.451
-188.158	43.900	0.164	0.149
-187.144	52.869	0.070	0.066
-186.129	-82.916	0.214	0.068
-185.114	408.237	0.070	-0.147
-184.100	105.767	-0.115	-0.135
-183.085	110.426	-0.191	0.228
-182.071	-200.000	0.013	0.281
-181.056	-125.848	-0.354	-0.053
-180.042	153.315	-0.128	-0.174
-179.027	496.679	0.044	-0.099
-178.012	-93.388	0.313	0.086
-176.998	-200.000	0.011	0.268
-175.983	800.000	0.061	-0.239
-174.969	554.899	0.060	0.143
-173.954	800.000	0.069	-0.243
-172.939	800.000	-0.084	0.243
-171.925	-73.703	0.343	-0.124
-170.910	-14.460	0.039	-0.025
-169.896	-42.008	0.219	-0.111
-168.881	-35.035	-0.159	-0.086
-167.866	649.402	0.045	0.113
-166.852	670.487	0.090	0.232
-165.837	703.261	0.096	0.251
-164.823	-73.431	-0.163	-0.059
-163.808	-200.000	-0.012	0.072
-162.793	-200.000	0.378	0.000
-161.779	-70.483	-0.301	0.113
-160.764	800.000	-0.117	0.447
-159.750	46.502	0.123	-0.113
-158.735	-200.000	-0.173	0.000
-157.720	781.893	-0.045	0.122
-156.706	16.161	0.157	0.123
-155.691	-81.245	0.139	0.045
-154.677	-176.279	-0.211	-0.005
-153.662	631.217	-0.070	-0.177
-152.647	800.000	-0.071	-0.208
-151.633	479.211	-0.155	0.348
-150.618	800.000	0.082	-0.243
-149.604	-159.075	-0.329	-0.018
-148.589	-116.861	0.250	-0.045
-147.574	-132.536	-0.345	0.044
-146.560	165.548	0.095	-0.133
-145.545	-85.301	0.252	-0.078
-144.531	403.322	-0.065	0.135
-143.516	-200.000	0.017	-0.126
-142.502	800.000	-0.052	-0.187
-141.487	-200.000	0.006	-0.085
-140.472	19.133	-0.223	-0.177
-139.458	51.338	-0.192	-0.180
-138.443	-16.754	0.192	-0.120
-137.429	314.718	0.118	0.221
-136.414	-200.000	-0.039	0.251
-135.399	-200.000	0.025	-0.383
-134.385	762.988	0.052	0.140
-133.370	-5.939	-0.218	-0.148
-132.356	-200.000	0.016	-0.176
-131.341	-78.690	0.369	-0.125
-130.326	-27.473	-0.151	-0.087
-129.312	24.344	-0.101	-0.082
-128.297	519.132	-0.123	-0.284
-127.283	-200.000	0.014	0.202
-126.268	88.288	0.128	-0.140
-125.253	-161.960	-0.436	0.022
-124.239	-97.357	0.069	-0.018
-123.224	574.412	0.152	-0.366
-122.210	800.000	-0.026	0.096
-121.195	-200.000	0.027	0.243
-120.180	-164.461	-0.398	0.018
-119.166	414.415	-0.071	0.149
-118.151	800.000	-0.015	0.065
-117.137	-200.000	-0.027	-0.303
-116.122	-200.000	0.023	-0.108
-115.107	-72.367	0.352	0.129
-114.093	800.000	0.086	0.261
-113.078	-200.000	-0.001	-0.336
-112.064	93.360	-0.136	0.152
-111.049	223.447	-0.089	-0.142
-110.034	-133.849	-0.393	0.048
-109.020	172.759	-0.215	0.306
-108.005	15.419	0.330	-0.256
-106.991	-13.690	0.216	-0.138
-105.976	-200.000	0.008	-0.194
-104.962	127.607	0.188	0.236
-103.947	-200.000	0.001	-0.205
-102.932	109.857	-0.140	-0.166
-101.918	-200.000	-0.031	0.249
-100.903	364.726	0.126	0.251
-99.889	-200.000	-0.004	-0.136
-98.874	-170.781	-0.206	-0.007
-97.859	-191.203	0.352	0.004
-96.845	305.122	-0.123	0.226
-95.830	-72.869	-0.201	-0.073
-94.816	-64.275	0.399	-0.160
-93.801	11.379	-0.144	0.109
-92.786	-200.000	0.053	-0.353
-91.772	-135.700	0.201	-0.024
-90.757	46.715	-0.302	0.277
-89.743	-200.000	0.012	0.376
-88.728	-94.476	-0.261	-0.070
-87.713	-69.557	0.125	0.047
-86.699	800.000	0.080	-0.305
-85.684	-47.595	-0.165	-0.079
-84.670	267.102	-0.047	-0.081
-83.655	-200.000	0.014	-0.254
-82.640	111.427	0.080	-0.096
-81.626	8.518	-0.139	0.103
-80.611	-200.000	-0.278	0.001
-79.597	-200.000	0.089	0.493
-78.582	11.402	-0.145	0.110
-77.567	-90.713	-0.175	0.050
-76.553	-96.425	0.135	-0.035
-75.538	149.288	-0.151	-0.202
-74.524	247.155	-0.177	-0.296
-73.509	-119.614	0.037	0.006
-72.494	800.000	0.053	-0.146
-71.480	800.000	0.071	0.284
-70.465	-158.675	0.006	-0.000
-69.451	-81.303	0.298	0.097
-68.436	-30.560	0.403	-0.225
-67.422	377.472	-0.134	0.270
-66.407	-200.000	-0.026	0.448
-65.392	74.949	0.141	-0.147
-64.378	502.008	-0.066	0.150
-63.363	25.947	0.195	0.161
-62.349	800.000	-0.061	0.216
-61.334	65.807	-0.994	-0.994
-60.319	-16.460	0.876	0.548
-59.305	-200.000	-0.078	-1.202
-58.290	80.709	0.852	0.906
-57.276	579.539	0.738	1.783
-56.261	-200.000	105.122	587.602
-55.246	529.006	1458.234	3394.799
-54.232	180.600	2654.207	3842.547
-53.217	103.961	2310.746	2678.541
-52.203	36.878	2064.340	1799.942
-51.188	32.293	1980.784	1686.022
-50.173	30.720	1963.922	1657.604
-49.159	46.088	2019.584	1843.921
-48.144	46.816	2036.755	1866.106
-47.130	32.671	1995.994	1702.115
-46.115	30.446	1985.159	1672.797
-45.100	30.446	1982.065	1670.120
-44.086	30.405	1979.240	1667.305
-43.071	30.323	1977.531	1665.066
-42.057	30.320	1975.112	1662.930
-41.042	30.339	1973.174	1661.404
-40.027	30.367	1971.086	1659.829
-39.013	30.459	1969.235	1659.026
-37.998	30.436	1967.620	1657.396
-36.984	30.472	1965.495	1655.859
-35.969	30.390	1963.718	1653.569
-34.954	30.483	1961.841	1652.747
-33.940	30.410	1960.872	1651.219
-32.925	30.438	1958.959	1649.794
-31.911	30.414	1957.286	1648.103
-30.896	30.466	1955.914	1647.348
-29.881	30.456	1954.408	1645.920
-28.867	30.628	1952.323	1645.623
-27.852	30.474	1950.869	1642.968
-26.838	30.604	1948.326	1641.916
-25.823	30.557	1947.295	1640.566
-24.809	30.460	1946.083	1638.624
-23.794	30.441	1944.348	1636.932
-22.779	30.547	1941.999	1635.823
-21.765	30.544	1940.462	1634.436
-20.750	30.505	1938.599	1632.454
-19.736	30.473	1937.376	1631.083
-18.721	30.574	1935.657	1630.458
-17.706	30.488	1934.170	1628.386
-16.692	30.535	1932.310	1627.169
-15.677	30.475	1930.352	1624.927
-14.663	30.459	1929.061	1623.639
-13.648	30.534	1927.443	1622.862
-12.633	30.547	1925.795	1621.525
-11.619	30.469	1925.328	1620.391
-10.604	30.504	1923.716	1619.271
-9.590	30.447	1922.531	1617.716
-8.575	30.470	1921.074	1616.624
-7.560	30.506	1919.888	1615.875
-6.546	30.537	1918.209	1614.666
-5.531	30.509	1917.215	1613.519
-4.517	30.471	1916.025	1612.129
-3.502	30.458	1914.989	1611.079
-2.487	30.407	1913.852	1609.616
-1.473	30.484	1912.651	1609.206
-0.458	30.546	1907.937	1605.715
0.556	31.065	1887.587	1574.134
1.571	26.276	1866.318	1516.188
2.586	21.731	1887.852	1494.865
3.600	20.549	1922.397	1511.818
4.615	19.859	1916.361	1500.948
5.629	15.117	1816.228	1383.320
6.644	7.153	1701.012	1233.619
7.659	3.549	1666.159	1180.693
8.673	3.216	1663.453	1176.126
9.688	3.189	1662.199	1174.927
10.702	3.228	1660.794	1174.131
11.717	3.288	1657.553	1172.189
12.731	3.673	1657.236	1174.797
13.746	8.854	1669.322	1222.872
14.761	16.883	1686.466	1296.984
15.775	20.696	1692.365	1330.621
16.790	20.639	1691.534	1329.421
17.804	19.728	1688.023	1319.592
18.819	18.784	1684.702	1309.678
19.834	18.122	1682.814	1303.054
20.848	17.870	1681.520	1300.020
21.863	17.761	1680.209	1298.059
22.877	17.597	1678.642	1295.486
23.892	17.463	1677.384	1293.383
24.907	17.345	1676.548	1291.727
25.921	17.276	1675.848	1290.551
26.936	17.259	1674.226	1289.061
27.950	17.354	1673.331	1288.974
28.965	17.366	1672.650	1288.430
29.980	17.387	1672.314	1288.217
30.994	17.532	1671.195	1288.338
32.009	17.701	1669.819	1288.439
33.023	17.670	1669.214	1287.626
34.038	17.701	1668.500	1287.193
35.053	17.703	1667.045	1285.967
36.067	17.610	1665.741	1284.151
37.082	17.538	1664.572	1282.591
38.096	17.511	1663.488	1281.439
39.111	17.495	1663.143	1280.938
40.126	17.665	1662.168	1281.353
41.140	17.619	1661.251	1280.187
42.155	17.437	1659.352	1277.244
43.169	17.295	1657.696	1274.795
44.184	17.095	1656.888	1272.559
45.199	17.095	1655.474	1271.362
46.213	17.168	1654.287	1270.882
47.228	17.092	1653.779	1269.810
48.242	17.232	1652.928	1270.093
49.257	17.472	1651.177	1270.430
50.271	17.530	1650.178	1269.981
51.286	17.438	1649.111	1268.361
52.301	17.389	1647.559	1266.693
53.315	17.481	1646.100	1266.139
54.330	17.423	1644.516	1264.377
55.344	17.248	1643.215	1261.964
56.359	17.202	1641.914	1260.517
57.374	17.237	1640.167	1259.319
58.388	17.289	1639.178	1258.839
59.403	17.262	1637.761	1257.434
60.417	17.020	1636.943	1254.908
61.432	17.148	1635.282	1254.468
62.447	17.117	1634.136	1253.249
63.461	17.056	1632.841	1251.695
64.476	16.934	1631.902	1249.968
65.490	16.974	1630.045	1248.727
66.505	16.984	1629.388	1248.189
67.520	16.923	1628.640	1247.059
68.534	16.930	1627.733	1246.303
69.549	16.929	1626.566	1245.292
70.563	17.012	1625.046	1244.626
71.578	16.990	1623.972	1243.533
72.593	16.897	1622.619	1241.703
73.607	16.836	1621.480	1240.275
74.622	16.700	1620.958	1238.775
75.636	16.820	1619.426	1238.372
76.651	16.834	1618.783	1237.869
77.666	16.771	1618.107	1236.785
78.680	16.842	1617.388	1236.647
79.695	16.984	1616.219	1236.673
80.709	16.950	1615.350	1235.657
81.724	17.020	1614.605	1235.483
82.739	17.126	1614.243	1235.867
83.753	17.160	1613.054	1235.096
84.768	17.285	1612.042	1235.123
85.782	17.373	1612.005	1235.622
86.797	17.541	1611.229	1236.141
87.812	17.538	1610.623	1235.545
88.826	17.513	1609.057	1234.049
89.841	17.490	1607.987	1232.955
90.855	17.406	1607.007	1231.486
91.870	17.537	1605.788	1231.392
92.884	17.647	1604.804	1231.324
93.899	17.574	1604.426	1230.392
94.914	17.649	1602.969	1229.707
95.928	17.632	1602.131	1228.833
96.943	17.717	1600.701	1228.245
97.957	17.728	1598.992	1226.898
98.972	17.616	1597.670	1224.971
99.987	17.510	1596.190	1222.967
101.001	17.579	1594.753	1222.253
102.016	17.506	1593.667	1220.793
103.030	17.583	1591.599	1219.653
104.045	17.628	1590.600	1219.095
105.060	17.612	1589.074	1217.707
106.074	17.502	1588.066	1216.042
107.089	17.297	1586.383	1213.178
108.103	17.102	1584.583	1210.306
109.118	16.881	1583.273	1207.625
110.133	16.989	1581.169	1206.680
111.147	17.057	1580.267	1206.370
112.162	16.960	1578.835	1204.484
113.176	17.043	1577.565	1203.996
114.191	17.174	1575.516	1203.251
115.206	17.143	1575.190	1202.682
116.220	17.131	1573.804	1201.431
117.235	17.202	1572.165	1200.572
118.249	17.199	1570.697	1199.326
119.264	17.186	1569.537	1198.244
120.279	17.072	1567.908	1196.092
121.293	17.020	1566.807	1194.777
122.308	16.909	1565.446	1192.854
123.322	16.892	1563.673	1191.273
124.337	16.820	1562.014	1189.398
125.352	16.749	1561.371	1188.311
126.366	16.816	1559.586	1187.317
127.381	16.871	1558.534	1186.791
128.395	16.792	1557.558	1185.395
129.410	16.826	1555.940	1184.291
130.424	16.909	1555.212	1184.213
131.439	16.880	1554.255	1183.179
132.454	17.024	1552.304	1182.591
133.468	17.066	1550.875	1181.690
134.483	17.042	1549.975	1180.731
135.497	17.112	1548.430	1179.938
136.512	17.097	1547.285	1178.858
137.527	17.210	1545.905	1178.489
138.541	17.156	1544.732	1177.112
139.556	17.234	1543.115	1176.320
140.570	17.154	1542.398	1175.112
141.585	17.424	1540.708	1175.588
142.600	17.498	1539.676	1175.206
143.614	17.557	1538.612	1174.701
144.629	17.560	1537.946	1174.108
145.643	17.643	1536.664	1173.593
146.658	17.705	1535.287	1172.864
147.673	17.634	1533.510	1170.915
148.687	17.353	1531.838	1167.606
149.702	17.354	1530.044	1166.145
150.716	17.251	1528.747	1164.345
151.731	17.204	1527.295	1162.814
152.746	17.195	1526.117	1161.754
153.760	17.271	1524.888	1161.233
154.775	17.263	1523.442	1159.978
155.789	17.340	1522.120	1159.397
156.804	17.360	1521.317	1158.814
157.819	17.418	1519.959	1158.071
158.833	17.533	1518.988	1158.013
159.848	17.557	1517.681	1157.079
160.862	17.692	1516.749	1157.181
161.877	17.689	1515.769	1156.312
162.892	17.612	1514.344	1154.597
163.906	17.291	1512.732	1151.095
164.921	17.191	1511.261	1149.199
165.935	17.300	1510.630	1149.355
166.950	17.327	1509.086	1148.261
167.964	17.369	1508.015	1147.624
168.979	17.433	1506.722	1146.973
169.994	17.389	1505.965	1145.999
171.008	17.337	1505.067	1144.863
172.023	17.428	1503.950	1144.526
173.037	17.410	1503.104	1143.658
174.052	17.636	1501.723	1144.021
175.067	17.647	1500.876	1143.352
176.081	17.643	1499.474	1142.153
177.096	17.444	1497.724	1139.390
178.110	17.315	1496.730	1137.667
179.125	17.399	1495.606	1137.276
180.140	17.339	1494.819	1136.178
181.154	17.431	1493.326	1135.553
182.169	17.594	1491.991	1135.521
183.183	17.496	1491.526	1134.418
184.198	17.562	1490.722	1134.142
185.213	17.709	1489.299	1133.938
186.227	17.775	1488.298	1133.518
187.242	17.759	1487.192	1132.465
188.256	17.831	1486.100	1132.009
189.271	17.916	1484.589	1131.327
190.286	17.852	1484.263	1130.551
191.300	17.875	1483.373	1129.925
192.315	17.620	1481.397	1126.637
193.329	17.354	1479.729	1123.513
194.344	17.325	1478.493	1122.278
195.359	17.357	1477.902	1121.944
196.373	17.449	1477.014	1121.774
197.388	17.498	1476.272	1121.438
198.402	17.638	1474.877	1121.203
199.417	17.720	1474.232	1121.150
200.432	17.938	1473.436	1121.878
201.446	18.002	1472.737	1121.665
202.461	18.002	1472.045	1121.040
203.475	18.081	1470.944	1120.617
204.490	18.200	1469.785	1120.417
205.504	18.125	1468.602	1118.923
206.519	18.052	1467.153	1117.248
207.534	17.878	1466.159	1115.252
208.548	17.808	1464.944	1113.772
209.563	17.814	1464.138	1113.103
210.577	17.780	1463.169	1112.042
211.592	17.874	1461.726	1111.458
212.607	17.980	1461.211	1111.664
213.621	17.991	1461.428	1111.799
214.636	18.136	1459.921	1111.495
215.650	18.136	1459.063	1110.744
216.665	17.924	1458.419	1108.781
217.680	18.055	1457.574	1108.888
218.694	18.237	1456.850	1109.422
219.709	18.174	1456.219	1108.434
220.723	18.253	1454.987	1107.908
221.738	18.296	1453.762	1107.158
222.753	18.193	1452.882	1105.720
223.767	18.129	1452.216	1104.702
224.782	18.217	1451.123	1104.346
225.796	18.193	1450.163	1103.361
226.811	18.355	1449.675	1103.934
227.826	18.367	1448.825	1103.268
228.840	18.268	1447.657	1101.641
229.855	18.212	1446.361	1100.199
230.869	18.142	1446.046	1099.410
231.884	18.168	1445.133	1098.787
232.899	18.027	1443.832	1096.799
233.913	18.112	1442.170	1095.983
234.928	18.164	1440.870	1095.231
235.942	18.083	1439.596	1093.648
236.957	17.992	1438.539	1092.164
237.972	17.990	1437.064	1090.935
238.986	18.111	1435.813	1090.664
240.001	18.079	1435.163	1089.871
241.015	18.051	1434.245	1088.894
242.030	18.043	1433.182	1087.941
243.045	18.068	1432.406	1087.417
244.059	18.121	1431.509	1086.972
245.074	18.222	1430.736	1086.933
246.088	18.296	1429.947	1086.711
247.103	18.317	1429.435	1086.355
248.117	18.402	1428.347	1085.973
249.132	18.440	1427.913	1085.786
250.147	18.609	1427.293	1086.291
251.161	18.754	1426.930	1086.833
252.176	18.837	1426.542	1086.966
253.190	18.906	1425.907	1086.824
254.205	18.951	1424.833	1086.195
255.220	19.002	1423.949	1085.749
256.234	19.119	1422.795	1085.510
257.249	19.114	1422.241	1084.957
258.263	18.996	1421.568	1083.602
259.278	19.109	1420.335	1083.281
260.293	18.989	1419.451	1081.759
261.307	18.985	1419.008	1081.299
262.322	19.089	1418.078	1081.146
263.336	19.144	1417.289	1080.792
264.351	19.238	1416.021	1080.320
265.366	19.291	1415.410	1080.089
266.380	19.240	1414.501	1078.981
267.395	19.269	1413.660	1078.429
268.409	19.234	1412.631	1077.328
269.424	19.155	1411.645	1075.988
270.439	19.043	1410.446	1074.281
271.453	19.011	1409.526	1073.282
272.468	19.001	1408.862	1072.620
273.482	18.975	1407.791	1071.548
274.497	18.963	1406.702	1070.551
275.512	18.923	1405.816	1069.532
276.526	18.936	1405.150	1069.011
277.541	18.974	1404.139	1068.385
278.555	18.956	1403.287	1067.530
279.570	18.949	1402.658	1066.914
280.585	19.132	1401.617	1067.160
281.599	19.238	1401.160	1067.378
282.614	19.305	1399.977	1066.792
283.628	19.273	1398.344	1065.257
284.643	19.030	1397.845	1063.283
285.657	19.037	1396.488	1062.201
286.672	19.030	1395.527	1061.332
287.687	19.000	1394.598	1060.348
288.701	19.093	1393.292	1059.829
289.716	19.206	1392.943	1060.169
290.730	19.186	1392.304	1059.466
291.745	19.199	1391.158	1058.579
292.760	19.247	1390.462	1058.248
293.774	19.167	1389.942	1057.269
294.789	19.251	1388.352	1056.483
295.803	19.249	1387.997	1056.107
296.818	19.365	1387.232	1056.140
297.833	19.236	1386.025	1054.341
298.847	19.100	1384.810	1052.492
299.862	19.137	1383.844	1051.887
300.876	19.298	1382.648	1051.867
301.891	19.240	1381.984	1050.916
302.906	19.315	1381.064	1050.580
303.920	19.476	1380.400	1050.967
304.935	19.446	1379.939	1050.336
305.949	19.543	1379.343	1050.383
306.964	19.606	1379.005	1050.415
307.979	19.682	1377.719	1049.801
308.993	19.631	1376.127	1048.190
310.008	19.517	1375.960	1047.278
311.022	19.496	1374.722	1046.112
312.037	19.674	1373.325	1046.037
313.052	19.658	1372.648	1045.330
314.066	19.603	1371.580	1044.092
315.081	19.438	1370.874	1042.466
316.095	19.256	1369.529	1040.254
317.110	19.324	1368.076	1039.466
318.125	19.419	1366.606	1038.832
319.139	19.305	1366.261	1037.787
320.154	19.377	1365.100	1037.249
321.168	19.349	1364.396	1036.456
322.183	19.291	1363.419	1035.270
323.197	19.398	1362.246	1034.931
324.212	19.500	1361.403	1034.810
325.227	19.375	1361.682	1034.179
326.241	19.454	1360.276	1033.498
327.256	19.452	1359.227	1032.598
328.270	19.461	1358.727	1032.178
329.285	19.410	1357.527	1030.871
330.300	19.542	1356.460	1030.757
331.314	19.437	1355.557	1029.350
332.329	19.476	1354.867	1028.968
333.343	19.373	1354.482	1027.974
334.358	19.507	1353.052	1027.595
335.373	19.538	1352.790	1027.489
336.387	19.699	1351.699	1027.527
337.402	19.661	1351.373	1026.962
338.416	19.829	1349.878	1026.734
339.431	19.818	1349.499	1026.287
340.446	19.910	1348.882	1026.272
341.460	19.976	1348.040	1025.930
342.475	20.076	1346.909	1025.572
343.489	20.111	1346.577	1025.435
344.504	20.145	1345.658	1024.847
345.519	20.191	1344.720	1024.317
346.533	20.191	1343.837	1023.553
347.548	20.331	1342.579	1023.329
348.562	20.255	1342.561	1022.774
349.577	20.201	1341.527	1021.582
350.592	20.129	1340.543	1020.313
351.606	20.101	1339.046	1018.921
352.621	19.937	1337.886	1016.983
353.635	19.755	1337.082	1015.216
354.650	19.723	1336.759	1014.694
355.665	19.814	1335.060	1013.845
356.679	19.894	1333.997	1013.416
357.694	19.976	1333.265	1013.251
358.708	19.974	1332.273	1012.398
359.723	20.137	1331.010	1012.302
360.738	20.101	1330.210	1011.392
361.752	20.066	1329.336	1010.432
362.767	20.028	1328.093	1009.181
363.781	20.015	1327.551	1008.599
364.796	20.098	1326.319	1008.061
365.810	20.142	1326.200	1008.136
366.825	20.196	1325.529	1007.849
367.840	20.369	1324.422	1007.926
368.854	20.401	1324.428	1008.024
369.869	20.707	1323.670	1009.132
370.883	20.480	1323.282	1007.432
371.898	20.470	1321.928	1006.251
372.913	20.389	1321.003	1004.992
373.927	20.352	1320.178	1004.063
374.942	20.449	1319.012	1003.646
375.956	20.580	1318.852	1004.192
376.971	20.627	1317.907	1003.654
377.986	20.464	1317.128	1002.031
379.000	20.458	1316.435	1001.385
380.015	20.608	1315.784	1001.665
381.029	20.602	1315.205	1001.097
382.044	20.754	1314.767	1001.549
383.059	20.693	1313.893	1000.444
384.073	20.718	1312.877	999.725
385.088	20.751	1312.352	999.431
386.102	20.662	1311.794	998.402
387.117	20.773	1311.166	998.473
388.132	20.602	1310.157	996.639
389.146	20.588	1308.878	995.498
390.161	20.432	1308.126	993.942
391.175	20.560	1307.327	993.980
392.190	20.466	1306.696	992.877
393.205	20.460	1305.913	992.160
394.219	20.628	1304.682	992.093
395.234	20.746	1303.723	991.949
396.248	20.641	1302.531	990.355
397.263	20.621	1300.785	988.830
398.278	20.619	1299.498	987.749
399.292	20.520	1298.658	986.464
400.307	20.420	1297.522	984.946
401.321	20.327	1296.526	983.579
402.336	20.356	1295.040	982.525
403.350	20.407	1293.944	981.896
404.365	20.344	1293.416	981.052
405.380	20.434	1292.570	980.835
406.394	20.521	1291.982	980.792
407.409	20.542	1291.548	980.494
408.423	20.646	1290.601	980.275
409.438	20.782	1290.206	980.651
410.453	20.794	1289.378	980.004
411.467	21.079	1288.416	980.789
412.482	21.018	1288.154	980.159
413.496	21.023	1287.721	979.769
414.511	21.034	1286.623	978.911
415.526	21.142	1285.729	978.750
416.540	21.121	1285.711	978.530
417.555	21.179	1285.090	978.298
418.569	21.132	1284.800	977.729
419.584	21.207	1283.743	977.255
420.599	21.258	1282.607	976.588
421.613	144.704	1433.644	1795.866
422.628	139.464	1455.611	1795.932
