DTS Sentinel unit serial number:	SN413079Multiplexer serial number:	ORYXHardware model number:	OX4-SRSoftware version number:	ORYX F/W v4.00 Oryx Data Collector v3.7.2.0data status	okinstallation	princeton_trtdifferential loss correction	single-endedforward channel	channel 4reverse channel	N/Adate	2019/09/18time	11:17:35forward acquisition time	60.00reverse acquisition time	0.00gamma	496.2192k internal	0.2312k external	0.2312temperature offset calibration	0.9984default loss term (dB/km)	0.3790temperature slope calibration	1.0000multiplexer offset coefficient	1.0000multiplexer slope coefficient	1.0000fibre end	0.00T internal ref (°C)	29.87T ext. ref 1 (°C)	0.41T ext. ref 2 (°C)	27.07length (m)	temperature (°C)	Stokes	anti-Stokes-747.200	-103.828	0.247	0.059
-746.185	67.272	-0.249	0.258
-745.171	-161.320	0.104	0.005
-744.156	2.100	-0.300	-0.220
-743.142	-200.000	-0.015	0.334
-742.127	-200.000	0.021	0.199
-741.112	351.252	-0.083	0.167
-740.098	185.990	-0.178	0.268
-739.083	-109.042	-0.187	0.040
-738.069	-121.473	-0.079	0.013
-737.054	739.181	-0.030	-0.081
-736.039	203.784	-0.069	-0.109
-735.025	578.928	0.043	-0.106
-734.010	800.000	-0.062	-0.244
-732.996	-118.116	-0.434	-0.079
-731.981	-67.035	0.180	0.072
-730.966	6.343	-0.086	0.064
-729.952	112.803	-0.207	-0.254
-728.937	39.507	-0.113	0.103
-727.923	741.624	-0.053	0.146
-726.908	-152.205	-0.394	-0.029
-725.894	-200.000	-0.011	-0.110
-724.879	-140.608	0.259	0.027
-723.864	-38.811	0.296	-0.158
-722.850	-28.551	-0.190	-0.111
-721.835	-18.729	0.152	-0.096
-720.821	-24.005	-0.123	-0.075
-719.806	-68.744	0.071	0.028
-718.791	-68.418	-0.168	0.066
-717.777	-103.481	0.093	0.022
-716.762	-173.081	-0.180	0.006
-715.748	-40.783	0.182	-0.095
-714.733	342.801	-0.070	0.140
-713.718	-52.232	0.049	0.023
-712.704	-30.747	-0.251	-0.144
-711.689	-151.543	0.250	0.019
-710.675	124.311	0.156	0.199
-709.660	420.670	0.098	0.213
-708.645	-76.318	0.198	-0.071
-707.631	18.955	-0.147	-0.119
-706.616	-43.831	0.104	-0.053
-705.602	65.146	-0.216	0.221
-704.587	728.006	-0.041	-0.110
-703.572	-200.000	0.015	0.150
-702.558	800.000	0.039	-0.133
-701.543	277.003	-0.018	-0.033
-700.529	148.670	0.053	-0.073
-699.514	-200.000	0.002	-0.367
-698.499	35.747	0.167	0.148
-697.485	-113.624	0.216	-0.043
-696.470	-200.000	0.014	-0.229
-695.456	-30.246	0.187	0.108
-694.441	473.726	0.133	0.303
-693.426	800.000	-0.020	0.062
-692.412	-51.345	0.260	0.123
-691.397	-79.067	0.260	-0.089
-690.383	-73.350	-0.143	-0.053
-689.368	-200.000	0.026	-0.269
-688.354	-14.980	-0.072	0.047
-687.339	128.710	-0.178	-0.230
-686.324	-200.000	-0.000	-0.095
-685.310	-86.243	-0.206	0.064
-684.295	-200.000	0.024	-0.245
-683.281	8.587	0.096	-0.073
-682.266	-200.000	-0.052	-0.241
-681.251	52.718	0.094	-0.091
-680.237	5.614	0.090	-0.067
-679.222	-23.289	0.255	-0.155
-678.208	58.647	-0.236	0.235
-677.193	-126.559	-0.076	-0.011
-676.178	55.928	-0.238	-0.233
-675.164	250.727	0.229	-0.394
-674.149	694.267	0.084	0.223
-673.135	155.894	-0.089	0.124
-672.120	221.728	0.080	0.130
-671.105	-129.235	-0.157	-0.022
-670.091	234.906	-0.036	-0.059
-669.076	426.780	-0.028	0.061
-668.062	800.000	-0.098	-0.371
-667.047	800.000	0.020	0.069
-666.032	31.055	-0.203	0.176
-665.018	800.000	0.085	-0.254
-664.003	771.578	0.062	-0.172
-662.989	-190.972	-0.164	-0.002
-661.974	139.333	-0.141	-0.188
-660.959	800.000	-0.066	0.190
-659.945	27.894	0.258	0.220
-658.930	-22.769	0.145	0.089
-657.916	114.364	0.041	0.051
-656.901	65.871	-0.284	-0.291
-655.886	-89.067	0.344	0.103
-654.872	36.216	0.026	0.023
-653.857	184.518	0.138	-0.207
-652.843	-37.177	-0.127	0.069
-651.828	-84.461	0.173	-0.055
-650.814	-54.144	-0.301	-0.138
-649.799	-161.648	-0.224	-0.012
-648.784	205.715	0.143	-0.225
-647.770	17.500	-0.069	0.056
-646.755	578.190	-0.087	0.214
-645.741	27.064	-0.159	0.135
-644.726	-46.241	-0.135	-0.067
-643.711	-166.595	0.043	-0.002
-642.697	-107.905	0.199	0.044
-641.682	-132.298	-0.272	0.036
-640.668	46.867	0.142	0.133
-639.653	194.953	0.125	0.191
-638.638	679.504	-0.027	0.072
-637.624	24.265	-0.057	-0.048
-636.609	-82.112	-0.182	0.060
-635.595	173.311	0.156	0.228
-634.580	-200.000	0.028	0.277
-633.565	-55.051	0.168	-0.076
-632.551	-48.553	-0.237	-0.115
-631.536	-106.367	0.160	-0.036
-630.522	-1.668	0.188	-0.134
-629.507	800.000	0.050	-0.141
-628.492	800.000	0.093	0.366
-627.478	556.886	-0.100	-0.244
-626.463	8.589	-0.231	0.176
-625.449	-200.000	-0.021	-0.345
-624.434	14.925	0.197	0.156
-623.419	80.062	-0.051	-0.055
-622.405	19.397	-0.066	-0.053
-621.390	-86.405	-0.217	0.067
-620.376	-200.000	-0.017	0.124
-619.361	-22.242	-0.399	-0.244
-618.346	101.875	0.073	0.086
-617.332	-32.612	-0.168	0.095
-616.317	102.225	-0.214	-0.253
-615.303	-12.868	-0.147	0.097
-614.288	87.619	0.175	-0.196
-613.273	119.223	0.029	-0.036
-612.259	-200.000	-0.005	0.106
-611.244	149.163	0.113	-0.154
-610.230	294.045	-0.102	-0.188
-609.215	-200.000	0.018	-0.450
-608.201	48.251	-0.144	0.136
-607.186	800.000	0.068	0.296
-606.171	439.682	-0.127	-0.281
-605.157	-66.804	0.146	-0.058
-604.142	72.405	-0.121	-0.127
-603.128	193.117	0.020	0.031
-602.113	-16.099	0.115	-0.074
-601.098	14.791	-0.504	-0.398
-600.084	-42.579	-0.074	-0.038
-599.069	-97.292	-0.082	-0.022
-598.055	-75.855	-0.151	0.054
-597.040	-200.000	0.014	-0.324
-596.025	-78.579	-0.155	-0.053
-595.011	363.765	0.087	0.176
-593.996	-161.012	0.149	0.008
-592.982	23.616	0.199	0.166
-591.967	800.000	-0.043	-0.170
-590.952	104.661	0.383	-0.455
-589.938	-68.154	0.269	0.106
-588.923	26.806	-0.226	0.191
-587.909	77.805	0.195	0.209
-586.894	23.120	-0.161	-0.134
-585.879	800.000	-0.032	0.089
-584.865	-150.321	-0.136	-0.011
-583.850	-63.949	0.138	-0.057
-582.836	-115.180	-0.192	0.037
-581.821	106.220	0.158	-0.189
-580.806	63.515	-0.170	-0.172
-579.792	339.823	0.140	-0.276
-578.777	35.521	-0.177	-0.157
-577.763	133.181	0.043	-0.056
-576.748	-108.667	0.216	0.047
-575.733	-110.777	-0.188	0.039
-574.719	-200.000	0.037	-0.186
-573.704	81.967	-0.123	-0.134
-572.690	618.250	0.070	0.178
-571.675	438.984	-0.065	0.142
-570.661	800.000	0.016	-0.054
-569.646	97.460	-0.205	-0.237
-568.631	229.740	0.097	0.160
-567.617	800.000	-0.057	-0.251
-566.602	25.686	-0.096	-0.081
-565.588	342.712	-0.074	0.145
-564.573	-200.000	0.005	0.335
-563.558	15.886	0.171	-0.136
-562.544	646.066	0.179	-0.460
-561.529	305.207	0.052	0.096
-560.515	-104.327	-0.248	-0.058
-559.500	-200.000	-0.057	-0.379
-558.485	178.626	-0.076	0.113
-557.471	-93.091	0.302	0.085
-556.456	-51.939	0.174	0.082
-555.442	51.265	-0.055	0.052
-554.427	-43.528	0.291	-0.148
-553.412	-191.375	-0.199	-0.002
-552.398	567.774	-0.070	-0.171
-551.383	-200.000	0.050	-0.321
-550.369	193.512	0.110	0.168
-549.354	486.944	-0.097	-0.222
-548.339	-200.000	-0.047	-0.322
-547.325	-150.506	0.257	-0.020
-546.310	28.954	-0.061	-0.052
-545.296	800.000	-0.034	-0.102
-544.281	-70.638	0.111	-0.042
-543.266	24.017	-0.065	-0.054
-542.252	-146.457	0.332	0.029
-541.237	800.000	-0.036	0.109
-540.223	-183.548	0.247	0.004
-539.208	-28.144	0.244	-0.142
-538.193	328.756	0.066	0.129
-537.179	97.846	0.361	0.418
-536.164	-104.147	-0.244	-0.057
-535.150	415.216	0.136	0.291
-534.135	341.493	-0.149	-0.292
-533.121	-38.218	-0.249	0.133
-532.106	-26.914	0.218	0.128
-531.091	596.978	0.096	0.240
-530.077	-40.248	0.155	0.081
-529.062	-135.194	-0.160	0.019
-528.048	-16.300	0.092	-0.059
-527.033	-200.000	0.023	0.116
-526.018	106.203	0.203	-0.241
-525.004	7.912	0.391	0.295
-523.989	-200.000	0.032	-0.323
-522.975	-163.463	0.311	0.015
-521.960	201.803	0.152	0.235
-520.945	274.586	0.090	0.161
-519.931	-200.000	0.006	-0.094
-518.916	-200.000	-0.055	0.328
-517.902	2.494	0.169	-0.123
-516.887	279.506	-0.103	-0.185
-515.872	20.085	0.128	-0.104
-514.858	-200.000	-0.009	-0.121
-513.843	-76.093	-0.303	0.108
-512.829	723.411	0.078	-0.209
-511.814	2.419	-0.116	-0.084
-510.799	-111.236	-0.075	0.015
-509.785	-153.146	-0.215	-0.015
-508.770	178.900	0.139	0.204
-507.756	-69.953	0.292	0.112
-506.741	-60.410	0.280	-0.120
-505.726	218.466	0.202	-0.324
-504.712	-78.835	0.099	-0.034
-503.697	-60.367	0.128	0.055
-502.683	399.432	0.065	0.137
-501.668	149.610	0.121	-0.165
-500.653	-17.642	-0.285	0.180
-499.639	363.870	0.196	0.397
-498.624	-200.000	0.025	0.153
-497.610	398.704	0.077	-0.161
-496.595	320.877	-0.211	0.403
-495.581	-200.000	-0.019	0.160
-494.566	-49.056	0.236	0.113
-493.551	-200.000	0.047	0.238
-492.537	16.627	-0.164	-0.130
-491.522	535.831	-0.059	0.139
-490.508	-115.223	0.553	-0.105
-489.493	47.399	-0.050	-0.047
-488.478	503.238	-0.126	0.294
-487.464	153.795	-0.104	-0.144
-486.449	59.699	0.162	-0.161
-485.435	-52.802	-0.124	0.057
-484.420	225.088	-0.054	0.087
-483.405	-126.602	-0.162	0.024
-482.391	446.922	0.113	-0.249
-481.376	680.082	-0.037	0.097
-480.362	362.395	0.109	0.221
-479.347	-78.786	0.444	0.152
-478.332	-184.356	0.204	-0.003
-477.318	-6.392	-0.121	0.083
-476.303	-200.000	-0.017	0.154
-475.289	-101.666	-0.209	-0.051
-474.274	432.323	-0.147	0.319
-473.259	-96.395	0.072	-0.019
-472.245	23.705	-0.129	-0.107
-471.230	-127.465	-0.205	0.030
-470.216	360.545	-0.092	0.185
-469.201	800.000	0.044	0.166
-468.186	-200.000	0.057	-0.284
-467.172	-19.478	-0.174	-0.108
-466.157	800.000	-0.101	-0.342
-465.143	88.139	0.062	-0.070
-464.128	-174.517	0.234	0.007
-463.113	800.000	-0.043	-0.177
-462.099	-112.955	-0.186	-0.037
-461.084	800.000	0.065	0.208
-460.070	431.702	0.191	0.416
-459.055	800.000	0.129	-0.362
-458.040	296.326	-0.108	0.198
-457.026	-200.000	0.050	-0.475
-456.011	-200.000	0.042	-0.385
-454.997	56.725	0.072	0.071
-453.982	-58.720	-0.120	0.052
-452.968	-60.704	0.094	-0.040
-451.953	778.842	0.204	-0.560
-450.938	48.813	0.282	-0.265
-449.924	-0.727	-0.093	0.066
-448.909	16.565	-0.371	-0.294
-447.895	-45.055	-0.068	0.034
-446.880	-73.972	-0.314	0.114
-445.865	-71.162	-0.245	0.092
-444.851	655.492	0.080	-0.205
-443.836	800.000	-0.097	0.342
-442.822	478.338	-0.150	0.339
-441.807	-149.109	0.346	-0.028
-440.792	-200.000	0.018	0.096
-439.778	-134.905	-0.412	0.050
-438.763	135.415	0.242	-0.316
-437.749	-131.600	-0.169	0.022
-436.734	800.000	-0.028	0.091
-435.719	-136.347	0.185	-0.022
-434.705	800.000	-0.023	-0.093
-433.690	-152.536	0.068	-0.005
-432.676	43.480	0.112	0.103
-431.661	-132.587	0.177	-0.023
-430.646	409.369	-0.054	-0.115
-429.632	147.439	0.104	-0.140
-428.617	-200.000	0.034	0.315
-427.603	-4.832	-0.086	-0.059
-426.588	800.000	0.102	0.320
-425.573	-122.466	-0.010	-0.002
-424.559	-134.184	0.354	-0.044
-423.544	-55.201	-0.101	-0.045
-422.530	60.715	-0.061	0.060
-421.515	-49.601	0.314	0.150
-420.500	-200.000	0.069	-0.322
-419.486	70.893	-0.169	0.175
-418.471	-45.951	-0.139	0.069
-417.457	222.499	0.205	-0.331
-416.442	94.275	0.092	-0.104
-415.428	-21.352	0.133	-0.081
-414.413	62.132	-0.278	0.278
-413.398	-4.565	0.223	0.154
-412.384	-200.000	0.040	-0.249
-411.369	-200.000	0.048	-0.564
-410.355	118.568	-0.162	0.200
-409.340	-33.804	0.077	-0.043
-408.325	-15.807	-0.195	-0.124
-407.311	800.000	-0.037	0.112
-406.296	800.000	-0.115	0.333
-405.282	-59.867	-0.443	0.190
-404.267	37.519	-0.391	0.347
-403.252	-200.000	-0.031	0.212
-402.238	-84.853	0.220	0.069
-401.223	479.839	-0.069	-0.156
-400.209	83.181	-0.102	-0.111
-399.194	671.773	-0.049	-0.128
-398.179	-57.229	-0.290	-0.128
-397.165	795.694	-0.088	0.243
-396.150	-0.442	-0.274	0.195
-395.136	-189.504	-0.259	0.003
-394.121	-37.341	-0.276	0.147
-393.106	-117.447	-0.141	0.026
-392.092	255.909	-0.096	0.166
-391.077	-49.875	-0.173	-0.082
-390.063	93.942	-0.141	-0.160
-389.048	624.846	-0.063	-0.160
-388.033	-89.834	-0.078	-0.023
-387.019	-166.771	0.137	0.006
-386.004	343.054	-0.114	-0.224
-384.990	127.253	-0.062	0.079
-383.975	-127.702	-0.367	-0.053
-382.960	64.872	-0.017	-0.017
-381.946	45.316	0.210	0.194
-380.931	-19.635	-0.106	-0.065
-379.917	131.367	0.137	-0.176
-378.902	148.460	0.080	-0.108
-377.888	68.193	-0.265	0.271
-376.873	95.778	-0.040	0.045
-375.858	-200.000	0.039	0.257
-374.844	-98.628	0.346	-0.088
-373.829	-200.000	0.006	-0.129
-372.815	43.051	0.148	-0.135
-371.800	74.956	-0.090	-0.095
-370.785	52.280	0.304	0.290
-369.771	-200.000	-0.007	-0.143
-368.756	-79.971	0.134	0.045
-367.742	22.210	-0.265	-0.217
-366.727	419.969	-0.076	0.163
-365.712	-55.484	0.101	0.045
-364.698	-137.999	-0.179	0.020
-363.683	-200.000	0.023	0.105
-362.669	100.367	-0.096	-0.112
-361.654	-200.000	0.045	0.225
-360.639	-158.430	-0.183	-0.011
-359.625	425.730	0.074	-0.160
-358.610	-40.449	0.205	-0.106
-357.596	-155.631	-0.295	0.019
-356.581	146.896	-0.328	0.441
-355.566	-200.000	-0.003	0.160
-354.552	-147.882	-0.098	0.008
-353.537	278.157	0.172	0.305
-352.523	-39.680	0.164	0.086
-351.508	-200.000	0.003	-0.062
-350.493	21.513	0.162	0.131
-349.479	-106.648	0.124	-0.028
-348.464	-69.283	0.032	0.012
-347.450	-25.178	0.375	0.222
-346.435	-137.138	-0.129	0.015
-345.420	256.220	-0.106	0.182
-344.406	-104.331	0.177	0.041
-343.391	96.497	-0.089	0.102
-342.377	-126.626	0.141	-0.021
-341.362	-200.000	0.034	-0.365
-340.348	121.453	-0.042	0.053
-339.333	800.000	0.162	0.501
-338.318	-41.396	-0.119	-0.061
-337.304	-200.000	-0.087	-0.000
-336.289	800.000	-0.026	0.076
-335.275	-84.298	-0.282	-0.089
-334.260	-103.077	0.093	-0.022
-333.245	-47.179	0.204	0.099
-332.231	604.165	-0.104	-0.259
-331.216	155.520	0.162	0.223
-330.202	-63.812	-0.209	0.085
-329.187	-64.039	-0.326	-0.133
-328.172	236.821	0.099	-0.163
-327.158	-200.000	-0.067	0.388
-326.143	-67.402	-0.250	0.098
-325.129	150.843	0.127	0.172
-324.114	-200.000	-0.007	0.282
-323.099	-4.858	-0.339	-0.234
-322.085	799.872	0.086	-0.237
-321.070	-28.059	0.132	0.076
-320.056	63.909	0.277	0.278
-319.041	373.781	-0.100	0.202
-318.026	-200.000	0.019	-0.377
-317.012	-113.999	0.103	-0.020
-315.997	59.192	-0.157	-0.155
-314.983	-172.361	0.158	0.005
-313.968	-194.600	-0.457	0.004
-312.953	-200.000	0.021	0.199
-311.939	603.405	0.136	0.337
-310.924	58.041	-0.205	0.200
-309.910	-182.481	0.326	0.006
-308.895	800.000	0.085	0.371
-307.880	-135.257	-0.178	-0.021
-306.866	327.579	-0.089	-0.171
-305.851	150.515	0.135	-0.183
-304.837	-38.417	0.044	0.023
-303.822	227.103	0.089	0.145
-302.807	-133.058	-0.310	0.039
-301.793	-200.000	-0.173	0.000
-300.778	486.329	-0.142	-0.323
-299.764	800.000	-0.076	-0.219
-298.749	81.033	0.058	-0.062
-297.735	-200.000	0.018	0.111
-296.720	-200.000	-0.001	-0.012
-295.705	-113.089	-0.128	0.025
-294.691	50.360	-0.164	0.154
-293.676	575.249	-0.012	0.030
-292.662	-200.000	-0.045	0.201
-291.647	-111.349	-0.043	-0.009
-290.632	-21.518	-0.040	-0.024
-289.618	459.482	-0.083	-0.183
-288.603	-200.000	-0.021	0.210
-287.589	-200.000	-0.010	0.171
-286.574	45.918	0.128	-0.118
-285.559	-200.000	0.033	-0.199
-284.545	246.849	-0.033	-0.055
-283.530	235.071	0.052	0.086
-282.516	-200.000	-0.018	0.100
-281.501	260.983	0.109	-0.187
-280.486	800.000	-0.057	0.199
-279.472	-176.360	0.151	0.004
-278.457	86.186	-0.072	-0.079
-277.443	-65.584	-0.375	0.150
-276.428	-200.000	0.029	-0.189
-275.413	-135.134	-0.207	-0.025
-274.399	474.654	0.071	0.159
-273.384	800.000	-0.056	-0.187
-272.370	-37.495	0.098	0.052
-271.355	800.000	0.143	0.421
-270.340	-72.682	0.128	0.047
-269.326	-200.000	0.020	-0.153
-268.311	-99.967	0.021	-0.005
-267.297	-77.343	0.234	-0.081
-266.282	192.245	0.141	-0.212
-265.267	-27.811	0.232	0.134
-264.253	143.035	0.199	0.263
-263.238	47.748	0.178	-0.165
-262.224	326.729	0.144	0.275
-261.209	-122.334	0.186	0.030
-260.195	-12.906	-0.337	0.218
-259.180	800.000	-0.108	-0.298
-258.165	-200.000	-0.024	0.211
-257.151	-29.047	0.113	-0.065
-256.136	800.000	0.055	-0.231
-255.122	-113.546	-0.291	0.057
-254.107	34.733	-0.321	-0.279
-253.092	276.443	-0.148	-0.263
-252.078	-165.683	-0.426	0.018
-251.063	110.722	-0.050	-0.060
-250.049	800.000	-0.085	-0.296
-249.034	-63.057	0.151	-0.062
-248.019	170.044	0.039	-0.056
-247.005	-18.197	-0.203	-0.126
-245.990	-158.539	0.297	0.017
-244.976	-200.000	-0.039	0.302
-243.961	800.000	-0.071	0.272
-242.946	556.953	0.079	0.189
-241.932	-85.838	0.344	-0.106
-240.917	151.998	0.153	-0.207
-239.903	232.192	0.125	-0.205
-238.888	-200.000	-0.014	0.141
-237.873	395.734	0.055	0.115
-236.859	-200.000	-0.005	0.071
-235.844	-25.767	0.055	0.032
-234.830	4.365	0.186	-0.136
-233.815	-146.586	-0.281	0.024
-232.800	108.409	0.067	-0.079
-231.786	-4.033	0.174	0.120
-230.771	261.146	-0.238	-0.410
-229.757	-200.000	-0.003	0.119
-228.742	800.000	0.067	0.257
-227.727	-200.000	0.086	0.413
-226.713	-131.300	0.175	0.023
-225.698	42.207	0.130	-0.118
-224.684	253.095	-0.223	-0.378
-223.669	-99.975	0.232	-0.058
-222.655	34.121	0.237	0.205
-221.640	173.082	0.164	-0.236
-220.625	234.270	0.192	-0.315
-219.611	-138.067	-0.428	0.047
-218.596	92.907	-0.036	0.040
-217.582	800.000	0.060	-0.201
-216.567	51.436	-0.197	0.186
-215.552	-66.967	-0.238	0.094
-214.538	289.931	-0.180	0.326
-213.523	-200.000	0.040	0.216
-212.509	653.342	-0.075	0.190
-211.494	-49.325	0.173	-0.082
-210.479	766.356	0.111	0.299
-209.465	-200.000	-0.054	0.317
-208.450	800.000	0.118	-0.331
-207.436	-200.000	-0.002	-0.101
-206.421	535.232	-0.113	-0.266
-205.406	-200.000	-0.000	-0.017
-204.392	-128.277	-0.206	-0.029
-203.377	-56.154	-0.322	0.142
-202.363	113.993	-0.082	-0.099
-201.348	-61.413	0.411	-0.172
-200.333	-14.863	-0.114	-0.073
-199.319	663.783	0.096	-0.246
-198.304	14.677	-0.085	-0.066
-197.290	-200.000	-0.046	-0.239
-196.275	78.463	-0.107	-0.114
-195.260	400.948	0.054	-0.112
-194.246	-85.275	0.203	0.063
-193.231	213.258	-0.134	0.209
-192.217	-72.855	-0.175	0.064
-191.202	4.943	0.162	0.118
-190.187	86.809	0.262	0.287
-189.173	24.342	-0.253	0.208
-188.158	167.143	-0.119	0.168
-187.144	-93.778	0.359	0.098
-186.129	-200.000	0.027	-0.306
-185.114	187.769	0.063	0.093
-184.100	527.774	-0.076	-0.177
-183.085	800.000	0.105	-0.425
-182.071	135.059	-0.105	0.136
-181.056	319.342	0.038	-0.072
-180.042	11.080	-0.129	0.098
-179.027	-159.112	0.143	0.008
-178.012	7.582	-0.122	-0.091
-176.998	43.679	0.323	0.293
-175.983	-200.000	-0.020	-0.388
-174.969	-110.917	0.225	-0.046
-173.954	285.486	-0.101	-0.181
-172.939	105.296	-0.124	-0.145
-171.925	-4.510	-0.267	0.183
-170.910	527.586	-0.065	0.152
-169.896	-200.000	0.016	0.159
-168.881	-0.361	0.337	-0.237
-167.866	-112.391	0.092	0.018
-166.852	-31.054	0.245	-0.137
-165.837	-188.925	-0.280	-0.003
-164.823	11.774	-0.161	-0.122
-163.808	-72.587	0.021	-0.008
-162.793	305.377	-0.136	-0.251
-161.779	60.136	-0.161	0.158
-160.764	81.770	0.141	-0.151
-159.750	-200.000	0.003	-0.316
-158.735	-71.274	0.145	-0.054
-157.720	-200.000	-0.011	-0.125
-156.706	-2.000	0.168	0.117
-155.691	-17.664	-0.206	-0.128
-154.677	-27.608	0.269	0.155
-153.662	39.526	0.178	0.159
-152.647	-200.000	0.020	0.102
-151.633	177.428	0.212	0.306
-150.618	8.988	-0.095	0.071
-149.604	800.000	0.065	0.212
-148.589	0.687	0.083	-0.059
-147.574	800.000	-0.042	-0.179
-146.560	139.610	0.124	-0.162
-145.545	532.786	0.099	-0.233
-144.531	-200.000	-0.121	0.526
-143.516	-162.626	0.095	0.005
-142.502	42.099	-0.116	-0.105
-141.487	-101.744	0.183	-0.044
-140.472	34.728	0.223	0.194
-139.458	-37.710	-0.099	-0.052
-138.443	336.374	-0.113	0.218
-137.429	-77.056	0.263	-0.091
-136.414	407.978	-0.054	-0.113
-135.399	-94.905	0.117	0.031
-134.385	-13.963	0.196	-0.125
-133.370	173.632	0.153	-0.218
-132.356	441.788	-0.095	0.205
-131.341	578.900	0.104	0.251
-130.326	139.528	-0.046	0.060
-129.312	280.868	-0.073	0.129
-128.297	-200.000	-0.020	0.115
-127.283	-172.579	-0.457	0.014
-126.268	-200.000	0.000	0.015
-125.253	-35.758	0.115	-0.062
-124.239	149.690	-0.159	0.214
-123.224	-200.000	0.062	0.283
-122.210	474.139	-0.054	0.120
-121.195	-20.572	0.257	0.157
-120.180	17.743	0.191	0.151
-119.166	165.616	0.131	0.184
-118.151	443.242	0.054	0.118
-117.137	213.944	0.086	-0.135
-116.122	260.861	-0.245	0.420
-115.107	228.333	-0.062	-0.100
-114.093	21.258	0.108	-0.087
-113.078	-200.000	-0.023	0.180
-112.064	240.747	-0.236	-0.390
-111.049	-146.561	0.058	-0.005
-110.034	-50.647	0.390	0.182
-109.020	-66.701	-0.206	-0.081
-108.005	563.305	0.014	-0.033
-106.991	142.628	-0.198	0.261
-105.976	21.618	-0.125	0.100
-104.962	377.973	0.087	-0.176
-103.947	-33.750	0.191	0.104
-102.932	97.253	-0.068	0.077
-101.918	64.262	-0.176	-0.176
-100.903	-154.577	-0.195	-0.013
-99.889	416.729	0.015	0.032
-98.874	-200.000	0.010	0.061
-97.859	487.301	0.207	-0.467
-96.845	353.220	0.148	-0.291
-95.830	-40.954	0.068	0.035
-94.816	-76.170	-0.080	0.028
-93.801	800.000	0.132	0.432
-92.786	800.000	0.033	0.101
-91.772	67.477	0.228	-0.230
-90.757	50.706	-0.068	0.064
-89.743	83.413	-0.072	-0.077
-88.728	143.553	-0.159	0.210
-87.713	-200.000	0.045	0.251
-86.699	-59.615	-0.115	-0.049
-85.684	168.917	0.236	0.333
-84.670	219.798	-0.085	0.134
-83.655	-78.981	0.066	-0.022
-82.640	-46.252	0.320	-0.155
-81.626	-122.359	-0.185	0.030
-80.611	-87.884	-0.250	-0.074
-79.597	51.371	-0.046	0.043
-78.582	800.000	0.102	0.414
-77.567	-178.859	0.197	0.004
-76.553	132.279	-0.030	-0.038
-75.538	154.180	0.106	0.143
-74.524	-97.221	0.250	0.064
-73.509	800.000	-0.067	-0.214
-72.494	800.000	0.078	-0.307
-71.480	304.669	-0.194	-0.356
-70.465	263.764	-0.155	0.267
-69.451	-48.724	0.167	0.079
-68.436	800.000	-0.033	0.126
-67.422	-200.000	-0.008	0.306
-66.407	79.479	-0.091	0.096
-65.392	777.376	-0.056	0.151
-64.378	45.601	0.068	0.062
-63.363	167.703	0.120	0.169
-62.349	-50.334	0.149	0.070
-61.334	144.873	-0.756	-0.998
-60.319	-71.305	0.624	0.231
-59.305	-200.000	-0.072	-1.052
-58.290	463.940	0.498	1.100
-57.276	506.280	0.582	1.333
-56.261	-200.000	102.585	565.707
-55.246	441.882	1469.189	3176.238
-54.232	142.505	2681.660	3516.765
-53.217	96.246	2361.824	2667.117
-52.203	36.227	2111.599	1837.423
-51.188	31.544	2025.354	1719.394
-50.173	30.099	2008.079	1691.484
-49.159	44.895	2061.828	1874.060
-48.144	45.541	2079.921	1896.421
-47.130	32.164	2039.337	1736.727
-46.115	29.859	2028.284	1706.020
-45.100	29.796	2025.146	1702.734
-44.086	29.784	2022.579	1700.394
-43.071	29.734	2020.090	1697.774
-42.057	29.743	2018.226	1696.230
-41.042	29.776	2016.018	1694.609
-40.027	29.799	2014.295	1693.297
-39.013	29.787	2012.187	1691.352
-37.998	29.720	2010.395	1689.164
-36.984	29.836	2008.711	1688.739
-35.969	29.780	2006.848	1686.597
-34.954	29.853	2004.780	1685.461
-33.940	29.773	2003.354	1683.462
-32.925	29.890	2001.377	1682.798
-31.911	29.893	2000.050	1681.645
-30.896	29.854	1998.616	1680.017
-29.881	29.820	1996.895	1678.199
-28.867	29.924	1995.217	1677.665
-27.852	29.938	1993.329	1676.135
-26.838	29.979	1990.911	1674.411
-25.823	29.933	1989.229	1672.509
-24.809	29.991	1987.530	1671.539
-23.794	29.880	1986.202	1669.356
-22.779	29.877	1984.659	1667.969
-21.765	29.959	1982.630	1666.928
-20.750	29.833	1981.584	1664.856
-19.736	29.937	1979.311	1663.813
-18.721	29.936	1977.409	1662.138
-17.706	29.920	1976.240	1660.943
-16.692	29.829	1974.378	1658.497
-15.677	29.900	1973.137	1658.023
-14.663	29.884	1971.220	1656.207
-13.648	29.899	1970.577	1655.734
-12.633	29.917	1968.799	1654.335
-11.619	29.857	1967.654	1652.773
-10.604	29.919	1965.641	1651.567
-9.590	29.870	1964.591	1650.187
-8.575	29.877	1963.589	1649.336
-7.560	29.949	1961.512	1648.166
-6.546	29.898	1961.037	1647.250
-5.531	29.888	1959.952	1646.184
-4.517	29.943	1958.506	1645.391
-3.502	29.938	1957.010	1644.030
-2.487	29.906	1955.772	1642.639
-1.473	29.859	1954.822	1641.355
-0.458	30.032	1949.884	1638.675
0.556	28.581	1930.417	1614.577
1.571	24.795	1912.360	1566.259
2.586	21.158	1936.486	1553.569
3.600	20.211	1973.501	1574.528
4.615	19.674	1967.217	1564.516
5.629	15.114	1863.700	1442.859
6.644	6.087	1740.563	1274.472
7.659	0.916	1701.953	1205.003
8.673	0.489	1699.047	1199.448
9.688	0.439	1697.782	1198.049
10.702	0.425	1696.278	1196.778
11.717	0.307	1692.713	1193.220
12.731	0.829	1691.794	1196.598
13.746	7.202	1706.340	1257.501
14.761	15.000	1721.975	1331.171
15.775	17.279	1724.034	1350.772
16.790	16.851	1722.583	1346.114
17.804	16.000	1719.201	1336.609
18.819	15.068	1715.876	1326.521
19.834	14.479	1713.504	1319.906
20.848	14.138	1712.431	1316.271
21.863	13.920	1710.063	1312.606
22.877	13.701	1708.288	1309.397
23.892	13.417	1707.374	1306.341
24.907	13.266	1706.494	1304.360
25.921	13.220	1705.207	1302.903
26.936	13.359	1703.923	1302.901
27.950	13.285	1703.028	1301.513
28.965	13.392	1702.162	1301.582
29.980	13.440	1701.620	1301.431
30.994	13.476	1700.224	1300.531
32.009	13.543	1699.675	1300.520
33.023	13.576	1698.862	1300.040
34.038	13.562	1698.226	1299.328
35.053	13.560	1696.833	1298.133
36.067	13.497	1695.963	1296.858
37.082	13.346	1694.931	1294.775
38.096	13.397	1693.750	1294.157
39.111	13.513	1692.882	1294.282
40.126	13.437	1692.236	1293.081
41.140	13.522	1691.005	1292.695
42.155	13.462	1689.525	1290.980
43.169	13.361	1688.324	1289.161
44.184	13.264	1687.084	1287.346
45.199	13.289	1686.053	1286.634
46.213	13.230	1684.837	1285.135
47.228	13.307	1684.101	1285.059
48.242	13.395	1682.571	1284.461
49.257	13.417	1681.388	1283.619
50.271	13.390	1680.109	1282.316
51.286	13.337	1678.953	1280.908
52.301	13.434	1677.402	1280.365
53.315	13.367	1676.285	1278.877
54.330	13.450	1674.213	1277.827
55.344	13.315	1673.021	1275.761
56.359	13.267	1671.386	1274.036
57.374	13.293	1670.405	1273.376
58.388	13.281	1669.153	1272.213
59.403	13.327	1667.670	1271.326
60.417	13.199	1666.390	1269.250
61.432	13.208	1664.868	1268.052
62.447	13.249	1663.623	1267.302
63.461	13.247	1662.546	1266.356
64.476	13.167	1661.567	1264.883
65.490	13.201	1660.215	1264.008
66.505	13.239	1659.038	1263.288
67.520	13.215	1658.302	1262.436
68.534	13.273	1656.930	1261.720
69.549	13.284	1655.981	1260.967
70.563	13.287	1654.258	1259.569
71.578	13.318	1653.126	1258.834
72.593	13.200	1652.224	1257.134
73.607	13.209	1651.244	1256.343
74.622	13.181	1649.588	1254.763
75.636	13.123	1649.610	1254.224
76.651	13.139	1648.442	1253.350
77.666	13.203	1647.140	1252.738
78.680	13.151	1646.141	1251.473
79.695	13.188	1645.255	1250.968
80.709	13.148	1644.220	1249.768
81.724	13.232	1642.718	1249.145
82.739	13.211	1642.632	1248.811
83.753	13.296	1641.120	1248.195
84.768	13.256	1640.111	1247.014
85.782	13.364	1639.219	1247.040
86.797	13.445	1638.210	1246.777
87.812	13.471	1637.639	1246.426
88.826	13.410	1635.876	1244.513
89.841	13.396	1634.742	1243.432
90.855	13.344	1634.125	1242.467
91.870	13.343	1633.362	1241.765
92.884	13.363	1632.115	1240.861
93.899	13.406	1631.261	1240.422
94.914	13.365	1629.924	1238.987
95.928	13.419	1628.038	1237.847
96.943	13.481	1626.953	1237.377
97.957	13.536	1625.021	1236.213
98.972	13.400	1623.906	1234.238
99.987	13.370	1622.331	1232.710
101.001	13.459	1620.833	1232.122
102.016	13.403	1619.141	1230.310
103.030	13.368	1617.942	1229.032
104.045	13.433	1616.550	1228.347
105.060	13.491	1615.011	1227.503
106.074	13.336	1613.734	1225.273
107.089	13.392	1611.795	1224.108
108.103	13.311	1610.349	1222.301
109.118	13.272	1609.270	1221.084
110.133	13.250	1607.208	1219.254
111.147	13.307	1606.108	1218.727
112.162	13.265	1604.980	1217.457
113.176	13.189	1603.563	1215.715
114.191	13.357	1601.568	1215.330
115.206	13.308	1601.117	1214.522
116.220	13.273	1599.794	1213.151
117.235	13.304	1598.141	1212.021
118.249	13.244	1596.816	1210.466
119.264	13.286	1595.815	1209.908
120.279	13.287	1594.229	1208.609
121.293	13.298	1592.536	1207.297
122.308	13.265	1590.874	1205.687
123.322	13.264	1589.192	1204.298
124.337	13.316	1587.705	1203.445
125.352	13.315	1586.648	1202.532
126.366	13.287	1585.333	1201.226
127.381	13.270	1584.356	1200.251
128.395	13.244	1583.481	1199.293
129.410	13.254	1582.088	1198.206
130.424	13.298	1580.441	1197.174
131.439	13.303	1579.160	1196.133
132.454	13.308	1577.542	1194.840
133.468	13.466	1575.682	1194.466
134.483	13.425	1574.355	1193.056
135.497	13.323	1573.654	1191.686
136.512	13.425	1571.707	1190.840
137.527	13.436	1570.285	1189.732
138.541	13.421	1569.150	1188.662
139.556	13.385	1567.832	1187.297
140.570	13.314	1566.278	1185.506
141.585	13.500	1564.847	1185.655
142.600	13.493	1563.649	1184.591
143.614	13.513	1562.528	1183.780
144.629	13.509	1561.447	1182.830
145.643	13.539	1560.071	1181.897
146.658	13.600	1558.516	1181.044
147.673	13.558	1556.741	1179.300
148.687	13.573	1555.269	1178.185
149.702	13.553	1553.665	1176.724
150.716	13.521	1551.955	1175.097
151.731	13.546	1550.508	1174.075
152.746	13.483	1549.698	1172.908
153.760	13.562	1547.995	1172.080
154.775	13.494	1546.889	1170.655
155.789	13.531	1545.576	1169.822
156.804	13.773	1543.725	1170.020
157.819	13.643	1542.837	1168.330
158.833	13.631	1542.072	1167.565
159.848	13.690	1540.416	1166.620
160.862	13.679	1539.396	1165.670
161.877	13.715	1538.071	1164.816
162.892	13.682	1536.939	1163.620
163.906	13.578	1535.916	1162.013
164.921	13.638	1534.360	1161.156
165.935	13.633	1533.159	1160.112
166.950	13.697	1532.391	1159.871
167.964	13.700	1531.272	1158.946
168.979	13.735	1530.045	1158.156
169.994	13.707	1529.035	1157.092
171.008	13.627	1528.274	1155.858
172.023	13.726	1526.677	1155.237
173.037	13.788	1525.599	1154.753
174.052	13.790	1524.034	1153.475
175.067	13.836	1522.978	1152.897
176.081	13.795	1522.122	1151.863
177.096	13.776	1520.973	1150.757
178.110	13.762	1519.614	1149.534
179.125	13.750	1518.561	1148.552
180.140	13.824	1517.472	1148.140
181.154	13.752	1516.430	1146.751
182.169	13.829	1515.308	1146.331
183.183	13.779	1514.101	1144.975
184.198	13.848	1512.834	1144.390
185.213	13.912	1511.812	1143.958
186.227	13.947	1510.668	1143.231
187.242	13.916	1509.476	1142.011
188.256	13.965	1508.453	1141.478
189.271	14.088	1507.018	1141.131
190.286	14.058	1506.457	1140.397
191.300	14.024	1505.194	1139.109
192.315	13.853	1503.845	1136.819
193.329	13.837	1502.761	1135.790
194.344	13.766	1501.830	1134.496
195.359	13.862	1500.575	1134.107
196.373	13.925	1499.598	1133.696
197.388	13.937	1498.563	1132.899
198.402	13.998	1497.384	1132.323
199.417	14.087	1496.023	1131.798
200.432	14.202	1494.609	1131.412
201.446	14.137	1494.114	1130.490
202.461	14.229	1492.602	1129.877
203.475	14.134	1491.630	1128.390
204.490	14.200	1490.010	1127.518
205.504	14.183	1489.194	1126.680
206.519	14.213	1488.059	1125.924
207.534	14.157	1487.306	1124.875
208.548	14.130	1486.128	1123.704
209.563	14.090	1485.224	1122.656
210.577	14.122	1484.179	1121.976
211.592	14.156	1482.880	1121.125
212.607	14.241	1482.540	1121.342
213.621	14.286	1481.458	1120.727
214.636	14.310	1480.467	1120.039
215.650	14.280	1479.330	1118.880
216.665	14.290	1478.588	1118.286
217.680	14.309	1477.518	1117.508
218.694	14.350	1476.737	1117.095
219.709	14.436	1475.975	1116.992
220.723	14.448	1474.808	1116.088
221.738	14.521	1473.554	1115.533
222.753	14.481	1473.497	1115.125
223.767	14.361	1472.536	1113.494
224.782	14.425	1471.091	1112.734
225.796	14.488	1470.097	1112.299
226.811	14.530	1469.366	1111.931
227.826	14.498	1468.787	1111.178
228.840	14.551	1467.961	1110.812
229.855	14.503	1466.948	1109.623
230.869	14.363	1466.532	1108.279
231.884	14.478	1465.052	1107.829
232.899	14.472	1463.903	1106.821
233.913	14.489	1462.456	1105.745
234.928	14.538	1461.446	1105.206
235.942	14.427	1460.186	1103.419
236.957	14.438	1459.137	1102.605
237.972	14.551	1457.951	1102.356
238.986	14.458	1457.112	1101.007
240.001	14.447	1456.121	1100.091
241.015	14.536	1455.142	1099.840
242.030	14.641	1453.466	1099.169
243.045	14.519	1452.651	1097.652
244.059	14.541	1452.050	1097.243
245.074	14.549	1451.274	1096.617
246.088	14.619	1449.985	1096.006
247.103	14.662	1449.268	1095.645
248.117	14.642	1448.735	1095.016
249.132	14.750	1447.481	1094.678
250.147	14.733	1447.086	1094.170
251.161	14.796	1446.425	1093.989
252.176	14.797	1445.246	1093.006
253.190	14.795	1444.768	1092.538
254.205	14.881	1443.661	1092.164
255.220	14.993	1442.632	1092.016
256.234	14.952	1442.351	1091.442
257.249	14.980	1440.957	1090.474
258.263	14.951	1440.405	1089.767
259.278	14.924	1439.288	1088.652
260.293	15.000	1438.016	1088.089
261.307	15.058	1437.529	1087.999
262.322	15.154	1436.601	1087.825
263.336	15.102	1436.022	1086.952
264.351	15.064	1434.959	1085.803
265.366	15.093	1433.939	1085.129
266.380	15.100	1433.272	1084.568
267.395	15.157	1432.254	1084.071
268.409	15.212	1431.092	1083.450
269.424	15.231	1430.058	1082.696
270.439	15.283	1429.342	1082.392
271.453	15.156	1428.358	1080.732
272.468	15.107	1427.454	1079.642
273.482	15.199	1426.808	1079.651
274.497	15.254	1425.609	1079.000
275.512	15.215	1424.797	1078.036
276.526	15.194	1424.211	1077.364
277.541	15.269	1422.760	1076.655
278.555	15.250	1421.797	1075.705
279.570	15.202	1421.263	1074.903
280.585	15.221	1420.307	1074.207
281.599	15.348	1419.489	1074.304
282.614	15.342	1418.583	1073.482
283.628	15.409	1417.265	1072.820
284.643	15.331	1416.479	1071.630
285.657	15.391	1414.967	1070.773
286.672	15.375	1414.315	1070.087
287.687	15.402	1413.477	1069.532
288.701	15.431	1412.012	1068.513
289.716	15.445	1411.524	1068.138
290.730	15.436	1410.776	1067.418
291.745	15.422	1409.838	1066.528
292.760	15.449	1408.935	1065.921
293.774	15.432	1407.636	1064.737
294.789	15.522	1406.853	1064.620
295.803	15.496	1406.010	1063.724
296.818	15.559	1404.942	1063.218
297.833	15.656	1403.826	1062.893
298.847	15.535	1403.089	1061.478
299.862	15.568	1401.627	1060.485
300.876	15.479	1401.449	1059.693
301.891	15.537	1399.997	1058.868
302.906	15.546	1399.320	1058.321
303.920	15.633	1398.448	1058.111
304.935	15.744	1397.382	1057.910
305.949	15.724	1396.780	1057.239
306.964	15.722	1396.087	1056.606
307.979	15.828	1395.286	1056.575
308.993	15.787	1394.006	1055.251
310.008	15.903	1392.871	1055.027
311.022	15.855	1392.140	1054.078
312.037	15.835	1390.944	1052.952
313.052	15.823	1390.474	1052.429
314.066	15.877	1389.161	1051.680
315.081	15.877	1388.163	1050.832
316.095	15.753	1387.622	1049.558
317.110	15.791	1386.345	1048.732
318.125	15.793	1385.568	1048.069
319.139	15.826	1384.621	1047.461
320.154	15.703	1383.571	1045.812
321.168	15.803	1382.447	1045.492
322.183	15.762	1381.791	1044.650
323.197	15.929	1380.263	1044.434
324.212	15.806	1379.828	1043.250
325.227	15.820	1379.015	1042.633
326.241	15.935	1377.904	1042.409
327.256	15.990	1376.835	1041.847
328.270	15.994	1375.903	1041.073
329.285	15.946	1375.241	1040.185
330.300	15.939	1373.987	1039.101
331.314	15.989	1373.287	1038.788
332.329	15.912	1372.530	1037.650
333.343	15.939	1371.748	1037.134
334.358	15.973	1370.788	1036.528
335.373	15.992	1369.878	1035.865
336.387	15.971	1369.376	1035.263
337.402	15.993	1368.404	1034.570
338.416	16.144	1367.474	1034.703
339.431	16.102	1367.194	1034.141
340.446	16.153	1366.312	1033.694
341.460	16.226	1364.775	1032.891
342.475	16.178	1364.626	1032.389
343.489	16.263	1363.455	1031.933
344.504	16.333	1362.319	1031.411
345.519	16.321	1361.078	1030.304
346.533	16.271	1360.545	1029.504
347.548	16.365	1359.534	1029.224
348.562	16.418	1358.518	1028.688
349.577	16.432	1357.681	1028.046
350.592	16.394	1356.972	1027.184
351.606	16.329	1356.581	1026.404
352.621	16.389	1355.174	1025.612
353.635	16.348	1353.809	1024.242
354.650	16.342	1353.047	1023.541
355.665	16.239	1352.303	1022.260
356.679	16.256	1351.593	1021.735
357.694	16.347	1349.965	1020.968
358.708	16.393	1348.584	1020.109
359.723	16.411	1347.892	1019.605
360.738	16.504	1346.695	1019.170
361.752	16.422	1346.120	1018.148
362.767	16.417	1344.918	1017.120
363.781	16.486	1343.835	1016.628
364.796	16.469	1343.292	1016.020
365.810	16.504	1342.609	1015.628
366.825	16.588	1341.616	1015.287
367.840	16.681	1340.785	1015.130
368.854	16.543	1340.366	1013.893
369.869	16.638	1340.071	1014.151
370.883	16.678	1339.436	1013.817
371.898	16.572	1338.899	1012.691
372.913	16.685	1337.577	1012.275
373.927	16.668	1336.570	1011.325
374.942	16.694	1335.828	1010.829
375.956	16.576	1335.410	1009.714
376.971	16.833	1333.675	1009.847
377.986	16.776	1333.183	1009.044
379.000	16.733	1332.528	1008.205
380.015	16.801	1331.577	1007.801
381.029	16.891	1330.701	1007.584
382.044	16.902	1329.694	1006.795
383.059	16.893	1329.129	1006.225
384.073	16.973	1328.575	1006.196
385.088	16.938	1328.004	1005.463
386.102	16.949	1327.055	1004.721
387.117	16.917	1326.584	1004.084
388.132	16.978	1325.938	1003.868
389.146	17.022	1324.955	1003.295
390.161	16.969	1324.145	1002.282
391.175	16.960	1323.265	1001.472
392.190	16.978	1322.845	1001.172
393.205	16.990	1321.735	1000.313
394.219	17.043	1320.303	999.456
395.234	17.070	1319.152	998.656
396.248	17.032	1318.196	997.617
397.263	17.047	1316.375	996.241
398.278	16.978	1315.437	995.040
399.292	17.034	1314.535	994.596
400.307	17.072	1313.610	994.029
401.321	16.988	1312.273	992.440
402.336	16.955	1311.454	991.540
403.350	17.098	1310.402	991.493
404.365	17.081	1309.624	990.714
405.380	17.092	1308.365	989.742
406.394	17.034	1307.859	988.930
407.409	17.136	1306.884	988.703
408.423	17.154	1306.757	988.619
409.438	17.180	1305.970	988.089
410.453	17.206	1305.213	987.583
411.467	17.232	1304.332	986.980
412.482	17.308	1303.819	986.945
413.496	17.359	1303.117	986.619
414.511	17.332	1302.169	985.657
415.526	17.343	1301.386	985.041
416.540	17.350	1300.787	984.540
417.555	17.488	1299.764	984.481
418.569	17.475	1299.094	983.808
419.584	17.431	1298.723	983.187
420.599	17.403	1298.178	982.524
421.613	94.557	1356.339	1468.819
422.628	92.916	1364.767	1468.904
