DTS Sentinel unit serial number:	SN413079Multiplexer serial number:	ORYXHardware model number:	OX4-SRSoftware version number:	ORYX F/W v4.00 Oryx Data Collector v3.7.2.0data status	okinstallation	princeton_trtdifferential loss correction	single-endedforward channel	channel 4reverse channel	N/Adate	2019/09/18time	00:33:34forward acquisition time	60.00reverse acquisition time	0.00gamma	496.2192k internal	0.2333k external	0.2333temperature offset calibration	0.9998default loss term (dB/km)	0.3790temperature slope calibration	1.0000multiplexer offset coefficient	1.0000multiplexer slope coefficient	1.0000fibre end	0.00T internal ref (°C)	23.50T ext. ref 1 (°C)	0.17T ext. ref 2 (°C)	17.16length (m)	temperature (°C)	Stokes	anti-Stokes-747.200	253.018	0.107	0.184
-746.185	800.000	0.088	0.379
-745.171	-123.827	-0.271	0.043
-744.156	104.845	-0.195	-0.231
-743.142	144.771	0.167	0.224
-742.127	-200.000	-0.010	-0.302
-741.112	-164.563	0.382	-0.017
-740.098	-28.994	-0.225	0.130
-739.083	44.416	-0.118	0.109
-738.069	367.022	-0.113	0.230
-737.054	-137.968	-0.340	-0.038
-736.039	-156.119	-0.105	-0.007
-735.025	530.889	0.061	0.146
-734.010	132.366	-0.052	-0.068
-732.996	269.959	-0.073	-0.128
-731.981	800.000	-0.111	0.442
-730.966	-30.621	0.200	0.114
-729.952	-139.167	-0.093	-0.010
-728.937	-149.515	-0.208	0.017
-727.923	126.595	-0.149	0.190
-726.908	-101.654	-0.075	0.018
-725.894	106.535	-0.111	0.133
-724.879	288.225	-0.076	0.138
-723.864	108.995	0.244	-0.293
-722.850	-200.000	-0.051	-0.296
-721.835	-106.765	0.310	0.069
-720.821	-111.832	-0.134	-0.027
-719.806	-200.000	0.034	-0.179
-718.791	800.000	0.065	0.202
-717.777	63.905	-0.092	0.093
-716.762	800.000	0.016	-0.057
-715.748	109.849	0.183	-0.221
-714.733	-158.623	-0.294	0.017
-713.718	-150.486	0.169	0.013
-712.704	-6.055	-0.104	0.071
-711.689	-200.000	0.020	-0.255
-710.675	350.921	0.128	-0.255
-709.660	800.000	0.097	-0.388
-708.645	800.000	-0.038	-0.149
-707.631	-200.000	0.012	0.124
-706.616	-116.326	-0.082	-0.015
-705.602	-128.820	-0.243	0.034
-704.587	475.909	-0.156	-0.353
-703.572	380.601	0.094	0.194
-702.558	-50.402	-0.321	-0.152
-701.543	-149.604	-0.032	-0.003
-700.529	80.444	0.134	0.144
-699.514	230.106	0.048	-0.079
-698.499	-92.883	-0.320	0.090
-697.485	-17.758	0.140	0.088
-696.470	-200.000	0.034	0.279
-695.456	225.412	0.139	0.225
-694.441	800.000	-0.059	-0.212
-693.426	244.955	-0.038	-0.064
-692.412	31.054	0.183	-0.157
-691.397	800.000	-0.031	0.112
-690.383	206.646	-0.062	0.097
-689.368	-56.015	-0.246	0.110
-688.354	-85.918	0.225	0.070
-687.339	-8.542	-0.147	-0.099
-686.324	364.940	-0.057	-0.114
-685.310	-200.000	-0.006	0.161
-684.295	800.000	0.038	-0.119
-683.281	253.860	-0.022	0.038
-682.266	-127.609	-0.157	0.023
-681.251	-80.685	0.098	0.033
-680.237	239.109	-0.269	-0.448
-679.222	-200.000	-0.007	0.163
-678.208	-200.000	-0.050	0.297
-677.193	-92.484	-0.074	0.021
-676.178	-32.245	0.176	-0.098
-675.164	343.182	-0.106	-0.208
-674.149	90.807	-0.232	-0.261
-673.135	-200.000	0.008	-0.054
-672.120	-49.801	0.305	0.145
-671.105	43.487	-0.030	-0.027
-670.091	-127.036	0.122	0.018
-669.076	-109.738	0.283	0.060
-668.062	-101.047	-0.109	0.027
-667.047	800.000	-0.079	0.297
-666.032	105.370	0.085	0.100
-665.018	274.979	-0.183	0.325
-664.003	-200.000	-0.020	-0.190
-662.989	19.451	-0.095	0.077
-661.974	-99.246	-0.076	-0.019
-660.959	695.614	-0.120	0.316
-659.945	-200.000	-0.046	0.322
-658.930	148.360	0.080	-0.108
-657.916	-91.926	-0.437	0.124
-656.901	-57.771	0.054	-0.024
-655.886	734.411	0.034	0.092
-654.872	452.104	0.173	0.383
-653.857	196.377	-0.022	0.033
-652.843	161.250	0.060	-0.084
-651.828	26.730	-0.063	0.053
-650.814	-200.000	-0.047	-0.214
-649.799	79.213	0.066	0.071
-648.784	122.257	-0.113	-0.142
-647.770	-65.508	-0.060	0.024
-646.755	-140.293	0.102	0.011
-645.741	-200.000	0.000	-0.373
-644.726	1.775	-0.124	-0.090
-643.711	800.000	-0.009	-0.031
-642.697	234.881	-0.069	-0.114
-641.682	-120.181	-0.178	0.030
-640.668	800.000	0.107	0.346
-639.653	-200.000	0.041	-0.248
-638.638	-11.604	-0.086	0.057
-637.624	800.000	0.026	0.079
-636.609	-1.691	0.057	0.040
-635.595	-200.000	0.033	-0.616
-634.580	-200.000	-0.011	-0.280
-633.565	-200.000	-0.033	-0.203
-632.551	-200.000	-0.030	-0.177
-631.536	-87.412	0.169	0.051
-630.522	800.000	-0.037	-0.114
-629.507	529.353	0.097	-0.229
-628.492	789.134	0.037	0.102
-627.478	147.838	-0.153	0.206
-626.463	379.087	-0.211	0.432
-625.449	-85.718	-0.420	-0.130
-624.434	-200.000	0.075	-0.406
-623.419	800.000	0.060	0.247
-622.405	30.443	-0.050	-0.043
-621.390	35.287	0.138	-0.121
-620.376	93.891	-0.162	0.184
-619.361	-48.097	-0.355	0.172
-618.346	162.028	0.077	0.107
-617.332	-3.271	0.124	-0.086
-616.317	-200.000	0.021	-0.197
-615.303	546.675	0.154	-0.368
-614.288	190.726	0.239	-0.360
-613.273	-141.793	-0.190	-0.019
-612.259	67.684	-0.108	0.110
-611.244	-28.905	-0.199	0.114
-610.230	75.119	-0.279	-0.294
-609.215	160.207	-0.130	0.181
-608.201	27.123	-0.270	0.226
-607.186	-75.369	0.379	0.135
-606.171	337.419	-0.121	-0.235
-605.157	-125.038	0.111	-0.017
-604.142	-200.000	-0.033	-0.262
-603.128	17.466	0.239	-0.190
-602.113	-200.000	-0.004	0.083
-601.098	-17.000	0.153	-0.097
-600.084	607.583	-0.092	0.228
-599.069	451.470	-0.096	0.211
-598.055	800.000	-0.154	-0.514
-597.040	158.511	0.137	0.190
-596.025	234.406	0.232	-0.382
-595.011	360.702	0.102	0.204
-593.996	15.567	-0.184	0.144
-592.982	-56.631	-0.157	0.070
-591.967	-120.658	-0.116	0.020
-590.952	-33.643	-0.179	-0.099
-589.938	-200.000	-0.038	-0.309
-588.923	-94.422	0.187	0.051
-587.909	48.701	-0.151	0.141
-586.894	71.434	0.159	-0.164
-585.879	76.000	0.073	-0.077
-584.865	60.469	0.042	0.042
-583.850	170.050	0.084	0.120
-582.836	-14.445	-0.131	0.084
-581.821	-18.676	0.161	0.100
-580.806	-86.649	-0.266	-0.081
-579.792	-90.333	-0.264	0.076
-578.777	-164.496	0.145	-0.007
-577.763	36.028	0.242	-0.213
-576.748	8.100	-0.239	0.179
-575.733	-44.199	0.427	-0.214
-574.719	800.000	-0.111	-0.391
-573.704	-30.249	-0.115	-0.065
-572.690	-104.677	0.243	0.056
-571.675	42.439	-0.129	0.117
-570.661	448.632	-0.178	-0.392
-569.646	348.094	0.176	-0.346
-568.631	138.452	-0.287	0.377
-567.617	59.299	0.101	0.099
-566.602	198.704	0.071	0.109
-565.588	0.145	-0.077	-0.055
-564.573	18.296	-0.201	-0.160
-563.558	800.000	-0.049	-0.168
-562.544	120.771	0.079	-0.098
-561.529	182.446	0.049	0.072
-560.515	3.417	0.335	0.243
-559.500	18.291	-0.272	0.217
-558.485	800.000	-0.075	-0.272
-557.471	-200.000	0.028	0.132
-556.456	-42.539	0.100	-0.051
-555.442	-31.768	-0.124	0.069
-554.427	3.405	0.246	-0.179
-553.412	164.116	0.028	0.039
-552.398	340.761	0.033	0.065
-551.383	65.575	-0.128	0.129
-550.369	200.951	-0.092	0.141
-549.354	-65.841	-0.695	-0.278
-548.339	178.673	0.166	-0.243
-547.325	160.501	0.362	0.503
-546.310	-200.000	0.024	0.436
-545.296	3.928	-0.050	-0.037
-544.281	800.000	-0.084	-0.256
-543.266	597.870	0.178	-0.441
-542.252	-119.112	0.177	0.031
-541.237	-111.937	0.194	0.039
-540.223	-39.497	0.302	0.158
-539.208	-8.570	0.098	0.065
-538.193	-200.000	0.000	0.080
-537.179	-138.834	-0.461	0.050
-536.164	198.654	0.202	-0.309
-535.150	800.000	0.054	0.170
-534.135	-200.000	0.004	0.069
-533.121	-193.769	0.297	0.003
-532.106	68.269	0.111	0.113
-531.091	-200.000	-0.000	0.185
-530.077	17.405	-0.273	-0.216
-529.062	-81.466	0.081	0.027
-528.048	30.463	-0.147	-0.126
-527.033	-163.121	0.263	-0.013
-526.018	-84.108	-0.308	-0.097
-525.004	-141.671	-0.383	-0.038
-523.989	-149.249	-0.442	0.035
-522.975	-59.961	-0.236	-0.101
-521.960	370.879	-0.011	-0.022
-520.945	488.321	-0.134	-0.305
-519.931	621.530	0.031	0.079
-518.916	-126.898	0.287	0.042
-517.902	189.462	-0.200	0.299
-516.887	224.405	0.156	0.250
-515.872	-166.672	-0.260	-0.011
-514.858	428.357	0.072	0.154
-513.843	-200.000	-0.004	0.034
-512.829	566.335	-0.108	0.262
-511.814	-200.000	0.013	0.097
-510.799	-200.000	-0.012	-0.127
-509.785	-99.801	0.326	-0.081
-508.770	-44.712	0.203	0.101
-507.756	-48.474	-0.219	-0.105
-506.741	-42.338	0.371	0.189
-505.726	-105.875	-0.373	-0.084
-504.712	12.566	0.122	-0.094
-503.697	-200.000	-0.004	-0.225
-502.683	82.510	-0.111	0.120
-501.668	-200.000	0.047	-0.237
-500.653	79.560	-0.192	-0.206
-499.639	-81.734	0.235	0.077
-498.624	-60.102	0.346	-0.147
-497.610	-200.000	0.051	0.368
-496.595	-200.000	0.040	0.175
-495.581	-101.037	0.295	0.072
-494.566	800.000	-0.074	0.248
-493.551	-25.045	0.294	0.174
-492.537	16.136	-0.061	0.048
-491.522	50.048	-0.324	0.304
-490.508	153.102	0.097	-0.132
-489.493	321.495	-0.072	-0.136
-488.478	17.403	-0.199	0.157
-487.464	-54.820	0.377	0.169
-486.449	157.895	0.154	-0.213
-485.435	-200.000	-0.055	0.259
-484.420	-119.967	0.392	0.067
-483.405	800.000	0.092	-0.278
-482.391	800.000	0.033	0.092
-481.376	33.879	-0.234	0.203
-480.362	26.734	0.101	0.084
-479.347	91.003	0.338	-0.377
-478.332	800.000	-0.044	-0.153
-477.318	-105.813	-0.275	-0.062
-476.303	-200.000	-0.003	-0.082
-475.289	-184.461	0.114	0.002
-474.274	545.671	0.038	0.091
-473.259	800.000	-0.084	-0.343
-472.245	189.102	0.109	0.162
-471.230	203.805	-0.330	0.509
-470.216	-60.329	0.146	-0.062
-469.201	375.981	0.113	-0.230
-468.186	-200.000	0.015	0.263
-467.172	-200.000	-0.009	-0.217
-466.157	-47.712	0.256	-0.123
-465.143	25.338	0.138	0.114
-464.128	54.454	-0.219	-0.210
-463.113	5.720	0.090	-0.066
-462.099	82.466	-0.170	-0.184
-461.084	-23.864	0.408	0.243
-460.070	388.259	-0.088	-0.182
-459.055	-105.872	-0.193	0.043
-458.040	146.550	0.133	0.177
-457.026	167.526	-0.102	0.144
-456.011	-38.661	0.234	0.123
-454.997	52.690	-0.098	0.093
-453.982	-200.000	0.006	0.112
-452.968	23.824	-0.211	0.173
-451.953	-55.468	-0.164	0.073
-450.938	-200.000	-0.020	0.198
-449.924	-78.912	0.361	0.122
-448.909	-122.274	-0.166	0.027
-447.895	79.305	0.131	0.139
-446.880	15.814	-0.119	0.093
-445.865	157.021	0.095	0.131
-444.851	-178.749	0.199	-0.005
-443.836	-200.000	0.018	0.255
-442.822	-200.000	0.049	-0.242
-441.807	439.037	0.147	0.319
-440.792	-200.000	-0.007	-0.237
-439.778	-40.398	-0.577	-0.298
-438.763	19.948	0.220	0.176
-437.749	41.038	0.134	-0.120
-436.734	307.478	-0.163	0.301
-435.719	113.632	0.290	0.350
-434.705	289.174	-0.122	0.219
-433.690	737.182	-0.095	0.252
-432.676	-86.480	0.040	0.012
-431.661	-24.803	0.174	0.103
-430.646	161.122	0.116	-0.161
-429.632	800.000	0.087	0.344
-428.617	84.668	-0.054	0.059
-427.603	404.825	-0.032	0.067
-426.588	-64.948	0.205	-0.082
-425.573	80.570	-0.255	-0.273
-424.559	145.944	0.243	-0.323
-423.544	654.034	-0.031	-0.079
-422.530	-200.000	0.059	-0.300
-421.515	116.533	0.169	0.206
-420.500	-200.000	0.023	-0.245
-419.486	800.000	-0.036	0.111
-418.471	-87.697	-0.076	-0.023
-417.457	23.230	0.064	0.052
-416.442	-148.679	-0.221	0.018
-415.428	3.614	-0.189	0.137
-414.413	467.829	-0.143	0.317
-413.398	-200.000	0.029	0.221
-412.384	-200.000	-0.033	-0.170
-411.369	-200.000	-0.007	-0.083
-410.355	800.000	-0.016	-0.065
-409.340	800.000	-0.009	0.032
-408.325	230.439	0.059	-0.096
-407.311	800.000	0.050	0.178
-406.296	-200.000	0.011	0.179
-405.282	-59.855	-0.237	0.100
-404.267	800.000	-0.093	0.385
-403.252	-200.000	-0.056	-0.339
-402.238	800.000	0.040	-0.122
-401.223	800.000	-0.057	-0.201
-400.209	13.185	-0.153	0.117
-399.194	-45.464	0.168	-0.083
-398.179	-81.814	0.212	0.069
-397.165	56.658	-0.106	-0.102
-396.150	-200.000	-0.093	0.419
-395.136	80.055	-0.254	0.271
-394.121	-200.000	0.009	0.177
-393.106	9.725	-0.279	0.210
-392.092	331.732	-0.195	0.374
-391.077	-200.000	-0.010	0.068
-390.063	5.946	-0.196	0.144
-389.048	800.000	-0.048	0.207
-388.033	420.721	-0.144	0.306
-387.019	58.413	-0.238	-0.231
-386.004	-70.716	0.210	0.079
-384.990	-200.000	0.065	-0.341
-383.975	-128.448	0.247	-0.035
-382.960	548.609	-0.022	0.053
-381.946	-139.691	-0.335	-0.035
-380.931	-60.383	0.188	0.079
-379.917	-200.000	-0.012	0.132
-378.902	49.825	0.215	0.201
-377.888	-43.829	-0.310	-0.155
-376.873	48.732	-0.126	-0.117
-375.858	-34.216	0.155	-0.084
-374.844	23.914	-0.242	0.198
-373.829	-200.000	-0.031	0.331
-372.815	72.020	0.118	-0.122
-371.800	-200.000	0.005	0.164
-370.785	-182.481	0.253	-0.005
-369.771	800.000	0.029	-0.080
-368.756	-110.704	-0.157	-0.032
-367.742	-89.980	0.301	-0.087
-366.727	439.711	0.084	0.181
-365.712	-3.790	0.218	-0.150
-364.698	-124.180	-0.197	-0.031
-363.683	232.277	-0.248	-0.403
-362.669	-170.176	0.170	-0.006
-361.654	176.334	0.092	-0.132
-360.639	-1.119	0.195	-0.137
-359.625	227.512	0.160	0.258
-358.610	800.000	-0.047	0.142
-357.596	-148.578	0.105	-0.009
-356.581	81.134	-0.276	-0.295
-355.566	-112.673	0.239	-0.047
-354.552	280.877	0.166	0.294
-353.537	21.600	-0.115	-0.093
-352.523	-200.000	-0.047	-0.347
-351.508	-71.959	0.071	0.026
-350.493	127.717	-0.133	0.168
-349.479	800.000	0.052	-0.216
-348.464	-89.767	-0.289	-0.084
-347.450	64.107	0.226	-0.225
-346.435	-129.073	0.163	-0.023
-345.420	-71.913	0.213	-0.078
-344.406	561.042	0.009	-0.021
-343.391	147.672	0.042	-0.056
-342.377	161.532	-0.166	-0.229
-341.362	800.000	0.097	0.408
-340.348	800.000	0.112	0.360
-339.333	-75.063	-0.190	0.067
-338.318	-122.192	0.200	0.032
-337.304	-27.755	-0.162	-0.093
-336.289	-27.353	0.075	0.043
-335.275	-68.259	-0.222	-0.085
-334.260	99.340	-0.284	-0.325
-333.245	-107.843	0.067	-0.014
-332.231	-114.319	0.325	0.062
-331.216	-200.000	-0.045	0.309
-330.202	94.550	0.175	-0.197
-329.187	341.372	-0.105	0.204
-328.172	178.983	-0.277	0.400
-327.158	-200.000	0.011	-0.103
-326.143	15.642	-0.318	0.248
-325.129	-200.000	-0.017	0.106
-324.114	-118.248	-0.099	-0.018
-323.099	-137.169	-0.254	0.029
-322.085	148.632	0.146	-0.195
-321.070	66.407	-0.357	0.359
-320.056	341.894	-0.071	-0.137
-319.041	-200.000	0.000	-0.072
-318.026	30.740	0.064	-0.054
-317.012	55.309	-0.129	-0.124
-315.997	83.991	-0.062	-0.067
-314.983	-59.894	0.211	0.089
-313.968	-134.635	-0.127	-0.015
-312.953	1.553	0.161	0.115
-311.939	187.491	0.054	-0.080
-310.924	50.850	-0.086	-0.081
-309.910	-2.977	0.112	0.077
-308.895	41.561	-0.184	-0.164
-307.880	800.000	0.056	0.212
-306.866	-97.088	0.266	-0.069
-305.851	800.000	0.122	-0.417
-304.837	-200.000	-0.020	0.086
-303.822	52.085	-0.297	0.280
-302.807	-93.765	0.229	0.062
-301.793	163.694	0.033	-0.045
-300.778	-61.901	0.092	0.038
-299.764	407.182	0.071	-0.147
-298.749	-83.451	0.344	0.109
-297.735	-47.324	0.107	0.051
-296.720	-200.000	0.028	-0.274
-295.705	-65.332	-0.076	0.030
-294.691	800.000	0.027	0.084
-293.676	-82.644	-0.297	0.095
-292.662	800.000	0.089	-0.329
-291.647	-16.278	0.073	0.046
-290.632	-200.000	-0.041	0.345
-289.618	800.000	-0.135	0.452
-288.603	-80.733	0.315	0.103
-287.589	800.000	0.032	-0.098
-286.574	-128.986	0.116	0.016
-285.559	778.745	-0.055	0.148
-284.545	-11.435	-0.285	0.185
-283.530	-176.878	0.088	0.002
-282.516	-87.113	-0.117	-0.035
-281.501	665.441	-0.024	-0.060
-280.486	-78.672	0.187	-0.063
-279.472	-100.611	0.202	0.049
-278.457	-155.260	-0.253	-0.016
-277.443	-181.904	0.158	-0.003
-276.428	363.676	-0.196	0.390
-275.413	-200.000	0.058	0.398
-274.399	800.000	0.079	0.232
-273.384	-200.000	-0.011	0.494
-272.370	-81.199	-0.224	-0.073
-271.355	302.231	0.114	0.209
-270.340	56.500	0.170	0.163
-269.326	18.278	0.360	-0.284
-268.311	-200.000	-0.006	-0.199
-267.297	97.109	-0.190	0.215
-266.282	158.299	0.067	0.092
-265.267	-200.000	-0.039	-0.227
-264.253	-139.811	0.191	-0.020
-263.238	800.000	-0.096	-0.304
-262.224	-37.282	0.115	0.061
-261.209	74.748	0.038	0.039
-260.195	-72.041	0.355	-0.130
-259.180	5.940	0.045	0.033
-258.165	-115.712	0.116	0.021
-257.151	-102.739	-0.171	0.040
-256.136	161.483	0.251	0.347
-255.122	-189.207	0.065	-0.001
-254.107	451.041	-0.185	-0.403
-253.092	697.026	-0.058	0.150
-252.078	-14.017	-0.302	-0.192
-251.063	-69.011	-0.239	0.091
-250.049	-200.000	0.014	0.136
-249.034	-72.879	-0.279	0.101
-248.019	201.703	-0.085	0.129
-247.005	51.785	-0.190	0.178
-245.990	-160.429	-0.340	-0.018
-244.976	638.878	0.114	-0.286
-243.961	-161.468	0.115	-0.006
-242.946	-51.615	-0.099	-0.046
-241.932	-158.696	0.255	0.014
-240.917	-173.180	0.398	-0.012
-239.903	-200.000	0.011	0.100
-238.888	-100.091	0.248	-0.061
-237.873	-200.000	-0.035	-0.224
-236.859	-65.855	-0.115	-0.045
-235.844	-88.263	0.061	0.018
-234.830	-200.000	0.057	-0.393
-233.815	-200.000	0.045	-0.246
-232.800	-109.957	0.283	-0.058
-231.786	446.531	0.016	-0.036
-230.771	-8.829	-0.124	0.082
-229.757	226.150	-0.076	0.121
-228.742	-100.524	0.145	-0.035
-227.727	49.893	0.161	-0.150
-226.713	-200.000	0.074	-0.333
-225.698	-102.110	0.290	-0.069
-224.684	115.398	0.139	-0.167
-223.669	800.000	-0.028	-0.093
-222.655	19.893	-0.068	0.054
-221.640	421.036	-0.063	-0.133
-220.625	176.016	0.081	-0.115
-219.611	-200.000	0.006	0.224
-218.596	53.786	0.080	0.076
-217.582	-200.000	0.022	-0.112
-216.567	123.593	-0.023	-0.028
-215.552	-110.422	-0.112	0.023
-214.538	102.804	0.175	0.202
-213.523	-134.634	-0.195	-0.023
-212.509	-46.766	-0.054	0.026
-211.494	626.040	0.066	-0.165
-210.479	-199.887	0.093	-0.000
-209.465	-200.000	0.016	0.336
-208.450	43.288	0.200	-0.180
-207.436	-146.959	-0.076	0.006
-206.421	800.000	0.083	0.298
-205.406	-61.682	-0.362	-0.149
-204.392	81.988	-0.110	-0.117
-203.377	-22.977	-0.490	0.291
-202.363	-119.980	-0.126	-0.021
-201.348	235.457	0.139	0.226
-200.333	-5.264	-0.223	-0.151
-199.319	278.220	-0.198	-0.347
-198.304	-200.000	-0.046	-0.226
-197.290	79.622	-0.105	0.111
-196.275	-200.000	-0.008	-0.083
-195.260	-200.000	0.011	-0.063
-194.246	800.000	0.039	-0.136
-193.231	-79.821	0.066	0.022
-192.217	345.250	-0.048	-0.092
-191.202	-200.000	0.009	-0.047
-190.187	-41.467	0.254	0.129
-189.173	-177.613	-0.046	0.001
-188.158	644.307	0.056	-0.140
-187.144	35.227	0.038	0.033
-186.129	130.151	0.152	-0.191
-185.114	-85.233	0.101	0.031
-184.100	-105.108	-0.415	-0.093
-183.085	800.000	-0.132	-0.524
-182.071	-200.000	0.002	0.169
-181.056	-138.003	-0.066	-0.007
-180.042	-200.000	0.025	-0.220
-179.027	15.531	0.228	-0.176
-178.012	8.762	-0.242	-0.179
-176.998	-200.000	-0.013	-0.121
-175.983	-46.994	0.476	-0.229
-174.969	-159.742	-0.040	-0.002
-173.954	115.453	0.123	0.147
-172.939	-12.918	0.281	0.180
-171.925	-40.467	-0.183	-0.094
-170.910	-200.000	0.009	-0.267
-169.896	-84.556	0.055	-0.017
-168.881	-71.427	-0.127	0.047
-167.866	800.000	0.042	0.162
-166.852	-200.000	-0.005	0.208
-165.837	-129.610	-0.141	-0.019
-164.823	409.777	0.069	-0.144
-163.808	87.892	-0.022	-0.024
-162.793	-32.390	0.091	0.050
-161.779	800.000	-0.040	0.141
-160.764	800.000	0.046	-0.158
-159.750	-175.347	-0.215	-0.006
-158.735	322.250	0.140	-0.262
-157.720	-89.914	0.167	-0.048
-156.706	-200.000	-0.082	0.000
-155.691	220.861	-0.157	0.247
-154.677	-125.550	0.205	-0.031
-153.662	800.000	-0.098	-0.407
-152.647	-34.925	-0.394	-0.211
-151.633	-200.000	0.032	-0.192
-150.618	30.556	0.074	-0.062
-149.604	743.702	-0.098	0.258
-148.589	184.046	0.017	0.025
-147.574	-63.498	-0.031	-0.013
-146.560	57.153	-0.163	0.156
-145.545	800.000	-0.053	-0.154
-144.531	800.000	-0.030	0.110
-143.516	396.383	0.028	0.057
-142.502	-147.197	-0.277	0.023
-141.487	536.114	0.079	0.183
-140.472	-200.000	0.010	-0.231
-139.458	382.259	0.022	0.043
-138.443	91.315	0.120	-0.132
-137.429	-94.792	-0.362	0.096
-136.414	614.533	0.077	0.189
-135.399	-71.683	0.161	0.059
-134.385	330.711	0.218	0.412
-133.370	123.931	0.117	0.144
-132.356	-126.109	-0.266	0.039
-131.341	-200.000	0.017	-0.074
-130.326	-58.703	0.237	-0.101
-129.312	54.410	-0.168	-0.159
-128.297	800.000	0.108	-0.385
-127.283	169.489	0.281	0.394
-126.268	-106.623	-0.239	-0.052
-125.253	34.105	-0.323	-0.277
-124.239	387.386	0.157	0.319
-123.224	470.884	-0.075	0.166
-122.210	-200.000	0.021	-0.185
-121.195	-79.480	0.131	0.043
-120.180	24.123	-0.052	-0.042
-119.166	700.371	0.041	-0.106
-118.151	-88.207	-0.449	0.132
-117.137	182.505	-0.168	0.243
-116.122	800.000	-0.042	-0.170
-115.107	-54.396	-0.158	-0.070
-114.093	-135.753	-0.284	0.033
-113.078	-200.000	-0.012	0.249
-112.064	-25.675	-0.185	-0.107
-111.049	496.713	-0.123	0.279
-110.034	-49.328	0.125	0.058
-109.020	605.751	0.020	-0.050
-108.005	32.483	-0.075	0.063
-106.991	46.295	-0.208	-0.189
-105.976	-42.284	0.129	-0.065
-104.962	208.475	-0.169	-0.260
-103.947	-170.329	-0.497	-0.017
-102.932	-200.000	0.021	0.151
-101.918	800.000	-0.099	0.336
-100.903	-141.304	-0.220	0.022
-99.889	102.254	0.146	0.167
-98.874	-111.805	-0.129	-0.026
-97.859	139.251	0.150	0.193
-96.845	-200.000	0.063	-0.296
-95.830	-200.000	0.067	-0.365
-94.816	-98.149	-0.066	0.017
-93.801	-200.000	0.047	0.567
-92.786	-165.635	-0.055	0.002
-91.772	-137.810	-0.188	0.021
-90.757	-108.631	0.349	0.074
-89.743	-38.811	-0.166	-0.086
-88.728	-75.610	-0.307	0.107
-87.713	-163.678	0.300	-0.014
-86.699	800.000	-0.108	0.346
-85.684	78.008	-0.125	-0.131
-84.670	-43.162	0.100	-0.050
-83.655	144.074	0.085	-0.112
-82.640	104.363	0.144	-0.166
-81.626	4.611	0.340	0.244
-80.611	154.979	-0.264	0.356
-79.597	-51.638	-0.137	-0.062
-78.582	-58.757	0.259	0.110
-77.567	-20.209	-0.397	0.240
-76.553	-81.636	-0.189	-0.061
-75.538	1.207	-0.363	-0.255
-74.524	-15.514	-0.251	-0.157
-73.509	800.000	0.036	0.151
-72.494	-200.000	0.057	0.272
-71.480	-29.000	0.123	0.069
-70.465	800.000	-0.078	-0.217
-69.451	-200.000	0.042	0.429
-68.436	393.510	-0.055	0.112
-67.422	-200.000	0.040	-0.210
-66.407	339.564	0.103	-0.196
-65.392	24.974	-0.283	-0.230
-64.378	6.711	-0.036	-0.027
-63.363	-136.958	0.118	-0.013
-62.349	-125.300	0.090	-0.014
-61.334	14.909	-1.636	-1.254
-60.319	32.184	0.846	0.714
-59.305	800.000	-0.316	-1.212
-58.290	392.423	0.663	1.349
-57.276	740.690	0.708	1.861
-56.261	-200.000	124.873	662.244
-55.246	431.238	1553.565	3293.749
-54.232	143.548	2712.425	3535.694
-53.217	87.307	2318.736	2509.904
-52.203	29.886	2066.577	1723.275
-51.188	25.304	1982.206	1611.819
-50.173	24.124	1965.345	1587.534
-49.159	42.229	2038.005	1811.707
-48.144	40.187	2050.726	1804.347
-47.130	25.664	2003.528	1632.162
-46.115	23.566	1992.655	1604.295
-45.100	23.400	1989.260	1599.996
-44.086	23.462	1986.705	1598.438
-43.071	23.385	1984.307	1595.753
-42.057	23.333	1982.789	1593.994
-41.042	23.366	1980.944	1592.751
-40.027	23.411	1978.886	1591.432
-39.013	23.411	1977.375	1590.153
-37.998	23.382	1975.779	1588.553
-36.984	23.401	1973.258	1586.626
-35.969	23.408	1971.418	1585.145
-34.954	23.395	1970.190	1583.983
-33.940	23.462	1968.378	1583.059
-32.925	23.459	1967.422	1582.201
-31.911	23.478	1965.586	1580.832
-30.896	23.549	1963.793	1579.960
-29.881	23.487	1962.876	1578.606
-28.867	23.534	1960.821	1577.314
-27.852	23.583	1959.238	1576.406
-26.838	23.505	1957.153	1573.974
-25.823	23.513	1955.747	1572.858
-24.809	23.561	1953.513	1571.419
-23.794	23.523	1952.198	1569.966
-22.779	23.547	1950.529	1568.771
-21.765	23.568	1948.714	1567.433
-20.750	23.536	1947.301	1565.954
-19.736	23.452	1946.313	1564.359
-18.721	23.502	1943.914	1562.805
-17.706	23.524	1942.772	1562.018
-16.692	23.525	1941.065	1560.598
-15.677	23.527	1938.885	1558.799
-14.663	23.589	1937.711	1558.337
-13.648	23.521	1936.475	1556.682
-12.633	23.565	1935.158	1555.953
-11.619	23.516	1934.422	1554.869
-10.604	23.528	1932.835	1553.637
-9.590	23.568	1931.255	1552.658
-8.575	23.572	1929.626	1551.321
-7.560	23.463	1928.804	1549.639
-6.546	23.496	1927.733	1549.006
-5.531	23.592	1926.114	1548.488
-4.517	23.516	1924.593	1546.539
-3.502	23.531	1923.787	1545.955
-2.487	23.501	1922.649	1544.725
-1.473	23.491	1921.661	1543.781
-0.458	23.491	1917.148	1540.090
0.556	21.748	1896.722	1511.269
1.571	17.418	1877.931	1459.110
2.586	13.525	1901.564	1443.482
3.600	12.679	1936.431	1462.305
4.615	12.667	1928.778	1456.293
5.629	9.724	1830.093	1356.923
6.644	3.769	1718.234	1226.716
7.659	0.566	1685.888	1178.542
8.673	0.255	1682.888	1173.919
9.688	0.211	1681.848	1172.741
10.702	0.135	1680.607	1171.183
11.717	0.089	1676.052	1167.551
12.731	0.539	1674.919	1170.147
13.746	5.212	1684.323	1212.973
14.761	12.394	1699.338	1279.794
15.775	16.396	1705.638	1315.650
16.790	16.824	1705.397	1318.674
17.804	15.899	1702.602	1309.212
18.819	14.955	1699.337	1299.253
19.834	14.409	1696.663	1292.865
20.848	14.095	1695.365	1289.321
21.863	13.920	1693.925	1286.761
22.877	13.578	1692.711	1283.075
23.892	13.369	1690.766	1279.869
24.907	13.196	1689.949	1277.803
25.921	13.251	1688.485	1277.007
26.936	13.332	1687.320	1276.637
27.950	13.312	1686.927	1276.071
28.965	13.332	1686.486	1275.778
29.980	13.528	1685.289	1276.275
30.994	13.510	1683.972	1275.024
32.009	13.530	1683.235	1274.508
33.023	13.534	1682.434	1273.816
34.038	13.603	1681.678	1273.665
35.053	13.614	1680.492	1272.733
36.067	13.476	1679.632	1270.912
37.082	13.489	1678.428	1269.991
38.096	13.457	1677.865	1269.206
39.111	13.531	1677.076	1269.063
40.126	13.552	1676.009	1268.305
41.140	13.500	1674.857	1266.925
42.155	13.446	1673.506	1265.373
43.169	13.356	1672.128	1263.532
44.184	13.293	1671.100	1262.165
45.199	13.237	1669.995	1260.789
46.213	13.258	1669.088	1260.155
47.228	13.300	1667.801	1259.390
48.242	13.347	1665.816	1258.137
49.257	13.376	1665.408	1257.940
50.271	13.389	1663.789	1256.706
51.286	13.419	1662.707	1256.007
52.301	13.433	1660.762	1254.533
53.315	13.422	1659.449	1253.343
54.330	13.434	1657.774	1252.057
55.344	13.451	1656.070	1250.789
56.359	13.293	1655.028	1248.699
57.374	13.313	1654.142	1248.070
58.388	13.428	1652.502	1247.588
59.403	13.362	1651.281	1246.057
60.417	13.327	1649.615	1244.427
61.432	13.350	1648.297	1243.501
62.447	13.288	1647.667	1242.443
63.461	13.165	1646.898	1240.831
64.476	13.239	1645.462	1240.195
65.490	13.171	1644.326	1238.722
66.505	13.206	1642.995	1237.872
67.520	13.232	1641.658	1236.952
68.534	13.257	1640.586	1236.215
69.549	13.254	1639.432	1235.214
70.563	13.316	1637.945	1234.447
71.578	13.248	1637.183	1233.261
72.593	13.228	1636.350	1232.370
73.607	13.270	1634.402	1231.113
74.622	13.159	1633.783	1229.708
75.636	13.188	1632.645	1228.963
76.651	13.207	1631.481	1228.119
77.666	13.244	1630.830	1227.793
78.680	13.152	1629.722	1226.163
79.695	13.165	1628.670	1225.363
80.709	13.233	1627.597	1224.947
81.724	13.235	1626.533	1224.056
82.739	13.250	1625.939	1223.612
83.753	13.312	1625.007	1223.263
84.768	13.339	1623.941	1222.553
85.782	13.361	1622.872	1221.802
86.797	13.424	1622.144	1221.606
87.812	13.354	1621.102	1220.199
88.826	13.393	1619.775	1219.383
89.841	13.349	1619.208	1218.520
90.855	13.394	1618.378	1218.121
91.870	13.428	1616.862	1217.122
92.884	13.422	1615.874	1216.226
93.899	13.435	1615.215	1215.714
94.914	13.448	1613.636	1214.516
95.928	13.494	1612.494	1213.884
96.943	13.445	1611.706	1212.825
97.957	13.512	1609.672	1211.682
98.972	13.514	1607.958	1210.294
99.987	13.460	1606.853	1208.966
101.001	13.495	1605.287	1207.933
102.016	13.486	1603.470	1206.393
103.030	13.423	1602.681	1205.234
104.045	13.459	1600.895	1204.049
105.060	13.510	1599.705	1203.415
106.074	13.500	1598.182	1202.092
107.089	13.400	1596.730	1200.165
108.103	13.335	1595.407	1198.597
109.118	13.401	1593.391	1197.455
110.133	13.249	1592.418	1195.516
111.147	13.321	1591.028	1194.887
112.162	13.254	1590.090	1193.590
113.176	13.320	1588.690	1192.915
114.191	13.344	1587.203	1191.861
115.206	13.367	1586.403	1191.321
116.220	13.323	1584.602	1189.548
117.235	13.310	1583.131	1188.247
118.249	13.303	1582.034	1187.264
119.264	13.253	1580.879	1185.939
120.279	13.361	1579.442	1185.531
121.293	13.324	1577.759	1183.898
122.308	13.218	1576.838	1182.343
123.322	13.316	1574.675	1181.318
124.337	13.387	1573.108	1180.545
125.352	13.346	1572.093	1179.382
126.366	13.325	1570.707	1178.089
127.381	13.308	1569.503	1176.959
128.395	13.283	1568.832	1176.172
129.410	13.330	1566.936	1174.983
130.424	13.357	1565.904	1174.296
131.439	13.352	1564.227	1172.899
132.454	13.293	1563.074	1171.516
133.468	13.446	1561.547	1171.352
134.483	13.351	1560.466	1169.763
135.497	13.331	1558.862	1168.313
136.512	13.373	1557.732	1167.660
137.527	13.386	1556.471	1166.703
138.541	13.403	1554.787	1165.460
139.556	13.294	1553.668	1163.752
140.570	13.406	1551.874	1163.093
141.585	13.384	1551.300	1162.403
142.600	13.489	1549.564	1161.740
143.614	13.578	1548.028	1161.103
144.629	13.580	1546.705	1160.028
145.643	13.639	1545.450	1159.395
146.658	13.634	1544.183	1158.308
147.673	13.585	1542.655	1156.712
148.687	13.552	1541.025	1155.164
149.702	13.550	1539.710	1154.062
150.716	13.610	1537.600	1152.792
151.731	13.537	1536.815	1151.596
152.746	13.521	1535.528	1150.420
153.760	13.592	1533.578	1149.347
154.775	13.607	1532.699	1148.692
155.789	13.570	1531.740	1147.617
156.804	13.672	1530.098	1146.988
157.819	13.614	1529.184	1145.799
158.833	13.578	1527.765	1144.388
159.848	13.729	1526.510	1144.385
160.862	13.726	1525.666	1143.632
161.877	13.809	1523.785	1142.694
162.892	13.784	1523.362	1142.100
163.906	13.701	1521.755	1140.225
164.921	13.628	1520.722	1138.848
165.935	13.640	1519.491	1137.908
166.950	13.660	1518.762	1137.397
167.964	13.742	1516.872	1136.444
168.979	13.657	1515.961	1135.079
169.994	13.724	1515.215	1134.878
171.008	13.824	1513.821	1134.423
172.023	13.767	1512.840	1133.197
173.037	13.879	1511.181	1132.617
174.052	13.779	1510.618	1131.410
175.067	13.911	1509.062	1131.044
176.081	13.807	1508.281	1129.650
177.096	13.700	1507.334	1128.116
178.110	13.680	1506.094	1126.952
179.125	13.867	1504.607	1127.010
180.140	13.780	1503.714	1125.652
181.154	13.726	1502.920	1124.591
182.169	13.817	1501.656	1124.164
183.183	13.837	1500.543	1123.364
184.198	13.937	1498.949	1122.747
185.213	13.975	1498.009	1122.197
186.227	13.921	1496.907	1120.913
187.242	13.949	1495.957	1120.287
188.256	13.949	1495.016	1119.487
189.271	14.090	1493.365	1119.102
190.286	14.039	1492.623	1118.101
191.300	14.012	1491.374	1116.886
192.315	13.870	1490.644	1115.286
193.329	13.886	1488.467	1113.664
194.344	13.853	1487.964	1112.967
195.359	13.941	1486.615	1112.450
196.373	13.908	1486.175	1111.801
197.388	13.967	1484.561	1110.893
198.402	14.030	1483.562	1110.469
199.417	14.076	1482.624	1109.974
200.432	13.948	1482.144	1108.660
201.446	14.196	1480.728	1109.159
202.461	14.159	1479.517	1107.902
203.475	14.230	1478.056	1107.183
204.490	14.336	1477.093	1107.070
205.504	14.243	1476.213	1105.698
206.519	14.255	1474.821	1104.637
207.534	14.256	1473.598	1103.628
208.548	14.209	1472.943	1102.728
209.563	14.099	1472.275	1101.405
210.577	14.228	1470.868	1101.103
211.592	14.202	1470.171	1100.315
212.607	14.281	1469.228	1100.030
213.621	14.327	1468.393	1099.612
214.636	14.435	1467.185	1099.321
215.650	14.372	1466.266	1098.126
216.665	14.390	1465.450	1097.535
217.680	14.385	1464.642	1096.799
218.694	14.354	1463.929	1095.965
219.709	14.392	1463.109	1095.503
220.723	14.465	1461.854	1094.944
221.738	14.396	1461.212	1093.916
222.753	14.437	1460.063	1093.229
223.767	14.437	1459.491	1092.704
224.782	14.440	1458.161	1091.631
225.796	14.418	1456.813	1090.376
226.811	14.601	1455.834	1090.747
227.826	14.549	1455.830	1090.307
228.840	14.565	1454.610	1089.399
229.855	14.538	1453.904	1088.601
230.869	14.490	1452.970	1087.493
231.884	14.526	1451.705	1086.681
232.899	14.475	1450.696	1085.497
233.913	14.599	1449.095	1085.009
234.928	14.507	1447.939	1083.455
235.942	14.434	1447.010	1082.190
236.957	14.505	1446.082	1081.861
237.972	14.551	1444.486	1080.864
238.986	14.606	1443.588	1080.454
240.001	14.518	1442.934	1079.298
241.015	14.666	1441.496	1079.087
242.030	14.628	1440.243	1077.810
243.045	14.582	1439.599	1076.934
244.059	14.681	1438.391	1076.573
245.074	14.708	1437.435	1075.935
246.088	14.637	1437.348	1075.321
247.103	14.756	1436.139	1075.082
248.117	14.784	1435.358	1074.585
249.132	14.818	1434.666	1074.187
250.147	14.718	1434.106	1073.033
251.161	14.927	1432.680	1073.212
252.176	14.950	1432.474	1073.109
253.190	14.965	1431.427	1072.328
254.205	15.022	1430.440	1071.862
255.220	15.025	1429.333	1070.953
256.234	14.920	1429.315	1070.172
257.249	15.012	1427.870	1069.583
258.263	15.057	1427.102	1069.202
259.278	15.076	1426.212	1068.565
260.293	15.069	1425.172	1067.641
261.307	15.032	1424.645	1066.920
262.322	15.141	1423.812	1066.894
263.336	15.151	1422.906	1066.186
264.351	15.228	1421.938	1065.857
265.366	15.210	1421.224	1065.113
266.380	15.164	1420.153	1063.923
267.395	15.216	1419.203	1063.446
268.409	15.194	1418.250	1062.498
269.424	15.207	1417.593	1061.996
270.439	15.202	1415.918	1060.614
271.453	15.197	1415.334	1060.049
272.468	15.245	1414.410	1059.568
273.482	15.250	1413.807	1059.057
274.497	15.300	1412.826	1058.545
275.512	15.229	1412.074	1057.438
276.526	15.311	1410.742	1056.860
277.541	15.182	1410.303	1055.629
278.555	15.206	1409.814	1055.320
279.570	15.277	1408.517	1054.705
280.585	15.247	1407.984	1054.021
281.599	15.354	1406.692	1053.632
282.614	15.375	1405.829	1053.024
283.628	15.451	1404.690	1052.556
284.643	15.335	1403.821	1051.085
285.657	15.363	1402.741	1050.355
286.672	15.511	1401.439	1050.215
287.687	15.305	1401.057	1048.549
288.701	15.421	1399.626	1048.112
289.716	15.518	1398.672	1047.906
290.730	15.446	1398.052	1046.901
291.745	15.454	1397.275	1046.274
292.760	15.496	1396.322	1045.731
293.774	15.525	1395.303	1045.057
294.789	15.479	1394.184	1043.839
295.803	15.566	1393.500	1043.777
296.818	15.656	1392.381	1043.404
297.833	15.619	1391.602	1042.500
298.847	15.608	1390.342	1041.394
299.862	15.662	1389.156	1040.751
300.876	15.601	1388.507	1039.792
301.891	15.612	1387.762	1039.212
302.906	15.656	1386.680	1038.583
303.920	15.716	1386.308	1038.580
304.935	15.744	1385.369	1037.956
305.949	15.756	1384.518	1037.304
306.964	15.817	1383.960	1037.168
307.979	15.885	1382.656	1036.520
308.993	15.812	1381.884	1035.396
310.008	15.881	1381.027	1035.090
311.022	15.866	1379.975	1034.115
312.037	15.900	1378.724	1033.295
313.052	15.931	1378.038	1032.881
314.066	15.881	1377.026	1031.723
315.081	15.867	1376.250	1030.967
316.095	15.737	1375.255	1029.332
317.110	15.821	1373.956	1028.783
318.125	15.755	1373.248	1027.757
319.139	15.852	1372.376	1027.607
320.154	15.880	1371.263	1026.854
321.168	15.850	1369.742	1025.445
322.183	15.957	1368.735	1025.250
323.197	15.865	1368.468	1024.398
324.212	15.904	1367.362	1023.720
325.227	16.033	1366.447	1023.727
326.241	15.883	1365.430	1021.962
327.256	16.015	1364.552	1022.013
328.270	15.954	1364.085	1021.204
329.285	15.933	1363.045	1020.211
330.300	16.112	1361.875	1020.324
331.314	16.014	1361.094	1019.061
332.329	16.025	1360.229	1018.386
333.343	16.048	1359.780	1018.101
334.358	15.961	1358.483	1016.515
335.373	16.110	1357.689	1016.728
336.387	16.246	1356.932	1016.888
337.402	16.040	1356.550	1015.275
338.416	16.142	1355.733	1015.183
339.431	16.143	1355.308	1014.781
340.446	16.225	1353.910	1014.137
341.460	16.287	1352.960	1013.711
342.475	16.234	1352.622	1013.048
343.489	16.360	1351.464	1012.847
344.504	16.313	1350.445	1011.714
345.519	16.330	1349.720	1011.181
346.533	16.350	1348.945	1010.633
347.548	16.353	1347.937	1009.804
348.562	16.488	1346.617	1009.531
349.577	16.472	1346.138	1008.993
350.592	16.395	1345.607	1008.046
351.606	16.440	1344.586	1007.460
352.621	16.371	1343.583	1006.208
353.635	16.415	1342.284	1005.406
354.650	16.506	1341.314	1005.131
355.665	16.471	1340.345	1004.109
356.679	16.539	1339.210	1003.575
357.694	16.486	1338.215	1002.424
358.708	16.425	1337.557	1001.484
359.723	16.489	1336.308	1000.838
360.738	16.486	1335.594	1000.196
361.752	16.442	1334.606	999.107
362.767	16.501	1333.454	998.506
363.781	16.499	1332.721	997.854
364.796	16.614	1331.365	997.431
365.810	16.617	1330.965	997.057
366.825	16.647	1330.278	996.635
367.840	16.569	1330.018	995.890
368.854	16.606	1329.432	995.580
369.869	16.794	1328.033	995.549
370.883	16.668	1327.630	994.421
371.898	16.834	1326.676	994.595
372.913	16.782	1325.734	993.496
373.927	16.706	1324.818	992.274
374.942	16.718	1324.538	992.047
375.956	16.770	1323.507	991.491
376.971	16.866	1322.632	991.308
377.986	16.730	1322.073	990.008
379.000	16.765	1321.584	989.756
380.015	16.806	1320.440	989.051
381.029	16.812	1319.518	988.310
382.044	16.918	1318.780	988.285
383.059	16.986	1318.082	988.075
384.073	16.957	1317.087	987.070
385.088	16.905	1316.900	986.543
386.102	16.907	1316.766	986.365
387.117	16.910	1315.393	985.267
388.132	16.994	1314.728	985.170
389.146	16.983	1313.800	984.324
390.161	16.952	1312.873	983.361
391.175	16.940	1311.954	982.514
392.190	17.042	1311.213	982.465
393.205	16.982	1310.693	981.643
394.219	17.105	1308.965	980.968
395.234	17.023	1308.519	980.076
396.248	17.055	1306.838	978.916
397.263	17.046	1305.641	977.881
398.278	17.032	1304.747	977.041
399.292	17.056	1303.256	975.980
400.307	17.083	1302.479	975.464
401.321	17.069	1301.491	974.560
402.336	17.020	1300.574	973.503
403.350	17.031	1299.428	972.626
404.365	17.116	1298.414	972.268
405.380	17.077	1297.900	971.571
406.394	17.030	1296.798	970.392
407.409	17.169	1296.031	970.527
408.423	17.226	1295.198	970.145
409.438	17.240	1294.818	969.852
410.453	17.163	1293.872	968.616
411.467	17.355	1293.209	969.133
412.482	17.421	1292.439	968.845
413.496	17.354	1292.227	968.214
414.511	17.420	1291.031	967.611
415.526	17.400	1290.662	967.137
416.540	17.430	1289.846	966.609
417.555	17.474	1289.010	966.146
418.569	17.431	1288.936	965.762
419.584	17.440	1288.386	965.314
420.599	17.474	1287.539	964.785
421.613	100.278	1360.468	1488.494
422.628	98.158	1371.042	1488.592
