DTS Sentinel unit serial number:	SN413079Multiplexer serial number:	ORYXHardware model number:	OX4-SRSoftware version number:	ORYX F/W v4.00 Oryx Data Collector v3.7.2.0data status	okinstallation	princeton_trtdifferential loss correction	single-endedforward channel	channel 4reverse channel	N/Adate	2019/09/12time	19:03:18forward acquisition time	15.00reverse acquisition time	0.00gamma	496.2192k internal	0.2307k external	0.2307temperature offset calibration	1.0144default loss term (dB/km)	0.3790temperature slope calibration	1.0000multiplexer offset coefficient	1.0000multiplexer slope coefficient	1.0000fibre end	0.00T internal ref (°C)	32.69T ext. ref 1 (°C)	3.01T ext. ref 2 (°C)	27.24length (m)	temperature (°C)	Stokes	anti-Stokes-747.200	800.000	0.192	0.586
-746.185	30.934	-0.221	0.192
-745.171	122.053	-0.253	-0.321
-744.156	-200.000	0.010	0.547
-743.142	158.965	-0.282	0.398
-742.127	800.000	0.135	0.419
-741.112	-200.000	-0.084	-0.457
-740.098	188.673	0.195	-0.297
-739.083	147.628	0.341	-0.466
-738.069	-9.511	-0.387	0.262
-737.054	-99.829	-0.217	-0.055
-736.039	-62.206	-0.528	-0.224
-735.025	73.246	0.213	0.226
-734.010	-200.000	0.077	-0.685
-732.996	-156.728	0.565	-0.035
-731.981	-157.313	0.229	0.014
-730.966	-200.000	-0.059	-0.568
-729.952	21.986	-0.483	-0.400
-728.937	474.608	-0.152	-0.348
-727.923	61.799	-0.715	-0.723
-726.908	252.911	0.205	-0.355
-725.894	302.869	0.181	-0.341
-724.879	48.975	-0.370	-0.353
-723.864	39.922	0.422	0.385
-722.850	-49.888	0.510	0.246
-721.835	26.888	-0.190	0.162
-720.821	69.469	-0.528	0.552
-719.806	-200.000	0.138	0.788
-718.791	-141.230	0.603	-0.062
-717.777	-70.724	0.809	0.310
-716.762	11.110	-0.544	0.423
-715.748	595.462	0.049	0.122
-714.733	32.732	-0.340	0.299
-713.718	-200.000	-0.049	0.400
-712.704	-67.622	0.564	0.224
-711.689	7.541	-0.511	-0.388
-710.675	-50.477	0.558	-0.268
-709.660	800.000	0.257	1.052
-708.645	-200.000	0.025	-0.249
-707.631	529.339	0.172	0.412
-706.616	-144.362	0.114	-0.011
-705.602	-200.000	0.068	-0.418
-704.587	800.000	0.242	-0.751
-703.572	-116.734	-0.242	0.045
-702.558	-165.107	-0.569	0.026
-701.543	-80.977	0.659	0.222
-700.529	36.737	0.434	-0.389
-699.514	174.094	-0.300	0.440
-698.499	-200.000	-0.045	0.327
-697.485	-122.725	0.420	-0.069
-696.470	-74.693	-0.896	0.327
-695.456	106.536	-0.218	-0.262
-694.441	-63.426	-0.052	0.022
-693.426	126.566	-0.164	0.210
-692.412	-152.207	-0.490	0.036
-691.397	56.908	-0.363	0.359
-690.383	31.533	0.359	0.313
-689.368	-193.447	-0.352	-0.003
-688.354	24.112	0.424	0.355
-687.339	-22.097	-0.270	-0.166
-686.324	800.000	0.111	0.373
-685.310	-190.216	-0.425	-0.005
-684.295	-65.484	-0.930	-0.379
-683.281	450.613	-0.217	-0.485
-682.266	-118.095	-0.436	0.079
-681.251	800.000	0.119	-0.437
-680.237	261.484	-0.022	0.038
-679.222	800.000	0.161	0.602
-678.208	-200.000	-0.014	-0.182
-677.193	-51.921	0.121	0.057
-676.178	81.059	-0.183	0.201
-675.164	-143.125	0.856	0.084
-674.149	800.000	-0.193	-0.853
-673.135	-12.113	0.662	0.439
-672.120	-73.743	-0.581	0.214
-671.105	6.638	0.323	0.243
-670.091	800.000	0.053	0.196
-669.076	-200.000	0.149	0.784
-668.062	800.000	0.140	0.501
-667.047	-141.396	0.178	0.018
-666.032	800.000	-0.226	0.725
-665.018	-144.419	-0.519	0.049
-664.003	-146.963	0.575	-0.050
-662.989	-200.000	0.077	-0.504
-661.974	-200.000	0.062	-0.598
-660.959	-60.212	-0.390	-0.169
-659.945	52.073	0.461	-0.445
-658.930	-67.283	-0.275	0.110
-657.916	-33.383	-0.523	0.293
-656.901	-143.148	-0.368	0.036
-655.886	-22.468	0.458	0.281
-654.872	-31.522	0.053	-0.030
-653.857	-66.565	-0.721	-0.290
-652.843	-17.001	-0.574	0.368
-651.828	-153.934	0.366	0.025
-650.814	129.649	-0.365	0.473
-649.799	-63.913	-0.978	-0.405
-648.784	-200.000	0.008	-0.194
-647.770	79.316	-0.713	0.774
-646.755	76.886	-0.481	0.517
-645.741	-126.233	0.525	-0.079
-644.726	800.000	-0.322	-1.291
-643.711	-200.000	0.001	-0.095
-642.697	-131.664	-0.405	-0.054
-641.682	-200.000	-0.022	0.171
-640.668	68.485	-0.415	-0.430
-639.653	111.907	-0.327	0.400
-638.638	-200.000	-0.006	-0.572
-637.624	349.309	-0.043	0.086
-636.609	-111.186	-0.863	-0.179
-635.595	-200.000	-0.104	0.514
-634.580	-200.000	0.047	0.229
-633.565	126.011	-0.581	0.744
-632.551	82.160	-0.237	-0.260
-631.536	-104.368	-0.591	-0.139
-630.522	53.413	0.357	-0.347
-629.507	189.427	0.311	0.472
-628.492	322.177	0.153	0.295
-627.478	-83.562	1.252	-0.405
-626.463	116.002	-0.653	-0.809
-625.449	40.631	0.279	0.255
-624.434	-138.913	-0.659	-0.073
-623.419	-111.938	-0.619	0.126
-622.405	-53.932	0.436	0.201
-621.390	-200.000	-0.031	-0.226
-620.376	37.315	1.026	0.920
-619.361	99.991	-0.319	-0.375
-618.346	-200.000	-0.013	-0.631
-617.332	-200.000	-0.062	-0.835
-616.317	205.767	0.052	0.082
-615.303	19.347	0.447	0.364
-614.288	656.389	0.067	0.175
-613.273	-80.639	-0.496	0.167
-612.259	9.265	0.702	0.537
-611.244	116.226	-0.271	0.336
-610.230	-200.000	-0.394	0.000
-609.215	-200.000	0.111	0.510
-608.201	73.633	-0.222	0.236
-607.186	-102.005	-0.539	-0.131
-606.171	-2.954	-0.222	0.156
-605.157	-5.122	-0.327	-0.227
-604.142	31.835	0.458	0.399
-603.128	-58.378	-0.208	-0.091
-602.113	318.503	-0.483	-0.924
-601.098	207.103	-0.469	0.740
-600.084	800.000	0.093	0.407
-599.069	-32.215	0.281	-0.158
-598.055	-119.637	0.962	-0.168
-597.040	150.190	-0.375	0.515
-596.025	28.612	0.123	-0.105
-595.011	607.912	0.090	-0.227
-593.996	285.856	0.139	0.254
-592.982	800.000	-0.159	-0.572
-591.967	38.135	0.282	0.254
-590.952	-134.994	0.399	-0.049
-589.938	-155.526	-1.106	-0.072
-588.923	5.186	0.502	-0.374
-587.909	42.771	-0.920	0.847
-586.894	800.000	0.120	-0.423
-585.879	226.492	0.366	-0.600
-584.865	-200.000	-0.041	-0.207
-583.850	-200.000	-0.084	-0.480
-582.836	800.000	0.137	0.472
-581.821	800.000	0.177	-0.700
-580.806	-200.000	-0.047	-0.567
-579.792	800.000	0.226	0.738
-578.777	-45.785	-0.838	-0.418
-577.763	271.298	0.132	-0.234
-576.748	-86.511	-0.361	-0.112
-575.733	75.807	0.213	-0.228
-574.719	800.000	-0.094	-0.392
-573.704	-21.408	0.242	-0.149
-572.690	36.992	-0.108	-0.096
-571.675	-200.000	-0.014	0.137
-570.661	-123.320	-0.619	-0.100
-569.646	-110.988	0.403	0.084
-568.631	160.826	0.088	0.123
-567.617	-200.000	0.150	-0.722
-566.602	800.000	-0.121	0.340
-565.588	31.857	0.055	0.047
-564.573	23.675	0.139	0.116
-563.558	800.000	-0.094	0.351
-562.544	31.328	0.757	0.657
-561.529	204.880	0.184	0.288
-560.515	-200.000	0.005	0.028
-559.500	13.998	0.641	0.504
-558.485	-200.000	-0.009	-0.860
-557.471	269.870	-0.462	-0.819
-556.456	27.402	0.761	-0.645
-555.442	-200.000	0.008	-0.059
-554.427	-200.000	0.010	-0.257
-553.412	179.569	0.349	0.516
-552.398	800.000	0.137	-0.526
-551.383	175.382	0.163	-0.239
-550.369	-175.159	-0.583	0.016
-549.354	256.236	-0.312	-0.540
-548.339	-153.875	0.770	-0.053
-547.325	164.561	0.157	-0.224
-546.310	74.573	-0.266	0.282
-545.296	75.681	0.380	0.405
-544.281	-103.837	0.651	-0.154
-543.266	-98.672	-0.152	0.039
-542.252	114.096	-0.353	-0.434
-541.237	-17.479	0.447	-0.284
-540.223	-149.897	-0.178	0.014
-539.208	157.463	0.188	0.263
-538.193	302.227	0.549	-1.024
-537.179	-19.084	-0.699	-0.438
-536.164	198.167	0.144	0.222
-535.150	-22.285	0.434	-0.266
-534.135	344.322	0.055	-0.110
-533.121	-32.424	0.548	-0.308
-532.106	456.147	0.375	-0.840
-531.091	8.905	-0.448	0.341
-530.077	597.589	-0.285	0.712
-529.062	22.314	-0.444	-0.365
-528.048	-57.974	0.169	0.074
-527.033	-90.656	-0.271	0.079
-526.018	461.107	-0.102	-0.230
-525.004	61.937	0.535	-0.538
-523.989	150.929	-0.250	0.343
-522.975	47.682	0.576	-0.542
-521.960	-200.000	0.074	-0.765
-520.945	77.926	-0.410	0.441
-519.931	-140.959	0.682	0.071
-518.916	255.753	-0.130	-0.224
-517.902	20.465	0.384	0.313
-516.887	-200.000	0.026	0.421
-515.872	-5.956	0.358	-0.246
-514.858	-35.655	-0.445	-0.243
-513.843	-200.000	-0.004	-0.527
-512.829	-22.418	-0.242	0.148
-511.814	-82.073	-0.226	-0.074
-510.799	-71.243	-0.423	-0.160
-509.785	75.491	0.302	0.321
-508.770	-200.000	0.069	0.548
-507.756	800.000	0.099	0.291
-506.741	171.462	0.392	0.567
-505.726	-200.000	-0.196	0.966
-504.712	544.926	0.191	0.460
-503.697	-200.000	0.061	-0.538
-502.683	-42.139	0.414	-0.213
-501.668	196.941	-0.305	-0.469
-500.653	77.075	-0.906	0.970
-499.639	-33.868	0.444	0.246
-498.624	800.000	-0.212	0.604
-497.610	590.760	0.200	-0.496
-496.595	800.000	-0.149	0.653
-495.581	-64.628	-0.585	0.239
-494.566	800.000	0.140	-0.413
-493.551	-150.532	0.328	-0.025
-492.537	-200.000	-0.046	-0.586
-491.522	-200.000	-0.135	0.712
-490.508	-200.000	0.042	-0.736
-489.493	-72.796	0.446	-0.165
-488.478	-37.252	-0.608	0.327
-487.464	107.675	-0.166	0.200
-486.449	-29.052	-0.813	-0.470
-485.435	-200.000	0.014	-0.146
-484.420	800.000	-0.072	-0.297
-483.405	-200.000	0.066	0.979
-482.391	-85.311	0.706	0.222
-481.376	-66.903	0.251	0.100
-480.362	-123.816	0.402	-0.064
-479.347	-12.789	0.245	-0.161
-478.332	182.604	-0.571	0.847
-477.318	188.832	-0.410	-0.617
-476.303	567.696	-0.204	-0.498
-475.289	-200.000	0.062	0.642
-474.274	-103.912	0.619	0.145
-473.259	-61.220	0.682	-0.289
-472.245	800.000	-0.210	-0.689
-471.230	800.000	0.188	-0.683
-470.216	59.925	-0.715	0.711
-469.201	105.248	0.227	-0.270
-468.186	5.128	0.580	0.430
-467.172	800.000	0.141	-0.538
-466.157	716.615	0.250	0.668
-465.143	-13.320	-0.452	0.295
-464.128	-89.226	0.732	0.217
-463.113	120.380	0.055	0.069
-462.099	-25.170	0.651	-0.388
-461.084	-185.377	-0.724	0.011
-460.070	-200.000	0.033	-0.451
-459.055	-18.104	0.751	-0.473
-458.040	-200.000	0.152	0.688
-457.026	-200.000	-0.039	-0.279
-456.011	800.000	0.113	-0.317
-454.997	-143.252	-0.618	-0.060
-453.982	23.151	-0.315	0.260
-452.968	-200.000	-0.086	1.144
-451.953	-200.000	-0.189	-0.943
-450.938	-200.000	-0.010	0.347
-449.924	47.619	0.150	-0.141
-448.909	-102.141	0.591	-0.143
-447.895	-200.000	-0.026	0.289
-446.880	92.358	-0.224	-0.254
-445.865	800.000	0.041	0.145
-444.851	-200.000	-0.060	0.304
-443.836	-81.958	0.558	0.183
-442.822	-182.567	0.620	0.011
-441.807	-200.000	-0.077	0.586
-440.792	-83.002	-0.938	-0.304
-439.778	-200.000	0.038	-0.177
-438.763	-200.000	0.063	-0.663
-437.749	616.848	-0.149	-0.375
-436.734	264.595	0.096	0.168
-435.719	89.811	-0.636	0.713
-434.705	-54.086	0.303	0.139
-433.690	-54.777	0.654	-0.297
-432.676	-118.108	-0.124	0.022
-431.661	-200.000	-0.056	0.920
-430.646	-200.000	0.060	0.394
-429.632	417.085	-0.182	-0.391
-428.617	600.729	0.301	-0.750
-427.603	14.424	-0.157	0.123
-426.588	338.439	0.560	1.096
-425.573	-200.000	0.042	0.584
-424.559	800.000	-0.204	0.878
-423.544	-200.000	0.015	0.150
-422.530	-183.002	-0.793	-0.014
-421.515	800.000	-0.148	0.449
-420.500	-121.393	-0.209	0.035
-419.486	648.459	-0.169	-0.434
-418.471	800.000	0.118	-0.406
-417.457	-200.000	0.030	-0.216
-416.442	-115.154	0.480	0.091
-415.428	-200.000	-0.023	-0.558
-414.413	60.859	-0.734	-0.731
-413.398	-115.054	-0.591	0.113
-412.384	-200.000	-0.082	0.713
-411.369	-87.186	0.771	0.235
-410.355	-200.000	-0.042	0.767
-409.340	286.099	0.410	0.743
-408.325	552.842	-0.245	0.590
-407.311	231.388	0.352	-0.579
-406.296	-200.000	-0.063	0.327
-405.282	146.667	0.395	-0.532
-404.267	800.000	0.291	1.181
-403.252	10.999	0.417	-0.320
-402.238	-200.000	0.037	-0.993
-401.223	-78.426	-0.693	0.238
-400.209	-95.682	0.538	-0.144
-399.194	-163.679	0.179	-0.008
-398.179	-200.000	-0.002	-0.521
-397.165	-200.000	0.049	-0.314
-396.150	759.630	0.208	0.567
-395.136	145.658	-0.231	0.311
-394.121	576.498	-0.422	1.035
-393.106	65.460	0.389	-0.395
-392.092	800.000	0.099	-0.423
-391.077	241.855	0.219	-0.367
-390.063	-143.070	0.145	0.014
-389.048	23.746	0.136	-0.112
-388.033	-49.248	0.508	-0.243
-387.019	645.221	-0.197	-0.504
-386.004	192.663	0.220	0.333
-384.990	-200.000	-0.073	0.410
-383.975	205.822	-0.440	-0.686
-382.960	186.502	-0.310	0.462
-381.946	-13.109	0.953	-0.621
-380.931	757.745	0.210	-0.571
-379.917	362.719	0.236	0.475
-378.902	-45.452	-0.575	-0.286
-377.888	244.565	-0.258	-0.435
-376.873	-69.699	-0.612	0.234
-375.858	21.580	-0.243	0.198
-374.844	-122.659	0.597	-0.097
-373.829	-9.261	0.670	0.449
-372.815	762.558	0.111	0.302
-371.800	96.654	-0.262	-0.301
-370.785	519.856	-0.280	-0.657
-369.771	-50.275	-0.596	0.282
-368.756	0.494	0.869	0.623
-367.742	-85.950	-0.376	0.117
-366.727	158.500	0.125	-0.174
-365.712	454.995	0.263	-0.583
-364.698	280.149	-0.158	0.283
-363.683	160.629	0.267	0.373
-362.669	-200.000	0.027	-0.314
-361.654	143.091	0.361	0.481
-360.639	-61.291	-0.412	0.174
-359.625	-14.551	-0.880	-0.567
-358.610	8.662	0.780	0.589
-357.596	-200.000	0.010	-0.077
-356.581	-120.265	-0.018	-0.003
-355.566	-117.807	0.279	0.050
-354.552	-91.377	-0.341	-0.098
-353.537	391.111	0.258	-0.537
-352.523	-172.728	-0.418	-0.013
-351.508	-91.615	-0.539	0.154
-350.493	-127.043	-0.680	-0.100
-349.479	349.018	0.256	-0.505
-348.464	-141.595	-0.578	0.058
-347.450	-104.713	0.205	0.047
-346.435	-56.852	0.361	-0.160
-345.420	183.383	-0.168	0.248
-344.406	-130.335	-0.373	-0.051
-343.391	-111.353	0.304	-0.062
-342.377	211.073	0.416	0.655
-341.362	220.586	-0.286	0.459
-340.348	10.196	0.323	0.246
-339.333	-200.000	-0.029	-0.136
-338.318	-108.896	0.710	-0.152
-337.304	228.731	0.286	0.466
-336.289	165.451	-0.338	-0.478
-335.275	800.000	-0.140	-0.563
-334.260	800.000	0.323	1.000
-333.245	-143.739	0.384	0.036
-332.231	431.703	-0.279	-0.606
-331.216	-200.000	-0.012	-0.264
-330.202	245.851	0.123	0.207
-329.187	-12.027	0.297	-0.195
-328.172	800.000	-0.222	0.898
-327.158	387.067	0.419	-0.865
-326.143	-70.702	-0.455	-0.172
-325.129	5.711	0.566	0.418
-324.114	239.851	-0.303	0.505
-323.099	-170.070	-1.040	-0.037
-322.085	3.345	-0.543	-0.396
-321.070	-139.098	-0.555	0.060
-320.056	194.536	0.450	-0.683
-319.041	-81.272	0.617	-0.204
-318.026	155.791	-0.143	0.196
-317.012	7.966	0.666	-0.499
-315.997	-4.321	0.818	0.566
-314.983	-183.355	-0.749	0.013
-313.968	450.272	0.096	0.213
-312.953	-79.450	1.025	-0.347
-311.939	800.000	-0.069	-0.194
-310.924	-200.000	0.026	0.204
-309.910	519.319	0.180	0.421
-308.895	-137.670	0.356	0.040
-307.880	-93.809	0.306	0.084
-306.866	189.779	-0.133	0.199
-305.851	166.609	-0.203	0.288
-304.837	36.420	-0.163	0.144
-303.822	800.000	-0.308	-0.894
-302.807	-70.820	-0.399	-0.150
-301.793	800.000	0.224	0.762
-300.778	527.272	-0.107	0.253
-299.764	-200.000	-0.016	0.469
-298.749	-194.704	-0.149	-0.001
-297.735	800.000	0.143	-0.455
-296.720	800.000	-0.331	0.969
-295.705	267.066	-0.163	0.285
-294.691	26.728	0.646	-0.540
-293.676	-57.622	0.672	0.294
-292.662	-30.505	0.739	0.418
-291.647	748.714	0.138	0.372
-290.632	800.000	-0.138	-0.408
-289.618	548.731	0.223	-0.534
-288.603	103.547	-0.351	0.411
-287.589	314.703	0.337	0.634
-286.574	21.673	-0.345	0.281
-285.559	-26.101	-0.376	0.221
-284.545	800.000	-0.195	-0.679
-283.530	-93.477	-0.094	0.026
-282.516	539.355	-0.098	-0.232
-281.501	-200.000	-0.295	0.001
-280.486	-124.467	-0.485	-0.075
-279.472	800.000	-0.105	-0.381
-278.457	43.571	0.976	-0.891
-277.443	-200.000	0.541	-0.001
-276.428	-133.678	0.520	0.065
-275.413	-143.198	-0.225	0.022
-274.399	-3.852	-0.151	-0.105
-273.384	-155.957	-0.553	-0.035
-272.370	123.286	0.742	0.929
-271.355	800.000	-0.323	1.076
-270.340	-104.305	-0.304	0.070
-269.326	-200.000	-0.030	-1.204
-268.311	-117.035	0.144	-0.026
-267.297	7.207	0.393	0.293
-266.282	299.013	-0.476	-0.875
-265.267	472.759	0.146	0.327
-264.253	186.185	0.219	-0.324
-263.238	-21.965	-0.659	-0.400
-262.224	24.156	0.157	0.130
-261.209	-123.673	-0.724	-0.114
-260.195	40.433	0.156	0.140
-259.180	-200.000	-0.009	-0.591
-258.165	57.070	0.197	-0.192
-257.151	184.127	0.319	-0.471
-256.136	47.556	0.257	0.239
-255.122	373.020	0.277	0.563
-254.107	580.554	0.043	0.105
-253.092	-90.843	-0.725	-0.208
-252.078	167.253	-0.027	0.038
-251.063	160.218	0.558	-0.776
-250.049	-39.138	-0.802	0.421
-249.034	113.463	-0.304	-0.368
-248.019	-26.431	-0.372	0.218
-247.005	-121.777	0.346	-0.057
-245.990	37.046	-0.553	0.488
-244.976	195.530	-0.131	-0.198
-243.961	-89.795	0.388	0.113
-242.946	-32.218	0.929	0.517
-241.932	-5.203	-0.125	-0.086
-240.917	-145.746	0.757	0.067
-239.903	-200.000	0.038	0.440
-238.888	543.483	-0.230	-0.547
-237.873	-38.686	-0.557	-0.293
-236.859	-46.957	-0.378	-0.184
-235.844	457.170	0.165	0.366
-234.830	670.993	-0.340	-0.877
-233.815	477.625	-0.052	-0.118
-232.800	-200.000	0.095	0.913
-231.786	-87.726	-0.479	-0.144
-230.771	47.785	-0.339	0.315
-229.757	-85.116	0.662	-0.207
-228.742	-200.000	0.069	-0.535
-227.727	-68.450	0.756	0.292
-226.713	37.966	0.491	0.435
-225.698	-2.957	-0.199	0.139
-224.684	-52.346	-0.163	-0.075
-223.669	-200.000	0.092	0.437
-222.655	66.935	0.247	-0.251
-221.640	-74.841	-0.258	-0.092
-220.625	-74.772	-0.399	0.143
-219.611	75.500	-0.295	0.310
-218.596	0.445	0.525	-0.374
-217.582	-97.510	0.099	0.026
-216.567	34.803	-0.494	0.430
-215.552	106.957	0.573	0.678
-214.538	-124.708	0.346	0.053
-213.523	-200.000	-0.058	0.257
-212.509	305.484	-0.459	0.850
-211.494	-77.837	0.882	-0.303
-210.479	-200.000	0.036	0.272
-209.465	58.785	-0.347	-0.339
-208.450	-40.903	-0.248	0.128
-207.436	-27.219	-0.794	0.460
-206.421	-21.128	0.346	-0.211
-205.406	166.121	0.259	0.365
-204.392	100.917	-0.253	-0.293
-203.377	95.424	0.488	0.554
-202.363	-1.032	-0.200	-0.141
-201.348	-102.182	-0.833	0.199
-200.333	-44.349	-0.618	-0.308
-199.319	-200.000	0.028	-0.273
-198.304	157.589	-0.136	-0.188
-197.290	800.000	-0.270	-0.952
-196.275	-200.000	-0.014	-0.103
-195.260	79.964	0.523	0.559
-194.246	207.730	0.397	-0.617
-193.231	738.858	-0.245	0.654
-192.217	-200.000	0.153	1.028
-191.202	-158.586	-0.507	0.029
-190.187	14.623	0.235	0.183
-189.173	-38.478	0.364	0.191
-188.158	-160.547	-0.487	-0.026
-187.144	-5.600	0.086	0.059
-186.129	710.668	-0.318	0.838
-185.114	66.806	0.095	0.096
-184.100	-200.000	0.008	-0.427
-183.085	227.870	-0.504	-0.816
-182.071	446.721	-0.091	-0.198
-181.056	-50.100	-0.763	0.359
-180.042	15.834	-0.565	-0.442
-179.027	-200.000	-0.009	-0.051
-178.012	200.186	0.309	0.472
-176.998	-119.818	-0.349	0.060
-175.983	-99.802	-0.348	-0.087
-174.969	-200.000	0.124	0.600
-173.954	85.088	0.144	0.157
-172.939	-70.471	0.566	-0.213
-171.925	136.240	-0.360	-0.466
-170.910	65.650	-0.424	-0.427
-169.896	800.000	-0.155	-0.619
-168.881	400.775	-0.245	0.511
-167.866	-156.517	0.471	-0.029
-166.852	13.072	-0.448	-0.345
-165.837	-200.000	0.036	0.517
-164.823	33.848	-0.907	-0.785
-163.808	-136.338	0.459	-0.053
-162.793	315.816	0.469	-0.880
-161.779	235.531	-0.407	0.668
-160.764	-200.000	-0.052	-0.542
-159.750	73.412	0.448	0.466
-158.735	-29.533	0.556	-0.316
-157.720	800.000	-0.146	-0.576
-156.706	-1.736	-0.257	0.180
-155.691	-25.696	-0.120	-0.070
-154.677	-200.000	-0.042	-0.211
-153.662	271.140	0.135	-0.237
-152.647	138.228	-0.318	0.415
-151.633	117.262	0.445	-0.543
-150.618	-102.425	-0.627	-0.149
-149.604	145.512	0.584	-0.778
-148.589	-50.311	0.398	-0.187
-147.574	-200.000	-0.139	-0.986
-146.560	547.068	0.226	0.536
-145.545	67.012	-0.406	-0.411
-144.531	-8.010	0.543	-0.364
-143.516	100.485	0.183	-0.211
-142.502	800.000	-0.048	-0.146
-141.487	-200.000	-0.108	-0.639
-140.472	-76.061	0.145	0.051
-139.458	800.000	-0.162	-0.518
-138.443	-200.000	0.081	-0.466
-137.429	77.058	-0.498	-0.525
-136.414	82.060	-0.558	-0.601
-135.399	800.000	0.080	0.247
-134.385	-116.692	0.382	0.070
-133.370	308.262	-0.614	-1.139
-132.356	800.000	-0.287	0.832
-131.341	-153.293	0.594	-0.041
-130.326	495.506	0.253	-0.577
-129.312	-103.827	0.855	0.198
-128.297	-48.229	1.075	-0.515
-127.283	567.204	0.251	-0.606
-126.268	281.274	0.410	-0.728
-125.253	-118.223	0.505	-0.089
-124.239	-195.677	-0.472	-0.003
-123.224	-182.905	-0.480	-0.009
-122.210	-200.000	-0.145	-0.916
-121.195	205.602	0.097	-0.149
-120.180	474.536	-0.294	0.659
-119.166	800.000	0.076	0.262
-118.151	-137.316	-0.834	0.094
-117.137	114.926	0.700	0.847
-116.122	-18.444	-0.414	-0.257
-115.107	-65.587	-0.782	0.311
-114.093	236.517	-0.061	0.100
-113.078	-105.720	0.877	0.197
-112.064	-200.000	0.026	-0.756
-111.049	19.777	-0.170	0.136
-110.034	800.000	-0.236	-0.659
-109.020	-37.624	0.161	-0.085
-108.005	61.955	-0.494	0.489
-106.991	-109.733	0.269	-0.056
-105.976	167.117	0.465	-0.655
-104.962	800.000	0.175	0.635
-103.947	-76.398	-0.879	0.307
-102.932	348.666	0.181	-0.355
-101.918	381.669	-0.112	0.228
-100.903	570.353	-0.389	0.939
-99.889	42.595	-0.479	-0.432
-98.874	-137.274	0.604	0.068
-97.859	-45.484	-0.175	0.086
-96.845	72.165	-0.159	0.164
-95.830	34.099	-0.683	0.590
-94.816	-30.980	0.166	0.093
-93.801	-200.000	-0.027	1.074
-92.786	800.000	-0.035	-0.114
-91.772	71.990	-0.256	-0.264
-90.757	-200.000	-0.080	-0.451
-89.743	2.177	0.248	-0.178
-88.728	126.546	0.367	-0.460
-87.713	-200.000	0.023	-0.364
-86.699	800.000	0.221	0.861
-85.684	800.000	-0.163	0.551
-84.670	-200.000	-0.006	-0.195
-83.655	345.418	-0.249	-0.484
-82.640	81.957	0.141	0.151
-81.626	-200.000	-0.106	0.520
-80.611	315.603	0.246	-0.459
-79.597	24.337	-0.539	-0.441
-78.582	800.000	-0.196	0.800
-77.567	768.451	-0.353	-0.951
-76.553	800.000	0.121	0.361
-75.538	-192.217	0.714	-0.007
-74.524	800.000	0.260	-0.720
-73.509	-200.000	-0.021	0.294
-72.494	-53.517	-0.255	0.116
-71.480	83.244	-0.248	-0.268
-70.465	58.351	-0.151	0.146
-69.451	62.097	-0.206	-0.204
-68.436	345.453	-0.163	0.317
-67.422	-81.457	-0.423	0.138
-66.407	78.230	-0.426	0.450
-65.392	57.902	-0.411	-0.398
-64.378	240.222	-0.066	-0.109
-63.363	84.636	0.411	-0.445
-62.349	429.573	-0.123	-0.263
-61.334	45.571	-0.799	-0.731
-60.319	-200.000	0.053	-0.287
-59.305	420.787	-0.581	-1.234
-58.290	288.469	0.755	1.354
-57.276	506.932	0.655	1.504
-56.261	-200.000	96.049	586.412
-55.246	660.208	1355.756	3455.319
-54.232	199.866	2527.229	3839.092
-53.217	108.980	2280.972	2699.764
-52.203	39.317	2045.518	1812.430
-51.188	34.415	1960.447	1693.572
-50.173	33.037	1943.962	1667.114
-49.159	48.445	1994.250	1848.249
-48.144	48.961	2013.810	1870.923
-47.130	35.116	1974.542	1711.748
-46.115	32.756	1964.488	1681.947
-45.100	32.694	1959.904	1677.403
-44.086	32.331	1959.766	1673.988
-43.071	32.573	1956.000	1672.847
-42.057	32.487	1953.786	1670.126
-41.042	32.449	1953.440	1669.432
-40.027	32.621	1949.762	1667.744
-39.013	32.393	1948.200	1664.321
-37.998	32.696	1946.021	1665.072
-36.984	32.780	1943.427	1663.525
-35.969	32.631	1942.386	1661.253
-34.954	32.701	1940.588	1660.274
-33.940	32.729	1939.508	1659.530
-32.925	32.474	1937.290	1655.324
-31.911	32.629	1937.715	1656.982
-30.896	32.593	1934.705	1654.027
-29.881	32.754	1933.753	1654.560
-28.867	32.554	1933.563	1652.579
-27.852	32.983	1929.373	1652.681
-26.838	32.876	1926.839	1649.516
-25.823	32.771	1926.420	1648.173
-24.809	32.729	1924.901	1646.439
-23.794	32.621	1924.000	1644.661
-22.779	32.671	1921.275	1642.703
-21.765	32.550	1919.114	1639.737
-20.750	32.804	1916.821	1639.920
-19.736	32.658	1916.759	1638.529
-18.721	32.742	1915.342	1637.986
-17.706	32.696	1914.311	1636.635
-16.692	32.627	1911.015	1633.161
-15.677	32.750	1909.295	1632.685
-14.663	32.627	1908.149	1630.582
-13.648	32.793	1907.717	1631.581
-12.633	32.966	1904.994	1630.678
-11.619	32.753	1905.337	1629.071
-10.604	32.771	1902.127	1626.415
-9.590	32.723	1901.000	1624.976
-8.575	32.646	1900.554	1623.869
-7.560	32.684	1898.897	1622.711
-6.546	32.598	1899.028	1622.021
-5.531	32.638	1897.216	1620.753
-4.517	32.667	1895.451	1619.429
-3.502	32.593	1894.816	1618.191
-2.487	32.605	1893.465	1617.074
-1.473	32.591	1893.104	1616.582
-0.458	32.793	1887.312	1613.295
0.556	33.889	1866.537	1584.444
1.571	29.232	1850.112	1531.760
2.586	25.238	1870.464	1514.829
3.600	24.145	1905.036	1533.291
4.615	23.577	1900.052	1524.270
5.629	18.313	1798.483	1399.733
6.644	8.406	1681.935	1232.801
7.659	3.475	1643.994	1167.623
8.673	3.024	1640.897	1161.913
9.688	2.965	1639.540	1160.404
10.702	2.931	1639.056	1159.701
11.717	3.120	1633.111	1156.810
12.731	3.658	1633.913	1161.325
13.746	9.911	1650.635	1220.491
14.761	19.803	1671.145	1310.893
15.775	24.478	1678.134	1351.751
16.790	25.315	1678.507	1358.270
17.804	25.084	1677.636	1355.698
18.819	24.654	1676.410	1351.340
19.834	24.987	1675.224	1352.777
20.848	25.139	1673.903	1352.739
21.863	25.042	1672.857	1351.038
22.877	25.012	1672.523	1350.425
23.892	25.063	1672.272	1350.485
24.907	25.117	1672.076	1350.619
25.921	25.102	1670.432	1349.059
26.936	25.190	1668.917	1348.378
27.950	25.109	1667.618	1346.599
28.965	25.014	1668.273	1346.295
29.980	24.953	1667.868	1345.386
30.994	25.153	1665.708	1345.030
32.009	25.233	1665.025	1344.954
33.023	25.037	1664.792	1343.181
34.038	25.362	1662.721	1343.821
35.053	25.303	1662.369	1342.979
36.067	25.235	1661.462	1341.617
37.082	25.198	1660.285	1340.271
38.096	25.241	1658.304	1338.879
39.111	25.106	1658.652	1338.028
40.126	25.107	1657.639	1337.106
41.140	24.914	1657.925	1335.773
42.155	25.247	1654.197	1335.132
43.169	25.007	1654.335	1333.340
44.184	24.800	1654.232	1331.598
45.199	24.623	1653.041	1329.205
46.213	24.603	1651.347	1327.580
47.228	24.864	1650.620	1328.812
48.242	24.879	1650.389	1328.624
49.257	24.998	1648.659	1327.991
50.271	25.168	1646.340	1327.264
51.286	25.129	1645.320	1326.038
52.301	24.954	1644.772	1324.184
53.315	25.226	1643.372	1324.952
54.330	25.313	1641.782	1324.194
55.344	25.051	1641.306	1321.755
56.359	24.821	1640.041	1318.926
57.374	25.089	1637.732	1318.929
58.388	24.933	1637.607	1317.562
59.403	24.977	1636.088	1316.547
60.417	24.953	1635.577	1315.839
61.432	24.983	1633.746	1314.471
62.447	24.844	1632.515	1312.347
63.461	24.950	1632.972	1313.373
64.476	25.074	1630.150	1311.895
65.490	24.694	1631.042	1309.714
66.505	24.811	1629.418	1309.153
67.520	24.980	1627.634	1308.837
68.534	24.858	1626.226	1306.695
69.549	24.873	1627.032	1307.339
70.563	24.887	1625.950	1306.460
71.578	24.868	1623.869	1304.532
72.593	24.855	1623.573	1304.084
73.607	24.788	1621.936	1302.168
74.622	24.831	1620.729	1301.392
75.636	25.015	1619.471	1301.606
76.651	24.834	1619.917	1300.532
77.666	24.848	1619.335	1300.056
78.680	24.781	1617.909	1298.303
79.695	25.018	1616.462	1298.749
80.709	24.864	1615.989	1297.135
81.724	24.934	1615.699	1297.300
82.739	25.039	1614.255	1296.780
83.753	24.861	1614.985	1295.964
84.768	25.344	1613.030	1297.772
85.782	25.114	1613.017	1295.987
86.797	25.497	1612.604	1298.304
87.812	25.568	1611.201	1297.576
88.826	25.380	1610.220	1295.316
89.841	25.253	1609.194	1293.462
90.855	25.144	1608.313	1291.850
91.870	25.402	1606.944	1292.493
92.884	25.216	1605.633	1289.988
93.899	25.478	1605.253	1291.452
94.914	25.434	1604.805	1290.662
95.928	25.402	1603.342	1289.142
96.943	25.505	1601.280	1288.103
97.957	25.365	1599.880	1285.861
98.972	25.328	1599.283	1285.005
99.987	25.266	1598.345	1283.694
101.001	25.315	1596.522	1282.467
102.016	25.249	1595.009	1280.665
103.030	25.321	1593.518	1279.870
104.045	25.255	1593.158	1279.001
105.060	25.404	1591.062	1278.266
106.074	25.081	1590.316	1275.255
107.089	25.113	1588.842	1274.184
108.103	24.886	1587.917	1271.716
109.118	24.726	1587.013	1269.743
110.133	24.798	1584.580	1268.194
111.147	24.898	1583.081	1267.593
112.162	24.775	1581.825	1265.606
113.176	24.947	1580.701	1265.811
114.191	24.995	1580.068	1265.531
115.206	24.941	1579.119	1264.279
116.220	24.835	1578.046	1262.554
117.235	25.111	1577.164	1263.685
118.249	25.108	1575.301	1262.061
119.264	25.074	1573.131	1259.971
120.279	24.620	1572.361	1256.052
121.293	24.945	1571.463	1257.505
122.308	25.013	1570.640	1257.213
123.322	24.816	1568.638	1254.120
124.337	24.975	1567.922	1254.548
125.352	24.783	1567.560	1252.804
126.366	24.641	1566.653	1250.977
127.381	24.889	1564.473	1250.854
128.395	24.826	1564.398	1250.247
129.410	24.625	1563.863	1248.301
130.424	24.764	1562.010	1247.686
131.439	24.763	1561.113	1246.847
132.454	24.517	1560.480	1244.517
133.468	24.597	1558.932	1243.734
134.483	24.818	1558.170	1244.550
135.497	25.151	1555.742	1244.816
136.512	25.091	1555.840	1244.368
137.527	25.061	1554.476	1242.960
138.541	25.014	1553.535	1241.769
139.556	24.836	1552.236	1239.388
140.570	25.110	1550.232	1239.573
141.585	25.101	1549.653	1238.939
142.600	25.198	1549.037	1239.003
143.614	25.263	1548.258	1238.719
144.629	25.363	1547.334	1238.565
145.643	25.385	1546.026	1237.557
146.658	25.493	1543.840	1236.442
147.673	25.179	1543.026	1233.518
148.687	25.249	1541.568	1232.725
149.702	25.539	1539.508	1232.963
150.716	25.554	1538.110	1231.831
151.731	24.960	1536.926	1226.708
152.746	24.679	1535.186	1223.290
153.760	24.695	1534.958	1223.109
154.775	24.866	1534.627	1223.906
155.789	24.908	1534.463	1223.951
156.804	25.424	1532.787	1226.029
157.819	25.404	1531.194	1224.511
158.833	25.393	1528.664	1222.310
159.848	25.040	1528.783	1219.890
160.862	25.187	1527.725	1219.941
161.877	24.971	1527.738	1218.369
162.892	25.085	1526.336	1217.920
163.906	25.088	1525.599	1217.244
164.921	24.908	1524.656	1215.167
165.935	24.842	1523.359	1213.572
166.950	24.886	1522.350	1212.962
167.964	25.183	1521.017	1213.803
168.979	25.303	1520.044	1213.729
169.994	25.350	1518.688	1212.859
171.008	25.059	1519.048	1211.069
172.023	25.184	1517.868	1210.870
173.037	25.154	1516.281	1209.294
174.052	25.138	1515.953	1208.815
175.067	25.197	1514.922	1208.281
176.081	25.218	1514.044	1207.615
177.096	25.032	1511.844	1204.505
178.110	24.962	1511.129	1203.360
179.125	24.995	1509.598	1202.253
180.140	24.913	1509.343	1201.393
181.154	25.095	1507.663	1201.170
182.169	25.202	1507.370	1201.546
183.183	25.165	1506.142	1200.215
184.198	24.976	1506.313	1198.981
185.213	25.206	1504.812	1199.215
186.227	25.378	1504.024	1199.632
187.242	25.123	1503.784	1197.633
188.256	25.160	1502.051	1196.394
189.271	25.503	1501.215	1197.908
190.286	25.123	1500.044	1194.339
191.300	25.242	1498.285	1193.618
192.315	25.302	1497.785	1193.517
193.329	24.847	1497.150	1189.880
194.344	25.270	1496.815	1192.319
195.359	25.284	1495.826	1191.516
196.373	24.907	1495.390	1188.566
197.388	24.859	1492.958	1186.208
198.402	24.744	1491.194	1183.938
199.417	24.518	1491.001	1182.187
200.432	25.002	1490.631	1184.993
201.446	25.349	1490.874	1187.373
202.461	25.395	1490.055	1186.918
203.475	25.414	1488.489	1185.694
204.490	25.179	1488.662	1184.173
205.504	25.154	1486.395	1182.103
206.519	25.099	1484.511	1180.141
207.534	24.934	1483.863	1178.431
208.548	24.658	1483.028	1175.848
209.563	24.768	1481.599	1175.337
210.577	24.983	1480.855	1176.054
211.592	24.820	1480.088	1174.268
212.607	24.727	1479.730	1173.271
213.621	25.213	1478.931	1175.723
214.636	25.468	1478.735	1177.128
215.650	25.295	1477.526	1174.930
216.665	24.986	1476.836	1172.256
217.680	25.163	1475.149	1171.974
218.694	25.335	1475.271	1173.088
219.709	25.491	1475.760	1174.396
220.723	25.272	1473.277	1170.884
221.738	25.130	1473.151	1169.752
222.753	25.099	1472.012	1168.543
223.767	25.164	1470.909	1167.992
224.782	24.922	1470.491	1165.979
225.796	25.005	1468.763	1165.044
226.811	25.507	1467.435	1167.147
227.826	25.401	1467.419	1166.344
228.840	25.222	1467.326	1165.005
229.855	25.143	1466.009	1163.341
230.869	25.007	1465.096	1161.633
231.884	25.061	1464.241	1161.205
232.899	25.134	1463.599	1161.067
233.913	24.816	1461.636	1157.350
234.928	24.866	1459.996	1156.269
235.942	24.987	1459.292	1156.390
236.957	25.004	1457.828	1155.239
237.972	24.922	1456.835	1153.822
238.986	24.755	1455.137	1151.302
240.001	24.621	1455.176	1150.367
241.015	24.799	1453.838	1150.350
242.030	24.839	1452.979	1149.826
243.045	24.838	1453.041	1149.768
244.059	24.975	1451.214	1149.096
245.074	25.175	1450.378	1149.616
246.088	24.988	1451.301	1149.046
247.103	25.278	1449.282	1149.206
248.117	25.360	1448.778	1149.225
249.132	25.220	1448.803	1148.250
250.147	25.293	1446.990	1147.180
251.161	25.388	1448.068	1148.538
252.176	25.810	1447.063	1150.335
253.190	25.695	1446.435	1149.004
254.205	25.947	1444.817	1149.220
255.220	25.958	1444.399	1148.857
256.234	25.993	1442.983	1147.854
257.249	25.932	1443.825	1148.028
258.263	26.039	1442.279	1147.380
259.278	25.726	1439.949	1143.439
260.293	26.026	1439.327	1144.747
261.307	25.967	1439.658	1144.537
262.322	25.837	1438.932	1143.029
263.336	26.005	1438.534	1143.677
264.351	25.720	1437.877	1141.247
265.366	25.818	1436.441	1140.633
266.380	26.045	1435.053	1140.859
267.395	26.042	1433.749	1139.703
268.409	25.954	1434.350	1139.526
269.424	25.740	1433.039	1137.031
270.439	25.394	1432.274	1134.140
271.453	25.725	1430.908	1135.047
272.468	25.728	1431.054	1135.078
273.482	25.701	1429.323	1133.437
274.497	25.440	1429.366	1131.725
275.512	25.546	1427.097	1130.498
276.526	25.667	1426.734	1130.869
277.541	25.604	1425.480	1129.377
278.555	25.564	1425.112	1128.738
279.570	25.712	1424.049	1128.721
280.585	25.837	1422.972	1128.556
281.599	25.814	1422.505	1127.937
282.614	25.926	1422.224	1128.316
283.628	25.971	1419.391	1126.249
284.643	25.568	1420.114	1124.208
285.657	25.681	1417.918	1123.073
286.672	25.470	1417.630	1121.432
287.687	25.424	1416.443	1120.103
288.701	25.624	1416.010	1120.911
289.716	25.586	1415.793	1120.399
290.730	25.566	1415.832	1120.209
291.745	25.618	1413.948	1118.945
292.760	25.512	1412.886	1117.344
293.774	25.648	1412.445	1117.739
294.789	25.461	1411.526	1115.754
295.803	25.632	1411.691	1116.848
296.818	25.978	1410.360	1117.839
297.833	25.769	1408.875	1115.272
298.847	25.682	1407.809	1113.788
299.862	25.885	1407.011	1114.318
300.876	25.504	1407.098	1111.929
301.891	25.579	1405.040	1110.668
302.906	25.634	1404.700	1110.639
303.920	25.693	1403.985	1110.343
304.935	26.114	1403.412	1112.384
305.949	26.039	1402.818	1111.356
306.964	25.988	1402.450	1110.651
307.979	26.174	1401.058	1110.591
308.993	25.996	1400.936	1109.302
310.008	25.640	1400.794	1106.902
311.022	25.778	1398.859	1106.125
312.037	25.940	1397.425	1105.887
313.052	26.083	1396.281	1105.757
314.066	25.744	1395.505	1102.968
315.081	25.728	1394.523	1101.998
316.095	25.843	1393.396	1101.715
317.110	25.490	1392.055	1098.402
318.125	25.612	1391.124	1098.315
319.139	25.771	1390.685	1098.840
320.154	25.332	1390.150	1095.640
321.168	25.403	1388.222	1094.455
322.183	25.823	1387.065	1096.005
323.197	25.365	1386.378	1092.580
324.212	25.406	1385.547	1092.079
325.227	25.530	1385.001	1092.306
326.241	25.924	1384.030	1093.831
327.256	25.701	1384.446	1092.708
328.270	25.893	1382.868	1092.529
329.285	25.662	1381.804	1090.195
330.300	25.560	1380.327	1088.316
331.314	25.615	1380.286	1088.523
332.329	25.658	1378.817	1087.523
333.343	25.876	1378.629	1088.598
334.358	25.716	1378.162	1087.164
335.373	25.659	1377.277	1086.030
336.387	25.874	1376.442	1086.572
337.402	25.750	1376.666	1085.902
338.416	25.918	1375.518	1085.911
339.431	26.252	1374.543	1087.056
340.446	25.957	1374.071	1084.811
341.460	26.198	1373.720	1085.889
342.475	26.240	1372.547	1085.122
343.489	26.526	1371.585	1085.976
344.504	26.408	1369.721	1083.699
345.519	26.293	1370.111	1083.223
346.533	26.254	1369.298	1082.249
347.548	26.505	1368.691	1083.181
348.562	26.279	1368.118	1081.275
349.577	26.763	1365.082	1081.672
350.592	26.382	1366.021	1080.044
351.606	26.028	1365.578	1077.486
352.621	26.004	1364.057	1076.046
353.635	25.693	1363.086	1073.329
354.650	25.871	1361.879	1073.342
355.665	25.651	1361.205	1071.408
356.679	25.655	1360.500	1070.785
357.694	26.041	1358.213	1071.182
358.708	26.054	1357.853	1070.876
359.723	26.131	1355.959	1069.745
360.738	26.094	1356.461	1069.828
361.752	26.178	1355.311	1069.326
362.767	26.200	1353.749	1068.127
363.781	26.024	1352.287	1065.841
364.796	25.818	1352.149	1064.421
365.810	26.040	1351.442	1065.080
366.825	26.219	1351.845	1066.363
367.840	26.547	1350.666	1067.268
368.854	26.367	1350.751	1066.178
369.869	26.605	1349.741	1066.690
370.883	26.708	1348.334	1066.090
371.898	26.390	1347.986	1063.850
372.913	26.279	1347.343	1062.599
373.927	26.264	1346.431	1061.696
374.942	26.322	1345.029	1060.839
375.956	26.487	1344.053	1060.943
376.971	26.691	1343.382	1061.512
377.986	26.224	1343.553	1058.817
379.000	26.221	1342.388	1057.785
380.015	26.443	1341.512	1058.305
381.029	26.633	1340.801	1058.758
382.044	26.571	1340.536	1058.096
383.059	26.702	1338.935	1057.502
384.073	26.997	1338.365	1058.675
385.088	26.578	1338.190	1056.001
386.102	26.544	1337.885	1055.470
387.117	26.845	1336.171	1055.779
388.132	26.713	1336.117	1054.873
389.146	26.280	1334.604	1051.065
390.161	26.353	1334.355	1051.199
391.175	26.151	1333.439	1049.211
392.190	25.929	1333.648	1047.997
393.205	26.195	1331.785	1047.981
394.219	26.556	1331.173	1049.499
395.234	26.745	1330.195	1049.731
396.248	26.678	1328.909	1048.234
397.263	26.224	1327.482	1044.396
398.278	26.105	1326.093	1042.523
399.292	26.028	1325.331	1041.387
400.307	26.380	1324.534	1042.695
401.321	26.339	1323.807	1041.796
402.336	26.322	1323.765	1041.573
403.350	26.124	1321.589	1038.631
404.365	25.890	1320.030	1035.969
405.380	26.120	1319.838	1037.049
406.394	26.104	1320.251	1037.186
407.409	26.479	1318.373	1037.772
408.423	26.145	1318.112	1035.561
409.438	26.666	1316.906	1037.506
410.453	26.625	1317.232	1037.436
411.467	26.755	1315.904	1037.041
412.482	26.870	1315.326	1037.151
413.496	26.533	1314.646	1034.597
414.511	26.502	1314.024	1033.838
415.526	26.582	1314.339	1034.453
416.540	27.270	1312.384	1036.744
417.555	27.097	1310.558	1034.225
418.569	26.804	1311.791	1033.436
419.584	26.814	1310.843	1032.655
420.599	26.720	1311.279	1032.376
421.613	142.620	1435.548	1792.483
422.628	138.357	1453.614	1792.581
