DTS Sentinel unit serial number:	SN413079Multiplexer serial number:	ORYXHardware model number:	OX4-SRSoftware version number:	ORYX F/W v4.00 Oryx Data Collector v3.7.2.0data status	okinstallation	princeton_trtdifferential loss correction	single-endedforward channel	channel 4reverse channel	N/Adate	2019/09/18time	18:37:35forward acquisition time	60.00reverse acquisition time	0.00gamma	496.2192k internal	0.2295k external	0.2295temperature offset calibration	1.0025default loss term (dB/km)	0.3790temperature slope calibration	1.0000multiplexer offset coefficient	1.0000multiplexer slope coefficient	1.0000fibre end	0.00T internal ref (°C)	37.95T ext. ref 1 (°C)	0.93T ext. ref 2 (°C)	29.84length (m)	temperature (°C)	Stokes	anti-Stokes-747.200	-55.103	-0.209	0.096
-746.185	278.880	0.023	-0.041
-745.171	-131.980	0.219	0.029
-744.156	105.887	-0.137	0.166
-743.142	-200.000	-0.017	-0.192
-742.127	660.370	-0.154	-0.406
-741.112	-185.859	-0.220	0.003
-740.098	128.371	-0.265	0.345
-739.083	-87.131	0.396	0.123
-738.069	20.528	-0.184	0.152
-737.054	-70.679	0.087	0.034
-736.039	144.294	0.068	-0.093
-735.025	-144.800	0.118	-0.011
-734.010	308.583	-0.073	-0.139
-732.996	800.000	-0.126	-0.420
-731.981	479.411	0.031	0.071
-730.966	-48.696	-0.179	0.088
-729.952	43.812	0.195	0.182
-728.937	-200.000	0.026	-0.186
-727.923	-155.974	-0.157	0.010
-726.908	-200.000	0.010	-0.216
-725.894	800.000	-0.170	-0.542
-724.879	543.326	0.052	0.128
-723.864	-30.684	-0.132	0.076
-722.850	104.496	-0.405	-0.487
-721.835	35.383	0.181	-0.162
-720.821	-155.154	-0.197	0.013
-719.806	-200.000	0.019	0.226
-718.791	-166.802	-0.378	-0.016
-717.777	-101.390	0.102	0.025
-716.762	-12.568	0.029	0.019
-715.748	182.833	0.267	-0.403
-714.733	88.018	0.082	-0.092
-713.718	-112.766	0.017	0.003
-712.704	118.546	0.194	0.244
-711.689	800.000	0.058	0.177
-710.675	-58.856	-0.322	-0.142
-709.660	742.038	-0.029	0.079
-708.645	38.159	-0.230	0.209
-707.631	634.475	-0.132	-0.341
-706.616	68.890	-0.227	0.238
-705.602	-200.000	0.017	0.324
-704.587	800.000	-0.046	0.163
-703.572	51.652	0.095	-0.092
-702.558	-11.631	0.142	-0.095
-701.543	69.056	0.165	0.173
-700.529	68.441	0.219	0.229
-699.514	-149.229	0.099	0.008
-698.499	133.572	-0.255	-0.337
-697.485	-42.777	0.252	-0.131
-696.470	-117.354	-0.052	-0.010
-695.456	-87.581	0.128	0.039
-694.441	-200.000	0.016	-0.179
-693.426	-74.251	-0.285	0.105
-692.412	-100.532	-0.213	-0.054
-691.397	-85.674	0.341	-0.108
-690.383	-97.664	0.229	0.061
-689.368	-41.667	0.246	-0.129
-688.354	13.118	-0.158	0.125
-687.339	-200.000	0.027	0.262
-686.324	800.000	-0.060	0.209
-685.310	-200.000	0.004	0.074
-684.295	800.000	-0.037	0.110
-683.281	584.157	0.069	-0.173
-682.266	-58.207	0.144	0.064
-681.251	415.652	-0.120	0.262
-680.237	-107.370	0.061	0.014
-679.222	7.997	-0.123	0.094
-678.208	-111.114	-0.220	-0.046
-677.193	298.658	-0.222	-0.417
-676.178	-200.000	-0.007	-0.139
-675.164	181.523	-0.046	0.068
-674.149	-125.072	-0.169	-0.026
-673.135	-43.447	0.301	0.155
-672.120	800.000	-0.051	0.160
-671.105	-200.000	0.077	-0.395
-670.091	-200.000	-0.052	-0.379
-669.076	-96.349	-0.144	-0.039
-668.062	136.103	-0.199	-0.264
-667.047	-66.237	0.058	0.023
-666.032	-158.289	-0.191	-0.011
-665.018	-200.000	-0.047	0.354
-664.003	44.525	-0.220	-0.206
-662.989	800.000	0.029	-0.100
-661.974	-82.335	0.087	-0.029
-660.959	-138.807	-0.336	0.037
-659.945	-92.338	0.283	0.081
-658.930	-81.687	-0.273	-0.091
-657.916	-13.490	-0.214	0.141
-656.901	800.000	0.034	0.137
-655.886	-43.893	-0.412	-0.211
-654.872	-114.029	0.506	0.100
-653.857	-200.000	0.004	0.250
-652.843	-200.000	0.031	0.367
-651.828	85.405	-0.089	0.100
-650.814	647.463	-0.118	0.307
-649.799	120.019	0.107	0.135
-648.784	579.248	-0.050	0.125
-647.770	712.757	-0.197	-0.531
-646.755	-66.686	-0.498	0.201
-645.741	-62.861	0.240	-0.101
-644.726	42.486	0.136	0.126
-643.711	54.542	0.087	0.085
-642.697	-38.066	-0.053	-0.029
-641.682	507.793	0.037	0.087
-640.668	36.327	0.206	-0.184
-639.653	383.672	-0.064	-0.134
-638.638	-80.602	-0.341	0.116
-637.624	800.000	0.024	-0.098
-636.609	-96.281	0.173	0.047
-635.595	-38.908	-0.119	-0.064
-634.580	665.196	0.086	0.225
-633.565	-34.495	-0.007	0.004
-632.551	-200.000	-0.009	-0.139
-631.536	-41.564	0.337	0.176
-630.522	-32.148	0.162	-0.092
-629.507	-106.200	-0.316	0.072
-628.492	-200.000	0.001	0.034
-627.478	120.375	-0.148	0.186
-626.463	-32.960	-0.295	0.167
-625.449	74.430	-0.212	0.226
-624.434	-11.531	-0.047	0.032
-623.419	-145.963	-0.182	0.016
-622.405	211.433	0.030	-0.048
-621.390	22.305	-0.119	-0.099
-620.376	-200.000	0.019	0.174
-619.361	-51.936	-0.144	0.068
-618.346	78.006	0.013	0.014
-617.332	-35.960	0.469	0.258
-616.317	-157.004	-0.099	0.006
-615.303	800.000	0.011	-0.035
-614.288	-200.000	-0.022	0.111
-613.273	-200.000	-0.038	0.256
-612.259	82.826	-0.196	-0.217
-611.244	-200.000	0.002	-0.106
-610.230	272.361	0.226	-0.406
-609.215	5.542	-0.220	0.166
-608.201	-9.722	0.242	0.164
-607.186	134.154	0.120	0.158
-606.171	30.975	0.138	-0.121
-605.157	800.000	0.041	0.145
-604.142	800.000	-0.011	-0.036
-603.128	-31.849	0.112	0.064
-602.113	-16.153	-0.153	0.099
-601.098	-200.000	0.001	-0.075
-600.084	-200.000	-0.018	0.122
-599.069	-81.413	-0.214	0.072
-598.055	286.047	-0.086	-0.157
-597.040	-81.976	0.504	-0.168
-596.025	-14.545	-0.282	-0.184
-595.011	-101.127	-0.381	0.095
-593.996	-119.011	-0.028	-0.005
-592.982	-42.341	0.370	-0.192
-591.967	800.000	-0.054	-0.178
-590.952	-37.890	0.388	-0.210
-589.938	33.884	0.041	0.036
-588.923	-200.000	-0.034	-0.264
-587.909	-64.834	0.165	0.068
-586.894	-90.024	-0.330	-0.098
-585.879	-98.578	-0.191	0.049
-584.865	-21.511	-0.158	-0.098
-583.850	-92.800	-0.169	0.048
-582.836	-105.093	0.460	0.107
-581.821	-81.563	-0.227	-0.076
-580.806	-110.399	0.174	0.037
-579.792	-200.000	-0.093	-0.420
-578.777	-200.000	-0.021	-0.099
-577.763	37.418	-0.082	-0.074
-576.748	46.253	-0.358	-0.337
-575.733	-200.000	-0.011	0.073
-574.719	85.373	0.160	-0.178
-573.704	-126.639	-0.219	0.033
-572.690	257.332	0.156	-0.273
-571.675	-139.158	0.205	-0.022
-570.661	-82.142	0.164	-0.054
-569.646	-133.734	0.188	0.024
-568.631	-200.000	0.002	-0.191
-567.617	800.000	0.025	0.071
-566.602	-200.000	0.003	0.082
-565.588	800.000	-0.100	0.304
-564.573	-200.000	0.002	-0.121
-563.558	80.249	0.132	0.145
-562.544	-200.000	-0.025	0.496
-561.529	-200.000	0.006	-0.143
-560.515	-129.810	-0.186	0.026
-559.500	-200.000	-0.050	-0.246
-558.485	-200.000	-0.064	0.304
-557.471	144.863	-0.098	-0.133
-556.456	-200.000	0.027	0.242
-555.442	800.000	0.029	0.095
-554.427	-200.000	0.014	-0.482
-553.412	-79.382	-0.411	-0.141
-552.398	800.000	-0.114	0.324
-551.383	800.000	0.021	-0.086
-550.369	-200.000	0.029	0.150
-549.354	152.196	-0.068	-0.094
-548.339	201.058	0.056	0.087
-547.325	800.000	0.068	-0.190
-546.310	346.309	-0.102	0.203
-545.296	115.762	0.103	-0.128
-544.281	-33.594	-0.306	0.171
-543.266	-81.913	-0.274	-0.091
-542.252	39.026	-0.218	0.197
-541.237	-13.777	-0.163	-0.107
-540.223	442.112	0.114	-0.253
-539.208	-116.921	0.264	0.049
-538.193	168.601	-0.341	0.493
-537.179	-200.000	0.005	-0.146
-536.164	169.347	0.158	0.228
-535.150	-54.836	-0.227	-0.104
-534.135	-200.000	-0.009	-0.256
-533.121	-22.013	0.355	0.219
-532.106	79.579	-0.027	-0.029
-531.091	-1.997	-0.142	-0.101
-530.077	-32.158	0.245	-0.139
-529.062	-200.000	0.035	-0.360
-528.048	-200.000	0.011	0.367
-527.033	18.559	-0.342	0.277
-526.018	-200.000	0.009	-0.222
-525.004	67.824	0.231	0.239
-523.989	-61.473	0.246	0.105
-522.975	-156.791	0.139	0.009
-521.960	398.553	0.210	0.446
-520.945	800.000	0.043	0.132
-519.931	200.259	0.124	-0.193
-518.916	-200.000	0.048	-0.247
-517.902	-198.558	0.378	0.002
-516.887	-61.834	-0.106	-0.045
-515.872	192.087	0.107	-0.164
-514.858	800.000	0.071	-0.305
-513.843	114.764	-0.035	0.044
-512.829	-79.727	-0.324	0.110
-511.814	-158.511	-0.394	0.023
-510.799	203.593	0.106	0.166
-509.785	-200.000	0.013	0.117
-508.770	-99.505	0.198	-0.051
-507.756	103.827	-0.106	-0.126
-506.741	39.839	-0.273	0.248
-505.726	-128.474	-0.305	0.044
-504.712	12.134	-0.165	-0.129
-503.697	-88.250	0.256	0.078
-502.683	63.490	0.150	0.153
-501.668	33.086	-0.270	-0.237
-500.653	-200.000	-0.002	-0.312
-499.639	55.458	0.327	-0.321
-498.624	91.567	0.127	-0.145
-497.610	8.834	0.130	0.099
-496.595	-165.391	-0.263	0.012
-495.581	-71.262	-0.119	-0.045
-494.566	-55.252	-0.092	0.042
-493.551	61.667	0.232	-0.234
-492.537	-13.913	0.256	-0.167
-491.522	-200.000	0.024	0.176
-490.508	-110.441	-0.359	0.075
-489.493	-20.342	0.112	0.070
-488.478	-27.796	-0.370	0.217
-487.464	-91.112	-0.108	-0.031
-486.449	41.414	0.251	-0.230
-485.435	-200.000	-0.008	-0.053
-484.420	-23.278	-0.137	0.083
-483.405	-119.244	-0.335	0.059
-482.391	23.175	-0.157	-0.131
-481.376	-200.000	-0.007	-0.148
-480.362	17.062	0.028	0.023
-479.347	-200.000	0.014	0.085
-478.332	22.713	-0.134	0.111
-477.318	-50.576	0.168	0.080
-476.303	800.000	0.075	-0.242
-475.289	8.305	0.087	-0.066
-474.274	-24.725	-0.064	-0.038
-473.259	-200.000	0.014	0.095
-472.245	800.000	0.132	0.451
-471.230	-200.000	0.024	0.210
-470.216	-42.695	0.141	-0.072
-469.201	-155.462	0.271	-0.018
-468.186	164.636	-0.162	0.232
-467.172	-200.000	-0.018	0.319
-466.157	305.014	0.168	0.316
-465.143	-105.300	-0.393	0.090
-464.128	-44.711	-0.053	0.027
-463.113	800.000	0.063	-0.182
-462.099	-200.000	-0.070	-0.349
-461.084	-114.473	0.141	-0.027
-460.070	800.000	-0.118	0.448
-459.055	800.000	0.066	0.248
-458.040	-25.580	0.222	-0.132
-457.026	-106.768	0.183	0.041
-456.011	42.151	-0.067	-0.062
-454.997	-200.000	-0.011	0.345
-453.982	657.188	0.031	-0.082
-452.968	301.915	-0.062	-0.115
-451.953	-71.134	0.160	0.061
-450.938	18.959	-0.059	-0.048
-449.924	537.061	0.121	-0.291
-448.909	800.000	-0.033	-0.126
-447.895	-200.000	-0.021	-0.391
-446.880	-11.648	-0.159	0.106
-445.865	-17.485	0.225	-0.143
-444.851	-59.161	0.136	0.059
-443.836	-60.216	-0.105	-0.045
-442.822	420.627	-0.102	0.221
-441.807	533.697	0.074	0.178
-440.792	-121.477	-0.079	0.013
-439.778	240.264	0.087	-0.146
-438.763	11.228	0.139	-0.107
-437.749	-131.782	-0.248	0.033
-436.734	-18.382	0.132	0.083
-435.719	-54.775	0.178	0.081
-434.705	-13.282	0.162	0.106
-433.690	-200.000	-0.016	0.077
-432.676	85.978	-0.135	-0.149
-431.661	66.364	0.099	0.101
-430.646	-48.649	-0.202	0.098
-429.632	-102.795	-0.086	0.021
-428.617	-81.029	-0.293	-0.098
-427.603	-49.676	0.162	0.078
-426.588	-89.699	-0.220	0.065
-425.573	161.786	-0.167	-0.236
-424.559	-200.000	0.029	0.205
-423.544	17.383	0.180	-0.144
-422.530	-77.767	0.093	0.032
-421.515	-200.000	0.010	-0.181
-420.500	62.936	0.027	-0.028
-419.486	143.270	0.101	-0.135
-418.471	-111.503	-0.164	-0.034
-417.457	193.900	-0.115	0.175
-416.442	423.088	0.223	-0.483
-415.428	-12.301	0.173	0.114
-414.413	417.003	-0.035	-0.075
-413.398	296.140	0.121	-0.224
-412.384	-105.867	-0.116	0.027
-411.369	217.188	0.162	0.261
-410.355	-53.078	0.170	0.079
-409.340	-156.456	-0.180	-0.011
-408.325	-147.339	-0.367	0.031
-407.311	-137.080	-0.147	-0.017
-406.296	-200.000	0.003	-0.092
-405.282	-36.926	0.188	-0.102
-404.267	152.887	0.245	-0.337
-403.252	800.000	-0.045	0.142
-402.238	9.391	0.048	0.036
-401.223	738.117	0.156	-0.423
-400.209	-194.803	-0.068	0.001
-399.194	-40.552	-0.054	-0.028
-398.179	-165.034	0.131	0.006
-397.165	219.348	-0.158	0.254
-396.150	23.607	-0.217	-0.180
-395.136	-200.000	0.047	0.323
-394.121	-65.450	-0.200	0.081
-393.106	-168.457	0.133	0.005
-392.092	-162.001	-0.066	0.003
-391.077	-126.310	0.240	0.036
-390.063	800.000	-0.078	-0.326
-389.048	-200.000	-0.058	0.395
-388.033	-200.000	-0.020	-0.113
-387.019	-54.405	-0.215	0.098
-386.004	96.918	0.168	0.194
-384.990	-149.762	0.169	-0.013
-383.975	-11.708	-0.195	-0.129
-382.960	800.000	-0.070	-0.253
-381.946	251.507	-0.069	-0.118
-380.931	197.883	0.125	-0.192
-379.917	216.325	0.171	-0.275
-378.902	-147.709	-0.115	0.010
-377.888	56.368	-0.362	-0.354
-376.873	60.919	-0.154	-0.154
-375.858	607.544	0.077	0.193
-374.844	46.475	0.120	-0.112
-373.829	-70.630	0.065	-0.025
-372.815	-200.000	0.024	-0.189
-371.800	490.881	-0.210	-0.485
-370.785	34.998	0.107	-0.094
-369.771	319.324	0.123	-0.236
-368.756	117.533	-0.036	0.045
-367.742	-119.451	0.109	0.019
-366.727	432.293	-0.162	-0.353
-365.712	8.214	0.085	0.064
-364.698	-52.846	-0.484	0.224
-363.683	-13.345	-0.313	0.204
-362.669	-156.496	0.470	-0.029
-361.654	114.154	0.110	-0.135
-360.639	-200.000	0.077	-0.507
-359.625	-11.664	-0.335	0.221
-358.610	800.000	-0.007	0.028
-357.596	-35.251	-0.098	-0.054
-356.581	-62.935	-0.259	0.108
-355.566	800.000	-0.050	-0.143
-354.552	-94.061	-0.021	-0.006
-353.537	800.000	-0.093	0.306
-352.523	-123.518	0.141	-0.023
-351.508	-40.907	0.106	0.055
-350.493	-23.154	-0.324	0.197
-349.479	-121.278	-0.231	0.039
-348.464	193.609	-0.162	-0.246
-347.450	-200.000	0.079	-0.443
-346.435	-117.666	-0.206	-0.037
-345.420	-140.564	-0.134	0.014
-344.406	291.817	0.133	0.243
-343.391	-200.000	0.001	0.171
-342.377	266.659	-0.028	-0.050
-341.362	-98.772	-0.308	-0.079
-340.348	327.208	-0.237	0.456
-339.333	-45.905	0.439	0.218
-338.318	-63.319	-0.095	-0.039
-337.304	569.910	0.168	-0.411
-336.289	800.000	0.134	0.538
-335.275	800.000	0.141	0.421
-334.260	-58.233	0.018	-0.008
-333.245	-95.344	0.092	-0.025
-332.231	-200.000	0.017	-0.180
-331.216	-200.000	0.014	-0.304
-330.202	5.535	-0.098	0.072
-329.187	56.323	0.224	-0.218
-328.172	271.231	0.269	0.477
-327.158	-101.736	-0.266	0.065
-326.143	84.034	0.133	-0.146
-325.129	-43.373	-0.121	0.062
-324.114	-27.454	0.191	-0.112
-323.099	800.000	0.030	-0.131
-322.085	-128.733	-0.140	0.020
-321.070	-72.379	-0.173	-0.064
-320.056	-200.000	0.004	0.283
-319.041	-53.192	0.150	-0.069
-318.026	800.000	-0.133	-0.539
-317.012	439.484	-0.076	0.168
-315.997	800.000	-0.078	0.259
-314.983	800.000	0.071	-0.275
-313.968	39.722	0.235	-0.212
-312.953	-200.000	0.032	-0.148
-311.939	-66.336	0.332	-0.133
-310.924	324.807	0.093	-0.178
-309.910	53.035	0.163	-0.157
-308.895	-200.000	0.003	-0.019
-307.880	-47.102	0.155	-0.076
-306.866	-164.606	-0.435	-0.020
-305.851	-10.633	0.383	0.255
-304.837	-117.053	0.168	-0.031
-303.822	27.484	0.271	-0.229
-302.807	-3.388	0.154	-0.107
-301.793	-74.225	-0.273	0.099
-300.778	-1.714	-0.148	0.104
-299.764	-200.000	0.004	-0.056
-298.749	71.318	-0.053	0.055
-297.735	-200.000	-0.035	-0.222
-296.720	7.794	0.146	0.110
-295.705	800.000	0.082	0.228
-294.691	64.641	-0.102	-0.103
-293.676	-128.106	0.310	-0.045
-292.662	-200.000	-0.000	-0.212
-291.647	52.487	0.118	-0.113
-290.632	-137.944	0.133	0.015
-289.618	-125.242	-0.099	-0.015
-288.603	-200.000	0.014	-0.079
-287.589	606.220	-0.102	0.255
-286.574	800.000	0.031	0.116
-285.559	-101.985	-0.113	0.027
-284.545	81.473	-0.127	0.137
-283.530	-190.311	0.181	-0.002
-282.516	-114.875	-0.077	-0.015
-281.501	-71.141	0.067	0.025
-280.486	-27.653	-0.125	-0.073
-279.472	70.622	0.082	0.085
-278.457	800.000	0.055	-0.190
-277.443	253.516	0.195	-0.335
-276.428	-58.074	0.095	-0.042
-275.413	-30.731	-0.286	-0.163
-274.399	-69.068	0.356	0.138
-273.384	237.415	0.166	0.277
-272.370	-100.589	-0.198	0.049
-271.355	-200.000	0.050	0.296
-270.340	109.364	0.057	0.069
-269.326	88.309	-0.131	0.146
-268.311	2.864	-0.171	0.125
-267.297	-200.000	0.062	0.289
-266.282	206.670	0.106	-0.166
-265.267	79.005	0.069	0.074
-264.253	-163.442	0.297	0.014
-263.238	-135.318	0.132	-0.016
-262.224	800.000	-0.075	-0.211
-261.209	28.404	-0.152	0.129
-260.195	-200.000	-0.007	0.131
-259.180	55.153	0.062	-0.060
-258.165	7.963	-0.255	-0.192
-257.151	-155.007	0.253	-0.017
-256.136	131.889	-0.179	0.231
-255.122	561.351	0.195	-0.474
-254.107	72.142	0.033	-0.035
-253.092	179.331	-0.236	-0.346
-252.078	-53.888	0.053	-0.024
-251.063	-200.000	-0.012	-0.275
-250.049	-200.000	-0.043	-0.202
-249.034	-200.000	-0.050	0.642
-248.019	-173.555	0.141	0.004
-247.005	76.335	0.092	0.097
-245.990	-200.000	0.186	0.000
-244.976	317.326	-0.030	-0.057
-243.961	83.091	0.098	-0.107
-242.946	-131.185	0.109	0.014
-241.932	-59.123	0.062	0.027
-240.917	-200.000	0.026	0.138
-239.903	-59.761	-0.257	-0.110
-238.888	-142.006	0.148	0.015
-237.873	800.000	0.125	0.431
-236.859	-200.000	-0.019	0.238
-235.844	737.355	-0.102	-0.273
-234.830	-200.000	0.053	0.292
-233.815	-122.136	0.154	-0.025
-232.800	-46.198	0.077	0.038
-231.786	-104.752	-0.237	0.055
-230.771	-132.401	-0.157	-0.020
-229.757	-142.833	0.119	-0.012
-228.742	800.000	0.015	0.050
-227.727	-59.648	-0.163	0.070
-226.713	651.771	0.134	-0.343
-225.698	86.069	0.058	-0.064
-224.684	-145.612	-0.211	0.019
-223.669	472.545	0.171	0.385
-222.655	520.252	-0.064	-0.150
-221.640	179.257	0.248	-0.364
-220.625	425.940	0.090	0.195
-219.611	-95.437	0.171	-0.046
-218.596	156.943	-0.194	0.269
-217.582	-200.000	-0.017	-0.153
-216.567	-124.264	0.179	-0.028
-215.552	48.275	-0.172	0.161
-214.538	38.591	-0.138	0.123
-213.523	-63.849	-0.130	-0.053
-212.509	-12.212	0.310	0.203
-211.494	104.417	-0.135	0.159
-210.479	800.000	-0.061	0.219
-209.465	24.269	0.105	0.087
-208.450	185.771	-0.098	-0.147
-207.436	127.703	-0.142	0.181
-206.421	-51.075	-0.147	0.069
-205.406	-148.072	0.399	-0.033
-204.392	-68.819	-0.266	-0.103
-203.377	123.309	0.135	0.169
-202.363	401.913	-0.090	-0.188
-201.348	-200.000	0.053	0.323
-200.333	-14.395	0.236	0.152
-199.319	215.954	0.243	0.386
-198.304	-52.231	0.391	0.181
-197.290	-109.247	-0.121	-0.026
-196.275	54.818	0.077	-0.074
-195.260	-190.228	0.116	0.001
-194.246	-75.610	0.109	-0.039
-193.231	131.416	-0.134	-0.172
-192.217	800.000	0.095	-0.341
-191.202	-4.686	-0.231	0.160
-190.187	-23.857	-0.190	0.114
-189.173	-116.072	-0.309	0.058
-188.158	-200.000	-0.004	0.148
-187.144	800.000	0.070	-0.221
-186.129	208.170	-0.069	-0.108
-185.114	202.495	0.078	-0.121
-184.100	-200.000	0.025	-0.135
-183.085	-165.461	-0.103	-0.005
-182.071	-64.956	-0.168	0.068
-181.056	-200.000	0.039	0.235
-180.042	-189.656	-0.136	0.002
-179.027	6.751	0.075	-0.056
-178.012	-200.000	0.021	-0.126
-176.998	92.966	0.214	0.242
-175.983	-113.524	-0.154	-0.030
-174.969	44.782	-0.170	-0.157
-173.954	101.041	0.008	-0.010
-172.939	722.968	-0.012	0.033
-171.925	-200.000	0.003	0.179
-170.910	380.866	0.030	-0.062
-169.896	-149.139	-0.125	-0.010
-168.881	79.757	-0.133	-0.143
-167.866	-66.406	-0.206	-0.082
-166.852	54.174	0.170	0.163
-165.837	25.734	-0.195	0.162
-164.823	-200.000	-0.032	-0.165
-163.808	-12.009	0.275	-0.180
-162.793	-28.779	-0.160	-0.092
-161.779	800.000	-0.043	0.188
-160.764	-200.000	-0.014	0.205
-159.750	182.400	0.208	0.306
-158.735	-102.612	0.240	0.057
-157.720	10.242	0.282	0.214
-156.706	800.000	0.075	0.299
-155.691	-200.000	-0.051	-0.248
-154.677	-114.350	-0.161	0.031
-153.662	143.902	-0.071	0.095
-152.647	-49.652	0.217	0.103
-151.633	-126.327	0.057	0.009
-150.618	-56.774	-0.172	0.076
-149.604	-131.033	0.149	-0.020
-148.589	-146.219	-0.299	0.026
-147.574	-155.841	-0.024	-0.002
-146.560	800.000	-0.090	0.320
-145.545	-34.533	-0.151	0.083
-144.531	-54.028	0.159	0.072
-143.516	-128.639	-0.222	-0.031
-142.502	-178.372	0.442	-0.010
-141.487	159.479	0.271	0.377
-140.472	-117.883	-0.182	0.033
-139.458	334.005	0.170	-0.329
-138.443	-80.841	-0.058	-0.019
-137.429	-121.861	0.321	0.053
-136.414	11.745	0.084	0.064
-135.399	-86.958	-0.195	0.059
-134.385	-200.000	0.002	-0.175
-133.370	-12.920	0.171	0.111
-132.356	27.714	-0.254	0.213
-131.341	-35.924	-0.118	0.064
-130.326	-65.459	0.504	-0.202
-129.312	64.702	0.074	0.074
-128.297	-200.000	0.050	-0.323
-127.283	274.848	-0.031	0.055
-126.268	-123.041	0.160	0.026
-125.253	-40.437	-0.263	-0.136
-124.239	-2.396	0.109	-0.076
-123.224	-107.208	0.045	-0.010
-122.210	-121.532	-0.228	-0.038
-121.195	-72.865	0.084	-0.031
-120.180	-200.000	0.014	-0.129
-119.166	312.172	-0.041	-0.076
-118.151	556.821	-0.123	0.296
-117.137	52.757	0.152	0.145
-116.122	800.000	0.037	0.157
-115.107	209.837	0.118	0.185
-114.093	800.000	0.122	0.476
-113.078	-154.929	0.173	-0.011
-112.064	800.000	0.060	-0.207
-111.049	-25.308	0.277	-0.164
-110.034	64.803	-0.278	-0.280
-109.020	-166.006	0.165	-0.007
-108.005	-200.000	-0.028	0.265
-106.991	11.188	0.160	0.122
-105.976	233.755	-0.110	-0.181
-104.962	-87.287	-0.207	-0.063
-103.947	-200.000	0.001	0.426
-102.932	33.805	0.067	-0.058
-101.918	329.669	-0.053	0.102
-100.903	-200.000	0.019	-0.111
-99.889	518.055	0.056	0.131
-98.874	92.994	0.076	0.085
-97.859	-142.579	0.136	0.013
-96.845	-61.670	0.118	0.049
-95.830	-118.819	-0.249	0.044
-94.816	-173.669	0.351	-0.010
-93.801	800.000	0.002	0.009
-92.786	-0.994	0.094	-0.066
-91.772	726.921	0.109	0.289
-90.757	800.000	0.123	0.370
-89.743	186.846	-0.118	-0.176
-88.728	-114.796	0.447	-0.085
-87.713	-200.000	-0.008	0.051
-86.699	-38.519	-0.251	0.132
-85.684	457.162	-0.155	0.344
-84.670	-200.000	0.002	0.036
-83.655	-50.578	-0.082	-0.039
-82.640	383.552	-0.077	0.158
-81.626	800.000	-0.056	0.162
-80.611	-200.000	-0.005	0.197
-79.597	-72.996	0.053	-0.019
-78.582	32.747	0.177	0.152
-77.567	195.117	0.134	-0.203
-76.553	-47.525	-0.169	-0.082
-75.538	124.815	-0.154	0.193
-74.524	-127.000	-0.229	-0.033
-73.509	210.049	0.099	0.155
-72.494	800.000	0.030	0.105
-71.480	185.750	-0.172	0.255
-70.465	-200.000	0.061	0.318
-69.451	-23.359	0.064	0.038
-68.436	316.394	-0.042	0.079
-67.422	-70.015	0.176	0.067
-66.407	-94.676	0.076	0.021
-65.392	104.833	0.129	0.152
-64.378	-200.000	-0.003	-0.110
-63.363	800.000	-0.122	-0.493
-62.349	-200.000	0.018	-0.109
-61.334	45.532	-0.778	-0.715
-60.319	214.670	0.167	0.264
-59.305	-200.000	-0.167	-0.843
-58.290	88.274	0.764	0.844
-57.276	800.000	0.569	1.712
-56.261	-200.000	87.637	506.961
-55.246	470.826	1385.276	3099.993
-54.232	144.932	2605.540	3466.647
-53.217	103.934	2372.552	2774.389
-52.203	44.488	2114.606	1932.890
-51.188	39.776	2024.168	1807.135
-50.173	38.134	2004.524	1774.619
-49.159	50.770	2051.628	1932.778
-48.144	53.959	2070.789	1980.106
-47.130	40.542	2030.004	1819.088
-46.115	38.074	2018.322	1786.006
-45.100	37.957	2015.349	1782.235
-44.086	37.878	2013.027	1779.383
-43.071	37.800	2010.744	1776.587
-42.057	37.828	2008.135	1774.464
-41.042	37.953	2006.245	1773.862
-40.027	37.914	2004.565	1771.951
-39.013	37.896	2002.504	1769.893
-37.998	37.975	2000.155	1768.463
-36.984	37.942	1998.496	1766.635
-35.969	37.952	1997.042	1765.367
-34.954	37.948	1995.308	1763.724
-33.940	37.923	1993.583	1761.909
-32.925	38.023	1991.872	1761.227
-31.911	37.937	1990.948	1759.564
-30.896	37.910	1988.929	1757.464
-29.881	37.987	1987.082	1756.454
-28.867	38.151	1984.706	1755.763
-27.852	38.087	1983.069	1753.670
-26.838	38.062	1981.423	1751.918
-25.823	37.943	1979.585	1749.162
-24.809	37.960	1977.499	1747.395
-23.794	37.966	1975.998	1746.052
-22.779	37.913	1974.693	1744.363
-21.765	37.995	1972.373	1742.973
-20.750	37.920	1970.796	1740.838
-19.736	37.901	1969.763	1739.687
-18.721	37.911	1967.972	1738.126
-17.706	37.968	1966.310	1737.102
-16.692	37.929	1964.042	1734.680
-15.677	37.936	1962.609	1733.412
-14.663	37.923	1960.819	1731.645
-13.648	37.991	1959.581	1731.079
-12.633	37.983	1958.440	1729.936
-11.619	37.919	1957.349	1728.339
-10.604	38.034	1955.579	1727.726
-9.590	37.881	1954.785	1725.598
-8.575	37.922	1953.036	1724.352
-7.560	37.904	1952.396	1723.558
-6.546	37.960	1950.528	1722.336
-5.531	37.998	1948.832	1721.100
-4.517	37.860	1948.549	1719.569
-3.502	37.878	1947.168	1718.440
-2.487	37.814	1946.248	1716.992
-1.473	37.858	1944.656	1715.912
-0.458	37.965	1939.621	1712.337
0.556	36.448	1919.291	1679.593
1.571	30.666	1894.363	1607.835
2.586	24.358	1910.552	1566.238
3.600	21.857	1943.049	1570.383
4.615	20.497	1937.812	1553.856
5.629	15.746	1837.191	1432.667
6.644	6.724	1716.285	1266.180
7.659	1.607	1674.832	1195.358
8.673	0.992	1671.522	1188.065
9.688	0.973	1670.064	1186.781
10.702	0.973	1668.218	1185.364
11.717	0.772	1665.676	1181.876
12.731	1.246	1664.446	1184.603
13.746	6.910	1676.886	1237.804
14.761	14.573	1692.040	1309.224
15.775	17.548	1696.299	1335.778
16.790	17.473	1694.556	1333.693
17.804	16.581	1691.948	1324.547
18.819	15.584	1688.785	1314.156
19.834	15.014	1685.354	1306.919
20.848	14.664	1684.077	1303.080
21.863	14.461	1682.449	1300.124
22.877	14.116	1681.202	1296.359
23.892	13.890	1679.500	1293.173
24.907	13.781	1678.377	1291.341
25.921	13.751	1677.484	1290.310
26.936	13.679	1676.571	1288.931
27.950	13.804	1675.460	1288.932
28.965	13.839	1675.266	1288.945
29.980	13.858	1674.855	1288.661
30.994	13.880	1673.457	1287.641
32.009	13.930	1672.523	1287.197
33.023	13.988	1671.419	1286.685
34.038	13.995	1670.287	1285.750
35.053	13.978	1669.072	1284.570
36.067	13.938	1668.338	1283.579
37.082	13.939	1667.135	1282.554
38.096	13.881	1666.091	1281.183
39.111	13.970	1665.441	1281.262
40.126	14.039	1664.498	1280.956
41.140	13.835	1663.951	1278.849
42.155	13.856	1662.413	1277.713
43.169	13.781	1660.646	1275.665
44.184	13.783	1659.759	1274.885
45.199	13.693	1658.914	1273.432
46.213	13.740	1657.313	1272.449
47.228	13.775	1655.645	1271.329
48.242	13.782	1654.846	1270.658
49.257	13.794	1653.742	1269.789
50.271	13.788	1652.980	1269.046
51.286	13.864	1651.134	1268.094
52.301	13.892	1649.583	1267.006
53.315	13.801	1648.815	1265.608
54.330	13.861	1646.410	1264.108
55.344	13.859	1644.937	1262.851
56.359	13.779	1643.764	1261.232
57.374	13.763	1642.743	1260.210
58.388	13.808	1641.621	1259.585
59.403	13.742	1640.459	1258.076
60.417	13.739	1638.411	1256.372
61.432	13.688	1637.745	1255.367
62.447	13.624	1636.881	1254.112
63.461	13.736	1635.236	1253.584
64.476	13.613	1634.221	1251.765
65.490	13.650	1632.946	1250.956
66.505	13.658	1631.898	1250.101
67.520	13.631	1631.006	1249.110
68.534	13.709	1629.698	1248.583
69.549	13.611	1629.016	1247.211
70.563	13.729	1627.332	1246.703
71.578	13.692	1626.226	1245.466
72.593	13.629	1625.283	1244.162
73.607	13.606	1624.306	1243.131
74.622	13.637	1623.013	1242.258
75.636	13.620	1621.841	1241.123
76.651	13.651	1620.980	1240.591
77.666	13.678	1619.781	1239.767
78.680	13.700	1618.925	1239.167
79.695	13.621	1618.089	1237.823
80.709	13.662	1617.114	1237.274
81.724	13.644	1616.219	1236.349
82.739	13.625	1615.530	1235.568
83.753	13.727	1614.128	1235.146
84.768	13.752	1613.778	1234.956
85.782	13.826	1612.732	1234.599
86.797	13.791	1612.095	1233.740
87.812	13.846	1610.995	1233.194
88.826	13.793	1609.722	1231.721
89.841	13.744	1608.588	1230.379
90.855	13.804	1607.263	1229.699
91.870	13.706	1606.912	1228.600
92.884	13.816	1605.553	1228.264
93.899	13.882	1604.794	1228.064
94.914	13.907	1602.653	1226.498
95.928	13.958	1601.864	1226.168
96.943	13.913	1600.666	1224.804
97.957	13.884	1599.266	1223.413
98.972	13.955	1597.387	1222.389
99.987	13.801	1596.281	1220.301
101.001	13.928	1594.413	1219.703
102.016	13.815	1593.080	1217.743
103.030	13.913	1591.504	1217.150
104.045	13.922	1590.207	1216.120
105.060	13.899	1588.819	1214.777
106.074	13.792	1588.028	1213.285
107.089	13.803	1586.153	1211.827
108.103	13.822	1584.105	1210.292
109.118	13.674	1583.448	1208.603
110.133	13.755	1581.932	1207.933
111.147	13.748	1580.178	1206.435
112.162	13.723	1579.064	1205.293
113.176	13.663	1578.128	1204.040
114.191	13.767	1576.570	1203.498
115.206	13.804	1575.526	1202.862
116.220	13.926	1573.610	1202.177
117.235	13.818	1572.446	1200.400
118.249	13.693	1571.601	1198.740
119.264	13.819	1569.959	1198.294
120.279	13.759	1568.929	1196.971
121.293	13.759	1567.450	1195.734
122.308	13.759	1565.837	1194.402
123.322	13.747	1564.126	1192.899
124.337	13.733	1562.533	1191.483
125.352	13.665	1561.491	1190.093
126.366	13.749	1560.917	1190.154
127.381	13.778	1559.895	1189.479
128.395	13.700	1558.411	1187.679
129.410	13.730	1556.633	1186.434
130.424	13.733	1555.268	1185.311
131.439	13.735	1554.226	1184.424
132.454	13.809	1552.264	1183.352
133.468	13.835	1551.246	1182.662
134.483	13.881	1549.877	1181.837
135.497	13.856	1548.366	1180.401
136.512	13.858	1547.229	1179.447
137.527	13.855	1545.859	1178.278
138.541	13.867	1544.445	1177.177
139.556	13.978	1543.245	1176.948
140.570	13.801	1542.080	1174.701
141.585	13.927	1540.763	1174.484
142.600	13.981	1539.299	1173.644
143.614	13.948	1538.178	1172.453
144.629	14.019	1536.721	1171.742
145.643	14.099	1535.297	1171.118
146.658	14.077	1533.923	1169.809
147.673	13.982	1532.505	1167.954
148.687	14.072	1530.867	1167.240
149.702	14.000	1529.347	1165.468
150.716	14.024	1527.633	1164.232
151.731	13.956	1526.444	1162.741
152.746	13.932	1525.577	1161.814
153.760	13.934	1524.107	1160.607
154.775	13.908	1522.954	1159.444
155.789	14.065	1521.015	1158.957
156.804	14.050	1520.023	1157.993
157.819	14.032	1518.953	1156.952
158.833	14.017	1517.680	1155.773
159.848	14.125	1516.354	1155.416
160.862	14.100	1515.407	1154.419
161.877	14.136	1514.362	1153.768
162.892	14.016	1513.553	1152.214
163.906	14.047	1511.603	1150.848
164.921	14.060	1510.373	1149.898
165.935	13.995	1509.641	1148.792
166.950	14.056	1508.434	1148.190
167.964	14.114	1507.033	1147.420
168.979	14.068	1506.212	1146.380
169.994	14.186	1504.741	1145.974
171.008	14.165	1504.050	1145.198
172.023	14.149	1502.443	1143.766
173.037	14.142	1501.497	1142.896
174.052	14.228	1500.239	1142.427
175.067	14.191	1499.371	1141.409
176.081	14.301	1497.998	1141.021
177.096	14.181	1496.728	1139.128
178.110	14.147	1495.274	1137.691
179.125	14.173	1494.372	1137.075
180.140	14.212	1493.144	1136.308
181.154	14.252	1492.354	1135.882
182.169	14.291	1491.141	1135.124
183.183	14.303	1489.430	1133.805
184.198	14.312	1488.699	1133.210
185.213	14.314	1488.141	1132.697
186.227	14.366	1486.747	1131.886
187.242	14.451	1485.785	1131.634
188.256	14.329	1485.098	1130.179
189.271	14.436	1483.849	1129.857
190.286	14.435	1482.457	1128.687
191.300	14.447	1481.665	1128.067
192.315	14.265	1480.865	1126.127
193.329	14.240	1479.418	1124.756
194.344	14.275	1478.437	1124.149
195.359	14.292	1477.550	1123.490
196.373	14.374	1476.394	1123.065
197.388	14.381	1475.492	1122.327
198.402	14.442	1474.338	1121.759
199.417	14.456	1473.185	1120.876
200.432	14.497	1471.540	1119.801
201.446	14.618	1470.658	1119.844
202.461	14.640	1469.495	1119.008
203.475	14.512	1468.658	1117.411
204.490	14.627	1467.258	1117.022
205.504	14.646	1466.355	1116.361
206.519	14.655	1464.953	1115.255
207.534	14.608	1464.234	1114.290
208.548	14.570	1463.368	1113.280
209.563	14.661	1461.953	1112.715
210.577	14.600	1461.136	1111.587
211.592	14.673	1460.163	1111.236
212.607	14.668	1459.385	1110.511
213.621	14.698	1458.872	1110.220
214.636	14.770	1457.357	1109.447
215.650	14.775	1456.500	1108.728
216.665	14.743	1455.786	1107.878
217.680	14.741	1455.360	1107.439
218.694	14.772	1454.886	1107.188
219.709	14.820	1453.745	1106.543
220.723	14.855	1452.398	1105.648
221.738	14.903	1451.401	1105.110
222.753	14.885	1450.909	1104.516
223.767	14.808	1450.057	1103.260
224.782	14.927	1448.503	1102.768
225.796	14.902	1447.934	1102.069
226.811	14.917	1447.322	1101.605
227.826	14.964	1446.406	1101.122
228.840	14.967	1445.411	1100.286
229.855	14.906	1444.404	1099.021
230.869	15.007	1443.574	1098.954
231.884	14.927	1442.570	1097.571
232.899	14.954	1441.170	1096.583
233.913	14.924	1440.208	1095.563
234.928	14.928	1438.960	1094.538
235.942	14.892	1437.882	1093.390
236.957	14.864	1436.828	1092.306
237.972	14.940	1435.612	1091.781
238.986	14.879	1434.854	1090.707
240.001	15.013	1433.246	1090.266
241.015	14.997	1432.445	1089.456
242.030	14.982	1431.558	1088.587
243.045	15.048	1430.560	1088.159
244.059	15.048	1429.538	1087.287
245.074	15.077	1428.433	1086.539
246.088	15.108	1427.865	1086.212
247.103	15.180	1427.500	1086.304
248.117	15.175	1426.240	1085.214
249.132	15.174	1425.665	1084.677
250.147	15.197	1424.807	1084.075
251.161	15.267	1424.358	1084.093
252.176	15.320	1423.442	1083.644
253.190	15.367	1422.640	1083.240
254.205	15.441	1421.744	1082.938
255.220	15.450	1421.044	1082.363
256.234	15.371	1420.314	1081.203
257.249	15.411	1419.128	1080.466
258.263	15.516	1417.924	1080.124
259.278	15.341	1417.974	1078.942
260.293	15.465	1416.482	1078.510
261.307	15.549	1415.730	1078.384
262.322	15.459	1415.055	1077.194
263.336	15.603	1414.361	1077.491
264.351	15.640	1412.982	1076.587
265.366	15.563	1412.215	1075.414
266.380	15.549	1411.537	1074.711
267.395	15.596	1410.507	1074.134
268.409	15.704	1409.591	1074.030
269.424	15.630	1408.574	1072.685
270.439	15.559	1407.738	1071.503
271.453	15.699	1406.262	1071.176
272.468	15.686	1405.546	1070.457
273.482	15.580	1405.264	1069.467
274.497	15.682	1403.933	1069.011
275.512	15.577	1403.320	1067.780
276.526	15.612	1402.365	1067.183
277.541	15.695	1401.240	1066.758
278.555	15.714	1400.528	1066.243
279.570	15.752	1399.999	1065.987
280.585	15.753	1398.547	1064.796
281.599	15.816	1397.705	1064.457
282.614	15.796	1397.169	1063.828
283.628	15.818	1396.101	1063.058
284.643	15.797	1394.763	1061.817
285.657	15.801	1393.456	1060.748
286.672	15.818	1392.734	1060.212
287.687	15.774	1392.073	1059.342
288.701	15.900	1390.758	1059.042
289.716	15.937	1390.038	1058.629
290.730	15.896	1389.326	1057.738
291.745	15.935	1388.148	1056.987
292.760	15.900	1387.149	1055.914
293.774	15.896	1385.975	1054.902
294.789	15.957	1384.958	1054.422
295.803	16.120	1384.240	1054.797
296.818	15.993	1383.271	1053.174
297.833	16.083	1382.238	1052.858
298.847	16.015	1381.277	1051.606
299.862	15.945	1380.600	1050.562
300.876	15.998	1379.962	1050.311
301.891	16.061	1378.699	1049.652
302.906	16.075	1377.949	1049.076
303.920	16.162	1377.169	1048.930
304.935	16.054	1377.009	1048.041
305.949	16.193	1375.969	1048.023
306.964	16.253	1374.788	1047.399
307.979	16.213	1373.910	1046.390
308.993	16.172	1372.804	1045.202
310.008	16.311	1371.852	1045.243
311.022	16.248	1370.739	1043.914
312.037	16.260	1369.724	1043.124
313.052	16.321	1368.864	1042.754
314.066	16.227	1367.909	1041.352
315.081	16.201	1367.391	1040.710
316.095	16.277	1366.018	1040.041
317.110	16.190	1365.112	1038.721
318.125	16.261	1363.888	1038.135
319.139	16.233	1363.200	1037.346
320.154	16.245	1362.352	1036.685
321.168	16.248	1361.159	1035.704
322.183	16.321	1359.877	1035.082
323.197	16.237	1359.344	1034.068
324.212	16.344	1358.578	1034.052
325.227	16.302	1357.792	1033.105
326.241	16.396	1356.633	1032.708
327.256	16.253	1356.352	1031.528
328.270	16.374	1355.033	1031.174
329.285	16.347	1354.415	1030.446
330.300	16.354	1353.482	1029.687
331.314	16.350	1352.585	1028.892
332.329	16.432	1351.508	1028.480
333.343	16.472	1350.514	1027.873
334.358	16.424	1349.940	1027.052
335.373	16.446	1348.786	1026.220
336.387	16.497	1348.307	1026.071
337.402	16.538	1347.421	1025.559
338.416	16.642	1346.399	1025.316
339.431	16.587	1346.132	1024.693
340.446	16.607	1345.505	1024.243
341.460	16.648	1344.352	1023.521
342.475	16.651	1343.500	1022.805
343.489	16.628	1342.450	1021.776
344.504	16.661	1341.494	1021.154
345.519	16.796	1340.803	1021.353
346.533	16.736	1340.087	1020.354
347.548	16.840	1339.068	1020.117
348.562	16.771	1338.061	1018.845
349.577	16.823	1337.241	1018.442
350.592	16.933	1336.541	1018.479
351.606	16.796	1335.879	1017.065
352.621	16.835	1334.368	1016.058
353.635	16.787	1333.402	1014.941
354.650	16.818	1332.754	1014.544
355.665	16.848	1331.466	1013.653
356.679	16.800	1330.650	1012.658
357.694	16.783	1329.737	1011.771
358.708	16.750	1328.986	1010.912
359.723	16.820	1327.942	1010.445
360.738	16.858	1326.503	1009.488
361.752	16.963	1325.426	1009.201
362.767	16.861	1324.429	1007.748
363.781	16.875	1323.581	1007.098
364.796	16.872	1323.109	1006.634
365.810	16.930	1322.194	1006.191
366.825	17.012	1321.206	1005.838
367.840	17.103	1320.491	1005.739
368.854	17.146	1319.742	1005.336
369.869	17.112	1319.354	1004.750
370.883	17.169	1318.492	1004.340
371.898	17.004	1317.861	1002.796
372.913	17.075	1317.402	1002.779
373.927	17.008	1316.469	1001.585
374.942	17.134	1315.555	1001.545
375.956	17.171	1314.606	1000.949
376.971	17.254	1313.921	1000.830
377.986	17.134	1313.389	999.630
379.000	17.275	1312.134	999.413
380.015	17.306	1311.479	999.009
381.029	17.268	1310.481	997.938
382.044	17.388	1309.795	998.031
383.059	17.311	1309.207	997.044
384.073	17.359	1308.864	996.975
385.088	17.458	1308.256	997.003
386.102	17.431	1307.074	995.860
387.117	17.517	1306.232	995.631
388.132	17.381	1305.843	994.449
389.146	17.406	1304.820	993.730
390.161	17.389	1304.039	992.950
391.175	17.401	1303.135	992.244
392.190	17.401	1302.375	991.574
393.205	17.345	1301.831	990.748
394.219	17.428	1300.662	990.254
395.234	17.516	1299.609	989.874
396.248	17.492	1298.494	988.800
397.263	17.515	1296.813	987.564
398.278	17.577	1295.554	986.881
399.292	17.531	1294.163	985.465
400.307	17.446	1293.359	984.272
401.321	17.396	1292.658	983.366
402.336	17.457	1291.666	982.874
403.350	17.519	1290.790	982.481
404.365	17.527	1289.665	981.582
405.380	17.594	1288.721	981.165
406.394	17.617	1288.033	980.687
407.409	17.506	1287.378	979.459
408.423	17.631	1286.996	979.800
409.438	17.750	1285.797	979.488
410.453	17.658	1285.518	978.657
411.467	17.759	1284.299	978.221
412.482	17.725	1283.694	977.482
413.496	17.913	1282.966	977.916
414.511	17.831	1282.525	977.026
415.526	17.791	1281.854	976.197
416.540	17.769	1281.296	975.560
417.555	17.890	1280.348	975.443
418.569	17.827	1280.188	974.877
419.584	17.909	1279.460	974.702
420.599	17.915	1278.812	974.160
421.613	87.937	1338.152	1418.627
422.628	86.295	1346.804	1418.740
