DTS Sentinel unit serial number:	SN413079Multiplexer serial number:	ORYXHardware model number:	OX4-SRSoftware version number:	ORYX F/W v4.00 Oryx Data Collector v3.7.2.0data status	okinstallation	princeton_trtdifferential loss correction	single-endedforward channel	channel 4reverse channel	N/Adate	2019/09/19time	03:33:34forward acquisition time	60.00reverse acquisition time	0.00gamma	496.2192k internal	0.2340k external	0.2340temperature offset calibration	1.0028default loss term (dB/km)	0.3790temperature slope calibration	1.0000multiplexer offset coefficient	1.0000multiplexer slope coefficient	1.0000fibre end	0.00T internal ref (°C)	20.61T ext. ref 1 (°C)	0.64T ext. ref 2 (°C)	14.43length (m)	temperature (°C)	Stokes	anti-Stokes-747.200	-34.950	0.381	0.208
-746.185	-24.325	0.358	0.214
-745.171	-41.007	0.216	-0.112
-744.156	135.478	-0.070	0.092
-743.142	-114.282	0.149	-0.029
-742.127	-56.955	-0.143	0.063
-741.112	-107.335	-0.259	-0.057
-740.098	-2.271	-0.188	-0.132
-739.083	-64.057	-0.182	-0.074
-738.069	800.000	-0.113	0.340
-737.054	-200.000	-0.021	-0.143
-736.039	-40.393	-0.125	0.065
-735.025	53.492	0.175	0.168
-734.010	-131.986	-0.587	-0.077
-732.996	-200.000	-0.049	0.224
-731.981	-125.660	-0.304	-0.046
-730.966	-94.111	-0.237	-0.065
-729.952	-200.000	-0.021	-0.095
-728.937	-139.262	-0.369	-0.040
-727.923	223.025	0.081	-0.130
-726.908	-200.000	-0.037	0.335
-725.894	800.000	0.084	-0.300
-724.879	800.000	-0.095	-0.341
-723.864	75.400	-0.126	0.133
-722.850	474.504	-0.123	-0.278
-721.835	-43.228	0.265	-0.134
-720.821	117.532	0.111	-0.136
-719.806	578.883	0.065	-0.160
-718.791	510.776	0.037	0.085
-717.777	800.000	0.058	-0.181
-716.762	348.108	-0.118	0.233
-715.748	-97.808	0.209	0.054
-714.733	-137.236	0.124	-0.014
-713.718	-32.165	0.189	-0.106
-712.704	-94.434	-0.060	0.016
-711.689	35.830	0.109	0.096
-710.675	-144.487	-0.274	0.025
-709.660	124.819	-0.100	0.126
-708.645	-55.621	0.142	0.064
-707.631	299.965	0.095	-0.175
-706.616	-200.000	0.010	0.043
-705.602	-91.740	0.159	-0.045
-704.587	-103.519	0.225	0.053
-703.572	-145.310	0.227	-0.021
-702.558	203.630	0.263	-0.407
-701.543	85.287	0.064	-0.071
-700.529	800.000	-0.061	0.238
-699.514	155.209	0.045	-0.062
-698.499	-129.321	-0.248	-0.034
-697.485	-200.000	-0.021	0.398
-696.470	271.978	-0.057	0.101
-695.456	-82.498	0.084	-0.027
-694.441	-200.000	-0.041	-0.223
-693.426	-200.000	0.046	-0.497
-692.412	-89.691	-0.182	0.053
-691.397	431.085	0.119	0.257
-690.383	-200.000	0.047	-0.207
-689.368	-200.000	-0.003	0.047
-688.354	245.482	0.013	0.022
-687.339	-81.841	0.235	-0.077
-686.324	-200.000	0.030	0.196
-685.310	125.186	-0.142	0.179
-684.295	-128.624	0.325	-0.046
-683.281	181.121	0.060	0.088
-682.266	382.821	-0.035	-0.072
-681.251	-0.701	-0.144	-0.102
-680.237	287.446	-0.031	0.055
-679.222	-24.626	-0.162	-0.096
-678.208	-9.437	0.180	0.120
-677.193	-101.900	-0.165	-0.040
-676.178	106.980	0.297	-0.353
-675.164	-60.335	-0.090	-0.038
-674.149	-54.193	0.229	-0.104
-673.135	43.636	0.125	-0.115
-672.120	-200.000	0.007	0.119
-671.105	31.537	0.153	-0.132
-670.091	53.760	-0.344	-0.330
-669.076	-200.000	0.001	0.251
-668.062	-73.854	-0.207	-0.075
-667.047	768.799	-0.116	0.315
-666.032	62.848	-0.276	0.276
-665.018	343.764	-0.026	0.051
-664.003	29.123	0.182	-0.155
-662.989	-200.000	-0.045	-0.206
-661.974	-143.363	-0.215	-0.021
-660.959	72.270	-0.226	0.235
-659.945	116.346	-0.150	0.183
-658.930	-200.000	-0.087	0.470
-657.916	149.127	0.067	0.090
-656.901	510.471	-0.093	0.216
-655.886	-200.000	0.014	-0.083
-654.872	-176.209	0.123	0.003
-653.857	-38.532	0.049	-0.026
-652.843	182.692	0.110	-0.162
-651.828	-73.530	0.123	0.045
-650.814	-61.154	0.416	-0.175
-649.799	168.711	-0.065	0.092
-648.784	-200.000	0.001	0.165
-647.770	-112.021	-0.401	-0.081
-646.755	-80.438	0.257	0.086
-645.741	-54.864	-0.079	-0.036
-644.726	-200.000	0.011	0.108
-643.711	145.083	-0.213	-0.284
-642.697	130.192	-0.046	-0.058
-641.682	-200.000	-0.024	-0.105
-640.668	-200.000	-0.031	0.167
-639.653	257.352	-0.200	-0.344
-638.638	89.320	-0.209	-0.233
-637.624	29.452	-0.102	0.086
-636.609	800.000	-0.057	0.201
-635.595	-110.779	-0.449	-0.092
-634.580	342.380	0.164	-0.320
-633.565	800.000	-0.077	-0.218
-632.551	85.935	-0.092	-0.101
-631.536	31.397	-0.010	-0.009
-630.522	-105.244	0.208	-0.047
-629.507	800.000	0.083	0.299
-628.492	-67.021	-0.144	0.057
-627.478	800.000	0.012	-0.045
-626.463	-87.162	0.133	0.040
-625.449	-200.000	-0.007	-0.176
-624.434	-200.000	0.041	-0.245
-623.419	158.430	0.277	0.383
-622.405	109.543	-0.339	0.405
-621.390	193.574	0.144	0.218
-620.376	639.370	-0.042	0.106
-619.361	800.000	0.019	-0.077
-618.346	-22.619	0.114	0.069
-617.332	387.741	0.044	-0.091
-616.317	-17.755	-0.221	-0.138
-615.303	335.053	-0.151	-0.292
-614.288	800.000	-0.082	-0.237
-613.273	224.663	-0.116	0.187
-612.259	-23.840	0.247	0.148
-611.244	-200.000	-0.019	0.160
-610.230	296.182	-0.033	0.060
-609.215	-113.374	-0.207	-0.041
-608.201	-24.894	-0.143	0.085
-607.186	-77.559	-0.319	-0.110
-606.171	-200.000	-0.013	-0.176
-605.157	-59.384	0.166	-0.071
-604.142	-200.000	-0.033	-0.196
-603.128	-0.658	-0.106	-0.075
-602.113	518.815	-0.102	0.238
-601.098	-200.000	0.002	0.254
-600.084	-3.717	-0.075	-0.052
-599.069	-105.554	-0.158	-0.036
-598.055	-38.570	-0.092	0.048
-597.040	312.424	0.115	-0.214
-596.025	93.441	-0.208	0.234
-595.011	-108.077	-0.120	-0.026
-593.996	52.178	-0.094	0.089
-592.982	-102.838	0.064	0.015
-591.967	-187.389	-0.196	0.003
-590.952	-200.000	-0.029	-0.272
-589.938	168.209	-0.038	-0.054
-588.923	-86.382	0.143	-0.044
-587.909	-173.551	0.256	0.008
-586.894	-27.207	-0.453	-0.263
-585.879	-106.523	0.468	0.104
-584.865	594.437	0.057	0.141
-583.850	43.630	-0.142	0.129
-582.836	-103.220	0.237	-0.056
-581.821	-49.587	-0.261	-0.124
-580.806	684.029	-0.223	0.579
-579.792	119.671	-0.134	-0.165
-578.777	8.260	0.225	0.168
-577.763	24.156	0.158	0.130
-576.748	-200.000	-0.081	0.357
-575.733	-200.000	-0.038	0.457
-574.719	-70.393	-0.341	-0.129
-573.704	-92.763	0.016	0.004
-572.690	32.014	0.221	0.189
-571.675	800.000	-0.081	-0.283
-570.661	234.253	-0.035	-0.057
-569.646	-21.120	0.481	-0.293
-568.631	89.289	-0.092	-0.102
-567.617	32.097	0.194	0.166
-566.602	82.432	-0.171	0.185
-565.588	120.725	-0.082	-0.102
-564.573	112.786	0.015	0.018
-563.558	75.205	0.090	0.095
-562.544	-41.824	-0.165	0.084
-561.529	800.000	0.049	-0.187
-560.515	220.035	0.090	0.144
-559.500	-22.325	-0.214	0.129
-558.485	-200.000	-0.042	-0.183
-557.471	65.717	-0.239	0.241
-556.456	-139.861	0.071	-0.007
-555.442	7.473	-0.147	-0.109
-554.427	-200.000	-0.031	-0.343
-553.412	-163.012	-0.285	0.014
-552.398	-200.000	0.002	-0.210
-551.383	-200.000	0.010	0.108
-550.369	325.495	0.118	0.225
-549.354	-142.465	0.172	0.017
-548.339	348.971	0.175	0.343
-547.325	-134.938	-0.121	-0.015
-546.310	-131.990	-0.351	0.045
-545.296	29.504	0.198	-0.168
-544.281	-0.423	-0.237	-0.168
-543.266	800.000	0.033	0.135
-542.252	-76.630	-0.171	0.060
-541.237	-87.726	0.143	0.043
-540.223	-153.791	0.149	0.010
-539.208	800.000	-0.050	0.140
-538.193	-72.206	0.200	0.074
-537.179	-170.575	-0.291	0.010
-536.164	-60.774	0.173	0.073
-535.150	-57.446	0.112	-0.049
-534.135	19.420	-0.424	-0.339
-533.121	131.933	-0.119	0.153
-532.106	-112.152	-0.259	-0.052
-531.091	800.000	0.089	0.327
-530.077	-159.417	-0.228	0.013
-529.062	343.717	0.109	-0.212
-528.048	-76.191	0.120	-0.042
-527.033	800.000	0.023	0.101
-526.018	210.350	0.045	0.070
-525.004	205.928	0.097	0.150
-523.989	439.113	-0.154	-0.334
-522.975	800.000	0.034	0.112
-521.960	-200.000	0.001	0.172
-520.945	-200.000	-0.052	-0.363
-519.931	-127.724	0.153	0.022
-518.916	-200.000	-0.047	0.227
-517.902	246.952	0.065	0.109
-516.887	167.815	-0.210	-0.297
-515.872	-36.937	-0.098	0.052
-514.858	137.954	-0.096	-0.125
-513.843	71.043	0.201	-0.207
-512.829	-11.353	0.075	-0.049
-511.814	83.152	-0.270	0.292
-510.799	-137.803	-0.077	0.009
-509.785	1.186	-0.042	-0.030
-508.770	-200.000	0.003	0.021
-507.756	98.375	0.157	-0.180
-506.741	-200.000	-0.005	-0.194
-505.726	-45.974	-0.062	0.031
-504.712	111.062	0.029	0.034
-503.697	-200.000	-0.001	-0.172
-502.683	719.721	-0.100	-0.263
-501.668	-37.462	-0.261	0.138
-500.653	94.606	-0.130	-0.147
-499.639	-116.934	0.061	-0.011
-498.624	-189.500	-0.125	0.001
-497.610	3.785	0.217	0.157
-496.595	26.555	-0.065	0.054
-495.581	126.962	-0.048	0.061
-494.566	-200.000	0.026	-0.219
-493.551	-190.060	-0.167	-0.002
-492.537	-38.505	-0.285	-0.149
-491.522	800.000	0.060	-0.181
-490.508	-84.637	-0.075	0.024
-489.493	-54.216	-0.075	0.034
-488.478	-200.000	-0.038	-0.224
-487.464	-200.000	-0.013	0.351
-486.449	732.826	-0.156	0.414
-485.435	-65.441	0.333	0.133
-484.420	-185.823	-0.067	0.001
-483.405	-200.000	-0.082	-0.427
-482.391	-47.856	0.163	-0.078
-481.376	-11.987	-0.170	-0.111
-480.362	83.350	0.229	-0.248
-479.347	700.507	-0.084	-0.219
-478.332	-200.000	0.014	0.128
-477.318	344.873	-0.047	-0.091
-476.303	-73.099	0.322	0.117
-475.289	-200.000	-0.080	-0.480
-474.274	-178.156	-0.141	-0.003
-473.259	3.884	0.276	-0.200
-472.245	-145.191	-0.230	0.021
-471.230	-200.000	-0.056	0.535
-470.216	-200.000	0.038	-0.172
-469.201	-55.941	0.234	0.103
-468.186	800.000	-0.033	-0.118
-467.172	-200.000	-0.036	-0.222
-466.157	-35.250	-0.408	0.220
-465.143	-130.274	0.257	0.035
-464.128	555.776	0.048	0.116
-463.113	-120.941	-0.146	-0.024
-462.099	-38.956	0.155	-0.081
-461.084	230.909	-0.093	0.152
-460.070	356.859	0.096	0.189
-459.055	427.442	-0.105	0.224
-458.040	800.000	-0.086	-0.277
-457.026	94.937	0.188	0.212
-456.011	-135.562	0.276	0.033
-454.997	-73.552	-0.360	-0.130
-453.982	-93.414	0.234	0.064
-452.968	371.241	-0.132	-0.265
-451.953	686.844	0.086	0.222
-450.938	300.882	0.169	-0.309
-449.924	-40.117	-0.209	0.108
-448.909	-174.243	-0.209	-0.006
-447.895	-49.738	0.244	0.115
-446.880	-64.780	0.063	0.025
-445.865	-141.474	0.158	0.016
-444.851	256.231	-0.126	-0.214
-443.836	-154.023	0.234	-0.016
-442.822	-28.338	-0.113	-0.065
-441.807	-97.626	-0.095	-0.025
-440.792	54.326	-0.135	-0.129
-439.778	-158.240	0.145	0.008
-438.763	-48.697	0.154	0.073
-437.749	-27.292	-0.226	0.130
-436.734	-153.764	0.258	-0.018
-435.719	4.092	-0.155	-0.112
-434.705	-200.000	-0.010	0.143
-433.690	-102.784	0.035	-0.008
-432.676	-35.550	-0.451	-0.243
-431.661	-142.676	0.089	-0.009
-430.646	361.313	-0.084	0.167
-429.632	706.469	0.056	0.147
-428.617	-56.378	-0.138	-0.061
-427.603	-72.048	-0.363	0.134
-426.588	-200.000	0.014	0.118
-425.573	219.098	-0.103	0.163
-424.559	-11.014	0.224	0.146
-423.544	-200.000	-0.026	0.253
-422.530	800.000	0.055	-0.187
-421.515	204.971	-0.135	-0.208
-420.500	-200.000	-0.047	-0.258
-419.486	-200.000	0.023	-0.342
-418.471	-131.227	-0.165	0.022
-417.457	-37.055	-0.283	0.150
-416.442	422.042	-0.178	-0.377
-415.428	215.696	0.198	-0.312
-414.413	-200.000	-0.024	0.263
-413.398	-200.000	-0.020	0.169
-412.384	467.307	-0.117	0.260
-411.369	800.000	0.090	-0.270
-410.355	220.216	-0.120	0.191
-409.340	800.000	0.038	-0.132
-408.325	249.113	0.053	0.089
-407.311	-200.000	-0.036	0.195
-406.296	-78.263	-0.146	0.049
-405.282	86.713	-0.113	-0.123
-404.267	-162.091	0.210	-0.010
-403.252	-149.697	-0.279	0.022
-402.238	-39.983	-0.229	-0.118
-401.223	0.782	0.065	-0.046
-400.209	-129.488	0.275	0.038
-399.194	-20.729	-0.083	0.051
-398.179	180.488	-0.135	-0.196
-397.165	20.382	0.128	-0.102
-396.150	-200.000	0.052	0.232
-395.136	-147.532	0.178	-0.015
-394.121	532.307	0.088	0.205
-393.106	121.899	-0.268	-0.331
-392.092	800.000	-0.022	-0.094
-391.077	30.362	-0.064	0.054
-390.063	-200.000	0.018	0.132
-389.048	-195.326	-0.328	-0.002
-388.033	-79.374	0.239	0.080
-387.019	-200.000	0.019	0.241
-386.004	119.254	-0.222	0.272
-384.990	327.014	0.103	0.196
-383.975	-35.245	-0.458	-0.246
-382.960	-135.355	-0.272	0.032
-381.946	47.549	0.151	-0.139
-380.931	-93.141	0.249	0.069
-379.917	202.282	0.187	0.286
-378.902	77.877	-0.054	0.056
-377.888	449.920	0.057	-0.125
-376.873	-19.531	-0.179	-0.109
-375.858	-89.902	-0.053	-0.015
-374.844	-70.522	0.098	-0.037
-373.829	-11.456	0.205	0.133
-372.815	-200.000	-0.006	0.103
-371.800	385.879	-0.032	-0.065
-370.785	39.503	-0.044	-0.039
-369.771	-18.447	-0.296	0.182
-368.756	-200.000	-0.002	0.168
-367.742	-102.231	0.116	0.027
-366.727	88.365	0.215	-0.236
-365.712	1.936	-0.120	0.085
-364.698	800.000	0.096	0.283
-363.683	800.000	0.129	0.387
-362.669	196.660	0.117	0.176
-361.654	800.000	0.034	0.098
-360.639	-12.481	-0.170	-0.109
-359.625	-200.000	0.032	-0.460
-358.610	-95.581	0.301	0.080
-357.596	-108.004	0.211	-0.045
-356.581	380.373	-0.039	-0.078
-355.566	-200.000	0.013	-0.095
-354.552	-131.196	-0.150	0.020
-353.537	238.862	-0.123	0.202
-352.523	-161.706	-0.127	-0.006
-351.508	3.530	0.030	-0.021
-350.493	-37.095	-0.145	0.077
-349.479	-200.000	0.001	0.129
-348.464	-96.730	0.545	0.142
-347.450	-200.000	-0.007	-0.154
-346.435	269.179	0.157	0.273
-345.420	-200.000	-0.044	-0.239
-344.406	-140.062	0.074	0.008
-343.391	-92.540	0.200	-0.056
-342.377	-25.889	0.291	-0.169
-341.362	-26.244	-0.111	-0.065
-340.348	708.514	-0.067	0.174
-339.333	-200.000	0.034	0.304
-338.318	-200.000	-0.016	-0.273
-337.304	-75.290	0.153	-0.054
-336.289	1.121	-0.186	0.131
-335.275	48.817	-0.100	-0.092
-334.260	-200.000	0.023	-0.311
-333.245	-107.287	0.463	0.100
-332.231	-19.963	-0.148	-0.090
-331.216	-200.000	0.017	-0.198
-330.202	-163.718	-0.292	-0.014
-329.187	9.262	-0.024	0.018
-328.172	52.161	-0.030	-0.028
-327.158	800.000	0.037	-0.138
-326.143	722.117	0.109	-0.285
-325.129	231.732	-0.064	-0.104
-324.114	-200.000	0.004	0.041
-323.099	-200.000	0.003	0.053
-322.085	-22.435	0.090	-0.054
-321.070	-31.273	0.097	-0.054
-320.056	-29.638	0.281	-0.158
-319.041	-93.511	0.099	-0.027
-318.026	-26.506	0.135	-0.078
-317.012	-10.408	0.173	-0.113
-315.997	-127.359	0.400	-0.057
-314.983	43.808	-0.207	-0.187
-313.968	-12.498	-0.104	0.067
-312.953	300.397	0.217	0.395
-311.939	41.128	-0.146	-0.130
-310.924	-200.000	0.003	0.062
-309.910	800.000	-0.017	0.052
-308.895	-200.000	0.018	-0.157
-307.880	-163.921	0.241	0.011
-306.866	-188.941	0.267	0.003
-305.851	-200.000	0.027	0.127
-304.837	536.560	-0.045	0.106
-303.822	195.472	0.294	0.440
-302.807	21.432	0.146	-0.117
-301.793	-158.299	-0.221	0.013
-300.778	-200.000	0.007	-0.165
-299.764	301.668	0.087	-0.158
-298.749	-68.242	0.353	-0.135
-297.735	320.644	-0.136	-0.254
-296.720	800.000	0.021	-0.080
-295.705	800.000	-0.019	-0.070
-294.691	11.493	-0.135	0.102
-293.676	-33.944	0.281	-0.153
-292.662	-200.000	-0.027	-0.264
-291.647	800.000	0.069	0.252
-290.632	-83.821	-0.287	0.090
-289.618	-200.000	0.048	0.277
-288.603	13.271	0.176	-0.134
-287.589	9.656	0.175	-0.131
-286.574	800.000	-0.061	0.221
-285.559	-32.440	0.204	0.112
-284.545	-59.652	0.112	0.047
-283.530	743.477	0.027	0.072
-282.516	-17.674	0.102	-0.063
-281.501	105.720	0.196	0.228
-280.486	-200.000	0.006	0.246
-279.472	800.000	-0.015	-0.059
-278.457	-115.555	-0.346	0.064
-277.443	481.909	-0.089	0.198
-276.428	-200.000	-0.034	0.192
-275.413	-200.000	0.004	-0.091
-274.399	-69.865	0.070	-0.026
-273.384	-200.000	0.014	-0.105
-272.370	-79.456	0.314	0.104
-271.355	128.815	0.167	0.209
-270.340	205.405	0.108	-0.165
-269.326	-133.537	0.321	-0.040
-268.311	-137.452	-0.358	-0.040
-267.297	-113.644	-0.378	-0.073
-266.282	405.310	-0.132	-0.274
-265.267	-132.964	-0.209	0.026
-264.253	66.341	0.236	0.235
-263.238	-200.000	0.054	0.423
-262.224	284.241	0.057	0.101
-261.209	42.444	0.245	0.219
-260.195	173.656	-0.122	-0.174
-259.180	-200.000	-0.050	-0.342
-258.165	-200.000	0.018	0.088
-257.151	-118.255	0.119	-0.021
-256.136	-200.000	0.068	-0.347
-255.122	-8.924	-0.271	-0.178
-254.107	316.880	0.271	0.504
-253.092	-200.000	0.004	0.218
-252.078	-106.499	0.273	-0.060
-251.063	287.274	-0.175	0.310
-250.049	-43.124	0.102	0.051
-249.034	265.424	-0.195	-0.334
-248.019	538.564	0.018	0.042
-247.005	-55.750	-0.205	0.090
-245.990	800.000	0.066	-0.191
-244.976	-110.971	-0.250	-0.051
-243.961	-60.647	0.285	-0.119
-242.946	95.243	0.312	-0.350
-241.932	-99.796	-0.212	0.052
-240.917	-187.731	-0.215	0.003
-239.903	-19.049	0.152	0.093
-238.888	-200.000	-0.064	0.414
-237.873	-157.183	0.349	0.021
-236.859	77.357	0.169	-0.177
-235.844	-139.327	-0.242	-0.026
-234.830	-141.168	0.344	0.034
-233.815	-200.000	-0.038	-0.275
-232.800	-136.593	0.143	0.016
-231.786	67.070	0.124	0.124
-230.771	-76.121	0.388	0.135
-229.757	-55.913	0.294	-0.129
-228.742	-6.353	-0.257	0.173
-227.727	-35.761	0.257	-0.137
-226.713	-200.000	-0.016	-0.188
-225.698	-50.559	-0.106	0.049
-224.684	-6.412	0.123	-0.082
-223.669	-39.502	0.337	0.174
-222.655	-6.472	-0.107	-0.072
-221.640	-200.000	-0.015	0.218
-220.625	75.238	-0.084	0.087
-219.611	-50.587	0.141	0.065
-218.596	1.702	0.194	-0.137
-217.582	-188.983	0.144	-0.002
-216.567	-96.940	-0.153	-0.039
-215.552	9.057	0.044	-0.033
-214.538	-76.790	-0.121	-0.042
-213.523	-121.335	0.291	0.048
-212.509	-134.650	-0.096	-0.011
-211.494	-54.117	0.216	-0.097
-210.479	-200.000	-0.009	-0.048
-209.465	-200.000	0.187	0.000
-208.450	-77.567	-0.133	-0.045
-207.436	4.056	0.453	0.325
-206.421	66.828	-0.026	-0.026
-205.406	-200.000	0.005	0.293
-204.392	311.466	-0.071	-0.131
-203.377	-65.292	-0.083	0.033
-202.363	263.390	-0.043	-0.073
-201.348	-200.000	-0.057	-0.307
-200.333	195.418	0.051	-0.076
-199.319	-142.728	-0.266	-0.025
-198.304	107.185	0.071	-0.083
-197.290	-40.672	-0.132	0.067
-196.275	435.190	0.106	0.226
-195.260	52.712	-0.205	-0.192
-194.246	319.063	-0.169	-0.314
-193.231	90.304	0.186	0.204
-192.217	-130.228	-0.162	0.022
-191.202	-200.000	-0.001	-0.298
-190.187	800.000	-0.083	-0.340
-189.173	-123.797	-0.476	0.074
-188.158	152.005	0.109	-0.146
-187.144	-118.606	0.133	-0.023
-186.129	7.366	-0.108	-0.079
-185.114	800.000	-0.102	0.304
-184.100	-87.440	-0.164	0.049
-183.085	67.768	0.193	0.193
-182.071	49.506	-0.042	0.039
-181.056	-90.850	-0.141	-0.040
-180.042	153.212	-0.079	0.106
-179.027	-166.124	0.162	0.007
-178.012	269.311	-0.106	-0.183
-176.998	361.082	0.093	0.184
-175.983	-200.000	0.011	-0.121
-174.969	-41.685	0.183	0.092
-173.954	-137.543	-0.090	-0.010
-172.939	32.595	-0.180	0.152
-171.925	-31.823	0.181	0.099
-170.910	287.832	-0.040	-0.070
-169.896	800.000	0.065	-0.198
-168.881	-68.778	-0.098	0.037
-167.866	298.938	0.173	-0.312
-166.852	-200.000	-0.022	0.211
-165.837	-200.000	0.023	0.238
-164.823	-116.977	-0.201	-0.036
-163.808	-44.183	0.274	-0.135
-162.793	-111.888	0.522	0.103
-161.779	-200.000	0.013	0.181
-160.764	95.136	-0.112	0.125
-159.750	58.411	0.217	0.209
-158.735	800.000	0.011	0.030
-157.720	-22.622	0.193	0.114
-156.706	640.543	0.154	-0.384
-155.691	259.794	0.142	-0.241
-154.677	-200.000	-0.032	-0.175
-153.662	-30.261	-0.060	0.034
-152.647	-103.909	-0.072	-0.017
-151.633	-200.000	0.000	0.128
-150.618	-114.973	-0.415	-0.077
-149.604	-56.657	0.206	-0.089
-148.589	-2.213	0.236	-0.162
-147.574	42.854	-0.339	-0.303
-146.560	55.262	-0.204	-0.193
-145.545	131.587	0.155	0.195
-144.531	800.000	0.102	-0.278
-143.516	477.901	-0.119	-0.264
-142.502	-111.291	-0.261	-0.052
-141.487	800.000	0.134	-0.401
-140.472	46.687	0.104	-0.095
-139.458	31.648	0.184	0.155
-138.443	800.000	-0.089	0.293
-137.429	800.000	0.023	-0.084
-136.414	749.013	-0.139	-0.366
-135.399	52.163	-0.142	-0.132
-134.385	-69.076	0.231	0.087
-133.370	36.800	-0.066	-0.057
-132.356	-145.354	0.273	-0.024
-131.341	64.940	-0.115	-0.114
-130.326	82.564	-0.080	0.085
-129.312	-200.000	0.018	0.133
-128.297	-80.648	-0.193	-0.063
-127.283	90.916	-0.223	-0.244
-126.268	-75.598	-0.284	-0.099
-125.253	598.552	-0.098	0.239
-124.239	285.075	0.033	-0.059
-123.224	-38.062	0.218	0.113
-122.210	-200.000	-0.017	0.195
-121.195	-67.061	0.362	-0.140
-120.180	-30.444	0.237	-0.132
-119.166	651.257	-0.019	-0.047
-118.151	-200.000	0.001	0.195
-117.137	-49.251	0.116	0.054
-116.122	-55.202	-0.317	0.139
-115.107	-200.000	-0.037	-0.284
-114.093	-146.599	0.029	-0.002
-113.078	-35.993	-0.387	-0.205
-112.064	2.203	-0.216	-0.153
-111.049	-200.000	0.052	0.268
-110.034	118.024	0.059	0.071
-109.020	-59.090	0.216	0.091
-108.005	-25.594	-0.253	-0.146
-106.991	-67.457	-0.283	0.109
-105.976	800.000	0.128	0.362
-104.962	133.738	0.102	0.129
-103.947	786.930	-0.097	-0.261
-102.932	40.260	0.193	0.170
-101.918	-71.857	0.031	-0.011
-100.903	93.353	0.167	-0.185
-99.889	800.000	-0.088	-0.259
-98.874	800.000	0.095	0.313
-97.859	-152.021	0.128	0.009
-96.845	-200.000	-0.029	-0.285
-95.830	282.261	-0.190	0.332
-94.816	-200.000	0.046	0.299
-93.801	-97.436	-0.074	0.019
-92.786	-127.995	0.186	0.026
-91.772	128.377	-0.140	-0.174
-90.757	800.000	-0.038	-0.125
-89.743	800.000	-0.024	0.086
-88.728	80.447	0.171	0.180
-87.713	-164.985	-0.447	-0.019
-86.699	759.143	-0.182	-0.482
-85.684	-33.543	-0.268	0.145
-84.670	-130.856	-0.238	-0.031
-83.655	800.000	-0.026	0.093
-82.640	543.737	-0.079	0.183
-81.626	-23.045	-0.143	-0.084
-80.611	568.810	0.023	-0.055
-79.597	-45.731	-0.149	-0.072
-78.582	91.598	-0.247	0.272
-77.567	-117.163	0.382	0.068
-76.553	88.406	-0.072	0.078
-75.538	642.720	0.196	0.489
-74.524	800.000	0.029	-0.119
-73.509	-200.000	0.023	0.211
-72.494	190.516	-0.167	-0.244
-71.480	-187.042	0.182	0.002
-70.465	16.347	-0.256	0.198
-69.451	-10.032	0.109	-0.071
-68.436	-84.284	0.093	0.029
-67.422	2.620	-0.085	-0.060
-66.407	-112.065	0.397	0.078
-65.392	323.672	0.021	-0.039
-64.378	3.909	-0.234	0.167
-63.363	-54.344	0.291	-0.129
-62.349	800.000	-0.079	0.267
-61.334	123.644	-1.178	-1.443
-60.319	82.111	0.748	0.791
-59.305	486.890	-0.612	-1.363
-58.290	217.801	0.885	1.377
-57.276	330.570	0.792	1.488
-56.261	-200.000	136.420	667.008
-55.246	334.299	1676.272	3166.329
-54.232	132.419	2813.457	3538.672
-53.217	78.087	2351.269	2447.314
-52.203	26.796	2090.914	1709.176
-51.188	22.239	2008.733	1600.555
-50.173	21.282	1994.215	1580.278
-49.159	39.529	2070.913	1810.584
-48.144	37.029	2081.101	1796.295
-47.130	22.704	2034.073	1624.773
-46.115	20.650	2022.848	1596.912
-45.100	20.614	2019.626	1593.969
-44.086	20.553	2017.597	1591.752
-43.071	20.439	2015.410	1588.920
-42.057	20.494	2012.928	1587.398
-41.042	20.505	2010.798	1585.763
-40.027	20.569	2009.129	1584.963
-39.013	20.524	2007.719	1583.382
-37.998	20.564	2005.532	1581.950
-36.984	20.494	2003.582	1579.713
-35.969	20.565	2001.294	1578.494
-34.954	20.521	2000.120	1577.103
-33.940	20.631	1998.896	1577.079
-32.925	20.580	1997.739	1575.635
-31.911	20.613	1995.587	1574.182
-30.896	20.604	1994.329	1573.043
-29.881	20.701	1992.440	1572.364
-28.867	20.679	1990.754	1570.776
-27.852	20.744	1988.290	1569.355
-26.838	20.695	1987.241	1568.020
-25.823	20.609	1985.823	1566.070
-24.809	20.593	1984.045	1564.457
-23.794	20.665	1981.942	1563.387
-22.779	20.665	1980.703	1562.345
-21.765	20.624	1978.933	1560.518
-20.750	20.563	1977.914	1559.109
-19.736	20.630	1975.768	1557.952
-18.721	20.663	1973.853	1556.675
-17.706	20.591	1972.653	1555.028
-16.692	20.620	1970.664	1553.657
-15.677	20.585	1969.186	1552.111
-14.663	20.658	1967.915	1551.700
-13.648	20.682	1966.294	1550.577
-12.633	20.620	1965.692	1549.493
-11.619	20.591	1964.576	1548.287
-10.604	20.602	1962.947	1547.039
-9.590	20.564	1962.009	1545.902
-8.575	20.699	1959.839	1545.334
-7.560	20.620	1958.766	1543.724
-6.546	20.612	1957.662	1542.718
-5.531	20.576	1956.599	1541.504
-4.517	20.672	1954.684	1540.778
-3.502	20.683	1953.325	1539.743
-2.487	20.648	1952.543	1538.761
-1.473	20.706	1951.683	1538.534
-0.458	20.626	1946.307	1533.533
0.556	19.340	1925.650	1504.106
1.571	15.020	1906.964	1451.977
2.586	11.073	1931.499	1435.778
3.600	10.158	1966.478	1453.433
4.615	10.371	1959.128	1449.775
5.629	8.460	1858.847	1359.213
6.644	3.597	1748.597	1239.503
7.659	0.823	1718.140	1195.896
8.673	0.703	1715.673	1193.121
9.688	0.610	1714.702	1191.611
10.702	0.621	1713.043	1190.439
11.717	0.616	1708.719	1187.287
12.731	0.900	1706.468	1187.851
13.746	4.837	1714.447	1224.297
14.761	11.546	1728.428	1287.192
15.775	16.217	1737.009	1330.374
16.790	17.192	1738.486	1339.077
17.804	16.339	1734.987	1329.549
18.819	15.333	1731.478	1318.840
19.834	14.741	1729.410	1312.495
20.848	14.475	1727.804	1309.076
21.863	14.399	1725.772	1306.826
22.877	14.001	1724.769	1302.830
23.892	13.773	1723.202	1299.741
24.907	13.740	1721.836	1298.341
25.921	13.644	1721.265	1297.042
26.936	13.718	1719.366	1296.078
27.950	13.766	1718.787	1295.895
28.965	13.766	1718.361	1295.459
29.980	13.801	1717.712	1295.131
30.994	13.820	1716.654	1294.369
32.009	13.790	1715.584	1293.209
33.023	13.916	1714.625	1293.353
34.038	13.931	1713.840	1292.764
35.053	13.875	1713.090	1291.654
36.067	13.935	1711.248	1290.612
37.082	13.910	1710.414	1289.673
38.096	13.848	1709.666	1288.521
39.111	13.958	1708.612	1288.463
40.126	13.942	1708.088	1287.828
41.140	13.836	1707.263	1286.271
42.155	13.794	1705.443	1284.459
43.169	13.783	1703.674	1282.928
44.184	13.659	1703.074	1281.403
45.199	13.663	1702.086	1280.580
46.213	13.675	1701.059	1279.787
47.228	13.658	1699.930	1278.690
48.242	13.699	1698.523	1277.838
49.257	13.805	1696.474	1277.002
50.271	13.769	1696.002	1276.253
51.286	13.670	1694.881	1274.537
52.301	13.835	1692.959	1274.245
53.315	13.907	1691.078	1273.271
54.330	13.787	1690.311	1271.661
55.344	13.739	1688.497	1269.813
56.359	13.743	1686.794	1268.456
57.374	13.738	1685.722	1267.494
58.388	13.791	1684.487	1266.861
59.403	13.644	1683.386	1264.795
60.417	13.760	1681.500	1264.154
61.432	13.731	1680.310	1262.922
62.447	13.651	1679.658	1261.714
63.461	13.691	1678.424	1260.979
64.476	13.626	1677.777	1259.887
65.490	13.600	1676.460	1258.591
66.505	13.684	1674.791	1257.864
67.520	13.580	1673.983	1256.360
68.534	13.680	1673.057	1256.305
69.549	13.637	1671.755	1254.890
70.563	13.743	1670.142	1254.374
71.578	13.733	1669.343	1253.586
72.593	13.678	1667.832	1251.927
73.607	13.634	1667.487	1251.221
74.622	13.613	1666.213	1249.996
75.636	13.560	1664.608	1248.284
76.651	13.584	1664.086	1247.963
77.666	13.589	1663.023	1247.093
78.680	13.501	1662.639	1246.031
79.695	13.674	1660.697	1245.770
80.709	13.709	1659.496	1245.017
81.724	13.675	1658.987	1244.273
82.739	13.708	1658.017	1243.679
83.753	13.765	1656.366	1242.761
84.768	13.737	1656.070	1242.221
85.782	13.800	1655.295	1242.000
86.797	13.827	1654.311	1241.350
87.812	13.791	1653.241	1240.170
88.826	13.749	1651.987	1238.804
89.841	13.709	1651.024	1237.674
90.855	13.680	1649.838	1236.460
91.870	13.784	1648.505	1236.128
92.884	13.805	1647.546	1235.457
93.899	13.830	1646.239	1234.555
94.914	13.863	1644.955	1233.727
95.928	13.906	1643.967	1233.192
96.943	13.829	1642.449	1231.380
97.957	13.834	1640.943	1230.179
98.972	13.822	1639.852	1229.162
99.987	13.802	1638.146	1227.628
101.001	13.797	1636.785	1226.459
102.016	13.824	1634.696	1224.982
103.030	13.802	1633.282	1223.655
104.045	13.924	1631.682	1223.247
105.060	13.840	1631.056	1222.053
106.074	13.753	1629.770	1220.340
107.089	13.811	1627.423	1218.901
108.103	13.725	1625.908	1217.027
109.118	13.758	1624.959	1216.448
110.133	13.712	1623.190	1214.678
111.147	13.648	1622.152	1213.328
112.162	13.718	1620.513	1212.503
113.176	13.716	1619.107	1211.335
114.191	13.752	1617.821	1210.526
115.206	13.739	1616.727	1209.504
116.220	13.680	1615.585	1208.116
117.235	13.782	1613.868	1207.467
118.249	13.717	1612.570	1205.914
119.264	13.749	1610.859	1204.761
120.279	13.752	1609.262	1203.481
121.293	13.695	1608.271	1202.224
122.308	13.690	1606.403	1200.682
123.322	13.737	1604.783	1199.706
124.337	13.727	1603.076	1198.251
125.352	13.707	1602.356	1197.465
126.366	13.698	1601.315	1196.515
127.381	13.618	1599.994	1194.846
128.395	13.635	1598.606	1193.827
129.410	13.683	1597.375	1193.144
130.424	13.736	1595.607	1192.100
131.439	13.675	1594.415	1190.665
132.454	13.777	1592.758	1190.057
133.468	13.793	1590.892	1188.666
134.483	13.741	1590.237	1187.704
135.497	13.736	1588.743	1186.449
136.512	13.707	1587.635	1185.304
137.527	13.728	1585.873	1184.038
138.541	13.769	1584.859	1183.465
139.556	13.829	1583.136	1182.502
140.570	13.815	1581.880	1181.359
141.585	13.892	1580.131	1180.499
142.600	13.903	1579.684	1180.135
143.614	13.898	1577.875	1178.646
144.629	13.896	1576.736	1177.678
145.643	14.018	1575.552	1177.552
146.658	13.964	1574.474	1176.263
147.673	14.025	1572.198	1174.890
148.687	13.964	1571.117	1173.546
149.702	13.980	1569.484	1172.333
150.716	13.950	1568.420	1171.223
151.731	13.974	1566.590	1169.921
152.746	13.964	1565.390	1168.851
153.760	14.011	1563.685	1167.803
154.775	13.947	1562.572	1166.425
155.789	14.068	1560.828	1165.863
156.804	14.080	1559.744	1165.040
157.819	14.002	1559.005	1163.832
158.833	14.085	1557.552	1163.228
159.848	14.144	1556.090	1162.447
160.862	14.155	1554.777	1161.438
161.877	14.204	1553.482	1160.709
162.892	14.079	1552.877	1159.283
163.906	14.176	1551.209	1158.615
164.921	14.115	1549.910	1157.114
165.935	14.056	1549.078	1155.984
166.950	14.059	1548.027	1155.113
167.964	14.043	1547.025	1154.156
168.979	14.105	1546.337	1153.973
169.994	14.231	1544.705	1153.523
171.008	14.057	1543.780	1151.524
172.023	14.157	1542.244	1150.967
173.037	14.089	1541.881	1150.125
174.052	14.267	1540.042	1149.883
175.067	14.215	1539.074	1148.699
176.081	14.224	1537.668	1147.613
177.096	14.159	1536.511	1146.195
178.110	14.168	1534.762	1144.855
179.125	14.064	1534.352	1143.727
180.140	14.204	1532.688	1143.354
181.154	14.241	1531.682	1142.756
182.169	14.283	1530.381	1141.973
183.183	14.212	1529.822	1140.968
184.198	14.276	1528.130	1140.041
185.213	14.356	1526.739	1139.448
186.227	14.349	1526.164	1138.873
187.242	14.353	1525.010	1137.937
188.256	14.403	1523.987	1137.415
189.271	14.472	1522.683	1136.810
190.286	14.454	1521.751	1135.889
191.300	14.452	1520.411	1134.779
192.315	14.271	1519.587	1132.829
193.329	14.264	1518.003	1131.499
194.344	14.235	1517.048	1130.491
195.359	14.232	1515.836	1129.470
196.373	14.331	1514.546	1129.080
197.388	14.396	1513.800	1128.863
198.402	14.453	1512.461	1128.151
199.417	14.501	1511.305	1127.514
200.432	14.443	1510.360	1126.318
201.446	14.506	1509.596	1126.072
202.461	14.509	1508.463	1125.150
203.475	14.642	1506.967	1124.829
204.490	14.563	1506.310	1123.706
205.504	14.635	1504.765	1122.941
206.519	14.506	1503.851	1121.288
207.534	14.641	1502.087	1120.784
208.548	14.618	1500.967	1119.693
209.563	14.593	1499.704	1118.482
210.577	14.670	1498.683	1118.141
211.592	14.645	1498.193	1117.509
212.607	14.617	1497.627	1116.802
213.621	14.653	1497.184	1116.613
214.636	14.722	1495.777	1115.928
215.650	14.714	1494.120	1114.536
216.665	14.764	1493.487	1114.300
217.680	14.768	1493.149	1113.976
218.694	14.841	1492.105	1113.585
219.709	14.822	1491.482	1112.895
220.723	14.827	1490.362	1111.992
221.738	14.866	1489.398	1111.434
222.753	14.828	1488.314	1110.274
223.767	14.820	1487.672	1109.646
224.782	14.818	1486.242	1108.466
225.796	14.909	1485.667	1108.545
226.811	14.946	1484.594	1107.891
227.826	14.934	1484.004	1107.274
228.840	14.923	1482.984	1106.340
229.855	14.848	1482.209	1105.164
230.869	14.955	1480.822	1104.741
231.884	14.885	1480.397	1103.866
232.899	14.836	1479.208	1102.558
233.913	14.931	1477.927	1102.130
234.928	14.949	1476.611	1101.170
235.942	14.970	1475.013	1100.020
236.957	14.944	1474.120	1099.087
237.972	14.984	1472.534	1098.069
238.986	14.917	1471.958	1097.105
240.001	14.868	1470.823	1095.836
241.015	15.015	1469.665	1095.838
242.030	14.915	1468.498	1094.219
243.045	14.945	1467.452	1093.537
244.059	14.989	1466.424	1092.963
245.074	15.054	1465.880	1092.888
246.088	15.116	1465.032	1092.562
247.103	15.112	1464.158	1091.785
248.117	15.064	1463.556	1090.932
249.132	15.056	1462.655	1090.111
250.147	15.257	1461.271	1090.291
251.161	15.287	1460.655	1089.925
252.176	15.292	1460.359	1089.641
253.190	15.316	1459.259	1088.884
254.205	15.410	1458.309	1088.686
255.220	15.307	1457.849	1087.577
256.234	15.399	1457.009	1087.453
257.249	15.404	1456.576	1087.065
258.263	15.455	1455.129	1086.215
259.278	15.441	1454.254	1085.376
260.293	15.460	1453.154	1084.586
261.307	15.451	1452.465	1083.916
262.322	15.572	1451.831	1084.130
263.336	15.592	1450.770	1083.366
264.351	15.576	1450.200	1082.746
265.366	15.582	1449.221	1081.957
266.380	15.649	1448.017	1081.392
267.395	15.614	1446.695	1080.082
268.409	15.587	1446.124	1079.393
269.424	15.622	1445.008	1078.687
270.439	15.612	1444.041	1077.806
271.453	15.632	1443.155	1077.173
272.468	15.675	1441.873	1076.396
273.482	15.650	1441.316	1075.725
274.497	15.631	1440.463	1074.873
275.512	15.670	1439.554	1074.349
276.526	15.697	1438.514	1073.653
277.541	15.698	1437.566	1072.855
278.555	15.695	1436.729	1072.119
279.570	15.673	1435.904	1071.265
280.585	15.670	1435.120	1070.570
281.599	15.771	1434.173	1070.406
282.614	15.760	1433.097	1069.438
283.628	15.755	1432.247	1068.682
284.643	15.787	1431.394	1068.151
285.657	15.712	1430.018	1066.553
286.672	15.815	1428.828	1066.228
287.687	15.814	1428.244	1065.689
288.701	15.899	1426.830	1065.078
289.716	15.905	1426.064	1064.452
290.730	15.896	1425.349	1063.765
291.745	15.890	1424.162	1062.748
292.760	15.917	1423.092	1062.026
293.774	15.957	1421.911	1061.303
294.789	15.971	1421.107	1060.697
295.803	16.028	1420.148	1060.245
296.818	16.011	1419.697	1059.708
297.833	16.010	1418.399	1058.640
298.847	15.949	1417.432	1057.439
299.862	16.006	1416.212	1056.791
300.876	16.015	1415.669	1056.354
301.891	16.003	1414.135	1055.041
302.906	16.059	1413.530	1054.841
303.920	16.071	1413.242	1054.610
304.935	16.041	1412.220	1053.566
305.949	16.123	1410.975	1053.059
306.964	16.195	1410.234	1052.859
307.979	16.156	1409.462	1051.947
308.993	16.286	1408.594	1052.015
310.008	16.087	1408.086	1050.306
311.022	16.215	1406.806	1050.055
312.037	16.290	1405.523	1049.469
313.052	16.317	1404.523	1048.795
314.066	16.366	1403.443	1048.200
315.081	16.365	1402.301	1047.248
316.095	16.295	1401.285	1045.967
317.110	16.125	1400.450	1044.196
318.125	16.228	1399.097	1043.733
319.139	16.308	1398.359	1043.586
320.154	16.217	1397.591	1042.355
321.168	16.187	1396.466	1041.240
322.183	16.234	1395.162	1040.469
323.197	16.207	1394.931	1040.033
324.212	16.328	1393.815	1039.858
325.227	16.265	1393.529	1039.164
326.241	16.384	1391.837	1038.542
327.256	16.295	1390.754	1037.097
328.270	16.331	1390.371	1036.938
329.285	16.329	1389.638	1036.289
330.300	16.378	1388.430	1035.595
331.314	16.382	1387.326	1034.706
332.329	16.391	1386.803	1034.275
333.343	16.424	1385.648	1033.525
334.358	16.417	1384.978	1032.891
335.373	16.519	1384.174	1032.827
336.387	16.472	1383.526	1031.963
337.402	16.528	1382.279	1031.286
338.416	16.483	1381.764	1030.534
339.431	16.612	1380.880	1030.566
340.446	16.607	1380.505	1030.168
341.460	16.481	1379.780	1028.769
342.475	16.633	1378.309	1028.505
343.489	16.573	1377.477	1027.428
344.504	16.640	1376.852	1027.280
345.519	16.710	1375.544	1026.637
346.533	16.773	1374.613	1026.232
347.548	16.804	1374.008	1025.877
348.562	16.825	1373.242	1025.342
349.577	16.868	1372.078	1024.642
350.592	16.930	1371.249	1024.305
351.606	16.806	1370.362	1022.803
352.621	16.778	1368.936	1021.479
353.635	16.747	1368.735	1021.056
354.650	16.771	1367.588	1020.253
355.665	16.763	1366.249	1019.112
356.679	16.743	1365.553	1018.384
357.694	16.858	1363.869	1017.730
358.708	16.930	1362.953	1017.390
359.723	16.931	1362.236	1016.767
360.738	16.740	1361.822	1015.227
361.752	16.809	1360.081	1014.250
362.767	16.907	1358.819	1013.804
363.781	16.900	1358.138	1013.163
364.796	16.939	1357.598	1012.906
365.810	16.934	1356.874	1012.246
366.825	17.035	1356.053	1012.150
367.840	16.948	1355.273	1010.954
368.854	17.036	1354.511	1010.821
369.869	17.172	1353.468	1010.765
370.883	17.185	1352.739	1010.207
371.898	17.057	1352.991	1009.547
372.913	17.097	1351.776	1008.787
373.927	17.120	1350.834	1008.133
374.942	17.095	1349.792	1007.114
375.956	17.141	1349.226	1006.877
376.971	17.160	1348.449	1006.323
377.986	17.116	1347.504	1005.265
379.000	17.114	1347.021	1004.808
380.015	17.156	1345.876	1004.110
381.029	17.347	1344.961	1004.465
382.044	17.346	1344.097	1003.730
383.059	17.337	1343.602	1003.218
384.073	17.395	1342.567	1002.695
385.088	17.349	1342.496	1002.286
386.102	17.327	1341.639	1001.427
387.117	17.453	1340.676	1001.359
388.132	17.519	1339.630	1000.875
389.146	17.342	1338.914	999.213
390.161	17.363	1338.570	998.994
391.175	17.442	1337.659	998.685
392.190	17.413	1336.876	997.842
393.205	17.460	1335.666	997.127
394.219	17.496	1334.841	996.636
395.234	17.497	1333.872	995.827
396.248	17.517	1332.189	994.599
397.263	17.454	1331.312	993.494
398.278	17.547	1329.483	992.579
399.292	17.547	1328.342	991.643
400.307	17.390	1328.013	990.394
401.321	17.461	1326.607	989.668
402.336	17.511	1325.514	989.057
403.350	17.548	1324.420	988.369
404.365	17.534	1323.768	987.714
405.380	17.534	1322.738	986.855
406.394	17.626	1321.800	986.604
407.409	17.517	1321.726	985.830
408.423	17.573	1320.645	985.259
409.438	17.693	1320.125	985.476
410.453	17.599	1319.139	984.112
411.467	17.810	1317.960	984.364
412.482	17.821	1317.807	984.226
413.496	17.810	1317.005	983.473
414.511	17.756	1315.989	982.320
415.526	17.909	1315.322	982.615
416.540	17.719	1314.714	980.979
417.555	17.915	1314.005	981.493
418.569	17.884	1313.371	980.753
419.584	17.874	1313.108	980.414
420.599	17.878	1312.199	979.671
421.613	101.946	1364.768	1493.013
422.628	100.418	1372.349	1493.070
