DTS Sentinel unit serial number:	SN413079Multiplexer serial number:	ORYXHardware model number:	OX4-SRSoftware version number:	ORYX F/W v4.00 Oryx Data Collector v3.7.2.0data status	okinstallation	princeton_trtdifferential loss correction	single-endedforward channel	channel 4reverse channel	N/Adate	2019/09/12time	18:57:19forward acquisition time	15.00reverse acquisition time	0.00gamma	496.2192k internal	0.2307k external	0.2307temperature offset calibration	1.0138default loss term (dB/km)	0.3790temperature slope calibration	1.0000multiplexer offset coefficient	1.0000multiplexer slope coefficient	1.0000fibre end	0.00T internal ref (°C)	32.81T ext. ref 1 (°C)	3.03T ext. ref 2 (°C)	27.37length (m)	temperature (°C)	Stokes	anti-Stokes-747.200	38.733	-0.458	-0.415
-746.185	-101.484	-0.782	-0.194
-745.171	317.279	0.091	-0.174
-744.156	284.965	0.229	0.420
-743.142	160.954	0.216	-0.307
-742.127	-96.786	-0.369	0.099
-741.112	-200.000	0.076	-0.414
-740.098	-151.313	-0.433	0.033
-739.083	-5.571	0.323	0.225
-738.069	-58.513	0.554	0.244
-737.054	-105.336	-0.741	-0.171
-736.039	-200.000	-0.024	0.461
-735.025	114.324	-0.515	0.637
-734.010	-108.397	-0.643	-0.141
-732.996	106.596	0.562	-0.677
-731.981	-18.038	0.324	0.206
-730.966	-200.000	-0.062	0.700
-729.952	-113.873	-0.067	-0.013
-728.937	-200.000	-0.099	0.443
-727.923	-200.000	0.007	-0.177
-726.908	7.970	0.305	0.232
-725.894	800.000	0.138	-0.393
-724.879	-200.000	-0.211	-1.010
-723.864	144.897	0.238	0.323
-722.850	-76.449	-0.187	0.067
-721.835	271.904	-0.146	0.262
-720.821	546.284	-0.256	-0.622
-719.806	-63.412	-0.233	0.097
-718.791	-40.324	-0.776	0.410
-717.777	1.503	-0.514	0.376
-716.762	-1.251	-0.667	0.479
-715.748	44.198	-0.179	-0.166
-714.733	-200.000	-0.082	-0.536
-713.718	-12.154	-0.289	-0.192
-712.704	500.076	-0.151	-0.353
-711.689	-170.283	0.357	0.013
-710.675	-200.000	0.175	0.872
-709.660	98.801	-0.637	-0.747
-708.645	-200.000	0.061	-0.835
-707.631	309.212	0.250	-0.475
-706.616	-93.611	0.653	-0.183
-705.602	143.273	-0.405	-0.548
-704.587	791.276	0.132	-0.367
-703.572	-200.000	-0.013	-0.283
-702.558	5.940	0.733	-0.551
-701.543	47.447	-0.084	-0.080
-700.529	131.718	-0.429	0.561
-699.514	295.129	0.343	0.638
-698.499	14.535	0.176	0.139
-697.485	-65.183	-0.227	0.093
-696.470	-67.856	-0.378	-0.150
-695.456	172.617	0.298	-0.435
-694.441	-200.000	0.040	-0.197
-693.426	95.598	0.151	-0.175
-692.412	-200.000	0.110	-0.621
-691.397	-153.218	-1.167	-0.083
-690.383	-102.911	0.258	-0.062
-689.368	262.362	0.118	-0.208
-688.354	-113.686	0.508	-0.101
-687.339	6.159	-0.339	0.255
-686.324	-113.297	-0.840	-0.167
-685.310	-200.000	0.010	0.289
-684.295	8.820	-0.495	0.378
-683.281	-200.000	-0.007	-0.949
-682.266	-127.755	1.013	-0.148
-681.251	16.257	0.559	-0.447
-680.237	431.759	-0.071	-0.156
-679.222	-200.000	0.219	-1.186
-678.208	84.356	0.348	-0.385
-677.193	88.644	0.408	0.460
-676.178	111.877	0.282	0.346
-675.164	779.156	-0.202	0.559
-674.149	55.468	-0.286	0.281
-673.135	800.000	0.213	-0.739
-672.120	-151.851	0.297	0.022
-671.105	-99.888	0.418	-0.106
-670.091	-87.996	0.392	-0.119
-669.076	91.939	0.438	-0.500
-668.062	800.000	-0.352	-1.083
-667.047	-200.000	0.128	0.616
-666.032	32.780	-0.526	-0.462
-665.018	108.689	-0.192	-0.233
-664.003	39.379	0.352	-0.320
-662.989	-61.510	-0.538	0.229
-661.974	356.081	-0.231	-0.466
-660.959	90.647	-0.306	-0.347
-659.945	-169.810	0.364	-0.013
-658.930	-63.066	0.116	0.049
-657.916	-110.898	-0.593	-0.124
-656.901	-200.000	0.007	0.059
-655.886	158.178	0.201	-0.282
-654.872	800.000	0.036	-0.119
-653.857	-73.050	-0.610	0.227
-652.843	-200.000	0.027	-0.119
-651.828	-200.000	0.026	0.597
-650.814	30.659	-0.309	-0.268
-649.799	49.009	-0.403	0.383
-648.784	541.688	-0.144	-0.347
-647.770	191.230	0.327	0.498
-646.755	144.266	0.116	0.156
-645.741	800.000	0.019	-0.069
-644.726	-17.293	-0.264	0.169
-643.711	-24.911	-0.735	0.442
-642.697	102.653	-0.144	-0.170
-641.682	584.487	0.350	0.872
-640.668	95.198	0.099	0.114
-639.653	-200.000	-0.032	-0.245
-638.638	100.006	0.234	0.275
-637.624	71.441	0.089	0.094
-636.609	-94.562	0.115	0.032
-635.595	84.703	0.537	0.595
-634.580	-200.000	-0.021	-0.160
-633.565	348.954	-0.248	0.496
-632.551	-23.772	0.594	-0.361
-631.536	-98.891	-0.461	0.119
-630.522	43.269	0.682	0.630
-629.507	83.500	-0.859	-0.948
-628.492	565.461	0.201	-0.493
-627.478	-197.686	0.451	0.003
-626.463	-200.000	0.056	0.660
-625.449	158.120	0.123	0.172
-624.434	-36.216	-0.270	0.147
-623.419	-77.658	-0.354	0.124
-622.405	216.625	0.236	0.379
-621.390	800.000	0.216	0.625
-620.376	9.026	-0.271	-0.207
-619.361	53.063	-0.754	-0.730
-618.346	-12.314	-0.200	-0.133
-617.332	10.347	0.126	-0.097
-616.317	9.833	-0.242	0.186
-615.303	-109.982	-0.706	0.150
-614.288	-92.733	0.948	0.269
-613.273	-48.167	-0.476	0.232
-612.259	15.019	-0.519	-0.411
-611.244	-175.653	0.629	-0.017
-610.230	-194.198	-0.280	-0.002
-609.215	347.376	-0.316	-0.630
-608.201	-50.286	-0.166	0.080
-607.186	-63.475	-0.664	0.276
-606.171	-117.404	-0.390	-0.071
-605.157	-200.000	0.019	0.417
-604.142	65.506	0.290	-0.297
-603.128	-83.246	0.698	0.227
-602.113	-108.262	-0.614	-0.134
-601.098	28.921	-0.620	0.532
-600.084	800.000	0.147	-0.409
-599.069	-200.000	0.049	-0.295
-598.055	-95.271	0.695	0.189
-597.040	800.000	-0.071	-0.209
-596.025	-107.253	-0.480	0.107
-595.011	186.180	0.272	0.409
-593.996	-163.731	0.238	-0.011
-592.982	112.836	0.257	-0.314
-591.967	607.274	-0.175	0.440
-590.952	-49.239	-0.159	-0.077
-589.938	-127.996	0.558	-0.081
-588.923	301.086	0.244	-0.456
-587.909	800.000	-0.134	0.377
-586.894	-130.704	-0.468	-0.064
-585.879	710.842	0.123	0.328
-584.865	-200.000	-0.003	0.273
-583.850	-129.319	0.385	0.054
-582.836	-122.592	-0.456	-0.075
-581.821	-52.341	-0.879	0.411
-580.806	-152.112	0.671	0.049
-579.792	29.689	0.151	-0.129
-578.777	-167.239	0.572	-0.023
-577.763	-200.000	0.075	-0.598
-576.748	124.654	-0.421	-0.535
-575.733	273.722	-0.438	-0.783
-574.719	62.996	-0.176	-0.178
-573.704	-200.000	0.064	-0.757
-572.690	20.900	0.277	-0.227
-571.675	-53.712	0.431	0.199
-570.661	-15.508	-0.762	0.491
-569.646	-200.000	0.003	-0.388
-568.631	-25.753	-0.120	0.072
-567.617	-127.942	-0.594	-0.086
-566.602	351.975	0.233	-0.467
-565.588	-42.399	0.375	0.193
-564.573	1.204	0.531	0.385
-563.558	127.302	0.300	0.384
-562.544	-136.068	-0.815	0.097
-561.529	-117.466	-0.293	-0.053
-560.515	220.031	0.306	0.496
-559.500	321.056	-0.352	-0.676
-558.485	-114.933	0.484	0.093
-557.471	-63.383	-0.510	-0.212
-556.456	-4.238	0.543	-0.379
-555.442	47.216	0.311	-0.292
-554.427	794.226	0.304	-0.845
-553.412	800.000	-0.297	0.993
-552.398	800.000	0.144	0.414
-551.383	800.000	0.284	0.968
-550.369	261.560	-0.055	0.097
-549.354	14.351	0.220	0.173
-548.339	800.000	-0.076	-0.256
-547.325	11.737	-0.241	0.187
-546.310	766.087	0.140	-0.383
-545.296	409.501	-0.231	-0.493
-544.281	-94.730	-0.703	0.193
-543.266	-200.000	0.089	0.707
-542.252	-200.000	-0.029	-0.178
-541.237	54.984	0.504	-0.491
-540.223	151.425	-0.201	0.276
-539.208	-129.969	-0.819	-0.113
-538.193	96.990	0.358	-0.414
-537.179	47.628	-0.076	0.072
-536.164	184.310	-0.217	-0.325
-535.150	-80.394	0.667	-0.225
-534.135	-74.114	-0.306	-0.112
-533.121	-128.799	0.383	0.054
-532.106	-6.783	0.294	0.202
-531.091	800.000	0.253	-0.846
-530.077	800.000	-0.205	-0.747
-529.062	-157.536	0.180	0.011
-528.048	-200.000	0.075	-0.499
-527.033	-133.202	0.809	0.103
-526.018	41.806	-0.040	0.036
-525.004	33.898	0.353	0.310
-523.989	65.669	-0.153	0.157
-522.975	537.636	0.106	0.253
-521.960	559.179	0.291	-0.707
-520.945	-18.715	-0.292	0.183
-519.931	-53.786	-0.400	0.184
-518.916	-86.089	0.486	0.151
-517.902	-7.951	-0.249	0.169
-516.887	-200.000	0.137	-1.032
-515.872	3.276	0.890	0.653
-514.858	106.391	0.264	-0.316
-513.843	800.000	0.233	-0.844
-512.829	212.769	0.201	-0.320
-511.814	-79.691	0.150	0.051
-510.799	-7.011	-0.541	-0.370
-509.785	-200.000	-0.026	-0.684
-508.770	800.000	-0.246	0.877
-507.756	-6.313	-0.551	0.379
-506.741	-65.319	1.009	0.409
-505.726	-200.000	-0.002	0.333
-504.712	-165.396	-0.915	0.040
-503.697	-49.639	-0.538	-0.258
-502.683	296.920	0.343	-0.633
-501.668	-81.010	0.060	0.020
-500.653	53.259	0.101	0.098
-499.639	45.952	-0.371	0.345
-498.624	-166.121	0.280	0.012
-497.610	271.229	0.340	0.604
-496.595	-51.563	-0.438	-0.206
-495.581	-200.000	-0.032	-0.684
-494.566	178.554	-0.208	-0.306
-493.551	311.749	0.236	-0.446
-492.537	800.000	0.155	0.574
-491.522	97.343	-0.091	-0.105
-490.508	-200.000	0.028	-0.177
-489.493	-14.646	0.453	0.293
-488.478	-200.000	0.106	-0.540
-487.464	800.000	0.116	0.504
-486.449	-200.000	0.003	1.179
-485.435	92.483	0.156	0.177
-484.420	-87.022	0.906	0.278
-483.405	140.941	-0.156	-0.208
-482.391	107.246	0.590	0.706
-481.376	-34.248	-0.591	0.326
-480.362	-200.000	0.060	-0.853
-479.347	5.840	0.981	-0.731
-478.332	192.341	-0.159	0.241
-477.318	153.753	-0.341	-0.470
-476.303	171.103	0.019	0.027
-475.289	-200.000	0.066	0.387
-474.274	-200.000	0.040	-0.266
-473.259	-93.779	-0.022	-0.006
-472.245	800.000	0.133	-0.401
-471.230	-56.235	0.201	-0.090
-470.216	800.000	0.229	0.642
-469.201	202.429	0.300	-0.466
-468.186	-104.798	-0.389	0.090
-467.172	-200.000	0.098	-0.608
-466.157	-150.706	0.429	0.033
-465.143	170.442	0.336	0.484
-464.128	-200.000	0.002	0.522
-463.113	-65.257	0.405	0.164
-462.099	146.988	0.191	0.258
-461.084	51.703	-0.626	0.598
-460.070	-28.038	0.418	0.243
-459.055	-187.614	0.823	-0.011
-458.040	800.000	0.335	-1.334
-457.026	63.673	-0.474	0.478
-456.011	800.000	0.308	-0.859
-454.997	-169.955	0.546	0.020
-453.982	-200.000	0.194	-1.142
-452.968	-77.103	0.486	-0.170
-451.953	-59.716	-0.313	-0.135
-450.938	157.419	-0.380	-0.529
-449.924	-23.595	0.312	-0.188
-448.909	800.000	0.270	0.799
-447.895	-200.000	0.055	-0.266
-446.880	-65.603	0.602	0.243
-445.865	-200.000	-0.021	0.248
-444.851	199.494	-0.299	0.461
-443.836	172.353	0.265	-0.383
-442.822	-200.000	-0.005	-0.044
-441.807	-200.000	-0.090	-1.050
-440.792	10.518	-0.302	0.231
-439.778	-70.511	1.061	-0.404
-438.763	-93.889	-0.428	0.118
-437.749	-43.995	0.266	-0.134
-436.734	-200.000	0.073	-0.479
-435.719	-179.462	-0.619	0.014
-434.705	60.533	0.760	-0.756
-433.690	214.709	-0.899	1.431
-432.676	-200.000	0.065	0.432
-431.661	798.139	0.296	0.819
-430.646	298.141	-0.234	-0.433
-429.632	-139.166	0.531	-0.058
-428.617	-110.366	0.328	-0.068
-427.603	-200.000	-0.003	0.233
-426.588	-49.733	-0.741	-0.354
-425.573	32.357	-0.664	0.576
-424.559	44.229	-0.087	-0.081
-423.544	586.013	-0.184	-0.454
-422.530	800.000	-0.173	-0.658
-421.515	-49.190	-0.601	-0.288
-420.500	-200.000	0.028	-0.744
-419.486	-154.250	0.288	0.020
-418.471	317.707	-0.087	0.165
-417.457	83.237	0.082	0.090
-416.442	-200.000	0.047	-0.382
-415.428	-200.000	0.216	1.045
-414.413	133.626	-0.254	-0.330
-413.398	-130.376	-0.344	0.047
-412.384	-46.316	0.671	-0.331
-411.369	-150.355	0.415	0.032
-410.355	80.045	-0.424	-0.457
-409.340	-95.573	0.549	-0.148
-408.325	28.203	0.505	0.428
-407.311	61.770	-0.763	-0.763
-406.296	-63.393	-0.511	-0.211
-405.282	566.796	-0.142	-0.345
-404.267	339.485	-0.316	-0.618
-403.252	-109.859	-0.815	0.172
-402.238	9.555	-0.543	-0.412
-401.223	-200.000	-0.131	-0.585
-400.209	439.158	-0.169	-0.369
-399.194	-133.296	-0.473	-0.060
-398.179	0.457	0.286	0.205
-397.165	-138.937	0.842	0.092
-396.150	335.919	0.520	1.013
-395.136	-79.037	-0.767	-0.262
-394.121	-200.000	0.018	-0.335
-393.106	800.000	0.094	-0.374
-392.092	474.023	0.214	0.484
-391.077	-200.000	-0.425	0.001
-390.063	117.904	-0.386	0.476
-389.048	355.737	-0.216	-0.431
-388.033	-25.793	-0.298	0.176
-387.019	679.510	-0.168	-0.439
-386.004	800.000	0.075	-0.211
-384.990	80.195	-0.041	-0.044
-383.975	55.283	-0.385	0.374
-382.960	24.685	0.711	0.590
-381.946	-113.880	-0.456	-0.089
-380.931	221.466	-0.513	-0.827
-379.917	-13.021	0.242	-0.158
-378.902	-57.267	0.396	-0.174
-377.888	-100.086	-1.124	-0.281
-376.873	361.857	0.419	-0.841
-375.858	800.000	0.125	-0.460
-374.844	702.903	0.096	0.255
-373.829	67.698	0.267	-0.273
-372.815	40.449	0.469	0.423
-371.800	-200.000	0.052	0.741
-370.785	383.794	-0.096	0.198
-369.771	-103.478	0.676	-0.159
-368.756	-200.000	-0.095	-0.700
-367.742	800.000	0.092	-0.281
-366.727	603.300	-0.225	0.561
-365.712	-163.168	0.048	-0.002
-364.698	-200.000	0.010	0.565
-363.683	-85.855	0.299	0.093
-362.669	73.114	-0.292	0.306
-361.654	12.978	0.579	-0.449
-360.639	34.093	0.236	-0.206
-359.625	800.000	-0.392	-1.167
-358.610	-162.649	-0.130	-0.006
-357.596	-92.701	0.719	-0.202
-356.581	416.153	-0.170	-0.364
-355.566	196.609	-0.307	-0.468
-354.552	-135.950	-0.380	0.045
-353.537	-64.943	-0.124	-0.050
-352.523	-200.000	-0.054	-0.320
-351.508	800.000	-0.100	-0.428
-350.493	-65.280	0.102	0.041
-349.479	136.153	0.573	0.747
-348.464	-200.000	-0.021	-0.475
-347.450	138.302	0.215	0.283
-346.435	-152.815	0.621	-0.044
-345.420	-172.466	0.356	-0.011
-344.406	-136.225	-0.926	0.108
-343.391	63.319	0.371	0.373
-342.377	-122.473	0.437	0.071
-341.362	106.323	0.407	0.483
-340.348	-104.464	-0.407	0.094
-339.333	-140.233	-0.722	-0.076
-338.318	-133.785	0.607	-0.076
-337.304	145.093	-0.431	0.577
-336.289	460.565	0.116	0.258
-335.275	500.852	-0.180	-0.415
-334.260	-200.000	-0.065	-0.581
-333.245	241.371	0.189	-0.316
-332.231	-91.524	-0.151	0.043
-331.216	-200.000	0.012	0.523
-330.202	240.584	0.271	0.452
-329.187	127.252	0.286	0.364
-328.172	800.000	-0.207	-0.643
-327.158	-200.000	0.040	-0.401
-326.143	-200.000	-0.115	-0.508
-325.129	-200.000	-0.037	-0.204
-324.114	-200.000	-0.110	-0.713
-323.099	-96.109	0.801	-0.213
-322.085	-91.098	-0.843	0.242
-321.070	-58.958	-0.487	0.210
-320.056	-143.491	0.351	-0.033
-319.041	-200.000	0.038	0.504
-318.026	137.960	0.305	-0.400
-317.012	800.000	-0.177	0.591
-315.997	-200.000	-0.039	-0.590
-314.983	290.896	0.151	-0.274
-313.968	800.000	-0.235	0.812
-312.953	-56.912	0.640	-0.282
-311.939	93.757	-0.601	0.681
-310.924	-141.976	-0.401	0.040
-309.910	488.835	0.259	0.592
-308.895	-43.869	0.283	0.142
-307.880	-200.000	-0.122	0.644
-306.866	-200.000	0.014	0.434
-305.851	800.000	-0.100	0.347
-304.837	-132.993	-0.437	0.056
-303.822	37.784	0.412	-0.366
-302.807	-200.000	0.081	-0.792
-301.793	-185.928	0.233	0.003
-300.778	142.372	0.250	-0.332
-299.764	-175.330	0.570	0.016
-298.749	-42.894	0.305	-0.155
-297.735	-200.000	0.077	-0.668
-296.720	174.286	0.070	0.102
-295.705	800.000	-0.232	0.848
-294.691	-200.000	-0.014	-0.282
-293.676	-200.000	-0.106	0.653
-292.662	-126.340	0.225	0.034
-291.647	-200.000	-0.076	-0.428
-290.632	-74.271	-0.381	-0.138
-289.618	149.390	-0.238	0.322
-288.603	-99.901	0.238	-0.059
-287.589	360.247	0.640	-1.279
-286.574	-107.894	-0.159	0.034
-285.559	-148.941	-0.492	0.040
-284.545	-98.593	0.467	-0.119
-283.530	352.170	-0.286	0.565
-282.516	132.579	-0.220	0.284
-281.501	-200.000	-0.019	0.651
-280.486	99.538	-0.200	0.231
-279.472	-117.292	-0.110	0.020
-278.457	800.000	-0.134	0.518
-277.443	157.590	0.137	0.190
-276.428	-200.000	0.014	-0.326
-275.413	-63.722	-0.773	0.316
-274.399	63.643	-0.284	-0.285
-273.384	679.554	-0.059	-0.153
-272.370	-82.509	-0.338	-0.110
-271.355	63.754	-0.425	0.426
-270.340	-102.598	0.349	0.083
-269.326	-13.901	0.326	-0.210
-268.311	-56.001	-0.758	-0.337
-267.297	800.000	-0.047	0.164
-266.282	-100.064	-0.688	0.171
-265.267	-125.616	-0.824	-0.125
-264.253	219.001	0.153	0.243
-263.238	-151.480	0.576	-0.043
-262.224	639.095	-0.243	-0.616
-261.209	-105.090	0.189	0.043
-260.195	21.352	0.172	-0.139
-259.180	-1.611	0.586	0.412
-258.165	54.935	0.286	0.276
-257.151	-19.514	-0.368	0.227
-256.136	-55.903	-0.330	-0.147
-255.122	295.758	0.183	0.335
-254.107	-117.675	-0.573	-0.103
-253.092	197.953	-0.250	0.381
-252.078	-86.971	0.273	-0.083
-251.063	-164.848	0.357	0.016
-250.049	57.500	0.476	-0.463
-249.034	-200.000	-0.146	-0.753
-248.019	-200.000	0.095	0.824
-247.005	88.456	-0.480	0.531
-245.990	-18.457	-0.604	0.376
-244.976	46.487	-0.334	-0.309
-243.961	-200.000	-0.193	1.002
-242.946	-200.000	0.087	0.471
-241.932	243.065	0.098	-0.164
-240.917	800.000	-0.200	-0.780
-239.903	-126.898	0.403	0.059
-238.888	312.241	0.018	-0.034
-237.873	-162.961	0.637	-0.031
-236.859	800.000	-0.144	0.471
-235.844	800.000	0.146	0.524
-234.830	-102.272	-0.457	-0.109
-233.815	-180.394	-0.379	-0.008
-232.800	-127.502	0.236	0.034
-231.786	728.121	0.312	0.829
-230.771	138.634	-0.371	-0.486
-229.757	331.810	0.291	-0.560
-228.742	105.951	0.411	0.485
-227.727	-40.993	0.296	0.153
-226.713	-81.879	0.546	0.178
-225.698	800.000	-0.026	-0.101
-224.684	-69.853	-0.073	-0.028
-223.669	-83.036	-0.189	-0.061
-222.655	-163.456	-0.135	-0.006
-221.640	70.548	-0.198	0.204
-220.625	242.505	-0.214	-0.357
-219.611	800.000	-0.108	0.469
-218.596	-41.008	-0.488	-0.251
-217.582	800.000	-0.102	-0.306
-216.567	-82.782	0.667	0.215
-215.552	-150.413	0.488	0.037
-214.538	-200.000	0.077	0.477
-213.523	87.039	-0.390	-0.429
-212.509	71.623	0.095	-0.099
-211.494	-119.394	0.415	0.072
-210.479	-74.774	-0.489	0.175
-209.465	-147.963	0.705	-0.058
-208.450	-78.454	0.888	-0.303
-207.436	800.000	-0.148	0.464
-206.421	-146.022	0.593	-0.052
-205.406	29.664	-0.415	-0.352
-204.392	519.952	0.150	-0.349
-203.377	215.795	-0.210	-0.331
-202.363	627.876	0.415	1.044
-201.348	-200.000	-0.034	-0.964
-200.333	90.796	-0.115	0.129
-199.319	410.167	0.239	-0.505
-198.304	83.359	-0.531	-0.575
-197.290	472.052	0.264	0.592
-196.275	800.000	0.093	0.328
-195.260	800.000	-0.139	0.542
-194.246	-200.000	-0.154	0.850
-193.231	800.000	-0.206	0.610
-192.217	-35.759	-0.398	-0.215
-191.202	168.069	-0.244	0.346
-190.187	170.712	-0.092	-0.131
-189.173	-200.000	0.063	-0.306
-188.158	-162.184	-0.605	-0.030
-187.144	-114.992	-1.157	-0.219
-186.129	434.970	0.108	0.234
-185.114	89.333	-0.618	0.685
-184.100	86.453	0.665	-0.729
-183.085	-105.896	0.673	-0.151
-182.071	271.907	-0.204	0.358
-181.056	33.850	-0.510	-0.441
-180.042	149.380	-0.190	-0.255
-179.027	126.820	0.490	0.618
-178.012	563.080	-0.379	-0.913
-176.998	-89.296	-0.376	0.110
-175.983	-32.917	-1.133	-0.626
-174.969	-52.065	-0.448	0.207
-173.954	48.638	0.314	-0.293
-172.939	800.000	0.266	0.753
-171.925	145.984	-0.367	0.490
-170.910	439.183	-0.400	0.868
-169.896	785.874	-0.169	0.460
-168.881	-69.751	-0.862	0.327
-167.866	800.000	-0.227	0.727
-166.852	379.441	0.162	-0.329
-165.837	-200.000	-0.170	0.946
-164.823	-149.512	-0.294	-0.023
-163.808	312.207	0.177	-0.330
-162.793	800.000	0.204	0.728
-161.779	-200.000	0.039	1.163
-160.764	-161.995	0.542	0.027
-159.750	-78.013	-0.454	0.155
-158.735	-32.146	1.016	-0.564
-157.720	143.044	-0.383	-0.507
-156.706	103.781	0.133	-0.155
-155.691	225.576	0.552	0.888
-154.677	44.223	0.238	0.217
-153.662	-51.762	0.759	-0.351
-152.647	-45.316	0.524	-0.258
-151.633	-129.532	-0.877	-0.121
-150.618	-28.788	-0.347	0.198
-149.604	-200.000	-0.012	0.119
-148.589	-92.683	-0.451	0.126
-147.574	159.540	0.365	-0.505
-146.560	-137.713	-0.115	0.013
-145.545	-45.791	-0.505	0.248
-144.531	-200.000	0.037	0.687
-143.516	61.993	-0.008	0.008
-142.502	800.000	-0.044	-0.124
-141.487	-84.059	-0.542	-0.171
-140.472	-153.200	-0.509	0.035
-139.458	800.000	0.234	-0.733
-138.443	-170.000	-0.860	-0.030
-137.429	110.655	1.234	-1.473
-136.414	-6.609	-0.552	-0.373
-135.399	-72.352	-0.549	0.202
-134.385	137.731	-0.415	-0.539
-133.370	-200.000	0.002	-0.432
-132.356	-149.113	-0.663	0.053
-131.341	91.208	0.479	0.534
-130.326	-142.147	-0.105	-0.010
-129.312	800.000	0.269	-0.764
-128.297	-0.979	0.649	-0.456
-127.283	-44.275	0.297	-0.148
-126.268	-148.749	-0.557	-0.045
-125.253	-88.955	0.234	-0.069
-124.239	800.000	0.088	-0.381
-123.224	-85.494	-0.284	0.088
-122.210	30.469	0.442	-0.375
-121.195	530.193	-0.105	0.247
-120.180	-53.030	0.644	0.294
-119.166	163.040	0.825	-1.150
-118.151	220.439	0.176	-0.280
-117.137	-91.262	0.400	0.114
-116.122	-122.252	0.450	-0.073
-115.107	-61.466	0.558	0.233
-114.093	115.499	-0.237	-0.287
-113.078	-23.194	-0.605	-0.361
-112.064	97.539	-0.436	0.497
-111.049	-144.060	-0.461	0.043
-110.034	-122.826	0.811	-0.130
-109.020	-200.000	0.000	-0.447
-108.005	586.368	-0.287	0.700
-106.991	131.394	0.327	-0.417
-105.976	-20.231	-0.992	0.606
-104.962	579.832	0.104	-0.252
-103.947	800.000	0.106	-0.405
-102.932	800.000	0.264	1.112
-101.918	-200.000	-0.002	1.185
-100.903	-48.100	0.410	-0.197
-99.889	18.243	-0.403	0.319
-98.874	-67.878	-0.374	0.145
-97.859	-148.381	0.553	0.045
-96.845	-159.313	-0.981	-0.055
-95.830	-127.034	-0.463	-0.067
-94.816	-151.584	1.174	0.086
-93.801	-91.280	0.425	-0.121
-92.786	76.569	-0.279	-0.293
-91.772	90.142	0.437	0.484
-90.757	-127.761	0.312	0.045
-89.743	125.603	-0.425	-0.531
-88.728	448.090	-0.164	-0.357
-87.713	800.000	-0.213	-0.699
-86.699	134.684	-0.424	-0.545
-85.684	-200.000	-0.171	-0.807
-84.670	-39.272	0.302	0.157
-83.655	-77.893	0.926	0.317
-82.640	-30.541	0.227	-0.127
-81.626	-24.824	-0.261	0.154
-80.611	578.433	0.143	-0.348
-79.597	-18.267	0.241	0.149
-78.582	-96.207	-0.474	0.125
-77.567	-178.197	0.080	-0.002
-76.553	13.673	-0.554	0.426
-75.538	-79.263	0.205	0.069
-74.524	276.595	0.084	0.147
-73.509	-87.821	0.360	-0.107
-72.494	6.751	1.040	-0.766
-71.480	-27.665	-0.742	0.426
-70.465	-200.000	-0.016	-0.078
-69.451	-15.399	0.378	0.239
-68.436	119.161	-0.547	-0.670
-67.422	-34.011	0.462	-0.252
-66.407	303.013	0.120	-0.220
-65.392	757.251	-0.193	0.516
-64.378	-36.223	0.425	0.227
-63.363	170.708	-0.237	-0.337
-62.349	-30.119	-0.471	0.265
-61.334	-188.279	-1.281	-0.016
-60.319	-26.459	1.214	0.705
-59.305	-200.000	0.028	-1.185
-58.290	-200.000	0.035	0.855
-57.276	252.710	1.005	1.696
-56.261	-200.000	96.039	583.364
-55.246	654.277	1361.284	3457.265
-54.232	198.779	2533.259	3838.547
-53.217	108.233	2282.570	2694.512
-52.203	39.341	2046.422	1813.256
-51.188	34.687	1962.084	1697.220
-50.173	33.082	1945.695	1668.818
-49.159	48.408	1996.569	1849.874
-48.144	49.004	2014.377	1871.636
-47.130	35.121	1975.199	1712.173
-46.115	32.773	1965.338	1682.642
-45.100	32.730	1962.956	1680.155
-44.086	32.710	1959.791	1677.202
-43.071	32.738	1957.431	1675.366
-42.057	32.430	1956.871	1672.080
-41.042	32.689	1953.821	1671.703
-40.027	32.670	1950.688	1668.787
-39.013	32.604	1949.551	1667.164
-37.998	32.558	1948.459	1665.759
-36.984	32.608	1946.513	1664.467
-35.969	32.846	1943.943	1664.309
-34.954	32.751	1943.687	1663.183
-33.940	32.886	1941.169	1662.154
-32.925	32.877	1939.042	1660.189
-31.911	32.830	1937.642	1658.505
-30.896	32.894	1935.867	1657.483
-29.881	32.777	1934.999	1655.653
-28.867	32.908	1933.766	1655.679
-27.852	32.944	1931.579	1654.054
-26.838	32.735	1929.566	1650.433
-25.823	32.890	1926.971	1649.503
-24.809	32.856	1926.643	1648.865
-23.794	32.932	1923.661	1646.905
-22.779	32.905	1921.549	1644.802
-21.765	32.896	1920.880	1644.084
-20.750	32.685	1919.468	1640.978
-19.736	32.885	1917.543	1641.005
-18.721	33.037	1915.291	1640.326
-17.706	32.849	1915.142	1638.500
-16.692	32.783	1913.537	1636.493
-15.677	32.723	1911.213	1633.922
-14.663	32.798	1909.917	1633.397
-13.648	32.871	1909.244	1633.390
-12.633	32.847	1907.517	1631.642
-11.619	32.804	1904.973	1629.028
-10.604	32.930	1905.564	1630.558
-9.590	32.820	1903.561	1627.830
-8.575	32.719	1902.223	1625.747
-7.560	32.750	1900.652	1624.606
-6.546	32.857	1900.014	1624.918
-5.531	32.808	1898.707	1623.314
-4.517	32.777	1897.009	1621.536
-3.502	33.005	1895.353	1622.008
-2.487	32.713	1894.624	1618.818
-1.473	32.706	1894.851	1618.889
-0.458	32.815	1889.019	1614.770
0.556	33.731	1869.767	1586.518
1.571	29.328	1850.931	1533.867
2.586	25.508	1871.131	1518.275
3.600	24.247	1906.696	1536.139
4.615	23.853	1900.877	1527.922
5.629	18.243	1798.692	1399.897
6.644	8.343	1682.341	1233.117
7.659	3.493	1646.122	1169.750
8.673	2.982	1641.653	1162.604
9.688	3.176	1639.814	1162.664
10.702	2.982	1639.915	1161.169
11.717	2.981	1634.860	1157.476
12.731	3.462	1635.010	1161.103
13.746	10.028	1650.368	1221.681
14.761	19.921	1670.498	1311.819
15.775	24.471	1680.335	1354.025
16.790	24.984	1680.711	1358.103
17.804	25.097	1679.492	1357.849
18.819	24.785	1677.847	1354.039
19.834	24.848	1677.031	1353.740
20.848	25.072	1677.094	1355.362
21.863	25.206	1674.365	1354.051
22.877	25.299	1673.577	1353.997
23.892	25.348	1673.025	1353.800
24.907	25.395	1672.236	1353.392
25.921	25.224	1671.643	1351.509
26.936	25.208	1670.183	1350.083
27.950	25.340	1668.955	1349.970
28.965	25.208	1669.941	1349.650
29.980	25.358	1667.526	1348.707
30.994	25.339	1668.112	1348.916
32.009	25.457	1666.324	1348.241
33.023	25.445	1665.410	1347.291
34.038	25.504	1663.681	1346.214
35.053	25.245	1663.929	1344.352
36.067	25.330	1662.651	1343.840
37.082	25.325	1662.203	1343.319
38.096	25.205	1661.553	1341.777
39.111	25.418	1659.410	1341.519
40.126	25.343	1659.275	1340.731
41.140	25.297	1658.389	1339.556
42.155	25.444	1656.150	1338.723
43.169	25.156	1655.428	1335.880
44.184	24.942	1656.063	1334.676
45.199	25.179	1653.984	1334.643
46.213	25.138	1652.648	1333.146
47.228	25.165	1651.440	1332.254
48.242	25.125	1650.444	1331.036
49.257	25.077	1649.508	1329.806
50.271	25.270	1648.386	1330.216
51.286	25.315	1647.120	1329.411
52.301	25.536	1646.264	1330.237
53.315	25.355	1644.254	1327.160
54.330	25.446	1643.393	1327.020
55.344	25.236	1641.491	1323.815
56.359	25.345	1640.375	1323.602
57.374	25.336	1639.504	1322.712
58.388	25.308	1638.928	1321.928
59.403	25.112	1638.612	1320.108
60.417	25.160	1636.644	1318.763
61.432	25.301	1634.788	1318.184
62.447	25.068	1634.082	1315.787
63.461	25.444	1633.294	1317.795
64.476	25.154	1633.703	1315.880
65.490	25.153	1632.198	1314.547
66.505	25.060	1630.290	1312.216
67.520	25.163	1629.698	1312.374
68.534	25.206	1628.944	1311.962
69.549	25.097	1628.348	1310.575
70.563	25.215	1625.426	1308.965
71.578	25.276	1625.090	1309.021
72.593	25.000	1625.680	1307.369
73.607	25.081	1623.662	1306.222
74.622	25.032	1623.523	1305.637
75.636	25.140	1622.413	1305.413
76.651	25.126	1620.263	1303.467
77.666	25.343	1619.070	1303.969
78.680	25.139	1619.266	1302.528
79.695	24.974	1619.758	1301.609
80.709	25.229	1617.207	1301.295
81.724	25.153	1616.266	1299.872
82.739	25.124	1616.727	1299.917
83.753	25.241	1616.646	1300.584
84.768	25.240	1614.310	1298.587
85.782	25.416	1613.067	1298.745
86.797	25.759	1612.015	1300.260
87.812	25.580	1612.281	1299.067
88.826	25.452	1611.776	1297.617
89.841	25.456	1610.056	1296.147
90.855	25.307	1609.069	1294.166
91.870	25.495	1608.065	1294.594
92.884	25.470	1606.921	1293.383
93.899	25.603	1605.215	1292.847
94.914	25.454	1606.649	1292.814
95.928	25.543	1603.933	1291.153
96.943	25.759	1601.855	1290.916
97.957	25.480	1601.302	1288.357
98.972	25.709	1598.988	1288.023
99.987	25.558	1598.781	1286.659
101.001	25.588	1596.677	1285.066
102.016	25.483	1595.833	1283.525
103.030	25.409	1595.315	1282.465
104.045	25.459	1593.754	1281.453
105.060	25.603	1592.338	1281.229
106.074	25.432	1592.197	1279.783
107.089	25.350	1590.351	1277.607
108.103	25.203	1588.873	1275.258
109.118	25.038	1588.246	1273.471
110.133	24.913	1586.991	1271.466
111.147	25.088	1585.634	1271.508
112.162	24.983	1583.933	1269.282
113.176	25.079	1583.670	1269.641
114.191	25.282	1583.206	1270.594
115.206	25.470	1581.010	1270.051
116.220	25.225	1578.962	1266.565
117.235	25.369	1578.546	1267.135
118.249	25.208	1578.118	1265.540
119.264	25.239	1575.550	1263.586
120.279	25.095	1574.137	1261.331
121.293	25.094	1573.906	1261.025
122.308	25.178	1572.008	1259.987
123.322	25.214	1571.602	1259.800
124.337	25.091	1570.083	1257.608
125.352	25.023	1569.143	1256.268
126.366	24.980	1568.598	1255.417
127.381	24.991	1567.963	1254.873
128.395	25.122	1566.415	1254.441
129.410	25.400	1563.758	1254.145
130.424	25.124	1563.693	1252.057
131.439	25.166	1561.829	1250.747
132.454	24.991	1561.245	1248.945
133.468	25.037	1559.471	1247.737
134.483	25.529	1557.852	1249.751
135.497	25.288	1558.458	1248.450
136.512	25.351	1556.792	1247.441
137.527	25.405	1555.755	1246.874
138.541	25.202	1555.159	1244.881
139.556	25.262	1553.165	1243.588
140.570	25.174	1552.781	1242.564
141.585	25.242	1551.640	1242.013
142.600	25.395	1550.842	1242.322
143.614	25.512	1549.509	1241.953
144.629	25.513	1549.006	1241.448
145.643	25.422	1548.002	1239.904
146.658	25.613	1545.188	1238.857
147.673	25.591	1544.725	1238.224
148.687	25.464	1542.605	1235.543
149.702	25.317	1543.092	1234.809
150.716	25.400	1540.745	1233.394
151.731	25.379	1538.283	1231.169
152.746	25.132	1537.353	1228.626
153.760	24.916	1536.068	1226.011
154.775	25.141	1535.690	1227.136
155.789	25.359	1535.585	1228.439
156.804	25.431	1534.440	1227.908
157.819	25.472	1534.198	1227.881
158.833	25.167	1531.694	1223.690
159.848	25.208	1529.837	1222.378
160.862	25.436	1530.245	1224.148
161.877	25.540	1529.213	1223.920
162.892	25.470	1527.994	1222.366
163.906	25.438	1527.914	1221.975
164.921	25.362	1525.611	1219.506
165.935	25.145	1524.150	1216.757
166.950	25.199	1523.822	1216.754
167.964	25.142	1523.570	1216.059
168.979	25.495	1522.071	1217.150
169.994	25.314	1522.626	1216.259
171.008	25.211	1520.903	1214.077
172.023	25.496	1518.577	1214.037
173.037	25.323	1517.598	1211.981
174.052	25.471	1516.768	1212.209
175.067	25.487	1516.792	1212.230
176.081	25.485	1515.221	1210.852
177.096	25.350	1513.163	1208.190
178.110	25.356	1512.314	1207.448
179.125	25.439	1511.025	1206.871
180.140	25.409	1509.855	1205.627
181.154	25.306	1509.981	1204.927
182.169	25.227	1509.838	1204.175
183.183	25.306	1508.491	1203.525
184.198	25.176	1507.802	1201.996
185.213	25.452	1506.769	1202.920
186.227	25.431	1505.715	1201.826
187.242	25.544	1504.566	1201.560
188.256	25.534	1503.614	1200.625
189.271	25.545	1502.463	1199.677
190.286	25.620	1502.849	1200.374
191.300	25.720	1501.540	1199.895
192.315	25.358	1499.601	1195.829
193.329	25.027	1499.697	1193.592
194.344	25.312	1498.624	1194.529
195.359	25.570	1496.517	1194.460
196.373	25.483	1496.583	1193.826
197.388	25.147	1494.929	1190.174
198.402	24.783	1494.340	1187.186
199.417	25.066	1493.020	1187.908
200.432	25.386	1493.014	1189.915
201.446	25.827	1491.696	1191.682
202.461	25.590	1491.410	1189.780
203.475	25.244	1490.777	1186.878
204.490	25.476	1489.246	1187.089
205.504	25.359	1487.901	1185.136
206.519	25.151	1487.358	1183.229
207.534	25.293	1486.447	1183.333
208.548	25.110	1484.857	1180.762
209.563	25.050	1483.629	1179.281
210.577	24.924	1483.566	1178.297
211.592	25.146	1482.099	1178.488
212.607	24.676	1482.150	1175.339
213.621	25.433	1480.414	1178.827
214.636	25.559	1480.331	1179.480
215.650	25.439	1479.369	1177.825
216.665	25.171	1479.426	1176.005
217.680	25.181	1478.892	1175.546
218.694	25.561	1477.537	1176.855
219.709	25.593	1476.834	1176.399
220.723	25.500	1476.656	1175.541
221.738	25.181	1475.385	1172.343
222.753	25.355	1474.317	1172.523
223.767	25.173	1472.974	1170.168
224.782	25.203	1471.997	1169.484
225.796	25.182	1471.607	1168.933
226.811	25.559	1470.632	1170.511
227.826	25.814	1470.043	1171.597
228.840	25.529	1468.732	1168.596
229.855	25.382	1468.066	1167.005
230.869	25.361	1466.958	1165.885
231.884	25.508	1465.146	1165.294
232.899	25.307	1465.648	1164.286
233.913	25.187	1463.681	1161.845
234.928	24.949	1461.970	1158.843
235.942	25.123	1461.615	1159.587
236.957	25.042	1461.521	1158.883
237.972	25.366	1458.541	1158.510
238.986	25.105	1457.476	1155.877
240.001	24.838	1457.216	1153.850
241.015	25.471	1455.205	1156.229
242.030	25.098	1454.983	1153.550
243.045	25.128	1454.376	1153.162
244.059	25.086	1454.069	1152.547
245.074	25.314	1453.050	1153.100
246.088	25.205	1452.926	1152.201
247.103	25.491	1451.632	1152.907
248.117	25.516	1452.300	1153.495
249.132	25.620	1450.619	1152.724
250.147	25.736	1449.494	1152.471
251.161	25.992	1448.361	1153.108
252.176	25.992	1449.048	1153.549
253.190	25.820	1449.287	1152.536
254.205	25.882	1447.503	1151.414
255.220	25.971	1446.940	1151.434
256.234	26.138	1446.893	1152.361
257.249	25.976	1445.723	1150.291
258.263	26.329	1444.108	1151.156
259.278	26.102	1443.002	1148.728
260.293	26.061	1441.885	1147.474
261.307	25.730	1442.509	1145.764
262.322	25.868	1441.984	1146.121
263.336	25.939	1440.026	1144.913
264.351	26.033	1438.889	1144.505
265.366	26.067	1438.828	1144.571
266.380	26.009	1436.894	1142.563
267.395	25.863	1436.326	1141.085
268.409	26.050	1435.995	1141.911
269.424	25.892	1435.318	1140.270
270.439	25.769	1434.055	1138.387
271.453	26.006	1432.793	1138.779
272.468	25.909	1432.239	1137.626
273.482	25.689	1431.469	1135.528
274.497	25.631	1430.396	1134.211
275.512	25.555	1430.052	1133.360
276.526	25.770	1429.205	1133.940
277.541	25.676	1427.575	1131.959
278.555	25.543	1427.091	1130.637
279.570	25.838	1425.830	1131.392
280.585	26.070	1425.549	1132.522
281.599	26.164	1425.175	1132.714
282.614	26.181	1423.934	1131.732
283.628	26.006	1422.301	1129.245
284.643	25.798	1421.323	1127.065
285.657	25.738	1419.764	1125.355
286.672	25.648	1420.798	1125.509
287.687	25.801	1419.753	1125.539
288.701	25.661	1418.035	1123.202
289.716	25.808	1417.331	1123.461
290.730	25.924	1416.952	1123.785
291.745	25.976	1415.494	1122.857
292.760	25.929	1413.844	1121.153
293.774	25.893	1414.677	1121.492
294.789	25.768	1413.282	1119.509
295.803	25.824	1412.724	1119.317
296.818	26.213	1411.147	1120.380
297.833	26.247	1410.238	1119.774
298.847	26.118	1408.812	1117.739
299.862	25.812	1409.162	1116.026
300.876	25.958	1406.671	1114.857
301.891	26.063	1406.500	1115.270
302.906	25.995	1405.777	1114.181
303.920	25.940	1406.103	1113.999
304.935	26.245	1405.728	1115.486
305.949	26.316	1404.203	1114.613
306.964	26.246	1404.262	1114.132
307.979	26.370	1402.478	1113.379
308.993	26.248	1402.810	1112.795
310.008	26.071	1401.459	1110.535
311.022	26.035	1400.140	1109.173
312.037	26.111	1399.834	1109.295
313.052	25.967	1397.985	1106.851
314.066	26.267	1397.368	1108.102
315.081	26.294	1395.926	1107.030
316.095	25.909	1395.347	1104.111
317.110	25.899	1393.917	1102.826
318.125	25.736	1392.186	1100.360
319.139	26.003	1392.327	1102.002
320.154	25.953	1391.369	1100.846
321.168	25.887	1389.313	1098.717
322.183	25.901	1389.147	1098.575
323.197	25.824	1389.091	1097.967
324.212	25.802	1388.163	1096.997
325.227	25.810	1387.756	1096.631
326.241	26.041	1385.318	1096.006
327.256	25.878	1384.724	1094.455
328.270	25.777	1384.817	1093.818
329.285	26.087	1383.553	1094.603
330.300	25.751	1381.897	1091.159
331.314	25.911	1381.891	1092.027
332.329	25.981	1380.872	1091.546
333.343	25.844	1380.364	1090.222
334.358	25.834	1379.936	1089.726
335.373	26.080	1378.136	1089.696
336.387	26.187	1378.608	1090.615
337.402	26.051	1378.631	1089.717
338.416	26.073	1378.131	1089.359
339.431	26.041	1377.227	1088.357
340.446	26.170	1376.258	1088.271
341.460	26.160	1375.460	1087.483
342.475	26.381	1375.322	1088.607
343.489	26.322	1374.748	1087.700
344.504	26.385	1373.581	1087.060
345.519	26.555	1371.975	1086.714
346.533	26.419	1371.069	1085.083
347.548	26.390	1370.915	1084.696
348.562	26.603	1369.838	1085.021
349.577	26.744	1368.664	1084.838
350.592	26.555	1367.720	1082.865
351.606	26.146	1366.836	1079.626
352.621	26.157	1365.210	1078.311
353.635	26.013	1365.035	1077.215
354.650	26.096	1363.651	1076.525
355.665	25.878	1362.967	1074.586
356.679	25.921	1361.803	1073.831
357.694	25.850	1361.872	1073.368
358.708	25.955	1360.182	1072.569
359.723	26.196	1358.186	1072.328
360.738	26.737	1356.977	1074.489
361.752	26.250	1356.758	1071.334
362.767	26.414	1355.388	1071.128
363.781	26.165	1354.580	1068.922
364.796	26.006	1354.898	1068.133
365.810	26.097	1353.425	1067.418
366.825	26.318	1352.609	1067.987
367.840	26.571	1352.614	1069.391
368.854	26.616	1352.146	1069.192
369.869	26.518	1351.803	1068.247
370.883	26.888	1350.245	1069.103
371.898	26.712	1349.698	1067.535
372.913	26.351	1348.450	1064.333
373.927	26.259	1348.151	1063.458
374.942	26.491	1346.569	1063.478
375.956	26.564	1346.365	1063.655
376.971	26.681	1346.230	1064.140
377.986	26.556	1343.850	1061.434
379.000	26.601	1343.702	1061.483
380.015	26.657	1344.199	1062.114
381.029	26.480	1343.440	1060.380
382.044	26.723	1342.346	1060.844
383.059	27.058	1340.405	1061.176
384.073	26.558	1340.662	1058.365
385.088	26.698	1340.352	1058.846
386.102	26.805	1338.642	1058.026
387.117	26.663	1338.827	1057.249
388.132	26.719	1338.363	1057.112
389.146	26.485	1336.602	1054.263
390.161	26.449	1335.105	1052.781
391.175	26.379	1335.862	1052.879
392.190	26.110	1335.055	1050.586
393.205	26.362	1333.951	1051.085
394.219	26.537	1332.861	1051.149
395.234	26.598	1332.274	1050.949
396.248	26.635	1330.620	1049.770
397.263	26.332	1329.898	1047.350
398.278	26.435	1328.445	1046.706
399.292	26.430	1327.463	1045.815
400.307	26.313	1327.093	1044.754
401.321	26.395	1326.408	1044.596
402.336	26.449	1325.844	1044.367
403.350	26.208	1323.589	1041.112
404.365	25.808	1323.047	1038.287
405.380	26.123	1322.137	1039.295
406.394	26.436	1320.772	1039.932
407.409	26.366	1320.387	1039.132
408.423	26.756	1318.445	1039.751
409.438	26.806	1319.378	1040.680
410.453	26.645	1318.987	1039.359
411.467	26.719	1318.165	1039.039
412.482	26.755	1317.887	1038.936
413.496	26.858	1316.927	1038.679
414.511	26.820	1315.817	1037.491
415.526	26.877	1314.986	1037.073
416.540	26.895	1314.284	1036.529
417.555	26.913	1313.300	1035.763
418.569	27.032	1312.837	1035.987
419.584	26.757	1313.436	1034.796
420.599	26.690	1312.429	1033.530
421.613	142.286	1436.111	1792.201
422.628	138.034	1454.134	1792.255
