DTS Sentinel unit serial number:	SN413079Multiplexer serial number:	ORYXHardware model number:	OX4-SRSoftware version number:	ORYX F/W v4.00 Oryx Data Collector v3.7.2.0data status	okinstallation	princeton_trtdifferential loss correction	single-endedforward channel	channel 4reverse channel	N/Adate	2019/09/13time	10:25:35forward acquisition time	60.00reverse acquisition time	0.00gamma	496.2192k internal	0.2306k external	0.2306temperature offset calibration	1.0193default loss term (dB/km)	0.3790temperature slope calibration	1.0000multiplexer offset coefficient	1.0000multiplexer slope coefficient	1.0000fibre end	0.00T internal ref (°C)	31.00T ext. ref 1 (°C)	4.53T ext. ref 2 (°C)	28.04length (m)	temperature (°C)	Stokes	anti-Stokes-747.200	-200.000	-0.042	-0.200
-746.185	-10.574	-0.283	0.191
-745.171	-38.833	0.212	-0.114
-744.156	-20.765	-0.126	0.079
-743.142	18.418	-0.291	-0.236
-742.127	-72.480	-0.363	-0.136
-741.112	-1.094	0.237	0.170
-740.098	377.278	-0.072	0.150
-739.083	202.330	-0.150	-0.236
-738.069	-200.000	0.039	-0.214
-737.054	-11.293	0.126	-0.084
-736.039	13.457	-0.251	-0.198
-735.025	731.548	-0.013	-0.036
-734.010	-122.678	0.238	-0.039
-732.996	122.401	0.096	0.121
-731.981	-54.366	-0.259	-0.119
-730.966	800.000	-0.084	-0.306
-729.952	15.032	0.104	0.083
-728.937	281.950	-0.043	0.078
-727.923	-46.331	-0.271	0.135
-726.908	-85.670	-0.200	-0.063
-725.894	800.000	-0.066	-0.194
-724.879	-200.000	-0.012	0.399
-723.864	-95.674	-0.191	0.052
-722.850	42.124	0.238	-0.220
-721.835	607.170	-0.178	-0.450
-720.821	-18.027	0.470	0.299
-719.806	58.847	0.074	-0.073
-718.791	20.685	-0.101	0.083
-717.777	-98.786	0.025	0.007
-716.762	-84.643	-0.338	0.108
-715.748	800.000	-0.175	-0.499
-714.733	641.231	0.063	0.163
-713.718	178.329	-0.178	0.264
-712.704	-101.349	0.270	0.067
-711.689	-18.392	0.230	0.146
-710.675	385.531	-0.115	-0.240
-709.660	-200.000	-0.055	0.439
-708.645	58.723	-0.025	-0.025
-707.631	747.317	-0.102	0.280
-706.616	-151.625	0.264	-0.020
-705.602	800.000	0.038	-0.157
-704.587	589.592	0.058	-0.145
-703.572	8.693	-0.295	-0.226
-702.558	54.987	-0.080	-0.079
-701.543	-100.579	0.157	0.039
-700.529	-200.000	0.012	-0.328
-699.514	-18.600	0.128	-0.081
-698.499	-81.806	-0.181	-0.060
-697.485	-88.878	-0.428	-0.129
-696.470	76.167	-0.247	-0.266
-695.456	-51.998	0.115	-0.054
-694.441	-200.000	-0.004	0.100
-693.426	-2.223	-0.163	-0.116
-692.412	800.000	0.091	-0.282
-691.397	23.992	0.125	0.105
-690.383	800.000	0.104	-0.407
-689.368	54.066	0.246	-0.240
-688.354	-17.895	0.144	0.092
-687.339	-200.000	0.062	-0.426
-686.324	-27.474	-0.203	-0.120
-685.310	-200.000	0.007	-0.120
-684.295	-28.188	-0.195	0.114
-683.281	-155.379	-0.217	0.014
-682.266	19.146	-0.138	0.112
-681.251	70.840	-0.151	0.158
-680.237	-6.099	0.137	-0.095
-679.222	350.898	-0.225	0.452
-678.208	-200.000	0.038	-0.225
-677.193	-35.224	-0.117	-0.065
-676.178	-72.007	0.121	0.046
-675.164	571.272	-0.085	0.209
-674.149	-200.000	0.019	0.176
-673.135	7.182	0.302	0.229
-672.120	29.720	0.089	0.077
-671.105	66.044	0.146	0.150
-670.091	-139.332	-0.378	-0.041
-669.076	50.776	0.050	0.048
-668.062	-200.000	-0.016	-0.157
-667.047	-200.000	0.007	-0.311
-666.032	485.834	0.110	-0.255
-665.018	-5.749	-0.225	0.156
-664.003	-78.029	0.389	0.136
-662.989	-15.325	-0.392	-0.254
-661.974	236.527	-0.231	-0.387
-660.959	16.024	-0.107	0.086
-659.945	36.629	0.235	-0.210
-658.930	620.442	0.037	0.095
-657.916	-200.000	-0.013	-0.236
-656.901	98.294	-0.188	0.219
-655.886	-20.661	0.274	0.171
-654.872	758.691	0.031	-0.086
-653.857	800.000	-0.013	0.056
-652.843	-110.044	0.223	0.047
-651.828	64.170	0.069	0.071
-650.814	-100.116	-0.171	0.043
-649.799	-6.600	-0.341	-0.235
-648.784	-200.000	0.010	-0.217
-647.770	-98.427	-0.114	-0.030
-646.755	-200.000	-0.031	0.248
-645.741	666.436	0.128	-0.335
-644.726	800.000	0.037	-0.155
-643.711	-200.000	-0.000	0.013
-642.697	-21.259	-0.101	0.062
-641.682	-116.056	-0.187	0.035
-640.668	-2.869	-0.261	-0.185
-639.653	-81.226	-0.446	-0.149
-638.638	-65.871	-0.089	0.036
-637.624	-93.924	-0.152	0.042
-636.609	-112.527	-0.314	-0.063
-635.595	800.000	-0.052	-0.209
-634.580	127.524	0.054	0.070
-633.565	25.947	-0.401	-0.339
-632.551	72.901	0.024	-0.026
-631.536	-157.040	0.097	-0.006
-630.522	800.000	-0.010	0.034
-629.507	46.637	-0.095	0.089
-628.492	-73.453	0.018	-0.007
-627.478	9.098	0.140	0.107
-626.463	77.573	0.087	0.094
-625.449	452.036	-0.046	0.103
-624.434	-83.102	0.128	0.042
-623.419	-200.000	0.026	-0.209
-622.405	5.912	-0.080	0.060
-621.390	-200.000	0.025	-0.162
-620.376	-200.000	-0.018	-0.092
-619.361	800.000	-0.062	-0.209
-618.346	-171.575	-0.350	0.012
-617.332	-133.184	-0.159	-0.020
-616.317	-58.627	-0.146	-0.064
-615.303	-28.102	-0.041	-0.024
-614.288	-200.000	-0.060	0.342
-613.273	800.000	0.050	-0.215
-612.259	-100.295	-0.055	0.014
-611.244	313.378	-0.131	0.250
-610.230	608.562	0.187	-0.473
-609.215	-68.833	0.410	0.160
-608.201	427.252	0.045	-0.097
-607.186	106.879	0.187	-0.225
-606.171	-112.157	-0.053	0.011
-605.157	-133.821	0.260	0.033
-604.142	-99.073	-0.113	-0.029
-603.128	14.272	-0.159	-0.125
-602.113	34.772	-0.052	0.046
-601.098	-109.940	-0.262	-0.056
-600.084	-34.218	-0.061	-0.034
-599.069	800.000	-0.051	-0.164
-598.055	-123.266	0.105	0.017
-597.040	115.895	0.075	0.092
-596.025	266.011	0.093	-0.164
-595.011	-113.754	-0.298	0.059
-593.996	-200.000	0.061	0.281
-592.982	22.431	-0.122	-0.101
-591.967	565.650	0.026	-0.063
-590.952	210.786	0.082	-0.130
-589.938	-35.622	0.203	0.111
-588.923	800.000	-0.081	0.327
-587.909	-101.921	0.063	-0.015
-586.894	-49.827	-0.213	-0.102
-585.879	800.000	-0.030	-0.114
-584.865	-48.962	-0.263	-0.128
-583.850	71.423	0.212	-0.223
-582.836	203.801	0.048	-0.076
-581.821	-200.000	-0.026	-0.130
-580.806	11.327	0.188	-0.145
-579.792	309.145	-0.156	0.294
-578.777	143.745	0.101	-0.136
-577.763	800.000	-0.057	0.208
-576.748	119.972	-0.061	0.077
-575.733	262.431	0.133	0.233
-574.719	-129.679	-0.174	0.024
-573.704	-130.578	0.295	0.040
-572.690	46.328	0.086	-0.081
-571.675	-97.366	0.322	0.085
-570.661	166.933	0.090	0.129
-569.646	-7.816	0.017	0.012
-568.631	219.721	-0.185	0.299
-567.617	-63.058	-0.274	0.114
-566.602	47.160	-0.048	-0.045
-565.588	208.396	-0.053	0.084
-564.573	-11.853	-0.040	-0.026
-563.558	-58.119	-0.075	-0.033
-562.544	137.581	-0.209	0.277
-561.529	-200.000	-0.020	-0.126
-560.515	-91.174	0.293	0.085
-559.500	122.047	-0.066	-0.084
-558.485	4.624	-0.089	-0.066
-557.471	-200.000	0.004	0.067
-556.456	-90.548	-0.224	0.065
-555.442	-121.061	0.201	0.034
-554.427	191.569	-0.130	-0.197
-553.412	141.919	-0.210	-0.281
-552.398	74.254	0.136	0.144
-551.383	251.551	0.128	0.220
-550.369	-92.476	0.092	0.026
-549.354	-200.000	-0.020	-0.104
-548.339	-106.460	-0.118	0.027
-547.325	214.547	0.111	-0.177
-546.310	-126.926	0.181	0.027
-545.296	-43.072	-0.300	-0.154
-544.281	800.000	0.065	0.208
-543.266	70.438	-0.026	0.027
-542.252	-200.000	0.000	-0.057
-541.237	727.641	0.088	-0.236
-540.223	-200.000	-0.021	0.240
-539.208	-200.000	0.017	0.086
-538.193	76.314	0.193	0.206
-537.179	-200.000	0.012	-0.111
-536.164	-125.945	0.331	-0.050
-535.150	92.480	-0.113	0.128
-534.135	18.329	0.196	0.158
-533.121	71.496	-0.130	0.136
-532.106	-55.597	0.262	-0.118
-531.091	-23.350	-0.094	-0.057
-530.077	280.851	-0.088	-0.159
-529.062	279.600	0.131	-0.236
-528.048	89.906	0.167	0.188
-527.033	-200.000	0.001	0.183
-526.018	-200.000	-0.008	0.064
-525.004	129.746	-0.217	0.279
-523.989	-200.000	0.026	-0.224
-522.975	42.715	0.203	-0.186
-521.960	800.000	-0.077	-0.244
-520.945	800.000	-0.011	0.039
-519.931	-56.717	-0.338	-0.151
-518.916	-163.116	0.091	-0.004
-517.902	800.000	0.090	-0.275
-516.887	203.093	0.103	-0.161
-515.872	-68.082	0.094	0.037
-514.858	366.782	-0.057	0.115
-513.843	-200.000	-0.000	0.029
-512.829	-200.000	0.028	-0.147
-511.814	201.040	0.054	-0.084
-510.799	-200.000	0.088	-0.458
-509.785	-140.660	-0.241	-0.025
-508.770	178.547	-0.179	0.264
-507.756	121.071	0.418	0.524
-506.741	-9.725	-0.210	-0.141
-505.726	752.106	0.069	-0.189
-504.712	149.108	-0.285	0.389
-503.697	-78.657	0.163	-0.056
-502.683	152.668	-0.266	-0.367
-501.668	1.915	0.079	0.058
-500.653	-88.039	0.088	-0.027
-499.639	-18.918	-0.255	0.160
-498.624	218.698	-0.249	-0.400
-497.610	324.967	0.095	0.183
-496.595	-11.531	0.152	-0.101
-495.581	-169.969	-0.151	0.005
-494.566	-10.499	-0.303	-0.202
-493.551	800.000	0.140	-0.544
-492.537	-25.044	0.139	-0.083
-491.522	142.060	-0.290	-0.388
-490.508	-200.000	0.016	-0.086
-489.493	26.667	-0.170	-0.143
-488.478	-84.245	0.082	-0.026
-487.464	-200.000	-0.003	0.036
-486.449	237.917	-0.058	-0.097
-485.435	-178.147	-0.278	0.007
-484.420	-200.000	-0.021	0.251
-483.405	43.210	-0.195	0.179
-482.391	173.721	-0.120	0.174
-481.376	284.334	-0.043	0.078
-480.362	800.000	0.060	-0.208
-479.347	-163.920	0.147	-0.007
-478.332	-156.925	-0.130	0.008
-477.318	88.718	0.192	0.215
-476.303	171.405	-0.193	0.279
-475.289	-59.208	-0.193	0.084
-474.274	84.278	-0.138	0.152
-473.259	-200.000	-0.016	-0.115
-472.245	-81.784	0.397	0.131
-471.230	161.216	0.085	-0.120
-470.216	55.089	-0.143	-0.139
-469.201	77.249	0.047	-0.051
-468.186	-200.000	-0.014	0.260
-467.172	20.090	0.144	0.117
-466.157	314.301	-0.082	-0.155
-465.143	-81.266	-0.197	0.065
-464.128	115.437	-0.214	-0.264
-463.113	94.196	-0.201	0.229
-462.099	-57.062	-0.283	0.126
-461.084	11.200	0.151	-0.116
-460.070	346.381	0.055	0.108
-459.055	-142.433	-0.425	0.042
-458.040	-17.946	-0.155	-0.098
-457.026	100.496	-0.143	-0.167
-456.011	-40.576	0.216	0.113
-454.997	8.138	-0.222	-0.168
-453.982	5.218	0.321	0.238
-452.968	-162.975	0.072	0.003
-451.953	103.917	0.205	0.242
-450.938	170.131	-0.150	0.216
-449.924	-200.000	0.033	0.190
-448.909	-200.000	-0.037	-0.184
-447.895	324.694	-0.090	0.173
-446.880	104.333	-0.256	0.302
-445.865	-21.440	0.174	-0.107
-444.851	-195.428	-0.188	-0.001
-443.836	540.372	0.015	0.035
-442.822	800.000	-0.077	0.262
-441.807	-150.033	0.133	-0.010
-440.792	-36.989	0.510	0.275
-439.778	388.074	0.191	0.397
-438.763	-200.000	0.030	0.237
-437.749	-135.139	-0.158	-0.019
-436.734	800.000	0.104	-0.418
-435.719	1.489	-0.107	-0.077
-434.705	-190.824	0.120	0.001
-433.690	205.746	0.051	-0.079
-432.676	724.608	0.144	0.386
-431.661	135.756	-0.056	-0.073
-430.646	-153.096	0.100	-0.007
-429.632	307.527	-0.066	-0.123
-428.617	-107.673	0.182	-0.040
-427.603	800.000	0.057	-0.241
-426.588	-48.446	0.192	0.093
-425.573	-128.143	0.129	0.019
-424.559	770.838	0.052	0.142
-423.544	67.743	0.048	0.049
-422.530	-86.731	-0.139	0.043
-421.515	169.748	-0.341	-0.489
-420.500	-74.038	-0.207	0.075
-419.486	-200.000	-0.075	0.452
-418.471	800.000	-0.057	0.194
-417.457	210.965	-0.223	0.352
-416.442	800.000	0.080	0.342
-415.428	-200.000	0.030	-0.321
-414.413	-47.973	0.480	-0.233
-413.398	-92.101	0.407	-0.115
-412.384	152.353	0.251	-0.344
-411.369	-170.641	-0.111	-0.004
-410.355	-165.296	-0.552	-0.024
-409.340	-200.000	0.016	0.167
-408.325	118.053	-0.084	0.104
-407.311	-17.124	-0.251	0.159
-406.296	-6.386	0.268	0.183
-405.282	-123.193	-0.197	0.032
-404.267	-1.277	0.118	-0.084
-403.252	-200.000	0.019	0.109
-402.238	163.596	0.136	0.192
-401.223	800.000	-0.064	-0.233
-400.209	136.124	0.093	-0.122
-399.194	243.545	-0.095	0.161
-398.179	66.574	0.097	0.099
-397.165	-20.932	0.048	0.030
-396.150	-124.546	0.437	0.068
-395.136	-81.148	-0.142	-0.047
-394.121	-58.718	0.135	-0.059
-393.106	314.690	-0.190	-0.360
-392.092	-1.868	-0.316	-0.223
-391.077	159.742	-0.082	-0.115
-390.063	-103.062	-0.176	0.042
-389.048	17.684	0.277	0.221
-388.033	-123.695	0.262	-0.042
-387.019	-123.814	-0.057	0.009
-386.004	3.907	0.242	-0.178
-384.990	-101.475	0.292	0.071
-383.975	-109.342	-0.048	-0.010
-382.960	177.383	0.198	-0.289
-381.946	-68.668	0.038	-0.015
-380.931	800.000	-0.027	0.106
-379.917	193.097	0.109	-0.166
-378.902	367.332	-0.089	-0.181
-377.888	-98.878	0.452	-0.115
-376.873	-135.524	-0.265	-0.032
-375.858	228.220	0.052	0.084
-374.844	-68.194	0.402	0.157
-373.829	340.892	-0.071	0.138
-372.815	-46.320	0.219	0.108
-371.800	-146.740	0.122	-0.011
-370.785	-37.141	-0.050	0.027
-369.771	-187.761	0.174	-0.002
-368.756	-200.000	-0.018	0.091
-367.742	800.000	0.066	0.193
-366.727	251.991	0.065	-0.112
-365.712	-22.849	-0.440	0.266
-364.698	-166.071	0.240	-0.010
-363.683	22.486	-0.120	0.099
-362.669	-200.000	0.040	-0.195
-361.654	-200.000	-0.004	0.218
-360.639	69.937	0.197	0.203
-359.625	-103.742	0.177	-0.042
-358.610	-22.221	-0.058	-0.035
-357.596	-77.776	0.258	0.089
-356.581	-200.000	-0.003	-0.031
-355.566	-200.000	0.013	-0.119
-354.552	800.000	0.064	-0.232
-353.537	-200.000	0.020	0.092
-352.523	-78.017	-0.326	0.112
-351.508	17.473	-0.208	-0.166
-350.493	-59.795	-0.087	0.037
-349.479	-99.076	0.141	0.036
-348.464	97.128	-0.255	0.292
-347.450	67.512	-0.182	-0.186
-346.435	180.363	0.235	0.345
-345.420	-117.960	0.206	0.037
-344.406	-102.060	0.146	0.035
-343.391	-37.288	-0.204	-0.109
-342.377	24.294	-0.091	0.076
-341.362	-20.487	-0.276	0.170
-340.348	-55.347	-0.036	-0.016
-339.333	-87.244	-0.011	-0.003
-338.318	-91.936	0.282	0.080
-337.304	-26.147	0.100	-0.059
-336.289	274.130	-0.122	0.216
-335.275	-124.466	-0.136	0.021
-334.260	-123.175	0.047	-0.008
-333.245	159.876	0.172	0.240
-332.231	-60.774	0.202	-0.085
-331.216	-60.457	0.278	-0.118
-330.202	134.475	0.146	0.189
-329.187	-104.347	0.161	-0.037
-328.172	-200.000	-0.005	0.150
-327.158	457.964	-0.103	-0.229
-326.143	-179.168	-0.019	-0.000
-325.129	-54.364	-0.250	0.114
-324.114	-200.000	0.034	0.165
-323.099	-176.801	-0.324	0.008
-322.085	261.246	-0.167	-0.289
-321.070	-200.000	-0.009	0.261
-320.056	22.924	0.043	0.035
-319.041	-200.000	-0.019	0.196
-318.026	-117.080	-0.261	0.048
-317.012	74.790	0.214	0.225
-315.997	-200.000	-0.021	0.244
-314.983	-89.395	0.133	0.039
-313.968	123.338	0.254	-0.318
-312.953	394.773	0.032	0.066
-311.939	-25.068	0.193	-0.114
-310.924	-200.000	0.002	0.250
-309.910	247.117	-0.053	-0.089
-308.895	-27.250	0.037	0.021
-307.880	-200.000	0.001	0.224
-306.866	-75.928	-0.282	-0.100
-305.851	-159.799	-0.046	-0.003
-304.837	800.000	-0.049	-0.157
-303.822	53.228	-0.301	-0.288
-302.807	148.370	-0.087	-0.118
-301.793	84.459	-0.018	-0.020
-300.778	-200.000	-0.032	0.238
-299.764	101.715	-0.112	-0.131
-298.749	336.054	-0.040	-0.077
-297.735	-200.000	-0.004	-0.344
-296.720	-76.548	0.248	0.087
-295.705	-102.386	-0.085	-0.020
-294.691	-200.000	0.027	-0.247
-293.676	35.067	-0.290	-0.254
-292.662	-200.000	-0.020	-0.098
-291.647	312.230	-0.114	-0.213
-290.632	-81.875	-0.064	0.021
-289.618	-145.879	0.281	0.025
-288.603	800.000	0.040	-0.111
-287.589	-200.000	-0.032	0.174
-286.574	-200.000	-0.027	-0.132
-285.559	-108.700	-0.146	0.031
-284.545	-200.000	-0.017	0.119
-283.530	-127.913	-0.208	0.030
-282.516	512.558	-0.147	0.342
-281.501	-86.911	0.107	-0.033
-280.486	-65.016	-0.397	-0.160
-279.472	-124.496	-0.154	-0.024
-278.457	-156.007	0.491	0.031
-277.443	-69.527	-0.124	-0.047
-276.428	222.959	-0.063	0.102
-275.413	-167.328	-0.136	-0.005
-274.399	-200.000	0.004	0.157
-273.384	-93.504	-0.058	-0.016
-272.370	-123.371	-0.078	-0.012
-271.355	-156.415	-0.076	0.005
-270.340	800.000	0.101	-0.297
-269.326	-113.474	0.389	-0.076
-268.311	56.304	-0.115	0.112
-267.297	-200.000	0.017	0.183
-266.282	364.947	-0.087	-0.175
-265.267	159.144	0.195	0.271
-264.253	703.427	-0.087	0.229
-263.238	-200.000	0.001	-0.025
-262.224	46.241	-0.234	-0.216
-261.209	160.590	-0.112	-0.156
-260.195	109.139	0.077	-0.092
-259.180	-200.000	0.050	0.237
-258.165	774.362	-0.048	-0.131
-257.151	-89.937	0.151	0.044
-256.136	391.625	-0.081	-0.168
-255.122	-51.055	0.178	0.083
-254.107	-143.667	0.245	0.023
-253.092	-93.292	-0.313	0.087
-252.078	612.060	0.038	-0.096
-251.063	109.567	0.155	-0.185
-250.049	188.393	-0.159	-0.237
-249.034	800.000	0.040	0.124
-248.019	147.234	-0.161	0.217
-247.005	-26.753	-0.256	0.149
-245.990	-83.974	0.346	0.110
-244.976	286.634	-0.133	0.239
-243.961	-144.584	0.078	0.007
-242.946	119.386	0.076	-0.094
-241.932	-200.000	-0.011	0.208
-240.917	-123.691	-0.302	0.048
-239.903	-13.094	0.113	-0.074
-238.888	-103.068	0.241	0.057
-237.873	800.000	-0.039	0.141
-236.859	-22.519	-0.213	-0.128
-235.844	195.269	0.088	0.134
-234.830	330.225	0.138	0.265
-233.815	-200.000	-0.032	0.184
-232.800	417.733	0.091	0.195
-231.786	-143.190	0.135	-0.013
-230.771	-114.619	-0.134	-0.026
-229.757	-200.000	0.007	-0.155
-228.742	800.000	-0.050	0.200
-227.727	-200.000	0.025	-0.402
-226.713	404.230	-0.110	0.232
-225.698	33.262	-0.178	-0.154
-224.684	82.831	-0.233	-0.253
-223.669	166.601	-0.097	0.136
-222.655	-170.654	-0.090	-0.003
-221.640	-200.000	0.012	-0.078
-220.625	-185.304	0.377	0.006
-219.611	-99.065	0.249	-0.063
-218.596	800.000	0.093	-0.393
-217.582	39.662	0.178	-0.159
-216.567	800.000	0.070	0.304
-215.552	224.737	0.226	0.364
-214.538	800.000	0.068	-0.211
-213.523	379.381	-0.040	-0.081
-212.509	-64.094	0.178	-0.073
-211.494	-200.000	0.012	0.104
-210.479	109.225	0.270	-0.322
-209.465	361.284	0.083	-0.167
-208.450	800.000	-0.047	0.139
-207.436	-200.000	0.002	0.194
-206.421	18.441	0.061	0.048
-205.406	104.923	-0.162	0.190
-204.392	-35.853	0.081	0.044
-203.377	-119.056	0.182	0.032
-202.363	-17.023	-0.235	-0.148
-201.348	-200.000	0.023	0.219
-200.333	539.302	-0.113	0.269
-199.319	-31.127	0.294	-0.165
-198.304	-200.000	-0.009	0.154
-197.290	-65.498	-0.099	-0.040
-196.275	20.194	0.345	-0.277
-195.260	283.700	-0.051	0.092
-194.246	-200.000	0.050	-0.314
-193.231	800.000	-0.042	0.169
-192.217	-169.573	-0.372	-0.013
-191.202	800.000	0.014	0.051
-190.187	-152.377	0.437	-0.031
-189.173	-44.039	-0.228	-0.114
-188.158	-200.000	0.017	-0.189
-187.144	-61.720	-0.283	-0.118
-186.129	99.593	0.190	-0.219
-185.114	-200.000	-0.011	-0.319
-184.100	268.000	0.140	-0.245
-183.085	-52.473	-0.145	-0.067
-182.071	48.170	0.352	0.328
-181.056	347.695	0.097	0.190
-180.042	-108.016	-0.104	0.022
-179.027	221.878	-0.072	-0.115
-178.012	246.634	-0.057	-0.095
-176.998	-70.244	0.071	-0.027
-175.983	-200.000	-0.000	-0.186
-174.969	220.616	0.076	-0.122
-173.954	-200.000	-0.018	0.281
-172.939	-200.000	-0.019	0.143
-171.925	-70.394	0.364	-0.137
-170.910	800.000	0.114	-0.407
-169.896	646.213	0.081	0.205
-168.881	-106.992	-0.262	0.058
-167.866	101.540	0.083	-0.097
-166.852	800.000	-0.045	-0.140
-165.837	-69.777	0.274	-0.104
-164.823	-9.136	0.201	-0.133
-163.808	-64.820	0.080	-0.032
-162.793	99.139	0.378	0.434
-161.779	100.605	0.073	-0.085
-160.764	800.000	-0.016	-0.065
-159.750	-200.000	0.026	0.193
-158.735	-62.476	0.147	0.061
-157.720	64.689	-0.030	0.030
-156.706	-45.263	-0.290	-0.143
-155.691	-8.582	-0.123	0.082
-154.677	79.744	-0.136	0.145
-153.662	-55.700	0.110	0.049
-152.647	-93.009	0.304	-0.084
-151.633	35.168	0.081	0.070
-150.618	-109.705	0.104	-0.022
-149.604	248.761	-0.291	0.490
-148.589	-0.433	0.161	0.113
-147.574	8.908	-0.200	-0.150
-146.560	52.467	-0.191	0.181
-145.545	-110.858	0.225	-0.046
-144.531	-200.000	-0.002	-0.046
-143.516	563.941	-0.037	0.089
-142.502	55.207	-0.313	-0.301
-141.487	-200.000	0.015	-0.289
-140.472	207.638	-0.077	-0.119
-139.458	-71.679	0.227	0.084
-138.443	-105.372	-0.287	-0.065
-137.429	-135.384	-0.111	0.013
-136.414	-200.000	0.047	0.207
-135.399	179.893	0.134	0.195
-134.385	-56.684	0.179	-0.079
-133.370	-200.000	0.011	0.055
-132.356	800.000	0.053	-0.150
-131.341	258.853	-0.206	0.353
-130.326	-75.940	-0.123	0.043
-129.312	141.838	0.074	0.097
-128.297	189.201	0.082	-0.121
-127.283	311.235	0.039	0.073
-126.268	-81.292	-0.232	0.076
-125.253	-147.502	0.165	0.014
-124.239	-116.433	-0.331	0.061
-123.224	-36.272	0.145	-0.078
-122.210	-102.945	0.151	-0.036
-121.195	-77.654	0.203	-0.070
-120.180	-192.176	0.118	0.001
-119.166	-53.923	-0.146	-0.066
-118.151	-200.000	0.051	0.278
-117.137	-96.332	0.082	-0.022
-116.122	-65.566	-0.129	-0.051
-115.107	659.678	0.054	0.138
-114.093	20.683	-0.089	-0.071
-113.078	800.000	0.059	0.223
-112.064	754.553	0.075	-0.202
-111.049	-60.234	-0.177	-0.075
-110.034	-129.735	-0.221	-0.030
-109.020	-120.483	-0.093	0.016
-108.005	-118.455	0.128	-0.022
-106.991	121.867	-0.182	-0.226
-105.976	-98.926	0.195	0.049
-104.962	-55.498	-0.367	-0.163
-103.947	387.632	-0.061	0.124
-102.932	461.414	-0.231	0.511
-101.918	332.318	0.094	0.180
-100.903	-106.241	0.250	-0.056
-99.889	-200.000	-0.011	0.205
-98.874	141.709	-0.227	-0.298
-97.859	293.791	0.096	0.175
-96.845	509.342	-0.074	0.169
-95.830	47.548	-0.162	-0.150
-94.816	-200.000	0.018	0.082
-93.801	-70.799	-0.203	0.076
-92.786	-200.000	0.004	-0.157
-91.772	-110.355	-0.208	0.043
-90.757	41.403	-0.028	-0.025
-89.743	-200.000	-0.016	-0.130
-88.728	7.682	0.271	0.201
-87.713	54.360	-0.181	0.173
-86.699	226.635	0.094	-0.151
-85.684	-53.686	-0.144	0.065
-84.670	-107.111	0.287	-0.063
-83.655	-200.000	0.022	-0.326
-82.640	-29.720	0.401	0.227
-81.626	800.000	0.062	0.203
-80.611	-74.403	0.211	0.076
-79.597	111.894	0.115	-0.137
-78.582	242.635	0.101	0.167
-77.567	-108.306	-0.267	0.057
-76.553	-181.462	0.061	-0.001
-75.538	-8.008	0.307	0.205
-74.524	103.542	-0.108	-0.125
-73.509	-34.308	-0.043	0.023
-72.494	43.298	-0.076	0.068
-71.480	-200.000	-0.025	-0.144
-70.465	-18.244	0.341	-0.211
-69.451	-88.335	0.444	-0.132
-68.436	-200.000	-0.055	0.324
-67.422	-132.336	-0.279	0.036
-66.407	130.897	-0.106	-0.135
-65.392	262.384	0.067	-0.116
-64.378	-114.953	0.067	0.013
-63.363	-52.547	0.406	-0.186
-62.349	-17.220	-0.254	-0.158
-61.334	412.507	-0.574	-1.208
-60.319	245.487	0.248	0.413
-59.305	415.495	-0.416	-0.878
-58.290	417.202	0.533	1.126
-57.276	333.166	0.762	1.458
-56.261	-200.000	96.793	586.048
-55.246	586.586	1403.508	3418.869
-54.232	185.686	2612.008	3842.469
-53.217	107.492	2330.437	2745.190
-52.203	37.720	2086.395	1834.189
-51.188	32.681	2000.997	1713.381
-50.173	31.124	1981.637	1682.708
-49.159	46.308	2032.742	1865.149
-48.144	47.275	2050.425	1890.143
-47.130	33.322	2011.593	1728.042
-46.115	30.986	2001.075	1697.685
-45.100	30.830	1998.332	1693.876
-44.086	30.938	1995.133	1692.082
-43.071	30.896	1993.273	1690.054
-42.057	30.889	1990.922	1687.923
-41.042	30.882	1988.767	1685.966
-40.027	30.864	1986.985	1684.226
-39.013	30.911	1985.151	1683.029
-37.998	30.944	1983.530	1681.888
-36.984	30.940	1981.698	1680.235
-35.969	30.951	1979.760	1678.625
-34.954	30.985	1977.230	1676.720
-33.940	30.909	1976.794	1675.598
-32.925	31.041	1974.246	1674.553
-31.911	31.044	1972.856	1673.339
-30.896	30.965	1971.581	1671.480
-29.881	31.001	1969.790	1670.220
-28.867	31.020	1968.208	1668.978
-27.852	31.020	1966.496	1667.465
-26.838	31.107	1964.496	1666.482
-25.823	31.119	1962.425	1664.765
-24.809	31.068	1960.791	1662.854
-23.794	30.965	1959.837	1661.060
-22.779	31.022	1957.566	1659.583
-21.765	30.948	1956.130	1657.642
-20.750	31.064	1953.785	1656.616
-19.736	30.921	1953.087	1654.688
-18.721	31.057	1950.878	1653.956
-17.706	31.004	1949.353	1652.129
-16.692	30.946	1947.773	1650.210
-15.677	31.033	1946.090	1649.493
-14.663	31.118	1944.395	1648.738
-13.648	31.003	1943.799	1647.151
-12.633	30.978	1942.448	1645.718
-11.619	31.060	1940.656	1644.856
-10.604	31.026	1939.089	1643.170
-9.590	30.989	1938.302	1642.113
-8.575	31.001	1936.478	1640.608
-7.560	31.044	1934.788	1639.490
-6.546	31.097	1933.775	1639.028
-5.531	30.948	1933.264	1637.220
-4.517	30.969	1931.910	1636.199
-3.502	31.046	1930.411	1635.534
-2.487	31.010	1929.331	1634.238
-1.473	31.006	1928.500	1633.437
-0.458	31.247	1923.317	1631.088
0.556	33.352	1904.391	1604.658
1.571	29.179	1885.303	1553.332
2.586	25.255	1907.781	1538.152
3.600	24.311	1943.579	1558.628
4.615	23.232	1937.374	1544.110
5.629	18.046	1835.319	1419.674
6.644	9.258	1717.816	1260.039
7.659	4.730	1681.566	1198.533
8.673	4.463	1677.791	1193.685
9.688	4.523	1677.079	1193.528
10.702	4.576	1675.662	1192.823
11.717	4.578	1671.954	1190.094
12.731	5.164	1672.073	1194.557
13.746	11.003	1685.727	1249.141
14.761	19.168	1703.041	1324.941
15.775	22.502	1707.927	1354.301
16.790	22.349	1706.925	1352.212
17.804	21.459	1703.807	1342.795
18.819	20.558	1700.814	1333.405
19.834	19.884	1698.375	1326.215
20.848	19.751	1697.441	1324.347
21.863	19.597	1695.856	1321.813
22.877	19.557	1694.470	1320.315
23.892	19.326	1693.006	1317.288
24.907	19.247	1692.567	1316.227
25.921	19.276	1691.514	1315.512
26.936	19.165	1690.184	1313.516
27.950	19.167	1689.319	1312.745
28.965	19.207	1689.192	1312.837
29.980	19.290	1688.248	1312.617
30.994	19.359	1687.398	1312.363
32.009	19.501	1685.823	1312.104
33.023	19.625	1684.784	1312.118
34.038	19.661	1684.253	1311.861
35.053	19.615	1683.033	1310.446
36.067	19.466	1681.674	1308.148
37.082	19.397	1680.558	1306.637
38.096	19.309	1679.955	1305.390
39.111	19.425	1679.173	1305.541
40.126	19.579	1678.048	1305.715
41.140	19.455	1677.356	1304.129
42.155	19.318	1675.100	1301.219
43.169	19.055	1673.209	1297.658
44.184	18.849	1672.691	1295.588
45.199	18.944	1671.024	1294.897
46.213	18.923	1670.412	1294.148
47.228	19.051	1669.517	1294.303
48.242	19.131	1669.161	1294.515
49.257	19.277	1667.870	1294.491
50.271	19.335	1666.846	1294.020
51.286	19.267	1665.320	1292.208
52.301	19.285	1663.807	1291.059
53.315	19.307	1662.359	1289.987
54.330	19.212	1660.980	1288.089
55.344	19.173	1659.276	1286.364
56.359	19.031	1657.290	1283.650
57.374	19.102	1656.212	1283.232
58.388	19.045	1655.773	1282.355
59.403	18.942	1654.433	1280.434
60.417	18.939	1652.672	1278.933
61.432	18.907	1651.794	1277.906
62.447	18.892	1650.939	1277.022
63.461	18.735	1649.542	1274.662
64.476	18.699	1648.509	1273.485
65.490	18.744	1647.146	1272.650
66.505	18.655	1646.054	1271.039
67.520	18.651	1645.205	1270.240
68.534	18.681	1644.510	1269.810
69.549	18.695	1643.230	1268.813
70.563	18.773	1641.616	1268.035
71.578	18.707	1640.339	1266.445
72.593	18.605	1639.305	1264.781
73.607	18.524	1638.220	1263.240
74.622	18.537	1636.908	1262.211
75.636	18.549	1636.459	1261.843
76.651	18.565	1635.191	1260.866
77.666	18.615	1634.853	1260.863
78.680	18.563	1634.141	1259.822
79.695	18.614	1633.389	1259.504
80.709	18.758	1632.431	1259.711
81.724	18.828	1631.727	1259.567
82.739	18.850	1631.557	1259.487
83.753	19.106	1629.849	1259.930
84.768	19.108	1629.367	1259.459
85.782	19.302	1628.704	1260.253
86.797	19.561	1628.744	1262.068
87.812	19.503	1627.593	1260.639
88.826	19.517	1625.849	1259.281
89.841	19.401	1624.931	1257.617
90.855	19.352	1624.155	1256.545
91.870	19.442	1623.166	1256.327
92.884	19.559	1622.359	1256.439
93.899	19.488	1621.966	1255.511
94.914	19.624	1620.198	1255.018
95.928	19.574	1619.117	1253.706
96.943	19.622	1617.897	1252.997
97.957	19.547	1616.346	1251.144
98.972	19.493	1615.128	1249.697
99.987	19.462	1613.532	1248.126
101.001	19.385	1612.104	1246.354
102.016	19.486	1610.625	1245.834
103.030	19.434	1609.497	1244.476
104.045	19.438	1607.969	1243.208
105.060	19.457	1606.600	1242.176
106.074	19.385	1605.082	1240.376
107.089	19.088	1603.647	1237.023
108.103	18.878	1601.243	1233.555
109.118	18.705	1600.056	1231.290
110.133	18.633	1598.602	1229.544
111.147	18.606	1597.401	1228.317
112.162	18.672	1596.216	1227.774
113.176	18.771	1594.755	1227.250
114.191	18.753	1593.708	1226.201
115.206	18.894	1592.026	1225.810
116.220	18.908	1590.822	1224.869
117.235	18.910	1589.514	1223.769
118.249	18.855	1588.349	1222.376
119.264	18.927	1586.775	1221.569
120.279	18.752	1585.639	1219.344
121.293	18.667	1584.433	1217.702
122.308	18.702	1582.352	1216.245
123.322	18.614	1580.552	1214.130
124.337	18.483	1579.644	1212.398
125.352	18.491	1577.890	1210.999
126.366	18.559	1577.052	1210.730
127.381	18.421	1575.579	1208.521
128.395	18.543	1574.461	1208.413
129.410	18.465	1573.317	1206.884
130.424	18.614	1571.922	1206.751
131.439	18.540	1570.993	1205.411
132.454	18.759	1569.417	1205.635
133.468	18.757	1568.484	1204.796
134.483	18.873	1566.846	1204.246
135.497	18.884	1565.917	1203.499
136.512	18.877	1564.296	1202.097
137.527	18.946	1563.021	1201.495
138.541	18.936	1561.754	1200.348
139.556	18.981	1560.777	1199.801
140.570	19.101	1559.134	1199.269
141.585	19.159	1557.740	1198.497
142.600	19.175	1557.244	1198.119
143.614	19.345	1556.172	1198.368
144.629	19.450	1554.907	1198.018
145.643	19.529	1553.608	1197.461
146.658	19.511	1552.732	1196.553
147.673	19.525	1550.385	1194.738
148.687	19.304	1549.298	1192.264
149.702	19.114	1547.970	1189.825
150.716	18.998	1546.219	1187.574
151.731	19.010	1544.667	1186.360
152.746	18.968	1543.166	1184.808
153.760	18.962	1541.770	1183.595
154.775	19.053	1541.027	1183.547
155.789	19.209	1539.575	1183.397
156.804	19.181	1538.483	1182.261
157.819	19.192	1537.684	1181.618
158.833	19.234	1536.357	1180.777
159.848	19.384	1535.193	1180.807
160.862	19.546	1534.134	1180.994
161.877	19.611	1533.142	1180.575
162.892	19.469	1531.620	1178.328
163.906	19.076	1530.344	1174.562
164.921	19.002	1528.559	1172.579
165.935	18.933	1527.881	1171.484
166.950	19.045	1526.933	1171.422
167.964	19.202	1525.823	1171.532
168.979	19.099	1524.993	1170.092
169.994	19.153	1523.834	1169.464
171.008	19.115	1522.635	1168.183
172.023	19.051	1521.617	1166.862
173.037	19.119	1520.369	1166.266
174.052	19.396	1519.581	1167.434
175.067	19.387	1518.803	1166.671
176.081	19.285	1517.385	1164.790
177.096	19.060	1515.701	1161.878
178.110	18.973	1514.754	1160.460
179.125	18.994	1513.103	1159.233
180.140	19.026	1512.243	1158.687
181.154	19.064	1511.552	1158.307
182.169	19.386	1510.273	1159.395
183.183	19.280	1509.626	1158.080
184.198	19.398	1508.693	1158.053
185.213	19.575	1507.110	1157.923
186.227	19.568	1506.121	1157.016
187.242	19.509	1505.604	1156.119
188.256	19.678	1504.399	1156.228
189.271	19.645	1503.519	1155.227
190.286	19.771	1502.892	1155.487
191.300	19.670	1501.300	1153.486
192.315	19.339	1499.179	1149.544
193.329	19.042	1497.712	1146.343
194.344	18.899	1496.973	1144.720
195.359	19.071	1496.046	1145.056
196.373	19.122	1494.826	1144.356
197.388	19.200	1494.159	1144.262
198.402	19.261	1493.031	1143.708
199.417	19.595	1491.980	1145.012
200.432	19.690	1490.978	1144.774
201.446	19.829	1490.672	1145.357
202.461	20.018	1489.462	1145.573
203.475	20.038	1488.702	1145.024
204.490	20.086	1487.855	1144.589
205.504	19.836	1486.590	1141.861
206.519	19.663	1484.898	1139.320
207.534	19.552	1483.898	1137.718
208.548	19.565	1482.859	1136.909
209.563	19.567	1481.613	1135.864
210.577	19.502	1480.593	1134.557
211.592	19.624	1479.235	1134.215
212.607	19.580	1479.529	1134.051
213.621	19.757	1478.960	1134.678
214.636	19.900	1477.586	1134.463
215.650	19.888	1476.686	1133.593
216.665	19.721	1475.864	1131.767
217.680	19.821	1475.079	1131.720
218.694	19.935	1474.639	1132.025
219.709	19.987	1474.091	1131.848
220.723	19.996	1472.836	1130.837
221.738	19.957	1471.856	1129.735
222.753	19.925	1470.981	1128.755
223.767	19.937	1470.126	1128.078
224.782	19.943	1468.424	1126.707
225.796	19.941	1467.817	1126.133
226.811	20.140	1467.111	1126.784
227.826	20.230	1466.108	1126.497
228.840	20.014	1465.603	1124.609
229.855	19.902	1464.024	1122.570
230.869	19.914	1463.221	1121.931
231.884	19.831	1462.071	1120.411
232.899	19.794	1461.160	1119.376
233.913	19.792	1459.245	1117.799
234.928	19.638	1458.337	1116.010
235.942	19.514	1457.397	1114.391
236.957	19.625	1455.506	1113.559
237.972	19.570	1454.565	1112.388
238.986	19.559	1453.372	1111.307
240.001	19.592	1452.943	1111.092
241.015	19.673	1451.600	1110.487
242.030	19.652	1450.425	1109.355
243.045	19.774	1449.716	1109.498
244.059	19.919	1448.596	1109.475
245.074	19.968	1447.996	1109.232
246.088	19.945	1447.488	1108.592
247.103	19.926	1447.147	1108.114
248.117	20.010	1446.139	1107.781
249.132	20.165	1445.128	1107.897
250.147	20.356	1444.591	1108.612
251.161	20.578	1444.495	1109.855
252.176	20.757	1444.190	1110.664
253.190	20.782	1443.298	1110.042
254.205	20.775	1442.602	1109.358
255.220	20.877	1441.490	1109.056
256.234	21.004	1441.167	1109.517
257.249	20.898	1439.992	1107.841
258.263	20.877	1439.520	1107.246
259.278	20.925	1438.624	1106.766
260.293	20.846	1437.590	1105.373
261.307	20.904	1436.588	1104.869
262.322	20.913	1436.037	1104.405
263.336	21.029	1435.151	1104.358
264.351	21.048	1433.972	1103.478
265.366	21.070	1432.986	1102.757
266.380	21.004	1432.471	1101.845
267.395	21.067	1430.979	1100.998
268.409	21.047	1430.566	1100.456
269.424	20.961	1429.308	1098.854
270.439	20.785	1428.286	1096.861
271.453	20.855	1426.747	1096.022
272.468	20.704	1426.356	1094.675
273.482	20.697	1425.593	1093.948
274.497	20.669	1424.335	1092.712
275.512	20.671	1423.435	1091.936
276.526	20.702	1422.707	1091.473
277.541	20.709	1421.256	1090.309
278.555	20.671	1420.955	1089.744
279.570	20.705	1420.257	1089.325
280.585	20.839	1419.035	1089.127
281.599	20.931	1419.272	1089.791
282.614	21.075	1417.968	1089.593
283.628	21.015	1416.663	1088.118
284.643	20.871	1414.856	1085.740
285.657	20.755	1414.444	1084.600
286.672	20.770	1413.239	1083.676
287.687	20.815	1412.051	1082.946
288.701	20.861	1411.776	1082.926
289.716	20.865	1410.789	1082.096
290.730	20.915	1409.742	1081.511
291.745	20.774	1409.217	1080.137
292.760	20.927	1407.912	1079.988
293.774	20.898	1406.895	1078.933
294.789	20.919	1406.437	1078.617
295.803	21.005	1405.827	1078.588
296.818	21.221	1404.745	1078.999
297.833	21.037	1403.466	1076.779
298.847	20.894	1402.555	1075.108
299.862	20.830	1401.401	1073.731
300.876	20.816	1400.566	1072.912
301.891	20.914	1399.898	1072.906
302.906	20.984	1398.650	1072.284
303.920	21.049	1398.494	1072.474
304.935	21.191	1398.376	1073.157
305.949	21.259	1397.377	1072.717
306.964	21.404	1396.638	1072.941
307.979	21.606	1395.131	1072.928
308.993	21.506	1394.387	1071.648
310.008	21.242	1393.176	1069.009
311.022	21.392	1392.239	1069.109
312.037	21.348	1391.638	1068.287
313.052	21.433	1390.563	1067.886
314.066	21.267	1389.582	1066.023
315.081	21.155	1388.191	1064.178
316.095	21.085	1386.621	1062.454
317.110	20.936	1385.333	1060.467
318.125	20.915	1384.586	1059.675
319.139	20.989	1383.712	1059.362
320.154	20.911	1382.861	1058.146
321.168	20.961	1381.858	1057.583
322.183	21.034	1380.332	1056.769
323.197	20.992	1379.932	1056.112
324.212	21.001	1379.217	1055.527
325.227	21.009	1378.490	1054.924
326.241	21.117	1377.315	1054.583
327.256	21.113	1376.670	1053.974
328.270	21.135	1375.711	1053.282
329.285	21.039	1374.915	1051.996
330.300	21.031	1373.806	1051.007
331.314	21.110	1372.821	1050.638
332.329	21.134	1372.022	1050.079
333.343	21.019	1371.412	1048.827
334.358	21.054	1370.542	1048.278
335.373	21.217	1369.611	1048.452
336.387	21.364	1368.995	1048.772
337.402	21.336	1368.590	1048.200
338.416	21.333	1367.533	1047.281
339.431	21.504	1366.876	1047.708
340.446	21.487	1366.658	1047.344
341.460	21.563	1365.617	1046.909
342.475	21.743	1364.387	1046.951
343.489	21.728	1364.025	1046.488
344.504	21.876	1362.734	1046.290
345.519	21.980	1361.659	1045.993
346.533	22.055	1360.512	1045.464
347.548	21.930	1360.401	1044.540
348.562	22.088	1359.410	1044.626
349.577	22.152	1358.549	1044.252
350.592	21.952	1357.877	1042.455
351.606	21.619	1356.800	1039.560
352.621	21.511	1355.134	1037.551
353.635	21.426	1354.150	1036.201
354.650	21.386	1353.122	1035.086
355.665	21.313	1352.202	1033.860
356.679	21.505	1351.108	1034.066
357.694	21.567	1349.684	1033.255
358.708	21.630	1349.121	1033.105
359.723	21.641	1348.473	1032.581
360.738	21.776	1347.560	1032.586
361.752	21.727	1346.617	1031.481
362.767	21.800	1344.853	1030.467
363.781	21.700	1344.044	1029.169
364.796	21.789	1343.492	1029.177
365.810	21.785	1343.081	1028.750
366.825	21.875	1342.876	1029.031
367.840	21.989	1342.159	1029.057
368.854	22.128	1341.367	1029.171
369.869	22.226	1341.053	1029.415
370.883	22.309	1340.072	1029.054
371.898	22.274	1339.354	1028.207
372.913	22.176	1337.910	1026.440
373.927	22.185	1336.913	1025.633
374.942	22.106	1336.830	1025.017
375.956	22.184	1336.162	1024.873
376.971	22.303	1335.083	1024.648
377.986	22.126	1334.031	1022.718
379.000	22.240	1333.417	1022.819
380.015	22.358	1332.817	1022.954
381.029	22.393	1332.281	1022.654
382.044	22.546	1331.685	1022.997
383.059	22.392	1330.959	1021.457
384.073	22.429	1330.347	1021.109
385.088	22.456	1329.400	1020.450
386.102	22.466	1328.821	1019.971
387.117	22.437	1327.949	1019.046
388.132	22.438	1326.867	1018.129
389.146	22.246	1325.681	1016.020
390.161	22.021	1325.066	1014.161
391.175	22.082	1324.014	1013.615
392.190	22.040	1323.018	1012.525
393.205	22.131	1322.694	1012.709
394.219	22.318	1321.982	1013.150
395.234	22.475	1320.297	1012.676
396.248	22.373	1318.838	1010.881
397.263	22.149	1317.836	1008.737
398.278	22.140	1316.570	1007.626
399.292	22.125	1315.089	1006.319
400.307	22.091	1313.918	1005.136
401.321	22.057	1312.645	1003.879
402.336	21.925	1312.035	1002.570
403.350	21.964	1310.850	1001.800
404.365	21.926	1310.169	1000.971
405.380	21.955	1309.546	1000.573
406.394	21.989	1308.740	1000.065
407.409	22.244	1307.623	1000.574
408.423	22.227	1307.338	1000.170
409.438	22.537	1306.775	1001.413
410.453	22.458	1306.515	1000.675
411.467	22.597	1305.877	1000.889
412.482	22.604	1305.081	1000.230
413.496	22.796	1304.089	1000.472
414.511	22.788	1303.303	999.732
415.526	22.895	1303.066	1000.070
416.540	22.827	1302.809	999.399
417.555	23.007	1301.636	999.425
418.569	23.056	1300.914	999.063
419.584	22.948	1300.791	998.266
420.599	22.852	1299.770	996.851
421.613	145.350	1432.996	1795.056
422.628	140.711	1452.391	1795.175
