DTS Sentinel unit serial number:	SN413079Multiplexer serial number:	ORYXHardware model number:	OX4-SRSoftware version number:	ORYX F/W v4.00 Oryx Data Collector v3.7.2.0data status	okinstallation	princeton_trtdifferential loss correction	single-endedforward channel	channel 4reverse channel	N/Adate	2019/09/18time	02:49:35forward acquisition time	60.00reverse acquisition time	0.00gamma	496.2192k internal	0.2334k external	0.2334temperature offset calibration	0.9997default loss term (dB/km)	0.3790temperature slope calibration	1.0000multiplexer offset coefficient	1.0000multiplexer slope coefficient	1.0000fibre end	0.00T internal ref (°C)	22.77T ext. ref 1 (°C)	0.17T ext. ref 2 (°C)	16.59length (m)	temperature (°C)	Stokes	anti-Stokes-747.200	-59.524	0.120	-0.052
-746.185	800.000	0.030	0.108
-745.171	47.166	0.142	0.132
-744.156	198.707	-0.175	0.269
-743.142	-9.549	0.293	0.196
-742.127	-22.504	-0.285	0.174
-741.112	144.946	-0.218	-0.292
-740.098	-200.000	0.030	-0.314
-739.083	39.977	0.335	-0.302
-738.069	9.606	-0.254	0.193
-737.054	192.728	0.087	0.132
-736.039	37.402	-0.149	-0.133
-735.025	-200.000	0.034	0.223
-734.010	-130.424	0.132	-0.018
-732.996	447.531	-0.053	0.117
-731.981	-0.789	-0.215	-0.153
-730.966	-111.423	-0.087	-0.018
-729.952	-115.111	-0.267	-0.051
-728.937	234.723	0.028	-0.046
-727.923	-67.180	0.024	-0.009
-726.908	97.956	-0.059	-0.068
-725.894	-165.222	-0.175	-0.008
-724.879	84.266	0.141	-0.155
-723.864	214.734	-0.234	0.372
-722.850	800.000	-0.017	-0.060
-721.835	390.016	-0.026	0.054
-720.821	-34.380	-0.211	-0.116
-719.806	138.977	-0.016	-0.021
-718.791	-200.000	0.016	-0.077
-717.777	120.045	-0.291	-0.363
-716.762	-164.421	-0.269	-0.012
-715.748	77.861	-0.094	0.101
-714.733	252.916	0.072	-0.124
-713.718	57.313	0.048	-0.047
-712.704	-154.721	0.190	-0.013
-711.689	800.000	-0.023	-0.086
-710.675	-57.907	0.187	-0.082
-709.660	204.401	-0.090	0.140
-708.645	-144.091	0.160	0.015
-707.631	-200.000	-0.006	0.103
-706.616	-29.689	-0.186	-0.107
-705.602	-118.004	0.210	0.038
-704.587	36.064	-0.018	-0.016
-703.572	-95.074	-0.222	-0.060
-702.558	406.596	0.073	0.154
-701.543	-42.064	0.284	-0.146
-700.529	22.613	0.150	-0.123
-699.514	547.620	0.148	0.355
-698.499	-85.505	0.344	0.107
-697.485	-153.997	0.214	0.015
-696.470	182.479	0.048	0.071
-695.456	-40.346	0.308	-0.161
-694.441	-3.741	0.078	-0.054
-693.426	-200.000	-0.013	-0.140
-692.412	227.703	-0.185	-0.302
-691.397	-126.250	0.160	-0.024
-690.383	-200.000	-0.040	0.274
-689.368	-10.101	-0.130	0.087
-688.354	-105.028	-0.251	0.058
-687.339	-93.225	-0.266	-0.074
-686.324	159.260	-0.091	-0.127
-685.310	69.579	-0.160	0.166
-684.295	-132.480	-0.150	0.019
-683.281	-101.954	-0.115	-0.028
-682.266	-200.000	0.026	-0.243
-681.251	800.000	-0.102	-0.400
-680.237	135.451	0.195	0.254
-679.222	-22.154	0.049	-0.030
-678.208	-71.253	-0.177	0.067
-677.193	-200.000	0.005	-0.051
-676.178	243.840	0.198	-0.333
-675.164	120.461	-0.216	-0.269
-674.149	800.000	0.033	0.112
-673.135	91.214	-0.147	-0.165
-672.120	223.351	0.065	0.106
-671.105	-33.874	0.245	-0.135
-670.091	-72.664	-0.165	-0.061
-669.076	14.940	0.257	-0.202
-668.062	-200.000	0.088	-0.450
-667.047	-200.000	0.015	-0.213
-666.032	800.000	0.074	-0.243
-665.018	-18.717	-0.124	0.078
-664.003	26.209	-0.075	-0.063
-662.989	125.820	-0.248	-0.314
-661.974	-192.844	-0.119	-0.001
-660.959	82.507	0.086	0.094
-659.945	33.484	0.178	-0.155
-658.930	-106.794	-0.278	-0.062
-657.916	-94.436	-0.214	0.059
-656.901	78.757	0.167	-0.179
-655.886	160.938	0.092	0.128
-654.872	101.430	-0.089	-0.104
-653.857	-15.709	0.180	-0.115
-652.843	-71.588	-0.354	0.133
-651.828	80.690	-0.319	0.344
-650.814	-34.561	0.224	-0.123
-649.799	-200.000	0.051	0.479
-648.784	207.218	0.159	0.249
-647.770	-200.000	-0.026	-0.337
-646.755	-106.381	-0.145	-0.032
-645.741	-75.418	0.103	0.037
-644.726	160.718	0.135	0.188
-643.711	-117.463	0.266	-0.048
-642.697	522.787	-0.048	-0.114
-641.682	-41.485	0.056	-0.029
-640.668	-114.183	0.151	-0.029
-639.653	194.696	0.086	0.131
-638.638	225.164	0.024	-0.038
-637.624	-159.548	-0.253	0.014
-636.609	151.260	0.118	-0.160
-635.595	-200.000	0.067	-0.387
-634.580	-84.284	-0.191	-0.061
-633.565	800.000	0.012	0.049
-632.551	-49.422	-0.450	0.215
-631.536	-103.693	0.394	0.092
-630.522	-200.000	0.015	0.286
-629.507	-81.563	-0.375	-0.123
-628.492	-22.148	0.103	-0.062
-627.478	800.000	0.047	-0.191
-626.463	396.882	0.124	0.259
-625.449	311.880	0.047	-0.089
-624.434	-39.928	0.063	0.033
-623.419	335.950	0.076	-0.147
-622.405	-188.879	0.217	0.003
-621.390	800.000	-0.096	0.391
-620.376	-66.697	-0.035	0.014
-619.361	117.328	-0.120	0.148
-618.346	721.793	-0.160	-0.426
-617.332	800.000	-0.055	-0.180
-616.317	-113.540	-0.294	-0.058
-615.303	-108.478	0.222	-0.048
-614.288	-200.000	-0.015	0.128
-613.273	156.546	-0.138	0.191
-612.259	-154.679	-0.295	-0.020
-611.244	240.095	-0.261	0.435
-610.230	57.356	-0.413	0.403
-609.215	-200.000	0.034	0.457
-608.201	119.548	0.206	0.255
-607.186	430.558	-0.083	0.179
-606.171	-22.397	-0.248	-0.150
-605.157	-115.211	0.187	-0.035
-604.142	72.308	-0.164	-0.171
-603.128	-137.609	0.090	0.010
-602.113	-200.000	-0.021	-0.188
-601.098	-17.592	0.327	0.206
-600.084	-48.316	0.352	-0.169
-599.069	800.000	0.060	-0.198
-598.055	-154.604	0.229	0.015
-597.040	412.886	0.079	0.168
-596.025	800.000	0.015	0.042
-595.011	43.893	-0.136	0.125
-593.996	293.727	-0.118	-0.215
-592.982	31.121	0.294	-0.252
-591.967	112.627	0.058	-0.070
-590.952	256.277	0.147	0.252
-589.938	166.702	0.117	-0.166
-588.923	177.341	0.071	-0.103
-587.909	-200.000	-0.003	0.032
-586.894	432.719	0.033	0.071
-585.879	68.172	-0.252	0.257
-584.865	31.832	-0.028	0.024
-583.850	9.295	-0.193	0.146
-582.836	800.000	-0.088	0.307
-581.821	102.589	0.080	-0.093
-580.806	-200.000	0.057	-0.413
-579.792	-65.757	0.332	0.133
-578.777	-156.777	-0.100	0.006
-577.763	562.170	0.035	-0.083
-576.748	239.145	0.096	0.159
-575.733	-144.862	-0.220	0.020
-574.719	42.995	-0.131	0.119
-573.704	-71.088	-0.046	-0.017
-572.690	-200.000	-0.005	-0.437
-571.675	-66.871	0.179	-0.071
-570.661	232.025	-0.049	-0.081
-569.646	-200.000	-0.329	0.000
-568.631	-143.513	-0.214	-0.020
-567.617	-45.957	0.168	-0.083
-566.602	19.665	-0.181	-0.145
-565.588	-161.885	0.273	-0.014
-564.573	291.664	0.162	-0.294
-563.558	110.309	-0.115	-0.138
-562.544	-74.395	-0.133	-0.048
-561.529	800.000	-0.056	-0.176
-560.515	-31.065	-0.233	-0.131
-559.500	-143.754	-0.303	0.029
-558.485	342.540	0.031	0.061
-557.471	144.541	-0.102	-0.135
-556.456	792.347	-0.071	-0.195
-555.442	-109.848	0.029	-0.006
-554.427	123.085	-0.092	-0.115
-553.412	-200.000	-0.017	-0.078
-552.398	18.940	0.032	0.026
-551.383	-200.000	0.047	0.248
-550.369	800.000	0.019	-0.069
-549.354	-26.860	0.200	-0.117
-548.339	213.499	-0.069	0.109
-547.325	-200.000	0.017	-0.235
-546.310	-51.049	-0.165	0.077
-545.296	14.286	-0.208	0.162
-544.281	386.125	0.141	-0.291
-543.266	-61.174	0.206	0.087
-542.252	56.794	-0.074	-0.072
-541.237	137.412	-0.022	0.028
-540.223	-81.573	-0.244	-0.080
-539.208	376.970	0.136	0.276
-538.193	-200.000	0.008	-0.307
-537.179	91.974	-0.193	-0.216
-536.164	260.297	-0.071	-0.123
-535.150	20.822	0.215	-0.173
-534.135	-86.159	-0.305	0.094
-533.121	-95.069	0.264	-0.071
-532.106	186.809	-0.116	0.173
-531.091	-200.000	0.021	-0.110
-530.077	38.611	0.088	0.078
-529.062	800.000	-0.073	0.292
-528.048	375.813	0.064	0.130
-527.033	800.000	0.035	0.132
-526.018	-200.000	0.016	0.211
-525.004	800.000	-0.018	-0.054
-523.989	22.016	-0.176	0.143
-522.975	-56.787	-0.255	0.112
-521.960	-172.466	0.081	-0.003
-520.945	-69.286	-0.195	-0.075
-519.931	800.000	0.020	-0.084
-518.916	98.999	0.051	0.059
-517.902	-99.437	0.215	-0.054
-516.887	21.604	-0.212	0.172
-515.872	370.027	-0.077	0.156
-514.858	680.200	0.048	0.125
-513.843	2.959	-0.327	0.237
-512.829	-123.583	0.324	0.051
-511.814	495.214	0.034	0.077
-510.799	289.204	0.054	-0.097
-509.785	-34.269	-0.194	-0.106
-508.770	352.422	-0.110	-0.217
-507.756	-200.000	0.027	-0.185
-506.741	10.572	-0.405	-0.307
-505.726	454.413	0.031	-0.069
-504.712	102.261	0.203	0.237
-503.697	-200.000	0.014	-0.069
-502.683	-176.868	0.183	-0.005
-501.668	-200.000	-0.070	-0.311
-500.653	-200.000	0.053	-0.359
-499.639	-200.000	0.017	0.160
-498.624	-148.121	0.234	-0.019
-497.610	50.361	-0.230	0.217
-496.595	-95.946	-0.214	-0.057
-495.581	-12.133	-0.165	0.107
-494.566	-25.523	-0.154	0.090
-493.551	48.477	0.105	-0.098
-492.537	-81.037	-0.062	0.020
-491.522	-19.277	0.047	0.029
-490.508	-88.947	-0.223	0.066
-489.493	-200.000	0.059	-0.282
-488.478	-32.646	-0.298	0.165
-487.464	290.958	0.085	0.154
-486.449	56.621	0.235	-0.228
-485.435	-71.248	0.242	0.090
-484.420	2.914	0.083	0.060
-483.405	-80.827	0.308	0.102
-482.391	204.789	-0.105	-0.163
-481.376	349.668	-0.151	0.296
-480.362	-140.909	-0.628	-0.064
-479.347	629.042	-0.198	0.499
-478.332	-200.000	-0.030	0.266
-477.318	-135.469	-0.117	-0.014
-476.303	202.842	-0.170	0.262
-475.289	-0.333	0.210	0.148
-474.274	-122.326	-0.327	0.053
-473.259	201.479	-0.071	-0.109
-472.245	-121.271	-0.141	0.023
-471.230	96.781	-0.099	0.113
-470.216	-200.000	-0.027	0.520
-469.201	738.867	0.118	-0.314
-468.186	-19.495	0.031	0.019
-467.172	282.661	-0.155	-0.277
-466.157	-200.000	0.071	-0.356
-465.143	-75.491	-0.311	-0.110
-464.128	191.160	-0.206	0.308
-463.113	-150.113	0.333	-0.026
-462.099	-92.306	0.456	-0.128
-461.084	-17.846	0.134	-0.084
-460.070	-11.337	-0.169	-0.111
-459.055	720.559	0.095	-0.252
-458.040	-132.219	0.107	-0.014
-457.026	148.454	0.163	0.218
-456.011	491.527	-0.085	0.194
-454.997	149.433	0.060	0.080
-453.982	14.538	-0.157	-0.122
-452.968	68.986	-0.234	0.239
-451.953	-89.807	-0.188	0.055
-450.938	800.000	0.023	0.067
-449.924	-183.203	0.408	-0.007
-448.909	91.518	0.153	-0.171
-447.895	226.297	-0.063	0.101
-446.880	73.647	0.142	-0.148
-445.865	176.887	-0.124	0.180
-444.851	-16.040	-0.124	0.078
-443.836	800.000	-0.077	0.224
-442.822	-200.000	0.028	0.170
-441.807	-85.510	-0.337	0.104
-440.792	256.831	0.152	0.259
-439.778	133.231	-0.123	0.158
-438.763	16.393	-0.278	-0.218
-437.749	-110.098	0.474	0.098
-436.734	-200.000	0.059	0.464
-435.719	-200.000	0.014	-0.067
-434.705	-154.241	0.287	0.019
-433.690	-173.029	0.178	0.005
-432.676	-200.000	-0.012	0.177
-431.661	29.633	0.160	-0.135
-430.646	114.357	-0.155	0.188
-429.632	-200.000	0.038	0.191
-428.617	-9.729	0.123	0.081
-427.603	-29.125	-0.331	-0.188
-426.588	-86.444	0.263	0.080
-425.573	50.841	0.170	-0.160
-424.559	-64.778	0.350	-0.141
-423.544	184.562	-0.244	0.359
-422.530	-25.156	0.243	-0.143
-421.515	503.985	-0.048	-0.111
-420.500	-32.516	-0.274	-0.151
-419.486	-200.000	-0.014	0.089
-418.471	-200.000	-0.012	-0.218
-417.457	464.919	0.117	-0.260
-416.442	-61.058	-0.346	0.145
-415.428	110.944	0.093	-0.112
-414.413	443.669	-0.051	-0.112
-413.398	-200.000	0.026	-0.131
-412.384	800.000	-0.065	-0.282
-411.369	-133.057	0.449	0.056
-410.355	30.930	0.337	0.286
-409.340	53.136	-0.247	0.234
-408.325	71.032	0.117	-0.120
-407.311	-86.802	0.217	0.066
-406.296	800.000	-0.072	-0.275
-405.282	-200.000	0.004	0.217
-404.267	312.981	0.130	-0.242
-403.252	184.589	-0.115	0.170
-402.238	800.000	0.047	-0.131
-401.223	51.051	0.012	0.012
-400.209	-168.592	-0.319	-0.012
-399.194	-200.000	0.017	0.426
-398.179	-141.276	0.064	0.006
-397.165	-44.593	0.335	-0.166
-396.150	-14.577	-0.328	-0.209
-395.136	-157.004	0.315	0.019
-394.121	-200.000	-0.012	0.461
-393.106	6.440	-0.241	-0.178
-392.092	37.989	0.173	0.153
-391.077	341.054	0.111	0.215
-390.063	-104.280	0.198	-0.046
-389.048	-15.438	0.101	0.064
-388.033	-70.008	-0.232	-0.088
-387.019	-118.211	-0.180	-0.032
-386.004	-60.792	0.238	-0.100
-384.990	-176.151	-0.209	0.005
-383.975	-143.871	0.251	-0.023
-382.960	2.154	0.124	0.089
-381.946	-200.000	-0.012	-0.278
-380.931	-200.000	-0.001	-0.046
-379.917	-181.159	-0.183	-0.004
-378.902	525.287	0.027	0.064
-377.888	-200.000	0.011	0.176
-376.873	-200.000	-0.011	0.381
-375.858	-110.516	0.185	0.038
-374.844	-200.000	0.005	0.201
-373.829	-200.000	0.050	0.276
-372.815	800.000	0.017	0.054
-371.800	291.746	0.164	-0.296
-370.785	130.618	0.052	-0.067
-369.771	-5.103	-0.231	-0.157
-368.756	-200.000	-0.024	-0.175
-367.742	-175.574	-0.186	0.005
-366.727	-200.000	-0.036	-0.187
-365.712	-200.000	-0.005	0.048
-364.698	800.000	0.048	-0.143
-363.683	427.483	-0.090	0.193
-362.669	-200.000	-0.023	-0.251
-361.654	-87.404	-0.099	0.030
-360.639	-200.000	0.001	0.016
-359.625	-54.260	0.117	0.053
-358.610	-33.892	0.121	-0.066
-357.596	-200.000	-0.063	-0.322
-356.581	800.000	0.070	-0.284
-355.566	84.701	0.261	-0.283
-354.552	800.000	-0.035	0.142
-353.537	-33.857	-0.067	-0.037
-352.523	203.850	0.110	-0.169
-351.508	-167.360	-0.289	0.012
-350.493	4.183	-0.170	0.123
-349.479	-200.000	0.040	-0.290
-348.464	-49.462	0.160	0.076
-347.450	58.270	-0.042	-0.041
-346.435	-200.000	-0.036	-0.181
-345.420	74.334	0.180	-0.187
-344.406	-200.000	0.035	0.251
-343.391	36.933	0.149	-0.131
-342.377	-86.147	-0.172	0.052
-341.362	503.241	-0.111	0.255
-340.348	-200.000	-0.021	-0.177
-339.333	-65.242	-0.155	-0.062
-338.318	250.297	0.094	0.158
-337.304	-132.004	-0.152	-0.020
-336.289	800.000	0.154	-0.497
-335.275	800.000	-0.141	-0.430
-334.260	-55.676	-0.214	-0.095
-333.245	-100.847	-0.192	0.047
-332.231	-32.532	0.133	0.073
-331.216	673.690	-0.065	0.168
-330.202	-106.777	0.145	-0.032
-329.187	-116.650	0.194	-0.035
-328.172	-114.463	0.115	0.022
-327.158	-151.239	-0.223	-0.016
-326.143	-9.728	-0.061	-0.040
-325.129	-78.855	0.396	0.133
-324.114	-101.271	-0.196	0.047
-323.099	262.251	0.099	0.169
-322.085	-93.556	-0.252	-0.069
-321.070	-158.230	-0.093	-0.005
-320.056	800.000	-0.077	-0.284
-319.041	-59.364	0.292	0.124
-318.026	455.307	0.018	0.040
-317.012	244.511	0.046	-0.076
-315.997	667.353	-0.043	-0.110
-314.983	-125.898	-0.175	0.026
-313.968	-200.000	-0.053	0.387
-312.953	-3.920	0.096	0.065
-311.939	46.228	0.057	-0.052
-310.924	291.883	0.038	0.069
-309.910	85.057	0.160	0.173
-308.895	83.790	0.293	0.316
-307.880	88.946	-0.242	-0.267
-306.866	41.585	-0.096	0.086
-305.851	-153.614	-0.183	-0.012
-304.837	-200.000	0.004	-0.099
-303.822	54.585	0.236	0.225
-302.807	218.367	0.106	-0.168
-301.793	-200.000	-0.002	-0.133
-300.778	-200.000	0.022	-0.232
-299.764	248.129	-0.116	0.194
-298.749	-109.583	0.161	0.034
-297.735	-200.000	0.022	0.119
-296.720	-200.000	-0.064	-0.309
-295.705	5.156	-0.141	0.103
-294.691	-107.996	0.136	0.029
-293.676	60.016	0.220	0.214
-292.662	-187.705	-0.106	-0.001
-291.647	458.257	0.045	0.099
-290.632	745.757	-0.052	-0.138
-289.618	-179.621	-0.199	0.004
-288.603	-120.500	-0.300	0.050
-287.589	97.275	0.204	-0.231
-286.574	-121.930	0.287	0.047
-285.559	-200.000	0.375	0.000
-284.545	38.364	0.200	-0.176
-283.530	-15.682	0.157	-0.099
-282.516	-72.476	0.155	0.057
-281.501	-153.930	0.121	0.008
-280.486	-24.760	0.165	-0.097
-279.472	-78.624	-0.213	-0.072
-278.457	-36.670	0.073	0.039
-277.443	800.000	0.132	0.423
-276.428	-49.771	0.215	0.101
-275.413	-71.891	-0.146	-0.054
-274.399	-87.827	-0.234	0.070
-273.384	70.259	0.389	-0.396
-272.370	-104.432	-0.250	-0.057
-271.355	-200.000	-0.010	-0.207
-270.340	274.744	-0.196	-0.343
-269.326	54.920	-0.214	0.204
-268.311	49.251	-0.108	0.100
-267.297	256.786	-0.146	-0.247
-266.282	177.994	-0.167	-0.240
-265.267	-200.000	0.001	0.026
-264.253	-200.000	0.023	0.298
-263.238	483.054	-0.190	0.426
-262.224	-131.414	-0.220	-0.029
-261.209	39.935	0.136	-0.120
-260.195	800.000	-0.057	-0.225
-259.180	-200.000	0.020	0.248
-258.165	-2.125	-0.089	-0.062
-257.151	800.000	-0.026	0.103
-256.136	-57.734	0.139	0.060
-255.122	-133.073	-0.095	0.012
-254.107	-73.054	0.155	-0.056
-253.092	-200.000	0.057	-0.305
-252.078	-15.247	-0.094	0.059
-251.063	629.834	0.127	-0.316
-250.049	22.422	-0.291	-0.235
-249.034	-200.000	-0.011	0.188
-248.019	-156.695	0.148	0.009
-247.005	275.970	0.078	0.136
-245.990	-84.600	0.204	-0.063
-244.976	126.465	0.136	-0.169
-243.961	-21.907	0.053	-0.031
-242.946	-149.348	-0.181	0.014
-241.932	217.176	-0.121	-0.190
-240.917	-200.000	0.000	0.146
-239.903	-73.566	0.309	-0.111
-238.888	24.417	-0.024	-0.020
-237.873	227.801	-0.122	-0.196
-236.859	-164.999	-0.242	0.011
-235.844	395.109	-0.055	0.114
-234.830	-200.000	0.050	-0.226
-233.815	8.306	-0.069	-0.051
-232.800	-36.227	0.369	0.196
-231.786	146.329	-0.094	0.124
-230.771	170.193	-0.128	-0.180
-229.757	-200.000	0.021	0.242
-228.742	86.638	0.044	-0.047
-227.727	-130.387	-0.289	0.039
-226.713	-49.302	0.197	0.093
-225.698	-200.000	0.064	0.439
-224.684	-200.000	0.010	0.265
-223.669	-200.000	0.023	-0.241
-222.655	105.025	-0.115	0.134
-221.640	800.000	-0.085	0.287
-220.625	800.000	0.074	-0.246
-219.611	-200.000	0.073	-0.319
-218.596	-111.238	0.118	0.024
-217.582	800.000	0.019	0.060
-216.567	-160.705	0.310	-0.016
-215.552	171.019	-0.121	0.171
-214.538	136.037	0.307	-0.394
-213.523	37.654	0.075	-0.066
-212.509	-200.000	0.031	0.177
-211.494	98.908	0.094	0.107
-210.479	9.962	-0.250	0.187
-209.465	108.803	-0.164	-0.192
-208.450	148.847	-0.080	-0.106
-207.436	-200.000	0.019	0.161
-206.421	-200.000	0.014	-0.062
-205.406	800.000	0.002	-0.008
-204.392	-106.852	-0.248	0.054
-203.377	-164.349	0.244	-0.011
-202.363	-200.000	0.033	-0.261
-201.348	81.130	0.141	0.150
-200.333	-200.000	0.009	0.199
-199.319	-46.757	0.067	-0.032
-198.304	120.562	0.110	-0.134
-197.290	63.686	-0.197	0.195
-196.275	-116.153	0.180	0.033
-195.260	262.836	-0.073	0.124
-194.246	-52.768	0.141	-0.064
-193.231	255.552	0.101	0.171
-192.217	-200.000	0.044	0.222
-191.202	-20.618	-0.283	0.171
-190.187	-200.000	-0.012	0.119
-189.173	9.984	-0.015	0.011
-188.158	-200.000	0.005	-0.095
-187.144	-200.000	0.006	0.182
-186.129	-5.442	0.295	-0.199
-185.114	77.900	-0.080	0.084
-184.100	554.027	-0.040	0.095
-183.085	-89.434	0.188	0.055
-182.071	-69.341	-0.088	0.033
-181.056	-94.735	-0.233	0.062
-180.042	-69.105	0.107	0.040
-179.027	-200.000	0.008	0.183
-178.012	112.401	-0.111	-0.132
-176.998	-64.287	-0.210	0.084
-175.983	55.235	0.103	-0.098
-174.969	-113.770	0.096	-0.018
-173.954	127.537	-0.094	-0.118
-172.939	51.061	0.072	-0.067
-171.925	151.584	0.095	0.127
-170.910	-139.293	0.261	-0.028
-169.896	2.770	-0.181	-0.129
-168.881	800.000	-0.168	-0.550
-167.866	315.030	0.083	-0.154
-166.852	-65.025	-0.184	-0.073
-165.837	-65.467	0.212	-0.084
-164.823	327.658	-0.019	0.036
-163.808	172.458	0.173	-0.245
-162.793	-131.115	-0.177	-0.023
-161.779	657.978	-0.164	-0.414
-160.764	-28.746	0.122	0.069
-159.750	155.869	0.040	-0.054
-158.735	215.222	0.187	0.291
-157.720	-186.448	0.082	0.001
-156.706	-10.509	0.091	0.059
-155.691	-50.171	-0.188	-0.087
-154.677	178.786	0.113	-0.162
-153.662	-200.000	-0.017	-0.143
-152.647	800.000	-0.070	0.216
-151.633	346.346	-0.049	0.095
-150.618	-118.782	-0.092	-0.016
-149.604	539.924	0.016	0.037
-148.589	-118.865	0.080	0.014
-147.574	668.707	0.095	-0.242
-146.560	34.551	0.188	-0.162
-145.545	-200.000	-0.004	-0.317
-144.531	118.553	-0.083	-0.101
-143.516	-145.902	0.218	-0.019
-142.502	107.654	0.178	0.208
-141.487	-59.930	0.316	0.133
-140.472	-9.378	-0.192	-0.126
-139.458	31.016	-0.152	-0.128
-138.443	-35.289	0.096	0.051
-137.429	31.186	0.179	0.151
-136.414	-27.857	0.177	0.101
-135.399	50.814	0.248	0.231
-134.385	172.161	-0.120	-0.170
-133.370	-200.000	-0.006	0.042
-132.356	-56.490	0.276	-0.120
-131.341	-40.008	-0.223	0.114
-130.326	-75.420	0.133	-0.046
-129.312	-200.000	-0.011	0.138
-128.297	315.009	0.120	-0.222
-127.283	-82.287	-0.151	-0.048
-126.268	-129.592	0.105	-0.014
-125.253	800.000	-0.039	0.124
-124.239	-8.218	-0.148	-0.098
-123.224	81.025	0.170	-0.180
-122.210	-123.405	0.310	-0.049
-121.195	800.000	-0.037	-0.127
-120.180	-114.037	0.172	-0.033
-119.166	-200.000	-0.015	-0.210
-118.151	57.133	-0.155	-0.148
-117.137	-200.000	0.058	0.390
-116.122	-56.093	-0.534	-0.233
-115.107	-200.000	-0.053	0.246
-114.093	-54.721	-0.067	0.030
-113.078	6.263	0.123	0.090
-112.064	83.079	-0.050	-0.053
-111.049	-77.741	-0.159	-0.054
-110.034	-92.713	-0.106	0.029
-109.020	-33.463	0.183	-0.099
-108.005	800.000	-0.095	0.348
-106.991	661.445	-0.121	0.306
-105.976	800.000	-0.012	0.050
-104.962	-53.593	0.126	0.056
-103.947	-150.478	0.199	0.015
-102.932	-84.857	-0.194	-0.060
-101.918	-200.000	-0.022	-0.176
-100.903	-141.335	0.090	-0.009
-99.889	-82.598	0.104	0.033
-98.874	-200.000	-0.025	0.221
-97.859	-72.151	0.128	-0.047
-96.845	83.438	-0.216	-0.231
-95.830	-56.401	0.373	-0.162
-94.816	42.297	0.128	0.114
-93.801	78.500	0.061	0.064
-92.786	-200.000	-0.008	-0.063
-91.772	-150.190	0.273	0.021
-90.757	-20.737	0.129	-0.077
-89.743	-101.026	-0.406	0.098
-88.728	-19.779	-0.291	0.176
-87.713	-180.327	-0.357	-0.007
-86.699	346.601	0.155	-0.299
-85.684	748.665	-0.072	0.189
-84.670	189.389	-0.082	-0.120
-83.655	-111.025	0.367	0.074
-82.640	-200.000	0.032	-0.195
-81.626	-55.252	0.151	0.066
-80.611	-43.371	-0.100	0.049
-79.597	11.377	0.369	0.277
-78.582	262.853	0.213	-0.362
-77.567	85.047	-0.179	0.192
-76.553	-65.231	-0.168	0.066
-75.538	-200.000	-0.021	0.409
-74.524	-200.000	-0.021	-0.177
-73.509	-159.585	-0.383	-0.021
-72.494	-200.000	-0.004	-0.266
-71.480	-91.561	0.280	-0.078
-70.465	-159.146	-0.115	0.006
-69.451	605.451	0.164	-0.401
-68.436	-200.000	0.036	-0.282
-67.422	106.292	0.238	-0.275
-66.407	25.310	0.281	0.229
-65.392	800.000	0.037	0.115
-64.378	-200.000	0.030	0.192
-63.363	800.000	-0.071	-0.234
-62.349	-57.748	0.129	0.055
-61.334	104.188	-1.095	-1.260
-60.319	49.939	0.800	0.739
-59.305	488.907	-0.600	-1.340
-58.290	108.807	1.134	1.326
-57.276	270.900	0.880	1.515
-56.261	-200.000	128.234	674.168
-55.246	399.806	1616.421	3314.629
-54.232	135.158	2781.163	3536.109
-53.217	86.411	2342.089	2525.400
-52.203	29.321	2080.777	1729.056
-51.188	24.445	1995.809	1614.402
-50.173	23.364	1979.858	1591.729
-49.159	41.913	2053.667	1821.953
-48.144	39.675	2065.780	1812.088
-47.130	24.949	2017.283	1636.114
-46.115	22.901	2006.327	1608.533
-45.100	22.730	2003.531	1604.676
-44.086	22.661	2001.333	1602.227
-43.071	22.642	1998.969	1600.092
-42.057	22.634	1996.705	1598.146
-41.042	22.678	1994.676	1596.858
-40.027	22.754	1992.226	1595.522
-39.013	22.748	1990.872	1594.323
-37.998	22.719	1988.999	1592.498
-36.984	22.623	1988.034	1590.790
-35.969	22.654	1985.965	1589.354
-34.954	22.636	1984.262	1587.765
-33.940	22.706	1982.779	1587.149
-32.925	22.751	1980.924	1585.998
-31.911	22.816	1979.275	1585.205
-30.896	22.773	1978.065	1583.782
-29.881	22.812	1976.262	1582.629
-28.867	22.821	1974.577	1581.300
-27.852	22.874	1972.514	1580.052
-26.838	22.763	1971.323	1578.045
-25.823	22.768	1969.071	1576.222
-24.809	22.819	1967.233	1575.143
-23.794	22.818	1965.214	1573.463
-22.779	22.916	1963.770	1573.112
-21.765	22.804	1962.532	1571.062
-20.750	22.733	1961.096	1569.223
-19.736	22.822	1959.161	1568.395
-18.721	22.743	1957.682	1566.447
-17.706	22.766	1956.220	1565.422
-16.692	22.742	1954.380	1563.673
-15.677	22.790	1952.411	1562.466
-14.663	22.858	1950.412	1561.404
-13.648	22.782	1950.116	1560.431
-12.633	22.755	1949.411	1559.568
-11.619	22.778	1947.261	1557.991
-10.604	22.807	1946.341	1557.444
-9.590	22.722	1945.618	1556.058
-8.575	22.752	1943.739	1554.760
-7.560	22.793	1942.298	1553.907
-6.546	22.840	1941.006	1553.219
-5.531	22.758	1939.966	1551.609
-4.517	22.772	1938.361	1550.383
-3.502	22.771	1937.491	1549.622
-2.487	22.704	1936.340	1548.050
-1.473	22.873	1935.381	1548.701
-0.458	22.786	1930.174	1543.710
0.556	21.068	1909.631	1515.166
1.571	16.834	1891.168	1463.885
2.586	13.063	1915.096	1449.233
3.600	12.193	1951.468	1468.843
4.615	12.211	1943.698	1463.018
5.629	9.501	1843.416	1364.473
6.644	3.669	1730.921	1234.581
7.659	0.471	1698.753	1186.412
8.673	0.119	1696.018	1181.629
9.688	0.215	1695.134	1181.663
10.702	0.180	1693.485	1180.136
11.717	0.156	1689.006	1176.718
12.731	0.442	1688.026	1178.169
13.746	5.033	1697.278	1220.515
14.761	12.104	1711.801	1286.494
15.775	16.163	1719.003	1323.708
16.790	16.690	1718.922	1327.659
17.804	15.940	1715.623	1319.122
18.819	14.947	1712.720	1309.007
19.834	14.268	1709.998	1301.502
20.848	14.127	1708.569	1299.198
21.863	13.941	1706.716	1296.225
22.877	13.655	1705.427	1292.900
23.892	13.439	1703.834	1289.898
24.907	13.196	1703.025	1287.279
25.921	13.307	1701.732	1287.052
26.936	13.294	1700.319	1285.766
27.950	13.348	1699.835	1285.704
28.965	13.381	1699.822	1285.835
29.980	13.360	1698.822	1284.804
30.994	13.452	1697.897	1284.701
32.009	13.485	1696.912	1284.106
33.023	13.555	1695.323	1283.330
34.038	13.527	1694.998	1282.749
35.053	13.461	1694.345	1281.635
36.067	13.468	1692.927	1280.505
37.082	13.467	1692.077	1279.740
38.096	13.435	1690.779	1278.394
39.111	13.451	1690.140	1277.922
40.126	13.467	1689.476	1277.431
41.140	13.435	1688.632	1276.432
42.155	13.403	1686.931	1274.792
43.169	13.264	1685.916	1272.836
44.184	13.337	1684.196	1271.986
45.199	13.312	1683.028	1270.803
46.213	13.336	1681.933	1270.045
47.228	13.341	1680.548	1268.926
48.242	13.363	1679.261	1268.012
49.257	13.352	1678.351	1267.126
50.271	13.411	1676.517	1266.079
51.286	13.417	1675.748	1265.434
52.301	13.338	1674.718	1263.946
53.315	13.436	1672.677	1263.034
54.330	13.355	1671.386	1261.330
55.344	13.389	1669.431	1260.002
56.359	13.281	1668.527	1258.391
57.374	13.265	1667.555	1257.426
58.388	13.437	1665.853	1257.332
59.403	13.349	1664.454	1255.501
60.417	13.179	1663.397	1253.303
61.432	13.246	1662.145	1252.760
62.447	13.243	1660.966	1251.735
63.461	13.254	1659.551	1250.641
64.476	13.255	1658.536	1249.769
65.490	13.199	1657.297	1248.307
66.505	13.196	1656.275	1247.399
67.520	13.173	1654.969	1246.134
68.534	13.287	1653.614	1245.865
69.549	13.289	1652.441	1244.886
70.563	13.222	1651.338	1243.442
71.578	13.257	1649.819	1242.444
72.593	13.266	1648.528	1241.431
73.607	13.174	1647.896	1240.161
74.622	13.099	1646.987	1238.802
75.636	13.131	1645.373	1237.718
76.651	13.103	1644.877	1237.028
77.666	13.177	1643.886	1236.722
78.680	13.181	1642.520	1235.614
79.695	13.176	1641.938	1235.034
80.709	13.280	1640.142	1234.348
81.724	13.186	1639.754	1233.247
82.739	13.158	1639.253	1232.555
83.753	13.223	1638.144	1232.095
84.768	13.238	1636.945	1231.190
85.782	13.250	1636.301	1230.687
86.797	13.415	1635.089	1230.896
87.812	13.405	1634.255	1230.083
88.826	13.344	1632.733	1228.378
89.841	13.355	1631.699	1227.575
90.855	13.370	1630.923	1226.991
91.870	13.383	1629.318	1225.771
92.884	13.311	1628.894	1224.814
93.899	13.450	1627.845	1224.944
94.914	13.441	1626.152	1223.493
95.928	13.501	1624.679	1222.719
96.943	13.437	1623.949	1221.592
97.957	13.508	1621.974	1220.521
98.972	13.473	1620.855	1219.316
99.987	13.389	1619.110	1217.273
101.001	13.378	1618.212	1216.411
102.016	13.317	1616.658	1214.687
103.030	13.395	1615.116	1213.990
104.045	13.330	1614.273	1212.777
105.060	13.495	1612.275	1212.372
106.074	13.352	1610.998	1210.265
107.089	13.318	1609.841	1209.034
108.103	13.221	1608.166	1206.967
109.118	13.296	1606.052	1205.820
110.133	13.265	1604.443	1204.275
111.147	13.388	1603.216	1204.144
112.162	13.329	1602.128	1202.788
113.176	13.282	1601.078	1201.557
114.191	13.245	1599.524	1200.017
115.206	13.264	1598.417	1199.216
116.220	13.321	1596.802	1198.307
117.235	13.310	1595.648	1197.260
118.249	13.314	1594.304	1196.174
119.264	13.276	1592.686	1194.577
120.279	13.348	1591.041	1193.759
121.293	13.230	1590.123	1192.115
122.308	13.285	1588.353	1191.078
123.322	13.317	1586.530	1189.836
124.337	13.209	1585.492	1188.174
125.352	13.295	1584.250	1187.755
126.366	13.208	1583.116	1186.180
127.381	13.223	1582.245	1185.527
128.395	13.230	1580.862	1184.439
129.410	13.206	1579.625	1183.231
130.424	13.222	1578.250	1182.212
131.439	13.270	1576.317	1181.000
132.454	13.244	1575.077	1179.780
133.468	13.304	1573.750	1179.116
134.483	13.343	1571.952	1177.940
135.497	13.294	1571.090	1176.843
136.512	13.390	1569.380	1176.141
137.527	13.351	1568.347	1174.983
138.541	13.341	1567.100	1173.871
139.556	13.340	1565.661	1172.685
140.570	13.349	1564.338	1171.655
141.585	13.464	1562.529	1171.006
142.600	13.498	1561.242	1170.181
143.614	13.485	1560.214	1169.214
144.629	13.415	1558.723	1167.504
145.643	13.546	1557.536	1167.430
146.658	13.532	1556.286	1166.296
147.673	13.596	1554.508	1165.311
148.687	13.572	1552.962	1163.879
149.702	13.444	1551.991	1162.148
150.716	13.513	1549.792	1160.885
151.731	13.569	1548.344	1160.089
152.746	13.512	1547.138	1158.681
153.760	13.542	1546.074	1157.994
154.775	13.629	1544.338	1157.195
155.789	13.627	1543.233	1156.250
156.804	13.629	1541.820	1155.106
157.819	13.620	1540.881	1154.235
158.833	13.626	1540.011	1153.522
159.848	13.647	1538.798	1152.661
160.862	13.678	1537.660	1151.921
161.877	13.667	1536.232	1150.673
162.892	13.627	1534.853	1149.264
163.906	13.613	1533.347	1147.934
164.921	13.651	1531.931	1147.035
165.935	13.608	1531.323	1146.183
166.950	13.654	1530.022	1145.427
167.964	13.682	1528.569	1144.431
168.979	13.669	1527.627	1143.534
169.994	13.704	1526.584	1142.893
171.008	13.665	1526.194	1142.228
172.023	13.685	1524.825	1141.240
173.037	13.764	1523.779	1140.901
174.052	13.780	1522.239	1139.759
175.067	13.866	1521.166	1139.447
176.081	13.779	1519.937	1137.828
177.096	13.768	1518.525	1136.595
178.110	13.757	1517.224	1135.442
179.125	13.731	1516.092	1134.318
180.140	13.688	1515.157	1133.223
181.154	13.719	1514.344	1132.724
182.169	13.695	1512.850	1131.348
183.183	13.827	1511.547	1131.173
184.198	13.838	1510.791	1130.578
185.213	13.927	1509.075	1129.801
186.227	13.876	1508.323	1128.794
187.242	13.976	1507.110	1128.466
188.256	13.877	1505.907	1126.793
189.271	14.035	1504.480	1126.695
190.286	14.014	1503.603	1125.793
191.300	13.986	1502.255	1124.499
192.315	13.866	1501.349	1122.911
193.329	13.793	1499.882	1121.216
194.344	13.767	1498.939	1120.239
195.359	13.785	1498.094	1119.631
196.373	13.912	1496.612	1119.277
197.388	13.923	1495.648	1118.531
198.402	13.975	1494.750	1118.114
199.417	14.025	1493.483	1117.404
200.432	14.036	1492.955	1116.983
201.446	14.075	1491.503	1116.061
202.461	14.161	1490.174	1115.545
203.475	14.311	1488.927	1115.513
204.490	14.206	1488.084	1114.079
205.504	14.197	1486.619	1112.827
206.519	14.172	1485.742	1111.905
207.534	14.272	1484.342	1111.429
208.548	14.172	1483.450	1109.995
209.563	14.202	1482.342	1109.263
210.577	14.088	1481.785	1107.988
211.592	14.030	1481.198	1107.070
212.607	14.303	1479.486	1107.508
213.621	14.295	1479.113	1107.078
214.636	14.324	1478.165	1106.463
215.650	14.384	1476.847	1105.773
216.665	14.311	1476.195	1104.707
217.680	14.270	1475.417	1103.752
218.694	14.352	1474.562	1103.559
219.709	14.384	1473.792	1103.094
220.723	14.385	1472.896	1102.332
221.738	14.403	1471.640	1101.418
222.753	14.380	1470.603	1100.389
223.767	14.399	1469.805	1099.820
224.782	14.394	1468.946	1099.050
225.796	14.420	1467.918	1098.356
226.811	14.483	1467.125	1098.081
227.826	14.489	1466.086	1097.240
228.840	14.535	1465.558	1097.055
229.855	14.474	1464.674	1095.894
230.869	14.510	1463.228	1094.950
231.884	14.454	1462.437	1093.897
232.899	14.449	1461.559	1093.108
233.913	14.508	1459.718	1092.019
234.928	14.455	1459.037	1091.065
235.942	14.451	1457.660	1089.918
236.957	14.471	1456.589	1089.150
237.972	14.505	1455.554	1088.500
238.986	14.447	1454.387	1087.152
240.001	14.545	1453.802	1087.260
241.015	14.511	1452.516	1085.979
242.030	14.528	1451.002	1084.863
243.045	14.589	1450.122	1084.505
244.059	14.588	1449.268	1083.763
245.074	14.638	1448.619	1083.508
246.088	14.599	1448.300	1082.919
247.103	14.662	1447.128	1082.358
248.117	14.649	1446.638	1081.809
249.132	14.726	1445.306	1081.218
250.147	14.767	1444.641	1080.888
251.161	14.909	1443.722	1081.024
252.176	14.848	1443.441	1080.324
253.190	14.948	1442.402	1080.097
254.205	14.906	1441.717	1079.215
255.220	14.928	1440.709	1078.506
256.234	14.957	1440.085	1078.134
257.249	15.042	1438.949	1077.735
258.263	14.939	1438.502	1076.642
259.278	14.963	1437.329	1075.819
260.293	14.944	1436.520	1074.999
261.307	15.085	1435.241	1074.853
262.322	15.039	1435.115	1074.366
263.336	15.160	1433.988	1074.200
264.351	15.192	1432.591	1073.266
265.366	15.103	1432.220	1072.323
266.380	15.162	1430.846	1071.579
267.395	15.184	1430.081	1071.054
268.409	15.145	1429.331	1070.144
269.424	15.175	1428.452	1069.581
270.439	15.171	1427.051	1068.414
271.453	15.271	1425.984	1068.157
272.468	15.169	1425.428	1066.996
273.482	15.168	1424.825	1066.446
274.497	15.196	1423.820	1065.775
275.512	15.210	1423.039	1065.186
276.526	15.224	1422.014	1064.417
277.541	15.220	1420.946	1063.493
278.555	15.290	1420.391	1063.430
279.570	15.297	1419.079	1062.400
280.585	15.306	1418.139	1061.654
281.599	15.316	1417.725	1061.314
282.614	15.328	1416.897	1060.680
283.628	15.358	1415.191	1059.496
284.643	15.418	1414.195	1059.036
285.657	15.360	1413.390	1057.974
286.672	15.404	1412.192	1057.262
287.687	15.325	1411.530	1056.174
288.701	15.339	1410.411	1055.335
289.716	15.485	1409.542	1055.504
290.730	15.394	1408.669	1054.187
291.745	15.393	1407.700	1053.360
292.760	15.467	1406.828	1053.080
293.774	15.552	1405.406	1052.456
294.789	15.603	1404.302	1051.853
295.803	15.489	1403.798	1050.672
296.818	15.591	1402.803	1050.472
297.833	15.543	1402.529	1049.875
298.847	15.575	1401.155	1048.949
299.862	15.522	1400.040	1047.693
300.876	15.590	1399.150	1047.362
301.891	15.618	1397.938	1046.533
302.906	15.673	1397.376	1046.361
303.920	15.674	1397.127	1046.088
304.935	15.698	1395.949	1045.266
305.949	15.662	1395.123	1044.330
306.964	15.774	1394.523	1044.484
307.979	15.901	1393.060	1044.086
308.993	15.898	1392.107	1043.256
310.008	15.841	1391.585	1042.422
311.022	15.783	1390.698	1041.306
312.037	15.857	1389.113	1040.482
313.052	15.949	1388.072	1040.180
314.066	15.795	1387.891	1039.003
315.081	15.824	1386.370	1037.949
316.095	15.829	1385.504	1037.238
317.110	15.749	1384.919	1036.216
318.125	15.865	1383.329	1035.652
319.139	15.815	1382.748	1034.820
320.154	15.802	1381.900	1034.009
321.168	15.864	1380.858	1033.517
322.183	15.881	1379.674	1032.644
323.197	15.811	1378.478	1031.232
324.212	15.847	1378.002	1031.007
325.227	15.964	1376.975	1030.860
326.241	15.934	1376.211	1030.011
327.256	16.000	1374.809	1029.279
328.270	15.915	1374.514	1028.445
329.285	16.001	1373.526	1028.139
330.300	15.941	1372.531	1026.941
331.314	16.047	1371.633	1026.820
332.329	15.961	1370.966	1025.707
333.343	15.912	1370.251	1024.783
334.358	16.006	1369.169	1024.459
335.373	16.101	1368.097	1024.138
336.387	15.950	1367.908	1022.991
337.402	15.985	1366.910	1022.365
338.416	16.124	1366.124	1022.529
339.431	16.188	1365.227	1022.159
340.446	16.172	1364.517	1021.438
341.460	16.219	1363.624	1020.961
342.475	16.249	1362.388	1020.130
343.489	16.287	1361.841	1019.860
344.504	16.263	1360.537	1018.647
345.519	16.224	1360.008	1017.923
346.533	16.280	1359.137	1017.524
347.548	16.364	1357.863	1016.983
348.562	16.285	1357.082	1015.836
349.577	16.433	1356.020	1015.841
350.592	16.435	1355.535	1015.398
351.606	16.402	1354.789	1014.548
352.621	16.313	1353.634	1013.063
353.635	16.334	1352.349	1012.136
354.650	16.340	1351.810	1011.677
355.665	16.390	1350.480	1010.892
356.679	16.350	1350.058	1010.247
357.694	16.450	1348.296	1009.435
358.708	16.413	1347.569	1008.585
359.723	16.378	1346.479	1007.470
360.738	16.440	1345.284	1006.855
361.752	16.398	1344.703	1006.084
362.767	16.634	1342.934	1006.070
363.781	16.542	1341.879	1004.648
364.796	16.480	1341.606	1003.984
365.810	16.577	1340.886	1003.930
366.825	16.590	1340.242	1003.440
367.840	16.586	1339.471	1002.750
368.854	16.574	1339.117	1002.324
369.869	16.609	1338.270	1001.807
370.883	16.719	1337.700	1001.945
371.898	16.742	1336.789	1001.309
372.913	16.643	1336.132	1000.146
373.927	16.660	1335.097	999.379
374.942	16.698	1334.217	998.859
375.956	16.728	1333.466	998.382
376.971	16.786	1332.835	998.166
377.986	16.818	1331.774	997.472
379.000	16.778	1331.160	996.691
380.015	16.860	1330.134	996.311
381.029	16.832	1329.557	995.625
382.044	16.915	1328.719	995.401
383.059	16.888	1328.332	994.866
384.073	16.880	1327.711	994.262
385.088	16.856	1326.879	993.412
386.102	16.898	1326.092	992.980
387.117	16.923	1325.609	992.680
388.132	16.915	1324.859	991.981
389.146	16.976	1323.452	991.196
390.161	16.967	1322.708	990.498
391.175	16.915	1322.078	989.636
392.190	16.913	1321.444	989.059
393.205	17.004	1320.459	988.770
394.219	17.049	1319.406	988.152
395.234	16.977	1318.471	986.947
396.248	17.005	1316.915	985.860
397.263	17.145	1315.610	985.606
398.278	17.137	1314.098	984.342
399.292	16.961	1312.978	982.396
400.307	17.020	1312.198	982.064
401.321	17.016	1311.281	981.270
402.336	17.010	1309.850	980.075
403.350	16.933	1309.250	979.099
404.365	17.075	1308.425	979.214
405.380	17.162	1307.137	978.664
406.394	17.127	1306.393	977.817
407.409	17.121	1306.004	977.406
408.423	17.171	1305.050	976.890
409.438	17.272	1304.493	976.970
410.453	17.287	1303.348	976.114
411.467	17.262	1302.895	975.545
412.482	17.305	1302.568	975.457
413.496	17.284	1302.186	974.968
414.511	17.347	1300.922	974.295
415.526	17.384	1300.251	973.916
416.540	17.505	1299.138	973.687
417.555	17.448	1298.725	972.965
418.569	17.507	1298.283	972.890
419.584	17.446	1297.973	972.219
420.599	17.410	1297.291	971.418
421.613	100.164	1361.663	1488.723
422.628	98.306	1370.944	1488.804
