DTS Sentinel unit serial number:	SN413079Multiplexer serial number:	ORYXHardware model number:	OX4-SRSoftware version number:	ORYX F/W v4.00 Oryx Data Collector v3.7.2.0data status	okinstallation	princeton_trtdifferential loss correction	single-endedforward channel	channel 4reverse channel	N/Adate	2019/09/15time	03:13:35forward acquisition time	60.00reverse acquisition time	0.00gamma	496.2192k internal	0.2310k external	0.2310temperature offset calibration	1.0034default loss term (dB/km)	0.3790temperature slope calibration	1.0000multiplexer offset coefficient	1.0000multiplexer slope coefficient	1.0000fibre end	0.00T internal ref (°C)	31.12T ext. ref 1 (°C)	4.59T ext. ref 2 (°C)	25.75length (m)	temperature (°C)	Stokes	anti-Stokes-747.200	-10.139	0.275	0.186
-746.185	-83.974	-0.292	0.094
-745.171	-200.000	-0.013	0.110
-744.156	-200.000	0.019	-0.297
-743.142	-47.481	0.252	0.124
-742.127	-86.370	-0.094	0.029
-741.112	-37.120	0.208	-0.113
-740.098	-200.000	0.022	-0.215
-739.083	-200.000	0.025	-0.332
-738.069	-22.942	-0.381	0.233
-737.054	37.225	-0.349	0.314
-736.039	146.276	-0.257	0.350
-735.025	208.825	-0.117	-0.186
-734.010	-88.172	-0.027	-0.008
-732.996	345.335	-0.196	-0.391
-731.981	-93.328	-0.238	0.067
-730.966	-9.553	-0.273	-0.185
-729.952	-127.916	0.162	0.024
-728.937	131.984	-0.098	0.128
-727.923	6.314	-0.123	-0.093
-726.908	-131.285	0.097	0.013
-725.894	-166.370	0.316	-0.013
-724.879	-200.000	0.026	0.285
-723.864	406.117	-0.065	0.140
-722.850	269.294	-0.136	-0.243
-721.835	97.553	-0.315	-0.368
-720.821	279.779	0.018	-0.032
-719.806	-200.000	-0.021	0.246
-718.791	800.000	0.008	0.023
-717.777	-98.064	0.190	-0.050
-716.762	204.102	0.157	-0.246
-715.748	-133.729	-0.366	0.046
-714.733	-200.000	-0.000	-0.191
-713.718	800.000	0.059	0.210
-712.704	-64.560	0.258	-0.106
-711.689	-123.068	-0.299	-0.049
-710.675	-81.386	-0.095	0.032
-709.660	-95.865	-0.235	-0.064
-708.645	-99.034	-0.297	-0.076
-707.631	-200.000	0.000	0.099
-706.616	28.391	0.032	0.028
-705.602	546.665	-0.063	0.153
-704.587	-78.553	-0.346	-0.120
-703.572	545.925	0.091	0.222
-702.558	800.000	-0.081	-0.279
-701.543	409.749	-0.075	-0.161
-700.529	52.918	0.031	0.030
-699.514	-200.000	0.070	0.345
-698.499	800.000	0.133	-0.433
-697.485	13.789	-0.029	-0.023
-696.470	800.000	0.041	-0.146
-695.456	281.565	0.059	-0.107
-694.441	-103.254	-0.288	-0.069
-693.426	-40.985	-0.401	-0.210
-692.412	5.819	0.256	-0.192
-691.397	57.735	0.141	0.140
-690.383	691.598	0.086	0.227
-689.368	572.894	-0.107	0.263
-688.354	800.000	0.058	-0.254
-687.339	800.000	-0.053	0.153
-686.324	800.000	0.049	-0.157
-685.310	-14.911	0.211	-0.137
-684.295	74.188	-0.340	-0.362
-683.281	139.088	-0.146	-0.194
-682.266	-84.491	-0.193	0.062
-681.251	-124.044	-0.231	-0.037
-680.237	55.168	-0.176	0.172
-679.222	74.862	0.157	-0.167
-678.208	800.000	-0.093	-0.285
-677.193	-160.789	-0.352	0.019
-676.178	748.812	-0.136	0.371
-675.164	-200.000	-0.013	-0.203
-674.149	-200.000	0.032	-0.287
-673.135	530.367	0.109	-0.261
-672.120	-124.083	0.269	0.043
-671.105	-31.268	-0.044	-0.025
-670.091	-200.000	0.006	-0.069
-669.076	34.710	-0.150	0.133
-668.062	-200.000	0.081	-0.391
-667.047	-200.000	-0.070	0.568
-666.032	-8.305	0.167	-0.114
-665.018	-200.000	-0.010	0.170
-664.003	153.274	-0.082	-0.114
-662.989	-49.776	-0.043	-0.020
-661.974	112.844	-0.183	-0.225
-660.959	153.265	-0.157	0.217
-659.945	-86.920	-0.061	0.019
-658.930	291.608	-0.210	0.388
-657.916	252.910	-0.117	-0.203
-656.901	78.722	0.219	0.237
-655.886	49.903	0.165	-0.157
-654.872	-71.363	-0.160	0.061
-653.857	329.370	-0.101	0.197
-652.843	-60.809	0.188	-0.080
-651.828	800.000	0.032	-0.123
-650.814	206.752	-0.048	-0.075
-649.799	800.000	-0.073	-0.224
-648.784	-43.163	0.171	0.088
-647.770	42.612	-0.351	-0.323
-646.755	202.605	0.138	-0.216
-645.741	163.665	-0.150	0.213
-644.726	-200.000	-0.104	-0.467
-643.711	-51.773	-0.161	-0.076
-642.697	188.710	0.081	-0.123
-641.682	2.057	0.167	0.122
-640.668	-80.108	-0.269	-0.091
-639.653	19.650	-0.097	0.079
-638.638	-200.000	0.010	0.419
-637.624	-200.000	0.019	0.192
-636.609	132.333	0.115	0.150
-635.595	-40.402	-0.323	0.170
-634.580	721.046	-0.031	-0.084
-633.565	-124.225	-0.161	0.025
-632.551	117.480	-0.155	0.193
-631.536	-145.361	-0.196	-0.018
-630.522	800.000	0.111	-0.439
-629.507	12.710	0.305	-0.238
-628.492	25.527	0.083	-0.070
-627.478	127.991	0.100	-0.129
-626.463	259.737	0.170	0.297
-625.449	-96.453	-0.072	0.019
-624.434	-73.300	-0.129	-0.048
-623.419	614.853	-0.062	0.157
-622.405	573.820	0.035	0.086
-621.390	34.784	0.205	-0.181
-620.376	-81.365	0.210	0.070
-619.361	11.535	-0.383	0.297
-618.346	-115.177	0.123	-0.024
-617.332	367.850	0.201	-0.411
-616.317	211.166	-0.061	0.096
-615.303	-162.318	0.122	-0.006
-614.288	136.089	-0.161	0.211
-613.273	10.849	0.116	-0.089
-612.259	-155.458	0.245	-0.016
-611.244	-132.478	-0.406	0.053
-610.230	198.675	-0.177	0.274
-609.215	125.374	-0.140	-0.178
-608.201	440.778	0.155	-0.343
-607.186	260.491	0.172	0.300
-606.171	241.440	-0.058	0.098
-605.157	-200.000	-0.015	0.317
-604.142	-7.470	0.193	-0.132
-603.128	224.145	-0.187	-0.305
-602.113	114.120	0.232	-0.285
-601.098	615.798	0.024	-0.061
-600.084	-105.060	0.257	0.059
-599.069	-77.314	0.198	-0.070
-598.055	-200.000	0.001	0.334
-597.040	-9.378	0.126	-0.085
-596.025	521.267	0.142	0.337
-595.011	-7.689	0.101	0.069
-593.996	-63.202	-0.145	0.060
-592.982	-27.135	-0.290	0.171
-591.967	221.337	0.137	0.221
-590.952	376.541	0.104	-0.214
-589.938	800.000	-0.079	-0.261
-588.923	-200.000	-0.044	-0.439
-587.909	-162.544	-0.205	-0.010
-586.894	-97.291	-0.246	0.065
-585.879	86.238	-0.111	-0.123
-584.865	19.053	-0.243	-0.196
-583.850	-200.000	-0.011	0.109
-582.836	-17.649	-0.170	-0.108
-581.821	-13.681	-0.472	-0.308
-580.806	-200.000	-0.042	-0.210
-579.792	-34.305	-0.311	0.172
-578.777	-103.002	0.331	-0.079
-577.763	122.547	0.127	-0.160
-576.748	-92.305	-0.491	-0.140
-575.733	-35.126	0.274	-0.150
-574.719	-123.643	-0.154	0.025
-573.704	167.794	-0.127	-0.182
-572.690	-200.000	0.056	-0.279
-571.675	73.781	-0.117	-0.124
-570.661	-80.252	0.112	-0.038
-569.646	-200.000	-0.021	-0.193
-568.631	137.182	0.117	-0.154
-567.617	149.405	0.181	-0.247
-566.602	-41.399	-0.142	0.074
-565.588	-66.836	-0.175	0.070
-564.573	-112.482	-0.040	0.008
-563.558	-167.379	-0.081	0.003
-562.544	-121.719	-0.090	0.015
-561.529	-64.911	-0.466	-0.190
-560.515	-35.812	-0.262	-0.143
-559.500	112.641	-0.059	0.072
-558.485	800.000	0.033	-0.099
-557.471	71.096	-0.091	0.095
-556.456	135.935	0.093	0.122
-555.442	-54.769	-0.048	0.022
-554.427	-85.382	-0.044	-0.014
-553.412	800.000	-0.012	0.039
-552.398	98.925	-0.199	0.231
-551.383	-108.117	-0.161	0.035
-550.369	-141.742	-0.249	0.025
-549.354	-91.679	-0.077	-0.022
-548.339	-147.945	-0.273	-0.023
-547.325	25.601	-0.135	0.113
-546.310	25.874	-0.146	-0.123
-545.296	74.922	0.386	-0.409
-544.281	36.006	0.179	-0.159
-543.266	408.655	-0.017	-0.036
-542.252	-168.579	0.029	0.001
-541.237	-200.000	0.002	0.308
-540.223	-155.474	0.542	0.035
-539.208	129.620	-0.185	-0.238
-538.193	-131.200	0.099	-0.013
-537.179	197.188	0.189	-0.290
-536.164	172.851	0.082	0.119
-535.150	-73.573	-0.045	0.017
-534.135	-200.000	-0.002	-0.198
-533.121	-141.166	0.056	-0.006
-532.106	316.644	0.141	0.267
-531.091	-32.882	0.046	0.026
-530.077	800.000	0.119	0.382
-529.062	523.949	-0.094	-0.222
-528.048	-73.925	0.272	-0.100
-527.033	-39.426	-0.042	0.022
-526.018	-200.000	-0.038	0.253
-525.004	-112.424	0.033	0.007
-523.989	-108.807	-0.169	-0.036
-522.975	-105.361	-0.400	-0.092
-521.960	-87.091	0.313	0.096
-520.945	71.245	0.085	-0.088
-519.931	-79.383	-0.256	-0.087
-518.916	-42.957	-0.081	0.041
-517.902	685.915	0.095	-0.249
-516.887	-200.000	0.059	-0.340
-515.872	235.931	0.066	0.110
-514.858	108.052	-0.173	-0.208
-513.843	-182.503	0.220	-0.004
-512.829	-100.586	0.256	-0.064
-511.814	800.000	0.139	0.462
-510.799	-6.298	-0.179	0.123
-509.785	544.802	-0.056	0.135
-508.770	37.816	0.082	0.073
-507.756	800.000	0.066	0.269
-506.741	127.542	0.200	0.255
-505.726	-32.716	0.375	-0.210
-504.712	149.118	0.070	-0.095
-503.697	78.812	-0.073	0.078
-502.683	800.000	-0.049	0.165
-501.668	-200.000	-0.029	-0.377
-500.653	130.703	-0.140	-0.181
-499.639	-2.514	0.423	0.298
-498.624	-200.000	-0.001	-0.128
-497.610	-16.331	0.134	0.086
-496.595	1.884	-0.197	-0.143
-495.581	-70.920	0.168	0.064
-494.566	-98.286	0.149	0.038
-493.551	800.000	-0.103	0.305
-492.537	-138.240	0.219	0.024
-491.522	282.097	0.183	0.330
-490.508	6.874	0.120	-0.090
-489.493	-124.945	-0.169	-0.026
-488.478	-200.000	0.016	0.076
-487.464	-200.000	0.029	-0.294
-486.449	6.278	-0.225	-0.168
-485.435	-12.914	0.089	0.058
-484.420	-16.904	0.069	0.044
-483.405	-25.987	-0.362	0.214
-482.391	-177.771	-0.452	-0.011
-481.376	26.934	0.058	0.049
-480.362	-65.466	-0.270	0.109
-479.347	511.425	-0.120	0.281
-478.332	-76.365	-0.238	0.084
-477.318	-80.633	-0.420	-0.141
-476.303	-93.045	-0.239	0.067
-475.289	286.041	0.112	-0.203
-474.274	53.052	0.089	-0.085
-473.259	-90.908	-0.223	0.064
-472.245	143.380	0.174	0.233
-471.230	3.461	-0.146	0.107
-470.216	103.407	0.156	-0.184
-469.201	-66.911	-0.287	-0.114
-468.186	250.651	0.038	-0.064
-467.172	242.572	-0.204	-0.343
-466.157	104.058	0.304	0.359
-465.143	280.394	-0.083	0.150
-464.128	-26.259	-0.083	-0.049
-463.113	421.108	-0.071	0.153
-462.099	-122.167	0.570	0.094
-461.084	281.056	-0.241	0.433
-460.070	447.023	0.116	0.255
-459.055	-19.485	0.225	0.140
-458.040	250.358	0.149	-0.254
-457.026	-83.681	0.151	-0.048
-456.011	56.703	-0.167	0.163
-454.997	-82.751	0.200	-0.065
-453.982	-200.000	-0.011	-0.058
-452.968	-107.309	0.353	-0.078
-451.953	490.075	0.189	0.434
-450.938	-81.383	-0.046	0.015
-449.924	-200.000	-0.068	0.333
-448.909	-138.194	0.042	0.005
-447.895	313.458	-0.098	-0.185
-446.880	421.042	-0.041	0.089
-445.865	201.939	0.040	-0.063
-444.851	-81.084	0.082	0.027
-443.836	-200.000	-0.028	0.212
-442.822	29.112	-0.035	-0.030
-441.807	-200.000	0.029	0.305
-440.792	428.906	0.145	-0.314
-439.778	800.000	0.101	-0.336
-438.763	35.123	0.168	-0.147
-437.749	-43.470	0.185	-0.094
-436.734	240.595	0.209	0.350
-435.719	61.634	-0.247	0.246
-434.705	38.369	-0.131	0.117
-433.690	-107.314	0.190	-0.042
-432.676	-122.304	0.090	0.015
-431.661	257.298	0.101	0.174
-430.646	-200.000	0.008	-0.376
-429.632	800.000	0.120	0.385
-428.617	800.000	-0.011	-0.047
-427.603	-1.179	-0.299	-0.212
-426.588	-86.424	-0.316	0.097
-425.573	-38.955	0.132	-0.070
-424.559	-106.082	0.173	0.039
-423.544	-200.000	0.009	-0.169
-422.530	-200.000	-0.067	0.302
-421.515	119.035	0.182	-0.225
-420.500	-8.532	0.050	0.033
-419.486	-200.000	0.033	-0.171
-418.471	606.554	0.075	-0.186
-417.457	585.802	0.026	-0.064
-416.442	-23.341	0.146	0.088
-415.428	-26.720	0.355	-0.208
-414.413	-200.000	-0.100	-0.449
-413.398	-158.942	-0.346	-0.020
-412.384	288.936	-0.116	-0.210
-411.369	-200.000	-0.001	0.118
-410.355	122.110	-0.161	-0.201
-409.340	112.601	-0.091	-0.111
-408.325	-200.000	0.007	-0.220
-407.311	-200.000	0.014	0.098
-406.296	39.149	0.118	-0.106
-405.282	-200.000	-0.004	0.111
-404.267	-43.662	0.160	0.081
-403.252	-96.331	-0.397	-0.105
-402.238	800.000	0.029	-0.088
-401.223	761.064	0.014	0.038
-400.209	-1.616	0.066	-0.047
-399.194	9.273	0.269	0.204
-398.179	-3.000	-0.055	0.039
-397.165	-98.847	-0.277	0.071
-396.150	367.157	0.171	0.346
-395.136	-54.693	0.267	-0.121
-394.121	106.021	0.152	-0.180
-393.106	20.500	-0.163	-0.132
-392.092	-200.000	-0.047	0.237
-391.077	50.244	0.214	-0.203
-390.063	85.912	-0.157	0.172
-389.048	-200.000	-0.048	0.235
-388.033	16.924	-0.173	0.137
-387.019	-200.000	0.018	0.096
-386.004	-56.796	0.071	0.031
-384.990	61.623	-0.099	0.099
-383.975	-200.000	0.017	0.114
-382.960	29.143	0.201	-0.171
-381.946	724.412	0.051	-0.137
-380.931	-200.000	-0.046	-0.307
-379.917	-119.697	-0.204	0.035
-378.902	536.249	0.032	0.076
-377.888	-200.000	-0.004	-0.023
-376.873	-22.494	-0.151	-0.091
-375.858	-125.557	-0.355	-0.054
-374.844	548.185	0.111	0.267
-373.829	-200.000	-0.043	-0.292
-372.815	761.137	-0.088	-0.238
-371.800	154.853	0.141	0.193
-370.785	88.632	-0.206	-0.229
-369.771	-84.658	-0.220	0.069
-368.756	118.539	0.147	0.181
-367.742	800.000	0.009	-0.030
-366.727	141.713	0.103	0.136
-365.712	-49.997	0.070	-0.033
-364.698	-97.526	-0.327	0.085
-363.683	-200.000	-0.003	-0.104
-362.669	-77.316	-0.201	0.070
-361.654	64.443	0.248	-0.250
-360.639	-200.000	-0.026	0.349
-359.625	-114.717	-0.367	-0.070
-358.610	-87.530	-0.165	0.050
-357.596	592.666	0.132	-0.327
-356.581	175.770	-0.122	0.177
-355.566	218.988	0.185	-0.295
-354.552	94.034	-0.115	-0.131
-353.537	111.289	-0.061	-0.073
-352.523	169.860	-0.014	0.020
-351.508	-53.614	-0.134	-0.061
-350.493	800.000	-0.017	0.050
-349.479	-140.711	0.308	-0.032
-348.464	-200.000	-0.005	0.083
-347.450	-80.091	0.050	0.017
-346.435	-49.833	0.051	0.024
-345.420	-200.000	-0.065	-0.309
-344.406	-150.580	0.121	0.009
-343.391	149.761	0.318	-0.430
-342.377	-200.000	0.009	0.046
-341.362	-41.648	0.182	0.093
-340.348	62.746	-0.211	0.211
-339.333	800.000	-0.035	-0.119
-338.318	800.000	-0.052	0.177
-337.304	-134.600	-0.227	-0.028
-336.289	800.000	-0.073	-0.265
-335.275	-200.000	-0.000	0.245
-334.260	-125.236	0.177	-0.027
-333.245	-37.869	-0.103	-0.055
-332.231	-200.000	-0.045	-0.307
-331.216	744.784	-0.050	0.133
-330.202	-178.845	0.149	-0.003
-329.187	116.379	0.121	0.148
-328.172	-121.512	0.201	0.033
-327.158	90.068	-0.073	0.082
-326.143	-117.586	0.273	-0.049
-325.129	800.000	0.085	-0.312
-324.114	41.089	-0.054	-0.049
-323.099	167.474	0.153	-0.217
-322.085	-77.445	0.317	0.110
-321.070	-152.611	-0.216	0.015
-320.056	153.681	-0.148	-0.203
-319.041	-131.451	-0.225	0.030
-318.026	-124.871	0.117	0.018
-317.012	-200.000	-0.076	0.381
-315.997	98.421	0.233	-0.268
-314.983	-131.301	0.246	0.033
-313.968	-86.542	0.090	0.027
-312.953	50.812	0.081	-0.076
-311.939	7.282	-0.074	0.055
-310.924	40.740	0.268	-0.241
-309.910	-98.511	0.280	-0.072
-308.895	-21.976	0.073	0.044
-307.880	800.000	0.106	0.303
-306.866	-111.915	0.178	-0.036
-305.851	-147.939	0.175	-0.015
-304.837	-57.336	0.269	0.118
-303.822	19.084	0.083	0.066
-302.807	375.949	0.102	0.207
-301.793	14.824	-0.266	0.208
-300.778	26.099	-0.101	0.084
-299.764	174.932	-0.335	0.483
-298.749	131.375	0.092	-0.118
-297.735	-200.000	-0.021	-0.299
-296.720	-200.000	-0.002	-0.314
-295.705	-114.527	-0.148	-0.028
-294.691	202.570	0.128	-0.197
-293.676	-71.385	0.077	0.029
-292.662	-137.622	0.077	-0.009
-291.647	-57.507	-0.326	-0.143
-290.632	80.736	-0.160	0.172
-289.618	30.501	-0.071	-0.061
-288.603	-78.437	0.412	0.141
-287.589	460.459	0.109	0.243
-286.574	800.000	0.119	0.379
-285.559	1.026	-0.226	0.162
-284.545	800.000	-0.083	0.260
-283.530	-85.512	0.149	0.046
-282.516	722.005	-0.042	0.110
-281.501	230.698	0.199	-0.324
-280.486	-198.897	0.179	0.001
-279.472	444.848	0.165	0.361
-278.457	-32.306	-0.249	-0.139
-277.443	73.113	0.079	0.083
-276.428	-55.113	-0.237	-0.106
-275.413	-35.999	-0.112	0.060
-274.399	-22.147	0.126	-0.076
-273.384	720.427	-0.049	-0.130
-272.370	-200.000	-0.044	-0.396
-271.355	-200.000	0.010	-0.138
-270.340	-200.000	-0.005	-0.103
-269.326	-88.115	0.082	0.025
-268.311	800.000	-0.052	0.197
-267.297	-4.882	-0.177	-0.121
-266.282	-200.000	-0.009	0.283
-265.267	-200.000	-0.003	-0.222
-264.253	201.951	0.087	-0.134
-263.238	45.800	-0.217	-0.200
-262.224	800.000	0.046	-0.149
-261.209	800.000	-0.022	-0.092
-260.195	95.863	0.248	-0.282
-259.180	215.308	-0.095	-0.150
-258.165	53.252	-0.156	0.149
-257.151	-168.173	0.191	-0.007
-256.136	-90.506	-0.128	0.037
-255.122	140.842	0.142	0.187
-254.107	-54.772	-0.399	0.180
-253.092	800.000	0.046	0.192
-252.078	33.457	0.373	0.322
-251.063	20.017	0.186	0.149
-250.049	20.407	0.131	0.106
-249.034	-42.332	-0.253	0.128
-248.019	586.440	0.105	0.257
-247.005	-53.342	-0.133	0.061
-245.990	681.529	-0.115	0.299
-244.976	800.000	0.103	0.301
-243.961	107.707	-0.100	0.119
-242.946	63.493	-0.055	0.055
-241.932	-138.476	0.182	-0.020
-240.917	-133.257	0.187	0.023
-239.903	277.573	0.128	0.228
-238.888	-14.214	-0.229	0.147
-237.873	266.800	0.064	0.112
-236.859	-91.942	-0.221	-0.062
-235.844	-200.000	0.003	-0.112
-234.830	226.175	-0.135	-0.219
-233.815	526.925	-0.046	0.108
-232.800	38.591	0.148	0.131
-231.786	-134.741	-0.518	-0.063
-230.771	65.689	0.253	-0.255
-229.757	-75.697	0.169	-0.060
-228.742	117.375	0.334	-0.409
-227.727	-41.866	-0.142	-0.073
-226.713	-200.000	0.050	0.220
-225.698	-40.464	-0.302	-0.156
-224.684	-1.482	0.064	0.045
-223.669	676.462	0.243	0.629
-222.655	-59.201	0.324	-0.139
-221.640	-93.605	-0.229	-0.063
-220.625	-17.237	-0.245	-0.153
-219.611	-200.000	0.003	-0.358
-218.596	-12.857	0.183	0.119
-217.582	-200.000	0.002	0.252
-216.567	-131.769	-0.507	-0.066
-215.552	-8.478	0.106	0.071
-214.538	800.000	-0.096	0.279
-213.523	-200.000	0.043	-0.195
-212.509	-200.000	-0.022	0.147
-211.494	-67.547	0.301	-0.117
-210.479	-200.000	0.023	0.120
-209.465	-42.041	-0.164	0.083
-208.450	580.462	0.179	-0.437
-207.436	384.393	-0.016	-0.032
-206.421	-106.628	-0.162	-0.036
-205.406	257.458	-0.034	0.058
-204.392	-71.468	-0.286	0.106
-203.377	-149.108	-0.239	0.019
-202.363	218.494	0.096	-0.153
-201.348	-65.780	0.341	-0.136
-200.333	284.990	0.047	-0.084
-199.319	-193.148	-0.091	-0.001
-198.304	-60.344	-0.334	-0.141
-197.290	-88.842	0.008	0.002
-196.275	800.000	-0.062	0.209
-195.260	643.195	-0.061	-0.154
-194.246	-59.885	0.315	0.134
-193.231	-138.900	-0.073	-0.008
-192.217	344.828	0.088	0.171
-191.202	92.638	-0.144	-0.162
-190.187	58.197	-0.209	-0.204
-189.173	22.830	-0.137	-0.112
-188.158	31.861	0.275	-0.235
-187.144	-24.271	0.275	0.163
-186.129	21.142	0.224	-0.181
-185.114	-200.000	-0.008	-0.149
-184.100	-28.833	0.325	0.186
-183.085	-95.624	0.008	0.002
-182.071	108.128	0.210	0.248
-181.056	-14.293	-0.303	0.194
-180.042	183.732	-0.178	-0.261
-179.027	33.775	-0.148	0.128
-178.012	79.131	0.061	-0.065
-176.998	-7.859	-0.155	-0.104
-175.983	-29.241	-0.237	0.135
-174.969	-73.468	0.198	-0.072
-173.954	-14.625	-0.127	0.081
-172.939	800.000	0.166	0.533
-171.925	-118.625	-0.305	-0.053
-170.910	-163.878	-0.424	-0.020
-169.896	-162.817	0.138	0.007
-168.881	276.380	0.181	-0.318
-167.866	-200.000	-0.015	-0.131
-166.852	370.852	0.110	0.221
-165.837	800.000	0.048	-0.161
-164.823	-200.000	0.038	0.235
-163.808	-200.000	0.014	0.072
-162.793	279.559	0.063	0.112
-161.779	-5.242	0.434	0.297
-160.764	800.000	-0.028	-0.089
-159.750	154.082	-0.279	0.380
-158.735	106.105	-0.070	0.082
-157.720	186.260	0.105	-0.156
-156.706	-162.397	0.243	0.012
-155.691	-37.900	-0.148	0.078
-154.677	-200.000	-0.001	0.057
-153.662	66.442	-0.168	0.169
-152.647	-104.838	0.269	-0.061
-151.633	-40.677	0.166	-0.085
-150.618	-131.893	0.181	0.023
-149.604	800.000	0.096	0.372
-148.589	-120.766	-0.042	0.007
-147.574	800.000	0.022	-0.075
-146.560	30.685	0.134	-0.114
-145.545	160.225	-0.128	0.178
-144.531	-158.413	0.229	0.013
-143.516	655.458	0.043	0.111
-142.502	-7.482	-0.279	0.188
-141.487	184.853	0.273	-0.402
-140.472	-200.000	-0.008	-0.120
-139.458	137.321	0.203	-0.264
-138.443	-59.932	-0.127	-0.054
-137.429	400.561	-0.089	0.185
-136.414	-135.772	-0.056	0.007
-135.399	-93.212	-0.386	-0.106
-134.385	93.447	0.203	-0.228
-133.370	-138.150	0.391	0.043
-132.356	-72.332	-0.385	-0.141
-131.341	-200.000	-0.028	0.214
-130.326	-200.000	0.061	0.308
-129.312	2.348	0.207	-0.148
-128.297	-66.083	0.183	-0.072
-127.283	-59.058	-0.347	0.148
-126.268	-146.165	0.101	-0.009
-125.253	303.526	0.142	-0.262
-124.239	-24.538	-0.101	0.060
-123.224	-200.000	0.039	-0.177
-122.210	525.524	-0.132	0.307
-121.195	-200.000	0.105	0.486
-120.180	133.263	0.243	-0.312
-119.166	-200.000	0.011	-0.175
-118.151	181.496	-0.054	-0.079
-117.137	-200.000	-0.013	-0.088
-116.122	-200.000	-0.028	0.142
-115.107	-200.000	0.002	0.097
-114.093	-200.000	-0.006	-0.160
-113.078	-200.000	0.060	-0.290
-112.064	155.142	0.143	0.195
-111.049	553.282	0.119	-0.283
-110.034	-41.651	-0.047	-0.024
-109.020	800.000	0.044	0.142
-108.005	-131.701	-0.293	-0.038
-106.991	-46.935	-0.265	0.128
-105.976	-95.241	0.408	-0.109
-104.962	-200.000	0.008	0.087
-103.947	26.755	-0.224	0.186
-102.932	-13.173	0.293	0.189
-101.918	-128.158	0.064	0.009
-100.903	6.155	-0.051	0.037
-99.889	-33.199	-0.337	0.185
-98.874	115.757	0.028	-0.034
-97.859	39.935	-0.128	0.114
-96.845	362.248	0.158	0.315
-95.830	305.767	-0.184	0.338
-94.816	-39.092	-0.200	0.104
-93.801	800.000	0.015	0.045
-92.786	-200.000	-0.002	-0.127
-91.772	548.766	0.073	0.173
-90.757	116.174	0.240	-0.291
-89.743	-177.377	-0.393	0.010
-88.728	-25.350	-0.192	0.112
-87.713	-177.785	-0.389	-0.009
-86.699	-63.779	0.472	0.191
-85.684	-97.315	-0.034	0.009
-84.670	60.899	-0.231	0.226
-83.655	-134.367	-0.147	0.018
-82.640	143.944	-0.185	-0.244
-81.626	531.719	0.108	-0.254
-80.611	-101.224	0.392	0.095
-79.597	175.022	0.134	-0.191
-78.582	-200.000	0.008	0.138
-77.567	219.393	-0.069	0.109
-76.553	-148.121	-0.146	-0.012
-75.538	-186.689	0.121	-0.002
-74.524	800.000	-0.091	-0.314
-73.509	-161.577	0.250	-0.013
-72.494	-200.000	0.042	-0.296
-71.480	-48.716	-0.500	-0.238
-70.465	-200.000	-0.060	-0.415
-69.451	22.860	-0.120	0.098
-68.436	-131.479	-0.138	0.018
-67.422	-21.756	0.489	-0.294
-66.407	800.000	-0.058	-0.213
-65.392	340.301	0.066	0.127
-64.378	-200.000	-0.017	0.075
-63.363	345.586	0.030	-0.057
-62.349	-30.912	-0.294	-0.164
-61.334	3.094	-0.918	-0.660
-60.319	186.339	0.343	0.505
-59.305	651.109	-0.418	-1.058
-58.290	379.023	0.490	0.993
-57.276	800.000	0.514	1.433
-56.261	-200.000	100.815	602.670
-55.246	575.158	1410.324	3403.546
-54.232	188.329	2601.351	3844.568
-53.217	107.661	2307.436	2715.429
-52.203	37.750	2063.794	1811.769
-51.188	32.759	1978.421	1692.111
-50.173	31.313	1959.626	1663.110
-49.159	46.353	2012.450	1844.060
-48.144	47.899	2030.456	1874.447
-47.130	33.386	1991.233	1708.461
-46.115	31.004	1980.774	1678.010
-45.100	31.044	1977.566	1675.581
-44.086	31.015	1975.137	1673.200
-43.071	30.957	1972.497	1670.374
-42.057	30.905	1970.322	1668.000
-41.042	30.958	1968.238	1666.647
-40.027	30.929	1966.442	1664.800
-39.013	30.963	1964.569	1663.453
-37.998	30.981	1962.602	1661.881
-36.984	31.074	1960.944	1661.235
-35.969	31.015	1958.747	1658.786
-34.954	31.071	1957.092	1657.821
-33.940	31.092	1955.149	1656.291
-32.925	31.123	1953.844	1655.391
-31.911	31.157	1952.032	1654.096
-30.896	31.087	1950.902	1652.453
-29.881	31.176	1949.035	1651.593
-28.867	31.179	1947.588	1650.328
-27.852	31.201	1945.710	1648.869
-26.838	31.265	1943.526	1647.517
-25.823	31.216	1942.343	1646.016
-24.809	31.119	1940.720	1643.719
-23.794	31.075	1939.804	1642.494
-22.779	31.138	1937.311	1640.871
-21.765	31.105	1935.705	1639.148
-20.750	31.125	1933.916	1637.744
-19.736	31.200	1932.389	1637.049
-18.721	31.229	1930.310	1635.474
-17.706	31.122	1929.271	1633.590
-16.692	31.173	1927.489	1632.463
-15.677	31.123	1925.827	1630.553
-14.663	31.132	1924.658	1629.580
-13.648	31.186	1923.133	1628.695
-12.633	31.189	1921.953	1627.660
-11.619	31.222	1920.475	1626.630
-10.604	31.104	1919.038	1624.319
-9.590	31.143	1918.125	1623.821
-8.575	31.090	1916.634	1622.033
-7.560	31.143	1915.196	1621.211
-6.546	31.195	1913.622	1620.265
-5.531	31.089	1912.872	1618.651
-4.517	31.161	1911.386	1617.949
-3.502	31.069	1910.905	1616.685
-2.487	31.056	1909.925	1615.679
-1.473	31.102	1908.826	1615.080
-0.458	31.214	1903.454	1611.439
0.556	30.304	1883.823	1584.071
1.571	26.075	1864.677	1532.020
2.586	22.124	1887.877	1516.905
3.600	21.195	1923.231	1537.002
4.615	20.690	1917.857	1528.137
5.629	16.109	1817.451	1409.789
6.644	8.371	1701.944	1259.278
7.659	4.934	1667.698	1207.235
8.673	4.696	1664.658	1203.089
9.688	4.581	1662.947	1200.858
10.702	4.541	1661.980	1199.744
11.717	4.533	1658.575	1197.121
12.731	5.003	1657.741	1200.034
13.746	10.024	1669.895	1247.565
14.761	16.966	1684.737	1312.441
15.775	19.176	1687.065	1331.238
16.790	18.435	1684.313	1323.230
17.804	17.391	1681.103	1312.536
18.819	16.381	1677.646	1301.944
19.834	15.810	1675.135	1295.486
20.848	15.476	1673.541	1291.568
21.863	15.310	1671.613	1288.688
22.877	15.045	1670.773	1285.894
23.892	14.852	1669.300	1283.163
24.907	14.701	1668.486	1281.269
25.921	14.709	1667.216	1280.240
26.936	14.644	1666.496	1279.079
27.950	14.684	1665.510	1278.516
28.965	14.737	1664.342	1277.911
29.980	14.796	1663.933	1277.930
30.994	14.975	1662.687	1278.232
32.009	14.967	1662.123	1277.620
33.023	15.017	1661.387	1277.322
34.038	15.121	1659.938	1276.894
35.053	15.090	1658.832	1275.691
36.067	14.891	1657.506	1273.044
37.082	14.890	1656.796	1272.377
38.096	14.919	1655.377	1271.392
39.111	14.989	1654.814	1271.381
40.126	14.952	1653.904	1270.290
41.140	14.918	1653.202	1269.377
42.155	14.823	1651.744	1267.431
43.169	14.691	1650.646	1265.475
44.184	14.668	1649.071	1263.979
45.199	14.637	1648.451	1263.156
46.213	14.625	1647.106	1261.926
47.228	14.674	1645.397	1260.876
48.242	14.769	1644.350	1260.676
49.257	14.875	1643.182	1260.468
50.271	14.769	1642.598	1259.114
51.286	14.783	1641.278	1258.090
52.301	14.830	1639.250	1256.782
53.315	14.826	1638.520	1256.078
54.330	14.744	1637.110	1254.270
55.344	14.665	1635.465	1252.309
56.359	14.782	1633.511	1251.579
57.374	14.717	1632.710	1250.367
58.388	14.719	1631.549	1249.382
59.403	14.641	1630.260	1247.699
60.417	14.585	1628.890	1246.127
61.432	14.576	1627.682	1245.024
62.447	14.562	1626.935	1244.234
63.461	14.477	1626.074	1242.838
64.476	14.501	1624.430	1241.647
65.490	14.505	1622.993	1240.470
66.505	14.470	1622.377	1239.631
67.520	14.604	1621.185	1239.599
68.534	14.486	1619.760	1237.526
69.549	14.567	1618.967	1237.415
70.563	14.521	1617.961	1236.196
71.578	14.479	1616.693	1234.806
72.593	14.493	1615.569	1233.942
73.607	14.402	1614.450	1232.302
74.622	14.341	1613.526	1231.037
75.636	14.312	1612.529	1229.953
76.651	14.405	1611.573	1229.802
77.666	14.503	1610.709	1229.758
78.680	14.545	1609.480	1229.019
79.695	14.476	1608.999	1228.035
80.709	14.534	1608.246	1227.776
81.724	14.591	1607.252	1227.329
82.739	14.622	1606.530	1226.900
83.753	14.678	1605.519	1226.430
84.768	14.703	1605.054	1226.152
85.782	14.766	1604.477	1226.063
86.797	14.837	1603.536	1225.756
87.812	14.897	1601.994	1224.908
88.826	14.818	1600.889	1223.375
89.841	14.670	1599.851	1221.394
90.855	14.833	1598.880	1221.733
91.870	14.853	1597.636	1220.825
92.884	14.855	1597.000	1220.241
93.899	14.867	1595.939	1219.415
94.914	14.845	1594.591	1218.116
95.928	14.916	1593.372	1217.593
96.943	14.976	1591.898	1216.796
97.957	14.929	1590.750	1215.465
98.972	14.854	1589.235	1213.659
99.987	14.870	1587.787	1212.560
101.001	14.854	1585.889	1210.891
102.016	14.788	1584.883	1209.534
103.030	14.841	1583.191	1208.518
104.045	14.816	1582.234	1207.499
105.060	14.865	1580.938	1206.762
106.074	14.768	1579.616	1204.945
107.089	14.729	1577.778	1203.156
108.103	14.626	1576.142	1201.057
109.118	14.549	1574.379	1199.053
110.133	14.442	1573.932	1197.839
111.147	14.615	1571.652	1197.243
112.162	14.562	1570.430	1195.822
113.176	14.670	1569.110	1195.490
114.191	14.603	1567.637	1193.777
115.206	14.661	1566.818	1193.462
116.220	14.670	1565.531	1192.445
117.235	14.670	1564.299	1191.400
118.249	14.656	1562.918	1190.141
119.264	14.652	1561.366	1188.826
120.279	14.602	1560.218	1187.488
121.293	14.638	1558.165	1186.076
122.308	14.581	1557.554	1185.106
123.322	14.571	1556.026	1183.769
124.337	14.600	1553.763	1182.149
125.352	14.536	1553.166	1181.131
126.366	14.483	1552.069	1179.819
127.381	14.468	1550.942	1178.754
128.395	14.494	1549.609	1177.822
129.410	14.574	1548.386	1177.351
130.424	14.527	1546.943	1175.815
131.439	14.626	1545.481	1175.298
132.454	14.644	1544.396	1174.499
133.468	14.639	1543.040	1173.329
134.483	14.665	1541.620	1172.326
135.497	14.712	1539.971	1171.295
136.512	14.628	1539.411	1170.175
137.527	14.715	1537.689	1169.378
138.541	14.757	1536.811	1168.901
139.556	14.716	1535.315	1167.370
140.570	14.738	1534.017	1166.431
141.585	14.864	1532.163	1165.800
142.600	14.884	1531.008	1164.955
143.614	14.985	1530.317	1165.033
144.629	14.964	1529.265	1163.984
145.643	14.958	1528.044	1162.907
146.658	15.065	1526.285	1162.205
147.673	14.996	1524.993	1160.645
148.687	15.000	1523.470	1159.407
149.702	14.846	1522.045	1157.155
150.716	14.800	1520.702	1155.715
151.731	14.746	1519.356	1154.213
152.746	14.866	1517.259	1153.350
153.760	14.829	1516.706	1152.571
154.775	14.817	1515.598	1151.546
155.789	14.857	1513.961	1150.473
156.804	14.896	1513.097	1149.987
157.819	14.907	1511.556	1148.788
158.833	14.939	1510.501	1148.106
159.848	15.073	1508.797	1147.625
160.862	15.094	1508.628	1147.537
161.877	15.119	1507.062	1146.418
162.892	15.080	1505.653	1144.978
163.906	14.952	1504.853	1143.394
164.921	14.878	1503.233	1141.554
165.935	14.972	1502.002	1141.159
166.950	14.910	1501.154	1139.993
167.964	14.975	1500.611	1139.926
168.979	15.034	1499.539	1139.409
169.994	14.939	1498.341	1137.754
171.008	14.931	1497.499	1136.959
172.023	15.054	1495.709	1136.331
173.037	15.073	1494.968	1135.796
174.052	15.039	1494.108	1134.811
175.067	15.101	1493.184	1134.433
176.081	15.150	1491.523	1133.404
177.096	14.974	1490.661	1131.456
178.110	14.951	1489.209	1130.100
179.125	14.994	1488.046	1129.404
180.140	14.993	1487.063	1128.555
181.154	15.031	1486.393	1128.198
182.169	15.067	1484.785	1127.124
183.183	15.227	1483.308	1126.976
184.198	15.277	1482.673	1126.735
185.213	15.290	1481.050	1125.483
186.227	15.321	1480.216	1124.964
187.242	15.205	1479.925	1123.862
188.256	15.328	1478.448	1123.467
189.271	15.426	1476.800	1122.772
190.286	15.326	1476.230	1121.570
191.300	15.382	1475.264	1121.106
192.315	15.201	1473.850	1118.726
193.329	15.063	1472.153	1116.418
194.344	15.032	1470.938	1115.191
195.359	15.170	1469.715	1115.087
196.373	15.136	1468.975	1114.198
197.388	15.147	1468.613	1113.897
198.402	15.247	1467.383	1113.535
199.417	15.332	1466.404	1113.255
200.432	15.398	1465.134	1112.630
201.446	15.468	1464.538	1112.545
202.461	15.519	1463.327	1111.863
203.475	15.560	1462.233	1111.202
204.490	15.681	1460.901	1110.896
205.504	15.609	1460.110	1109.721
206.519	15.484	1459.182	1108.091
207.534	15.377	1457.607	1106.088
208.548	15.490	1455.974	1105.499
209.563	15.421	1455.419	1104.521
210.577	15.332	1455.193	1103.665
211.592	15.445	1453.667	1103.157
212.607	15.545	1452.873	1103.115
213.621	15.593	1452.768	1103.253
214.636	15.609	1451.818	1102.534
215.650	15.583	1450.951	1101.608
216.665	15.613	1449.679	1100.741
217.680	15.657	1449.037	1100.444
218.694	15.698	1448.219	1099.996
219.709	15.716	1447.326	1099.340
220.723	15.731	1446.266	1098.537
221.738	15.783	1445.263	1098.015
222.753	15.818	1443.855	1097.072
223.767	15.647	1443.677	1095.730
224.782	15.727	1442.343	1095.140
225.796	15.790	1441.577	1094.872
226.811	15.838	1440.889	1094.565
227.826	15.865	1439.937	1093.921
228.840	15.862	1439.310	1093.328
229.855	15.794	1438.170	1091.920
230.869	15.760	1437.256	1090.910
231.884	15.720	1436.254	1089.795
232.899	15.819	1434.819	1089.250
233.913	15.690	1434.051	1087.736
234.928	15.759	1432.311	1086.770
235.942	15.772	1431.253	1085.950
236.957	15.753	1429.773	1084.609
237.972	15.667	1428.801	1083.224
238.986	15.697	1427.729	1082.509
240.001	15.699	1426.742	1081.676
241.015	15.770	1425.917	1081.410
242.030	15.809	1424.636	1080.596
243.045	15.768	1423.723	1079.546
244.059	15.835	1423.136	1079.434
245.074	15.934	1421.776	1078.939
246.088	15.948	1421.437	1078.678
247.103	16.031	1420.245	1078.208
248.117	16.029	1419.569	1077.583
249.132	15.956	1419.430	1076.920
250.147	16.149	1418.514	1077.359
251.161	16.156	1418.224	1077.090
252.176	16.392	1416.958	1077.538
253.190	16.374	1416.525	1076.998
254.205	16.353	1415.641	1076.100
255.220	16.423	1414.906	1075.889
256.234	16.415	1414.671	1075.564
257.249	16.434	1413.493	1074.693
258.263	16.416	1412.406	1073.662
259.278	16.452	1411.651	1073.223
260.293	16.439	1410.617	1072.258
261.307	16.480	1409.873	1071.857
262.322	16.470	1409.135	1071.138
263.336	16.608	1408.282	1071.266
264.351	16.549	1407.166	1069.949
265.366	16.578	1406.343	1069.412
266.380	16.596	1405.424	1068.734
267.395	16.553	1404.445	1067.626
268.409	16.597	1403.680	1067.223
269.424	16.561	1402.702	1066.157
270.439	16.521	1401.634	1065.000
271.453	16.626	1400.473	1064.688
272.468	16.517	1399.843	1063.427
273.482	16.508	1398.914	1062.569
274.497	16.516	1397.651	1061.566
275.512	16.542	1397.197	1061.295
276.526	16.487	1396.616	1060.412
277.541	16.596	1395.363	1060.052
278.555	16.568	1394.417	1059.061
279.570	16.560	1393.484	1058.212
280.585	16.598	1392.739	1057.787
281.599	16.701	1392.157	1057.893
282.614	16.669	1391.622	1057.196
283.628	16.752	1389.782	1056.220
284.643	16.605	1388.804	1054.466
285.657	16.710	1387.523	1054.058
286.672	16.759	1386.982	1053.859
287.687	16.745	1385.687	1052.692
288.701	16.686	1384.923	1051.653
289.716	16.788	1383.944	1051.452
290.730	16.707	1383.602	1050.597
291.745	16.722	1382.331	1049.630
292.760	16.775	1381.501	1049.232
293.774	16.852	1380.318	1048.717
294.789	16.867	1379.330	1047.968
295.803	16.915	1378.537	1047.573
296.818	16.946	1377.286	1046.721
297.833	16.814	1377.105	1045.675
298.847	16.795	1376.048	1044.658
299.862	16.859	1375.181	1044.305
300.876	16.855	1373.928	1043.235
301.891	16.868	1373.202	1042.673
302.906	16.933	1372.397	1042.366
303.920	16.967	1371.795	1042.027
304.935	17.087	1370.662	1041.815
305.949	16.989	1370.174	1040.749
306.964	17.137	1369.398	1040.975
307.979	17.177	1368.474	1040.422
308.993	17.125	1367.469	1039.249
310.008	17.091	1366.546	1038.246
311.022	17.166	1364.920	1037.381
312.037	17.121	1364.722	1036.860
313.052	17.201	1363.758	1036.529
314.066	17.159	1362.539	1035.250
315.081	17.189	1361.474	1034.532
316.095	17.088	1360.113	1032.794
317.110	17.031	1359.452	1031.856
318.125	17.129	1358.242	1031.436
319.139	17.032	1357.353	1030.085
320.154	16.981	1356.741	1029.219
321.168	17.000	1355.517	1028.316
322.183	17.021	1354.479	1027.561
323.197	17.079	1353.620	1027.173
324.212	17.103	1352.808	1026.607
325.227	17.206	1351.782	1026.360
326.241	17.169	1351.259	1025.652
327.256	17.113	1350.524	1024.667
328.270	17.153	1349.296	1023.883
329.285	17.195	1348.763	1023.640
330.300	17.081	1347.825	1022.153
331.314	17.051	1346.638	1020.983
332.329	17.090	1345.667	1020.388
333.343	17.208	1344.764	1020.322
334.358	17.271	1344.151	1020.146
335.373	17.273	1343.367	1019.471
336.387	17.317	1342.418	1018.925
337.402	17.394	1341.618	1018.693
338.416	17.405	1341.170	1018.325
339.431	17.402	1340.763	1017.906
340.446	17.440	1340.236	1017.643
341.460	17.452	1338.882	1016.599
342.475	17.545	1337.799	1016.241
343.489	17.562	1337.310	1015.883
344.504	17.602	1336.133	1015.138
345.519	17.688	1334.920	1014.635
346.533	17.747	1334.394	1014.497
347.548	17.720	1333.422	1013.507
348.562	17.711	1332.619	1012.757
349.577	17.778	1331.993	1012.585
350.592	17.759	1331.125	1011.724
351.606	17.670	1329.985	1010.242
352.621	17.586	1329.125	1009.000
353.635	17.588	1327.997	1008.067
354.650	17.505	1326.990	1006.726
355.665	17.553	1325.972	1006.149
356.679	17.566	1325.207	1005.554
357.694	17.615	1324.028	1004.861
358.708	17.599	1323.109	1003.981
359.723	17.664	1321.752	1003.244
360.738	17.759	1320.795	1002.988
361.752	17.700	1320.027	1001.968
362.767	17.692	1318.931	1000.996
363.781	17.762	1318.164	1000.742
364.796	17.751	1317.323	999.945
365.810	17.804	1316.595	999.616
366.825	17.851	1316.065	999.402
367.840	18.003	1315.210	999.555
368.854	17.939	1314.569	998.604
369.869	18.030	1314.148	998.728
370.883	18.151	1313.193	998.618
371.898	18.038	1312.848	997.609
372.913	17.970	1312.188	996.622
373.927	17.968	1310.978	995.605
374.942	18.040	1310.283	995.407
375.956	18.074	1309.452	994.885
376.971	17.933	1308.792	993.477
377.986	18.114	1307.623	993.553
379.000	18.030	1307.544	992.914
380.015	18.186	1306.224	992.732
381.029	18.194	1305.346	992.021
382.044	18.198	1305.061	991.744
383.059	18.272	1304.321	991.518
384.073	18.248	1303.595	990.741
385.088	18.221	1302.966	990.021
386.102	18.268	1302.136	989.573
387.117	18.344	1301.267	989.262
388.132	18.276	1300.186	987.964
389.146	18.187	1299.695	986.989
390.161	18.022	1299.010	985.427
391.175	18.179	1297.523	985.121
392.190	18.157	1297.178	984.641
393.205	18.236	1296.380	984.402
394.219	18.408	1295.053	984.299
395.234	18.227	1294.234	982.547
396.248	18.331	1292.592	981.810
397.263	18.236	1291.296	980.198
398.278	18.258	1290.143	979.362
399.292	18.314	1289.095	978.798
400.307	18.202	1287.918	977.179
401.321	18.151	1287.134	976.209
402.336	18.189	1286.072	975.531
403.350	18.280	1284.785	974.988
404.365	18.167	1284.357	973.936
405.380	18.198	1283.289	973.214
406.394	18.247	1282.599	972.884
407.409	18.190	1282.062	972.065
408.423	18.213	1281.613	971.768
409.438	18.499	1280.446	972.422
410.453	18.511	1279.474	971.664
411.467	18.593	1279.242	971.869
412.482	18.545	1279.027	971.345
413.496	18.580	1278.182	970.817
414.511	18.680	1277.242	970.582
415.526	18.696	1276.304	969.872
416.540	18.686	1275.756	969.314
417.555	18.700	1275.225	968.905
418.569	18.696	1274.849	968.508
419.584	18.688	1274.568	968.167
420.599	18.720	1273.382	967.359
421.613	140.936	1432.504	1797.261
422.628	135.512	1455.684	1797.368
