DTS Sentinel unit serial number:	SN413079Multiplexer serial number:	ORYXHardware model number:	OX4-SRSoftware version number:	ORYX F/W v4.00 Oryx Data Collector v3.7.2.0data status	okinstallation	princeton_trtdifferential loss correction	single-endedforward channel	channel 4reverse channel	N/Adate	2019/09/13time	11:09:35forward acquisition time	60.00reverse acquisition time	0.00gamma	496.2192k internal	0.2303k external	0.2303temperature offset calibration	1.0195default loss term (dB/km)	0.3790temperature slope calibration	1.0000multiplexer offset coefficient	1.0000multiplexer slope coefficient	1.0000fibre end	0.00T internal ref (°C)	32.06T ext. ref 1 (°C)	4.68T ext. ref 2 (°C)	29.59length (m)	temperature (°C)	Stokes	anti-Stokes-747.200	159.753	0.055	-0.078
-746.185	-23.093	0.090	0.055
-745.171	353.012	0.135	-0.272
-744.156	800.000	-0.049	0.147
-743.142	-200.000	0.001	-0.200
-742.127	308.213	0.150	0.285
-741.112	206.067	-0.067	-0.107
-740.098	34.491	-0.351	-0.312
-739.083	37.473	0.115	-0.104
-738.069	-200.000	-0.032	0.364
-737.054	295.508	0.142	0.264
-736.039	-32.346	-0.314	-0.179
-735.025	203.584	0.106	0.167
-734.010	-8.146	0.025	0.017
-732.996	-130.921	-0.521	-0.071
-731.981	-79.678	0.121	-0.042
-730.966	66.057	-0.082	0.085
-729.952	-61.250	-0.060	0.026
-728.937	-200.000	-0.019	-0.099
-727.923	342.425	-0.180	-0.358
-726.908	-200.000	0.035	-0.159
-725.894	-200.000	-0.059	-0.356
-724.879	-161.178	-0.141	0.007
-723.864	-62.681	-0.164	-0.069
-722.850	42.673	-0.181	0.168
-721.835	64.803	0.177	-0.182
-720.821	-89.126	-0.151	-0.045
-719.806	-175.772	-0.204	0.006
-718.791	112.305	-0.082	0.101
-717.777	-200.000	-0.096	-0.000
-716.762	-164.111	0.108	0.005
-715.748	-200.000	-0.019	-0.197
-714.733	-55.119	0.093	0.043
-713.718	-112.351	0.145	0.030
-712.704	-200.000	0.083	-0.503
-711.689	-200.000	-0.043	0.237
-710.675	800.000	-0.077	-0.307
-709.660	-127.088	0.262	-0.039
-708.645	800.000	0.038	0.163
-707.631	150.697	-0.042	0.058
-706.616	-200.000	-0.023	-0.151
-705.602	-200.000	-0.017	-0.256
-704.587	-23.466	-0.139	-0.085
-703.572	800.000	-0.074	-0.216
-702.558	-53.795	-0.339	-0.158
-701.543	-200.000	-0.059	-0.271
-700.529	-93.849	0.079	-0.022
-699.514	-14.456	-0.072	-0.047
-698.499	800.000	0.124	-0.367
-697.485	-200.000	-0.006	-0.261
-696.470	22.439	0.209	-0.174
-695.456	-200.000	-0.047	-0.279
-694.441	-48.554	-0.134	-0.066
-693.426	-122.385	0.172	-0.029
-692.412	-200.000	-0.044	-0.209
-691.397	-188.946	0.282	-0.003
-690.383	-104.457	-0.241	-0.057
-689.368	-200.000	0.028	-0.289
-688.354	-38.958	-0.229	0.122
-687.339	-200.000	-0.020	0.239
-686.324	-100.923	-0.179	0.045
-685.310	-200.000	-0.013	-0.120
-684.295	65.686	-0.187	0.193
-683.281	-200.000	-0.003	0.128
-682.266	108.818	-0.125	-0.151
-681.251	800.000	-0.104	0.432
-680.237	-200.000	-0.026	-0.249
-679.222	3.071	-0.205	-0.151
-678.208	162.236	-0.142	0.203
-677.193	138.100	-0.143	-0.190
-676.178	43.292	-0.119	0.110
-675.164	-162.800	0.169	-0.008
-674.149	-41.860	-0.153	-0.080
-673.135	-200.000	0.015	-0.082
-672.120	-45.371	-0.070	0.035
-671.105	149.727	0.040	-0.055
-670.091	-136.241	-0.434	-0.052
-669.076	229.116	0.290	-0.480
-668.062	696.408	-0.047	-0.126
-667.047	-78.040	0.178	-0.062
-666.032	50.700	0.047	-0.045
-665.018	395.993	0.091	-0.193
-664.003	-25.731	-0.382	0.229
-662.989	-200.000	0.033	-0.150
-661.974	800.000	0.058	0.171
-660.959	-140.343	-0.208	0.022
-659.945	276.789	0.014	-0.025
-658.930	476.853	0.012	0.027
-657.916	-59.344	0.236	0.103
-656.901	800.000	0.119	-0.334
-655.886	291.330	-0.149	-0.274
-654.872	-6.541	-0.272	-0.188
-653.857	-200.000	-0.030	-0.169
-652.843	-116.176	0.149	-0.028
-651.828	-200.000	0.030	0.235
-650.814	-97.639	0.191	-0.050
-649.799	-68.943	-0.039	0.015
-648.784	-192.306	-0.284	-0.003
-647.770	-11.970	0.306	0.203
-646.755	-149.207	-0.429	0.035
-645.741	153.846	0.144	-0.200
-644.726	-105.658	-0.142	0.033
-643.711	286.432	-0.174	0.319
-642.697	-68.830	-0.242	-0.095
-641.682	-53.019	0.161	-0.075
-640.668	262.746	-0.082	-0.145
-639.653	800.000	-0.046	-0.139
-638.638	9.619	0.167	0.129
-637.624	-125.543	0.081	-0.013
-636.609	-28.585	-0.074	0.043
-635.595	17.007	0.308	0.247
-634.580	187.734	-0.051	-0.077
-633.565	-200.000	-0.024	-0.302
-632.551	-78.731	0.111	0.038
-631.536	222.433	0.140	0.228
-630.522	81.817	0.143	0.157
-629.507	-88.425	-0.111	0.034
-628.492	-1.191	0.321	0.230
-627.478	277.650	0.107	0.192
-626.463	89.526	0.175	-0.198
-625.449	-110.373	-0.226	-0.048
-624.434	37.291	0.221	-0.199
-623.419	800.000	0.053	0.163
-622.405	800.000	0.059	0.218
-621.390	-112.617	-0.216	-0.044
-620.376	-106.231	-0.225	-0.051
-619.361	-200.000	-0.001	-0.096
-618.346	800.000	0.039	0.123
-617.332	-106.773	0.292	-0.066
-616.317	-47.386	0.174	-0.086
-615.303	402.901	-0.086	-0.183
-614.288	-58.359	-0.274	-0.121
-613.273	-24.275	-0.175	0.106
-612.259	37.036	0.067	-0.060
-611.244	-145.829	-0.213	-0.019
-610.230	-148.553	-0.278	-0.023
-609.215	-5.734	-0.225	-0.156
-608.201	-40.059	0.085	0.045
-607.186	800.000	0.080	-0.289
-606.171	2.025	-0.268	-0.196
-605.157	75.096	0.137	0.146
-604.142	-200.000	-0.004	-0.061
-603.128	280.051	-0.043	-0.079
-602.113	800.000	-0.046	-0.162
-601.098	-76.637	0.378	-0.134
-600.084	749.923	0.092	-0.251
-599.069	-73.721	0.194	-0.072
-598.055	-114.270	0.406	-0.079
-597.040	181.974	-0.170	-0.253
-596.025	249.692	0.195	-0.334
-595.011	351.559	0.132	0.265
-593.996	-23.995	0.160	-0.097
-592.982	48.104	0.079	-0.075
-591.967	421.423	-0.050	-0.108
-590.952	-200.000	0.006	-0.140
-589.938	-200.000	-0.009	0.256
-588.923	-21.918	0.311	0.191
-587.909	-200.000	-0.018	-0.238
-586.894	248.656	0.039	0.066
-585.879	-167.038	-0.135	0.006
-584.865	426.118	-0.031	0.068
-583.850	247.929	0.104	-0.178
-582.836	57.738	-0.141	-0.140
-581.821	189.672	0.215	0.326
-580.806	-160.333	-0.189	-0.010
-579.792	101.430	-0.192	-0.226
-578.777	-102.079	-0.166	0.040
-577.763	-50.639	-0.170	-0.081
-576.748	353.123	-0.079	0.159
-575.733	-80.488	-0.062	-0.021
-574.719	-11.311	-0.090	-0.060
-573.704	-200.000	-0.009	-0.062
-572.690	-140.389	-0.144	0.015
-571.675	-171.929	0.159	-0.005
-570.661	338.457	-0.178	-0.351
-569.646	-30.582	-0.112	0.064
-568.631	338.084	0.137	-0.269
-567.617	331.127	0.040	-0.078
-566.602	-134.713	-0.157	0.019
-565.588	-40.775	-0.249	0.130
-564.573	83.145	-0.090	0.099
-563.558	-104.386	0.179	-0.042
-562.544	152.294	-0.065	-0.090
-561.529	800.000	-0.032	0.126
-560.515	137.418	-0.126	-0.167
-559.500	-73.307	-0.163	0.060
-558.485	-90.776	-0.224	0.065
-557.471	-81.405	-0.265	0.088
-556.456	61.458	-0.166	0.167
-555.442	-200.000	0.011	0.092
-554.427	105.926	0.132	0.157
-553.412	477.464	0.088	0.201
-552.398	-102.974	-0.058	-0.014
-551.383	-200.000	0.013	-0.210
-550.369	-200.000	0.014	0.125
-549.354	276.124	-0.131	-0.235
-548.339	-103.757	0.156	0.037
-547.325	285.666	0.080	0.147
-546.310	-87.236	-0.217	0.067
-545.296	54.509	0.094	0.091
-544.281	-154.016	-0.348	-0.024
-543.266	800.000	-0.032	-0.130
-542.252	-59.675	-0.175	0.076
-541.237	222.835	0.020	-0.033
-540.223	454.950	-0.067	0.151
-539.208	143.674	-0.156	-0.210
-538.193	329.296	0.118	0.229
-537.179	-200.000	0.009	0.261
-536.164	-200.000	0.018	0.090
-535.150	-111.797	0.290	-0.059
-534.135	-50.736	-0.039	-0.019
-533.121	-94.069	-0.145	0.040
-532.106	47.492	-0.228	-0.215
-531.091	800.000	-0.060	0.200
-530.077	-200.000	0.005	0.345
-529.062	652.818	-0.077	0.199
-528.048	-200.000	-0.000	-0.196
-527.033	199.660	-0.196	-0.304
-526.018	297.783	-0.238	0.442
-525.004	760.351	-0.088	0.242
-523.989	-71.228	0.423	0.160
-522.975	-200.000	0.025	0.166
-521.960	-45.453	-0.236	0.118
-520.945	394.899	-0.102	0.215
-519.931	21.064	-0.127	-0.104
-518.916	150.563	-0.185	-0.254
-517.902	-41.265	-0.188	-0.098
-516.887	-200.000	-0.035	-0.322
-515.872	-200.000	-0.001	0.196
-514.858	-82.940	-0.083	-0.027
-513.843	162.701	-0.104	-0.148
-512.829	59.106	0.282	-0.280
-511.814	-200.000	-0.035	0.193
-510.799	92.888	-0.164	-0.187
-509.785	393.831	-0.115	0.242
-508.770	311.531	0.169	-0.320
-507.756	38.154	0.174	-0.156
-506.741	-200.000	-0.003	0.063
-505.726	-95.083	0.301	-0.082
-504.712	-200.000	-0.022	-0.124
-503.697	384.280	0.094	-0.195
-502.683	221.728	-0.198	0.321
-501.668	255.868	0.087	-0.151
-500.653	-58.000	0.166	0.073
-499.639	224.968	-0.169	-0.276
-498.624	-200.000	0.061	0.277
-497.610	63.350	0.199	-0.202
-496.595	-200.000	0.023	-0.116
-495.581	-75.865	-0.090	-0.032
-494.566	199.974	-0.126	-0.196
-493.551	-65.915	-0.101	0.041
-492.537	437.456	0.072	-0.158
-491.522	800.000	0.128	0.470
-490.508	97.363	-0.256	0.296
-489.493	-52.045	-0.229	0.107
-488.478	80.009	-0.172	-0.186
-487.464	-200.000	-0.049	0.272
-486.449	287.822	0.017	0.031
-485.435	-200.000	0.003	0.159
-484.420	82.215	0.150	0.164
-483.405	-54.815	0.065	0.029
-482.391	562.475	0.142	-0.348
-481.376	111.427	0.309	-0.376
-480.362	-50.405	0.084	-0.040
-479.347	388.755	0.173	-0.361
-478.332	-200.000	-0.023	0.137
-477.318	800.000	-0.047	0.160
-476.303	374.935	0.111	-0.228
-475.289	366.904	-0.023	-0.047
-474.274	202.833	0.081	0.126
-473.259	173.155	-0.050	0.072
-472.245	86.174	0.113	-0.125
-471.230	86.190	-0.394	-0.438
-470.216	38.329	-0.304	-0.273
-469.201	-25.068	-0.110	-0.065
-468.186	-47.378	-0.350	0.171
-467.172	8.083	-0.077	-0.058
-466.157	800.000	-0.046	0.201
-465.143	-6.352	-0.232	0.159
-464.128	-200.000	0.007	-0.100
-463.113	-200.000	0.007	-0.109
-462.099	-163.013	-0.321	0.016
-461.084	-0.304	-0.446	-0.319
-460.070	37.708	-0.213	-0.191
-459.055	256.165	0.148	-0.256
-458.040	-111.927	-0.253	-0.051
-457.026	-51.495	0.299	0.141
-456.011	-11.527	0.166	-0.110
-454.997	17.073	0.099	0.079
-453.982	33.672	0.224	-0.196
-452.968	39.321	-0.152	-0.137
-451.953	-101.000	0.110	0.027
-450.938	-120.148	-0.077	-0.013
-449.924	-140.950	0.074	0.008
-448.909	167.505	-0.064	-0.092
-447.895	586.448	0.023	-0.057
-446.880	2.627	0.298	0.218
-445.865	16.596	0.142	0.113
-444.851	70.338	0.131	0.136
-443.836	-161.858	0.068	0.003
-442.822	-124.813	-0.072	-0.011
-441.807	800.000	-0.059	0.225
-440.792	-104.920	0.411	-0.095
-439.778	-200.000	0.051	0.321
-438.763	-200.000	-0.029	0.383
-437.749	70.561	0.118	0.123
-436.734	-65.881	-0.107	0.043
-435.719	247.090	-0.133	0.225
-434.705	-200.000	0.006	-0.048
-433.690	-16.176	0.066	0.042
-432.676	3.054	0.193	0.141
-431.661	-148.325	0.289	-0.024
-430.646	-187.161	0.166	0.002
-429.632	175.715	0.086	-0.126
-428.617	-29.212	-0.137	0.079
-427.603	-61.557	0.294	0.124
-426.588	-123.553	0.399	-0.064
-425.573	16.537	-0.088	-0.070
-424.559	-105.815	-0.118	0.027
-423.544	800.000	0.074	0.214
-422.530	351.758	-0.108	-0.215
-421.515	-135.260	-0.119	0.014
-420.500	571.054	-0.062	0.151
-419.486	-52.671	0.143	-0.066
-418.471	138.268	0.290	-0.382
-417.457	800.000	0.087	-0.293
-416.442	92.020	-0.076	-0.086
-415.428	-72.052	0.103	-0.039
-414.413	11.889	0.157	0.121
-413.398	387.877	0.027	-0.056
-412.384	47.056	-0.238	-0.222
-411.369	-37.142	0.389	-0.209
-410.355	105.331	-0.082	0.097
-409.340	-95.962	-0.072	0.019
-408.325	800.000	-0.081	-0.284
-407.311	800.000	-0.029	-0.100
-406.296	-29.131	-0.153	0.088
-405.282	-200.000	-0.054	0.311
-404.267	-130.935	-0.050	-0.007
-403.252	14.040	-0.092	0.072
-402.238	299.276	-0.063	0.117
-401.223	-200.000	-0.024	-0.250
-400.209	-113.378	0.138	0.027
-399.194	-71.586	0.189	-0.071
-398.179	-200.000	-0.004	0.048
-397.165	-200.000	-0.031	-0.394
-396.150	-200.000	0.002	0.150
-395.136	800.000	-0.047	0.171
-394.121	131.897	-0.084	0.109
-393.106	391.884	-0.175	-0.365
-392.092	-200.000	-0.004	0.041
-391.077	435.369	-0.075	0.164
-390.063	-106.028	-0.196	-0.044
-389.048	-37.216	-0.214	-0.115
-388.033	-107.800	0.162	-0.035
-387.019	93.712	-0.160	-0.183
-386.004	-13.789	0.065	0.042
-384.990	466.789	-0.065	0.147
-383.975	-200.000	-0.000	0.373
-382.960	163.210	-0.085	0.120
-381.946	-46.822	-0.271	-0.133
-380.931	32.496	0.145	-0.126
-379.917	26.891	0.035	0.030
-378.902	-95.639	0.238	-0.064
-377.888	43.114	0.178	-0.163
-376.873	-168.433	-0.064	0.002
-375.858	800.000	-0.093	0.395
-374.844	-29.464	0.056	0.032
-373.829	-26.345	-0.248	0.146
-372.815	12.286	-0.101	-0.078
-371.800	344.533	-0.146	-0.288
-370.785	-176.043	0.310	0.008
-369.771	-1.575	-0.226	0.160
-368.756	142.749	0.118	-0.157
-367.742	800.000	-0.115	-0.360
-366.727	-83.345	-0.079	0.026
-365.712	143.807	-0.282	-0.377
-364.698	-36.236	0.096	-0.052
-363.683	-200.000	0.044	0.224
-362.669	194.157	-0.108	0.165
-361.654	-112.942	-0.130	0.026
-360.639	-40.289	-0.242	-0.126
-359.625	281.896	0.033	-0.060
-358.610	-179.821	-0.135	0.003
-357.596	123.360	-0.080	-0.101
-356.581	-89.641	0.142	0.042
-355.566	188.308	-0.099	-0.148
-354.552	800.000	0.010	0.039
-353.537	1.478	-0.123	-0.089
-352.523	173.897	-0.181	-0.262
-351.508	43.688	-0.063	0.058
-350.493	800.000	0.057	0.204
-349.479	-200.000	0.025	-0.328
-348.464	327.699	0.218	0.420
-347.450	-78.672	-0.245	0.084
-346.435	-200.000	-0.010	-0.163
-345.420	-200.000	0.028	-0.223
-344.406	361.099	0.119	0.239
-343.391	-200.000	0.001	0.177
-342.377	44.309	0.073	0.068
-341.362	2.837	0.167	-0.121
-340.348	-58.156	-0.210	0.092
-339.333	-45.420	-0.282	-0.140
-338.318	800.000	0.036	0.134
-337.304	-103.620	0.396	-0.093
-336.289	-40.884	-0.166	-0.086
-335.275	-62.730	0.096	-0.040
-334.260	67.307	0.142	0.145
-333.245	-200.000	0.038	0.271
-332.231	53.526	-0.033	-0.032
-331.216	-101.714	0.140	-0.034
-330.202	778.430	-0.042	0.116
-329.187	-145.350	0.124	-0.011
-328.172	66.262	0.138	0.141
-327.158	-42.294	-0.219	0.112
-326.143	-79.831	-0.075	0.025
-325.129	1.749	-0.225	0.163
-324.114	800.000	0.029	0.107
-323.099	409.968	0.147	0.313
-322.085	800.000	-0.062	-0.263
-321.070	257.961	0.131	0.226
-320.056	-71.425	0.059	-0.022
-319.041	34.146	0.100	-0.087
-318.026	-200.000	0.036	0.395
-317.012	800.000	0.040	0.146
-315.997	270.607	0.051	-0.090
-314.983	-120.258	0.091	-0.016
-313.968	-18.433	0.306	0.191
-312.953	81.577	0.152	0.165
-311.939	-127.187	0.185	-0.027
-310.924	-149.159	0.324	0.026
-309.910	78.514	-0.075	-0.080
-308.895	33.878	0.267	0.233
-307.880	320.716	0.097	-0.184
-306.866	287.963	-0.081	0.147
-305.851	373.764	-0.132	-0.269
-304.837	-200.000	0.081	0.373
-303.822	-200.000	-0.059	0.297
-302.807	800.000	0.062	0.251
-301.793	-200.000	0.013	-0.171
-300.778	21.576	0.198	-0.162
-299.764	-200.000	0.028	0.300
-298.749	-120.612	-0.158	-0.027
-297.735	-125.026	-0.225	0.035
-296.720	-159.136	0.405	0.023
-295.705	21.574	-0.070	0.057
-294.691	-200.000	0.007	-0.052
-293.676	-200.000	0.035	-0.193
-292.662	800.000	0.013	-0.049
-291.647	124.040	-0.137	-0.172
-290.632	69.211	0.080	-0.082
-289.618	465.726	-0.096	-0.215
-288.603	800.000	-0.028	0.094
-287.589	-200.000	0.012	0.068
-286.574	800.000	-0.056	0.236
-285.559	-31.431	-0.085	0.048
-284.545	-60.103	0.283	-0.121
-283.530	800.000	-0.154	0.500
-282.516	-134.452	-0.039	-0.005
-281.501	-135.535	-0.152	-0.018
-280.486	-37.799	0.207	0.110
-279.472	-90.763	0.190	0.055
-278.457	-104.633	0.154	-0.036
-277.443	-200.000	0.055	0.293
-276.428	709.927	0.012	-0.032
-275.413	-105.509	0.246	-0.056
-274.399	-26.816	0.280	0.163
-273.384	16.665	-0.129	0.102
-272.370	35.420	0.201	0.177
-271.355	133.363	-0.334	0.431
-270.340	560.551	-0.080	-0.193
-269.326	38.448	-0.110	-0.098
-268.311	-54.816	-0.200	0.090
-267.297	-20.762	-0.147	0.090
-266.282	51.478	0.261	-0.248
-265.267	83.704	0.135	0.148
-264.253	-200.000	-0.001	-0.045
-263.238	800.000	-0.092	0.318
-262.224	21.280	0.048	0.039
-261.209	105.514	-0.157	-0.185
-260.195	123.213	-0.121	-0.152
-259.180	-105.013	0.431	-0.099
-258.165	-10.129	0.087	-0.057
-257.151	364.674	0.086	0.173
-256.136	106.217	-0.104	-0.124
-255.122	556.163	-0.074	0.178
-254.107	44.675	0.260	0.239
-253.092	800.000	0.033	-0.108
-252.078	-81.150	-0.135	-0.045
-251.063	54.331	-0.041	0.039
-250.049	621.661	0.051	-0.127
-249.034	800.000	-0.101	-0.319
-248.019	-17.141	0.064	0.041
-247.005	-10.408	-0.192	0.127
-245.990	-200.000	-0.026	-0.140
-244.976	-88.380	0.196	-0.059
-243.961	249.175	-0.047	0.079
-242.946	-92.385	0.363	-0.102
-241.932	278.451	-0.060	-0.106
-240.917	287.291	0.072	-0.130
-239.903	-200.000	0.064	-0.293
-238.888	-0.161	0.105	-0.074
-237.873	70.730	0.153	-0.158
-236.859	16.718	0.123	-0.097
-235.844	1.272	-0.358	-0.257
-234.830	-111.896	0.054	0.011
-233.815	-30.374	0.242	0.137
-232.800	624.667	0.040	0.100
-231.786	-200.000	0.007	-0.059
-230.771	-200.000	0.010	0.125
-229.757	328.199	-0.133	-0.255
-228.742	58.979	-0.052	0.052
-227.727	42.232	0.170	0.154
-226.713	-7.401	-0.282	-0.191
-225.698	-9.730	-0.195	0.130
-224.684	14.844	-0.138	0.107
-223.669	-200.000	-0.017	-0.227
-222.655	-200.000	-0.009	0.320
-221.640	5.114	-0.332	0.244
-220.625	664.104	0.093	-0.240
-219.611	566.664	0.074	-0.179
-218.596	-200.000	-0.011	-0.264
-217.582	708.660	-0.051	0.134
-216.567	279.961	0.017	-0.030
-215.552	14.813	0.141	-0.110
-214.538	312.263	0.124	-0.233
-213.523	5.152	0.085	-0.062
-212.509	-121.924	-0.149	0.025
-211.494	454.965	0.162	-0.358
-210.479	-14.057	0.035	0.023
-209.465	-75.929	0.239	0.084
-208.450	800.000	0.077	0.249
-207.436	-159.176	0.289	0.016
-206.421	-1.584	-0.152	0.107
-205.406	-200.000	-0.030	0.170
-204.392	800.000	-0.081	-0.334
-203.377	11.364	0.045	-0.034
-202.363	-200.000	0.032	0.302
-201.348	53.007	-0.174	0.166
-200.333	10.968	0.244	0.186
-199.319	-200.000	-0.042	-0.388
-198.304	-134.312	0.296	-0.036
-197.290	-26.084	-0.256	-0.150
-196.275	-200.000	-0.020	-0.161
-195.260	13.279	-0.151	-0.117
-194.246	800.000	0.054	0.151
-193.231	279.424	-0.080	-0.142
-192.217	73.853	-0.097	0.101
-191.202	-96.551	-0.095	0.025
-190.187	553.134	-0.022	-0.053
-189.173	-200.000	0.004	-0.212
-188.158	-200.000	-0.020	-0.159
-187.144	-200.000	0.005	-0.106
-186.129	142.505	-0.097	0.128
-185.114	-200.000	0.033	0.259
-184.100	-48.238	-0.198	-0.095
-183.085	570.127	-0.099	0.239
-182.071	104.072	-0.267	0.313
-181.056	11.109	0.231	0.176
-180.042	800.000	0.043	0.144
-179.027	-46.139	-0.239	0.117
-178.012	-200.000	0.016	0.254
-176.998	-200.000	-0.007	0.249
-175.983	177.965	0.158	-0.230
-174.969	-200.000	-0.021	-0.139
-173.954	285.692	-0.040	-0.071
-172.939	800.000	-0.090	0.265
-171.925	-66.371	0.105	0.041
-170.910	319.057	-0.137	-0.259
-169.896	-11.223	0.066	-0.043
-168.881	-91.036	0.450	-0.129
-167.866	800.000	-0.048	0.187
-166.852	-50.723	0.261	0.122
-165.837	-163.568	0.206	0.010
-164.823	800.000	-0.072	-0.206
-163.808	-103.612	0.362	-0.085
-162.793	462.884	0.114	0.253
-161.779	-25.250	-0.093	0.055
-160.764	262.440	-0.215	0.371
-159.750	362.766	0.094	-0.188
-158.735	-200.000	0.031	-0.137
-157.720	-55.517	0.182	-0.081
-156.706	-200.000	0.011	0.218
-155.691	800.000	-0.075	0.236
-154.677	-185.263	-0.189	-0.003
-153.662	-82.151	0.083	-0.027
-152.647	528.996	0.141	-0.331
-151.633	-28.275	-0.075	0.043
-150.618	800.000	0.198	0.584
-149.604	194.330	-0.249	-0.375
-148.589	-81.739	-0.218	0.071
-147.574	-200.000	-0.032	-0.199
-146.560	-200.000	-0.036	0.194
-145.545	568.013	0.165	-0.400
-144.531	-131.650	-0.185	-0.024
-143.516	328.924	-0.187	-0.357
-142.502	-200.000	-0.003	0.116
-141.487	-35.008	0.440	-0.239
-140.472	131.385	0.140	0.179
-139.458	-200.000	0.019	0.247
-138.443	42.361	-0.082	0.074
-137.429	-114.701	0.179	0.034
-136.414	203.315	-0.110	-0.169
-135.399	-86.190	-0.080	0.025
-134.385	177.999	-0.082	-0.119
-133.370	-200.000	-0.008	0.308
-132.356	-76.324	0.220	0.077
-131.341	-21.014	0.247	0.151
-130.326	64.318	0.155	0.155
-129.312	-200.000	0.027	-0.469
-128.297	603.842	0.007	0.018
-127.283	0.165	0.134	-0.095
-126.268	-93.353	0.106	-0.029
-125.253	-159.934	-0.440	0.024
-124.239	-7.981	-0.204	0.137
-123.224	-200.000	-0.004	-0.382
-122.210	55.506	-0.109	-0.105
-121.195	800.000	0.012	-0.047
-120.180	-200.000	-0.045	0.219
-119.166	387.133	0.141	-0.289
-118.151	-14.943	-0.272	-0.174
-117.137	102.886	0.128	-0.149
-116.122	-113.281	0.485	-0.095
-115.107	230.710	0.060	0.098
-114.093	471.247	0.114	-0.255
-113.078	49.091	-0.207	-0.193
-112.064	-115.321	0.171	0.032
-111.049	-200.000	0.016	0.185
-110.034	104.983	0.025	-0.029
-109.020	320.767	0.079	-0.149
-108.005	-200.000	-0.007	-0.102
-106.991	-97.034	0.071	0.018
-105.976	800.000	0.074	0.306
-104.962	-34.786	0.279	0.151
-103.947	-200.000	-0.025	0.140
-102.932	-22.318	-0.162	-0.097
-101.918	18.435	-0.361	-0.287
-100.903	2.957	-0.115	0.083
-99.889	91.612	0.284	0.317
-98.874	-183.922	-0.172	-0.003
-97.859	36.191	0.099	0.087
-96.845	176.735	-0.127	-0.183
-95.830	131.772	-0.024	-0.030
-94.816	-67.438	0.127	-0.049
-93.801	-73.840	-0.039	-0.014
-92.786	50.914	0.222	-0.209
-91.772	800.000	0.022	-0.084
-90.757	-101.809	-0.068	0.016
-89.743	-200.000	-0.011	0.145
-88.728	160.457	-0.044	0.062
-87.713	110.221	-0.198	0.236
-86.699	373.515	0.066	0.133
-85.684	-71.174	0.219	-0.082
-84.670	-200.000	0.029	-0.129
-83.655	-138.032	0.044	-0.005
-82.640	-79.395	0.220	-0.074
-81.626	-77.402	0.026	-0.009
-80.611	-14.146	0.302	-0.193
-79.597	444.324	-0.225	0.491
-78.582	122.399	-0.064	0.079
-77.567	-98.562	0.122	-0.031
-76.553	124.158	-0.172	-0.215
-75.538	-161.806	-0.096	-0.005
-74.524	800.000	0.143	-0.404
-73.509	399.836	0.075	0.157
-72.494	-111.740	0.124	0.025
-71.480	-0.540	0.263	-0.185
-70.465	-84.085	-0.388	-0.122
-69.451	-22.165	0.342	0.206
-68.436	-57.787	-0.287	0.125
-67.422	43.298	0.209	0.189
-66.407	-200.000	0.054	0.411
-65.392	-117.017	-0.414	0.075
-64.378	-141.337	-0.079	0.008
-63.363	116.861	-0.232	-0.282
-62.349	480.512	0.026	-0.059
-61.334	155.785	-0.806	-1.101
-60.319	187.485	0.197	0.292
-59.305	385.700	-0.493	-1.008
-58.290	161.132	0.685	0.950
-57.276	243.633	0.903	1.501
-56.261	-200.000	96.115	585.239
-55.246	614.697	1407.516	3496.870
-54.232	185.504	2608.777	3841.575
-53.217	109.467	2335.131	2773.261
-52.203	38.904	2089.583	1850.801
-51.188	33.863	2003.843	1729.049
-50.173	32.245	1985.641	1698.667
-49.159	47.496	2035.086	1880.775
-48.144	48.782	2052.910	1908.933
-47.130	34.503	2014.772	1744.058
-46.115	32.121	2004.222	1713.162
-45.100	32.033	2001.168	1709.679
-44.086	31.889	1999.036	1706.481
-43.071	31.878	1996.323	1703.997
-42.057	31.865	1994.219	1702.018
-41.042	31.890	1991.906	1700.198
-40.027	31.941	1990.199	1699.135
-39.013	31.933	1987.815	1696.958
-37.998	31.987	1986.561	1696.308
-36.984	31.963	1985.032	1694.724
-35.969	32.017	1982.464	1692.949
-34.954	32.024	1980.965	1691.663
-33.940	32.053	1979.626	1690.720
-32.925	32.118	1977.610	1689.510
-31.911	32.084	1976.327	1688.045
-30.896	32.037	1974.280	1685.808
-29.881	32.106	1973.276	1685.501
-28.867	32.151	1971.981	1684.732
-27.852	32.147	1969.610	1682.600
-26.838	32.094	1967.592	1680.335
-25.823	32.105	1965.590	1678.663
-24.809	32.075	1964.329	1677.246
-23.794	32.079	1962.851	1675.956
-22.779	32.130	1960.284	1674.154
-21.765	32.032	1958.905	1672.030
-20.750	32.043	1957.265	1670.671
-19.736	32.100	1955.497	1669.598
-18.721	32.063	1954.382	1668.249
-17.706	32.043	1952.639	1666.523
-16.692	32.036	1950.888	1664.896
-15.677	32.040	1948.953	1663.212
-14.663	32.039	1947.426	1661.836
-13.648	32.105	1946.608	1661.657
-12.633	32.184	1944.961	1660.881
-11.619	32.079	1944.105	1659.162
-10.604	32.050	1942.782	1657.711
-9.590	32.052	1940.859	1656.020
-8.575	32.053	1939.249	1654.586
-7.560	32.113	1938.510	1654.423
-6.546	32.113	1936.813	1652.903
-5.531	32.109	1935.324	1651.538
-4.517	32.133	1934.395	1650.887
-3.502	32.047	1933.768	1649.534
-2.487	32.052	1932.282	1648.244
-1.473	32.138	1931.070	1647.898
-0.458	32.172	1926.982	1644.645
0.556	34.639	1907.381	1620.097
1.571	30.497	1888.453	1568.987
2.586	26.556	1910.853	1553.708
3.600	25.514	1947.344	1574.117
4.615	24.457	1941.030	1559.648
5.629	18.862	1838.768	1430.897
6.644	9.679	1718.618	1265.497
7.659	4.983	1681.136	1201.657
8.673	4.615	1677.418	1196.061
9.688	4.658	1676.741	1195.804
10.702	4.743	1675.431	1195.416
11.717	4.684	1672.153	1192.521
12.731	5.151	1672.094	1195.950
13.746	11.405	1686.581	1254.413
14.761	19.633	1704.116	1331.000
15.775	22.648	1707.990	1357.149
16.790	22.377	1706.438	1353.715
17.804	21.501	1703.452	1344.495
18.819	20.437	1700.659	1334.002
19.834	19.958	1697.855	1328.014
20.848	19.712	1696.367	1324.851
21.863	19.568	1695.410	1322.882
22.877	19.399	1694.177	1320.506
23.892	19.223	1692.941	1318.084
24.907	19.213	1691.281	1316.591
25.921	19.091	1690.864	1315.222
26.936	19.133	1689.417	1314.302
27.950	19.147	1688.998	1313.963
28.965	19.191	1688.152	1313.530
29.980	19.231	1687.860	1313.489
30.994	19.417	1686.472	1313.709
32.009	19.590	1685.189	1313.905
33.023	19.565	1684.932	1313.402
34.038	19.624	1683.917	1312.947
35.053	19.504	1682.737	1310.996
36.067	19.491	1681.307	1309.666
37.082	19.343	1679.887	1307.325
38.096	19.370	1679.164	1306.848
39.111	19.404	1678.163	1306.209
40.126	19.482	1677.826	1306.423
41.140	19.517	1676.443	1305.498
42.155	19.287	1674.891	1302.431
43.169	18.932	1673.955	1298.907
44.184	18.867	1672.049	1296.823
45.199	18.814	1671.582	1295.945
46.213	18.899	1670.150	1295.361
47.228	18.958	1669.222	1294.973
48.242	19.118	1668.658	1295.623
49.257	19.269	1667.664	1295.878
50.271	19.266	1666.111	1294.533
51.286	19.264	1664.929	1293.485
52.301	19.224	1663.808	1292.200
53.315	19.206	1662.786	1291.159
54.330	19.205	1660.746	1289.447
55.344	19.015	1659.439	1286.899
56.359	18.996	1657.588	1285.208
57.374	18.998	1656.662	1284.389
58.388	18.989	1655.305	1283.158
59.403	18.942	1654.009	1281.690
60.417	18.817	1653.192	1280.009
61.432	18.788	1651.754	1278.570
62.447	18.873	1650.231	1277.910
63.461	18.751	1649.023	1275.958
64.476	18.672	1648.466	1274.825
65.490	18.595	1647.024	1273.023
66.505	18.646	1645.527	1272.136
67.520	18.738	1644.738	1272.093
68.534	18.671	1643.919	1270.851
69.549	18.703	1642.804	1270.113
70.563	18.753	1641.197	1269.125
71.578	18.676	1640.333	1267.775
72.593	18.603	1638.568	1265.764
73.607	18.478	1637.803	1264.137
74.622	18.423	1636.869	1262.901
75.636	18.415	1636.296	1262.289
76.651	18.441	1635.392	1261.669
77.666	18.470	1634.690	1261.230
78.680	18.488	1634.138	1260.822
79.695	18.541	1633.231	1260.403
80.709	18.665	1632.163	1260.378
81.724	18.717	1631.316	1259.992
82.739	18.910	1630.378	1260.570
83.753	19.015	1630.283	1261.158
84.768	19.119	1628.922	1260.758
85.782	19.257	1628.495	1261.326
86.797	19.382	1627.986	1261.730
87.812	19.468	1627.138	1261.595
88.826	19.353	1625.859	1259.652
89.841	19.274	1625.056	1258.342
90.855	19.317	1623.436	1257.288
91.870	19.363	1622.682	1256.924
92.884	19.452	1622.105	1257.015
93.899	19.415	1621.151	1255.895
94.914	19.534	1619.996	1255.759
95.928	19.451	1618.903	1254.191
96.943	19.569	1617.297	1253.698
97.957	19.480	1615.441	1251.504
98.972	19.451	1614.350	1250.338
99.987	19.442	1612.692	1248.873
101.001	19.379	1611.382	1247.292
102.016	19.380	1609.592	1245.809
103.030	19.335	1608.717	1244.694
104.045	19.424	1607.517	1244.301
105.060	19.374	1605.722	1242.438
106.074	19.318	1604.559	1241.025
107.089	19.165	1602.566	1238.272
108.103	18.823	1600.987	1234.489
109.118	18.655	1599.600	1232.103
110.133	18.654	1598.052	1230.794
111.147	18.702	1596.513	1229.840
112.162	18.670	1595.374	1228.631
113.176	18.751	1593.801	1227.887
114.191	18.822	1592.680	1227.420
115.206	18.814	1591.760	1226.545
116.220	18.905	1590.636	1226.223
117.235	18.874	1589.281	1224.847
118.249	18.792	1588.151	1223.284
119.264	18.789	1586.787	1222.103
120.279	18.692	1585.389	1220.230
121.293	18.627	1583.983	1218.578
122.308	18.611	1581.983	1216.817
123.322	18.501	1580.504	1214.792
124.337	18.509	1579.158	1213.711
125.352	18.442	1577.854	1212.125
126.366	18.367	1576.803	1210.679
127.381	18.481	1574.922	1209.933
128.395	18.338	1574.947	1208.836
129.410	18.521	1573.286	1208.742
130.424	18.518	1571.667	1207.371
131.439	18.543	1570.315	1206.406
132.454	18.620	1569.487	1206.200
133.468	18.780	1568.179	1206.216
134.483	18.874	1566.406	1205.404
135.497	18.864	1564.971	1204.122
136.512	18.881	1563.756	1203.196
137.527	18.904	1562.697	1202.439
138.541	18.880	1561.449	1201.204
139.556	18.905	1560.037	1200.186
140.570	19.028	1558.850	1200.027
141.585	19.135	1557.246	1199.428
142.600	19.234	1556.453	1199.400
143.614	19.356	1555.725	1199.585
144.629	19.360	1554.465	1198.535
145.643	19.408	1553.316	1197.877
146.658	19.453	1551.966	1197.040
147.673	19.377	1550.290	1195.115
148.687	19.257	1548.889	1193.100
149.702	19.178	1546.869	1190.888
150.716	19.017	1545.253	1188.428
151.731	18.860	1544.206	1186.435
152.746	18.981	1542.662	1185.977
153.760	19.003	1541.259	1184.948
154.775	19.033	1540.136	1184.184
155.789	19.063	1539.155	1183.530
156.804	19.192	1537.952	1183.390
157.819	19.326	1536.448	1183.043
158.833	19.220	1535.527	1181.508
159.848	19.323	1534.853	1181.590
160.862	19.344	1534.167	1181.097
161.877	19.578	1532.742	1181.496
162.892	19.317	1531.252	1178.463
163.906	19.075	1529.220	1175.139
164.921	18.919	1528.063	1173.086
165.935	18.974	1526.994	1172.535
166.950	19.009	1525.891	1171.825
167.964	19.145	1524.915	1171.893
168.979	19.190	1523.997	1171.394
169.994	19.155	1522.937	1170.239
171.008	19.060	1521.823	1168.630
172.023	19.034	1520.915	1167.653
173.037	19.120	1519.877	1167.336
174.052	19.259	1519.052	1167.540
175.067	19.378	1518.262	1167.638
176.081	19.278	1516.728	1165.676
177.096	19.124	1514.601	1162.901
178.110	18.834	1513.842	1160.256
179.125	18.945	1512.788	1160.097
180.140	18.972	1511.667	1159.316
181.154	19.069	1510.662	1159.097
182.169	19.143	1509.718	1158.763
183.183	19.336	1508.323	1158.890
184.198	19.466	1507.423	1158.969
185.213	19.433	1506.489	1157.924
186.227	19.568	1505.419	1157.910
187.242	19.440	1504.875	1156.530
188.256	19.431	1503.800	1155.542
189.271	19.537	1502.748	1155.338
190.286	19.733	1501.277	1155.417
191.300	19.565	1501.035	1154.000
192.315	19.197	1499.632	1150.364
193.329	19.026	1497.121	1147.199
194.344	18.940	1495.601	1145.356
195.359	18.928	1495.586	1145.165
196.373	19.112	1494.132	1145.174
197.388	19.204	1493.514	1145.215
198.402	19.216	1492.518	1144.426
199.417	19.484	1491.234	1145.122
200.432	19.619	1490.920	1145.675
201.446	19.900	1490.150	1146.843
202.461	19.915	1489.326	1146.205
203.475	19.991	1487.797	1145.429
204.490	19.965	1487.486	1144.916
205.504	19.822	1486.190	1142.871
206.519	19.617	1484.672	1140.253
207.534	19.615	1483.185	1138.998
208.548	19.470	1482.140	1137.140
209.563	19.433	1481.096	1135.995
210.577	19.582	1480.181	1136.168
211.592	19.516	1478.975	1134.709
212.607	19.635	1478.142	1134.755
213.621	19.779	1478.064	1135.541
214.636	19.774	1477.383	1134.879
215.650	19.735	1475.898	1133.382
216.665	19.675	1474.932	1132.152
217.680	19.859	1474.039	1132.568
218.694	19.941	1473.756	1132.785
219.709	19.964	1473.020	1132.275
220.723	20.064	1471.855	1131.930
221.738	19.963	1470.526	1130.146
222.753	20.017	1469.842	1129.872
223.767	19.910	1468.928	1128.373
224.782	19.849	1467.990	1127.159
225.796	20.008	1467.465	1127.686
226.811	20.125	1466.488	1127.601
227.826	20.140	1465.532	1126.861
228.840	20.065	1464.651	1125.598
229.855	19.855	1463.807	1123.484
230.869	19.796	1462.512	1122.012
231.884	19.842	1461.454	1121.396
232.899	19.970	1460.052	1121.055
233.913	19.751	1459.263	1118.931
234.928	19.642	1457.714	1116.935
235.942	19.599	1456.563	1115.678
236.957	19.695	1455.047	1115.035
237.972	19.522	1454.034	1113.050
238.986	19.551	1453.095	1112.417
240.001	19.575	1451.963	1111.608
241.015	19.615	1451.215	1111.192
242.030	19.590	1450.121	1110.095
243.045	19.650	1449.581	1109.968
244.059	19.867	1448.294	1110.283
245.074	19.912	1447.265	1109.680
246.088	19.861	1446.659	1108.791
247.103	19.997	1446.118	1109.149
248.117	19.993	1445.982	1108.923
249.132	20.029	1445.295	1108.525
250.147	20.289	1444.107	1109.179
251.161	20.505	1444.129	1110.482
252.176	20.703	1443.385	1111.075
253.190	20.787	1442.835	1111.089
254.205	20.727	1442.076	1110.021
255.220	20.900	1441.364	1110.477
256.234	20.885	1440.721	1109.789
257.249	20.887	1439.418	1108.699
258.263	20.864	1438.619	1107.840
259.278	20.817	1437.789	1106.805
260.293	20.831	1436.706	1105.961
261.307	20.756	1435.964	1104.819
262.322	20.843	1435.700	1105.065
263.336	21.007	1434.663	1105.213
264.351	21.017	1433.709	1104.442
265.366	21.006	1432.817	1103.587
266.380	21.042	1431.375	1102.604
267.395	21.055	1430.386	1101.830
268.409	20.909	1430.358	1100.787
269.424	20.818	1429.015	1099.085
270.439	20.765	1428.053	1097.910
271.453	20.748	1426.599	1096.586
272.468	20.767	1425.740	1095.954
273.482	20.671	1425.284	1094.899
274.497	20.701	1423.790	1093.843
275.512	20.604	1423.207	1092.692
276.526	20.664	1422.098	1092.118
277.541	20.574	1421.582	1091.064
278.555	20.564	1420.455	1090.039
279.570	20.644	1419.543	1089.739
280.585	20.787	1418.694	1089.890
281.599	20.937	1418.321	1090.445
282.614	21.018	1417.369	1090.124
283.628	20.921	1416.095	1088.437
284.643	20.774	1414.737	1086.379
285.657	20.735	1413.152	1084.827
286.672	20.675	1412.601	1083.936
287.687	20.653	1412.158	1083.363
288.701	20.715	1410.782	1082.598
289.716	20.757	1410.089	1082.228
290.730	20.706	1409.271	1081.190
291.745	20.783	1408.301	1080.824
292.760	20.714	1407.511	1079.698
293.774	20.902	1406.384	1079.901
294.789	20.907	1405.295	1078.999
295.803	21.077	1404.637	1079.454
296.818	21.132	1404.119	1079.297
297.833	21.070	1402.546	1077.610
298.847	20.916	1401.851	1076.029
299.862	20.820	1401.064	1074.741
300.876	20.792	1399.990	1073.650
301.891	20.961	1398.725	1073.621
302.906	20.920	1398.630	1073.206
303.920	21.111	1398.047	1073.834
304.935	21.134	1397.611	1073.551
305.949	21.307	1396.352	1073.551
306.964	21.444	1395.776	1073.851
307.979	21.466	1394.699	1073.062
308.993	21.369	1393.825	1071.701
310.008	21.252	1392.831	1070.123
311.022	21.301	1391.255	1069.121
312.037	21.347	1391.152	1069.226
313.052	21.364	1390.050	1068.389
314.066	21.276	1388.961	1066.922
315.081	21.153	1387.400	1064.876
316.095	20.976	1386.339	1062.890
317.110	20.873	1384.920	1061.078
318.125	20.993	1383.764	1060.830
319.139	20.918	1382.861	1059.590
320.154	20.780	1382.271	1058.205
321.168	20.975	1381.564	1058.755
322.183	20.909	1380.060	1057.108
323.197	20.972	1379.183	1056.724
324.212	21.037	1378.407	1056.426
325.227	21.047	1377.878	1055.988
326.241	21.101	1377.106	1055.634
327.256	21.068	1376.032	1054.517
328.270	21.139	1375.057	1054.107
329.285	21.021	1374.210	1052.650
330.300	20.980	1373.195	1051.532
331.314	20.945	1372.479	1050.679
332.329	21.099	1371.387	1050.678
333.343	20.983	1370.796	1049.437
334.358	21.103	1369.584	1049.134
335.373	21.184	1369.306	1049.318
336.387	21.328	1368.605	1049.548
337.402	21.316	1367.749	1048.727
338.416	21.408	1366.967	1048.591
339.431	21.528	1366.275	1048.685
340.446	21.560	1365.857	1048.462
341.460	21.529	1364.962	1047.499
342.475	21.634	1364.585	1047.746
343.489	21.779	1363.245	1047.489
344.504	21.852	1362.487	1047.248
345.519	21.782	1361.698	1046.134
346.533	21.866	1361.127	1046.105
347.548	21.972	1359.853	1045.660
348.562	22.020	1359.276	1045.409
349.577	22.107	1358.308	1045.093
350.592	21.849	1357.411	1042.776
351.606	21.610	1356.264	1040.381
352.621	21.549	1354.997	1038.955
353.635	21.361	1353.596	1036.677
354.650	21.384	1352.841	1036.139
355.665	21.506	1351.480	1035.729
356.679	21.402	1350.594	1034.343
357.694	21.522	1349.982	1034.492
358.708	21.639	1348.475	1033.940
359.723	21.693	1347.841	1033.680
360.738	21.756	1346.942	1033.266
361.752	21.763	1345.816	1032.353
362.767	21.556	1345.290	1030.640
363.781	21.732	1343.945	1030.556
364.796	21.664	1343.500	1029.725
365.810	21.776	1342.247	1029.327
366.825	21.953	1341.630	1029.803
367.840	22.018	1341.483	1029.980
368.854	22.166	1341.105	1030.470
369.869	22.203	1340.759	1030.329
370.883	22.359	1339.826	1030.434
371.898	22.279	1338.924	1029.180
372.913	22.106	1337.783	1027.198
373.927	22.093	1336.676	1026.185
374.942	22.060	1336.038	1025.413
375.956	22.224	1335.508	1025.870
376.971	22.246	1334.323	1024.995
377.986	22.164	1333.692	1023.944
379.000	22.128	1333.040	1023.140
380.015	22.300	1332.580	1023.699
381.029	22.357	1331.649	1023.223
382.044	22.432	1331.211	1023.238
383.059	22.548	1330.251	1023.077
384.073	22.483	1329.782	1022.249
385.088	22.445	1328.923	1021.283
386.102	22.383	1328.429	1020.453
387.117	22.420	1327.449	1019.820
388.132	22.388	1326.843	1019.081
389.146	22.125	1325.617	1016.526
390.161	22.137	1324.313	1015.509
391.175	22.137	1323.641	1014.900
392.190	21.988	1323.014	1013.473
393.205	22.159	1322.324	1013.841
394.219	22.335	1320.897	1013.670
395.234	22.406	1320.275	1013.509
396.248	22.239	1319.063	1011.531
397.263	22.079	1317.656	1009.442
398.278	22.137	1316.096	1008.494
399.292	22.077	1314.889	1007.134
400.307	22.008	1313.755	1005.778
401.321	21.968	1312.692	1004.646
402.336	22.014	1311.492	1003.907
403.350	21.934	1310.229	1002.394
404.365	21.864	1309.715	1001.512
405.380	22.001	1308.607	1001.354
406.394	22.034	1308.463	1001.345
407.409	22.075	1307.660	1000.877
408.423	22.170	1306.981	1000.807
409.438	22.386	1306.393	1001.497
410.453	22.440	1305.815	1001.272
411.467	22.569	1305.023	1001.312
412.482	22.711	1304.450	1001.591
413.496	22.684	1304.289	1001.225
414.511	22.759	1303.193	1000.717
415.526	22.852	1302.329	1000.497
416.540	22.977	1301.413	1000.412
417.555	22.994	1301.128	1000.201
418.569	22.986	1300.461	999.550
419.584	22.954	1300.055	998.971
420.599	22.786	1299.546	997.541
421.613	144.972	1432.110	1794.242
422.628	140.363	1451.389	1794.340
