DTS Sentinel unit serial number:	SN413079Multiplexer serial number:	ORYXHardware model number:	OX4-SRSoftware version number:	ORYX F/W v4.00 Oryx Data Collector v3.7.2.0data status	okinstallation	princeton_trtdifferential loss correction	single-endedforward channel	channel 4reverse channel	N/Adate	2019/09/17time	00:17:35forward acquisition time	60.00reverse acquisition time	0.00gamma	496.2192k internal	0.2313k external	0.2313temperature offset calibration	0.9976default loss term (dB/km)	0.3790temperature slope calibration	1.0000multiplexer offset coefficient	1.0000multiplexer slope coefficient	1.0000fibre end	0.00T internal ref (°C)	29.52T ext. ref 1 (°C)	0.09T ext. ref 2 (°C)	23.65length (m)	temperature (°C)	Stokes	anti-Stokes-747.200	800.000	0.028	-0.118
-746.185	97.551	0.023	-0.027
-745.171	800.000	0.021	-0.092
-744.156	225.917	-0.242	0.398
-743.142	-14.393	0.068	0.045
-742.127	-200.000	-0.037	0.443
-741.112	-200.000	0.036	0.183
-740.098	91.618	0.041	0.047
-739.083	160.488	0.023	0.033
-738.069	775.308	-0.063	0.174
-737.054	224.677	0.108	-0.177
-736.039	81.517	-0.193	-0.211
-735.025	13.975	0.182	0.143
-734.010	-200.000	0.017	0.193
-732.996	203.245	0.103	0.162
-731.981	-200.000	0.023	0.469
-730.966	800.000	-0.073	-0.213
-729.952	-77.027	0.135	-0.048
-728.937	-200.000	-0.043	-0.392
-727.923	-32.038	-0.071	-0.040
-726.908	-200.000	-0.059	-0.332
-725.894	-200.000	-0.017	-0.083
-724.879	-101.600	-0.090	0.022
-723.864	-40.798	-0.232	0.122
-722.850	68.430	0.283	-0.294
-721.835	-81.221	0.310	-0.104
-720.821	800.000	-0.054	-0.169
-719.806	-97.812	-0.138	0.036
-718.791	7.621	-0.342	0.260
-717.777	-118.988	-0.242	-0.043
-716.762	674.343	0.113	0.298
-715.748	30.576	-0.167	0.144
-714.733	-4.941	0.101	-0.071
-713.718	-200.000	-0.014	0.077
-712.704	-76.870	0.149	-0.053
-711.689	754.363	-0.156	-0.428
-710.675	-132.832	-0.458	0.059
-709.660	800.000	-0.119	-0.366
-708.645	-200.000	-0.025	-0.146
-707.631	170.744	-0.079	-0.115
-706.616	114.716	-0.045	-0.056
-705.602	382.915	-0.108	0.225
-704.587	-200.000	-0.029	0.320
-703.572	-124.730	-0.273	-0.043
-702.558	10.981	-0.229	-0.177
-701.543	-200.000	-0.030	-0.185
-700.529	-141.833	0.128	0.013
-699.514	65.744	-0.056	0.057
-698.499	67.315	-0.108	-0.111
-697.485	-28.179	-0.080	-0.047
-696.470	800.000	-0.089	-0.267
-695.456	279.619	-0.119	-0.215
-694.441	551.274	-0.132	-0.321
-693.426	-21.094	0.291	0.180
-692.412	11.201	-0.140	0.108
-691.397	-105.650	0.104	0.024
-690.383	-200.000	0.072	-0.325
-689.368	478.658	0.099	0.227
-688.354	-85.093	-0.143	0.045
-687.339	-135.050	-0.209	0.026
-686.324	387.842	-0.221	-0.462
-685.310	133.316	-0.173	0.226
-684.295	-52.190	-0.380	-0.178
-683.281	-3.456	-0.286	-0.201
-682.266	-29.426	-0.066	-0.038
-681.251	3.345	0.023	-0.017
-680.237	-159.750	0.291	0.016
-679.222	-38.252	0.062	-0.033
-678.208	-200.000	-0.001	0.185
-677.193	-107.694	-0.201	-0.044
-676.178	147.002	0.153	-0.209
-675.164	441.879	0.057	-0.126
-674.149	-20.058	-0.400	-0.249
-673.135	800.000	-0.130	0.435
-672.120	800.000	-0.036	0.110
-671.105	68.042	-0.090	-0.093
-670.091	-64.225	0.093	-0.039
-669.076	-43.605	-0.368	-0.188
-668.062	-200.000	0.012	0.307
-667.047	-200.000	0.076	-0.349
-666.032	-72.736	0.096	0.036
-665.018	-62.806	-0.072	0.030
-664.003	267.634	0.074	-0.131
-662.989	649.088	-0.072	0.186
-661.974	127.251	-0.074	-0.095
-660.959	-184.419	0.240	-0.004
-659.945	414.661	-0.128	-0.276
-658.930	-87.806	0.100	-0.030
-657.916	97.513	-0.308	-0.358
-656.901	600.525	-0.059	0.149
-655.886	-150.854	-0.289	0.022
-654.872	-32.824	0.131	-0.074
-653.857	-47.498	0.057	-0.028
-652.843	-200.000	0.021	-0.245
-651.828	-7.514	0.189	0.129
-650.814	2.098	-0.157	-0.115
-649.799	133.448	-0.058	-0.076
-648.784	281.639	0.094	0.170
-647.770	71.048	-0.144	-0.151
-646.755	-200.000	-0.003	0.018
-645.741	-199.443	0.271	-0.001
-644.726	64.330	-0.078	-0.079
-643.711	12.586	-0.190	-0.148
-642.697	31.497	-0.078	-0.067
-641.682	-200.000	0.000	-0.037
-640.668	-5.789	0.135	0.093
-639.653	186.071	-0.253	-0.380
-638.638	218.107	-0.068	0.110
-637.624	103.265	-0.144	-0.170
-636.609	121.342	0.067	-0.084
-635.595	-93.125	-0.137	0.038
-634.580	-200.000	0.006	-0.109
-633.565	-200.000	0.013	-0.061
-632.551	-82.828	-0.260	-0.085
-631.536	92.069	0.139	-0.158
-630.522	-101.859	0.345	-0.084
-629.507	-46.327	0.289	-0.143
-628.492	-67.922	-0.069	-0.027
-627.478	-159.354	0.264	0.015
-626.463	194.166	-0.080	0.122
-625.449	-57.331	0.159	-0.071
-624.434	-98.570	-0.165	0.042
-623.419	-115.964	0.471	0.089
-622.405	-115.474	0.193	-0.037
-621.390	78.365	-0.155	0.167
-620.376	800.000	0.110	-0.328
-619.361	-200.000	0.052	-0.331
-618.346	690.816	0.096	-0.253
-617.332	56.187	0.151	-0.148
-616.317	-112.537	0.121	-0.024
-615.303	41.854	-0.124	-0.114
-614.288	-132.143	0.273	0.036
-613.273	-118.666	0.085	0.015
-612.259	-200.000	-0.021	0.324
-611.244	370.064	0.052	0.106
-610.230	-159.666	-0.062	0.003
-609.215	661.846	0.104	0.270
-608.201	-109.155	0.056	-0.012
-607.186	191.657	-0.081	-0.123
-606.171	-200.000	0.005	0.064
-605.157	-159.278	-0.476	-0.027
-604.142	62.410	0.143	0.144
-603.128	-43.927	-0.169	-0.086
-602.113	-75.389	-0.071	0.025
-601.098	-200.000	-0.009	-0.190
-600.084	12.551	-0.223	0.174
-599.069	293.360	0.134	0.247
-598.055	-8.874	0.303	-0.204
-597.040	-180.031	0.079	0.002
-596.025	748.188	-0.040	0.108
-595.011	-141.044	-0.193	-0.020
-593.996	800.000	-0.115	-0.351
-592.982	-23.542	0.076	-0.046
-591.967	-12.996	-0.449	-0.294
-590.952	117.242	-0.270	-0.335
-589.938	326.434	0.192	-0.371
-588.923	6.535	0.193	-0.145
-587.909	-12.067	-0.174	-0.115
-586.894	-68.538	0.118	0.046
-585.879	-200.000	0.047	0.350
-584.865	36.855	-0.090	0.081
-583.850	449.538	-0.049	-0.109
-582.836	-200.000	-0.058	0.305
-581.821	-44.845	-0.219	0.110
-580.806	-136.603	0.064	0.007
-579.792	0.339	0.122	-0.088
-578.777	-128.170	-0.122	0.018
-577.763	-200.000	-0.006	0.288
-576.748	-108.843	-0.185	0.040
-575.733	-200.000	0.042	0.264
-574.719	-95.122	-0.120	-0.033
-573.704	-131.970	-0.108	0.014
-572.690	213.945	-0.084	-0.133
-571.675	-37.466	-0.091	0.049
-570.661	196.951	-0.142	-0.218
-569.646	-6.528	0.182	0.125
-568.631	800.000	0.081	0.255
-567.617	-57.960	-0.233	0.102
-566.602	800.000	-0.094	0.402
-565.588	-128.817	0.279	-0.040
-564.573	-126.826	-0.174	0.026
-563.558	-146.738	0.149	-0.013
-562.544	203.437	0.163	0.254
-561.529	-200.000	0.015	-0.283
-560.515	199.390	0.046	-0.071
-559.500	-98.985	0.079	-0.020
-558.485	-200.000	0.011	-0.255
-557.471	-45.163	-0.201	0.101
-556.456	-53.093	0.211	0.097
-555.442	378.600	0.067	-0.138
-554.427	-52.771	0.398	-0.185
-553.412	-32.836	-0.066	-0.037
-552.398	-62.107	-0.095	0.040
-551.383	261.697	-0.145	0.252
-550.369	32.446	-0.147	-0.128
-549.354	236.874	0.057	0.095
-548.339	-43.890	-0.229	-0.116
-547.325	-200.000	0.005	-0.311
-546.310	-200.000	0.018	0.091
-545.296	-195.394	0.085	0.001
-544.281	522.858	0.045	-0.106
-543.266	-200.000	-0.023	0.286
-542.252	460.800	0.075	0.169
-541.237	-67.187	-0.107	-0.043
-540.223	130.732	-0.040	0.051
-539.208	-200.000	-0.014	0.281
-538.193	-200.000	-0.001	-0.314
-537.179	-79.846	-0.193	-0.065
-536.164	45.027	-0.076	0.070
-535.150	-161.088	0.291	0.015
-534.135	-23.829	-0.257	-0.155
-533.121	-200.000	0.064	0.364
-532.106	-121.978	-0.394	-0.065
-531.091	-22.888	-0.224	0.136
-530.077	-115.920	0.143	0.027
-529.062	-16.364	0.122	0.078
-528.048	-2.882	0.104	-0.073
-527.033	20.906	0.097	0.079
-526.018	-139.647	-0.326	0.035
-525.004	-103.452	0.380	0.090
-523.989	-200.000	0.012	-0.168
-522.975	156.775	-0.230	-0.319
-521.960	800.000	-0.039	0.127
-520.945	178.084	0.124	-0.181
-519.931	-140.019	-0.190	-0.020
-518.916	-200.000	0.014	-0.116
-517.902	-200.000	-0.008	-0.136
-516.887	131.507	0.223	0.289
-515.872	-200.000	-0.034	-0.153
-514.858	-100.399	-0.071	-0.018
-513.843	-200.000	-0.026	0.114
-512.829	800.000	-0.061	-0.235
-511.814	-169.723	-0.173	0.006
-510.799	-67.588	0.161	0.064
-509.785	-0.163	0.008	0.006
-508.770	453.512	-0.179	0.398
-507.756	268.206	-0.151	0.265
-506.741	0.252	0.101	0.072
-505.726	-16.740	-0.144	0.092
-504.712	-172.420	-0.273	-0.009
-503.697	354.058	-0.302	0.603
-502.683	35.147	-0.139	0.122
-501.668	208.419	0.085	0.133
-500.653	36.678	0.053	-0.047
-499.639	31.267	0.105	0.091
-498.624	800.000	0.017	0.068
-497.610	46.817	-0.149	-0.139
-496.595	-200.000	0.006	0.191
-495.581	-113.530	0.086	0.017
-494.566	436.116	-0.068	0.148
-493.551	171.729	-0.248	0.357
-492.537	-54.115	0.297	0.136
-491.522	-200.000	-0.006	-0.189
-490.508	534.311	0.094	0.225
-489.493	-26.011	0.144	-0.085
-488.478	-31.784	-0.165	-0.093
-487.464	125.433	-0.287	-0.363
-486.449	800.000	-0.015	-0.057
-485.435	-200.000	-0.086	0.413
-484.420	408.740	-0.133	-0.282
-483.405	-148.149	-0.303	0.025
-482.391	-32.689	-0.280	-0.156
-481.376	-71.932	0.277	0.104
-480.362	-139.308	0.129	-0.014
-479.347	-57.010	-0.116	-0.051
-478.332	800.000	0.016	-0.051
-477.318	-148.195	0.294	0.024
-476.303	286.212	0.181	-0.328
-475.289	151.722	0.149	0.204
-474.274	-24.081	-0.180	-0.108
-473.259	-87.830	0.128	0.039
-472.245	109.471	-0.077	-0.093
-471.230	-146.402	-0.090	0.008
-470.216	166.157	-0.220	0.312
-469.201	105.928	0.110	0.131
-468.186	713.455	0.063	-0.168
-467.172	-82.838	-0.133	-0.043
-466.157	268.982	0.137	-0.241
-465.143	319.870	-0.237	0.452
-464.128	-15.619	0.175	-0.112
-463.113	-200.000	0.002	-0.047
-462.099	-200.000	-0.004	0.279
-461.084	517.265	0.078	-0.184
-460.070	-70.718	0.213	-0.081
-459.055	614.245	-0.032	0.080
-458.040	53.548	0.118	0.113
-457.026	800.000	-0.055	-0.229
-456.011	-200.000	0.038	-0.208
-454.997	640.959	0.063	-0.161
-453.982	-53.052	0.114	-0.052
-452.968	288.585	-0.057	0.103
-451.953	689.080	-0.067	0.175
-450.938	310.081	0.036	-0.068
-449.924	-200.000	-0.003	0.161
-448.909	65.843	-0.206	0.209
-447.895	-108.679	0.341	0.073
-446.880	-200.000	0.073	-0.365
-445.865	-200.000	-0.021	-0.278
-444.851	800.000	0.067	-0.222
-443.836	492.881	-0.009	0.021
-442.822	25.730	0.141	0.118
-441.807	75.704	0.180	-0.191
-440.792	41.169	-0.092	0.083
-439.778	-34.301	-0.330	-0.181
-438.763	77.705	-0.237	0.253
-437.749	-47.324	0.157	-0.077
-436.734	800.000	-0.066	0.226
-435.719	317.252	0.171	-0.324
-434.705	215.486	-0.177	0.282
-433.690	-67.836	0.482	0.189
-432.676	160.900	0.153	0.214
-431.661	-200.000	0.035	0.383
-430.646	-65.794	0.532	0.213
-429.632	148.742	-0.141	0.191
-428.617	800.000	-0.087	0.256
-427.603	353.732	0.123	0.245
-426.588	466.751	-0.030	-0.068
-425.573	-111.166	-0.304	0.062
-424.559	800.000	0.067	0.257
-423.544	-47.589	0.113	-0.055
-422.530	-200.000	-0.003	-0.194
-421.515	-161.720	0.040	-0.002
-420.500	180.961	-0.242	-0.356
-419.486	-107.795	0.046	0.010
-418.471	268.055	0.059	0.103
-417.457	-11.796	0.162	-0.106
-416.442	689.830	0.112	-0.292
-415.428	12.500	0.334	0.258
-414.413	-200.000	-0.010	-0.248
-413.398	273.424	0.158	-0.280
-412.384	783.213	0.098	-0.269
-411.369	-164.527	-0.105	0.005
-410.355	-46.982	-0.244	-0.119
-409.340	800.000	0.072	0.259
-408.325	150.686	-0.162	-0.220
-407.311	386.781	-0.042	0.087
-406.296	206.507	0.009	-0.014
-405.282	18.839	0.101	0.081
-404.267	-200.000	-0.069	0.437
-403.252	-171.155	0.317	0.011
-402.238	-200.000	-0.005	-0.117
-401.223	243.932	-0.114	-0.192
-400.209	-200.000	-0.071	0.404
-399.194	-200.000	-0.022	-0.201
-398.179	-6.867	0.144	0.098
-397.165	216.153	-0.210	0.334
-396.150	-101.731	-0.385	-0.093
-395.136	-200.000	0.012	0.150
-394.121	239.753	-0.169	0.282
-393.106	-200.000	-0.072	-0.324
-392.092	-176.168	0.075	0.002
-391.077	-150.970	-0.435	0.033
-390.063	-27.005	0.228	0.133
-389.048	800.000	0.058	-0.170
-388.033	-129.039	-0.229	-0.032
-387.019	137.713	-0.145	0.189
-386.004	34.334	0.340	-0.297
-384.990	-117.700	-0.621	0.112
-383.975	-200.000	0.010	0.105
-382.960	55.436	0.202	0.195
-381.946	-20.998	0.038	0.023
-380.931	800.000	-0.037	0.127
-379.917	-67.038	-0.376	0.148
-378.902	-147.610	-0.188	-0.016
-377.888	-200.000	-0.018	0.081
-376.873	38.988	0.138	0.123
-375.858	-200.000	-0.001	-0.157
-374.844	-54.675	-0.116	0.052
-373.829	-68.323	0.389	-0.151
-372.815	-42.527	0.170	0.087
-371.800	-200.000	-0.055	0.459
-370.785	-60.425	-0.212	0.090
-369.771	-49.502	-0.053	0.025
-368.756	-200.000	-0.005	-0.289
-367.742	800.000	0.022	-0.067
-366.727	-119.233	0.313	-0.055
-365.712	-173.122	0.065	0.002
-364.698	278.500	0.058	-0.104
-363.683	-99.806	0.392	-0.098
-362.669	800.000	-0.077	0.247
-361.654	-200.000	0.021	-0.135
-360.639	-74.966	0.154	0.055
-359.625	193.904	-0.096	-0.146
-358.610	-200.000	-0.006	-0.075
-357.596	-200.000	0.019	-0.219
-356.581	-59.706	0.158	-0.067
-355.566	-200.000	0.020	0.226
-354.552	-73.055	-0.343	0.126
-353.537	-200.000	0.028	0.252
-352.523	204.307	-0.152	-0.235
-351.508	-200.000	-0.013	-0.135
-350.493	753.658	-0.070	-0.189
-349.479	160.434	-0.197	-0.275
-348.464	119.622	0.228	-0.281
-347.450	-25.780	-0.214	-0.126
-346.435	20.357	-0.138	0.111
-345.420	-72.905	0.098	0.036
-344.406	-200.000	-0.004	0.114
-343.391	800.000	-0.035	0.114
-342.377	-200.000	0.039	-0.338
-341.362	122.686	-0.135	0.169
-340.348	-78.979	0.138	0.047
-339.333	58.810	-0.189	-0.185
-338.318	-119.260	-0.231	0.040
-337.304	-104.195	0.191	0.044
-336.289	407.622	-0.051	-0.107
-335.275	44.468	0.101	-0.092
-334.260	-5.084	-0.386	-0.265
-333.245	-200.000	0.051	-0.373
-332.231	-124.347	-0.191	-0.030
-331.216	-161.836	0.376	0.019
-330.202	-41.028	0.268	0.138
-329.187	800.000	-0.133	0.388
-328.172	243.418	-0.201	-0.337
-327.158	21.471	0.213	-0.173
-326.143	-9.631	0.338	-0.224
-325.129	-83.111	-0.164	0.053
-324.114	-200.000	0.026	-0.191
-323.099	25.670	-0.312	0.259
-322.085	93.672	-0.170	0.192
-321.070	131.935	-0.052	0.067
-320.056	-25.908	0.118	0.069
-319.041	228.987	-0.066	-0.108
-318.026	-200.000	0.036	-0.226
-317.012	-200.000	-0.061	0.366
-315.997	20.748	0.252	0.204
-314.983	-60.181	0.065	0.027
-313.968	453.321	0.112	0.248
-312.953	-134.316	-0.325	0.040
-311.939	135.820	0.063	-0.082
-310.924	409.601	-0.094	-0.198
-309.910	-37.026	0.259	-0.138
-308.895	119.328	0.089	-0.109
-307.880	-200.000	-0.034	-0.380
-306.866	-60.418	0.103	-0.044
-305.851	75.333	0.237	-0.249
-304.837	72.051	-0.015	-0.015
-303.822	-4.266	-0.215	0.148
-302.807	-200.000	0.022	0.268
-301.793	800.000	-0.012	-0.034
-300.778	440.964	-0.020	-0.045
-299.764	-200.000	0.040	0.225
-298.749	-29.914	-0.093	-0.053
-297.735	-200.000	-0.053	0.510
-296.720	-200.000	-0.006	0.081
-295.705	-133.379	-0.132	0.017
-294.691	800.000	-0.066	0.211
-293.676	-26.368	-0.033	0.019
-292.662	496.984	-0.029	-0.067
-291.647	-200.000	-0.043	-0.437
-290.632	449.491	0.106	-0.233
-289.618	-24.877	0.177	0.105
-288.603	93.960	-0.067	-0.076
-287.589	118.597	0.055	-0.068
-286.574	800.000	0.062	-0.249
-285.559	-200.000	-0.056	0.591
-284.545	182.139	0.119	0.175
-283.530	-45.672	0.068	0.034
-282.516	800.000	0.041	-0.166
-281.501	800.000	0.100	0.281
-280.486	232.319	0.160	0.262
-279.472	718.465	-0.021	-0.054
-278.457	-85.780	0.264	-0.082
-277.443	-200.000	0.099	-0.475
-276.428	85.301	0.221	-0.242
-275.413	-95.369	0.175	-0.047
-274.399	-103.570	0.141	-0.033
-273.384	112.211	-0.148	-0.178
-272.370	465.562	0.133	-0.296
-271.355	-44.592	0.170	0.085
-270.340	-112.457	0.213	0.042
-269.326	428.068	0.100	0.215
-268.311	-2.670	-0.244	-0.170
-267.297	348.629	0.042	0.083
-266.282	27.737	0.264	0.221
-265.267	79.364	-0.070	0.075
-264.253	121.822	-0.191	-0.237
-263.238	-72.994	-0.087	0.032
-262.224	-65.117	0.414	0.166
-261.209	-200.000	-0.025	0.184
-260.195	-167.198	0.476	0.019
-259.180	-44.325	-0.060	-0.030
-258.165	-200.000	-0.001	0.168
-257.151	800.000	-0.055	0.231
-256.136	-63.495	0.212	0.087
-255.122	-200.000	0.040	0.247
-254.107	-130.614	0.350	-0.047
-253.092	92.698	-0.044	0.050
-252.078	-159.162	0.290	-0.016
-251.063	99.099	-0.167	-0.192
-250.049	-200.000	0.060	-0.271
-249.034	-171.504	0.106	-0.004
-248.019	-200.000	-0.030	0.303
-247.005	-72.090	-0.417	0.154
-245.990	-200.000	0.024	-0.161
-244.976	58.472	0.276	0.270
-243.961	86.673	0.114	-0.125
-242.946	-200.000	-0.009	-0.327
-241.932	226.722	-0.057	-0.091
-240.917	800.000	-0.034	-0.135
-239.903	18.442	0.145	-0.115
-238.888	158.483	0.268	0.370
-237.873	-200.000	0.017	0.291
-236.859	220.795	0.064	0.101
-235.844	123.670	-0.126	0.157
-234.830	43.737	0.132	0.120
-233.815	-62.403	0.143	-0.059
-232.800	-116.745	-0.255	0.047
-231.786	-200.000	0.005	-0.023
-230.771	-88.966	-0.188	0.055
-229.757	-2.926	0.032	0.022
-228.742	-99.140	-0.030	-0.008
-227.727	-112.300	-0.266	-0.053
-226.713	81.796	-0.085	0.092
-225.698	-16.815	0.088	0.055
-224.684	424.223	-0.080	0.171
-223.669	800.000	0.069	0.245
-222.655	-172.239	-0.067	0.002
-221.640	485.520	0.027	0.061
-220.625	-200.000	-0.092	-0.423
-219.611	513.208	0.116	-0.268
-218.596	-91.821	-0.243	0.068
-217.582	-98.983	0.249	0.063
-216.567	-200.000	-0.010	-0.143
-215.552	-106.818	0.136	-0.030
-214.538	-76.353	0.101	0.035
-213.523	-200.000	-0.018	0.176
-212.509	351.327	0.115	0.226
-211.494	557.264	0.064	-0.153
-210.479	486.045	-0.042	-0.095
-209.465	-52.510	-0.258	0.118
-208.450	-200.000	-0.018	-0.186
-207.436	-200.000	0.027	-0.141
-206.421	189.151	0.021	0.031
-205.406	-35.016	-0.124	-0.067
-204.392	-84.038	-0.253	-0.080
-203.377	-115.149	-0.018	0.003
-202.363	800.000	0.098	-0.331
-201.348	-33.110	-0.135	0.074
-200.333	-150.018	-0.191	-0.015
-199.319	-200.000	0.016	-0.129
-198.304	-200.000	0.034	-0.191
-197.290	-115.444	-0.114	-0.021
-196.275	-71.908	0.102	0.038
-195.260	78.048	-0.140	0.149
-194.246	-121.934	0.163	0.027
-193.231	-125.307	0.127	-0.019
-192.217	-173.082	0.217	-0.007
-191.202	307.061	-0.039	-0.073
-190.187	428.308	-0.043	0.091
-189.173	-33.317	0.297	0.163
-188.158	146.329	-0.163	-0.217
-187.144	33.430	-0.043	0.037
-186.129	774.218	-0.116	-0.314
-185.114	99.093	-0.179	0.205
-184.100	800.000	0.026	-0.105
-183.085	-156.168	-0.023	-0.001
-182.071	-200.000	-0.009	-0.048
-181.056	-200.000	0.033	0.190
-180.042	-200.000	0.070	-0.344
-179.027	6.658	0.105	0.077
-178.012	-200.000	0.015	-0.114
-176.998	-7.922	-0.238	-0.159
-175.983	-71.285	-0.167	0.062
-174.969	96.238	0.079	0.089
-173.954	-161.833	-0.302	-0.015
-172.939	11.812	-0.114	0.087
-171.925	800.000	0.033	-0.092
-170.910	-56.691	-0.256	-0.112
-169.896	-108.248	-0.329	0.070
-168.881	-116.988	-0.199	0.036
-167.866	44.124	-0.284	-0.258
-166.852	800.000	0.080	-0.328
-165.837	226.695	-0.239	0.384
-164.823	-67.505	0.298	-0.116
-163.808	-28.846	0.163	-0.093
-162.793	130.895	-0.350	0.446
-161.779	-200.000	-0.035	-0.348
-160.764	-200.000	0.018	-0.293
-159.750	70.459	0.246	0.252
-158.735	-200.000	0.049	0.258
-157.720	-200.000	0.010	0.176
-156.706	-200.000	0.004	-0.110
-155.691	7.409	0.252	0.186
-154.677	-71.626	0.269	-0.099
-153.662	74.362	-0.072	-0.075
-152.647	40.266	0.282	-0.251
-151.633	-200.000	-0.309	-0.001
-150.618	-94.412	-0.105	0.028
-149.604	-123.310	0.050	-0.008
-148.589	-10.491	-0.138	-0.091
-147.574	471.827	0.073	-0.162
-146.560	-24.293	0.037	0.022
-145.545	-55.950	-0.208	-0.092
-144.531	136.189	-0.047	0.060
-143.516	119.242	-0.045	0.055
-142.502	-84.216	-0.326	-0.102
-141.487	529.531	0.097	-0.226
-140.472	-62.245	-0.122	0.050
-139.458	-200.000	0.001	0.322
-138.443	304.708	0.212	0.390
-137.429	-7.022	-0.398	-0.267
-136.414	107.304	0.296	0.349
-135.399	-138.324	0.265	0.029
-134.385	-148.060	0.254	-0.021
-133.370	32.188	0.136	-0.116
-132.356	73.221	0.090	-0.093
-131.341	153.480	0.130	-0.176
-130.326	21.310	-0.231	0.186
-129.312	-106.910	0.441	0.097
-128.297	-64.785	-0.187	-0.075
-127.283	79.148	-0.231	-0.245
-126.268	90.062	-0.087	-0.097
-125.253	321.103	-0.131	0.247
-124.239	-200.000	0.040	0.354
-123.224	-77.816	-0.147	-0.050
-122.210	-200.000	0.030	0.274
-121.195	800.000	-0.032	0.109
-120.180	-159.557	-0.257	0.014
-119.166	-148.133	0.412	-0.034
-118.151	19.963	0.220	-0.176
-117.137	-200.000	0.026	-0.438
-116.122	273.355	0.134	0.234
-115.107	211.689	0.073	-0.114
-114.093	41.332	0.128	0.114
-113.078	800.000	-0.051	-0.188
-112.064	-87.343	0.263	-0.079
-111.049	-200.000	0.036	0.176
-110.034	-167.846	-0.086	-0.003
-109.020	-122.301	-0.265	0.043
-108.005	220.794	-0.196	0.311
-106.991	682.600	0.066	0.170
-105.976	-164.646	-0.068	-0.003
-104.962	-132.374	-0.356	0.045
-103.947	266.246	0.029	-0.050
-102.932	800.000	0.032	-0.125
-101.918	366.501	-0.201	-0.402
-100.903	-200.000	-0.010	-0.053
-99.889	-40.969	-0.238	0.122
-98.874	427.557	0.091	0.195
-97.859	111.672	0.128	0.153
-96.845	78.480	0.031	0.033
-95.830	162.433	0.177	-0.246
-94.816	-136.910	-0.413	0.047
-93.801	-22.170	0.046	0.027
-92.786	-144.360	-0.144	0.013
-91.772	-111.714	-0.411	-0.082
-90.757	133.639	0.180	0.231
-89.743	749.346	-0.027	-0.071
-88.728	-146.717	0.255	0.022
-87.713	325.372	0.142	-0.269
-86.699	800.000	-0.069	0.198
-85.684	-134.461	-0.234	-0.028
-84.670	-157.508	-0.158	0.009
-83.655	-146.639	0.299	-0.026
-82.640	-18.822	0.156	-0.096
-81.626	116.512	0.222	0.269
-80.611	-200.000	-0.039	-0.377
-79.597	-115.727	-0.319	-0.059
-78.582	-55.151	-0.222	0.099
-77.567	308.379	-0.152	0.280
-76.553	-161.270	-0.424	-0.022
-75.538	-62.283	-0.205	-0.084
-74.524	112.963	-0.164	0.196
-73.509	33.542	-0.096	0.082
-72.494	650.462	-0.067	-0.170
-71.480	-200.000	-0.008	0.379
-70.465	737.442	-0.107	0.282
-69.451	-17.662	-0.064	0.040
-68.436	-200.000	0.050	-0.352
-67.422	184.640	0.094	-0.137
-66.407	800.000	-0.106	-0.389
-65.392	-26.950	0.279	0.161
-64.378	-107.869	-0.421	0.091
-63.363	52.978	-0.052	0.050
-62.349	-119.230	-0.374	-0.064
-61.334	31.881	-0.897	-0.763
-60.319	225.827	0.317	0.507
-59.305	800.000	-0.295	-0.902
-58.290	140.306	0.797	1.039
-57.276	-200.000	0.233	1.414
-56.261	-200.000	108.361	588.202
-55.246	436.725	1487.731	3198.400
-54.232	143.395	2676.247	3516.698
-53.217	95.856	2319.498	2614.174
-52.203	35.774	2069.509	1795.589
-51.188	31.332	1986.242	1683.359
-50.173	29.781	1971.089	1656.571
-49.159	45.559	2027.893	1848.207
-48.144	45.963	2044.430	1866.875
-47.130	31.831	2002.319	1701.245
-46.115	29.624	1991.269	1671.847
-45.100	29.487	1989.017	1668.647
-44.086	29.428	1986.401	1665.854
-43.071	29.387	1983.990	1663.395
-42.057	29.346	1982.127	1661.402
-41.042	29.370	1979.986	1659.755
-40.027	29.379	1978.215	1658.284
-39.013	29.399	1975.907	1656.462
-37.998	29.449	1974.117	1655.345
-36.984	29.471	1972.066	1653.758
-35.969	29.461	1970.417	1652.225
-34.954	29.482	1968.860	1651.037
-33.940	29.512	1967.260	1649.897
-32.925	29.519	1965.670	1648.560
-31.911	29.633	1963.272	1647.501
-30.896	29.510	1962.038	1645.307
-29.881	29.519	1961.025	1644.467
-28.867	29.580	1959.114	1643.345
-27.852	29.554	1957.258	1641.491
-26.838	29.597	1955.288	1640.154
-25.823	29.509	1953.694	1637.974
-24.809	29.616	1951.782	1637.256
-23.794	29.487	1950.635	1635.088
-22.779	29.594	1948.724	1634.364
-21.765	29.546	1946.937	1632.378
-20.750	29.551	1945.271	1630.959
-19.736	29.463	1944.223	1629.241
-18.721	29.527	1942.379	1628.191
-17.706	29.531	1940.555	1626.640
-16.692	29.557	1938.773	1625.302
-15.677	29.509	1937.305	1623.587
-14.663	29.523	1935.635	1622.249
-13.648	29.474	1934.941	1621.168
-12.633	29.537	1932.771	1619.842
-11.619	29.533	1931.634	1618.790
-10.604	29.536	1930.658	1617.932
-9.590	29.466	1929.352	1616.164
-8.575	29.486	1928.017	1615.151
-7.560	29.560	1926.457	1614.427
-6.546	29.552	1925.016	1613.086
-5.531	29.530	1923.948	1611.938
-4.517	29.491	1923.605	1611.243
-3.502	29.480	1922.095	1609.824
-2.487	29.586	1920.474	1609.326
-1.473	29.574	1919.411	1608.268
-0.458	29.597	1914.452	1604.246
0.556	27.550	1894.581	1576.181
1.571	23.472	1876.058	1525.628
2.586	19.675	1898.858	1510.900
3.600	18.621	1934.883	1530.032
4.615	18.493	1929.420	1524.435
5.629	14.347	1828.599	1409.637
6.644	5.646	1709.042	1248.274
7.659	0.706	1670.494	1181.458
8.673	0.199	1667.889	1175.552
9.688	0.056	1667.117	1173.792
10.702	0.100	1665.150	1172.645
11.717	-0.004	1661.878	1169.425
12.731	0.582	1661.384	1173.533
13.746	6.975	1674.942	1232.977
14.761	15.119	1691.265	1308.762
15.775	17.553	1694.939	1330.531
16.790	16.905	1691.855	1322.936
17.804	15.937	1688.393	1312.575
18.819	14.966	1684.852	1302.153
19.834	14.321	1682.392	1295.119
20.848	14.109	1680.708	1292.059
21.863	13.788	1679.286	1288.364
22.877	13.613	1677.885	1285.816
23.892	13.357	1676.462	1282.624
24.907	13.252	1675.226	1280.753
25.921	13.366	1674.023	1280.602
26.936	13.215	1673.487	1278.913
27.950	13.247	1672.016	1277.923
28.965	13.258	1671.884	1277.792
29.980	13.360	1671.347	1278.057
30.994	13.332	1670.800	1277.310
32.009	13.469	1669.165	1277.001
33.023	13.546	1668.386	1276.887
34.038	13.493	1667.488	1275.680
35.053	13.493	1666.551	1274.846
36.067	13.438	1665.401	1273.435
37.082	13.300	1664.948	1271.916
38.096	13.400	1663.365	1271.358
39.111	13.554	1662.558	1271.812
40.126	13.456	1661.987	1270.512
41.140	13.383	1661.186	1269.225
42.155	13.354	1659.696	1267.751
43.169	13.246	1658.377	1265.810
44.184	13.236	1657.280	1264.778
45.199	13.173	1656.228	1263.382
46.213	13.280	1655.000	1263.157
47.228	13.206	1653.570	1261.384
48.242	13.228	1652.739	1260.806
49.257	13.400	1651.067	1260.734
50.271	13.265	1650.189	1258.921
51.286	13.232	1648.990	1257.641
52.301	13.302	1647.755	1257.122
53.315	13.352	1646.346	1256.315
54.330	13.333	1644.741	1254.839
55.344	13.283	1642.873	1252.920
56.359	13.280	1641.746	1251.928
57.374	13.271	1640.319	1250.664
58.388	13.260	1639.509	1249.848
59.403	13.223	1637.960	1248.277
60.417	13.229	1636.045	1246.753
61.432	13.186	1635.271	1245.728
62.447	13.143	1634.120	1244.417
63.461	13.135	1633.126	1243.496
64.476	13.144	1631.619	1242.301
65.490	13.149	1630.568	1241.429
66.505	13.138	1629.457	1240.395
67.520	13.168	1628.023	1239.415
68.534	13.110	1627.593	1238.547
69.549	13.150	1626.522	1237.920
70.563	13.238	1624.746	1237.120
71.578	13.103	1623.918	1235.364
72.593	13.125	1622.961	1234.694
73.607	13.131	1621.468	1233.490
74.622	13.000	1620.940	1232.005
75.636	13.075	1619.750	1231.551
76.651	13.037	1618.468	1230.184
77.666	13.105	1617.631	1229.945
78.680	13.080	1616.810	1229.028
79.695	13.109	1615.583	1228.203
80.709	13.104	1614.856	1227.501
81.724	13.129	1613.804	1226.777
82.739	13.169	1613.121	1226.451
83.753	13.279	1612.229	1226.474
84.768	13.253	1611.220	1225.405
85.782	13.249	1610.824	1224.968
86.797	13.333	1609.691	1224.622
87.812	13.389	1608.666	1224.151
88.826	13.320	1607.081	1222.321
89.841	13.353	1605.853	1221.526
90.855	13.247	1605.323	1220.228
91.870	13.351	1603.867	1219.782
92.884	13.314	1603.128	1218.838
93.899	13.432	1601.986	1218.736
94.914	13.410	1600.482	1217.320
95.928	13.412	1599.501	1216.477
96.943	13.473	1598.041	1215.708
97.957	13.400	1596.896	1214.197
98.972	13.369	1595.371	1212.701
99.987	13.430	1593.451	1211.579
101.001	13.452	1591.948	1210.490
102.016	13.389	1590.919	1209.143
103.030	13.344	1589.606	1207.712
104.045	13.344	1588.736	1206.942
105.060	13.376	1587.018	1205.761
106.074	13.365	1585.348	1204.305
107.089	13.368	1583.951	1203.163
108.103	13.276	1582.375	1201.188
109.118	13.120	1581.320	1199.149
110.133	13.078	1580.119	1197.829
111.147	13.190	1578.568	1197.355
112.162	13.128	1577.590	1196.064
113.176	13.143	1576.033	1194.884
114.191	13.277	1574.611	1194.665
115.206	13.320	1573.136	1193.750
116.220	13.221	1572.060	1192.121
117.235	13.272	1570.476	1191.177
118.249	13.202	1570.057	1190.250
119.264	13.244	1568.097	1188.961
120.279	13.154	1567.254	1187.573
121.293	13.227	1565.964	1187.014
122.308	13.276	1563.916	1185.708
123.322	13.221	1562.980	1184.497
124.337	13.222	1561.025	1182.921
125.352	13.227	1559.799	1181.919
126.366	13.129	1558.998	1180.509
127.381	13.123	1558.239	1179.783
128.395	13.254	1556.433	1179.247
129.410	13.238	1555.325	1178.190
130.424	13.182	1554.530	1177.083
131.439	13.165	1553.072	1175.759
132.454	13.201	1551.741	1174.900
133.468	13.258	1550.230	1174.057
134.483	13.371	1548.448	1173.406
135.497	13.378	1547.169	1172.381
136.512	13.253	1546.272	1170.715
137.527	13.311	1544.775	1169.888
138.541	13.231	1543.623	1168.344
139.556	13.212	1542.170	1167.008
140.570	13.319	1540.667	1166.521
141.585	13.349	1539.442	1165.704
142.600	13.418	1537.926	1164.937
143.614	13.465	1536.845	1164.350
144.629	13.479	1535.572	1163.381
145.643	13.515	1534.712	1162.874
146.658	13.557	1532.989	1161.765
147.673	13.475	1531.572	1160.011
148.687	13.510	1529.983	1158.950
149.702	13.409	1528.177	1156.775
150.716	13.403	1526.960	1155.706
151.731	13.443	1525.532	1154.802
152.746	13.371	1524.630	1153.516
153.760	13.491	1522.560	1152.687
154.775	13.455	1521.625	1151.626
155.789	13.570	1519.892	1151.013
156.804	13.505	1518.926	1149.723
157.819	13.572	1517.895	1149.307
158.833	13.528	1516.593	1147.914
159.848	13.543	1515.612	1147.173
160.862	13.651	1514.563	1147.029
161.877	13.846	1512.335	1146.583
162.892	13.711	1511.867	1145.195
163.906	13.601	1510.922	1143.619
164.921	13.538	1509.277	1141.842
165.935	13.486	1508.595	1140.864
166.950	13.548	1507.380	1140.273
167.964	13.614	1506.081	1139.641
168.979	13.645	1505.399	1139.241
169.994	13.594	1504.535	1138.133
171.008	13.572	1503.599	1137.172
172.023	13.652	1502.070	1136.464
173.037	13.675	1500.566	1135.387
174.052	13.686	1499.839	1134.809
175.067	13.784	1498.745	1134.553
176.081	13.766	1497.652	1133.499
177.096	13.661	1496.131	1131.530
178.110	13.549	1494.960	1129.782
179.125	13.637	1493.908	1129.484
180.140	13.721	1492.681	1129.034
181.154	13.652	1491.721	1127.733
182.169	13.740	1490.585	1127.373
183.183	13.745	1489.199	1126.260
184.198	13.783	1488.093	1125.585
185.213	13.972	1486.693	1125.707
186.227	13.856	1486.154	1124.408
187.242	13.823	1485.551	1123.634
188.256	13.885	1483.999	1122.779
189.271	13.970	1483.157	1122.617
190.286	13.964	1481.685	1121.360
191.300	13.845	1481.133	1120.042
192.315	13.761	1479.573	1118.199
193.329	13.756	1478.187	1117.020
194.344	13.723	1476.558	1115.466
195.359	13.764	1475.708	1115.004
196.373	13.795	1474.816	1114.437
197.388	13.853	1473.696	1113.879
198.402	13.963	1472.808	1113.848
199.417	14.008	1471.624	1113.156
200.432	14.004	1470.853	1112.446
201.446	14.124	1469.721	1112.293
202.461	14.159	1468.573	1111.561
203.475	14.094	1467.445	1110.179
204.490	14.213	1466.050	1109.814
205.504	14.128	1465.348	1108.620
206.519	14.037	1464.482	1107.260
207.534	14.048	1463.281	1106.328
208.548	14.034	1462.397	1105.471
209.563	14.035	1460.737	1104.121
210.577	14.000	1460.282	1103.447
211.592	14.048	1459.204	1102.856
212.607	14.131	1458.369	1102.678
213.621	14.278	1457.344	1102.780
214.636	14.331	1456.642	1102.498
215.650	14.256	1455.795	1101.266
216.665	14.226	1454.754	1100.182
217.680	14.191	1453.946	1099.240
218.694	14.317	1453.372	1099.544
219.709	14.353	1452.083	1098.706
220.723	14.393	1451.064	1098.105
221.738	14.363	1450.406	1097.311
222.753	14.279	1449.554	1096.014
223.767	14.356	1448.260	1095.449
224.782	14.337	1447.876	1094.934
225.796	14.438	1446.793	1094.684
226.811	14.462	1445.988	1094.135
227.826	14.512	1445.476	1093.980
228.840	14.426	1444.808	1092.808
229.855	14.470	1443.549	1092.053
230.869	14.505	1442.591	1091.458
231.884	14.356	1441.455	1089.530
232.899	14.391	1440.237	1088.739
233.913	14.370	1439.262	1087.766
234.928	14.449	1437.886	1087.150
235.942	14.478	1436.875	1086.475
236.957	14.370	1435.590	1084.702
237.972	14.505	1434.188	1084.431
238.986	14.346	1433.300	1082.629
240.001	14.433	1432.686	1082.633
241.015	14.493	1431.414	1081.962
242.030	14.441	1430.515	1080.852
243.045	14.514	1429.089	1080.154
244.059	14.469	1428.346	1079.205
245.074	14.482	1427.572	1078.609
246.088	14.555	1426.825	1078.422
247.103	14.551	1426.292	1077.895
248.117	14.650	1425.519	1077.855
249.132	14.675	1424.621	1077.243
250.147	14.585	1424.535	1076.502
251.161	14.705	1423.712	1076.560
252.176	14.866	1422.944	1076.917
253.190	14.868	1422.122	1076.217
254.205	14.869	1420.977	1075.259
255.220	14.945	1419.396	1074.458
256.234	14.949	1419.083	1074.152
257.249	14.881	1418.620	1073.267
258.263	14.956	1417.504	1072.809
259.278	14.971	1416.670	1072.177
260.293	14.946	1415.825	1071.282
261.307	14.956	1414.970	1070.607
262.322	14.978	1414.538	1070.329
263.336	15.117	1413.257	1070.151
264.351	15.131	1412.331	1069.443
265.366	15.085	1411.261	1068.246
266.380	15.072	1410.489	1067.485
267.395	15.220	1409.109	1067.287
268.409	15.200	1408.956	1066.949
269.424	15.095	1407.803	1065.314
270.439	15.118	1406.792	1064.603
271.453	15.126	1405.470	1063.559
272.468	15.176	1405.084	1063.488
273.482	15.109	1404.109	1062.230
274.497	15.150	1402.852	1061.445
275.512	15.129	1402.163	1060.698
276.526	15.098	1401.755	1060.098
277.541	15.085	1400.611	1059.056
278.555	15.184	1399.554	1058.789
279.570	15.271	1398.637	1058.555
280.585	15.274	1397.630	1057.717
281.599	15.248	1396.655	1056.722
282.614	15.305	1395.860	1056.384
283.628	15.246	1395.122	1055.362
284.643	15.302	1393.846	1054.659
285.657	15.244	1392.665	1053.307
286.672	15.280	1391.705	1052.712
287.687	15.313	1391.004	1052.292
288.701	15.336	1389.859	1051.478
289.716	15.270	1389.420	1050.643
290.730	15.435	1388.127	1050.601
291.745	15.420	1387.168	1049.687
292.760	15.423	1386.492	1049.103
293.774	15.445	1385.267	1048.223
294.789	15.389	1384.243	1047.005
295.803	15.514	1383.768	1047.333
296.818	15.503	1382.811	1046.446
297.833	15.532	1381.640	1045.647
298.847	15.410	1380.826	1044.184
299.862	15.449	1379.799	1043.552
300.876	15.398	1379.052	1042.582
301.891	15.497	1377.792	1042.150
302.906	15.484	1377.470	1041.731
303.920	15.476	1376.524	1040.879
304.935	15.550	1375.925	1040.790
305.949	15.599	1375.012	1040.310
306.964	15.679	1374.015	1039.958
307.979	15.809	1373.464	1040.257
308.993	15.795	1372.076	1039.021
310.008	15.714	1371.499	1037.998
311.022	15.713	1370.938	1037.476
312.037	15.696	1369.485	1036.179
313.052	15.762	1368.476	1035.731
314.066	15.740	1367.237	1034.565
315.081	15.846	1366.161	1034.309
316.095	15.594	1365.567	1032.220
317.110	15.631	1364.601	1031.623
318.125	15.746	1363.335	1031.280
319.139	15.764	1362.537	1030.697
320.154	15.776	1361.389	1029.813
321.168	15.704	1360.742	1028.791
322.183	15.815	1359.199	1028.214
323.197	15.814	1358.528	1027.606
324.212	15.791	1357.614	1026.682
325.227	15.825	1357.105	1026.417
326.241	15.719	1356.474	1025.203
327.256	15.843	1355.020	1024.769
328.270	15.871	1354.468	1024.428
329.285	15.832	1353.502	1023.370
330.300	15.786	1352.910	1022.550
331.314	15.771	1352.075	1021.741
332.329	15.837	1351.053	1021.275
333.343	15.872	1350.196	1020.750
334.358	15.817	1349.435	1019.755
335.373	15.856	1348.327	1019.061
336.387	15.947	1347.767	1019.097
337.402	16.009	1346.676	1018.558
338.416	16.022	1345.798	1017.883
339.431	16.036	1345.332	1017.528
340.446	16.068	1344.683	1017.134
341.460	16.147	1343.529	1016.650
342.475	16.177	1342.692	1016.105
343.489	16.123	1341.911	1015.103
344.504	16.216	1340.809	1014.738
345.519	16.213	1340.122	1014.111
346.533	16.281	1339.182	1013.717
347.548	16.312	1338.264	1013.120
348.562	16.288	1337.525	1012.324
349.577	16.310	1336.660	1011.715
350.592	16.321	1335.880	1011.098
351.606	16.296	1334.989	1010.186
352.621	16.268	1333.728	1008.978
353.635	16.236	1332.640	1007.871
354.650	16.108	1332.090	1006.605
355.665	16.109	1331.176	1005.831
356.679	16.245	1329.646	1005.393
357.694	16.342	1328.665	1005.140
358.708	16.313	1328.005	1004.379
359.723	16.304	1326.905	1003.407
360.738	16.308	1325.679	1002.413
361.752	16.374	1324.813	1002.064
362.767	16.402	1323.338	1001.025
363.781	16.337	1322.568	999.966
364.796	16.388	1322.492	1000.121
365.810	16.383	1321.315	999.117
366.825	16.563	1320.544	999.506
367.840	16.542	1319.932	998.833
368.854	16.547	1319.385	998.360
369.869	16.560	1318.860	997.951
370.883	16.572	1317.932	997.227
371.898	16.679	1316.999	997.067
372.913	16.636	1316.263	996.169
373.927	16.605	1315.386	995.230
374.942	16.600	1314.803	994.674
375.956	16.711	1313.624	994.344
376.971	16.685	1313.284	993.848
377.986	16.633	1312.448	992.823
379.000	16.663	1311.609	992.279
380.015	16.656	1310.835	991.560
381.029	16.661	1310.239	991.053
382.044	16.803	1309.315	991.094
383.059	16.796	1308.375	990.257
384.073	16.771	1307.678	989.496
385.088	16.890	1307.074	989.645
386.102	16.764	1306.666	988.514
387.117	16.903	1305.782	988.570
388.132	16.949	1305.047	988.194
389.146	16.889	1303.797	986.811
390.161	16.784	1303.104	985.583
391.175	16.805	1302.399	985.087
392.190	16.887	1301.685	984.937
393.205	16.893	1300.804	984.216
394.219	16.932	1299.989	983.742
395.234	16.985	1298.390	982.753
396.248	16.945	1297.360	981.655
397.263	16.895	1296.268	980.448
398.278	16.949	1294.937	979.669
399.292	16.963	1294.045	978.989
400.307	16.979	1292.540	977.858
401.321	16.851	1291.884	976.537
402.336	16.858	1290.851	975.709
403.350	16.925	1289.784	975.198
404.365	16.909	1288.903	974.354
405.380	16.981	1287.952	973.965
406.394	17.005	1287.218	973.463
407.409	16.993	1286.547	972.800
408.423	17.072	1286.004	972.753
409.438	17.146	1284.961	972.300
410.453	17.233	1283.974	971.965
411.467	17.212	1283.527	971.423
412.482	17.219	1282.991	970.974
413.496	17.201	1282.746	970.597
414.511	17.168	1282.058	969.806
415.526	17.195	1281.528	969.473
416.540	17.320	1280.617	969.405
417.555	17.352	1279.544	968.694
418.569	17.304	1279.317	968.162
419.584	17.390	1278.212	967.728
420.599	17.309	1277.997	967.018
421.613	94.943	1354.015	1468.837
422.628	92.789	1365.034	1468.957
