DTS Sentinel unit serial number:	SN413079Multiplexer serial number:	ORYXHardware model number:	OX4-SRSoftware version number:	ORYX F/W v4.00 Oryx Data Collector v3.7.2.0data status	okinstallation	princeton_trtdifferential loss correction	single-endedforward channel	channel 4reverse channel	N/Adate	2019/09/18time	21:37:35forward acquisition time	60.00reverse acquisition time	0.00gamma	496.2192k internal	0.2331k external	0.2331temperature offset calibration	1.0029default loss term (dB/km)	0.3790temperature slope calibration	1.0000multiplexer offset coefficient	1.0000multiplexer slope coefficient	1.0000fibre end	0.00T internal ref (°C)	25.06T ext. ref 1 (°C)	0.82T ext. ref 2 (°C)	18.30length (m)	temperature (°C)	Stokes	anti-Stokes-747.200	47.190	0.059	0.055
-746.185	-39.083	-0.301	0.159
-745.171	329.721	-0.035	0.067
-744.156	117.021	-0.198	-0.245
-743.142	-96.300	0.205	-0.055
-742.127	-200.000	-0.025	0.130
-741.112	-200.000	0.042	0.346
-740.098	800.000	0.034	-0.121
-739.083	65.129	0.142	0.144
-738.069	-200.000	-0.042	0.209
-737.054	269.711	-0.105	-0.186
-736.039	-200.000	0.023	-0.185
-735.025	250.185	-0.056	0.095
-734.010	-200.000	0.019	-0.382
-732.996	-104.956	-0.324	-0.075
-731.981	141.846	0.035	0.047
-730.966	-200.000	-0.005	-0.126
-729.952	-103.834	0.113	0.027
-728.937	14.251	-0.083	0.065
-727.923	-200.000	0.058	-0.368
-726.908	800.000	0.035	-0.120
-725.894	19.022	-0.227	-0.183
-724.879	210.019	-0.092	-0.145
-723.864	-41.597	-0.092	0.047
-722.850	-200.000	-0.044	-0.703
-721.835	800.000	-0.160	-0.507
-720.821	48.904	0.164	-0.155
-719.806	241.326	-0.171	0.288
-718.791	-200.000	-0.011	-0.127
-717.777	-111.666	-0.344	-0.070
-716.762	232.304	0.152	-0.251
-715.748	14.620	0.117	-0.092
-714.733	-188.496	-0.536	-0.007
-713.718	34.203	-0.205	-0.179
-712.704	-22.040	0.061	-0.037
-711.689	-80.731	-0.255	0.085
-710.675	-84.426	-0.310	-0.098
-709.660	439.952	0.135	0.296
-708.645	-130.573	-0.378	-0.051
-707.631	312.799	0.214	-0.403
-706.616	-200.000	0.042	0.201
-705.602	19.100	0.194	-0.156
-704.587	-6.925	0.320	-0.218
-703.572	-44.528	0.436	-0.219
-702.558	-72.150	-0.140	0.052
-701.543	113.621	-0.057	0.070
-700.529	-18.795	0.264	0.165
-699.514	-193.116	0.131	-0.001
-698.499	59.435	-0.217	0.215
-697.485	-89.462	0.426	-0.126
-696.470	-70.658	-0.144	0.055
-695.456	-200.000	-0.028	-0.188
-694.441	-200.000	-0.054	-0.255
-693.426	-200.000	-0.040	-0.349
-692.412	-200.000	0.029	0.161
-691.397	-75.800	-0.189	0.067
-690.383	-200.000	-0.050	0.275
-689.368	87.291	-0.269	0.299
-688.354	800.000	0.037	0.154
-687.339	-200.000	-0.021	-0.134
-686.324	800.000	0.047	-0.141
-685.310	-59.846	-0.292	-0.125
-684.295	-114.098	-0.217	-0.042
-683.281	4.577	-0.191	-0.141
-682.266	453.619	-0.157	-0.348
-681.251	-31.853	0.017	-0.009
-680.237	404.703	-0.090	0.191
-679.222	11.333	-0.130	-0.100
-678.208	-48.021	-0.054	-0.026
-677.193	-37.207	0.058	0.031
-676.178	168.146	-0.088	-0.125
-675.164	-14.846	0.271	0.174
-674.149	-68.308	-0.254	0.099
-673.135	185.189	-0.037	-0.056
-672.120	-133.795	0.342	0.043
-671.105	800.000	0.103	-0.394
-670.091	190.852	-0.103	0.155
-669.076	11.172	0.086	-0.066
-668.062	800.000	-0.127	0.394
-667.047	-200.000	-0.006	0.031
-666.032	-99.656	-0.278	-0.070
-665.018	-16.284	-0.161	-0.103
-664.003	-39.598	-0.411	-0.216
-662.989	11.426	-0.265	0.204
-661.974	-171.939	0.183	-0.006
-660.959	-114.420	0.363	0.070
-659.945	800.000	0.056	0.228
-658.930	-112.714	0.098	-0.020
-657.916	745.618	0.113	-0.306
-656.901	-80.153	-0.271	-0.091
-655.886	727.459	0.118	-0.315
-654.872	51.756	-0.380	-0.362
-653.857	240.832	-0.116	0.194
-652.843	218.439	0.142	-0.227
-651.828	-200.000	-0.092	0.000
-650.814	-164.054	-0.243	0.011
-649.799	55.408	0.060	0.058
-648.784	67.962	0.159	0.163
-647.770	7.163	0.266	-0.199
-646.755	-58.649	-0.202	-0.088
-645.741	256.750	-0.031	-0.053
-644.726	327.923	-0.154	-0.296
-643.711	67.595	0.218	0.223
-642.697	17.260	-0.214	-0.170
-641.682	-200.000	-0.037	-0.488
-640.668	88.894	0.098	0.110
-639.653	68.739	-0.126	0.130
-638.638	233.936	0.089	-0.147
-637.624	-91.027	0.274	0.079
-636.609	16.640	-0.213	-0.168
-635.595	-135.690	-0.263	-0.031
-634.580	-59.318	0.109	-0.047
-633.565	572.654	0.052	0.127
-632.551	-3.428	-0.137	-0.095
-631.536	-9.273	0.353	-0.236
-630.522	60.457	0.211	0.209
-629.507	190.820	-0.271	-0.409
-628.492	-91.668	-0.341	-0.097
-627.478	217.783	0.057	-0.091
-626.463	800.000	-0.111	-0.330
-625.449	-12.970	-0.211	-0.138
-624.434	40.737	-0.156	-0.141
-623.419	800.000	-0.108	-0.339
-622.405	-141.786	-0.161	0.016
-621.390	-107.041	-0.197	0.044
-620.376	2.967	-0.146	0.106
-619.361	52.413	0.074	0.070
-618.346	5.216	0.175	0.129
-617.332	-144.566	0.432	-0.040
-616.317	128.712	0.249	-0.318
-615.303	-59.382	-0.219	0.094
-614.288	665.044	0.052	-0.135
-613.273	-200.000	-0.004	0.111
-612.259	-105.147	0.158	0.036
-611.244	122.525	0.057	0.071
-610.230	54.228	0.234	-0.226
-609.215	-20.368	0.055	0.034
-608.201	-200.000	-0.034	0.236
-607.186	-200.000	-0.321	-0.001
-606.171	800.000	-0.095	0.274
-605.157	-81.221	-0.043	-0.014
-604.142	-0.466	-0.265	-0.188
-603.128	800.000	0.044	-0.152
-602.113	323.904	0.069	0.133
-601.098	800.000	-0.088	-0.318
-600.084	-35.273	-0.353	-0.192
-599.069	219.809	-0.367	0.588
-598.055	421.514	0.080	0.172
-597.040	513.762	0.045	-0.105
-596.025	-54.324	0.240	-0.109
-595.011	3.463	-0.163	-0.119
-593.996	351.154	-0.138	0.273
-592.982	62.261	-0.337	0.336
-591.967	403.947	-0.077	-0.162
-590.952	-117.185	-0.049	-0.009
-589.938	800.000	-0.039	-0.163
-588.923	-200.000	0.007	0.204
-587.909	50.177	0.194	0.183
-586.894	-94.914	0.192	-0.052
-585.879	-174.401	0.274	0.008
-584.865	800.000	-0.091	0.321
-583.850	-129.617	0.290	0.040
-582.836	-91.408	-0.295	-0.084
-581.821	485.337	-0.016	-0.037
-580.806	789.382	-0.070	-0.191
-579.792	-83.568	0.311	0.100
-578.777	-100.741	0.046	-0.011
-577.763	-110.999	0.210	-0.043
-576.748	-98.826	0.236	0.060
-575.733	15.380	-0.376	-0.295
-574.719	12.608	-0.069	0.053
-573.704	-142.604	-0.228	0.022
-572.690	-0.683	-0.262	0.186
-571.675	205.208	0.162	-0.252
-570.661	162.435	-0.134	-0.188
-569.646	82.706	0.225	-0.244
-568.631	-39.877	-0.038	-0.020
-567.617	30.485	-0.281	-0.240
-566.602	-81.956	0.094	0.031
-565.588	-200.000	-0.008	0.117
-564.573	800.000	-0.025	-0.070
-563.558	107.231	-0.125	0.148
-562.544	311.704	-0.110	-0.206
-561.529	-200.000	-0.003	0.068
-560.515	290.444	0.080	0.145
-559.500	-25.882	-0.192	0.113
-558.485	-200.000	0.006	0.255
-557.471	141.936	0.223	0.295
-556.456	643.742	-0.165	-0.419
-555.442	-21.234	-0.331	-0.202
-554.427	-36.999	-0.268	-0.143
-553.412	556.218	-0.038	-0.092
-552.398	800.000	-0.084	0.243
-551.383	-120.269	0.337	0.057
-550.369	-95.443	-0.147	-0.039
-549.354	90.373	-0.069	0.077
-548.339	87.690	0.208	0.230
-547.325	-3.994	0.251	-0.174
-546.310	-4.494	0.185	-0.128
-545.296	6.696	0.106	0.079
-544.281	-200.000	-0.024	0.366
-543.266	-26.918	-0.282	-0.165
-542.252	154.089	0.179	0.245
-541.237	-36.561	-0.117	-0.063
-540.223	628.566	-0.022	-0.056
-539.208	395.400	0.112	0.232
-538.193	99.386	0.065	-0.075
-537.179	629.142	0.059	-0.149
-536.164	100.601	-0.086	0.100
-535.150	73.636	-0.022	0.023
-534.135	159.414	-0.076	0.105
-533.121	200.765	-0.035	-0.054
-532.106	-157.745	-0.177	0.010
-531.091	262.602	-0.174	-0.302
-530.077	116.411	-0.099	0.121
-529.062	800.000	-0.086	-0.354
-528.048	-142.625	-0.279	0.027
-527.033	-158.414	0.174	-0.010
-526.018	-200.000	0.026	-0.153
-525.004	-183.077	-0.269	0.005
-523.989	-200.000	0.040	-0.231
-522.975	14.864	0.175	-0.137
-521.960	282.558	0.095	-0.169
-520.945	-64.005	-0.156	0.064
-519.931	-30.614	-0.313	0.177
-518.916	-105.794	-0.042	0.010
-517.902	-200.000	0.013	-0.060
-516.887	132.638	-0.215	0.277
-515.872	-200.000	-0.080	0.401
-514.858	-137.602	-0.164	0.018
-513.843	-80.141	0.214	0.071
-512.829	-54.441	0.261	-0.118
-511.814	679.672	-0.159	0.412
-510.799	800.000	0.005	-0.017
-509.785	-94.571	-0.115	0.031
-508.770	246.696	-0.041	-0.069
-507.756	-32.142	0.389	0.217
-506.741	32.236	0.060	0.052
-505.726	-28.313	0.255	-0.147
-504.712	800.000	0.066	0.254
-503.697	-200.000	-0.002	-0.082
-502.683	-12.221	-0.053	0.035
-501.668	-6.558	-0.149	-0.101
-500.653	-200.000	-0.047	-0.319
-499.639	-67.358	-0.011	-0.004
-498.624	262.879	-0.094	-0.162
-497.610	174.682	-0.182	-0.263
-496.595	711.936	-0.057	0.150
-495.581	151.274	-0.153	-0.208
-494.566	-200.000	0.033	0.208
-493.551	800.000	-0.065	0.217
-492.537	-200.000	0.031	0.216
-491.522	-200.000	-0.002	0.129
-490.508	800.000	-0.037	0.118
-489.493	427.793	0.128	-0.275
-488.478	90.579	-0.158	-0.177
-487.464	20.439	-0.140	-0.112
-486.449	-9.980	0.110	-0.073
-485.435	-66.798	0.126	-0.049
-484.420	800.000	0.057	-0.178
-483.405	800.000	-0.032	0.132
-482.391	-49.578	-0.191	0.091
-481.376	-112.423	-0.096	-0.019
-480.362	-117.365	-0.145	0.026
-479.347	13.966	-0.107	0.083
-478.332	83.131	-0.083	0.090
-477.318	-200.000	-0.017	0.224
-476.303	-103.250	-0.170	-0.040
-475.289	-62.071	0.108	0.045
-474.274	-200.000	-0.022	0.334
-473.259	-1.712	-0.095	0.067
-472.245	379.588	-0.016	0.033
-471.230	179.276	0.080	-0.116
-470.216	-200.000	-0.179	0.001
-469.201	56.232	0.243	0.235
-468.186	191.707	0.081	-0.122
-467.172	190.763	0.059	0.088
-466.157	185.159	-0.109	-0.161
-465.143	98.332	0.199	-0.228
-464.128	161.626	0.143	-0.199
-463.113	-133.063	0.384	0.048
-462.099	800.000	-0.099	-0.274
-461.084	-200.000	0.005	-0.184
-460.070	-129.442	-0.166	0.023
-459.055	280.668	0.136	-0.241
-458.040	246.875	-0.070	-0.117
-457.026	800.000	-0.060	-0.227
-456.011	443.496	0.021	0.046
-454.997	-200.000	-0.009	0.194
-453.982	-11.030	0.105	-0.069
-452.968	-35.800	-0.132	-0.071
-451.953	-200.000	0.096	-0.691
-450.938	-102.541	0.105	-0.025
-449.924	-155.497	0.178	-0.011
-448.909	800.000	0.025	-0.080
-447.895	13.347	0.035	-0.027
-446.880	35.171	0.165	-0.144
-445.865	-200.000	0.006	-0.122
-444.851	-200.000	-0.001	0.032
-443.836	28.742	0.132	0.111
-442.822	-133.801	-0.186	-0.023
-441.807	-45.831	-0.080	-0.039
-440.792	-139.943	-0.298	-0.031
-439.778	78.179	0.195	-0.207
-438.763	-1.882	-0.495	-0.346
-437.749	-83.968	0.120	0.038
-436.734	395.447	0.073	0.151
-435.719	-18.908	0.042	0.026
-434.705	-34.308	-0.038	-0.021
-433.690	-87.956	-0.234	0.070
-432.676	800.000	0.090	-0.274
-431.661	-96.373	-0.155	-0.041
-430.646	-200.000	-0.065	-0.363
-429.632	-9.667	-0.425	0.281
-428.617	-37.804	-0.093	0.049
-427.603	-200.000	0.047	0.212
-426.588	71.215	0.048	0.050
-425.573	-200.000	-0.019	-0.151
-424.559	217.562	0.125	0.198
-423.544	800.000	-0.078	-0.282
-422.530	-151.301	0.135	0.010
-421.515	-200.000	-0.012	-0.092
-420.500	-7.371	0.144	-0.097
-419.486	233.861	0.043	0.071
-418.471	18.847	0.129	0.102
-417.457	211.374	-0.116	-0.181
-416.442	71.923	0.127	-0.131
-415.428	-68.861	0.032	0.012
-414.413	753.353	-0.021	0.056
-413.398	-53.064	-0.251	-0.115
-412.384	-88.350	-0.133	0.040
-411.369	-161.808	0.200	0.010
-410.355	96.268	0.138	-0.157
-409.340	-129.725	0.124	-0.017
-408.325	-200.000	0.253	0.000
-407.311	199.121	0.034	-0.052
-406.296	72.889	0.076	0.079
-405.282	800.000	-0.041	-0.143
-404.267	-5.193	0.054	-0.037
-403.252	800.000	0.044	0.186
-402.238	589.170	-0.100	-0.244
-401.223	-200.000	0.008	-0.208
-400.209	-15.578	-0.235	-0.149
-399.194	-132.689	0.158	0.020
-398.179	-200.000	0.077	-0.338
-397.165	317.403	-0.043	0.081
-396.150	-119.588	0.068	-0.012
-395.136	237.832	0.115	0.190
-394.121	-81.237	-0.092	-0.030
-393.106	-113.806	-0.113	0.022
-392.092	117.132	-0.185	0.226
-391.077	-200.000	0.001	-0.151
-390.063	-147.681	0.147	-0.012
-389.048	-74.902	-0.098	0.035
-388.033	-25.909	0.189	-0.110
-387.019	-200.000	-0.046	-0.284
-386.004	800.000	0.071	0.225
-384.990	-26.001	-0.145	0.085
-383.975	800.000	0.034	-0.101
-382.960	800.000	-0.083	0.352
-381.946	-117.917	0.196	-0.035
-380.931	800.000	0.065	0.243
-379.917	-61.262	-0.201	-0.084
-378.902	24.493	0.131	0.108
-377.888	82.502	-0.029	-0.031
-376.873	59.791	-0.139	-0.136
-375.858	676.262	-0.082	0.210
-374.844	-200.000	-0.053	-0.446
-373.829	-200.000	-0.021	0.214
-372.815	-200.000	-0.000	-0.030
-371.800	-90.890	-0.199	0.057
-370.785	-200.000	0.000	-0.031
-369.771	-144.420	0.212	-0.019
-368.756	782.902	-0.096	0.261
-367.742	-200.000	0.017	0.103
-366.727	-108.269	-0.369	0.079
-365.712	-62.392	0.252	0.104
-364.698	-182.747	-0.240	0.004
-363.683	142.435	-0.105	0.139
-362.669	234.946	0.139	0.228
-361.654	-200.000	0.004	-0.022
-360.639	173.360	0.089	-0.127
-359.625	-7.489	-0.085	-0.057
-358.610	-61.714	-0.365	-0.152
-357.596	-167.649	-0.299	-0.012
-356.581	617.895	0.096	0.238
-355.566	-65.252	-0.264	0.105
-354.552	-109.630	-0.128	-0.027
-353.537	-200.000	0.016	-0.087
-352.523	37.215	-0.287	-0.252
-351.508	37.723	-0.282	-0.248
-350.493	-164.586	0.231	-0.010
-349.479	-200.000	-0.011	-0.076
-348.464	-200.000	0.014	0.141
-347.450	50.673	0.225	-0.211
-346.435	102.800	-0.103	-0.119
-345.420	-23.263	-0.266	-0.159
-344.406	140.614	0.187	0.245
-343.391	266.670	0.225	0.390
-342.377	647.972	0.106	-0.269
-341.362	-22.863	-0.268	0.160
-340.348	800.000	-0.068	-0.294
-339.333	380.699	-0.047	0.095
-338.318	-136.741	-0.114	0.013
-337.304	20.180	0.062	-0.050
-336.289	-87.690	-0.184	0.055
-335.275	-34.569	-0.173	-0.094
-334.260	55.165	-0.282	0.270
-333.245	33.170	0.264	-0.227
-332.231	-117.417	0.172	0.031
-331.216	-103.974	-0.183	-0.042
-330.202	74.588	-0.289	0.301
-329.187	-200.000	-0.028	0.224
-328.172	-200.000	-0.002	0.096
-327.158	800.000	-0.014	0.049
-326.143	800.000	-0.084	-0.262
-325.129	60.348	0.170	-0.167
-324.114	-46.909	0.163	0.079
-323.099	-200.000	0.040	-0.354
-322.085	156.683	0.087	-0.118
-321.070	-200.000	-0.006	-0.152
-320.056	624.511	0.074	0.185
-319.041	800.000	0.051	0.180
-318.026	5.992	0.029	-0.021
-317.012	-11.240	-0.294	-0.192
-315.997	-200.000	-0.072	-0.504
-314.983	139.627	0.310	-0.404
-313.968	107.946	-0.181	0.214
-312.953	800.000	0.094	0.320
-311.939	246.821	0.154	-0.257
-310.924	153.961	-0.129	0.175
-309.910	-70.109	0.291	-0.110
-308.895	45.991	0.213	0.195
-307.880	121.088	0.094	0.116
-306.866	-35.741	0.288	0.154
-305.851	179.716	-0.025	-0.037
-304.837	184.883	-0.078	0.114
-303.822	-200.000	-0.025	0.182
-302.807	149.380	0.054	0.073
-301.793	-149.260	0.369	0.029
-300.778	-14.293	-0.141	0.090
-299.764	-78.660	0.305	-0.103
-298.749	-200.000	-0.002	-0.064
-297.735	13.170	0.305	-0.233
-296.720	-200.000	0.007	0.043
-295.705	480.072	0.042	0.095
-294.691	-98.378	0.236	0.060
-293.676	-22.574	-0.085	0.051
-292.662	-167.493	-0.100	0.004
-291.647	155.282	0.394	0.536
-290.632	347.177	0.032	0.063
-289.618	280.344	0.033	0.058
-288.603	-188.007	0.241	0.003
-287.589	-200.000	0.008	-0.131
-286.574	-200.000	-0.007	0.185
-285.559	-200.000	0.025	0.356
-284.545	24.538	0.113	0.093
-283.530	-200.000	-0.048	-0.345
-282.516	146.621	0.133	-0.177
-281.501	33.621	-0.044	-0.038
-280.486	-55.872	-0.159	0.070
-279.472	75.893	0.187	0.195
-278.457	800.000	0.020	0.081
-277.443	800.000	0.035	-0.120
-276.428	-65.778	0.079	0.031
-275.413	-200.000	-0.031	0.363
-274.399	-200.000	0.015	0.225
-273.384	-158.036	-0.110	-0.006
-272.370	-143.487	-0.425	0.040
-271.355	800.000	0.102	0.393
-270.340	-109.120	0.327	-0.069
-269.326	-37.099	0.079	0.042
-268.311	800.000	0.076	0.223
-267.297	-33.302	0.058	-0.031
-266.282	60.326	0.100	-0.098
-265.267	800.000	-0.076	0.286
-264.253	-93.608	-0.196	0.053
-263.238	-28.416	0.132	0.075
-262.224	25.043	0.070	-0.057
-261.209	319.132	0.027	0.050
-260.195	-82.499	0.376	-0.121
-259.180	112.860	-0.081	0.096
-258.165	44.227	-0.294	0.267
-257.151	-200.000	0.472	-0.002
-256.136	-200.000	0.010	-0.093
-255.122	800.000	-0.094	0.276
-254.107	-7.563	-0.055	-0.037
-253.092	33.062	0.246	-0.211
-252.078	139.720	0.200	0.260
-251.063	132.269	0.100	-0.127
-250.049	-200.000	0.032	-0.304
-249.034	-129.305	0.223	0.031
-248.019	800.000	0.073	-0.287
-247.005	378.709	-0.038	-0.077
-245.990	-123.066	0.060	-0.010
-244.976	63.335	-0.135	-0.133
-243.961	92.218	0.197	-0.219
-242.946	-57.124	-0.063	0.027
-241.932	-20.392	-0.090	-0.055
-240.917	57.858	0.119	-0.115
-239.903	-9.414	0.237	0.156
-238.888	442.944	-0.104	0.224
-237.873	-73.268	0.198	-0.072
-236.859	219.203	-0.033	-0.052
-235.844	396.750	0.072	0.148
-234.830	43.096	0.145	-0.131
-233.815	368.074	0.152	0.304
-232.800	-200.000	-0.091	0.421
-231.786	153.963	-0.027	-0.037
-230.771	-70.312	0.196	-0.073
-229.757	164.319	0.063	-0.088
-228.742	800.000	-0.038	0.113
-227.727	69.762	0.233	0.237
-226.713	46.724	0.234	-0.215
-225.698	-130.396	0.200	0.027
-224.684	28.269	0.029	-0.024
-223.669	-200.000	0.042	-0.190
-222.655	422.042	-0.087	0.185
-221.640	800.000	-0.093	0.307
-220.625	138.591	0.168	0.218
-219.611	21.672	-0.241	-0.194
-218.596	800.000	0.027	0.112
-217.582	30.594	-0.256	-0.216
-216.567	29.579	0.082	-0.069
-215.552	-200.000	-0.047	-0.338
-214.538	-200.000	-0.003	0.205
-213.523	-200.000	-0.013	-0.132
-212.509	184.341	0.179	-0.261
-211.494	-103.655	-0.282	0.065
-210.479	-30.036	-0.265	0.149
-209.465	-200.000	-0.099	-0.437
-208.450	-161.702	0.236	-0.012
-207.436	325.578	-0.092	0.173
-206.421	633.948	-0.039	0.098
-205.406	296.468	0.042	0.076
-204.392	-200.000	-0.002	0.373
-203.377	-16.131	0.236	0.148
-202.363	-24.974	0.356	0.208
-201.348	203.044	-0.060	0.092
-200.333	4.410	-0.139	-0.100
-199.319	-200.000	0.012	-0.064
-198.304	44.199	0.090	0.081
-197.290	42.880	-0.148	0.132
-196.275	-105.355	0.138	-0.031
-195.260	-60.730	-0.102	-0.043
-194.246	-36.485	-0.394	-0.209
-193.231	103.075	-0.060	-0.069
-192.217	-200.000	0.000	0.202
-191.202	133.991	0.307	0.391
-190.187	201.246	-0.189	-0.286
-189.173	-6.142	-0.239	-0.160
-188.158	54.508	0.179	0.169
-187.144	-79.959	-0.377	0.125
-186.129	-200.000	-0.029	0.295
-185.114	22.806	-0.085	0.069
-184.100	255.305	-0.190	0.320
-183.085	-82.383	0.040	-0.013
-182.071	249.437	0.123	-0.206
-181.056	-60.952	0.205	0.085
-180.042	800.000	-0.049	-0.179
-179.027	306.726	-0.050	-0.092
-178.012	50.287	-0.088	-0.082
-176.998	434.909	0.049	-0.104
-175.983	800.000	-0.056	0.177
-174.969	211.120	0.150	0.232
-173.954	-7.582	-0.299	0.199
-172.939	800.000	-0.086	0.257
-171.925	-43.248	-0.199	0.099
-170.910	-63.344	-0.177	0.071
-169.896	-169.611	-0.017	0.001
-168.881	69.221	0.058	-0.058
-167.866	-15.842	0.135	-0.085
-166.852	-62.108	0.087	-0.036
-165.837	1.411	0.167	0.118
-164.823	201.224	0.115	0.175
-163.808	29.115	0.097	0.081
-162.793	70.176	0.066	0.067
-161.779	-200.000	-0.009	-0.075
-160.764	-124.494	0.353	0.054
-159.750	-32.213	0.176	0.097
-158.735	-107.179	-0.223	-0.048
-157.720	-200.000	0.002	-0.339
-156.706	140.912	-0.146	0.189
-155.691	177.650	-0.057	0.081
-154.677	-189.701	0.404	0.005
-153.662	-15.869	0.149	0.093
-152.647	225.236	0.187	-0.298
-151.633	800.000	0.125	0.453
-150.618	800.000	-0.053	-0.155
-149.604	-54.144	0.137	-0.061
-148.589	-158.125	-0.076	0.004
-147.574	800.000	0.184	-0.508
-146.560	116.602	-0.109	-0.131
-145.545	-200.000	0.027	-0.158
-144.531	800.000	-0.024	-0.087
-143.516	-84.844	-0.072	-0.022
-142.502	-200.000	-0.028	0.150
-141.487	212.744	0.104	0.161
-140.472	154.044	-0.046	-0.062
-139.458	693.597	0.119	-0.306
-138.443	27.477	-0.110	0.091
-137.429	238.556	-0.259	-0.422
-136.414	-138.972	0.226	0.024
-135.399	-200.000	0.010	0.217
-134.385	170.302	-0.140	0.196
-133.370	-200.000	-0.081	0.467
-132.356	-200.000	0.001	0.042
-131.341	117.337	-0.037	-0.045
-130.326	148.296	-0.114	-0.151
-129.312	6.194	0.034	0.025
-128.297	800.000	0.031	0.086
-127.283	-4.320	0.411	-0.279
-126.268	-200.000	0.041	0.208
-125.253	-200.000	0.037	-0.290
-124.239	-78.124	0.045	-0.015
-123.224	379.659	0.047	0.094
-122.210	-24.696	-0.166	-0.097
-121.195	5.139	0.228	-0.165
-120.180	492.573	0.084	0.188
-119.166	800.000	-0.005	-0.017
-118.151	-10.251	0.127	-0.083
-117.137	150.435	-0.089	-0.118
-116.122	-72.834	0.124	-0.045
-115.107	-200.000	-0.005	-0.119
-114.093	85.415	-0.061	-0.065
-113.078	317.393	-0.080	-0.148
-112.064	-129.077	-0.174	-0.024
-111.049	-118.186	-0.212	0.037
-110.034	745.398	-0.112	-0.297
-109.020	800.000	0.120	0.352
-108.005	116.939	0.207	0.250
-106.991	532.954	-0.170	0.395
-105.976	-200.000	0.010	0.055
-104.962	-200.000	0.024	0.268
-103.947	671.070	-0.171	-0.434
-102.932	-52.660	-0.148	-0.067
-101.918	332.087	0.065	-0.122
-100.903	3.239	0.127	0.091
-99.889	620.458	0.107	-0.264
-98.874	-149.767	0.112	-0.009
-97.859	28.732	0.265	-0.220
-96.845	90.912	-0.065	0.071
-95.830	-47.066	-0.181	-0.087
-94.816	-70.949	-0.366	0.135
-93.801	-50.213	0.162	0.075
-92.786	-107.372	0.063	-0.014
-91.772	195.906	0.110	-0.164
-90.757	-128.296	-0.299	-0.042
-89.743	-22.684	-0.218	-0.129
-88.728	-14.987	-0.164	-0.103
-87.713	-52.569	0.087	-0.040
-86.699	-139.402	0.265	-0.028
-85.684	-77.694	-0.153	-0.052
-84.670	-20.966	0.168	0.101
-83.655	800.000	0.086	-0.300
-82.640	-43.332	0.190	0.094
-81.626	-69.951	0.210	0.078
-80.611	-86.707	0.423	0.127
-79.597	-64.441	0.038	0.015
-78.582	84.732	-0.136	-0.146
-77.567	56.678	0.130	0.124
-76.553	-98.954	-0.119	-0.030
-75.538	-127.453	-0.270	-0.038
-74.524	-166.766	0.143	0.006
-73.509	-200.000	0.011	-0.207
-72.494	-42.218	0.208	0.104
-71.480	-0.319	-0.165	-0.115
-70.465	-38.385	0.072	-0.037
-69.451	-46.050	0.058	0.028
-68.436	21.538	0.193	-0.154
-67.422	-117.155	-0.244	0.044
-66.407	800.000	0.045	-0.177
-65.392	800.000	0.040	0.148
-64.378	-108.862	-0.245	0.051
-63.363	2.963	-0.048	0.034
-62.349	-85.374	0.277	0.085
-61.334	172.426	-1.027	-1.448
-60.319	-17.086	0.727	0.450
-59.305	119.593	-1.020	-1.238
-58.290	184.007	0.912	1.323
-57.276	512.066	0.729	1.664
-56.261	-200.000	119.875	625.020
-55.246	414.769	1532.904	3198.290
-54.232	146.253	2689.269	3535.520
-53.217	89.187	2301.142	2510.840
-52.203	31.318	2051.390	1725.282
-51.188	26.904	1968.931	1616.638
-50.173	25.643	1951.979	1591.516
-49.159	42.169	2022.573	1798.969
-48.144	40.753	2036.197	1798.197
-47.130	27.241	1988.967	1635.865
-46.115	25.147	1977.717	1607.800
-45.100	25.011	1975.137	1604.415
-44.086	25.018	1972.469	1602.245
-43.071	24.972	1970.440	1600.124
-42.057	24.865	1968.483	1597.515
-41.042	24.986	1966.079	1596.586
-40.027	25.023	1964.362	1595.454
-39.013	24.949	1962.639	1593.330
-37.998	24.983	1961.060	1592.288
-36.984	25.033	1959.164	1591.133
-35.969	24.972	1957.415	1589.103
-34.954	24.983	1955.934	1587.935
-33.940	25.028	1954.867	1587.409
-32.925	25.077	1952.828	1586.118
-31.911	25.062	1951.130	1584.551
-30.896	25.008	1949.909	1583.017
-29.881	25.100	1947.743	1582.003
-28.867	25.193	1946.065	1581.401
-27.852	25.093	1944.765	1579.402
-26.838	25.157	1942.277	1577.881
-25.823	25.120	1940.934	1576.402
-24.809	25.072	1939.484	1574.739
-23.794	25.122	1937.762	1573.721
-22.779	25.125	1935.821	1572.109
-21.765	25.097	1933.883	1570.228
-20.750	25.116	1932.726	1569.387
-19.736	25.120	1931.379	1568.270
-18.721	25.165	1929.486	1567.062
-17.706	25.067	1927.943	1564.895
-16.692	25.162	1925.975	1564.064
-15.677	25.088	1924.673	1562.295
-14.663	24.981	1923.630	1560.455
-13.648	25.067	1922.048	1559.854
-12.633	25.025	1921.040	1558.614
-11.619	25.017	1919.834	1557.503
-10.604	25.074	1918.697	1557.017
-9.590	24.983	1917.074	1554.846
-8.575	25.095	1915.515	1554.486
-7.560	25.093	1914.220	1553.364
-6.546	25.046	1913.027	1551.920
-5.531	25.074	1911.768	1551.085
-4.517	25.033	1910.584	1549.702
-3.502	25.047	1909.411	1548.818
-2.487	25.096	1907.542	1547.662
-1.473	25.090	1907.123	1547.204
-0.458	25.046	1902.141	1542.722
0.556	23.646	1881.991	1512.280
1.571	19.081	1862.805	1458.151
2.586	14.862	1884.214	1438.543
3.600	13.806	1918.442	1455.289
4.615	13.904	1911.821	1450.994
5.629	11.088	1814.977	1353.984
6.644	4.712	1703.622	1220.900
7.659	1.127	1670.274	1169.278
8.673	0.845	1667.530	1165.086
9.688	0.867	1666.103	1164.153
10.702	0.846	1664.419	1162.714
11.717	0.722	1660.622	1159.008
12.731	1.167	1659.302	1161.395
13.746	6.050	1669.193	1205.764
14.761	13.230	1683.582	1271.460
15.775	16.948	1689.846	1304.732
16.790	17.365	1688.965	1307.146
17.804	16.413	1686.832	1298.065
18.819	15.473	1683.436	1288.126
19.834	14.993	1680.550	1282.129
20.848	14.681	1679.176	1278.576
21.863	14.467	1677.468	1275.526
22.877	14.288	1675.597	1272.620
23.892	13.941	1674.853	1269.296
24.907	13.796	1673.587	1267.115
25.921	13.770	1672.544	1266.016
26.936	13.848	1671.200	1265.480
27.950	13.815	1670.519	1264.600
28.965	13.869	1670.420	1264.823
29.980	13.874	1669.328	1263.928
30.994	13.913	1668.489	1263.474
32.009	13.946	1667.641	1262.973
33.023	13.952	1666.892	1262.336
34.038	14.045	1665.450	1261.838
35.053	14.006	1664.966	1261.069
36.067	14.004	1663.719	1259.998
37.082	13.884	1663.074	1258.487
38.096	13.979	1661.484	1257.890
39.111	13.995	1660.865	1257.430
40.126	14.033	1659.333	1256.449
41.140	13.930	1658.897	1255.229
42.155	13.952	1657.240	1254.031
43.169	13.782	1656.395	1251.996
44.184	13.878	1654.756	1251.371
45.199	13.707	1653.986	1249.388
46.213	13.748	1653.078	1248.903
47.228	13.811	1651.586	1248.135
48.242	13.800	1650.075	1246.804
49.257	13.811	1649.387	1246.256
50.271	13.800	1647.764	1244.833
51.286	13.874	1646.826	1244.573
52.301	13.848	1645.237	1243.065
53.315	13.935	1643.548	1242.330
54.330	13.855	1642.271	1240.655
55.344	13.827	1640.743	1239.188
56.359	13.778	1639.646	1237.880
57.374	13.858	1638.243	1237.306
58.388	13.780	1637.300	1235.908
59.403	13.812	1636.006	1235.056
60.417	13.868	1634.407	1234.158
61.432	13.745	1633.396	1232.375
62.447	13.745	1632.663	1231.708
63.461	13.728	1631.443	1230.557
64.476	13.612	1630.311	1228.727
65.490	13.702	1628.951	1228.266
66.505	13.789	1627.673	1227.836
67.520	13.806	1626.503	1226.967
68.534	13.710	1625.568	1225.447
69.549	13.720	1624.741	1224.792
70.563	13.769	1623.259	1223.923
71.578	13.715	1622.236	1222.644
72.593	13.754	1620.756	1221.709
73.607	13.658	1620.058	1220.371
74.622	13.678	1619.038	1219.642
75.636	13.751	1617.904	1219.218
76.651	13.652	1616.910	1217.632
77.666	13.756	1615.678	1217.360
78.680	13.640	1614.859	1215.782
79.695	13.672	1613.794	1215.108
80.709	13.658	1612.776	1214.134
81.724	13.700	1611.663	1213.492
82.739	13.733	1610.925	1213.071
83.753	13.753	1609.769	1212.242
84.768	13.817	1608.820	1211.886
85.782	13.820	1608.632	1211.658
86.797	13.946	1606.781	1211.074
87.812	13.923	1605.883	1210.122
88.826	13.899	1604.445	1208.759
89.841	13.865	1603.290	1207.535
90.855	13.809	1602.894	1206.721
91.870	13.837	1601.355	1205.658
92.884	13.812	1600.703	1204.884
93.899	13.844	1599.526	1204.118
94.914	13.926	1598.091	1203.529
95.928	13.971	1597.157	1203.043
96.943	14.024	1595.513	1202.082
97.957	13.893	1594.256	1200.080
98.972	13.909	1593.046	1199.179
99.987	13.899	1591.397	1197.761
101.001	13.897	1589.934	1196.541
102.016	13.890	1588.552	1195.346
103.030	13.900	1586.894	1194.066
104.045	13.870	1586.124	1193.158
105.060	13.988	1584.586	1192.745
106.074	13.870	1583.156	1190.719
107.089	13.828	1582.143	1189.550
108.103	13.735	1580.707	1187.701
109.118	13.781	1578.990	1186.636
110.133	13.775	1577.409	1185.298
111.147	13.803	1575.766	1184.157
112.162	13.855	1574.860	1183.745
113.176	13.816	1573.507	1182.340
114.191	13.809	1572.174	1181.185
115.206	13.871	1571.134	1180.743
116.220	13.866	1569.476	1179.358
117.235	13.964	1567.742	1178.647
118.249	13.841	1567.361	1177.382
119.264	13.712	1565.875	1175.247
120.279	13.882	1563.983	1174.929
121.293	13.734	1563.362	1173.305
122.308	13.839	1561.373	1172.452
123.322	13.877	1559.927	1171.532
124.337	13.812	1558.588	1169.965
125.352	13.749	1557.520	1168.614
126.366	13.842	1556.095	1168.095
127.381	13.813	1554.883	1166.882
128.395	13.843	1553.894	1166.247
129.410	13.751	1552.402	1164.379
130.424	13.808	1551.101	1163.701
131.439	13.841	1549.731	1162.797
132.454	13.891	1548.347	1162.010
133.468	13.872	1546.904	1160.685
134.483	13.919	1545.528	1159.884
135.497	13.899	1544.377	1158.773
136.512	13.846	1543.178	1157.407
137.527	13.910	1541.416	1156.425
138.541	14.003	1539.899	1155.830
139.556	13.918	1538.889	1154.383
140.570	13.944	1536.992	1153.034
141.585	13.968	1535.757	1152.172
142.600	13.933	1535.605	1151.716
143.614	14.075	1533.750	1151.206
144.629	14.089	1532.776	1150.473
145.643	14.136	1531.106	1149.440
146.658	14.043	1530.007	1147.868
147.673	14.004	1528.572	1146.427
148.687	14.028	1526.960	1145.282
149.702	14.127	1525.137	1144.489
150.716	14.073	1523.615	1142.880
151.731	14.075	1522.360	1141.844
152.746	14.098	1521.219	1141.052
153.760	14.045	1519.698	1139.446
154.775	14.056	1518.375	1138.429
155.789	14.193	1517.001	1138.233
156.804	14.167	1515.735	1137.006
157.819	14.189	1514.569	1136.178
158.833	14.084	1513.913	1134.872
159.848	14.148	1512.466	1134.121
160.862	14.223	1511.177	1133.566
161.877	14.224	1510.056	1132.630
162.892	14.211	1509.082	1131.715
163.906	14.216	1507.707	1130.615
164.921	14.229	1506.920	1130.011
165.935	14.183	1505.424	1128.478
166.950	14.127	1504.765	1127.506
167.964	14.282	1503.200	1127.280
168.979	14.214	1502.357	1126.089
169.994	14.248	1501.261	1125.400
171.008	14.157	1500.676	1124.244
172.023	14.200	1499.414	1123.488
173.037	14.335	1497.502	1122.869
174.052	14.319	1496.704	1122.062
175.067	14.306	1496.158	1121.465
176.081	14.207	1495.030	1119.855
177.096	14.258	1493.466	1118.929
178.110	14.194	1492.080	1117.360
179.125	14.301	1490.715	1116.962
180.140	14.300	1489.988	1116.311
181.154	14.314	1488.616	1115.279
182.169	14.399	1487.233	1114.712
183.183	14.388	1486.435	1113.937
184.198	14.419	1485.229	1113.145
185.213	14.380	1484.620	1112.326
186.227	14.606	1482.474	1112.129
187.242	14.498	1481.897	1110.881
188.256	14.484	1481.005	1110.017
189.271	14.594	1479.544	1109.558
190.286	14.544	1478.742	1108.526
191.300	14.412	1478.095	1107.064
192.315	14.429	1476.967	1106.238
193.329	14.428	1475.180	1104.794
194.344	14.420	1474.476	1104.115
195.359	14.317	1473.498	1102.600
196.373	14.496	1472.064	1102.614
197.388	14.416	1471.428	1101.514
198.402	14.558	1470.161	1101.402
199.417	14.581	1468.708	1100.369
200.432	14.600	1468.116	1099.954
201.446	14.587	1467.292	1099.157
202.461	14.694	1465.619	1098.507
203.475	14.734	1465.416	1098.520
204.490	14.780	1463.417	1097.228
205.504	14.764	1462.847	1096.600
206.519	14.769	1461.367	1095.421
207.534	14.736	1460.175	1094.219
208.548	14.687	1459.259	1093.111
209.563	14.685	1458.032	1092.086
210.577	14.773	1456.933	1091.743
211.592	14.644	1456.265	1090.297
212.607	14.738	1455.499	1090.245
213.621	14.853	1454.999	1090.524
214.636	14.908	1453.595	1089.734
215.650	14.767	1452.809	1088.132
216.665	14.833	1451.850	1087.745
217.680	14.884	1451.328	1087.590
218.694	14.844	1450.297	1086.460
219.709	14.955	1449.330	1086.356
220.723	14.927	1448.754	1085.649
221.738	15.017	1447.376	1085.105
222.753	14.928	1446.488	1083.768
223.767	14.893	1445.627	1082.801
224.782	14.994	1444.271	1082.342
225.796	15.015	1443.296	1081.650
226.811	14.925	1442.878	1080.657
227.826	14.991	1442.243	1080.512
228.840	15.080	1441.013	1080.070
229.855	14.973	1440.442	1078.855
230.869	14.967	1439.115	1077.729
231.884	15.036	1438.080	1077.306
232.899	14.979	1437.088	1076.099
233.913	15.003	1435.991	1075.334
234.928	14.988	1434.817	1074.266
235.942	14.993	1434.057	1073.634
236.957	14.969	1432.718	1072.381
237.972	15.077	1430.968	1071.665
238.986	15.084	1429.914	1070.828
240.001	15.097	1429.063	1070.178
241.015	15.077	1428.078	1069.219
242.030	15.137	1426.836	1068.581
243.045	15.161	1426.214	1068.172
244.059	15.129	1425.390	1067.255
245.074	15.160	1424.148	1066.426
246.088	15.233	1423.647	1066.426
247.103	15.208	1423.458	1066.028
248.117	15.293	1422.368	1065.661
249.132	15.283	1421.203	1064.630
250.147	15.373	1420.740	1064.760
251.161	15.337	1420.355	1064.145
252.176	15.409	1419.417	1063.805
253.190	15.484	1418.539	1063.530
254.205	15.474	1417.503	1062.595
255.220	15.497	1416.660	1062.014
256.234	15.516	1416.282	1061.756
257.249	15.485	1415.397	1060.806
258.263	15.528	1414.281	1060.144
259.278	15.601	1413.340	1059.809
260.293	15.693	1412.127	1059.385
261.307	15.532	1411.898	1058.106
262.322	15.627	1411.059	1057.976
263.336	15.662	1410.420	1057.629
264.351	15.676	1409.096	1056.631
265.366	15.632	1408.155	1055.551
266.380	15.667	1407.608	1055.266
267.395	15.739	1406.362	1054.693
268.409	15.662	1405.730	1053.644
269.424	15.746	1404.639	1053.256
270.439	15.777	1403.536	1052.534
271.453	15.677	1402.543	1051.066
272.468	15.610	1402.195	1050.294
273.482	15.790	1400.996	1050.431
274.497	15.695	1400.655	1049.486
275.512	15.759	1398.974	1048.535
276.526	15.778	1398.344	1048.085
277.541	15.764	1397.432	1047.227
278.555	15.741	1396.764	1046.488
279.570	15.796	1395.751	1045.975
280.585	15.882	1394.449	1045.443
281.599	15.925	1393.954	1045.248
282.614	15.973	1392.497	1044.358
283.628	15.905	1391.746	1043.281
284.643	15.955	1390.992	1042.935
285.657	15.863	1389.782	1041.369
286.672	15.992	1388.458	1041.082
287.687	15.949	1387.861	1040.273
288.701	15.914	1386.914	1039.258
289.716	16.000	1386.195	1039.158
290.730	16.013	1385.234	1038.422
291.745	16.110	1384.009	1038.012
292.760	16.048	1383.307	1037.011
293.774	16.024	1381.946	1035.754
294.789	16.007	1381.061	1034.892
295.803	16.068	1380.701	1034.907
296.818	16.153	1379.610	1034.518
297.833	16.169	1378.595	1033.766
298.847	16.141	1377.548	1032.713
299.862	16.146	1376.364	1031.764
300.876	16.065	1376.106	1030.986
301.891	16.172	1375.089	1030.786
302.906	16.213	1374.112	1030.215
303.920	16.390	1373.116	1030.456
304.935	16.201	1372.930	1029.071
305.949	16.261	1371.980	1028.634
306.964	16.255	1371.339	1028.026
307.979	16.347	1370.151	1027.603
308.993	16.480	1368.952	1027.421
310.008	16.388	1368.042	1026.092
311.022	16.433	1367.049	1025.526
312.037	16.373	1366.470	1024.638
313.052	16.427	1365.685	1024.288
314.066	16.444	1364.448	1023.373
315.081	16.401	1363.104	1022.012
316.095	16.359	1362.145	1020.952
317.110	16.367	1361.200	1020.196
318.125	16.362	1360.531	1019.578
319.139	16.328	1359.980	1018.870
320.154	16.324	1358.959	1017.991
321.168	16.331	1357.584	1016.913
322.183	16.413	1356.605	1016.580
323.197	16.383	1355.949	1015.820
324.212	16.459	1355.017	1015.487
325.227	16.523	1353.810	1014.877
326.241	16.479	1352.856	1013.809
327.256	16.485	1352.305	1013.344
328.270	16.537	1351.698	1013.113
329.285	16.515	1350.552	1012.027
330.300	16.556	1349.415	1011.335
331.314	16.560	1348.926	1010.904
332.329	16.497	1348.325	1009.988
333.343	16.524	1346.882	1008.972
334.358	16.509	1346.780	1008.720
335.373	16.545	1345.793	1008.104
336.387	16.587	1345.024	1007.694
337.402	16.699	1343.789	1007.344
338.416	16.713	1343.148	1006.859
339.431	16.654	1343.038	1006.337
340.446	16.714	1341.512	1005.459
341.460	16.712	1341.076	1005.031
342.475	16.666	1339.834	1003.740
343.489	16.807	1339.138	1003.965
344.504	16.776	1338.536	1003.237
345.519	16.758	1337.461	1002.239
346.533	16.937	1336.106	1002.191
347.548	16.926	1335.025	1001.226
348.562	16.958	1334.519	1000.950
349.577	16.969	1333.622	1000.254
350.592	16.935	1332.619	999.212
351.606	16.862	1332.369	998.508
352.621	16.814	1331.045	997.144
353.635	16.795	1330.550	996.571
354.650	16.829	1329.189	995.667
355.665	16.856	1328.371	995.123
356.679	16.949	1327.219	994.714
357.694	17.025	1325.910	994.095
358.708	17.008	1324.428	992.794
359.723	17.056	1323.764	992.490
360.738	16.957	1322.952	991.213
361.752	17.002	1321.830	990.547
362.767	17.051	1320.893	990.043
363.781	17.093	1319.952	989.496
364.796	17.052	1319.180	988.590
365.810	16.992	1318.923	987.960
366.825	17.176	1317.732	988.051
367.840	17.056	1317.224	986.884
368.854	17.134	1316.422	986.652
369.869	17.206	1315.649	986.401
370.883	17.196	1315.261	985.967
371.898	17.196	1314.382	985.218
372.913	17.242	1313.341	984.617
373.927	17.297	1312.351	984.111
374.942	17.201	1312.028	983.225
375.956	17.333	1310.928	983.074
376.971	17.254	1309.795	981.682
377.986	17.295	1309.251	981.426
379.000	17.307	1308.886	981.135
380.015	17.174	1308.319	979.855
381.029	17.351	1307.116	979.888
382.044	17.468	1306.385	979.928
383.059	17.469	1305.467	979.154
384.073	17.402	1305.116	978.421
385.088	17.531	1304.482	978.601
386.102	17.488	1303.491	977.524
387.117	17.527	1302.681	977.054
388.132	17.506	1302.008	976.343
389.146	17.529	1301.167	975.756
390.161	17.501	1300.187	974.777
391.175	17.512	1299.653	974.350
392.190	17.485	1298.743	973.428
393.205	17.603	1297.798	973.306
394.219	17.516	1296.957	972.094
395.234	17.573	1295.770	971.446
396.248	17.514	1294.806	970.301
397.263	17.622	1292.874	969.382
398.278	17.626	1291.755	968.480
399.292	17.697	1290.578	967.912
400.307	17.569	1289.945	966.628
401.321	17.545	1288.878	965.602
402.336	17.566	1287.746	964.790
403.350	17.657	1286.534	964.312
404.365	17.547	1285.844	963.086
405.380	17.582	1285.153	962.682
406.394	17.644	1284.533	962.483
407.409	17.674	1283.696	961.938
408.423	17.650	1283.259	961.392
409.438	17.725	1282.428	961.108
410.453	17.763	1281.622	960.632
411.467	17.799	1281.020	960.298
412.482	17.841	1279.872	959.588
413.496	17.958	1279.197	959.654
414.511	17.959	1278.695	959.202
415.526	17.943	1278.326	958.746
416.540	17.949	1277.436	958.028
417.555	17.957	1276.813	957.520
418.569	17.936	1276.185	956.849
419.584	17.950	1275.263	956.151
420.599	17.984	1274.875	955.967
421.613	101.367	1358.140	1488.288
422.628	98.927	1370.197	1488.376
