DTS Sentinel unit serial number:	SN413079Multiplexer serial number:	ORYXHardware model number:	OX4-SRSoftware version number:	ORYX F/W v4.00 Oryx Data Collector v3.7.2.0data status	okinstallation	princeton_trtdifferential loss correction	single-endedforward channel	channel 4reverse channel	N/Adate	2019/09/19time	02:49:34forward acquisition time	60.00reverse acquisition time	0.00gamma	496.2192k internal	0.2340k external	0.2340temperature offset calibration	1.0027default loss term (dB/km)	0.3790temperature slope calibration	1.0000multiplexer offset coefficient	1.0000multiplexer slope coefficient	1.0000fibre end	0.00T internal ref (°C)	20.89T ext. ref 1 (°C)	0.66T ext. ref 2 (°C)	14.70length (m)	temperature (°C)	Stokes	anti-Stokes-747.200	800.000	-0.014	0.054
-746.185	800.000	0.016	-0.046
-745.171	35.643	0.068	0.060
-744.156	-67.559	-0.342	0.134
-743.142	39.933	-0.364	0.328
-742.127	365.396	-0.203	0.410
-741.112	27.769	-0.227	0.192
-740.098	223.855	0.174	0.281
-739.083	-200.000	-0.069	0.349
-738.069	-200.000	-0.052	0.330
-737.054	35.145	-0.139	-0.122
-736.039	800.000	-0.046	-0.188
-735.025	-124.969	0.515	0.080
-734.010	24.837	-0.385	-0.320
-732.996	-145.274	-0.619	-0.056
-731.981	800.000	-0.089	0.283
-730.966	35.423	-0.417	-0.367
-729.952	-71.498	0.275	0.103
-728.937	54.793	0.096	-0.093
-727.923	-64.131	-0.057	0.023
-726.908	448.077	0.063	-0.140
-725.894	229.222	0.183	0.299
-724.879	-67.891	0.182	0.071
-723.864	-56.339	0.061	-0.027
-722.850	432.183	-0.051	0.110
-721.835	-200.000	-0.020	-0.150
-720.821	67.897	0.244	0.250
-719.806	800.000	-0.090	-0.312
-718.791	1.620	-0.138	-0.099
-717.777	-200.000	-0.058	-0.265
-716.762	-105.097	-0.233	-0.053
-715.748	124.689	-0.254	-0.321
-714.733	85.312	0.046	-0.050
-713.718	42.625	-0.253	-0.230
-712.704	-200.000	-0.015	-0.277
-711.689	-12.932	-0.378	-0.246
-710.675	89.728	-0.056	-0.063
-709.660	136.078	-0.188	-0.245
-708.645	800.000	-0.150	-0.577
-707.631	53.536	0.225	-0.216
-706.616	800.000	0.055	-0.164
-705.602	-145.871	0.365	-0.032
-704.587	774.504	0.070	-0.191
-703.572	800.000	-0.106	-0.372
-702.558	-160.806	0.203	-0.011
-701.543	-76.298	0.231	0.082
-700.529	-42.532	-0.143	-0.073
-699.514	-165.663	-0.059	0.003
-698.499	385.558	-0.211	-0.435
-697.485	-101.744	0.138	-0.033
-696.470	73.003	-0.158	-0.165
-695.456	14.392	-0.118	0.092
-694.441	152.105	-0.124	0.169
-693.426	-70.273	-0.233	0.089
-692.412	-80.770	0.127	-0.042
-691.397	-17.873	-0.200	-0.126
-690.383	-158.164	-0.201	-0.012
-689.368	10.283	-0.276	0.210
-688.354	55.422	0.096	0.093
-687.339	-20.504	0.182	0.112
-686.324	-19.929	-0.221	-0.136
-685.310	646.103	0.060	0.153
-684.295	-160.305	-0.155	-0.008
-683.281	-12.775	-0.092	0.060
-682.266	-200.000	0.001	-0.493
-681.251	-121.600	-0.186	-0.031
-680.237	-103.733	-0.414	0.097
-679.222	-200.000	-0.027	0.122
-678.208	-124.737	-0.303	0.047
-677.193	800.000	0.132	0.397
-676.178	-58.876	-0.151	0.065
-675.164	-85.963	-0.093	-0.029
-674.149	134.093	-0.060	-0.077
-673.135	-148.926	0.214	0.017
-672.120	205.108	-0.195	-0.303
-671.105	-184.665	-0.160	0.003
-670.091	-78.572	0.153	-0.052
-669.076	370.958	-0.038	-0.078
-668.062	104.530	0.246	-0.290
-667.047	195.971	-0.152	0.231
-666.032	800.000	-0.093	0.353
-665.018	-200.000	-0.009	-0.102
-664.003	-200.000	-0.006	0.059
-662.989	-43.960	-0.281	0.141
-661.974	-87.260	-0.469	0.142
-660.959	107.232	-0.139	-0.165
-659.945	87.749	-0.256	-0.283
-658.930	70.896	-0.089	0.092
-657.916	68.300	0.227	0.233
-656.901	85.778	-0.085	-0.093
-655.886	800.000	-0.048	0.172
-654.872	-190.965	0.450	-0.005
-653.857	800.000	-0.027	0.117
-652.843	694.162	0.155	-0.405
-651.828	800.000	0.022	0.065
-650.814	27.638	0.186	-0.157
-649.799	-200.000	0.065	0.306
-648.784	800.000	0.062	0.252
-647.770	81.827	-0.154	0.166
-646.755	-200.000	0.128	-0.001
-645.741	-200.000	0.003	0.236
-644.726	24.740	-0.271	0.224
-643.711	-107.284	0.239	-0.053
-642.697	290.244	-0.157	0.285
-641.682	800.000	-0.087	0.297
-640.668	-50.460	0.225	0.106
-639.653	-200.000	-0.050	-0.243
-638.638	800.000	0.037	-0.125
-637.624	29.389	-0.079	-0.067
-636.609	-150.751	0.018	0.001
-635.595	555.299	0.079	0.189
-634.580	-81.777	0.368	0.121
-633.565	10.186	0.046	0.035
-632.551	-60.305	0.490	0.208
-631.536	255.218	-0.061	-0.104
-630.522	-135.164	-0.349	0.042
-629.507	50.315	-0.048	0.045
-628.492	162.509	-0.208	-0.291
-627.478	141.723	0.253	0.334
-626.463	593.913	0.045	0.111
-625.449	139.333	-0.109	-0.143
-624.434	-96.506	-0.309	-0.081
-623.419	-96.869	-0.216	0.057
-622.405	102.134	0.131	0.153
-621.390	57.966	0.428	0.418
-620.376	-134.856	-0.390	0.047
-619.361	651.266	-0.035	0.090
-618.346	-82.090	0.285	-0.093
-617.332	187.681	0.169	0.252
-616.317	-200.000	0.010	0.081
-615.303	148.709	0.078	-0.105
-614.288	-200.000	0.038	0.262
-613.273	-170.901	-0.189	-0.006
-612.259	58.106	-0.160	-0.156
-611.244	800.000	0.072	0.261
-610.230	146.084	0.279	-0.374
-609.215	520.177	-0.082	-0.192
-608.201	-163.028	-0.216	0.010
-607.186	800.000	0.016	-0.067
-606.171	-39.027	-0.402	0.211
-605.157	-200.000	-0.034	-0.298
-604.142	-126.110	0.054	-0.008
-603.128	346.316	0.067	-0.132
-602.113	-182.209	0.284	-0.005
-601.098	-49.211	0.187	0.089
-600.084	94.061	0.097	0.110
-599.069	-200.000	-0.005	-0.165
-598.055	233.629	-0.052	-0.086
-597.040	200.102	-0.225	0.344
-596.025	-200.000	0.017	0.106
-595.011	363.050	0.092	-0.185
-593.996	55.745	0.257	-0.249
-592.982	3.640	-0.150	-0.109
-591.967	537.309	0.083	0.196
-590.952	-200.000	0.020	-0.152
-589.938	-83.841	-0.123	-0.039
-588.923	-153.191	-0.411	-0.029
-587.909	2.442	-0.109	-0.079
-586.894	-156.154	0.525	-0.033
-585.879	-168.271	-0.460	0.018
-584.865	-44.755	-0.384	-0.191
-583.850	-104.864	-0.121	0.028
-582.836	82.905	0.184	0.199
-581.821	22.549	-0.150	-0.122
-580.806	189.946	0.210	-0.314
-579.792	-200.000	0.018	-0.336
-578.777	-130.648	-0.177	-0.024
-577.763	-200.000	-0.020	0.137
-576.748	-167.273	0.661	0.027
-575.733	-200.000	-0.015	0.133
-574.719	20.306	0.321	0.258
-573.704	800.000	0.069	-0.288
-572.690	-200.000	-0.027	-0.249
-571.675	37.813	0.007	0.006
-570.661	372.513	0.142	-0.288
-569.646	-62.890	0.194	0.080
-568.631	-200.000	-0.012	-0.102
-567.617	485.505	-0.123	-0.280
-566.602	69.506	-0.174	-0.179
-565.588	239.287	0.221	0.366
-564.573	800.000	-0.055	-0.186
-563.558	2.970	0.235	-0.170
-562.544	-39.517	0.179	-0.093
-561.529	109.683	-0.055	-0.065
-560.515	27.360	0.340	-0.284
-559.500	-103.330	-0.289	0.068
-558.485	47.739	0.179	-0.166
-557.471	-110.218	0.261	-0.054
-556.456	-200.000	0.026	0.152
-555.442	-31.798	-0.211	-0.118
-554.427	-43.575	-0.136	0.068
-553.412	203.251	0.276	-0.425
-552.398	132.393	0.167	-0.214
-551.383	322.039	-0.012	-0.024
-550.369	-143.771	0.147	-0.014
-549.354	-200.000	0.037	0.269
-548.339	-121.029	0.029	-0.005
-547.325	690.692	0.031	-0.081
-546.310	111.797	0.222	-0.267
-545.296	800.000	-0.023	0.075
-544.281	407.880	-0.131	0.276
-543.266	-108.492	-0.319	0.068
-542.252	800.000	-0.017	0.055
-541.237	800.000	-0.046	-0.158
-540.223	-56.861	0.275	-0.121
-539.208	-200.000	-0.016	-0.135
-538.193	-154.864	0.139	0.009
-537.179	-28.218	-0.283	0.163
-536.164	-200.000	0.007	-0.111
-535.150	210.011	0.107	-0.168
-534.135	-200.000	-0.010	0.062
-533.121	-105.605	-0.381	0.086
-532.106	156.319	-0.050	-0.069
-531.091	800.000	0.058	0.190
-530.077	84.259	-0.252	-0.274
-529.062	565.414	0.028	-0.068
-528.048	-148.964	-0.169	0.014
-527.033	-52.974	0.331	-0.151
-526.018	-151.961	0.125	0.009
-525.004	-133.560	0.121	0.015
-523.989	222.680	-0.148	0.236
-522.975	-47.435	0.206	-0.100
-521.960	33.230	0.160	0.138
-520.945	47.064	-0.279	-0.258
-519.931	800.000	-0.058	-0.181
-518.916	404.953	-0.043	0.091
-517.902	-200.000	-0.029	0.300
-516.887	25.854	0.109	-0.090
-515.872	-144.747	0.246	0.022
-514.858	-200.000	-0.022	0.388
-513.843	46.872	0.325	0.300
-512.829	100.896	0.067	-0.077
-511.814	-200.000	0.013	-0.197
-510.799	550.619	-0.061	-0.146
-509.785	66.911	-0.121	0.122
-508.770	-200.000	-0.041	-0.199
-507.756	659.846	-0.142	0.362
-506.741	-92.595	0.185	0.052
-505.726	800.000	0.035	-0.152
-504.712	-198.008	0.168	-0.001
-503.697	260.443	0.092	0.157
-502.683	66.299	-0.310	-0.313
-501.668	-200.000	-0.033	0.273
-500.653	-200.000	-0.054	0.266
-499.639	-123.877	-0.174	0.027
-498.624	124.236	-0.110	0.137
-497.610	-30.465	-0.200	0.112
-496.595	29.301	-0.217	-0.183
-495.581	-107.572	-0.553	0.120
-494.566	-200.000	0.005	-0.126
-493.551	39.376	-0.129	0.115
-492.537	-200.000	0.024	-0.263
-491.522	-200.000	-0.019	-0.239
-490.508	-9.170	-0.260	0.173
-489.493	-141.737	-0.307	-0.031
-488.478	118.766	-0.094	0.115
-487.464	800.000	0.061	0.189
-486.449	315.705	-0.207	-0.387
-485.435	-35.641	-0.099	-0.053
-484.420	-73.416	0.384	0.139
-483.405	343.742	-0.152	-0.296
-482.391	-139.221	0.182	0.019
-481.376	66.270	-0.146	-0.147
-480.362	-20.234	0.136	0.083
-479.347	-200.000	-0.020	0.088
-478.332	120.129	-0.115	-0.142
-477.318	48.824	-0.299	0.279
-476.303	156.506	0.304	-0.417
-475.289	-84.142	-0.151	0.048
-474.274	258.858	-0.071	-0.121
-473.259	231.259	-0.130	0.212
-472.245	296.471	-0.059	0.108
-471.230	-64.709	0.291	0.117
-470.216	800.000	-0.125	-0.359
-469.201	469.575	0.108	-0.241
-468.186	-172.095	0.133	-0.004
-467.172	-182.121	-0.345	0.006
-466.157	236.385	0.020	0.033
-465.143	41.529	-0.481	0.432
-464.128	-33.630	0.278	-0.152
-463.113	800.000	-0.098	-0.320
-462.099	-70.457	-0.105	0.039
-461.084	-103.383	0.192	-0.045
-460.070	-73.933	-0.327	-0.118
-459.055	-55.060	-0.108	0.048
-458.040	-10.758	-0.158	0.104
-457.026	-200.000	0.030	-0.148
-456.011	-99.736	-0.221	-0.055
-454.997	58.574	0.163	-0.159
-453.982	424.957	0.076	-0.162
-452.968	-200.000	-0.029	0.197
-451.953	-57.773	-0.223	0.097
-450.938	-59.336	0.083	-0.035
-449.924	-200.000	0.041	0.235
-448.909	-110.273	0.227	-0.047
-447.895	73.232	0.146	-0.151
-446.880	252.396	0.105	0.177
-445.865	90.891	-0.040	0.045
-444.851	52.967	0.111	0.105
-443.836	-126.776	-0.005	0.001
-442.822	101.170	-0.279	-0.322
-441.807	800.000	-0.020	-0.069
-440.792	-13.971	-0.308	-0.197
-439.778	-131.550	-0.148	-0.019
-438.763	-200.000	0.000	-0.061
-437.749	-81.593	0.281	-0.092
-436.734	-42.010	-0.195	0.099
-435.719	131.680	0.219	-0.279
-434.705	242.583	-0.036	0.060
-433.690	-5.469	0.077	0.052
-432.676	800.000	0.046	-0.143
-431.661	-150.744	-0.207	0.016
-430.646	-200.000	-0.011	-0.107
-429.632	-200.000	0.049	-0.231
-428.617	-148.978	-0.027	-0.002
-427.603	249.509	0.082	-0.138
-426.588	-29.059	-0.029	-0.016
-425.573	-27.538	0.173	-0.099
-424.559	129.415	-0.169	0.214
-423.544	-200.000	-0.051	0.239
-422.530	124.426	0.072	-0.090
-421.515	-158.763	0.074	0.004
-420.500	-42.184	-0.199	-0.101
-419.486	-89.973	0.115	-0.033
-418.471	-200.000	0.003	0.241
-417.457	524.954	-0.119	-0.277
-416.442	508.834	-0.105	-0.242
-415.428	-169.838	0.555	0.020
-414.413	167.978	-0.124	0.175
-413.398	160.397	-0.073	-0.101
-412.384	83.402	0.169	0.182
-411.369	-59.742	-0.463	0.196
-410.355	-200.000	-0.031	-0.213
-409.340	-89.959	-0.327	0.094
-408.325	-64.429	-0.363	0.146
-407.311	-200.000	0.075	-0.427
-406.296	-91.693	0.139	-0.039
-405.282	-130.384	-0.183	-0.025
-404.267	-69.833	0.414	-0.156
-403.252	196.264	-0.089	-0.134
-402.238	-200.000	-0.061	0.294
-401.223	17.207	0.232	-0.182
-400.209	-82.142	0.101	0.033
-399.194	-154.850	-0.087	0.006
-398.179	-36.821	-0.165	0.088
-397.165	-200.000	-0.019	0.237
-396.150	800.000	-0.089	0.256
-395.136	31.573	0.213	0.182
-394.121	-119.532	-0.402	-0.069
-393.106	-65.066	0.064	0.026
-392.092	139.840	0.128	0.167
-391.077	-98.144	0.418	0.106
-390.063	-200.000	0.013	-0.232
-389.048	-200.000	-0.007	-0.119
-388.033	28.264	0.111	-0.093
-387.019	-130.124	0.300	-0.040
-386.004	-7.671	-0.078	0.052
-384.990	800.000	-0.139	-0.457
-383.975	-133.252	0.531	0.066
-382.960	8.202	0.021	-0.016
-381.946	800.000	-0.066	0.186
-380.931	-200.000	0.000	-0.022
-379.917	-76.245	-0.304	-0.106
-378.902	-200.000	0.034	0.516
-377.888	135.305	0.076	0.098
-376.873	-27.746	-0.121	-0.070
-375.858	-200.000	-0.033	0.211
-374.844	-84.909	0.127	-0.040
-373.829	-42.858	0.139	0.070
-372.815	-169.420	-0.306	-0.011
-371.800	800.000	0.042	-0.154
-370.785	206.128	-0.095	0.145
-369.771	-30.550	-0.386	0.216
-368.756	-36.225	0.252	-0.135
-367.742	-127.952	-0.141	0.020
-366.727	-106.011	-0.201	0.045
-365.712	-150.566	0.231	-0.017
-364.698	29.862	-0.297	-0.250
-363.683	-50.070	0.017	0.008
-362.669	80.839	-0.213	0.227
-361.654	800.000	-0.075	-0.254
-360.639	-27.941	0.114	-0.065
-359.625	-84.276	-0.139	0.043
-358.610	82.763	-0.051	-0.055
-357.596	-125.227	0.082	-0.012
-356.581	-154.684	-0.195	0.013
-355.566	-200.000	-0.067	-0.458
-354.552	682.686	-0.117	0.300
-353.537	791.046	0.052	0.142
-352.523	-34.230	0.211	0.114
-351.508	-38.515	-0.152	0.079
-350.493	-64.732	0.351	0.141
-349.479	800.000	0.091	-0.250
-348.464	-31.149	0.422	0.235
-347.450	-200.000	-0.051	0.377
-346.435	85.363	0.149	-0.161
-345.420	-142.391	-0.403	0.039
-344.406	-64.484	0.230	0.092
-343.391	-200.000	-0.025	-0.497
-342.377	800.000	-0.132	0.465
-341.362	-15.932	0.204	-0.128
-340.348	-143.627	0.211	0.020
-339.333	-200.000	-0.002	0.101
-338.318	-91.373	-0.187	0.053
-337.304	-46.567	-0.152	0.074
-336.289	4.008	0.265	-0.191
-335.275	43.958	0.262	-0.237
-334.260	-200.000	0.005	-0.022
-333.245	800.000	-0.091	-0.261
-332.231	147.421	-0.064	0.085
-331.216	800.000	0.137	0.508
-330.202	32.013	0.175	0.148
-329.187	58.746	0.315	-0.305
-328.172	-200.000	0.004	-0.195
-327.158	800.000	-0.065	-0.221
-326.143	800.000	-0.039	0.137
-325.129	-200.000	0.008	0.315
-324.114	800.000	-0.012	-0.045
-323.099	-37.891	-0.143	0.075
-322.085	-157.312	-0.333	-0.020
-321.070	-74.665	0.192	0.068
-320.056	11.384	-0.254	-0.192
-319.041	-7.465	0.190	0.127
-318.026	15.975	-0.228	0.177
-317.012	-145.458	0.046	-0.004
-315.997	15.319	0.217	0.168
-314.983	-108.009	0.243	0.052
-313.968	188.604	-0.063	0.093
-312.953	-23.693	-0.107	-0.063
-311.939	-65.716	-0.468	-0.185
-310.924	68.083	-0.128	-0.129
-309.910	156.700	0.077	-0.106
-308.895	-75.918	-0.473	0.165
-307.880	-62.119	-0.089	0.037
-306.866	34.030	-0.127	0.109
-305.851	-34.187	-0.090	-0.049
-304.837	414.948	0.130	0.273
-303.822	491.951	0.057	-0.129
-302.807	-82.991	0.104	0.033
-301.793	-9.923	-0.272	0.178
-300.778	-200.000	-0.044	-0.280
-299.764	215.704	-0.048	-0.075
-298.749	166.056	0.195	0.272
-297.735	0.643	-0.068	0.048
-296.720	493.421	-0.094	-0.213
-295.705	-65.713	0.262	-0.103
-294.691	91.321	-0.186	0.206
-293.676	800.000	-0.039	0.125
-292.662	-80.504	-0.168	0.055
-291.647	402.467	-0.100	0.207
-290.632	-111.876	0.149	-0.030
-289.618	-78.550	0.127	-0.043
-288.603	-200.000	-0.072	-0.329
-287.589	-187.271	-0.303	0.004
-286.574	213.043	-0.116	0.180
-285.559	800.000	-0.097	0.366
-284.545	-156.830	-0.165	-0.010
-283.530	-151.600	-0.355	0.026
-282.516	800.000	-0.072	-0.217
-281.501	54.940	-0.328	0.312
-280.486	-200.000	0.287	-0.000
-279.472	26.843	-0.208	-0.172
-278.457	-64.286	-0.299	0.120
-277.443	-109.475	0.132	-0.027
-276.428	-29.721	-0.222	0.125
-275.413	-200.000	0.011	0.388
-274.399	-200.000	0.022	0.466
-273.384	166.878	-0.261	0.365
-272.370	-31.734	0.372	-0.206
-271.355	-200.000	-0.002	-0.157
-270.340	-200.000	-0.007	-0.256
-269.326	698.950	-0.062	-0.161
-268.311	-200.000	-0.016	-0.145
-267.297	55.333	-0.135	-0.128
-266.282	-19.787	0.240	-0.146
-265.267	41.437	0.230	0.205
-264.253	344.201	-0.148	-0.286
-263.238	126.058	0.131	-0.163
-262.224	-139.083	0.197	-0.021
-261.209	-64.612	0.314	0.125
-260.195	-58.758	-0.320	0.136
-259.180	268.551	0.116	0.201
-258.165	-134.958	0.141	0.017
-257.151	800.000	-0.077	-0.289
-256.136	527.222	-0.038	-0.088
-255.122	-200.000	-0.070	0.305
-254.107	87.781	0.225	-0.245
-253.092	-94.097	0.409	-0.110
-252.078	23.368	-0.387	0.313
-251.063	-108.013	-0.431	-0.092
-250.049	208.914	0.111	-0.171
-249.034	-76.304	-0.196	-0.068
-248.019	-5.746	0.053	-0.036
-247.005	-101.688	0.075	0.018
-245.990	-26.556	0.227	0.131
-244.976	-27.326	0.318	-0.182
-243.961	87.222	-0.190	-0.207
-242.946	121.447	-0.076	0.093
-241.932	-133.070	0.048	0.006
-240.917	-200.000	0.025	-0.318
-239.903	147.366	0.182	0.241
-238.888	800.000	0.039	-0.143
-237.873	-200.000	-0.002	0.108
-236.859	-104.713	0.102	0.023
-235.844	-200.000	0.017	0.092
-234.830	23.130	-0.173	0.139
-233.815	-200.000	0.006	0.269
-232.800	-63.103	0.404	0.164
-231.786	-127.023	-0.029	0.004
-230.771	-200.000	0.059	-0.337
-229.757	16.568	0.166	0.129
-228.742	-40.137	0.275	0.141
-227.727	-77.463	0.269	-0.092
-226.713	-72.086	0.149	-0.055
-225.698	-69.599	0.417	-0.157
-224.684	-101.684	0.367	-0.087
-223.669	-59.219	-0.267	-0.113
-222.655	-200.000	-0.021	-0.123
-221.640	73.083	0.063	0.064
-220.625	-184.843	-0.231	0.004
-219.611	43.875	0.098	-0.088
-218.596	800.000	0.092	0.301
-217.582	322.168	-0.202	-0.378
-216.567	30.072	0.174	-0.145
-215.552	190.897	0.137	0.203
-214.538	800.000	0.057	0.194
-213.523	532.031	0.266	-0.618
-212.509	800.000	-0.050	0.141
-211.494	41.441	-0.115	0.102
-210.479	288.228	-0.131	0.232
-209.465	-51.884	-0.295	-0.135
-208.450	-55.879	0.328	0.144
-207.436	132.484	0.086	-0.109
-206.421	-88.793	-0.292	-0.085
-205.406	90.315	0.063	-0.069
-204.392	-122.766	0.399	-0.063
-203.377	121.942	0.240	-0.294
-202.363	-14.779	0.007	-0.005
-201.348	-131.814	0.065	0.008
-200.333	-120.690	-0.286	-0.048
-199.319	-200.000	-0.007	-0.075
-198.304	-200.000	0.001	0.046
-197.290	-33.002	-0.189	0.103
-196.275	-21.408	0.162	-0.097
-195.260	373.302	0.096	0.191
-194.246	-125.647	0.347	-0.052
-193.231	49.979	0.099	0.092
-192.217	800.000	-0.031	0.112
-191.202	-4.807	0.115	0.078
-190.187	96.671	0.174	-0.195
-189.173	5.033	-0.187	-0.135
-188.158	60.579	0.147	-0.143
-187.144	-16.134	0.120	-0.075
-186.129	616.208	0.061	0.151
-185.114	-52.578	0.020	-0.009
-184.100	48.740	0.247	0.227
-183.085	-200.000	0.014	-0.105
-182.071	47.241	0.236	-0.215
-181.056	-200.000	-0.014	-0.238
-180.042	475.408	0.069	0.153
-179.027	-22.521	0.140	0.083
-178.012	-200.000	0.036	-0.293
-176.998	-200.000	-0.012	0.080
-175.983	38.923	-0.260	0.227
-174.969	-46.241	-0.578	-0.279
-173.954	168.472	-0.210	0.293
-172.939	-28.934	-0.181	0.102
-171.925	-1.985	0.166	0.114
-170.910	65.339	-0.058	-0.058
-169.896	-24.047	-0.390	0.228
-168.881	-200.000	0.042	-0.186
-167.866	-184.761	0.277	0.004
-166.852	-200.000	-0.094	0.466
-165.837	-200.000	0.007	-0.206
-164.823	-161.721	0.346	-0.017
-163.808	104.851	0.144	-0.166
-162.793	800.000	-0.088	0.326
-161.779	-200.000	0.083	0.421
-160.764	-200.000	-0.006	0.306
-159.750	-52.643	-0.257	-0.116
-158.735	-34.573	0.431	-0.231
-157.720	79.494	-0.281	0.295
-156.706	144.319	0.098	-0.129
-155.691	478.037	-0.103	-0.228
-154.677	370.373	0.049	0.098
-153.662	800.000	-0.115	0.356
-152.647	800.000	0.041	0.113
-151.633	262.498	-0.116	-0.197
-150.618	368.796	0.039	0.076
-149.604	6.139	-0.062	0.045
-148.589	-133.686	0.266	0.033
-147.574	-115.166	0.208	0.039
-146.560	-90.418	0.319	0.091
-145.545	386.097	0.057	-0.115
-144.531	800.000	-0.109	-0.437
-143.516	414.882	0.145	-0.303
-142.502	329.007	-0.094	0.176
-141.487	526.056	0.027	0.062
-140.472	127.932	0.105	0.131
-139.458	-93.908	-0.508	0.137
-138.443	65.418	-0.165	-0.163
-137.429	31.214	0.127	0.106
-136.414	538.826	-0.106	0.248
-135.399	383.626	0.101	-0.204
-134.385	-29.533	0.159	0.089
-133.370	-200.000	-0.011	-0.273
-132.356	-200.000	0.039	-0.173
-131.341	89.311	0.104	0.113
-130.326	114.931	-0.082	-0.097
-129.312	-117.807	0.136	-0.024
-128.297	-200.000	-0.011	0.385
-127.283	-101.910	0.331	-0.078
-126.268	-200.000	0.011	0.186
-125.253	284.076	0.135	0.238
-124.239	-76.725	-0.049	0.017
-123.224	113.808	-0.103	0.123
-122.210	78.530	0.057	-0.059
-121.195	-49.087	-0.149	-0.070
-120.180	39.523	0.128	-0.112
-119.166	212.892	0.067	-0.104
-118.151	-118.935	0.121	-0.021
-117.137	-8.149	0.254	0.168
-116.122	4.351	-0.264	0.189
-115.107	-200.000	0.012	-0.055
-114.093	14.696	-0.322	0.246
-113.078	-72.610	0.425	0.153
-112.064	-31.383	0.362	0.199
-111.049	80.463	-0.065	-0.068
-110.034	-163.120	0.243	0.011
-109.020	-80.463	0.297	-0.097
-108.005	-158.280	-0.368	0.021
-106.991	800.000	0.093	-0.321
-105.976	544.222	-0.034	0.080
-104.962	-200.000	0.071	-0.385
-103.947	177.236	-0.080	-0.114
-102.932	-181.762	-0.476	0.009
-101.918	49.756	0.118	0.109
-100.903	-3.802	0.226	0.154
-99.889	800.000	0.065	-0.182
-98.874	800.000	0.059	-0.205
-97.859	65.092	-0.139	0.137
-96.845	1.346	0.264	0.185
-95.830	-112.128	-0.135	0.026
-94.816	371.461	0.096	-0.190
-93.801	32.000	0.140	-0.118
-92.786	-88.504	-0.137	-0.040
-91.772	-200.000	0.004	0.209
-90.757	8.799	-0.122	0.090
-89.743	567.634	0.082	0.195
-88.728	-76.946	0.082	-0.028
-87.713	-121.289	0.130	-0.021
-86.699	-200.000	0.029	-0.126
-85.684	725.526	-0.125	0.327
-84.670	202.413	-0.127	0.191
-83.655	620.399	0.104	0.256
-82.640	556.326	-0.107	0.252
-81.626	-59.505	-0.275	0.115
-80.611	-91.182	0.257	0.072
-79.597	772.688	0.142	0.378
-78.582	-200.000	-0.080	-0.436
-77.567	-200.000	0.025	-0.301
-76.553	551.625	-0.140	0.327
-75.538	-104.905	-0.250	0.056
-74.524	-51.596	-0.162	-0.074
-73.509	-200.000	0.004	0.100
-72.494	-97.836	-0.246	0.062
-71.480	-159.705	0.098	-0.005
-70.465	-131.039	-0.127	-0.017
-69.451	-74.114	-0.497	0.176
-68.436	800.000	-0.039	-0.135
-67.422	-200.000	-0.048	-0.285
-66.407	-181.062	-0.109	0.002
-65.392	-186.692	-0.071	-0.001
-64.378	800.000	-0.030	0.108
-63.363	18.094	0.243	-0.189
-62.349	-200.000	-0.037	-0.373
-61.334	56.231	-1.365	-1.295
-60.319	18.678	0.825	0.644
-59.305	354.200	-0.622	-1.206
-58.290	424.765	0.801	1.682
-57.276	-200.000	0.093	1.731
-56.261	-200.000	135.537	683.161
-55.246	337.754	1677.871	3184.600
-54.232	132.303	2814.445	3539.319
-53.217	79.530	2349.206	2459.783
-52.203	27.243	2087.957	1711.271
-51.188	22.663	2005.846	1602.402
-50.173	21.599	1991.104	1580.962
-49.159	40.021	2068.818	1813.593
-48.144	37.663	2078.307	1800.071
-47.130	23.006	2030.441	1624.946
-46.115	20.942	2019.477	1597.216
-45.100	20.782	2017.012	1593.732
-44.086	20.835	2014.003	1591.778
-43.071	20.710	2012.048	1589.032
-42.057	20.721	2009.628	1587.154
-41.042	20.776	2008.003	1586.307
-40.027	20.881	2005.629	1585.330
-39.013	20.853	2003.642	1583.437
-37.998	20.888	2001.893	1582.317
-36.984	20.843	1999.885	1580.251
-35.969	20.822	1998.134	1578.621
-34.954	20.795	1997.135	1577.522
-33.940	20.805	1995.989	1576.648
-32.925	20.888	1994.065	1575.810
-31.911	20.859	1992.415	1574.184
-30.896	20.835	1991.047	1572.823
-29.881	20.921	1989.252	1572.119
-28.867	20.960	1987.402	1570.944
-27.852	20.897	1985.947	1569.168
-26.838	21.036	1983.891	1568.734
-25.823	20.850	1982.304	1565.738
-24.809	20.905	1980.572	1564.808
-23.794	20.881	1978.678	1563.034
-22.779	20.900	1977.153	1561.933
-21.765	20.921	1975.229	1560.538
-20.750	20.958	1973.854	1559.724
-19.736	20.876	1972.698	1558.015
-18.721	20.889	1970.776	1556.548
-17.706	20.913	1968.992	1555.291
-16.692	20.854	1967.436	1553.478
-15.677	20.941	1965.586	1552.729
-14.663	20.911	1964.362	1551.434
-13.648	20.947	1963.514	1551.023
-12.633	20.893	1962.554	1549.726
-11.619	20.954	1960.403	1548.502
-10.604	20.927	1959.401	1547.410
-9.590	20.878	1957.860	1545.697
-8.575	20.915	1956.429	1544.839
-7.560	20.899	1955.122	1543.602
-6.546	20.974	1953.274	1542.743
-5.531	20.924	1952.697	1541.789
-4.517	20.852	1952.019	1540.554
-3.502	20.830	1950.766	1539.312
-2.487	20.773	1949.662	1537.870
-1.473	20.854	1948.377	1537.514
-0.458	20.863	1943.419	1533.615
0.556	19.633	1922.560	1504.565
1.571	15.341	1903.902	1452.742
2.586	11.538	1928.077	1437.640
3.600	10.746	1962.852	1456.341
4.615	10.801	1956.225	1451.785
5.629	8.637	1856.022	1358.943
6.644	3.689	1745.112	1238.037
7.659	0.884	1714.701	1194.235
8.673	0.712	1711.308	1190.414
9.688	0.653	1710.684	1189.408
10.702	0.723	1709.063	1188.731
11.717	0.563	1704.673	1184.313
12.731	0.921	1703.531	1186.225
13.746	5.009	1711.016	1223.460
14.761	11.857	1725.105	1287.437
15.775	16.163	1733.927	1327.872
16.790	17.158	1734.407	1335.955
17.804	16.292	1730.997	1326.412
18.819	15.343	1727.841	1316.431
19.834	14.794	1725.357	1310.116
20.848	14.520	1723.691	1306.594
21.863	14.315	1722.328	1303.837
22.877	14.019	1720.565	1300.071
23.892	13.880	1719.315	1297.924
24.907	13.562	1718.729	1294.887
25.921	13.648	1716.815	1293.997
26.936	13.624	1716.089	1293.150
27.950	13.764	1714.732	1293.102
28.965	13.716	1714.462	1292.411
29.980	13.770	1714.189	1292.511
30.994	13.844	1712.742	1291.886
32.009	13.921	1711.447	1291.389
33.023	13.946	1710.909	1291.064
34.038	13.930	1710.022	1290.156
35.053	13.892	1709.241	1289.160
36.067	13.862	1708.248	1288.059
37.082	13.856	1707.380	1287.248
38.096	13.846	1705.765	1285.840
39.111	13.848	1704.857	1285.055
40.126	13.866	1704.113	1284.520
41.140	13.809	1703.423	1283.447
42.155	13.738	1701.933	1281.665
43.169	13.732	1700.355	1280.309
44.184	13.643	1699.844	1279.130
45.199	13.690	1698.574	1278.420
46.213	13.657	1697.115	1276.958
47.228	13.706	1695.337	1275.886
48.242	13.713	1694.614	1275.279
49.257	13.717	1693.641	1274.462
50.271	13.806	1692.151	1273.918
51.286	13.805	1690.734	1272.729
52.301	13.791	1689.224	1271.374
53.315	13.809	1688.057	1270.516
54.330	13.827	1686.553	1269.410
55.344	13.738	1684.783	1267.290
56.359	13.778	1683.338	1266.392
57.374	13.712	1682.285	1264.985
58.388	13.830	1681.004	1264.812
59.403	13.744	1679.785	1263.126
60.417	13.750	1678.329	1261.962
61.432	13.594	1677.731	1260.214
62.447	13.589	1676.309	1258.997
63.461	13.598	1674.916	1257.912
64.476	13.559	1674.446	1257.150
65.490	13.636	1672.693	1256.302
66.505	13.599	1670.923	1254.585
67.520	13.611	1670.437	1254.196
68.534	13.601	1668.827	1252.808
69.549	13.667	1668.004	1252.572
70.563	13.642	1666.290	1250.987
71.578	13.649	1665.290	1250.180
72.593	13.649	1663.865	1248.999
73.607	13.593	1662.987	1247.807
74.622	13.527	1661.772	1246.291
75.636	13.598	1660.799	1245.982
76.651	13.630	1659.790	1245.353
77.666	13.572	1659.362	1244.489
78.680	13.618	1658.129	1243.800
79.695	13.583	1657.355	1242.845
80.709	13.641	1656.093	1242.226
81.724	13.674	1655.369	1241.817
82.739	13.688	1654.590	1241.231
83.753	13.637	1653.609	1240.004
84.768	13.853	1651.819	1240.166
85.782	13.753	1651.240	1238.871
86.797	13.744	1650.807	1238.370
87.812	13.785	1649.648	1237.701
88.826	13.801	1648.066	1236.519
89.841	13.656	1646.896	1234.454
90.855	13.771	1645.783	1234.364
91.870	13.848	1644.821	1234.111
92.884	13.806	1643.767	1232.895
93.899	13.836	1642.957	1232.404
94.914	13.912	1641.367	1231.662
95.928	13.830	1640.469	1230.272
96.943	13.842	1639.115	1229.240
97.957	13.831	1637.740	1228.013
98.972	13.795	1636.294	1226.557
99.987	13.879	1634.887	1226.013
101.001	13.790	1632.888	1223.752
102.016	13.776	1631.727	1222.669
103.030	13.689	1630.226	1220.792
104.045	13.898	1628.466	1220.905
105.060	13.882	1627.159	1219.703
106.074	13.863	1625.621	1218.300
107.089	13.778	1624.092	1216.421
108.103	13.714	1622.725	1214.822
109.118	13.607	1621.753	1213.202
110.133	13.638	1619.853	1211.903
111.147	13.712	1618.109	1211.031
112.162	13.719	1616.994	1210.143
113.176	13.742	1615.481	1209.066
114.191	13.665	1614.570	1207.720
115.206	13.780	1612.886	1207.187
116.220	13.808	1611.441	1206.202
117.235	13.749	1609.993	1204.590
118.249	13.785	1608.814	1203.860
119.264	13.766	1607.210	1202.417
120.279	13.689	1605.921	1200.786
121.293	13.754	1604.534	1200.113
122.308	13.749	1603.045	1198.858
123.322	13.680	1601.643	1197.204
124.337	13.645	1599.940	1195.574
125.352	13.638	1599.020	1194.733
126.366	13.645	1597.803	1193.764
127.381	13.675	1596.722	1193.068
128.395	13.600	1595.581	1191.568
129.410	13.715	1593.620	1190.824
130.424	13.703	1592.243	1189.608
131.439	13.670	1591.591	1188.773
132.454	13.775	1589.962	1188.209
133.468	13.751	1588.087	1186.530
134.483	13.779	1587.104	1185.887
135.497	13.807	1585.271	1184.611
136.512	13.720	1584.443	1183.269
137.527	13.808	1582.996	1182.716
138.541	13.709	1582.115	1181.243
139.556	13.770	1580.510	1180.378
140.570	13.791	1578.849	1179.179
141.585	13.850	1577.798	1178.708
142.600	13.902	1576.327	1177.873
143.614	13.911	1575.391	1177.135
144.629	13.965	1573.499	1176.000
145.643	13.960	1572.569	1175.164
146.658	14.035	1571.227	1174.585
147.673	13.988	1569.480	1172.848
148.687	13.973	1567.781	1171.368
149.702	13.948	1566.677	1170.266
150.716	13.930	1565.178	1168.917
151.731	13.949	1563.824	1167.935
152.746	13.966	1561.954	1166.553
153.760	13.960	1560.228	1165.121
154.775	13.886	1559.908	1164.254
155.789	14.017	1558.128	1163.744
156.804	14.054	1556.686	1162.824
157.819	14.030	1555.697	1161.812
158.833	14.137	1554.283	1161.401
159.848	14.076	1553.172	1160.039
160.862	14.112	1551.781	1159.154
161.877	14.169	1550.846	1158.746
162.892	14.182	1549.431	1157.678
163.906	13.954	1548.261	1155.113
164.921	13.964	1547.171	1154.272
165.935	14.022	1546.002	1153.699
166.950	14.042	1544.902	1152.915
167.964	14.090	1543.349	1151.989
168.979	14.115	1542.816	1151.661
169.994	14.129	1541.342	1150.555
171.008	14.178	1540.232	1149.965
172.023	14.199	1539.330	1149.332
173.037	14.147	1538.146	1147.990
174.052	14.153	1536.922	1147.014
175.067	14.214	1535.623	1146.366
176.081	14.152	1534.671	1145.126
177.096	14.204	1533.026	1144.156
178.110	14.133	1532.092	1142.864
179.125	14.111	1531.002	1141.799
180.140	14.266	1529.769	1141.843
181.154	14.190	1528.993	1140.640
182.169	14.249	1527.358	1139.726
183.183	14.250	1526.606	1139.068
184.198	14.261	1525.578	1138.277
185.213	14.362	1523.858	1137.582
186.227	14.329	1522.899	1136.542
187.242	14.376	1522.136	1136.191
188.256	14.398	1520.967	1135.369
189.271	14.343	1519.744	1133.985
190.286	14.439	1518.317	1133.473
191.300	14.475	1517.423	1132.946
192.315	14.300	1515.960	1130.570
193.329	14.284	1514.525	1129.290
194.344	14.162	1514.089	1128.036
195.359	14.259	1512.772	1127.609
196.373	14.311	1511.564	1126.962
197.388	14.359	1510.735	1126.571
198.402	14.436	1509.351	1125.960
199.417	14.510	1507.967	1125.326
200.432	14.496	1507.201	1124.560
201.446	14.546	1505.889	1123.821
202.461	14.575	1505.082	1123.312
203.475	14.597	1503.604	1122.260
204.490	14.658	1502.434	1121.692
205.504	14.629	1501.562	1120.751
206.519	14.577	1500.260	1119.333
207.534	14.479	1499.488	1117.995
208.548	14.478	1498.297	1117.001
209.563	14.621	1497.161	1117.018
210.577	14.542	1496.330	1115.767
211.592	14.647	1495.306	1115.607
212.607	14.599	1494.448	1114.546
213.621	14.603	1493.862	1114.040
214.636	14.679	1492.634	1113.534
215.650	14.619	1492.229	1112.735
216.665	14.639	1490.773	1111.684
217.680	14.735	1490.034	1111.667
218.694	14.792	1489.294	1111.401
219.709	14.827	1488.132	1110.667
220.723	14.772	1486.747	1109.168
221.738	14.828	1486.267	1109.087
222.753	14.822	1485.004	1108.005
223.767	14.867	1483.915	1107.393
224.782	14.842	1483.049	1106.481
225.796	14.899	1482.179	1106.111
226.811	14.932	1481.282	1105.564
227.826	14.934	1480.683	1105.031
228.840	14.875	1480.215	1104.194
229.855	14.857	1478.910	1103.004
230.869	14.923	1477.683	1102.429
231.884	14.931	1476.744	1101.681
232.899	14.938	1475.164	1100.453
233.913	14.891	1474.477	1099.534
234.928	14.949	1472.918	1098.652
235.942	14.974	1472.140	1098.141
236.957	15.010	1470.249	1096.870
237.972	14.896	1469.894	1095.762
238.986	14.891	1468.629	1094.688
240.001	14.894	1467.538	1093.796
241.015	14.881	1466.849	1093.098
242.030	14.996	1465.340	1092.631
243.045	15.049	1464.160	1091.998
244.059	15.017	1463.527	1091.224
245.074	15.029	1462.726	1090.607
246.088	15.075	1462.072	1090.325
247.103	15.048	1461.328	1089.493
248.117	15.052	1460.876	1089.086
249.132	15.167	1459.415	1088.649
250.147	15.262	1458.737	1088.667
251.161	15.266	1458.033	1088.070
252.176	15.357	1457.109	1087.871
253.190	15.319	1456.595	1087.148
254.205	15.352	1455.169	1086.199
255.220	15.317	1454.707	1085.531
256.234	15.496	1453.615	1085.778
257.249	15.365	1453.269	1084.577
258.263	15.385	1452.179	1083.795
259.278	15.439	1451.111	1083.256
260.293	15.436	1450.228	1082.478
261.307	15.406	1449.132	1081.373
262.322	15.566	1448.322	1081.705
263.336	15.620	1447.343	1081.225
264.351	15.514	1446.903	1080.113
265.366	15.626	1445.655	1079.807
266.380	15.664	1444.741	1079.275
267.395	15.542	1443.567	1077.520
268.409	15.606	1442.871	1077.318
269.424	15.658	1441.737	1076.703
270.439	15.672	1440.459	1075.745
271.453	15.644	1439.622	1074.850
272.468	15.692	1438.800	1074.445
273.482	15.578	1438.778	1073.601
274.497	15.657	1437.430	1073.005
275.512	15.648	1436.190	1071.928
276.526	15.609	1435.652	1071.185
277.541	15.633	1434.625	1070.478
278.555	15.675	1433.771	1070.010
279.570	15.719	1432.806	1069.476
280.585	15.777	1431.473	1068.757
281.599	15.759	1431.013	1068.204
282.614	15.777	1429.943	1067.425
283.628	15.730	1429.060	1066.373
284.643	15.812	1427.830	1065.879
285.657	15.725	1426.981	1064.598
286.672	15.737	1425.607	1063.558
287.687	15.851	1424.914	1063.665
288.701	15.847	1423.662	1062.614
289.716	15.773	1423.315	1061.796
290.730	15.816	1422.142	1061.099
291.745	15.852	1420.833	1060.252
292.760	15.833	1420.498	1059.790
293.774	15.949	1418.781	1059.140
294.789	15.976	1417.549	1058.299
295.803	15.991	1416.743	1057.701
296.818	16.049	1416.205	1057.565
297.833	15.971	1415.664	1056.581
298.847	15.917	1414.701	1055.428
299.862	15.952	1413.600	1054.732
300.876	15.971	1412.640	1054.040
301.891	15.971	1411.649	1053.212
302.906	16.030	1410.285	1052.467
303.920	16.080	1409.766	1052.298
304.935	16.192	1409.071	1052.386
305.949	16.133	1408.348	1051.383
306.964	16.227	1407.440	1051.201
307.979	16.283	1406.503	1050.753
308.993	16.177	1405.805	1049.484
310.008	16.150	1404.921	1048.559
311.022	16.224	1403.379	1047.776
312.037	16.320	1402.266	1047.452
313.052	16.318	1401.545	1046.808
314.066	16.349	1400.460	1046.096
315.081	16.261	1399.783	1044.954
316.095	16.236	1398.675	1043.880
317.110	16.258	1397.636	1043.147
318.125	16.229	1396.612	1042.107
319.139	16.220	1395.678	1041.266
320.154	16.310	1394.192	1040.616
321.168	16.378	1393.316	1040.294
322.183	16.266	1392.492	1038.896
323.197	16.471	1390.782	1038.786
324.212	16.271	1391.207	1037.782
325.227	16.261	1390.342	1036.982
326.241	16.349	1389.028	1036.451
327.256	16.404	1387.989	1035.923
328.270	16.368	1387.318	1035.109
329.285	16.316	1386.596	1034.164
330.300	16.338	1385.471	1033.366
331.314	16.374	1384.779	1032.980
332.329	16.462	1383.676	1032.599
333.343	16.479	1382.950	1032.073
334.358	16.399	1382.084	1030.848
335.373	16.447	1381.091	1030.310
336.387	16.467	1380.717	1030.059
337.402	16.539	1379.825	1029.739
338.416	16.587	1378.629	1029.048
339.431	16.507	1378.861	1028.646
340.446	16.684	1377.357	1028.508
341.460	16.743	1376.462	1028.104
342.475	16.682	1375.133	1026.654
343.489	16.730	1374.218	1026.170
344.504	16.707	1373.572	1025.457
345.519	16.761	1372.746	1025.079
346.533	16.752	1371.765	1024.196
347.548	16.753	1370.632	1023.269
348.562	16.798	1369.885	1022.890
349.577	16.783	1369.362	1022.318
350.592	16.856	1368.237	1021.830
351.606	16.826	1367.636	1021.112
352.621	16.865	1366.525	1020.422
353.635	16.752	1365.583	1018.954
354.650	16.834	1364.509	1018.554
355.665	16.767	1363.611	1017.391
356.679	16.822	1362.550	1016.838
357.694	16.791	1361.458	1015.748
358.708	16.831	1360.744	1015.366
359.723	16.844	1359.738	1014.601
360.738	16.899	1358.537	1013.948
361.752	16.901	1357.474	1013.075
362.767	16.907	1356.149	1012.033
363.781	16.987	1355.043	1011.596
364.796	16.888	1354.853	1010.770
365.810	17.000	1353.949	1010.673
366.825	17.034	1353.119	1010.167
367.840	17.111	1352.358	1009.970
368.854	17.135	1351.589	1009.449
369.869	17.113	1351.175	1008.917
370.883	17.128	1350.462	1008.386
371.898	17.065	1349.649	1007.317
372.913	17.119	1348.879	1006.972
373.927	17.113	1347.967	1006.169
374.942	17.184	1347.322	1006.020
375.956	17.225	1346.347	1005.445
376.971	17.243	1345.372	1004.731
377.986	17.185	1344.999	1004.022
379.000	17.149	1344.197	1003.122
380.015	17.200	1342.912	1002.373
381.029	17.236	1342.208	1001.974
382.044	17.226	1341.339	1001.179
383.059	17.277	1340.916	1001.070
384.073	17.335	1340.186	1000.778
385.088	17.384	1339.476	1000.453
386.102	17.306	1338.698	999.319
387.117	17.377	1338.078	999.189
388.132	17.341	1337.593	998.525
389.146	17.352	1335.995	997.307
390.161	17.268	1335.698	996.508
391.175	17.315	1334.916	996.108
392.190	17.474	1333.819	996.134
393.205	17.442	1332.842	995.129
394.219	17.482	1331.821	994.511
395.234	17.497	1330.432	993.473
396.248	17.562	1329.058	992.742
397.263	17.461	1327.981	991.260
398.278	17.533	1326.263	990.310
399.292	17.418	1325.620	989.074
400.307	17.522	1324.431	988.700
401.321	17.460	1323.699	987.705
402.336	17.457	1322.388	986.622
403.350	17.456	1321.516	985.879
404.365	17.499	1320.338	985.162
405.380	17.465	1319.895	984.547
406.394	17.534	1319.007	984.198
407.409	17.598	1318.090	983.799
408.423	17.651	1317.209	983.357
409.438	17.658	1316.895	983.077
410.453	17.801	1315.614	982.858
411.467	17.828	1315.233	982.643
412.482	17.743	1314.798	981.739
413.496	17.741	1313.858	980.937
414.511	17.828	1312.650	980.449
415.526	17.849	1312.271	980.201
416.540	17.827	1311.355	979.303
417.555	17.922	1310.687	979.266
418.569	17.872	1310.229	978.548
419.584	17.868	1310.046	978.304
420.599	17.882	1309.120	977.604
421.613	102.184	1363.559	1493.264
422.628	100.596	1371.435	1493.343
