DTS Sentinel unit serial number:	SN413079Multiplexer serial number:	ORYXHardware model number:	OX4-SRSoftware version number:	ORYX F/W v4.00 Oryx Data Collector v3.7.2.0data status	okinstallation	princeton_trtdifferential loss correction	single-endedforward channel	channel 4reverse channel	N/Adate	2019/09/14time	06:33:35forward acquisition time	60.00reverse acquisition time	0.00gamma	496.2192k internal	0.2323k external	0.2323temperature offset calibration	1.0139default loss term (dB/km)	0.3790temperature slope calibration	1.0000multiplexer offset coefficient	1.0000multiplexer slope coefficient	1.0000fibre end	0.00T internal ref (°C)	26.41T ext. ref 1 (°C)	3.41T ext. ref 2 (°C)	20.37length (m)	temperature (°C)	Stokes	anti-Stokes-747.200	122.151	-0.076	-0.096
-746.185	-64.783	-0.101	-0.041
-745.171	0.754	0.264	0.191
-744.156	160.997	0.089	0.126
-743.142	-194.039	-0.374	0.003
-742.127	-171.096	-0.322	0.011
-741.112	-56.095	0.198	-0.089
-740.098	-132.948	-0.266	0.034
-739.083	178.816	0.052	0.077
-738.069	-200.000	0.056	0.258
-737.054	-186.578	0.092	-0.001
-736.039	-47.891	0.252	-0.123
-735.025	-138.623	-0.068	-0.008
-734.010	-71.049	-0.132	0.050
-732.996	14.273	-0.318	-0.250
-731.981	7.094	-0.058	-0.043
-730.966	68.649	-0.227	-0.235
-729.952	151.437	-0.105	-0.144
-728.937	-200.000	-0.217	0.000
-727.923	800.000	0.045	-0.132
-726.908	-32.068	0.283	0.160
-725.894	438.309	-0.121	-0.266
-724.879	211.060	-0.076	0.121
-723.864	514.164	-0.113	0.265
-722.850	-200.000	0.002	0.213
-721.835	-57.111	-0.222	-0.099
-720.821	-130.625	-0.230	0.031
-719.806	-110.605	-0.207	-0.043
-718.791	-17.092	0.577	0.368
-717.777	-200.000	-0.071	-0.342
-716.762	520.156	-0.084	-0.199
-715.748	15.609	0.100	0.079
-714.733	167.300	-0.163	-0.233
-713.718	77.275	-0.145	-0.155
-712.704	800.000	0.067	0.264
-711.689	-200.000	-0.068	-0.355
-710.675	-200.000	0.031	-0.147
-709.660	-50.325	0.119	0.057
-708.645	-53.127	0.237	0.110
-707.631	10.892	-0.311	-0.239
-706.616	-180.076	-0.382	0.008
-705.602	-127.477	-0.072	-0.011
-704.587	-200.000	-0.001	-0.140
-703.572	489.617	-0.041	-0.096
-702.558	-66.398	-0.117	-0.047
-701.543	-200.000	-0.006	-0.204
-700.529	-157.080	0.135	0.008
-699.514	-37.411	-0.192	0.103
-698.499	498.911	0.080	0.185
-697.485	2.646	-0.041	-0.030
-696.470	75.207	-0.087	0.092
-695.456	-155.322	0.153	0.010
-694.441	800.000	0.087	-0.374
-693.426	20.633	0.042	-0.035
-692.412	-144.627	0.081	-0.008
-691.397	-27.686	-0.422	-0.247
-690.383	-17.838	-0.033	-0.021
-689.368	-200.000	0.049	-0.269
-688.354	-117.894	0.326	-0.059
-687.339	-79.269	-0.401	0.137
-686.324	800.000	0.069	0.260
-685.310	35.038	-0.119	-0.105
-684.295	195.861	0.195	0.300
-683.281	-43.154	0.170	-0.087
-682.266	6.455	-0.235	-0.176
-681.251	-165.866	0.152	0.007
-680.237	-7.784	-0.408	-0.278
-679.222	-11.692	-0.263	0.174
-678.208	-97.789	0.269	0.070
-677.193	-200.000	-0.040	-0.273
-676.178	38.258	-0.108	0.097
-675.164	-13.697	0.100	-0.065
-674.149	-200.000	0.301	0.001
-673.135	-118.629	-0.190	0.034
-672.120	0.206	0.113	-0.081
-671.105	-200.000	0.033	-0.314
-670.091	131.212	-0.089	0.115
-669.076	-151.895	0.220	-0.016
-668.062	-200.000	-0.012	0.088
-667.047	-24.665	0.272	-0.163
-666.032	-161.913	0.346	0.018
-665.018	-16.711	0.197	-0.126
-664.003	188.925	0.109	-0.164
-662.989	-85.768	0.389	0.121
-661.974	520.892	0.122	-0.287
-660.959	28.018	-0.323	0.275
-659.945	-200.000	0.021	0.266
-658.930	-200.000	-0.085	-0.386
-657.916	-103.232	-0.194	0.046
-656.901	675.978	-0.169	-0.442
-655.886	409.464	-0.119	0.253
-654.872	-20.867	-0.064	0.039
-653.857	-200.000	-0.043	0.292
-652.843	-8.824	-0.167	0.113
-651.828	-41.153	-0.420	-0.218
-650.814	409.851	-0.066	0.141
-649.799	-110.667	0.371	-0.077
-648.784	-66.215	0.202	0.081
-647.770	-115.507	0.379	-0.072
-646.755	794.396	-0.046	-0.129
-645.741	6.705	0.113	-0.085
-644.726	800.000	-0.073	0.253
-643.711	690.803	0.072	-0.189
-642.697	143.186	-0.105	0.140
-641.682	47.731	0.288	0.270
-640.668	800.000	0.064	-0.226
-639.653	103.417	0.192	-0.227
-638.638	-113.529	0.124	0.024
-637.624	-56.892	-0.328	0.146
-636.609	754.446	0.114	0.309
-635.595	-200.000	0.010	-0.182
-634.580	526.956	-0.111	0.262
-633.565	-3.599	-0.064	-0.045
-632.551	678.784	-0.026	-0.067
-631.536	136.955	-0.112	-0.147
-630.522	-18.421	0.136	0.086
-629.507	29.525	0.058	0.050
-628.492	96.724	0.127	0.146
-627.478	-200.000	0.036	0.326
-626.463	-51.944	0.214	-0.100
-625.449	800.000	0.052	-0.225
-624.434	-83.300	0.297	0.096
-623.419	800.000	-0.066	-0.265
-622.405	-117.303	-0.095	0.017
-621.390	330.367	-0.091	-0.176
-620.376	-46.695	-0.358	-0.176
-619.361	-135.137	0.081	0.010
-618.346	-28.738	-0.077	-0.045
-617.332	398.033	-0.180	0.379
-616.317	-157.324	-0.206	0.013
-615.303	-73.735	-0.114	-0.042
-614.288	36.969	0.093	0.083
-613.273	-200.000	0.019	0.221
-612.259	142.742	-0.119	-0.159
-611.244	29.824	0.076	0.065
-610.230	-200.000	0.069	-0.437
-609.215	-200.000	0.080	0.371
-608.201	110.946	0.196	-0.237
-607.186	-83.787	-0.159	0.051
-606.171	-19.751	0.167	0.104
-605.157	8.708	0.117	-0.088
-604.142	-200.000	0.010	-0.218
-603.128	-200.000	-0.007	-0.066
-602.113	-107.291	0.117	-0.026
-601.098	800.000	-0.028	-0.114
-600.084	-89.780	-0.046	-0.014
-599.069	266.881	0.044	-0.077
-598.055	-110.996	-0.413	-0.085
-597.040	377.828	-0.105	-0.215
-596.025	-28.928	-0.371	-0.214
-595.011	-108.834	0.235	-0.051
-593.996	385.671	-0.107	-0.221
-592.982	-155.749	0.235	-0.015
-591.967	-67.136	-0.063	-0.025
-590.952	292.379	0.123	0.224
-589.938	-128.469	0.362	-0.052
-588.923	-52.972	0.368	0.170
-587.909	152.195	0.080	0.109
-586.894	-24.744	-0.161	-0.096
-585.879	191.166	-0.127	0.192
-584.865	279.700	0.236	-0.423
-583.850	12.711	0.080	-0.062
-582.836	257.121	-0.089	-0.154
-581.821	-187.094	-0.230	0.003
-580.806	0.837	-0.493	-0.354
-579.792	800.000	0.140	-0.411
-578.777	-200.000	-0.000	0.018
-577.763	583.495	0.149	-0.368
-576.748	-200.000	-0.057	-0.410
-575.733	29.899	0.254	-0.217
-574.719	26.421	0.107	0.090
-573.704	800.000	-0.108	-0.340
-572.690	-126.265	0.132	0.020
-571.675	142.781	-0.183	-0.244
-570.661	-56.667	0.110	0.049
-569.646	-80.882	-0.407	-0.135
-568.631	800.000	-0.017	0.054
-567.617	431.326	0.091	-0.197
-566.602	-163.637	-0.263	-0.012
-565.588	51.999	-0.067	0.064
-564.573	269.501	0.117	-0.206
-563.558	800.000	-0.017	-0.052
-562.544	74.990	0.045	-0.048
-561.529	721.992	0.099	-0.264
-560.515	-200.000	0.015	0.166
-559.500	147.626	0.203	-0.274
-558.485	-109.931	0.172	0.036
-557.471	-200.000	0.002	0.278
-556.456	-29.935	0.073	0.042
-555.442	-200.000	-0.048	-0.234
-554.427	800.000	-0.095	0.337
-553.412	89.844	-0.252	0.282
-552.398	10.058	0.250	-0.191
-551.383	-7.622	0.203	0.138
-550.369	800.000	-0.107	-0.356
-549.354	-200.000	-0.029	0.139
-548.339	28.780	0.322	0.274
-547.325	77.146	0.198	0.211
-546.310	-27.408	-0.271	-0.158
-545.296	-101.724	-0.203	0.049
-544.281	28.246	-0.174	-0.147
-543.266	467.665	-0.066	-0.149
-542.252	686.906	-0.071	-0.186
-541.237	5.987	0.167	-0.124
-540.223	-49.170	-0.219	0.105
-539.208	800.000	-0.146	0.434
-538.193	-48.150	0.103	0.050
-537.179	-200.000	-0.004	-0.095
-536.164	-200.000	0.015	-0.163
-535.150	35.002	-0.048	-0.042
-534.135	-113.693	-0.133	-0.026
-533.121	-31.851	-0.131	-0.074
-532.106	313.295	-0.129	0.242
-531.091	245.884	0.154	0.260
-530.077	-116.998	-0.118	0.022
-529.062	111.268	-0.100	-0.120
-528.048	-200.000	0.027	0.207
-527.033	7.982	0.043	-0.032
-526.018	47.156	0.174	-0.162
-525.004	67.624	0.170	-0.174
-523.989	-77.372	0.134	0.047
-522.975	-200.000	0.003	0.060
-521.960	171.543	-0.113	-0.163
-520.945	800.000	0.069	0.297
-519.931	67.166	0.044	-0.045
-518.916	96.837	-0.326	0.374
-517.902	119.020	-0.259	0.321
-516.887	-56.587	0.259	0.115
-515.872	80.152	-0.120	0.129
-514.858	-200.000	0.018	0.318
-513.843	-69.284	-0.061	-0.024
-512.829	-35.282	0.040	-0.022
-511.814	-44.007	0.113	0.057
-510.799	69.385	0.084	0.087
-509.785	-172.242	0.120	-0.004
-508.770	-200.000	0.037	-0.313
-507.756	-80.522	0.239	-0.080
-506.741	-154.679	-0.407	-0.027
-505.726	164.492	0.053	0.075
-504.712	-11.022	0.159	0.105
-503.697	175.445	-0.162	0.235
-502.683	-200.000	-0.010	-0.213
-501.668	172.000	-0.204	-0.293
-500.653	-56.880	-0.122	0.054
-499.639	34.561	-0.264	-0.230
-498.624	800.000	0.051	-0.168
-497.610	-176.633	0.150	-0.004
-496.595	11.417	-0.390	0.299
-495.581	-200.000	-0.030	0.280
-494.566	-68.365	-0.109	-0.042
-493.551	-44.328	-0.206	0.103
-492.537	-73.898	0.166	-0.060
-491.522	-87.134	-0.101	-0.031
-490.508	-195.089	0.144	0.001
-489.493	-16.626	0.227	-0.143
-488.478	362.621	0.134	0.269
-487.464	42.596	-0.180	0.164
-486.449	-142.173	0.412	0.041
-485.435	26.309	0.119	0.099
-484.420	-200.000	0.060	0.418
-483.405	-36.716	0.073	0.039
-482.391	99.378	0.262	0.303
-481.376	233.262	0.075	0.123
-480.362	58.791	-0.085	0.084
-479.347	-88.345	-0.377	-0.112
-478.332	-200.000	-0.003	-0.088
-477.318	800.000	-0.113	-0.344
-476.303	-63.523	0.215	-0.088
-475.289	304.309	-0.060	-0.111
-474.274	-119.471	-0.198	-0.034
-473.259	-200.000	0.004	-0.027
-472.245	56.223	0.387	-0.375
-471.230	800.000	0.020	-0.068
-470.216	-200.000	-0.003	0.211
-469.201	365.809	-0.093	0.187
-468.186	108.171	0.112	0.134
-467.172	800.000	-0.055	0.161
-466.157	-139.678	-0.144	0.015
-465.143	800.000	-0.043	-0.190
-464.128	-56.573	-0.334	-0.148
-463.113	-8.918	-0.140	-0.093
-462.099	-51.381	0.157	0.073
-461.084	224.291	0.116	-0.187
-460.070	57.017	0.034	0.033
-459.055	104.801	-0.185	0.217
-458.040	800.000	0.110	0.390
-457.026	-114.479	-0.184	0.035
-456.011	800.000	0.043	-0.152
-454.997	-74.814	0.203	0.073
-453.982	791.127	-0.111	-0.303
-452.968	-67.503	0.249	-0.097
-451.953	-200.000	0.030	0.297
-450.938	-200.000	0.016	-0.148
-449.924	223.052	0.074	0.119
-448.909	108.183	0.132	-0.158
-447.895	81.986	-0.218	0.235
-446.880	19.541	-0.207	0.166
-445.865	494.440	0.015	-0.035
-444.851	-200.000	-0.028	-0.214
-443.836	164.234	-0.054	-0.075
-442.822	-177.138	-0.411	0.010
-441.807	800.000	0.059	-0.214
-440.792	706.895	0.019	-0.051
-439.778	-200.000	-0.073	0.449
-438.763	-200.000	0.101	0.466
-437.749	800.000	0.051	-0.169
-436.734	-106.670	-0.365	-0.081
-435.719	416.327	0.171	0.364
-434.705	-82.662	-0.215	-0.070
-433.690	-200.000	0.027	0.300
-432.676	-89.120	-0.380	0.112
-431.661	-200.000	0.001	0.130
-430.646	133.807	0.056	-0.072
-429.632	-83.241	-0.084	-0.027
-428.617	-161.192	0.191	-0.010
-427.603	111.783	-0.171	-0.205
-426.588	-84.067	-0.368	0.117
-425.573	190.621	-0.090	0.134
-424.559	-83.750	-0.078	0.025
-423.544	-16.715	0.062	0.039
-422.530	-17.569	0.154	-0.097
-421.515	193.720	-0.173	-0.261
-420.500	800.000	-0.063	-0.226
-419.486	50.312	0.041	-0.038
-418.471	-29.133	0.200	-0.115
-417.457	800.000	-0.076	-0.267
-416.442	42.189	-0.241	-0.218
-415.428	191.498	-0.045	0.067
-414.413	276.861	-0.134	0.238
-413.398	-200.000	-0.024	-0.104
-412.384	285.948	-0.098	-0.177
-411.369	545.188	0.103	-0.245
-410.355	10.818	-0.399	-0.304
-409.340	207.911	0.303	-0.472
-408.325	328.340	0.040	0.077
-407.311	-200.000	0.011	-0.055
-406.296	-13.356	0.330	-0.213
-405.282	-200.000	0.014	-0.096
-404.267	800.000	-0.023	-0.090
-403.252	-96.158	0.399	-0.106
-402.238	-37.178	-0.281	0.150
-401.223	-54.784	-0.431	0.194
-400.209	-173.259	-0.317	-0.010
-399.194	-73.648	-0.237	-0.086
-398.179	-42.201	0.076	0.039
-397.165	-57.963	0.199	-0.087
-396.150	64.252	0.067	0.067
-395.136	-200.000	0.042	-0.194
-394.121	279.000	0.039	0.069
-393.106	102.030	-0.092	-0.107
-392.092	-158.074	0.116	-0.007
-391.077	107.724	-0.166	0.196
-390.063	800.000	0.136	-0.546
-389.048	227.717	0.054	-0.087
-388.033	322.701	-0.027	0.051
-387.019	-34.390	-0.017	-0.009
-386.004	526.539	0.095	-0.222
-384.990	800.000	0.007	-0.032
-383.975	219.090	0.170	0.270
-382.960	58.103	-0.177	0.172
-381.946	-169.938	0.204	0.007
-380.931	800.000	0.037	-0.130
-379.917	8.366	-0.287	-0.215
-378.902	-94.186	-0.274	0.075
-377.888	800.000	-0.091	0.382
-376.873	-160.217	0.477	0.026
-375.858	-43.214	-0.091	0.046
-374.844	-55.053	-0.285	0.128
-373.829	800.000	-0.077	0.251
-372.815	381.755	-0.174	0.356
-371.800	305.589	0.065	-0.120
-370.785	-45.788	-0.183	-0.090
-369.771	-131.781	-0.069	-0.009
-368.756	-151.262	0.144	0.011
-367.742	-88.506	0.065	0.019
-366.727	800.000	0.065	0.205
-365.712	84.526	0.172	-0.187
-364.698	2.164	-0.090	-0.065
-363.683	69.273	0.184	-0.188
-362.669	12.845	-0.140	0.108
-361.654	800.000	-0.096	-0.339
-360.639	-200.000	0.008	-0.103
-359.625	35.000	0.093	-0.081
-358.610	-200.000	0.058	0.280
-357.596	99.161	0.109	-0.126
-356.581	-137.150	-0.168	-0.019
-355.566	-200.000	-0.041	0.446
-354.552	-44.664	-0.237	-0.118
-353.537	-131.765	-0.111	-0.015
-352.523	-200.000	-0.091	0.554
-351.508	337.349	-0.181	0.349
-350.493	-27.851	-0.070	0.040
-349.479	117.723	0.022	0.027
-348.464	103.325	-0.209	-0.243
-347.450	359.047	-0.136	0.270
-346.435	-114.101	0.157	0.030
-345.420	43.352	0.189	-0.172
-344.406	-145.541	-0.056	-0.005
-343.391	-66.182	-0.054	-0.021
-342.377	-73.990	-0.191	0.069
-341.362	318.643	-0.041	0.078
-340.348	-48.209	0.617	0.296
-339.333	368.288	-0.037	-0.075
-338.318	800.000	-0.107	-0.398
-337.304	583.988	0.054	-0.132
-336.289	-86.696	0.105	-0.032
-335.275	-50.609	-0.149	-0.070
-334.260	79.214	-0.072	0.077
-333.245	168.310	0.073	0.104
-332.231	-200.000	0.056	0.323
-331.216	-46.716	-0.073	0.035
-330.202	-200.000	-0.055	-0.308
-329.187	296.806	0.030	-0.054
-328.172	402.220	0.080	-0.168
-327.158	-29.570	0.020	-0.011
-326.143	-87.321	0.116	0.035
-325.129	-150.475	0.210	-0.016
-324.114	15.917	0.231	0.181
-323.099	484.320	-0.054	0.123
-322.085	23.977	0.117	0.096
-321.070	800.000	0.022	-0.061
-320.056	-130.688	0.275	-0.037
-319.041	-35.720	0.279	-0.150
-318.026	-100.615	-0.282	0.069
-317.012	-200.000	-0.003	-0.186
-315.997	50.924	-0.144	0.136
-314.983	216.347	0.125	0.197
-313.968	-92.248	0.214	-0.060
-312.953	549.728	0.040	-0.096
-311.939	189.143	-0.116	-0.172
-310.924	-200.000	-0.001	-0.096
-309.910	-123.504	0.279	-0.044
-308.895	278.957	-0.086	0.152
-307.880	-153.453	-0.180	-0.012
-306.866	-28.374	0.124	0.071
-305.851	84.870	-0.152	0.165
-304.837	139.282	0.044	-0.057
-303.822	240.184	0.109	-0.180
-302.807	497.839	0.047	-0.106
-301.793	53.113	0.081	0.077
-300.778	-44.072	0.320	0.159
-299.764	148.068	-0.179	-0.240
-298.749	150.722	0.036	0.049
-297.735	163.061	-0.239	0.334
-296.720	-56.212	0.040	0.018
-295.705	127.492	0.046	-0.058
-294.691	85.293	0.080	0.088
-293.676	779.943	0.063	0.170
-292.662	-46.798	-0.069	-0.033
-291.647	800.000	-0.031	-0.093
-290.632	157.590	0.095	0.130
-289.618	243.736	-0.065	0.109
-288.603	78.542	-0.075	-0.080
-287.589	-135.640	-0.230	-0.027
-286.574	273.100	-0.129	0.226
-285.559	800.000	0.075	-0.210
-284.545	-153.473	0.414	-0.028
-283.530	800.000	-0.025	-0.093
-282.516	-34.039	0.350	-0.191
-281.501	225.174	-0.173	0.277
-280.486	-173.167	-0.142	0.004
-279.472	-147.439	0.121	0.010
-278.457	-132.901	-0.261	0.033
-277.443	20.842	0.141	0.113
-276.428	54.201	-0.146	0.140
-275.413	-71.889	0.142	0.052
-274.399	136.969	0.083	0.108
-273.384	182.402	0.031	-0.045
-272.370	-151.514	-0.272	0.020
-271.355	618.160	-0.073	0.181
-270.340	-103.554	0.356	-0.083
-269.326	-21.200	-0.211	0.128
-268.311	94.312	0.259	0.291
-267.297	-18.073	0.094	-0.058
-266.282	-16.185	-0.091	0.058
-265.267	800.000	-0.033	0.139
-264.253	-129.777	0.235	0.032
-263.238	-104.753	-0.182	0.042
-262.224	-200.000	0.023	-0.185
-261.209	-200.000	0.019	-0.124
-260.195	8.876	-0.369	0.276
-259.180	-197.544	-0.300	0.002
-258.165	46.809	0.052	0.048
-257.151	297.278	0.144	-0.261
-256.136	-200.000	0.048	0.451
-255.122	327.379	-0.090	0.171
-254.107	-167.000	0.220	0.009
-253.092	85.663	-0.193	0.210
-252.078	800.000	-0.083	-0.244
-251.063	-114.500	0.270	-0.051
-250.049	158.365	-0.171	0.235
-249.034	800.000	0.092	-0.379
-248.019	28.616	-0.218	-0.183
-247.005	170.971	0.065	-0.092
-245.990	-183.109	-0.313	0.005
-244.976	504.169	0.165	0.379
-243.961	800.000	-0.016	0.050
-242.946	-96.579	0.183	-0.048
-241.932	-200.000	0.052	0.499
-240.917	207.250	-0.113	0.175
-239.903	-192.508	0.079	-0.001
-238.888	206.864	0.062	-0.096
-237.873	800.000	-0.092	-0.306
-236.859	-200.000	-0.026	-0.257
-235.844	102.095	0.046	-0.053
-234.830	-145.702	0.244	-0.022
-233.815	69.542	0.200	0.204
-232.800	183.419	-0.119	-0.175
-231.786	17.431	-0.105	-0.083
-230.771	279.777	-0.149	-0.264
-229.757	530.694	0.051	0.118
-228.742	800.000	-0.041	-0.120
-227.727	-123.941	-0.442	0.069
-226.713	-162.352	-0.092	-0.005
-225.698	285.200	0.243	0.433
-224.684	194.910	-0.120	-0.181
-223.669	-200.000	-0.015	0.071
-222.655	186.479	-0.099	0.146
-221.640	142.916	0.099	0.130
-220.625	20.125	-0.082	0.065
-219.611	31.725	-0.220	-0.187
-218.596	-170.273	0.483	-0.017
-217.582	-101.569	-0.131	0.032
-216.567	-110.963	-0.172	0.035
-215.552	162.051	0.173	0.240
-214.538	-75.264	-0.295	-0.104
-213.523	103.841	-0.063	-0.073
-212.509	800.000	0.145	0.437
-211.494	289.222	0.122	0.218
-210.479	-11.796	0.056	-0.036
-209.465	-200.000	0.060	-0.429
-208.450	-200.000	-0.009	0.195
-207.436	-124.184	0.396	0.061
-206.421	53.455	0.126	-0.119
-205.406	409.197	0.083	0.174
-204.392	480.818	0.120	-0.270
-203.377	599.954	0.155	-0.381
-202.363	-99.062	-0.147	0.037
-201.348	-30.666	-0.243	0.136
-200.333	372.397	-0.073	0.147
-199.319	-54.309	0.162	-0.072
-198.304	-200.000	0.001	0.094
-197.290	800.000	-0.033	-0.117
-196.275	272.162	-0.160	-0.279
-195.260	-51.367	-0.111	-0.051
-194.246	-66.128	0.014	0.005
-193.231	-127.031	0.064	0.009
-192.217	-20.524	-0.132	-0.080
-191.202	-32.542	-0.248	-0.137
-190.187	800.000	0.057	0.196
-189.173	-200.000	0.183	0.000
-188.158	-118.205	-0.368	-0.065
-187.144	129.658	0.224	0.283
-186.129	38.278	0.187	-0.165
-185.114	-62.629	-0.089	-0.037
-184.100	48.204	0.160	0.148
-183.085	-200.000	0.031	-0.218
-182.071	-171.848	0.173	-0.006
-181.056	16.233	-0.251	0.195
-180.042	116.546	0.151	-0.183
-179.027	-70.923	0.234	0.087
-178.012	-118.514	0.320	0.056
-176.998	-112.219	-0.132	0.026
-175.983	-127.702	0.117	0.017
-174.969	-200.000	0.073	0.325
-173.954	722.053	0.050	0.132
-172.939	122.753	0.165	-0.204
-171.925	-167.198	-0.209	0.008
-170.910	-200.000	0.008	-0.053
-169.896	-48.502	0.278	-0.132
-168.881	161.385	0.074	-0.103
-167.866	-82.053	0.039	-0.013
-166.852	800.000	-0.069	0.200
-165.837	386.070	-0.106	0.216
-164.823	148.067	-0.129	0.172
-163.808	800.000	0.024	0.068
-162.793	287.535	-0.086	-0.154
-161.779	24.695	0.294	-0.240
-160.764	800.000	-0.017	-0.070
-159.750	366.832	-0.121	-0.242
-158.735	48.934	-0.132	-0.122
-157.720	321.017	-0.088	-0.165
-156.706	800.000	0.017	-0.061
-155.691	-80.128	-0.072	-0.024
-154.677	82.920	0.163	0.175
-153.662	13.908	-0.136	0.104
-152.647	51.787	0.215	0.202
-151.633	800.000	0.059	0.180
-150.618	-139.045	0.248	0.027
-149.604	200.578	0.120	-0.182
-148.589	-122.447	0.275	-0.044
-147.574	9.316	-0.324	0.242
-146.560	-12.795	-0.222	0.142
-145.545	800.000	0.128	0.411
-144.531	-167.893	0.409	-0.016
-143.516	380.877	0.090	0.183
-142.502	800.000	-0.035	0.100
-141.487	164.850	0.175	-0.244
-140.472	-200.000	0.009	-0.139
-139.458	-200.000	0.069	0.304
-138.443	-18.771	0.326	-0.200
-137.429	119.617	0.096	0.117
-136.414	-106.389	-0.035	0.008
-135.399	36.978	0.252	-0.220
-134.385	-200.000	-0.079	-0.374
-133.370	65.455	0.200	-0.200
-132.356	-144.924	-0.230	0.021
-131.341	538.092	0.069	-0.161
-130.326	-200.000	0.006	-0.081
-129.312	800.000	-0.070	0.204
-128.297	-200.000	0.018	-0.209
-127.283	-144.624	0.102	-0.009
-126.268	294.527	0.065	0.118
-125.253	-45.907	-0.257	0.125
-124.239	-62.583	0.258	-0.106
-123.224	800.000	-0.089	-0.257
-122.210	272.010	0.077	0.133
-121.195	800.000	0.067	-0.251
-120.180	247.888	0.038	0.064
-119.166	-11.147	0.142	0.092
-118.151	266.800	0.074	0.127
-117.137	-150.618	-0.050	0.004
-116.122	-47.485	-0.248	-0.119
-115.107	800.000	-0.059	-0.228
-114.093	-92.477	0.308	-0.085
-113.078	70.159	0.231	0.235
-112.064	-147.419	-0.126	-0.011
-111.049	17.575	0.045	0.035
-110.034	31.639	0.065	0.055
-109.020	-17.728	-0.282	-0.175
-108.005	-169.764	-0.167	-0.006
-106.991	-120.192	-0.441	0.074
-105.976	270.200	-0.153	0.264
-104.962	65.817	0.181	0.181
-103.947	800.000	0.062	0.259
-102.932	-74.679	-0.115	0.041
-101.918	-172.588	0.305	-0.009
-100.903	-181.608	0.127	0.002
-99.889	533.769	0.049	-0.115
-98.874	424.905	0.222	0.470
-97.859	-63.304	0.238	-0.097
-96.845	356.795	-0.059	0.115
-95.830	-125.966	0.382	-0.057
-94.816	15.434	-0.091	-0.071
-93.801	-200.000	-0.011	0.135
-92.786	110.845	0.156	0.185
-91.772	-43.655	0.263	-0.131
-90.757	-62.400	-0.361	0.148
-89.743	-200.000	0.024	-0.124
-88.728	78.582	-0.156	0.164
-87.713	171.784	-0.097	0.137
-86.699	-16.368	-0.303	0.189
-85.684	138.842	0.209	-0.271
-84.670	359.484	-0.208	-0.410
-83.655	255.090	0.095	-0.159
-82.640	-49.770	-0.135	0.063
-81.626	286.538	0.175	0.311
-80.611	-6.796	0.281	0.188
-79.597	-89.283	0.318	0.092
-78.582	30.792	-0.224	-0.189
-77.567	-143.129	-0.200	-0.019
-76.553	-200.000	-0.045	-0.292
-75.538	-200.000	-0.033	-0.182
-74.524	-46.328	-0.119	-0.058
-73.509	-200.000	0.008	-0.254
-72.494	-155.779	0.562	0.035
-71.480	296.811	0.088	0.159
-70.465	-70.829	-0.083	-0.031
-69.451	800.000	-0.035	-0.116
-68.436	-159.643	-0.029	-0.002
-67.422	-160.433	-0.371	0.020
-66.407	59.092	0.008	-0.008
-65.392	13.346	0.205	-0.156
-64.378	-86.668	-0.159	-0.048
-63.363	-200.000	-0.002	-0.071
-62.349	239.566	-0.081	0.133
-61.334	33.393	-1.278	-1.091
-60.319	17.190	0.657	0.512
-59.305	-200.000	-0.201	-1.036
-58.290	459.926	0.490	1.073
-57.276	348.749	0.797	1.546
-56.261	-200.000	116.270	640.637
-55.246	481.908	1547.420	3454.750
-54.232	170.448	2729.903	3841.865
-53.217	94.740	2337.450	2613.034
-52.203	32.956	2080.506	1771.415
-51.188	28.248	1995.767	1656.709
-50.173	26.844	1978.514	1629.718
-49.159	43.635	2039.961	1834.232
-48.144	42.625	2054.295	1837.817
-47.130	28.522	2012.686	1672.993
-46.115	26.407	2002.440	1645.189
-45.100	26.339	1998.976	1641.661
-44.086	26.339	1996.509	1639.569
-43.071	26.310	1993.751	1636.977
-42.057	26.298	1991.732	1635.145
-41.042	26.334	1990.070	1634.043
-40.027	26.332	1988.102	1632.342
-39.013	26.377	1986.080	1631.020
-37.998	26.323	1984.462	1629.143
-36.984	26.411	1982.753	1628.466
-35.969	26.261	1980.801	1625.451
-34.954	26.304	1979.272	1624.515
-33.940	26.301	1977.805	1623.221
-32.925	26.400	1976.058	1622.607
-31.911	26.429	1974.269	1621.338
-30.896	26.405	1972.199	1619.359
-29.881	26.450	1970.832	1618.570
-28.867	26.469	1969.886	1617.899
-27.852	26.479	1967.767	1616.187
-26.838	26.463	1966.337	1614.806
-25.823	26.430	1963.757	1612.330
-24.809	26.407	1962.291	1610.854
-23.794	26.407	1960.338	1609.191
-22.779	26.420	1958.534	1607.762
-21.765	26.369	1957.646	1606.518
-20.750	26.436	1955.241	1605.073
-19.736	26.414	1953.970	1603.772
-18.721	26.458	1952.671	1603.028
-17.706	26.505	1950.474	1601.580
-16.692	26.438	1948.782	1599.535
-15.677	26.402	1947.200	1597.857
-14.663	26.396	1946.140	1596.864
-13.648	26.361	1945.160	1595.694
-12.633	26.433	1943.409	1594.827
-11.619	26.435	1941.738	1593.411
-10.604	26.439	1940.560	1592.416
-9.590	26.481	1939.118	1591.538
-8.575	26.443	1937.936	1590.171
-7.560	26.394	1937.060	1588.958
-6.546	26.426	1935.517	1587.910
-5.531	26.479	1933.885	1586.969
-4.517	26.505	1932.894	1586.320
-3.502	26.356	1932.259	1584.436
-2.487	26.442	1930.625	1583.785
-1.473	26.486	1929.296	1583.019
-0.458	26.476	1924.685	1579.079
0.556	27.231	1903.947	1549.460
1.571	22.741	1884.795	1495.765
2.586	18.619	1908.079	1478.661
3.600	17.569	1943.721	1496.918
4.615	17.039	1936.416	1486.522
5.629	13.090	1835.236	1375.879
6.644	6.461	1722.726	1239.415
7.659	3.584	1690.582	1193.946
8.673	3.457	1687.144	1190.439
9.688	3.363	1686.039	1188.826
10.702	3.398	1684.715	1188.057
11.717	3.432	1681.104	1185.664
12.731	3.842	1679.962	1187.909
13.746	8.373	1690.158	1229.971
14.761	15.683	1706.900	1298.704
15.775	19.796	1713.897	1335.748
16.790	20.184	1713.774	1338.528
17.804	19.317	1710.441	1329.123
18.819	18.348	1707.174	1319.011
19.834	17.714	1705.036	1312.360
20.848	17.476	1703.230	1309.024
21.863	17.404	1702.132	1307.508
22.877	17.079	1700.957	1303.999
23.892	16.899	1699.491	1301.378
24.907	16.813	1698.469	1299.821
25.921	16.844	1697.303	1299.052
26.936	16.817	1695.983	1297.715
27.950	16.913	1695.172	1297.717
28.965	16.880	1695.102	1297.291
29.980	16.884	1694.236	1296.548
30.994	16.992	1693.159	1296.434
32.009	17.208	1691.903	1297.006
33.023	17.218	1691.212	1296.440
34.038	17.241	1689.933	1295.517
35.053	17.155	1688.650	1293.767
36.067	17.068	1687.387	1292.022
37.082	17.045	1686.321	1290.918
38.096	17.034	1685.008	1289.716
39.111	17.099	1684.724	1289.876
40.126	17.141	1684.130	1289.626
41.140	17.114	1682.885	1288.356
42.155	16.874	1681.877	1285.645
43.169	16.781	1679.725	1283.186
44.184	16.667	1679.136	1281.755
45.199	16.714	1677.263	1280.572
46.213	16.698	1676.219	1279.535
47.228	16.748	1674.964	1278.842
48.242	16.771	1674.190	1278.317
49.257	16.983	1673.031	1278.914
50.271	17.023	1671.523	1277.952
51.286	16.961	1670.293	1276.432
52.301	16.975	1668.865	1275.333
53.315	17.040	1667.556	1274.704
54.330	16.890	1666.095	1272.354
55.344	16.774	1664.860	1270.424
56.359	16.710	1663.315	1268.653
57.374	16.769	1662.006	1267.989
58.388	16.781	1660.757	1267.010
59.403	16.723	1658.856	1265.013
60.417	16.690	1658.024	1264.019
61.432	16.738	1656.993	1263.484
62.447	16.599	1656.176	1261.712
63.461	16.568	1654.744	1260.278
64.476	16.539	1653.945	1259.337
65.490	16.554	1652.056	1257.901
66.505	16.483	1651.489	1256.835
67.520	16.570	1650.008	1256.238
68.534	16.555	1649.039	1255.277
69.549	16.559	1648.107	1254.490
70.563	16.599	1646.579	1253.510
71.578	16.570	1645.536	1252.389
72.593	16.462	1644.814	1250.935
73.607	16.527	1643.492	1250.297
74.622	16.468	1642.259	1248.809
75.636	16.445	1641.479	1247.938
76.651	16.425	1640.646	1247.051
77.666	16.389	1640.226	1246.350
78.680	16.518	1638.799	1246.106
79.695	16.548	1637.764	1245.431
80.709	16.595	1636.975	1245.065
81.724	16.562	1636.698	1244.500
82.739	16.672	1635.788	1244.513
83.753	16.684	1635.263	1244.092
84.768	16.790	1634.013	1243.810
85.782	16.871	1633.550	1243.936
86.797	16.956	1632.813	1243.889
87.812	16.995	1631.838	1243.322
88.826	17.016	1630.171	1242.096
89.841	16.959	1629.266	1240.878
90.855	17.067	1628.163	1240.722
91.870	17.004	1627.080	1239.323
92.884	17.028	1626.569	1239.004
93.899	17.080	1625.193	1238.226
94.914	17.117	1623.950	1237.436
95.928	17.160	1622.516	1236.545
96.943	17.166	1621.251	1235.516
97.957	17.152	1619.727	1234.141
98.972	17.129	1618.102	1232.634
99.987	17.097	1616.564	1231.114
101.001	17.049	1614.978	1229.456
102.016	16.984	1613.754	1227.940
103.030	17.007	1612.482	1227.028
104.045	17.058	1611.135	1226.268
105.060	17.096	1609.789	1225.408
106.074	16.950	1608.564	1223.314
107.089	16.849	1607.051	1221.331
108.103	16.625	1605.040	1218.082
109.118	16.636	1603.405	1216.812
110.133	16.535	1602.307	1215.140
111.147	16.564	1600.723	1214.041
112.162	16.521	1599.399	1212.625
113.176	16.655	1598.391	1212.710
114.191	16.651	1596.768	1211.341
115.206	16.708	1595.524	1210.703
116.220	16.746	1594.263	1209.909
117.235	16.679	1593.261	1208.565
118.249	16.602	1591.805	1206.799
119.264	16.674	1590.120	1205.934
120.279	16.591	1589.061	1204.433
121.293	16.512	1587.488	1202.570
122.308	16.537	1585.993	1201.505
123.322	16.484	1584.367	1199.793
124.337	16.455	1582.481	1198.051
125.352	16.481	1580.953	1196.975
126.366	16.428	1580.261	1195.972
127.381	16.528	1579.020	1195.633
128.395	16.401	1578.245	1194.042
129.410	16.404	1576.804	1192.870
130.424	16.565	1575.079	1192.593
131.439	16.613	1573.778	1191.840
132.454	16.484	1573.142	1190.341
133.468	16.686	1571.104	1190.116
134.483	16.692	1570.017	1189.229
135.497	16.639	1568.724	1187.771
136.512	16.715	1567.408	1187.204
137.527	16.617	1566.317	1185.590
138.541	16.670	1564.995	1184.855
139.556	16.753	1563.254	1184.011
140.570	16.848	1561.717	1183.402
141.585	16.914	1561.095	1183.289
142.600	16.925	1559.794	1182.273
143.614	17.004	1558.746	1181.930
144.629	17.085	1557.702	1181.596
145.643	17.171	1556.493	1181.168
146.658	17.210	1554.903	1180.131
147.673	17.126	1553.201	1178.150
148.687	17.013	1551.896	1176.276
149.702	16.970	1549.942	1174.389
150.716	16.825	1548.874	1172.476
151.731	16.819	1547.732	1171.466
152.746	16.874	1545.949	1170.389
153.760	16.893	1544.672	1169.451
154.775	16.894	1543.773	1168.673
155.789	16.966	1542.134	1167.825
156.804	17.015	1541.070	1167.253
157.819	16.940	1540.256	1166.019
158.833	17.071	1538.959	1165.835
159.848	17.124	1538.079	1165.425
160.862	17.246	1536.626	1165.062
161.877	17.325	1535.546	1164.677
162.892	17.057	1534.669	1162.078
163.906	16.978	1532.996	1160.169
164.921	16.916	1531.591	1158.579
165.935	16.867	1530.339	1157.194
166.950	16.952	1529.439	1156.991
167.964	17.062	1527.880	1156.461
168.979	16.979	1527.546	1155.535
169.994	17.087	1526.035	1155.026
171.008	17.043	1524.982	1153.828
172.023	17.098	1523.680	1153.118
173.037	17.077	1522.326	1151.849
174.052	17.162	1521.629	1151.792
175.067	17.206	1520.896	1151.433
176.081	17.095	1519.780	1149.738
177.096	16.943	1518.207	1147.417
178.110	16.918	1516.820	1146.098
179.125	16.990	1515.774	1145.691
180.140	17.090	1514.536	1145.330
181.154	17.012	1513.466	1143.890
182.169	17.025	1512.430	1143.096
183.183	17.158	1511.373	1143.089
184.198	17.234	1510.411	1142.774
185.213	17.307	1509.289	1142.315
186.227	17.316	1508.106	1141.382
187.242	17.423	1507.058	1141.205
188.256	17.386	1506.144	1140.164
189.271	17.396	1505.182	1139.399
190.286	17.497	1504.202	1139.235
191.300	17.433	1503.177	1137.930
192.315	17.213	1501.322	1134.953
193.329	16.966	1500.293	1132.423
194.344	16.985	1498.906	1131.408
195.359	17.014	1498.292	1131.032
196.373	17.020	1497.191	1130.141
197.388	17.176	1496.096	1130.256
198.402	17.264	1495.052	1129.954
199.417	17.355	1494.183	1129.801
200.432	17.503	1493.267	1129.989
201.446	17.577	1492.433	1129.750
202.461	17.627	1491.086	1128.960
203.475	17.722	1490.021	1128.684
204.490	17.698	1489.031	1127.678
205.504	17.612	1488.096	1126.300
206.519	17.481	1486.457	1124.095
207.534	17.537	1485.393	1123.557
208.548	17.529	1483.980	1122.336
209.563	17.391	1483.267	1120.791
210.577	17.394	1482.625	1120.224
211.592	17.488	1481.500	1119.892
212.607	17.526	1481.286	1119.883
213.621	17.748	1480.370	1120.553
214.636	17.720	1479.047	1119.266
215.650	17.670	1478.011	1118.058
216.665	17.565	1477.694	1117.030
217.680	17.703	1476.082	1116.618
218.694	17.746	1475.488	1116.352
219.709	17.870	1474.343	1116.192
220.723	17.813	1473.829	1115.336
221.738	17.850	1472.432	1114.417
222.753	17.885	1471.357	1113.735
223.767	17.856	1470.681	1112.936
224.782	17.793	1470.035	1111.938
225.796	17.773	1469.173	1111.055
226.811	18.024	1468.051	1111.746
227.826	17.976	1467.311	1110.774
228.840	17.846	1466.460	1109.184
229.855	17.787	1465.429	1107.928
230.869	17.842	1464.655	1107.601
231.884	17.764	1463.538	1106.153
232.899	17.747	1462.326	1105.023
233.913	17.669	1461.180	1103.558
234.928	17.713	1459.720	1102.644
235.942	17.699	1458.208	1101.312
236.957	17.553	1457.429	1099.685
237.972	17.564	1456.203	1098.732
238.986	17.625	1454.669	1097.870
240.001	17.752	1453.776	1097.919
241.015	17.674	1452.981	1096.717
242.030	17.672	1452.066	1095.915
243.045	17.818	1450.787	1095.790
244.059	17.874	1450.112	1095.546
245.074	17.839	1449.456	1094.731
246.088	17.801	1448.904	1093.969
247.103	18.011	1447.895	1094.455
248.117	18.056	1446.956	1093.937
249.132	18.038	1446.782	1093.594
250.147	18.211	1445.768	1093.838
251.161	18.387	1445.093	1094.352
252.176	18.446	1444.542	1094.218
253.190	18.432	1444.370	1093.899
254.205	18.487	1442.995	1093.115
255.220	18.468	1442.484	1092.511
256.234	18.544	1441.640	1092.260
257.249	18.608	1440.730	1091.876
258.263	18.627	1439.926	1091.291
259.278	18.636	1438.563	1090.221
260.293	18.660	1437.239	1089.276
261.307	18.570	1436.834	1088.298
262.322	18.601	1436.432	1088.096
263.336	18.639	1435.578	1087.595
264.351	18.664	1434.464	1086.813
265.366	18.680	1433.440	1086.039
266.380	18.807	1432.717	1086.198
267.395	18.763	1431.454	1084.869
268.409	18.751	1430.372	1083.875
269.424	18.683	1429.878	1082.974
270.439	18.553	1428.567	1081.068
271.453	18.607	1427.801	1080.732
272.468	18.622	1426.496	1079.747
273.482	18.515	1425.836	1078.478
274.497	18.620	1424.776	1078.238
275.512	18.479	1424.315	1076.906
276.526	18.569	1423.055	1076.429
277.541	18.477	1422.408	1075.266
278.555	18.675	1421.082	1075.409
279.570	18.567	1420.691	1074.337
280.585	18.621	1419.341	1073.565
281.599	18.762	1418.678	1073.845
282.614	18.878	1417.877	1073.868
283.628	18.753	1416.834	1072.205
284.643	18.635	1415.567	1070.416
285.657	18.639	1414.359	1069.429
286.672	18.626	1413.605	1068.685
287.687	18.827	1412.245	1068.812
288.701	18.732	1411.695	1067.713
289.716	18.739	1411.018	1067.150
290.730	18.725	1410.250	1066.390
291.745	18.708	1409.122	1065.332
292.760	18.766	1408.000	1064.753
293.774	18.861	1407.238	1064.673
294.789	18.773	1406.201	1063.250
295.803	18.924	1405.345	1063.437
296.818	18.989	1404.630	1063.206
297.833	18.858	1403.971	1061.803
298.847	18.846	1402.785	1060.739
299.862	18.913	1401.221	1059.872
300.876	18.831	1400.382	1058.643
301.891	18.859	1399.611	1058.136
302.906	18.956	1398.431	1057.748
303.920	19.088	1398.541	1058.550
304.935	19.050	1397.760	1057.632
305.949	19.221	1396.463	1057.604
306.964	19.247	1395.998	1057.322
307.979	19.284	1395.083	1056.758
308.993	19.182	1393.965	1055.193
310.008	19.176	1392.982	1054.324
311.022	19.229	1391.726	1053.603
312.037	19.178	1390.974	1052.629
313.052	19.296	1389.877	1052.423
314.066	19.230	1388.883	1051.173
315.081	19.132	1388.203	1049.969
316.095	19.043	1386.697	1048.195
317.110	18.988	1385.232	1046.661
318.125	18.917	1384.630	1045.685
319.139	18.896	1383.895	1044.908
320.154	18.995	1382.493	1044.355
321.168	19.000	1381.576	1043.605
322.183	19.098	1380.635	1043.391
323.197	19.043	1379.618	1042.202
324.212	19.149	1379.000	1042.284
325.227	19.116	1377.923	1041.177
326.241	19.131	1377.588	1040.922
327.256	19.269	1376.283	1040.678
328.270	19.224	1375.384	1039.634
329.285	19.098	1374.820	1038.354
330.300	19.013	1373.792	1036.974
331.314	19.169	1372.566	1036.900
332.329	19.096	1371.564	1035.610
333.343	19.147	1371.003	1035.399
334.358	19.282	1369.929	1035.311
335.373	19.391	1368.856	1035.057
336.387	19.277	1368.900	1034.320
337.402	19.372	1368.084	1034.177
338.416	19.389	1367.183	1033.509
339.431	19.426	1366.690	1033.267
340.446	19.468	1366.267	1033.109
341.460	19.494	1365.472	1032.568
342.475	19.611	1364.168	1032.192
343.489	19.804	1363.229	1032.541
344.504	19.737	1362.306	1031.349
345.519	19.789	1361.360	1030.854
346.533	19.735	1360.806	1030.020
347.548	19.742	1359.571	1029.040
348.562	19.882	1358.886	1029.263
349.577	19.856	1358.197	1028.492
350.592	19.844	1357.272	1027.631
351.606	19.734	1355.928	1025.871
352.621	19.612	1354.835	1024.226
353.635	19.547	1353.707	1022.900
354.650	19.593	1352.496	1022.166
355.665	19.530	1351.830	1021.202
356.679	19.596	1350.805	1020.727
357.694	19.447	1350.343	1019.406
358.708	19.663	1349.003	1019.577
359.723	19.780	1347.498	1019.038
360.738	19.698	1347.291	1018.312
361.752	19.666	1345.982	1017.044
362.767	19.714	1344.733	1016.291
363.781	19.710	1344.237	1015.801
364.796	19.771	1342.991	1015.130
365.810	19.874	1342.435	1015.224
366.825	19.864	1341.980	1014.732
367.840	20.052	1341.098	1015.079
368.854	20.112	1340.460	1014.857
369.869	20.133	1340.054	1014.581
370.883	20.086	1339.699	1013.946
371.898	20.172	1338.621	1013.542
372.913	20.114	1337.559	1012.314
373.927	20.042	1336.510	1011.009
374.942	20.128	1335.670	1010.782
375.956	20.079	1335.066	1009.956
376.971	20.097	1334.615	1009.627
377.986	20.051	1333.567	1008.477
379.000	20.147	1332.612	1008.223
380.015	20.174	1332.304	1008.060
381.029	20.291	1331.155	1007.782
382.044	20.345	1330.441	1007.464
383.059	20.338	1329.935	1006.953
384.073	20.329	1329.203	1006.257
385.088	20.314	1328.390	1005.462
386.102	20.343	1327.914	1005.182
387.117	20.411	1327.124	1004.888
388.132	20.383	1326.254	1003.978
389.146	20.158	1325.065	1001.693
390.161	20.128	1324.449	1000.962
391.175	20.174	1323.696	1000.573
392.190	20.171	1322.665	999.686
393.205	20.284	1321.774	999.572
394.219	20.340	1321.317	999.464
395.234	20.324	1320.145	998.394
396.248	20.269	1318.378	996.656
397.263	20.171	1317.306	995.195
398.278	20.144	1315.962	993.936
399.292	20.196	1314.652	993.158
400.307	20.182	1313.196	991.888
401.321	20.104	1312.382	990.739
402.336	20.136	1311.305	990.021
403.350	20.123	1310.122	988.967
404.365	20.085	1309.465	988.165
405.380	20.255	1308.306	988.174
406.394	20.186	1307.980	987.447
407.409	20.297	1307.139	987.357
408.423	20.418	1306.168	987.225
409.438	20.420	1305.909	986.949
410.453	20.493	1305.167	986.720
411.467	20.572	1304.372	986.477
412.482	20.595	1304.079	986.300
413.496	20.772	1303.286	986.618
414.511	20.754	1302.318	985.696
415.526	20.739	1302.049	985.318
416.540	20.795	1301.293	984.974
417.555	20.834	1300.675	984.639
418.569	20.854	1299.939	984.108
419.584	20.768	1299.581	983.265
420.599	20.762	1298.892	982.626
421.613	145.556	1435.987	1796.647
422.628	140.782	1455.918	1796.698
