DTS Sentinel unit serial number:	SN413079Multiplexer serial number:	ORYXHardware model number:	OX4-SRSoftware version number:	ORYX F/W v4.00 Oryx Data Collector v3.7.2.0data status	okinstallation	princeton_trtdifferential loss correction	single-endedforward channel	channel 4reverse channel	N/Adate	2019/09/19time	09:25:34forward acquisition time	60.00reverse acquisition time	0.00gamma	496.2192k internal	0.2336k external	0.2336temperature offset calibration	1.0009default loss term (dB/km)	0.3790temperature slope calibration	1.0000multiplexer offset coefficient	1.0000multiplexer slope coefficient	1.0000fibre end	0.00T internal ref (°C)	22.61T ext. ref 1 (°C)	0.62T ext. ref 2 (°C)	19.39length (m)	temperature (°C)	Stokes	anti-Stokes-747.200	348.836	-0.203	0.402
-746.185	800.000	-0.072	0.249
-745.171	146.401	-0.100	0.135
-744.156	94.397	0.054	0.061
-743.142	-28.336	-0.363	-0.210
-742.127	95.941	0.125	0.144
-741.112	800.000	-0.066	0.286
-740.098	800.000	-0.051	0.142
-739.083	-119.249	-0.266	-0.047
-738.069	-42.836	-0.294	0.150
-737.054	4.855	0.182	-0.134
-736.039	160.544	-0.402	-0.563
-735.025	800.000	0.047	0.132
-734.010	-200.000	-0.021	0.357
-732.996	-200.000	-0.017	-0.422
-731.981	-24.499	0.222	-0.133
-730.966	34.589	0.132	0.116
-729.952	-86.835	-0.463	-0.142
-728.937	159.425	-0.104	0.145
-727.923	-200.000	-0.006	-0.249
-726.908	81.307	0.153	-0.166
-725.894	-42.639	-0.207	-0.106
-724.879	-200.000	-0.027	0.154
-723.864	539.003	-0.146	-0.348
-722.850	26.954	-0.205	0.172
-721.835	73.339	-0.108	0.114
-720.821	-78.352	0.218	-0.075
-719.806	-200.000	-0.015	-0.173
-718.791	-78.170	-0.052	0.018
-717.777	170.880	0.099	-0.142
-716.762	-83.074	-0.181	-0.059
-715.748	127.199	0.140	-0.178
-714.733	40.316	-0.031	-0.028
-713.718	-200.000	0.028	-0.148
-712.704	-62.466	0.157	-0.065
-711.689	646.679	-0.134	-0.343
-710.675	-200.000	-0.010	0.180
-709.660	-43.967	0.088	-0.045
-708.645	-200.000	0.030	-0.259
-707.631	-90.379	0.208	0.060
-706.616	-59.665	0.102	0.044
-705.602	-200.000	-0.046	-0.358
-704.587	800.000	0.065	0.222
-703.572	49.752	-0.029	0.027
-702.558	-10.658	0.033	0.022
-701.543	177.899	-0.075	-0.110
-700.529	-200.000	0.047	-0.303
-699.514	800.000	-0.092	-0.365
-698.499	-53.996	0.159	-0.073
-697.485	-94.325	-0.327	-0.090
-696.470	800.000	0.093	-0.390
-695.456	-129.748	-0.232	-0.032
-694.441	-63.731	-0.409	-0.168
-693.426	-200.000	-0.025	-0.238
-692.412	-200.000	0.056	-0.252
-691.397	800.000	-0.005	0.019
-690.383	226.677	0.145	-0.237
-689.368	109.862	-0.125	-0.150
-688.354	-3.396	-0.194	0.135
-687.339	69.382	0.217	-0.224
-686.324	181.811	-0.087	0.128
-685.310	-200.000	-0.067	-0.437
-684.295	-136.787	-0.120	-0.014
-683.281	55.332	-0.113	0.110
-682.266	319.012	-0.056	0.106
-681.251	41.194	0.174	0.157
-680.237	58.534	-0.107	0.106
-679.222	336.482	-0.043	0.084
-678.208	-152.861	0.344	0.024
-677.193	558.486	0.113	-0.274
-676.178	117.763	0.133	-0.164
-675.164	103.941	0.082	-0.096
-674.149	-58.698	0.173	0.075
-673.135	-184.399	0.211	-0.003
-672.120	-80.903	-0.350	0.116
-671.105	22.550	-0.106	-0.087
-670.091	235.541	0.129	-0.213
-669.076	-200.000	-0.001	0.186
-668.062	151.400	-0.135	0.184
-667.047	-65.620	-0.089	-0.036
-666.032	588.549	-0.054	-0.134
-665.018	321.371	0.112	-0.214
-664.003	23.520	-0.183	-0.150
-662.989	-157.174	-0.216	0.013
-661.974	36.518	0.183	-0.161
-660.959	32.601	0.260	-0.225
-659.945	-200.000	-0.024	-0.168
-658.930	288.981	0.175	-0.318
-657.916	-138.896	0.065	0.007
-656.901	64.180	-0.254	0.255
-655.886	86.326	0.226	0.249
-654.872	-200.000	0.051	-0.223
-653.857	-199.976	-0.248	-0.001
-652.843	-90.974	-0.236	0.068
-651.828	-137.693	0.112	0.013
-650.814	244.644	0.178	0.299
-649.799	-200.000	0.030	0.511
-648.784	-29.300	-0.137	0.079
-647.770	416.916	0.070	-0.149
-646.755	-200.000	0.016	-0.090
-645.741	62.073	0.146	0.146
-644.726	-88.236	-0.436	0.131
-643.711	-13.328	-0.162	0.105
-642.697	179.069	0.162	-0.237
-641.682	-77.641	-0.057	-0.020
-640.668	213.400	-0.222	-0.351
-639.653	-154.734	-0.169	0.011
-638.638	77.629	0.093	-0.099
-637.624	-64.163	0.081	-0.033
-636.609	61.934	0.229	-0.228
-635.595	-200.000	0.089	-0.588
-634.580	-51.974	0.158	0.073
-633.565	69.785	-0.113	-0.116
-632.551	-7.953	-0.083	-0.056
-631.536	-58.716	0.242	0.105
-630.522	-49.555	-0.152	0.072
-629.507	-200.000	-0.012	0.091
-628.492	36.693	0.152	-0.135
-627.478	34.383	-0.212	0.185
-626.463	-156.609	0.143	0.009
-625.449	44.214	-0.056	0.051
-624.434	-144.401	0.131	0.012
-623.419	18.109	-0.355	0.283
-622.405	800.000	0.074	0.206
-621.390	-200.000	0.000	-0.122
-620.376	-72.688	-0.165	-0.061
-619.361	-125.057	-0.095	0.015
-618.346	-36.535	0.100	-0.054
-617.332	-55.774	0.194	-0.086
-616.317	-9.126	0.045	-0.030
-615.303	-200.000	0.004	-0.018
-614.288	-55.135	0.113	-0.051
-613.273	187.662	0.220	-0.329
-612.259	55.334	0.085	-0.082
-611.244	210.745	-0.074	0.116
-610.230	29.775	-0.116	-0.099
-609.215	655.250	-0.048	-0.124
-608.201	-108.898	-0.095	-0.020
-607.186	-101.988	0.130	0.031
-606.171	13.637	-0.017	0.013
-605.157	-200.000	0.025	0.224
-604.142	-24.444	0.262	-0.156
-603.128	-200.000	-0.074	-0.457
-602.113	-200.000	-0.007	0.257
-601.098	794.028	-0.030	-0.081
-600.084	-200.000	-0.005	-0.134
-599.069	56.461	0.233	-0.227
-598.055	406.971	-0.077	-0.162
-597.040	76.441	0.276	-0.292
-596.025	110.585	-0.133	-0.160
-595.011	-67.750	0.040	0.016
-593.996	35.071	0.142	0.124
-592.982	-9.644	0.121	0.081
-591.967	-200.000	-0.005	-0.277
-590.952	-52.199	-0.263	0.122
-589.938	800.000	0.065	-0.183
-588.923	200.122	-0.043	0.065
-587.909	-200.000	0.020	0.240
-586.894	273.019	0.102	-0.180
-585.879	-200.000	0.094	-0.418
-584.865	137.723	-0.128	0.167
-583.850	395.850	0.127	0.264
-582.836	178.663	0.243	0.355
-581.821	800.000	-0.072	0.205
-580.806	-200.000	0.064	0.281
-579.792	-200.000	0.042	-0.408
-578.777	209.230	-0.117	0.182
-577.763	48.583	0.099	-0.092
-576.748	273.092	-0.106	-0.186
-575.733	800.000	0.052	0.171
-574.719	800.000	-0.074	0.240
-573.704	800.000	0.068	0.227
-572.690	221.917	-0.241	-0.387
-571.675	120.055	-0.032	0.040
-570.661	-31.068	-0.092	0.052
-569.646	-20.716	-0.077	0.047
-568.631	-200.000	0.004	-0.154
-567.617	222.392	-0.158	0.253
-566.602	395.748	0.035	-0.073
-565.588	56.448	0.094	-0.091
-564.573	165.335	-0.171	0.241
-563.558	-140.237	0.296	-0.031
-562.544	23.828	-0.271	-0.222
-561.529	29.236	-0.189	-0.160
-560.515	800.000	-0.059	-0.198
-559.500	-200.000	-0.045	0.261
-558.485	243.525	0.127	0.212
-557.471	294.746	0.109	0.199
-556.456	52.495	-0.238	-0.226
-555.442	-26.403	-0.131	-0.076
-554.427	-42.744	-0.253	0.128
-553.412	-200.000	0.089	-0.400
-552.398	13.605	0.279	-0.216
-551.383	800.000	-0.057	-0.157
-550.369	-200.000	-0.012	0.171
-549.354	-120.380	0.106	0.018
-548.339	193.683	0.073	-0.110
-547.325	349.013	0.058	-0.113
-546.310	11.127	-0.235	-0.179
-545.296	-150.661	0.183	0.014
-544.281	800.000	-0.039	0.166
-543.266	-98.219	0.228	-0.058
-542.252	70.443	-0.180	-0.186
-541.237	-64.328	0.248	-0.101
-540.223	48.696	0.110	-0.103
-539.208	-200.000	-0.029	0.206
-538.193	255.650	-0.041	0.069
-537.179	426.847	0.086	-0.185
-536.164	-91.069	-0.157	0.045
-535.150	18.560	0.089	0.071
-534.135	800.000	0.051	-0.140
-533.121	91.415	0.106	0.119
-532.106	69.266	-0.254	0.260
-531.091	-27.125	-0.107	-0.062
-530.077	314.981	-0.060	0.113
-529.062	79.437	0.307	0.328
-528.048	-132.886	0.142	0.018
-527.033	95.960	-0.168	-0.191
-526.018	-57.727	-0.138	-0.060
-525.004	466.476	0.080	0.179
-523.989	131.690	0.090	-0.116
-522.975	-45.826	-0.088	-0.043
-521.960	800.000	-0.057	0.162
-520.945	-200.000	0.058	-0.273
-519.931	483.744	0.177	-0.400
-518.916	-200.000	-0.017	-0.167
-517.902	-200.000	-0.064	0.301
-516.887	-161.770	0.055	0.003
-515.872	-30.007	0.182	0.103
-514.858	122.853	-0.141	-0.175
-513.843	-40.879	-0.133	-0.069
-512.829	138.957	-0.079	0.103
-511.814	403.855	0.017	-0.036
-510.799	248.591	0.098	0.165
-509.785	244.855	0.106	-0.178
-508.770	178.606	0.181	0.263
-507.756	194.569	-0.058	-0.088
-506.741	-107.013	-0.217	-0.048
-505.726	-60.473	-0.200	0.085
-504.712	57.720	0.136	0.132
-503.697	133.598	0.070	-0.090
-502.683	800.000	0.087	0.295
-501.668	-110.169	0.261	0.054
-500.653	-5.280	-0.223	0.152
-499.639	-200.000	-0.028	-0.173
-498.624	-7.956	0.042	-0.028
-497.610	54.372	0.128	0.123
-496.595	-200.000	0.001	-0.012
-495.581	-74.168	-0.039	0.014
-494.566	785.551	0.107	-0.291
-493.551	88.405	-0.215	-0.237
-492.537	-16.989	-0.218	-0.137
-491.522	-200.000	0.030	-0.390
-490.508	-27.300	-0.423	0.245
-489.493	602.737	0.132	0.325
-488.478	-200.000	-0.040	0.205
-487.464	75.865	0.204	-0.214
-486.449	800.000	0.015	-0.064
-485.435	544.675	0.188	-0.446
-484.420	193.359	0.035	0.052
-483.405	53.087	0.262	0.249
-482.391	-50.284	0.180	0.085
-481.376	-200.000	0.004	-0.121
-480.362	4.197	0.442	-0.321
-479.347	800.000	0.079	0.221
-478.332	-182.009	-0.097	-0.002
-477.318	91.911	0.162	0.181
-476.303	-55.328	0.223	-0.100
-475.289	-55.186	-0.264	0.118
-474.274	-200.000	0.034	0.242
-473.259	20.972	-0.152	0.122
-472.245	217.385	-0.121	-0.191
-471.230	-33.787	-0.224	-0.122
-470.216	-74.033	-0.119	-0.043
-469.201	-136.110	0.160	0.019
-468.186	800.000	0.023	0.071
-467.172	-123.677	-0.290	-0.046
-466.157	182.648	-0.206	-0.302
-465.143	-200.000	0.002	-0.175
-464.128	-200.000	-0.011	0.093
-463.113	800.000	-0.083	0.258
-462.099	-200.000	-0.006	-0.092
-461.084	-200.000	0.056	-0.269
-460.070	9.685	-0.091	-0.069
-459.055	-200.000	0.043	0.245
-458.040	-200.000	0.003	0.111
-457.026	200.708	-0.210	-0.321
-456.011	800.000	-0.079	-0.322
-454.997	800.000	0.014	-0.057
-453.982	800.000	-0.035	-0.139
-452.968	70.191	0.107	-0.109
-451.953	-62.245	0.128	-0.053
-450.938	800.000	-0.034	0.122
-449.924	111.898	0.133	0.159
-448.909	-88.903	-0.212	0.063
-447.895	253.798	-0.062	0.106
-446.880	800.000	-0.033	-0.115
-445.865	800.000	0.044	-0.131
-444.851	133.397	0.179	0.229
-443.836	-17.340	-0.085	-0.053
-442.822	-140.239	-0.228	0.024
-441.807	79.020	0.132	-0.140
-440.792	-50.406	-0.273	0.128
-439.778	-200.000	-0.003	0.087
-438.763	-51.158	0.014	-0.006
-437.749	634.414	0.114	0.287
-436.734	-151.865	0.070	-0.005
-435.719	164.283	0.107	0.150
-434.705	61.900	-0.240	-0.237
-433.690	59.910	-0.086	0.084
-432.676	800.000	0.087	0.286
-431.661	-189.297	0.098	0.001
-430.646	45.134	-0.313	0.286
-429.632	-200.000	-0.011	0.444
-428.617	248.772	0.116	-0.195
-427.603	-134.627	0.246	0.030
-426.588	-26.374	-0.099	-0.058
-425.573	144.233	-0.092	0.122
-424.559	-68.714	-0.036	-0.014
-423.544	-167.281	0.103	0.004
-422.530	800.000	0.025	-0.102
-421.515	-144.239	-0.256	0.024
-420.500	96.200	-0.059	-0.067
-419.486	-71.850	-0.251	0.093
-418.471	49.276	0.080	0.074
-417.457	-200.000	-0.050	0.470
-416.442	303.460	0.028	-0.052
-415.428	589.861	0.139	-0.340
-414.413	8.440	0.087	-0.065
-413.398	327.882	0.117	-0.222
-412.384	11.652	-0.155	0.118
-411.369	-39.303	-0.161	-0.084
-410.355	-71.108	0.179	0.067
-409.340	-200.000	0.007	-0.032
-408.325	-82.681	-0.078	0.025
-407.311	-105.326	-0.172	0.039
-406.296	-200.000	-0.035	0.218
-405.282	4.488	0.228	0.166
-404.267	60.227	0.226	0.222
-403.252	101.568	-0.198	-0.229
-402.238	52.297	0.223	0.210
-401.223	-82.621	-0.356	-0.114
-400.209	-200.000	0.006	0.111
-399.194	-30.980	-0.274	-0.153
-398.179	95.610	-0.056	0.063
-397.165	-53.968	0.367	-0.166
-396.150	65.563	-0.220	-0.221
-395.136	-78.634	-0.150	0.051
-394.121	135.629	0.054	-0.070
-393.106	800.000	-0.079	-0.243
-392.092	-200.000	-0.027	-0.168
-391.077	-131.306	0.182	-0.024
-390.063	73.670	0.123	-0.127
-389.048	-81.257	0.248	0.081
-388.033	-164.339	0.362	0.016
-387.019	93.403	-0.082	-0.092
-386.004	800.000	0.031	0.085
-384.990	57.235	0.074	0.072
-383.975	-137.231	-0.257	0.029
-382.960	78.502	0.292	0.309
-381.946	-121.582	0.338	-0.055
-380.931	66.817	-0.225	-0.227
-379.917	-169.213	0.293	-0.011
-378.902	800.000	-0.051	-0.162
-377.888	737.002	0.109	0.290
-376.873	-122.375	-0.459	-0.074
-375.858	57.666	-0.148	0.143
-374.844	-200.000	0.059	0.357
-373.829	-36.610	0.270	-0.144
-372.815	-200.000	0.024	0.188
-371.800	48.689	0.157	0.146
-370.785	147.536	-0.125	-0.167
-369.771	-5.529	0.108	0.073
-368.756	-58.074	-0.195	0.084
-367.742	-81.879	0.330	-0.107
-366.727	18.146	0.277	-0.218
-365.712	-200.000	-0.061	0.000
-364.698	-29.523	0.062	0.035
-363.683	-200.000	-0.024	0.141
-362.669	-116.411	-0.176	-0.032
-361.654	3.367	-0.189	-0.136
-360.639	119.951	0.159	-0.195
-359.625	-163.760	0.266	-0.012
-358.610	-0.826	0.142	0.100
-357.596	282.982	0.141	-0.251
-356.581	-24.662	0.298	-0.175
-355.566	162.681	-0.191	-0.265
-354.552	349.757	-0.050	-0.097
-353.537	708.869	-0.050	0.131
-352.523	-95.837	-0.261	-0.069
-351.508	-200.000	-0.003	-0.156
-350.493	800.000	0.022	0.064
-349.479	167.839	-0.078	0.109
-348.464	649.855	0.059	0.149
-347.450	129.132	-0.190	-0.240
-346.435	28.912	0.093	-0.078
-345.420	-118.808	-0.187	-0.033
-344.406	454.390	0.113	0.249
-343.391	14.808	-0.136	-0.105
-342.377	-95.352	0.097	0.026
-341.362	386.244	0.056	0.114
-340.348	800.000	-0.081	-0.328
-339.333	-200.000	0.004	0.077
-338.318	-132.140	0.126	-0.016
-337.304	-200.000	0.023	-0.444
-336.289	-168.878	-0.410	0.015
-335.275	-2.958	-0.334	-0.230
-334.260	124.949	0.095	-0.119
-333.245	-2.633	-0.409	-0.283
-332.231	11.599	0.109	-0.082
-331.216	800.000	0.070	-0.302
-330.202	160.369	0.104	0.144
-329.187	-115.857	0.293	0.054
-328.172	800.000	-0.081	-0.307
-327.158	131.727	-0.040	0.051
-326.143	35.006	-0.013	0.011
-325.129	800.000	0.109	0.349
-324.114	-94.431	-0.132	0.036
-323.099	-96.225	0.358	0.094
-322.085	-105.582	-0.297	-0.066
-321.070	-84.579	-0.167	0.052
-320.056	119.521	-0.107	-0.131
-319.041	-200.000	-0.045	0.277
-318.026	800.000	-0.119	0.334
-317.012	20.275	0.146	0.116
-315.997	-200.000	0.136	0.001
-314.983	-200.000	-0.030	0.179
-313.968	-59.871	-0.086	0.036
-312.953	-76.000	-0.463	0.162
-311.939	-61.117	-0.319	0.133
-310.924	-200.000	0.081	0.447
-309.910	312.509	0.187	0.347
-308.895	-3.565	-0.130	0.089
-307.880	-200.000	0.020	0.095
-306.866	-138.055	-0.179	0.020
-305.851	-87.164	0.241	-0.072
-304.837	800.000	0.109	-0.349
-303.822	-183.265	0.216	-0.004
-302.807	453.663	0.137	0.298
-301.793	8.222	0.206	0.152
-300.778	-144.914	0.094	-0.008
-299.764	-85.757	-0.276	0.085
-298.749	140.083	-0.124	-0.162
-297.735	-140.189	-0.189	0.020
-296.720	800.000	-0.039	0.143
-295.705	112.984	0.180	-0.215
-294.691	-121.182	-0.157	-0.026
-293.676	84.017	0.170	-0.183
-292.662	-107.736	-0.153	0.033
-291.647	800.000	-0.067	0.235
-290.632	39.236	-0.103	0.091
-289.618	-28.938	-0.235	0.133
-288.603	800.000	-0.091	-0.252
-287.589	86.702	-0.261	-0.284
-286.574	-200.000	-0.016	0.424
-285.559	154.428	-0.162	-0.220
-284.545	-200.000	-0.006	-0.165
-283.530	800.000	-0.116	0.397
-282.516	-200.000	0.001	0.304
-281.501	25.941	-0.224	0.184
-280.486	2.441	-0.312	0.223
-279.472	11.502	0.107	0.081
-278.457	425.297	-0.022	-0.047
-277.443	-132.114	-0.209	-0.027
-276.428	800.000	0.031	0.118
-275.413	88.680	-0.168	0.185
-274.399	525.522	0.043	0.100
-273.384	-200.000	0.011	0.224
-272.370	26.918	-0.066	0.055
-271.355	328.557	0.043	-0.082
-270.340	573.413	-0.027	-0.066
-269.326	-200.000	0.008	-0.064
-268.311	429.355	-0.115	-0.245
-267.297	-170.225	0.248	-0.009
-266.282	-76.531	-0.204	-0.071
-265.267	-8.890	-0.218	0.144
-264.253	-168.701	0.308	0.012
-263.238	-79.257	0.219	-0.073
-262.224	38.360	-0.161	-0.141
-261.209	-9.112	0.334	0.220
-260.195	714.206	0.049	-0.128
-259.180	800.000	0.093	-0.392
-258.165	491.179	0.138	0.311
-257.151	800.000	-0.002	0.006
-256.136	-200.000	-0.118	-0.000
-255.122	-200.000	0.011	-0.113
-254.107	779.758	0.096	-0.259
-253.092	-110.959	-0.202	-0.041
-252.078	25.634	0.120	0.098
-251.063	68.505	0.239	0.242
-250.049	-97.732	0.097	-0.025
-249.034	-90.371	-0.151	0.043
-248.019	88.767	0.194	-0.213
-247.005	-128.351	0.212	-0.030
-245.990	-94.675	-0.071	0.019
-244.976	-95.587	-0.106	0.028
-243.961	-185.971	0.150	0.002
-242.946	765.348	-0.127	0.340
-241.932	37.387	-0.065	0.057
-240.917	-200.000	-0.036	-0.234
-239.903	-200.000	-0.016	-0.292
-238.888	-138.038	-0.329	-0.036
-237.873	253.712	-0.215	-0.362
-236.859	-110.848	0.125	-0.025
-235.844	452.345	-0.116	-0.253
-234.830	34.537	-0.006	0.005
-233.815	161.256	0.089	0.123
-232.800	379.350	0.065	-0.132
-231.786	-103.132	-0.368	-0.086
-230.771	-158.029	-0.026	-0.002
-229.757	-137.876	0.031	0.003
-228.742	-200.000	-0.020	-0.111
-227.727	124.900	0.178	0.221
-226.713	-39.577	-0.108	-0.055
-225.698	-200.000	-0.002	0.247
-224.684	265.972	0.097	0.167
-223.669	-200.000	-0.034	-0.259
-222.655	-200.000	-0.030	0.307
-221.640	-91.174	0.567	-0.160
-220.625	353.058	-0.148	0.288
-219.611	235.679	0.146	0.238
-218.596	232.292	0.267	0.432
-217.582	600.585	0.026	0.064
-216.567	458.238	0.085	-0.186
-215.552	375.304	-0.086	0.172
-214.538	59.195	-0.155	-0.150
-213.523	-200.000	0.009	-0.235
-212.509	800.000	0.033	0.141
-211.494	214.701	0.108	0.168
-210.479	340.533	0.092	-0.177
-209.465	-116.574	-0.065	-0.012
-208.450	800.000	0.090	0.285
-207.436	-200.000	0.028	0.222
-206.421	-200.000	-0.046	0.230
-205.406	80.405	0.049	0.052
-204.392	158.181	0.222	-0.302
-203.377	-41.444	-0.316	-0.160
-202.363	-70.148	-0.157	-0.059
-201.348	7.007	-0.074	-0.054
-200.333	-131.554	-0.270	0.035
-199.319	190.469	0.103	0.152
-198.304	36.580	0.092	-0.080
-197.290	-30.083	0.188	0.105
-196.275	800.000	0.030	-0.086
-195.260	196.464	0.245	-0.366
-194.246	599.880	0.076	0.186
-193.231	130.251	-0.093	0.117
-192.217	-32.065	0.198	0.109
-191.202	-34.338	0.333	-0.179
-190.187	-157.602	-0.332	0.020
-189.173	291.657	-0.070	-0.125
-188.158	-200.000	-0.002	-0.018
-187.144	-7.258	0.094	0.063
-186.129	34.923	-0.212	-0.182
-185.114	-58.328	0.056	-0.024
-184.100	308.817	-0.194	0.356
-183.085	-123.858	0.219	0.034
-182.071	-149.851	-0.258	0.020
-181.056	-38.319	-0.163	0.085
-180.042	-200.000	0.003	0.134
-179.027	158.504	-0.146	0.199
-178.012	-90.612	0.339	-0.096
-176.998	281.813	-0.152	0.267
-175.983	195.374	-0.035	-0.052
-174.969	800.000	0.048	-0.181
-173.954	84.053	-0.192	-0.205
-172.939	-54.549	0.219	-0.097
-171.925	800.000	-0.096	-0.286
-170.910	800.000	-0.069	0.236
-169.896	62.293	0.200	0.196
-168.881	323.995	0.133	-0.249
-167.866	-106.855	-0.227	0.049
-166.852	-43.184	-0.086	-0.043
-165.837	308.183	0.038	-0.069
-164.823	800.000	0.128	0.369
-163.808	64.562	-0.201	-0.199
-162.793	-200.000	0.010	0.132
-161.779	-101.580	0.398	-0.095
-160.764	-125.605	0.100	0.015
-159.750	9.522	0.164	0.122
-158.735	313.652	0.055	-0.101
-157.720	82.339	0.451	0.480
-156.706	800.000	-0.052	-0.155
-155.691	-200.000	-0.064	-0.351
-154.677	-121.908	0.487	-0.079
-153.662	-200.000	-0.037	0.174
-152.647	345.009	0.169	0.325
-151.633	-158.978	-0.437	-0.024
-150.618	349.583	0.086	-0.166
-149.604	-166.632	0.272	0.011
-148.589	-200.000	-0.040	-0.186
-147.574	800.000	0.070	-0.282
-146.560	-126.475	-0.268	-0.039
-145.545	40.936	0.253	0.224
-144.531	-101.623	0.194	-0.046
-143.516	-141.735	-0.118	0.012
-142.502	-130.612	0.339	0.045
-141.487	-90.336	0.170	0.048
-140.472	-97.813	-0.294	-0.075
-139.458	-200.000	0.010	0.130
-138.443	800.000	-0.073	-0.222
-137.429	411.466	0.199	0.415
-136.414	-30.187	0.147	-0.082
-135.399	48.087	0.149	0.137
-134.385	-74.073	-0.358	-0.127
-133.370	-200.000	0.025	-0.151
-132.356	146.834	0.102	0.134
-131.341	-6.305	-0.386	0.258
-130.326	31.257	0.142	-0.120
-129.312	800.000	0.054	0.193
-128.297	51.984	-0.124	-0.116
-127.283	-200.000	0.011	0.087
-126.268	-66.171	0.315	-0.123
-125.253	-95.248	0.115	-0.030
-124.239	-118.354	-0.310	-0.054
-123.224	645.063	0.218	-0.546
-122.210	-153.433	0.134	-0.009
-121.195	-96.650	0.147	0.038
-120.180	643.110	0.104	0.260
-119.166	800.000	-0.042	0.133
-118.151	322.852	-0.145	-0.270
-117.137	800.000	0.085	0.237
-116.122	-35.114	-0.172	0.092
-115.107	161.126	0.035	-0.048
-114.093	-107.840	0.194	-0.041
-113.078	126.383	0.120	0.149
-112.064	-148.191	0.341	-0.028
-111.049	-62.870	-0.099	0.040
-110.034	-152.708	-0.425	0.030
-109.020	219.736	0.154	0.241
-108.005	800.000	0.052	0.143
-106.991	-135.749	0.243	0.028
-105.976	-120.469	0.114	-0.019
-104.962	-162.048	0.246	0.012
-103.947	52.192	-0.274	-0.256
-102.932	151.100	-0.157	0.209
-101.918	-34.696	0.307	0.164
-100.903	-200.000	-0.033	-0.272
-99.889	171.703	-0.064	-0.090
-98.874	-200.000	0.035	0.259
-97.859	-69.742	-0.189	-0.071
-96.845	-12.170	-0.200	0.128
-95.830	68.495	-0.110	0.110
-94.816	-148.032	-0.332	-0.027
-93.801	144.711	-0.170	-0.222
-92.786	45.125	-0.173	-0.156
-91.772	-85.843	-0.202	-0.061
-90.757	195.064	-0.036	-0.053
-89.743	-66.755	0.224	0.087
-88.728	134.564	0.138	0.175
-87.713	-108.836	-0.136	-0.029
-86.699	-200.000	0.032	-0.214
-85.684	-96.640	-0.361	-0.093
-84.670	308.245	-0.048	-0.088
-83.655	-200.000	0.003	0.255
-82.640	389.341	0.073	0.149
-81.626	-62.832	-0.308	0.125
-80.611	-142.555	-0.251	-0.024
-79.597	-51.327	0.196	0.090
-78.582	-112.246	-0.119	-0.023
-77.567	-166.047	-0.187	0.008
-76.553	-200.000	-0.055	0.453
-75.538	89.072	-0.173	-0.189
-74.524	273.494	0.129	0.223
-73.509	-39.632	0.151	0.077
-72.494	-79.503	0.286	0.095
-71.480	398.776	-0.076	-0.156
-70.465	674.065	-0.060	-0.151
-69.451	-200.000	0.035	0.278
-68.436	97.077	0.207	0.232
-67.422	119.634	-0.237	0.287
-66.407	56.204	-0.241	0.229
-65.392	-92.848	0.252	0.069
-64.378	127.340	0.174	-0.216
-63.363	0.830	0.092	-0.064
-62.349	-200.000	0.028	0.169
-61.334	47.790	-1.339	-1.222
-60.319	-15.665	1.002	0.625
-59.305	175.279	-0.675	-0.956
-58.290	321.469	0.934	1.736
-57.276	800.000	0.474	1.549
-56.261	-200.000	124.782	632.210
-55.246	381.605	1589.539	3190.673
-54.232	136.054	2776.061	3536.036
-53.217	84.782	2366.592	2533.697
-52.203	29.259	2106.790	1748.606
-51.188	24.265	2020.902	1631.671
-50.173	23.100	2004.170	1607.511
-49.159	41.242	2076.387	1834.378
-48.144	39.200	2089.315	1826.771
-47.130	24.805	2041.536	1653.060
-46.115	22.599	2030.743	1623.954
-45.100	22.595	2027.379	1621.159
-44.086	22.593	2024.443	1618.731
-43.071	22.528	2022.619	1616.614
-42.057	22.480	2020.673	1614.551
-41.042	22.499	2019.293	1613.562
-40.027	22.518	2017.220	1612.012
-39.013	22.528	2015.160	1610.396
-37.998	22.548	2013.351	1609.069
-36.984	22.535	2011.629	1607.506
-35.969	22.514	2009.726	1605.731
-34.954	22.552	2008.425	1604.980
-33.940	22.641	2006.257	1603.992
-32.925	22.644	2004.885	1602.857
-31.911	22.615	2003.153	1601.141
-30.896	22.647	2001.516	1600.059
-29.881	22.651	2000.123	1598.919
-28.867	22.586	1998.576	1597.034
-27.852	22.572	1997.272	1595.804
-26.838	22.603	1994.789	1594.034
-25.823	22.590	1993.012	1592.430
-24.809	22.649	1991.212	1591.468
-23.794	22.659	1989.571	1590.184
-22.779	22.645	1987.584	1588.402
-21.765	22.669	1985.941	1587.243
-20.750	22.696	1984.389	1586.187
-19.736	22.644	1983.807	1585.189
-18.721	22.620	1981.583	1583.130
-17.706	22.619	1980.133	1581.902
-16.692	22.568	1978.216	1579.846
-15.677	22.612	1976.499	1578.813
-14.663	22.672	1974.820	1577.939
-13.648	22.631	1974.201	1577.023
-12.633	22.597	1972.358	1575.177
-11.619	22.638	1971.035	1574.428
-10.604	22.625	1970.016	1573.433
-9.590	22.584	1968.546	1571.833
-8.575	22.680	1966.868	1571.285
-7.560	22.612	1966.027	1569.943
-6.546	22.617	1964.621	1568.804
-5.531	22.688	1963.127	1568.184
-4.517	22.678	1962.012	1567.140
-3.502	22.705	1960.602	1566.193
-2.487	22.652	1959.730	1564.958
-1.473	22.582	1958.904	1563.616
-0.458	22.758	1954.081	1561.266
0.556	21.642	1934.134	1536.529
1.571	17.825	1917.193	1489.677
2.586	14.481	1943.645	1480.451
3.600	13.960	1979.831	1503.164
4.615	13.894	1972.952	1497.218
5.629	10.827	1870.202	1392.863
6.644	4.344	1754.790	1254.518
7.659	0.935	1722.056	1203.936
8.673	0.667	1719.468	1199.888
9.688	0.672	1718.364	1199.056
10.702	0.625	1717.064	1197.666
11.717	0.516	1712.853	1193.763
12.731	0.856	1711.734	1195.565
13.746	5.555	1720.791	1239.040
14.761	12.333	1735.063	1303.148
15.775	16.181	1742.008	1338.840
16.790	17.045	1741.952	1345.536
17.804	16.217	1739.060	1336.622
18.819	15.242	1735.921	1326.386
19.834	14.701	1733.484	1320.124
20.848	14.252	1732.265	1315.535
21.863	14.109	1730.868	1313.231
22.877	13.923	1728.691	1309.996
23.892	13.663	1727.293	1306.772
24.907	13.530	1726.214	1304.791
25.921	13.448	1725.265	1303.310
26.936	13.471	1724.019	1302.433
27.950	13.534	1723.482	1302.406
28.965	13.636	1722.744	1302.535
29.980	13.639	1722.078	1301.945
30.994	13.638	1720.978	1300.988
32.009	13.748	1719.844	1300.875
33.023	13.806	1719.064	1300.629
34.038	13.824	1717.967	1299.821
35.053	13.722	1716.898	1298.099
36.067	13.735	1715.780	1297.245
37.082	13.733	1714.379	1296.052
38.096	13.665	1714.159	1295.243
39.111	13.701	1713.017	1294.542
40.126	13.662	1712.506	1293.739
41.140	13.717	1711.385	1293.209
42.155	13.608	1710.055	1291.238
43.169	13.493	1709.036	1289.456
44.184	13.500	1707.774	1288.444
45.199	13.512	1706.055	1287.132
46.213	13.568	1704.949	1286.620
47.228	13.491	1704.328	1285.434
48.242	13.527	1702.942	1284.558
49.257	13.674	1701.224	1284.286
50.271	13.549	1700.213	1282.442
51.286	13.718	1698.462	1282.313
52.301	13.648	1697.312	1280.788
53.315	13.675	1695.838	1279.778
54.330	13.601	1694.633	1278.183
55.344	13.576	1692.892	1276.566
56.359	13.579	1691.520	1275.439
57.374	13.630	1690.373	1274.850
58.388	13.506	1689.703	1273.279
59.403	13.456	1687.935	1271.448
60.417	13.535	1686.056	1270.529
61.432	13.489	1685.022	1269.287
62.447	13.510	1684.163	1268.689
63.461	13.419	1683.294	1267.223
64.476	13.532	1681.765	1266.826
65.490	13.459	1680.648	1265.314
66.505	13.407	1678.976	1263.542
67.520	13.570	1677.888	1263.858
68.534	13.518	1677.274	1262.887
69.549	13.521	1676.594	1262.286
70.563	13.506	1674.569	1260.534
71.578	13.437	1673.795	1259.316
72.593	13.456	1672.618	1258.461
73.607	13.397	1671.730	1257.235
74.622	13.388	1670.571	1256.182
75.636	13.466	1669.475	1255.840
76.651	13.395	1668.931	1254.782
77.666	13.432	1668.096	1254.322
78.680	13.387	1666.561	1252.719
79.695	13.432	1665.829	1252.396
80.709	13.380	1665.016	1251.287
81.724	13.293	1663.838	1249.632
82.739	13.517	1662.829	1250.450
83.753	13.629	1661.132	1249.913
84.768	13.522	1660.412	1248.453
85.782	13.665	1659.519	1248.744
86.797	13.594	1659.183	1247.847
87.812	13.646	1657.960	1247.209
88.826	13.594	1656.442	1245.569
89.841	13.520	1655.668	1244.318
90.855	13.584	1654.331	1243.681
91.870	13.607	1653.169	1242.874
92.884	13.645	1651.643	1241.899
93.899	13.644	1650.849	1241.186
94.914	13.666	1649.832	1240.476
95.928	13.709	1648.201	1239.461
96.943	13.638	1647.134	1238.017
97.957	13.724	1645.169	1237.074
98.972	13.648	1644.012	1235.530
99.987	13.681	1642.702	1234.683
101.001	13.581	1641.465	1232.898
102.016	13.646	1639.391	1231.713
103.030	13.664	1638.331	1230.944
104.045	13.680	1636.509	1229.580
105.060	13.735	1635.199	1228.899
106.074	13.625	1634.410	1227.381
107.089	13.523	1632.943	1225.418
108.103	13.512	1631.123	1223.859
109.118	13.487	1629.871	1222.630
110.133	13.525	1628.051	1221.435
111.147	13.548	1626.754	1220.522
112.162	13.500	1625.309	1218.977
113.176	13.491	1624.218	1217.984
114.191	13.581	1622.455	1217.215
115.206	13.695	1621.176	1216.987
116.220	13.599	1619.928	1215.236
117.235	13.631	1618.371	1214.199
118.249	13.611	1617.468	1213.264
119.264	13.602	1615.976	1211.971
120.279	13.622	1614.549	1210.942
121.293	13.582	1612.938	1209.337
122.308	13.524	1612.067	1208.154
123.322	13.607	1610.146	1207.210
124.337	13.536	1608.546	1205.388
125.352	13.569	1607.601	1204.813
126.366	13.506	1606.310	1203.280
127.381	13.572	1604.765	1202.497
128.395	13.522	1603.799	1201.304
129.410	13.517	1602.256	1200.006
130.424	13.512	1600.958	1198.893
131.439	13.459	1599.819	1197.544
132.454	13.573	1598.368	1197.182
133.468	13.605	1596.667	1196.032
134.483	13.638	1595.735	1195.463
135.497	13.620	1594.066	1193.976
136.512	13.751	1592.273	1193.469
137.527	13.629	1591.406	1191.841
138.541	13.652	1589.918	1190.782
139.556	13.582	1588.848	1189.376
140.570	13.616	1587.100	1188.204
141.585	13.725	1585.169	1187.438
142.600	13.685	1584.585	1186.608
143.614	13.847	1582.279	1185.936
144.629	13.802	1581.682	1185.061
145.643	13.853	1580.315	1184.295
146.658	13.817	1579.149	1183.055
147.673	13.814	1577.901	1181.999
148.687	13.808	1576.120	1180.514
149.702	13.785	1574.678	1179.168
150.716	13.770	1572.986	1177.686
151.731	13.808	1571.696	1176.889
152.746	13.794	1570.518	1175.806
153.760	13.770	1569.224	1174.565
154.775	13.816	1567.376	1173.400
155.789	13.839	1565.868	1172.329
156.804	13.826	1565.219	1171.650
157.819	13.908	1563.654	1170.949
158.833	13.930	1562.297	1169.984
159.848	13.960	1560.954	1169.089
160.862	13.931	1560.012	1168.073
161.877	13.905	1558.905	1166.959
162.892	13.947	1557.469	1166.076
163.906	13.886	1556.429	1164.771
164.921	13.884	1555.128	1163.677
165.935	13.894	1554.155	1162.919
166.950	13.988	1552.470	1162.212
167.964	13.863	1551.477	1160.492
168.979	13.951	1550.284	1160.111
169.994	13.951	1549.196	1159.193
171.008	13.990	1547.951	1158.428
172.023	14.010	1546.766	1157.581
173.037	13.906	1546.039	1156.209
174.052	13.964	1545.076	1155.787
175.067	14.076	1543.748	1155.472
176.081	14.065	1542.437	1154.310
177.096	14.048	1540.563	1152.693
178.110	14.026	1539.403	1151.566
179.125	14.066	1538.281	1150.905
180.140	13.988	1537.598	1149.753
181.154	14.073	1536.364	1149.313
182.169	14.108	1535.151	1148.548
183.183	14.036	1534.268	1147.285
184.198	14.106	1532.936	1146.673
185.213	14.195	1531.655	1146.225
186.227	14.131	1530.954	1145.159
187.242	14.107	1529.822	1144.049
188.256	14.161	1528.617	1143.413
189.271	14.267	1527.380	1143.119
190.286	14.270	1526.354	1142.272
191.300	14.277	1525.027	1141.224
192.315	14.256	1523.640	1139.942
193.329	14.055	1522.884	1137.897
194.344	14.141	1521.357	1137.244
195.359	14.112	1520.523	1136.325
196.373	14.104	1519.346	1135.286
197.388	14.235	1518.281	1135.287
198.402	14.266	1516.925	1134.385
199.417	14.262	1516.106	1133.644
200.432	14.339	1514.632	1132.961
201.446	14.368	1513.882	1132.498
202.461	14.400	1512.650	1131.696
203.475	14.511	1511.492	1131.480
204.490	14.528	1510.493	1130.746
205.504	14.370	1509.973	1129.191
206.519	14.347	1508.768	1128.032
207.534	14.441	1507.175	1127.374
208.548	14.393	1505.822	1125.938
209.563	14.347	1505.202	1125.068
210.577	14.454	1503.882	1124.699
211.592	14.385	1503.638	1123.952
212.607	14.556	1501.889	1123.699
213.621	14.551	1501.504	1123.277
214.636	14.528	1500.259	1122.095
215.650	14.612	1499.332	1121.868
216.665	14.567	1498.034	1120.491
217.680	14.501	1497.960	1119.895
218.694	14.568	1496.770	1119.354
219.709	14.657	1495.794	1119.124
220.723	14.597	1494.899	1117.953
221.738	14.612	1494.002	1117.285
222.753	14.657	1493.226	1116.905
223.767	14.604	1492.241	1115.714
224.782	14.586	1491.581	1115.005
225.796	14.646	1490.073	1114.179
226.811	14.781	1489.482	1114.535
227.826	14.808	1488.299	1113.736
228.840	14.731	1487.965	1112.875
229.855	14.774	1486.350	1111.850
230.869	14.774	1485.684	1111.254
231.884	14.782	1484.533	1110.352
232.899	14.717	1483.534	1109.075
233.913	14.743	1482.773	1108.577
234.928	14.831	1480.472	1107.342
235.942	14.826	1479.487	1106.476
236.957	14.753	1478.709	1105.310
237.972	14.778	1477.537	1104.504
238.986	14.826	1476.750	1104.135
240.001	14.769	1475.976	1103.083
241.015	14.774	1474.433	1101.867
242.030	14.809	1473.389	1101.214
243.045	14.767	1472.765	1100.379
244.059	14.842	1471.440	1099.782
245.074	14.896	1470.556	1099.380
246.088	14.934	1469.669	1098.867
247.103	14.971	1468.980	1098.498
248.117	15.072	1468.137	1098.435
249.132	15.031	1467.207	1097.375
250.147	15.009	1466.658	1096.722
251.161	15.023	1466.286	1096.435
252.176	15.109	1465.248	1096.126
253.190	15.173	1464.704	1096.043
254.205	15.169	1463.992	1095.384
255.220	15.254	1462.357	1094.620
256.234	15.097	1462.081	1093.290
257.249	15.159	1461.037	1092.823
258.263	15.194	1460.123	1092.270
259.278	15.274	1459.169	1091.981
260.293	15.364	1457.820	1091.461
261.307	15.355	1457.237	1090.867
262.322	15.259	1456.782	1089.802
263.336	15.342	1455.791	1089.507
264.351	15.300	1454.634	1088.274
265.366	15.431	1453.859	1088.446
266.380	15.318	1452.618	1086.685
267.395	15.441	1452.031	1086.946
268.409	15.380	1450.886	1085.602
269.424	15.438	1450.341	1085.475
270.439	15.439	1448.821	1084.242
271.453	15.421	1448.105	1083.496
272.468	15.412	1447.177	1082.649
273.482	15.441	1446.260	1082.056
274.497	15.337	1445.648	1080.829
275.512	15.503	1444.511	1080.954
276.526	15.469	1443.361	1079.777
277.541	15.511	1442.567	1079.360
278.555	15.511	1441.400	1078.389
279.570	15.503	1440.691	1077.715
280.585	15.691	1439.113	1077.639
281.599	15.650	1438.781	1077.037
282.614	15.559	1437.983	1075.760
283.628	15.558	1436.946	1074.883
284.643	15.669	1435.916	1074.726
285.657	15.616	1434.382	1073.142
286.672	15.593	1433.767	1072.445
287.687	15.665	1432.966	1072.205
288.701	15.698	1431.423	1071.172
289.716	15.689	1430.890	1070.617
290.730	15.716	1429.924	1069.975
291.745	15.729	1429.036	1069.299
292.760	15.837	1427.658	1068.853
293.774	15.731	1427.144	1067.705
294.789	15.817	1425.890	1067.220
295.803	15.939	1424.972	1067.207
296.818	15.802	1424.245	1065.704
297.833	15.833	1423.072	1064.923
298.847	15.822	1422.152	1064.072
299.862	15.846	1420.898	1063.192
300.876	15.910	1420.285	1063.041
301.891	15.924	1419.634	1062.552
302.906	15.916	1418.664	1061.681
303.920	15.948	1417.721	1061.082
304.935	15.888	1417.810	1060.680
305.949	16.026	1416.329	1060.346
306.964	16.087	1415.458	1059.984
307.979	16.017	1414.634	1058.828
308.993	16.052	1413.479	1058.091
310.008	16.137	1412.313	1057.658
311.022	16.037	1411.789	1056.544
312.037	16.128	1410.155	1055.801
313.052	16.159	1409.490	1055.401
314.066	16.129	1408.757	1054.574
315.081	16.081	1407.684	1053.373
316.095	16.077	1406.707	1052.525
317.110	16.125	1405.641	1051.935
318.125	16.054	1404.699	1050.698
319.139	16.124	1403.755	1050.334
320.154	16.128	1402.519	1049.336
321.168	16.148	1401.690	1048.751
322.183	16.100	1400.646	1047.580
323.197	16.122	1399.981	1047.125
324.212	16.262	1398.698	1046.941
325.227	16.234	1397.493	1045.771
326.241	16.263	1396.891	1045.411
327.256	16.228	1396.377	1044.715
328.270	16.288	1395.417	1044.276
329.285	16.202	1393.906	1042.524
330.300	16.241	1393.318	1042.230
331.314	16.177	1392.196	1040.903
332.329	16.276	1391.349	1040.791
333.343	16.280	1390.422	1040.026
334.358	16.313	1389.791	1039.670
335.373	16.279	1389.190	1038.917
336.387	16.317	1388.146	1038.277
337.402	16.306	1387.341	1037.516
338.416	16.417	1386.470	1037.451
339.431	16.356	1386.254	1036.828
340.446	16.434	1385.404	1036.577
341.460	16.459	1384.166	1035.711
342.475	16.432	1383.169	1034.706
343.489	16.514	1382.146	1034.357
344.504	16.525	1381.404	1033.773
345.519	16.586	1380.217	1033.164
346.533	16.637	1379.524	1032.869
347.548	16.608	1378.521	1031.850
348.562	16.616	1378.013	1031.429
349.577	16.651	1377.299	1031.012
350.592	16.563	1376.439	1029.743
351.606	16.651	1375.133	1029.213
352.621	16.526	1374.229	1027.684
353.635	16.642	1373.047	1027.411
354.650	16.511	1372.354	1026.009
355.665	16.633	1371.207	1025.800
356.679	16.667	1369.997	1025.010
357.694	16.651	1368.852	1023.962
358.708	16.643	1368.154	1023.307
359.723	16.721	1366.469	1022.423
360.738	16.772	1365.643	1022.025
361.752	16.692	1364.743	1020.775
362.767	16.816	1363.847	1020.761
363.781	16.790	1362.420	1019.446
364.796	16.705	1362.174	1018.666
365.810	16.860	1361.049	1018.665
366.825	16.866	1360.771	1018.401
367.840	16.921	1359.638	1017.791
368.854	16.909	1358.941	1017.112
369.869	16.903	1358.325	1016.521
370.883	16.949	1357.904	1016.394
371.898	16.895	1356.876	1015.210
372.913	16.981	1355.943	1014.938
373.927	17.009	1355.235	1014.483
374.942	17.004	1354.288	1013.659
375.956	17.032	1353.710	1013.301
376.971	17.023	1352.981	1012.612
377.986	17.006	1352.259	1011.878
379.000	17.068	1351.018	1011.232
380.015	17.036	1350.469	1010.540
381.029	17.131	1349.522	1010.305
382.044	17.098	1349.107	1009.713
383.059	17.159	1347.687	1008.921
384.073	17.295	1347.075	1009.183
385.088	17.249	1346.533	1008.411
386.102	17.199	1345.847	1007.514
387.117	17.197	1345.233	1006.952
388.132	17.290	1344.133	1006.591
389.146	17.270	1343.181	1005.672
390.161	17.095	1342.482	1004.022
391.175	17.236	1341.475	1004.018
392.190	17.223	1341.084	1003.560
393.205	17.368	1339.965	1003.485
394.219	17.384	1338.638	1002.500
395.234	17.360	1337.634	1001.518
396.248	17.355	1336.616	1000.639
397.263	17.364	1335.075	999.448
398.278	17.319	1334.060	998.335
399.292	17.304	1333.000	997.362
400.307	17.163	1332.288	995.917
401.321	17.352	1330.590	995.668
402.336	17.318	1329.620	994.654
403.350	17.333	1328.876	994.096
404.365	17.196	1327.818	992.419
405.380	17.348	1326.694	992.379
406.394	17.426	1325.704	992.001
407.409	17.463	1325.421	991.917
408.423	17.430	1324.933	991.272
409.438	17.558	1323.709	991.013
410.453	17.499	1323.112	990.138
411.467	17.543	1322.207	989.629
412.482	17.510	1322.070	989.246
413.496	17.564	1321.117	988.759
414.511	17.679	1320.244	988.685
415.526	17.617	1319.640	987.785
416.540	17.634	1318.907	987.246
417.555	17.698	1317.974	986.831
418.569	17.646	1317.761	986.286
419.584	17.669	1316.888	985.678
420.599	17.737	1316.028	985.343
421.613	100.421	1363.260	1488.807
422.628	99.066	1370.064	1488.884
