DTS Sentinel unit serial number:	SN413079Multiplexer serial number:	ORYXHardware model number:	OX4-SRSoftware version number:	ORYX F/W v4.00 Oryx Data Collector v3.7.2.0data status	okinstallation	princeton_trtdifferential loss correction	single-endedforward channel	channel 4reverse channel	N/Adate	2019/09/17time	12:17:35forward acquisition time	60.00reverse acquisition time	0.00gamma	496.2192k internal	0.2305k external	0.2305temperature offset calibration	0.9989default loss term (dB/km)	0.3790temperature slope calibration	1.0000multiplexer offset coefficient	1.0000multiplexer slope coefficient	1.0000fibre end	0.00T internal ref (°C)	31.50T ext. ref 1 (°C)	0.42T ext. ref 2 (°C)	28.29length (m)	temperature (°C)	Stokes	anti-Stokes-747.200	-41.870	0.124	-0.065
-746.185	-200.000	0.021	-0.098
-745.171	25.936	0.033	0.028
-744.156	800.000	0.062	0.230
-743.142	229.286	-0.143	0.238
-742.127	170.185	0.138	-0.200
-741.112	83.690	0.158	0.175
-740.098	49.181	-0.068	-0.065
-739.083	36.027	-0.206	0.184
-738.069	-122.208	-0.087	0.014
-737.054	348.329	0.118	0.238
-736.039	-105.582	-0.255	0.059
-735.025	240.396	-0.142	0.242
-734.010	-186.435	-0.359	-0.005
-732.996	-19.581	-0.040	-0.025
-731.981	-75.990	0.392	0.141
-730.966	25.889	0.178	-0.151
-729.952	70.805	-0.245	-0.258
-728.937	491.449	-0.069	0.160
-727.923	-73.406	-0.050	-0.019
-726.908	28.741	0.154	0.133
-725.894	23.325	-0.220	-0.184
-724.879	-200.000	0.033	-0.226
-723.864	-112.780	0.238	0.048
-722.850	11.563	-0.099	0.077
-721.835	258.649	0.087	0.153
-720.821	-87.588	0.118	-0.036
-719.806	-86.590	-0.129	-0.040
-718.791	-57.008	0.365	-0.164
-717.777	50.711	-0.305	-0.294
-716.762	-30.659	0.222	0.128
-715.748	-119.310	-0.291	-0.051
-714.733	-95.478	0.143	0.039
-713.718	-115.501	-0.060	-0.011
-712.704	-112.956	0.268	-0.054
-711.689	-155.496	-0.247	-0.016
-710.675	-200.000	0.011	0.234
-709.660	-141.988	0.257	-0.026
-708.645	-117.938	-0.053	-0.010
-707.631	-75.188	-0.235	0.085
-706.616	200.097	-0.189	-0.295
-705.602	230.143	-0.043	0.072
-704.587	247.041	-0.234	-0.402
-703.572	-22.868	-0.162	0.100
-702.558	-27.456	0.241	-0.142
-701.543	26.038	-0.244	-0.207
-700.529	180.885	-0.093	0.139
-699.514	-40.838	0.252	-0.132
-698.499	54.829	0.115	0.112
-697.485	800.000	-0.035	0.152
-696.470	-200.000	-0.003	0.126
-695.456	296.381	-0.053	-0.099
-694.441	482.432	0.058	-0.134
-693.426	800.000	-0.073	-0.225
-692.412	141.625	-0.058	0.078
-691.397	800.000	0.166	0.491
-690.383	-81.403	-0.056	-0.019
-689.368	-101.515	0.267	0.066
-688.354	-200.000	-0.003	-0.168
-687.339	417.938	-0.138	0.300
-686.324	-200.000	-0.034	-0.529
-685.310	74.903	-0.175	-0.187
-684.295	17.365	-0.134	0.108
-683.281	-46.632	-0.127	0.063
-682.266	217.800	0.093	0.151
-681.251	73.714	0.134	0.143
-680.237	-156.221	0.406	0.026
-679.222	368.393	0.043	0.088
-678.208	114.418	-0.094	0.116
-677.193	800.000	-0.061	0.238
-676.178	-61.253	-0.086	0.037
-675.164	-144.929	-0.135	0.013
-674.149	800.000	0.041	-0.165
-673.135	-200.000	0.063	-0.293
-672.120	-37.573	0.207	-0.112
-671.105	-78.651	0.163	-0.056
-670.091	-200.000	0.011	-0.085
-669.076	800.000	-0.042	0.162
-668.062	-22.411	0.042	0.026
-667.047	-67.268	0.194	-0.077
-666.032	52.314	0.259	0.251
-665.018	-104.496	-0.359	0.084
-664.003	52.287	-0.090	0.087
-662.989	800.000	0.141	-0.405
-661.974	-71.354	0.188	-0.071
-660.959	-200.000	-0.043	-0.211
-659.945	90.226	0.053	0.060
-658.930	45.471	0.208	0.195
-657.916	213.106	-0.237	0.380
-656.901	-77.509	0.111	-0.039
-655.886	-200.000	0.010	0.075
-654.872	-136.369	-0.238	-0.028
-653.857	-200.000	-0.087	0.402
-652.843	-111.603	-0.356	-0.073
-651.828	-29.685	-0.094	0.055
-650.814	-102.520	-0.118	0.029
-649.799	-106.963	0.097	-0.022
-648.784	-98.824	-0.290	-0.075
-647.770	-36.577	-0.077	-0.042
-646.755	-48.567	-0.132	0.064
-645.741	18.595	-0.082	-0.066
-644.726	800.000	-0.030	0.123
-643.711	-65.049	0.335	0.137
-642.697	154.078	-0.123	-0.172
-641.682	800.000	0.105	0.357
-640.668	-9.614	-0.326	-0.220
-639.653	-168.186	-0.376	0.015
-638.638	221.655	0.246	0.401
-637.624	167.599	-0.047	0.067
-636.609	-170.796	-0.278	-0.010
-635.595	-136.106	0.514	0.061
-634.580	-200.000	0.022	-0.454
-633.565	-200.000	0.051	-0.258
-632.551	-200.000	0.001	-0.028
-631.536	-135.757	-0.220	-0.026
-630.522	-200.000	0.014	-0.275
-629.507	-3.354	-0.409	-0.289
-628.492	-132.403	0.194	0.025
-627.478	74.992	0.034	-0.036
-626.463	-29.193	-0.390	0.227
-625.449	-132.386	0.204	-0.027
-624.434	664.149	-0.196	-0.513
-623.419	800.000	0.075	-0.275
-622.405	337.742	-0.011	-0.022
-621.390	-63.108	-0.287	-0.120
-620.376	389.224	0.210	0.440
-619.361	300.430	0.130	-0.243
-618.346	292.105	0.097	-0.180
-617.332	61.442	-0.299	0.302
-616.317	-80.432	0.372	0.126
-615.303	-68.213	-0.304	0.120
-614.288	-120.578	0.364	-0.062
-613.273	525.896	-0.069	-0.165
-612.259	-200.000	-0.003	0.115
-611.244	301.553	0.106	-0.199
-610.230	65.344	-0.198	0.202
-609.215	-12.162	-0.065	0.043
-608.201	146.340	-0.232	0.315
-607.186	-0.960	0.156	-0.112
-606.171	800.000	0.110	0.384
-605.157	800.000	-0.023	-0.085
-604.142	111.701	0.192	0.234
-603.128	43.366	0.140	0.130
-602.113	-148.316	-0.186	0.016
-601.098	-16.290	0.070	0.045
-600.084	-82.478	0.352	0.116
-599.069	-200.000	0.028	0.171
-598.055	-200.000	0.011	-0.052
-597.040	-48.662	0.368	-0.179
-596.025	-68.400	-0.060	0.024
-595.011	-83.237	-0.265	0.086
-593.996	-8.585	-0.201	-0.137
-592.982	-109.053	0.129	-0.028
-591.967	-87.703	-0.058	-0.018
-590.952	-79.571	-0.141	-0.048
-589.938	-81.145	-0.301	-0.101
-588.923	39.965	0.080	0.072
-587.909	-74.019	0.317	0.116
-586.894	205.125	0.134	0.210
-585.879	-115.874	-0.202	0.038
-584.865	-53.706	-0.042	-0.020
-583.850	15.321	-0.144	-0.114
-582.836	-200.000	0.021	0.124
-581.821	87.634	-0.101	-0.113
-580.806	-150.816	-0.362	-0.028
-579.792	-159.655	-0.089	0.005
-578.777	800.000	0.046	0.166
-577.763	-36.502	0.171	-0.093
-576.748	73.071	0.307	0.325
-575.733	-200.000	-0.003	0.274
-574.719	478.590	0.088	-0.201
-573.704	-200.000	-0.018	-0.258
-572.690	199.848	-0.106	-0.164
-571.675	-83.658	0.465	-0.150
-570.661	-5.392	-0.169	0.118
-569.646	104.522	-0.022	-0.026
-568.631	35.875	-0.114	-0.101
-567.617	462.777	0.081	0.184
-566.602	-200.000	-0.011	-0.084
-565.588	-200.000	-0.010	0.330
-564.573	-200.000	-0.013	-0.213
-563.558	99.236	-0.132	0.154
-562.544	-32.449	-0.329	-0.185
-561.529	-37.260	0.279	-0.151
-560.515	-87.836	-0.343	-0.104
-559.500	465.625	0.080	0.182
-558.485	-48.122	0.238	0.116
-557.471	-65.086	0.205	0.084
-556.456	800.000	-0.042	0.155
-555.442	-105.208	0.123	-0.028
-554.427	-116.508	-0.199	0.037
-553.412	800.000	0.101	-0.312
-552.398	-25.458	-0.091	0.054
-551.383	-104.690	-0.111	-0.026
-550.369	279.864	0.034	0.061
-549.354	126.008	0.148	0.189
-548.339	-129.836	-0.264	0.037
-547.325	183.875	-0.121	-0.180
-546.310	-200.000	0.092	-0.411
-545.296	800.000	0.028	-0.084
-544.281	306.552	-0.065	0.123
-543.266	-200.000	0.013	-0.156
-542.252	800.000	-0.070	0.299
-541.237	800.000	0.081	-0.269
-540.223	286.214	-0.083	0.152
-539.208	-51.900	-0.044	0.021
-538.193	800.000	0.052	0.189
-537.179	525.607	0.089	0.212
-536.164	-200.000	-0.043	0.340
-535.150	-66.200	-0.129	0.052
-534.135	13.986	-0.140	-0.110
-533.121	447.505	-0.187	0.416
-532.106	609.055	0.109	0.274
-531.091	-156.262	0.109	0.007
-530.077	349.699	0.066	0.132
-529.062	-61.307	0.147	0.062
-528.048	-56.555	-0.156	-0.070
-527.033	-200.000	0.004	-0.078
-526.018	683.975	-0.081	0.213
-525.004	800.000	-0.036	-0.158
-523.989	52.897	-0.041	0.039
-522.975	154.659	-0.049	0.068
-521.960	800.000	0.062	-0.222
-520.945	-132.319	-0.047	0.006
-519.931	-132.778	0.329	0.042
-518.916	44.419	0.077	-0.072
-517.902	-45.005	-0.341	0.171
-516.887	-4.736	0.289	-0.201
-515.872	45.969	-0.194	-0.181
-514.858	392.810	0.077	-0.161
-513.843	-96.130	0.059	0.016
-512.829	-37.631	-0.208	-0.112
-511.814	-200.000	0.014	-0.208
-510.799	70.945	-0.146	0.153
-509.785	-67.991	0.322	0.127
-508.770	40.181	-0.202	-0.183
-507.756	-200.000	-0.230	0.001
-506.741	24.996	0.064	0.053
-505.726	-115.481	0.175	0.033
-504.712	-191.350	0.222	-0.002
-503.697	597.618	-0.059	0.146
-502.683	-46.365	0.493	0.244
-501.668	-133.839	0.296	0.037
-500.653	-144.742	-0.228	-0.021
-499.639	121.915	0.048	0.060
-498.624	-200.000	0.012	-0.334
-497.610	-10.048	0.197	-0.132
-496.595	800.000	-0.042	0.119
-495.581	-200.000	-0.006	-0.107
-494.566	39.128	0.097	-0.087
-493.551	-34.151	-0.021	-0.012
-492.537	126.695	-0.017	0.021
-491.522	-200.000	-0.059	-0.319
-490.508	37.369	0.124	-0.111
-489.493	276.918	-0.120	-0.216
-488.478	-200.000	-0.013	0.181
-487.464	231.924	0.036	-0.060
-486.449	-113.247	0.128	0.025
-485.435	2.968	0.152	0.111
-484.420	-66.683	-0.241	-0.096
-483.405	183.495	0.143	0.213
-482.391	-200.000	-0.018	-0.081
-481.376	-22.672	-0.087	0.053
-480.362	800.000	0.042	-0.149
-479.347	287.485	-0.211	-0.385
-478.332	-127.242	-0.197	0.029
-477.318	-200.000	0.002	0.333
-476.303	219.743	-0.307	0.494
-475.289	-28.881	0.139	0.080
-474.274	-63.402	0.224	0.093
-473.259	74.332	-0.061	-0.065
-472.245	-128.416	-0.240	0.034
-471.230	-13.837	0.279	-0.181
-470.216	-200.000	-0.038	-0.199
-469.201	111.575	0.167	-0.203
-468.186	-85.916	-0.192	-0.060
-467.172	-48.446	0.138	-0.067
-466.157	-4.203	0.184	-0.128
-465.143	-191.017	-0.279	0.003
-464.128	435.904	-0.077	-0.170
-463.113	176.064	0.167	-0.245
-462.099	-103.015	0.089	0.021
-461.084	-42.357	0.262	0.135
-460.070	-156.006	0.018	0.001
-459.055	-200.000	-0.015	0.084
-458.040	763.294	-0.037	0.102
-457.026	408.349	0.040	-0.085
-456.011	74.375	-0.119	0.126
-454.997	481.079	-0.069	-0.158
-453.982	-200.000	-0.010	-0.072
-452.968	-167.269	-0.181	0.007
-451.953	-105.331	-0.096	-0.022
-450.938	-151.411	0.135	-0.010
-449.924	74.661	-0.143	0.151
-448.909	6.416	-0.267	0.199
-447.895	-39.661	0.281	-0.148
-446.880	800.000	-0.040	-0.153
-445.865	-25.526	0.186	0.111
-444.851	-105.199	-0.321	0.074
-443.836	800.000	0.096	-0.297
-442.822	208.631	-0.064	-0.101
-441.807	-117.917	-0.276	-0.050
-440.792	-75.226	0.059	-0.021
-439.778	-19.503	0.091	0.057
-438.763	185.690	-0.111	-0.166
-437.749	-149.688	0.402	0.032
-436.734	-200.000	0.006	-0.063
-435.719	427.986	-0.028	-0.062
-434.705	328.679	0.058	0.112
-433.690	178.723	0.081	-0.119
-432.676	-2.747	-0.081	-0.057
-431.661	-109.586	-0.243	0.052
-430.646	-27.341	-0.248	0.145
-429.632	800.000	0.025	-0.080
-428.617	316.170	0.176	-0.334
-427.603	404.900	0.124	-0.264
-426.588	225.391	0.206	-0.336
-425.573	-200.000	-0.020	-0.170
-424.559	800.000	-0.080	0.256
-423.544	-200.000	0.193	0.001
-422.530	-39.398	0.057	-0.030
-421.515	-21.843	-0.094	0.058
-420.500	-200.000	0.011	-0.137
-419.486	128.806	-0.079	0.101
-418.471	-61.969	0.099	0.042
-417.457	9.014	0.302	-0.229
-416.442	-13.602	0.333	-0.217
-415.428	-200.000	-0.063	0.369
-414.413	800.000	-0.073	0.287
-413.398	670.749	-0.023	-0.061
-412.384	-70.607	0.243	-0.092
-411.369	-200.000	-0.005	0.085
-410.355	-200.000	0.002	-0.092
-409.340	-200.000	-0.033	-0.230
-408.325	42.191	-0.082	0.075
-407.311	202.822	0.172	-0.267
-406.296	-37.637	-0.291	0.156
-405.282	0.561	-0.184	0.132
-404.267	-116.227	-0.180	-0.034
-403.252	370.319	0.156	0.318
-402.238	-34.402	-0.199	-0.110
-401.223	-78.371	0.099	0.034
-400.209	-77.271	-0.308	0.108
-399.194	-200.000	0.040	-0.200
-398.179	226.185	-0.090	0.147
-397.165	-200.000	0.008	0.106
-396.150	-18.238	0.157	-0.099
-395.136	-15.209	0.173	0.111
-394.121	-22.012	-0.245	0.149
-393.106	800.000	-0.062	-0.194
-392.092	-142.445	-0.226	-0.022
-391.077	-200.000	0.012	0.161
-390.063	264.370	-0.027	-0.047
-389.048	-181.618	-0.287	0.006
-388.033	-37.969	0.086	0.046
-387.019	-119.656	0.171	0.030
-386.004	46.684	-0.175	-0.163
-384.990	171.161	0.123	-0.177
-383.975	-20.559	0.082	-0.050
-382.960	-200.000	-0.014	-0.100
-381.946	36.281	-0.146	0.129
-380.931	-90.567	0.198	0.058
-379.917	-186.935	-0.130	-0.002
-378.902	-200.000	0.004	0.038
-377.888	29.027	0.163	0.139
-376.873	-128.830	-0.100	0.014
-375.858	70.984	0.045	0.047
-374.844	-12.423	-0.130	0.085
-373.829	-200.000	0.009	-0.267
-372.815	-2.817	-0.164	0.115
-371.800	800.000	0.026	0.102
-370.785	800.000	0.086	-0.272
-369.771	-27.628	0.326	0.190
-368.756	40.151	0.189	0.170
-367.742	-105.425	-0.100	-0.023
-366.727	-97.153	-0.267	-0.070
-365.712	-22.425	0.239	0.145
-364.698	497.143	-0.080	-0.184
-363.683	350.930	-0.026	0.051
-362.669	-50.391	-0.083	-0.039
-361.654	-53.648	-0.101	-0.046
-360.639	800.000	0.052	-0.161
-359.625	-200.000	0.010	0.202
-358.610	-158.928	-0.259	0.015
-357.596	800.000	0.061	-0.188
-356.581	-62.994	0.390	0.161
-355.566	51.060	-0.290	0.276
-354.552	-51.330	0.376	-0.176
-353.537	33.285	0.018	0.016
-352.523	35.245	-0.181	0.159
-351.508	50.208	0.277	-0.262
-350.493	-46.568	0.114	-0.056
-349.479	800.000	0.023	-0.075
-348.464	8.840	-0.100	-0.076
-347.450	-16.979	0.284	-0.180
-346.435	-44.635	-0.233	0.117
-345.420	800.000	-0.048	-0.145
-344.406	-105.023	-0.090	-0.021
-343.391	185.939	0.172	-0.256
-342.377	-121.626	-0.304	0.050
-341.362	563.867	-0.084	0.203
-340.348	-200.000	0.004	0.279
-339.333	90.812	-0.119	0.133
-338.318	-83.996	0.099	-0.031
-337.304	202.405	-0.149	-0.230
-336.289	-37.006	-0.160	-0.086
-335.275	49.697	-0.073	0.068
-334.260	-155.252	-0.274	0.018
-333.245	-200.000	0.000	0.065
-332.231	-81.427	0.153	0.050
-331.216	135.683	-0.138	0.180
-330.202	687.829	0.114	0.298
-329.187	78.281	0.122	0.131
-328.172	-29.115	-0.277	0.159
-327.158	-132.017	0.132	0.017
-326.143	-2.729	-0.143	0.100
-325.129	179.995	0.160	-0.235
-324.114	-200.000	0.009	-0.154
-323.099	-200.000	0.002	0.055
-322.085	-11.451	0.090	0.059
-321.070	345.325	0.083	0.163
-320.056	-200.000	-0.006	-0.162
-319.041	85.757	0.137	0.151
-318.026	456.805	0.058	0.129
-317.012	-165.897	-0.455	0.020
-315.997	142.482	0.281	0.374
-314.983	55.487	-0.255	0.247
-313.968	-200.000	-0.021	-0.314
-312.953	-13.720	0.104	0.068
-311.939	-200.000	-0.110	-0.000
-310.924	97.425	0.116	0.134
-309.910	-190.363	0.049	0.001
-308.895	-76.378	-0.197	0.069
-307.880	367.509	-0.057	0.115
-306.866	-79.378	0.037	-0.012
-305.851	-200.000	-0.002	0.246
-304.837	76.575	0.270	0.287
-303.822	-200.000	-0.054	-0.282
-302.807	800.000	-0.088	-0.253
-301.793	800.000	0.052	0.176
-300.778	-126.364	-0.400	0.060
-299.764	-76.120	0.289	0.102
-298.749	800.000	0.066	0.280
-297.735	267.458	-0.155	-0.271
-296.720	127.180	-0.056	-0.071
-295.705	-122.082	0.252	0.041
-294.691	46.475	-0.093	0.087
-293.676	-70.385	-0.240	0.091
-292.662	-200.000	-0.019	-0.192
-291.647	-200.000	-0.022	0.160
-290.632	596.252	0.171	0.423
-289.618	125.859	-0.086	-0.109
-288.603	426.956	0.005	-0.012
-287.589	48.709	-0.128	-0.120
-286.574	598.285	0.078	0.194
-285.559	800.000	0.100	0.307
-284.545	-62.768	0.202	-0.084
-283.530	800.000	0.093	0.280
-282.516	-200.000	-0.041	0.225
-281.501	-128.899	-0.289	0.041
-280.486	-200.000	0.020	0.104
-279.472	-19.009	-0.254	0.158
-278.457	-200.000	0.056	-0.274
-277.443	519.115	-0.046	-0.107
-276.428	-42.257	0.174	0.089
-275.413	267.564	0.065	-0.114
-274.399	-200.000	0.058	-0.284
-273.384	-200.000	0.017	0.078
-272.370	11.653	0.079	-0.061
-271.355	663.016	-0.131	-0.338
-270.340	-52.816	-0.253	-0.116
-269.326	-97.514	0.243	0.063
-268.311	-200.000	-0.006	0.259
-267.297	781.843	0.048	0.131
-266.282	167.814	-0.083	-0.119
-265.267	-200.000	0.003	0.017
-264.253	13.206	0.235	0.182
-263.238	-200.000	-0.035	-0.256
-262.224	-62.049	0.388	-0.162
-261.209	58.079	-0.288	-0.281
-260.195	275.888	0.075	-0.133
-259.180	800.000	0.074	0.313
-258.165	-29.982	0.370	0.210
-257.151	68.399	-0.034	0.034
-256.136	236.594	-0.118	-0.195
-255.122	400.870	0.135	-0.283
-254.107	255.841	-0.056	0.096
-253.092	-138.684	0.013	-0.001
-252.078	-200.000	0.041	-0.407
-251.063	-48.988	-0.202	-0.097
-250.049	-59.081	0.111	-0.048
-249.034	-173.355	-0.341	0.010
-248.019	-91.184	0.299	-0.085
-247.005	-161.737	-0.314	0.016
-245.990	-18.479	-0.227	-0.142
-244.976	-200.000	-0.030	-0.229
-243.961	119.792	0.172	-0.212
-242.946	-47.379	-0.113	0.055
-241.932	412.456	0.183	0.389
-240.917	182.475	0.069	-0.102
-239.903	160.325	0.071	0.099
-238.888	-78.835	-0.149	0.051
-237.873	160.822	0.187	-0.260
-236.859	14.978	-0.123	0.096
-235.844	19.652	-0.108	0.087
-234.830	124.509	-0.049	-0.061
-233.815	102.494	0.129	0.150
-232.800	-200.000	0.039	-0.246
-231.786	601.069	-0.071	-0.175
-230.771	440.566	0.183	0.399
-229.757	-200.000	-0.070	0.313
-228.742	137.390	-0.025	0.033
-227.727	800.000	-0.062	-0.201
-226.713	-12.099	0.148	-0.096
-225.698	-200.000	0.091	0.455
-224.684	24.627	-0.123	-0.102
-223.669	33.461	0.094	-0.081
-222.655	-16.761	0.358	0.226
-221.640	-23.887	0.232	0.139
-220.625	-200.000	-0.030	0.163
-219.611	-200.000	0.056	-0.279
-218.596	800.000	0.052	-0.191
-217.582	-68.452	0.256	-0.099
-216.567	33.968	0.080	0.069
-215.552	136.048	-0.189	-0.246
-214.538	-132.747	0.248	-0.032
-213.523	658.278	-0.038	-0.098
-212.509	266.079	-0.195	0.340
-211.494	-200.000	-0.012	-0.135
-210.479	-91.210	0.211	0.060
-209.465	800.000	-0.031	0.119
-208.450	800.000	-0.081	-0.227
-207.436	-23.880	-0.066	-0.039
-206.421	-48.347	-0.257	0.123
-205.406	110.523	0.151	0.181
-204.392	75.816	0.110	-0.116
-203.377	-91.385	-0.296	-0.084
-202.363	-143.880	0.146	0.014
-201.348	324.653	-0.077	0.146
-200.333	110.962	0.091	0.109
-199.319	101.577	-0.133	0.154
-198.304	-30.126	-0.312	-0.177
-197.290	-200.000	-0.018	0.083
-196.275	-200.000	-0.038	-0.165
-195.260	-200.000	0.112	0.494
-194.246	6.420	-0.258	-0.191
-193.231	-31.505	0.207	-0.116
-192.217	-200.000	-0.014	-0.098
-191.202	-165.299	0.381	0.017
-190.187	123.193	0.164	-0.205
-189.173	125.534	0.330	-0.415
-188.158	728.035	0.095	-0.253
-187.144	-200.000	-0.021	-0.233
-186.129	-93.486	0.330	-0.091
-185.114	-6.487	0.095	-0.065
-184.100	245.650	-0.067	0.112
-183.085	87.933	-0.257	0.284
-182.071	-138.167	-0.169	0.019
-181.056	-114.250	-0.147	-0.028
-180.042	136.372	0.148	-0.192
-179.027	-77.109	-0.192	-0.067
-178.012	321.318	-0.022	0.042
-176.998	-107.644	-0.293	0.064
-175.983	800.000	-0.042	-0.168
-174.969	-119.360	0.275	0.048
-173.954	-86.089	0.222	-0.068
-172.939	413.873	-0.098	0.208
-171.925	-46.900	-0.113	-0.055
-170.910	-4.575	-0.163	-0.112
-169.896	190.516	0.164	0.245
-168.881	301.729	-0.139	-0.255
-167.866	43.803	-0.140	-0.128
-166.852	-137.904	-0.298	0.033
-165.837	99.643	0.072	-0.083
-164.823	-63.632	0.139	-0.057
-163.808	622.615	0.096	-0.241
-162.793	-75.482	0.222	0.079
-161.779	-200.000	-0.050	0.260
-160.764	83.368	-0.240	-0.261
-159.750	288.437	0.195	0.351
-158.735	-19.839	0.032	0.019
-157.720	-51.092	0.187	0.087
-156.706	-21.327	-0.079	0.048
-155.691	800.000	0.050	0.203
-154.677	-200.000	0.053	-0.233
-153.662	800.000	0.016	0.044
-152.647	131.437	0.058	0.074
-151.633	404.262	-0.119	0.249
-150.618	19.639	0.289	-0.231
-149.604	0.329	0.288	0.205
-148.589	211.679	-0.121	0.190
-147.574	489.566	0.172	-0.391
-146.560	-166.337	0.281	-0.012
-145.545	236.462	0.125	-0.205
-144.531	-23.879	0.142	0.085
-143.516	-147.702	0.294	0.025
-142.502	51.450	0.142	0.134
-141.487	351.199	-0.178	0.350
-140.472	743.820	0.136	0.363
-139.458	-75.236	0.076	0.027
-138.443	54.642	-0.118	-0.113
-137.429	102.407	0.191	0.222
-136.414	56.591	-0.277	0.268
-135.399	101.870	0.174	0.202
-134.385	-66.300	0.175	0.069
-133.370	105.221	0.179	0.210
-132.356	187.414	0.110	-0.163
-131.341	-110.929	0.055	-0.011
-130.326	-168.091	0.225	0.009
-129.312	800.000	-0.012	0.048
-128.297	-200.000	-0.036	0.201
-127.283	-200.000	-0.029	-0.151
-126.268	82.788	-0.185	0.199
-125.253	233.749	-0.058	-0.095
-124.239	-200.000	-0.021	0.183
-123.224	-200.000	0.030	-0.154
-122.210	-19.661	0.137	0.084
-121.195	339.109	0.057	0.110
-120.180	-84.371	-0.097	-0.030
-119.166	-58.461	0.254	-0.110
-118.151	4.759	-0.153	-0.111
-117.137	45.153	0.046	-0.042
-116.122	-200.000	-0.020	-0.242
-115.107	30.778	0.220	0.187
-114.093	644.027	0.049	0.123
-113.078	800.000	0.063	-0.240
-112.064	-55.899	-0.098	0.043
-111.049	-157.051	0.293	0.018
-110.034	438.626	-0.051	-0.111
-109.020	-5.702	-0.267	0.182
-108.005	289.873	-0.137	0.247
-106.991	81.645	-0.242	0.260
-105.976	-43.503	0.101	-0.050
-104.962	800.000	-0.070	-0.305
-103.947	-182.893	0.306	0.005
-102.932	303.192	-0.064	-0.117
-101.918	-8.415	-0.052	0.035
-100.903	-110.192	-0.096	-0.020
-99.889	209.654	-0.164	0.254
-98.874	800.000	0.031	0.125
-97.859	-200.000	-0.021	-0.123
-96.845	18.803	-0.136	-0.108
-95.830	449.878	-0.062	-0.135
-94.816	-175.868	-0.215	-0.006
-93.801	-200.000	-0.035	-0.299
-92.786	-12.976	0.238	0.154
-91.772	-108.290	0.174	0.037
-90.757	-122.553	-0.092	0.015
-89.743	-36.835	0.061	0.033
-88.728	244.683	0.036	-0.060
-87.713	-72.033	0.379	-0.140
-86.699	-200.000	0.033	0.373
-85.684	-175.994	0.224	0.006
-84.670	-51.595	0.152	-0.070
-83.655	-200.000	0.018	0.174
-82.640	-72.244	-0.194	-0.071
-81.626	52.614	-0.109	0.103
-80.611	-139.652	-0.285	-0.030
-79.597	-200.000	0.037	0.195
-78.582	-84.491	-0.246	0.077
-77.567	-83.651	0.172	0.054
-76.553	154.341	0.182	-0.248
-75.538	210.781	0.080	0.125
-74.524	-137.075	0.316	0.036
-73.509	-2.626	0.107	0.074
-72.494	-54.600	0.130	0.059
-71.480	-200.000	-0.021	0.584
-70.465	-14.011	-0.310	0.199
-69.451	-102.277	0.303	-0.072
-68.436	-200.000	-0.028	0.143
-67.422	800.000	-0.039	0.118
-66.407	800.000	-0.078	0.230
-65.392	-59.769	0.289	0.123
-64.378	-200.000	-0.045	0.316
-63.363	427.307	0.047	0.101
-62.349	-200.000	-0.039	0.423
-61.334	79.406	-0.958	-1.018
-60.319	-10.982	0.557	0.364
-59.305	-200.000	0.142	-1.189
-58.290	222.922	0.757	1.209
-57.276	220.523	0.985	1.565
-56.261	-200.000	95.970	599.597
-55.246	543.369	1401.405	3313.350
-54.232	153.224	2588.576	3509.471
-53.217	102.734	2330.954	2702.749
-52.203	38.289	2089.343	1843.430
-51.188	33.161	2003.280	1720.904
-50.173	31.678	1984.348	1691.194
-49.159	46.738	2032.998	1870.593
-48.144	47.855	2050.972	1897.269
-47.130	33.863	2013.792	1736.082
-46.115	31.475	2003.850	1705.692
-45.100	31.437	2000.220	1702.187
-44.086	31.329	1998.267	1699.473
-43.071	31.241	1995.808	1696.520
-42.057	31.340	1992.801	1694.793
-41.042	31.373	1991.106	1693.580
-40.027	31.355	1989.377	1691.882
-39.013	31.425	1987.553	1690.895
-37.998	31.362	1985.753	1688.732
-36.984	31.438	1983.423	1687.365
-35.969	31.395	1981.754	1685.496
-34.954	31.519	1979.640	1684.742
-33.940	31.499	1978.474	1683.507
-32.925	31.563	1976.555	1682.385
-31.911	31.525	1974.695	1680.389
-30.896	31.432	1973.360	1678.355
-29.881	31.486	1971.915	1677.544
-28.867	31.564	1970.198	1676.711
-27.852	31.560	1968.587	1675.236
-26.838	31.529	1966.680	1673.272
-25.823	31.571	1964.652	1671.857
-24.809	31.477	1963.145	1669.670
-23.794	31.425	1961.366	1667.625
-22.779	31.574	1958.539	1666.481
-21.765	31.465	1957.740	1664.765
-20.750	31.504	1955.893	1663.473
-19.736	31.491	1954.721	1662.299
-18.721	31.467	1953.133	1660.665
-17.706	31.556	1950.865	1659.462
-16.692	31.523	1949.552	1657.987
-15.677	31.562	1947.744	1656.732
-14.663	31.566	1946.421	1655.578
-13.648	31.594	1944.999	1654.544
-12.633	31.506	1944.697	1653.445
-11.619	31.430	1943.432	1651.636
-10.604	31.546	1941.411	1650.877
-9.590	31.551	1940.345	1649.943
-8.575	31.521	1938.933	1648.413
-7.560	31.597	1937.157	1647.508
-6.546	31.508	1935.820	1645.522
-5.531	31.523	1934.968	1644.869
-4.517	31.517	1933.153	1643.204
-3.502	31.516	1932.597	1642.656
-2.487	31.465	1931.680	1641.364
-1.473	31.528	1930.336	1640.716
-0.458	31.619	1925.488	1637.320
0.556	30.307	1906.493	1613.945
1.571	26.608	1888.851	1566.927
2.586	22.583	1911.912	1550.585
3.600	21.433	1948.200	1569.565
4.615	21.166	1943.176	1562.983
5.629	16.678	1840.879	1442.419
6.644	6.776	1717.464	1266.522
7.659	0.998	1677.178	1191.347
8.673	0.582	1673.492	1185.364
9.688	0.502	1672.002	1183.577
10.702	0.378	1671.155	1181.897
11.717	0.228	1667.816	1178.262
12.731	0.915	1667.413	1183.241
13.746	7.900	1683.017	1249.172
14.761	16.182	1699.044	1326.327
15.775	18.085	1700.402	1342.224
16.790	17.256	1697.261	1333.124
17.804	16.178	1693.772	1321.829
18.819	15.059	1691.186	1310.936
19.834	14.596	1688.435	1305.063
20.848	14.350	1686.813	1301.773
21.863	14.054	1685.327	1298.197
22.877	13.789	1683.528	1294.632
23.892	13.521	1682.515	1291.644
24.907	13.434	1681.119	1289.786
25.921	13.436	1680.220	1288.999
26.936	13.462	1678.854	1288.036
27.950	13.458	1678.215	1287.401
28.965	13.516	1677.523	1287.211
29.980	13.561	1676.815	1286.896
30.994	13.633	1675.961	1286.686
32.009	13.657	1674.940	1285.978
33.023	13.705	1673.409	1285.062
34.038	13.772	1673.153	1285.271
35.053	13.778	1671.754	1284.131
36.067	13.699	1670.823	1282.684
37.082	13.643	1670.266	1281.711
38.096	13.594	1669.087	1280.319
39.111	13.629	1668.790	1280.248
40.126	13.633	1667.535	1279.202
41.140	13.650	1666.486	1278.417
42.155	13.575	1665.030	1276.605
43.169	13.471	1664.067	1274.957
44.184	13.421	1663.175	1273.773
45.199	13.405	1661.625	1272.351
46.213	13.389	1660.305	1271.100
47.228	13.419	1659.498	1270.601
48.242	13.453	1658.138	1269.714
49.257	13.585	1657.169	1269.871
50.271	13.506	1656.078	1268.310
51.286	13.498	1654.698	1267.080
52.301	13.596	1652.970	1266.400
53.315	13.596	1651.111	1264.860
54.330	13.522	1650.062	1263.385
55.344	13.546	1648.155	1261.990
56.359	13.460	1647.319	1260.585
57.374	13.471	1646.234	1259.728
58.388	13.500	1644.899	1258.817
59.403	13.370	1643.553	1256.686
60.417	13.419	1641.925	1255.703
61.432	13.419	1640.465	1254.471
62.447	13.315	1640.010	1253.229
63.461	13.417	1638.357	1252.622
64.476	13.307	1637.235	1250.824
65.490	13.271	1636.295	1249.727
66.505	13.309	1635.239	1249.096
67.520	13.357	1633.659	1248.138
68.534	13.411	1632.940	1247.888
69.549	13.393	1632.003	1246.923
70.563	13.447	1630.226	1245.865
71.578	13.408	1629.423	1244.846
72.593	13.386	1628.103	1243.565
73.607	13.295	1627.353	1242.194
74.622	13.262	1626.267	1241.009
75.636	13.303	1624.850	1240.127
76.651	13.256	1623.833	1238.883
77.666	13.419	1622.295	1238.825
78.680	13.267	1622.465	1237.707
79.695	13.376	1621.166	1237.417
80.709	13.378	1620.051	1236.474
81.724	13.278	1619.380	1235.104
82.739	13.281	1618.890	1234.643
83.753	13.427	1617.219	1234.355
84.768	13.392	1616.748	1233.625
85.782	13.548	1615.762	1233.924
86.797	13.568	1614.869	1233.280
87.812	13.621	1613.501	1232.519
88.826	13.461	1612.342	1230.339
89.841	13.462	1611.218	1229.376
90.855	13.451	1610.875	1228.928
91.870	13.514	1609.074	1227.911
92.884	13.512	1608.149	1227.083
93.899	13.559	1607.251	1226.637
94.914	13.655	1605.904	1226.207
95.928	13.569	1604.885	1224.689
96.943	13.652	1602.975	1223.731
97.957	13.577	1602.057	1222.368
98.972	13.508	1600.749	1220.753
99.987	13.543	1598.880	1219.481
101.001	13.655	1597.032	1218.790
102.016	13.516	1595.916	1216.809
103.030	13.536	1594.210	1215.544
104.045	13.602	1593.273	1215.208
105.060	13.615	1591.493	1213.834
106.074	13.581	1590.689	1212.866
107.089	13.475	1589.224	1210.866
108.103	13.418	1587.493	1209.028
109.118	13.380	1586.293	1207.727
110.133	13.406	1584.714	1206.605
111.147	13.357	1583.284	1205.055
112.162	13.389	1582.254	1204.396
113.176	13.485	1580.199	1203.426
114.191	13.397	1579.330	1202.018
115.206	13.557	1577.947	1202.018
116.220	13.471	1577.007	1200.570
117.235	13.497	1575.591	1199.575
118.249	13.445	1573.943	1197.837
119.264	13.439	1572.543	1196.626
120.279	13.480	1571.394	1195.943
121.293	13.399	1570.302	1194.421
122.308	13.482	1568.496	1193.540
123.322	13.399	1567.111	1191.780
124.337	13.443	1565.652	1190.881
125.352	13.409	1563.897	1189.194
126.366	13.483	1562.882	1188.854
127.381	13.453	1562.001	1187.859
128.395	13.463	1560.968	1187.040
129.410	13.426	1559.681	1185.697
130.424	13.483	1558.411	1185.031
131.439	13.443	1557.299	1183.797
132.454	13.468	1555.699	1182.652
133.468	13.540	1553.715	1181.552
134.483	13.498	1552.788	1180.444
135.497	13.578	1550.739	1179.351
136.512	13.488	1550.208	1178.207
137.527	13.476	1548.912	1177.028
138.541	13.641	1546.881	1176.551
139.556	13.523	1545.792	1174.784
140.570	13.561	1544.377	1173.877
141.585	13.593	1543.579	1173.391
142.600	13.563	1542.008	1171.877
143.614	13.694	1540.160	1171.295
144.629	13.706	1539.146	1170.506
145.643	13.753	1537.986	1169.856
146.658	13.744	1536.604	1168.633
147.673	13.669	1534.842	1166.665
148.687	13.703	1533.575	1165.836
149.702	13.619	1531.974	1163.929
150.716	13.652	1530.252	1162.748
151.731	13.582	1529.145	1161.315
152.746	13.571	1528.201	1160.417
153.760	13.670	1526.356	1159.604
154.775	13.652	1525.604	1158.803
155.789	13.672	1523.908	1157.549
156.804	13.773	1522.353	1156.973
157.819	13.771	1521.217	1155.990
158.833	13.844	1520.129	1155.573
159.848	13.808	1519.106	1154.444
160.862	13.899	1517.483	1153.738
161.877	13.907	1516.396	1152.867
162.892	13.833	1515.212	1151.349
163.906	13.821	1513.472	1149.844
164.921	13.695	1512.673	1148.260
165.935	13.775	1511.781	1148.035
166.950	13.808	1510.106	1146.894
167.964	13.794	1509.372	1146.139
168.979	13.856	1508.115	1145.511
169.994	13.845	1507.228	1144.660
171.008	13.831	1506.037	1143.555
172.023	13.803	1505.412	1142.789
173.037	13.857	1504.268	1142.190
174.052	14.022	1502.080	1141.559
175.067	13.950	1501.627	1140.622
176.081	13.888	1500.828	1139.487
177.096	13.955	1498.802	1138.304
178.110	13.864	1497.694	1136.740
179.125	13.903	1496.554	1136.045
180.140	13.842	1496.060	1135.149
181.154	13.948	1494.901	1134.892
182.169	13.903	1493.673	1133.556
183.183	13.966	1492.545	1133.028
184.198	14.012	1491.335	1132.320
185.213	14.107	1490.257	1132.049
186.227	14.016	1489.339	1130.636
187.242	14.012	1488.405	1129.801
188.256	14.155	1486.976	1129.581
189.271	14.148	1485.864	1128.593
190.286	14.178	1485.042	1128.069
191.300	14.114	1484.430	1127.072
192.315	13.942	1482.706	1124.500
193.329	13.929	1481.453	1123.364
194.344	13.968	1480.392	1122.721
195.359	13.963	1479.640	1122.020
196.373	14.003	1478.327	1121.192
197.388	14.109	1477.198	1120.954
198.402	14.129	1476.070	1120.135
199.417	14.158	1475.297	1119.644
200.432	14.187	1474.232	1118.927
201.446	14.323	1473.023	1118.830
202.461	14.337	1471.764	1117.865
203.475	14.407	1470.491	1117.268
204.490	14.346	1469.376	1115.915
205.504	14.393	1468.263	1115.282
206.519	14.343	1467.282	1114.108
207.534	14.265	1466.127	1112.611
208.548	14.239	1464.780	1111.313
209.563	14.377	1463.682	1111.307
210.577	14.278	1463.045	1110.063
211.592	14.325	1462.230	1109.658
212.607	14.362	1461.588	1109.317
213.621	14.403	1460.825	1108.912
214.636	14.417	1460.047	1108.320
215.650	14.458	1458.351	1107.208
216.665	14.550	1457.679	1107.209
217.680	14.515	1457.097	1106.437
218.694	14.515	1456.492	1105.880
219.709	14.513	1455.565	1105.067
220.723	14.579	1454.193	1104.361
221.738	14.662	1453.317	1104.149
222.753	14.494	1452.768	1102.524
223.767	14.438	1452.064	1101.521
224.782	14.590	1450.819	1101.481
225.796	14.585	1449.605	1100.433
226.811	14.589	1449.048	1099.937
227.826	14.685	1447.905	1099.605
228.840	14.561	1447.186	1098.142
229.855	14.603	1446.191	1097.566
230.869	14.577	1445.260	1096.596
231.884	14.634	1443.874	1095.822
232.899	14.629	1442.637	1094.749
233.913	14.683	1441.710	1094.307
234.928	14.572	1440.588	1092.628
235.942	14.609	1439.658	1092.070
236.957	14.532	1438.568	1090.643
237.972	14.592	1436.955	1089.714
238.986	14.559	1436.696	1089.209
240.001	14.627	1435.208	1088.425
241.015	14.627	1434.388	1087.704
242.030	14.693	1432.495	1086.603
243.045	14.620	1432.216	1085.826
244.059	14.717	1431.157	1085.556
245.074	14.763	1430.482	1085.247
246.088	14.863	1429.237	1084.856
247.103	14.815	1428.795	1084.111
248.117	14.886	1427.913	1083.808
249.132	14.834	1427.316	1082.919
250.147	14.926	1426.492	1082.796
251.161	15.018	1425.689	1082.686
252.176	15.012	1425.397	1082.325
253.190	15.029	1424.194	1081.429
254.205	15.010	1423.593	1080.753
255.220	15.042	1422.808	1080.267
256.234	15.100	1422.188	1080.074
257.249	15.038	1421.530	1079.083
258.263	15.194	1419.996	1078.828
259.278	15.253	1418.994	1078.349
260.293	15.116	1418.600	1077.075
261.307	15.202	1417.868	1076.977
262.322	15.173	1417.139	1076.137
263.336	15.295	1416.156	1076.080
264.351	15.210	1415.485	1074.928
265.366	15.393	1413.935	1074.831
266.380	15.276	1413.378	1073.562
267.395	15.364	1412.333	1073.234
268.409	15.394	1411.446	1072.660
269.424	15.357	1410.089	1071.299
270.439	15.395	1409.368	1070.896
271.453	15.377	1408.684	1070.166
272.468	15.326	1407.676	1068.985
273.482	15.263	1407.345	1068.238
274.497	15.427	1405.963	1068.134
275.512	15.349	1405.218	1066.981
276.526	15.359	1404.150	1066.135
277.541	15.330	1403.182	1065.125
278.555	15.367	1402.156	1064.488
279.570	15.377	1401.771	1064.160
280.585	15.472	1400.105	1063.404
281.599	15.437	1399.806	1062.865
282.614	15.462	1398.935	1062.265
283.628	15.573	1397.323	1061.649
284.643	15.518	1396.494	1060.577
285.657	15.544	1395.068	1059.562
286.672	15.589	1394.081	1059.006
287.687	15.565	1393.792	1058.542
288.701	15.605	1392.467	1057.695
289.716	15.653	1391.457	1057.133
290.730	15.494	1390.901	1055.618
291.745	15.595	1390.000	1055.476
292.760	15.607	1389.045	1054.729
293.774	15.537	1388.189	1053.550
294.789	15.606	1387.120	1053.076
295.803	15.665	1386.456	1052.852
296.818	15.714	1385.246	1052.145
297.833	15.766	1384.235	1051.607
298.847	15.621	1383.458	1050.016
299.862	15.582	1382.425	1048.900
300.876	15.644	1381.790	1048.711
301.891	15.702	1380.586	1048.066
302.906	15.739	1379.984	1047.748
303.920	15.825	1378.925	1047.386
304.935	15.777	1378.226	1046.466
305.949	15.933	1377.326	1046.658
306.964	15.906	1376.531	1045.792
307.979	16.019	1375.518	1045.634
308.993	15.923	1374.681	1044.305
310.008	15.929	1373.739	1043.536
311.022	15.880	1372.575	1042.260
312.037	15.960	1371.735	1042.022
313.052	16.003	1370.558	1041.302
314.066	15.944	1369.738	1040.218
315.081	15.945	1368.646	1039.309
316.095	15.866	1367.921	1038.176
317.110	15.935	1366.666	1037.557
318.125	15.906	1365.575	1036.457
319.139	15.883	1365.008	1035.797
320.154	15.950	1363.883	1035.264
321.168	15.987	1362.956	1034.693
322.183	15.918	1362.141	1033.559
323.197	15.920	1361.087	1032.683
324.212	15.980	1360.261	1032.331
325.227	15.983	1359.791	1031.903
326.241	16.047	1358.621	1031.311
327.256	16.090	1357.854	1030.901
328.270	15.927	1357.089	1029.232
329.285	16.151	1355.674	1029.435
330.300	16.191	1354.658	1028.819
331.314	16.067	1354.070	1027.525
332.329	16.131	1353.295	1027.239
333.343	16.088	1352.363	1026.176
334.358	16.215	1351.293	1026.047
335.373	16.196	1350.855	1025.506
336.387	16.185	1349.894	1024.618
337.402	16.232	1348.910	1024.068
338.416	16.270	1348.611	1023.982
339.431	16.197	1348.216	1023.146
340.446	16.271	1347.078	1022.641
341.460	16.339	1345.918	1022.083
342.475	16.436	1344.571	1021.554
343.489	16.414	1344.269	1021.104
344.504	16.438	1342.947	1020.155
345.519	16.320	1342.593	1019.080
346.533	16.437	1341.214	1018.650
347.548	16.398	1341.023	1018.180
348.562	16.444	1339.869	1017.491
349.577	16.643	1338.915	1017.874
350.592	16.567	1338.285	1016.846
351.606	16.477	1337.647	1015.729
352.621	16.504	1335.998	1014.551
353.635	16.445	1335.063	1013.397
354.650	16.436	1334.119	1012.536
355.665	16.422	1333.589	1011.963
356.679	16.453	1332.299	1011.081
357.694	16.460	1330.849	1009.931
358.708	16.478	1330.286	1009.521
359.723	16.545	1328.837	1008.733
360.738	16.559	1327.518	1007.727
361.752	16.511	1326.977	1006.942
362.767	16.619	1325.956	1006.717
363.781	16.646	1324.615	1005.772
364.796	16.608	1324.015	1005.004
365.810	16.584	1323.724	1004.550
366.825	16.685	1323.485	1004.877
367.840	16.718	1322.472	1004.215
368.854	16.784	1321.435	1003.730
369.869	16.781	1321.009	1003.299
370.883	16.859	1320.105	1002.990
371.898	16.792	1319.259	1001.861
372.913	16.816	1318.684	1001.476
373.927	16.839	1317.731	1000.799
374.942	16.864	1316.852	1000.193
375.956	16.863	1316.266	999.653
376.971	16.893	1315.462	999.131
377.986	16.861	1314.550	998.161
379.000	16.806	1314.101	997.409
380.015	16.915	1313.386	997.416
381.029	16.926	1312.400	996.644
382.044	17.045	1311.895	996.869
383.059	17.056	1310.852	996.054
384.073	17.040	1309.961	995.196
385.088	17.080	1309.763	995.191
386.102	17.080	1308.753	994.339
387.117	17.097	1307.791	993.621
388.132	17.065	1307.000	992.742
389.146	17.082	1306.201	992.144
390.161	17.014	1305.473	991.110
391.175	17.054	1304.985	990.883
392.190	17.055	1304.135	990.158
393.205	17.097	1303.057	989.495
394.219	17.158	1302.256	989.153
395.234	17.201	1300.799	988.210
396.248	17.167	1299.726	987.110
397.263	17.175	1298.676	986.271
398.278	17.225	1296.752	985.014
399.292	17.185	1295.689	983.890
400.307	17.161	1295.026	983.159
401.321	17.179	1293.902	982.319
402.336	17.171	1293.092	981.576
403.350	17.140	1291.839	980.359
404.365	17.139	1291.038	979.658
405.380	17.248	1289.855	979.303
406.394	17.162	1289.676	978.580
407.409	17.233	1289.003	978.391
408.423	17.214	1287.828	977.305
409.438	17.239	1287.605	977.192
410.453	17.373	1286.668	977.169
411.467	17.413	1285.913	976.735
412.482	17.426	1285.485	976.396
413.496	17.479	1284.921	976.185
414.511	17.423	1283.954	975.048
415.526	17.407	1283.122	974.236
416.540	17.562	1282.274	974.394
417.555	17.588	1281.817	974.111
418.569	17.618	1281.334	973.829
419.584	17.655	1280.333	973.193
420.599	17.588	1280.136	972.574
421.613	93.789	1349.622	1461.401
422.628	91.830	1359.696	1461.531
