DTS Sentinel unit serial number:	SN413079Multiplexer serial number:	ORYXHardware model number:	OX4-SRSoftware version number:	ORYX F/W v4.00 Oryx Data Collector v3.7.2.0data status	okinstallation	princeton_trtdifferential loss correction	single-endedforward channel	channel 4reverse channel	N/Adate	2019/09/16time	05:37:34forward acquisition time	60.00reverse acquisition time	0.00gamma	496.2192k internal	0.2320k external	0.2320temperature offset calibration	0.9982default loss term (dB/km)	0.3790temperature slope calibration	1.0000multiplexer offset coefficient	1.0000multiplexer slope coefficient	1.0000fibre end	0.00T internal ref (°C)	27.31T ext. ref 1 (°C)	11.15T ext. ref 2 (°C)	22.07length (m)	temperature (°C)	Stokes	anti-Stokes-747.200	-92.648	-0.213	0.060
-746.185	-84.496	-0.260	0.083
-745.171	-200.000	0.011	-0.365
-744.156	-99.862	-0.307	-0.078
-743.142	-200.000	-0.028	0.355
-742.127	-45.509	0.193	0.097
-741.112	43.335	-0.130	-0.120
-740.098	81.432	0.145	0.159
-739.083	800.000	0.001	0.003
-738.069	-76.597	0.106	-0.038
-737.054	-83.463	-0.179	0.058
-736.039	73.145	-0.179	0.189
-735.025	-32.863	-0.326	0.183
-734.010	-96.414	-0.194	0.052
-732.996	-30.472	-0.171	0.098
-731.981	719.045	-0.046	0.123
-730.966	101.823	0.075	0.088
-729.952	-124.017	-0.323	0.051
-728.937	103.308	0.072	-0.085
-727.923	-86.540	0.207	-0.064
-726.908	-90.269	0.181	-0.053
-725.894	224.380	-0.120	0.197
-724.879	94.630	0.075	0.086
-723.864	-45.771	0.173	0.086
-722.850	-1.002	-0.258	0.184
-721.835	-75.244	0.430	-0.155
-720.821	-130.123	-0.138	-0.019
-719.806	800.000	-0.068	-0.281
-718.791	800.000	0.075	0.314
-717.777	154.007	0.194	0.268
-716.762	-114.395	0.071	0.014
-715.748	-5.379	0.445	-0.309
-714.733	-158.905	-0.119	0.007
-713.718	-19.161	0.179	0.112
-712.704	800.000	0.074	-0.227
-711.689	800.000	-0.077	-0.264
-710.675	-73.142	0.086	-0.032
-709.660	288.068	0.100	-0.183
-708.645	19.550	0.127	-0.103
-707.631	-200.000	0.013	-0.198
-706.616	-200.000	0.012	-0.194
-705.602	-84.749	-0.184	-0.058
-704.587	99.670	0.214	0.251
-703.572	-181.754	0.154	0.003
-702.558	-200.000	-0.018	-0.124
-701.543	195.993	0.163	-0.250
-700.529	-91.032	-0.146	-0.042
-699.514	-95.295	-0.048	0.013
-698.499	113.155	-0.272	0.333
-697.485	800.000	0.094	0.380
-696.470	-36.177	-0.294	-0.160
-695.456	652.676	-0.042	-0.109
-694.441	76.682	0.114	0.122
-693.426	-200.000	-0.028	0.206
-692.412	-118.995	0.136	-0.024
-691.397	-66.801	-0.131	-0.052
-690.383	-10.241	0.158	0.106
-689.368	-200.000	-0.026	-0.243
-688.354	-70.379	-0.443	0.169
-687.339	377.975	0.042	0.086
-686.324	96.971	0.142	-0.165
-685.310	147.786	0.079	-0.108
-684.295	21.565	0.247	-0.203
-683.281	251.105	0.083	-0.142
-682.266	-27.169	0.260	-0.153
-681.251	-200.000	-0.067	-0.307
-680.237	440.128	-0.034	0.075
-679.222	15.901	-0.050	-0.039
-678.208	-2.295	0.180	-0.127
-677.193	800.000	0.072	0.233
-676.178	81.760	0.256	0.279
-675.164	800.000	-0.032	0.093
-674.149	-136.984	0.077	0.009
-673.135	-30.741	-0.100	-0.057
-672.120	-200.000	0.034	-0.204
-671.105	800.000	-0.091	0.348
-670.091	-14.602	0.169	-0.110
-669.076	-99.026	0.084	0.022
-668.062	-103.751	-0.186	-0.044
-667.047	-137.707	0.161	-0.018
-666.032	-46.529	-0.476	-0.235
-665.018	86.871	-0.159	-0.177
-664.003	-51.318	0.130	-0.061
-662.989	-85.603	-0.121	0.038
-661.974	197.671	-0.061	-0.093
-660.959	451.317	-0.141	-0.314
-659.945	31.537	0.143	-0.124
-658.930	800.000	0.070	-0.226
-657.916	-23.125	-0.049	-0.030
-656.901	127.942	-0.185	0.237
-655.886	348.790	-0.101	0.201
-654.872	275.295	0.146	-0.261
-653.857	68.472	0.182	-0.188
-652.843	-70.563	0.119	-0.045
-651.828	-200.000	0.039	0.258
-650.814	763.441	0.053	-0.144
-649.799	354.579	0.051	0.102
-648.784	68.743	-0.142	0.147
-647.770	-200.000	0.021	-0.166
-646.755	800.000	-0.067	0.195
-645.741	34.045	-0.265	-0.233
-644.726	-5.346	0.235	-0.163
-643.711	-200.000	0.006	0.230
-642.697	-92.427	-0.149	0.042
-641.682	276.830	0.071	-0.127
-640.668	-136.344	0.158	0.019
-639.653	-19.100	-0.046	-0.029
-638.638	8.538	-0.037	-0.028
-637.624	276.659	-0.074	0.132
-636.609	-35.718	-0.324	-0.177
-635.595	-200.000	-0.017	0.111
-634.580	-90.605	-0.138	0.040
-633.565	-105.749	-0.069	0.016
-632.551	-91.069	-0.292	0.085
-631.536	34.464	0.088	-0.077
-630.522	-200.000	0.005	0.165
-629.507	71.535	-0.103	0.108
-628.492	-69.614	-0.311	-0.120
-627.478	-200.000	0.035	0.273
-626.463	-28.210	0.056	0.032
-625.449	-13.376	-0.088	0.057
-624.434	-11.223	-0.083	0.055
-623.419	-18.548	0.094	-0.059
-622.405	163.560	-0.145	0.206
-621.390	-200.000	0.011	-0.118
-620.376	98.746	0.203	0.236
-619.361	318.963	0.105	-0.200
-618.346	-138.147	-0.292	0.033
-617.332	-122.596	0.104	0.017
-616.317	-200.000	-0.004	-0.033
-615.303	-200.000	0.025	0.111
-614.288	281.260	-0.122	0.219
-613.273	-123.149	-0.373	-0.060
-612.259	600.360	0.103	0.257
-611.244	-200.000	0.011	0.108
-610.230	66.169	-0.137	0.140
-609.215	12.948	0.068	-0.053
-608.201	-200.000	-0.043	-0.214
-607.186	51.146	0.092	-0.088
-606.171	-200.000	0.020	0.115
-605.157	-161.373	-0.246	0.013
-604.142	57.914	0.057	0.056
-603.128	86.197	-0.185	-0.205
-602.113	184.980	-0.121	0.180
-601.098	-13.397	-0.145	0.094
-600.084	-103.075	0.173	0.041
-599.069	717.943	0.026	0.069
-598.055	-106.242	-0.226	-0.051
-597.040	-126.691	0.217	-0.032
-596.025	-200.000	-0.062	-0.348
-595.011	-200.000	0.051	-0.410
-593.996	-43.913	-0.090	-0.046
-592.982	-65.816	0.414	-0.166
-591.967	800.000	-0.037	0.122
-590.952	-138.641	0.433	0.048
-589.938	-101.856	-0.089	-0.022
-588.923	-200.000	0.030	-0.181
-587.909	31.513	-0.117	0.101
-586.894	-39.672	-0.132	-0.069
-585.879	-104.214	-0.173	-0.040
-584.865	-200.000	0.000	-0.203
-583.850	55.156	0.190	0.185
-582.836	44.601	-0.025	-0.023
-581.821	-129.827	-0.107	-0.015
-580.806	-53.884	-0.198	-0.091
-579.792	-200.000	-0.055	-0.262
-578.777	-88.956	0.065	0.019
-577.763	531.686	0.114	-0.272
-576.748	-200.000	0.040	-0.414
-575.733	53.915	0.141	0.136
-574.719	-107.392	0.238	0.052
-573.704	-104.277	0.114	-0.027
-572.690	80.494	-0.129	-0.139
-571.675	19.410	-0.126	-0.102
-570.661	-129.842	-0.187	0.026
-569.646	-95.560	-0.161	0.043
-568.631	-33.708	0.192	0.106
-567.617	41.991	-0.155	-0.141
-566.602	-114.102	0.384	-0.075
-565.588	-83.598	-0.190	-0.061
-564.573	-98.995	0.152	0.039
-563.558	149.171	-0.085	0.116
-562.544	-141.974	0.261	0.026
-561.529	-11.399	0.263	0.174
-560.515	-200.000	0.020	-0.128
-559.500	5.867	-0.199	-0.148
-558.485	-0.576	-0.352	0.250
-557.471	800.000	-0.065	0.261
-556.456	27.276	0.241	-0.203
-555.442	800.000	-0.024	-0.073
-554.427	-66.759	0.195	-0.077
-553.412	-200.000	-0.028	0.540
-552.398	7.956	0.253	0.191
-551.383	-200.000	0.008	-0.247
-550.369	-44.042	0.260	0.131
-549.354	-200.000	0.004	0.185
-548.339	-87.788	0.168	0.051
-547.325	-39.401	-0.092	0.049
-546.310	-166.048	-0.249	-0.011
-545.296	237.603	0.225	-0.374
-544.281	7.734	-0.103	-0.077
-543.266	-130.135	0.125	-0.017
-542.252	-128.376	0.353	-0.050
-541.237	800.000	-0.096	0.376
-540.223	-86.523	-0.131	-0.040
-539.208	-58.490	-0.220	0.096
-538.193	455.934	0.066	0.146
-537.179	153.106	0.065	0.089
-536.164	26.067	0.032	0.027
-535.150	363.263	-0.062	-0.125
-534.135	607.198	0.101	-0.253
-533.121	238.204	0.071	0.119
-532.106	556.105	0.100	0.242
-531.091	-72.690	-0.217	-0.080
-530.077	75.679	0.053	0.056
-529.062	2.662	0.249	0.181
-528.048	441.681	-0.096	-0.210
-527.033	-200.000	-0.006	0.067
-526.018	34.531	0.082	0.072
-525.004	-29.864	-0.160	-0.091
-523.989	-9.974	0.228	0.152
-522.975	-11.154	-0.113	-0.075
-521.960	17.698	-0.120	0.095
-520.945	707.825	0.035	0.093
-519.931	-96.037	0.130	-0.035
-518.916	-200.000	-0.012	-0.122
-517.902	-98.426	0.019	-0.005
-516.887	-19.502	-0.188	-0.116
-515.872	192.899	0.050	-0.076
-514.858	-12.179	-0.099	0.065
-513.843	148.129	-0.236	0.319
-512.829	-39.860	-0.320	0.168
-511.814	-29.726	0.126	-0.072
-510.799	-200.000	-0.011	0.156
-509.785	-200.000	0.023	-0.175
-508.770	800.000	0.084	-0.258
-507.756	-4.127	0.261	-0.181
-506.741	24.975	-0.085	0.071
-505.726	63.780	0.117	0.118
-504.712	181.720	0.136	0.201
-503.697	103.243	0.322	0.378
-502.683	225.168	0.068	-0.111
-501.668	47.940	-0.123	0.115
-500.653	-167.792	0.121	0.005
-499.639	-200.000	0.072	-0.335
-498.624	800.000	0.138	-0.409
-497.610	287.169	-0.145	-0.262
-496.595	-81.609	-0.316	0.104
-495.581	53.546	0.126	-0.122
-494.566	-200.000	-0.004	-0.179
-493.551	121.358	0.065	0.082
-492.537	51.993	0.136	-0.129
-491.522	644.952	0.160	0.410
-490.508	-90.703	0.282	-0.081
-489.493	92.381	-0.134	0.152
-488.478	50.240	-0.087	-0.082
-487.464	134.370	0.031	0.040
-486.449	505.005	-0.174	-0.403
-485.435	-47.072	-0.252	-0.123
-484.420	-14.623	0.157	-0.101
-483.405	75.264	-0.012	0.013
-482.391	-74.392	0.118	0.043
-481.376	470.492	0.084	0.189
-480.362	800.000	0.013	-0.047
-479.347	800.000	0.082	-0.306
-478.332	-25.921	0.180	-0.106
-477.318	-47.653	-0.166	-0.080
-476.303	11.944	-0.266	-0.204
-475.289	304.066	0.093	0.172
-474.274	-56.772	-0.209	0.093
-473.259	119.833	0.053	0.065
-472.245	112.714	0.100	0.121
-471.230	800.000	0.035	-0.104
-470.216	-200.000	0.011	-0.356
-469.201	-200.000	0.016	-0.115
-468.186	-200.000	-0.022	0.253
-467.172	-139.937	-0.159	-0.017
-466.157	800.000	0.028	0.092
-465.143	800.000	0.205	0.574
-464.128	131.157	0.151	0.194
-463.113	80.611	-0.155	-0.167
-462.099	-122.726	0.137	0.022
-461.084	89.870	-0.086	0.096
-460.070	-200.000	0.012	0.094
-459.055	-200.000	0.014	-0.343
-458.040	800.000	0.119	0.448
-457.026	3.611	0.097	0.071
-456.011	-101.995	-0.228	0.055
-454.997	56.386	0.061	-0.059
-453.982	12.235	-0.108	0.083
-452.968	-200.000	-0.025	0.272
-451.953	800.000	0.076	-0.257
-450.938	70.503	0.102	0.105
-449.924	-200.000	-0.014	0.146
-448.909	800.000	0.012	0.037
-447.895	-16.681	0.242	-0.153
-446.880	-20.526	0.212	0.130
-445.865	101.107	-0.184	0.214
-444.851	51.314	0.135	-0.128
-443.836	-200.000	0.055	0.255
-442.822	-23.415	-0.212	-0.127
-441.807	24.031	0.247	-0.203
-440.792	65.162	0.036	-0.036
-439.778	-70.223	0.293	0.111
-438.763	-200.000	0.025	-0.293
-437.749	-200.000	0.010	0.167
-436.734	-44.452	-0.073	0.036
-435.719	380.015	-0.022	-0.046
-434.705	-161.133	-0.096	-0.005
-433.690	800.000	-0.040	0.145
-432.676	-104.116	-0.274	0.064
-431.661	47.283	0.039	-0.036
-430.646	50.259	-0.134	-0.126
-429.632	341.148	-0.093	-0.182
-428.617	271.375	-0.090	0.158
-427.603	-78.408	-0.186	0.064
-426.588	374.563	0.114	-0.233
-425.573	164.871	-0.261	-0.368
-424.559	0.943	0.115	0.082
-423.544	-60.977	0.353	0.149
-422.530	-200.000	-0.012	0.177
-421.515	-200.000	0.045	-0.493
-420.500	313.806	0.174	-0.327
-419.486	-200.000	0.010	-0.158
-418.471	-141.791	0.193	0.019
-417.457	-58.824	-0.243	-0.105
-416.442	-17.795	0.226	0.141
-415.428	23.788	0.011	0.009
-414.413	800.000	0.066	-0.255
-413.398	75.412	-0.186	-0.196
-412.384	5.363	-0.160	-0.118
-411.369	-200.000	0.004	0.041
-410.355	143.213	0.156	0.207
-409.340	30.797	0.344	0.294
-408.325	-127.048	-0.262	0.038
-407.311	800.000	-0.083	0.262
-406.296	-200.000	-0.020	-0.309
-405.282	-75.641	-0.252	-0.089
-404.267	-94.858	-0.123	0.033
-403.252	-117.434	0.184	-0.033
-402.238	188.228	-0.189	0.282
-401.223	-106.410	0.133	-0.030
-400.209	-40.200	-0.256	0.133
-399.194	800.000	-0.054	-0.174
-398.179	-183.615	-0.046	0.001
-397.165	-200.000	-0.001	-0.076
-396.150	421.959	0.041	0.088
-395.136	20.316	0.209	-0.169
-394.121	-106.725	-0.228	0.050
-393.106	20.533	-0.135	0.109
-392.092	-128.556	0.160	0.023
-391.077	12.048	-0.156	-0.120
-390.063	-112.680	0.287	-0.057
-389.048	-96.875	0.268	-0.070
-388.033	193.323	0.036	0.054
-387.019	-109.358	-0.195	0.041
-386.004	-79.216	0.510	0.172
-384.990	187.566	0.020	0.029
-383.975	214.110	-0.068	0.108
-382.960	499.355	-0.035	-0.080
-381.946	-79.497	0.306	-0.103
-380.931	-31.788	-0.146	-0.081
-379.917	-64.883	-0.095	0.038
-378.902	196.565	-0.101	-0.153
-377.888	160.007	0.063	-0.088
-376.873	419.780	0.164	0.349
-375.858	-97.777	0.085	0.022
-374.844	-200.000	-0.001	0.128
-373.829	5.480	-0.176	0.129
-372.815	459.456	-0.115	0.254
-371.800	800.000	-0.091	-0.326
-370.785	-94.717	-0.137	-0.037
-369.771	-102.676	0.232	-0.055
-368.756	800.000	-0.068	-0.202
-367.742	-172.473	-0.105	0.003
-366.727	167.715	0.261	0.370
-365.712	-63.108	-0.133	-0.055
-364.698	-33.309	-0.075	0.041
-363.683	315.292	0.096	0.181
-362.669	42.167	0.131	0.118
-361.654	347.984	-0.072	-0.141
-360.639	107.281	0.110	-0.130
-359.625	484.332	0.175	0.397
-358.610	-25.260	0.133	-0.078
-357.596	-59.672	-0.200	-0.085
-356.581	25.591	-0.177	-0.146
-355.566	134.024	0.090	0.116
-354.552	-14.402	0.133	0.085
-353.537	-35.014	-0.366	-0.199
-352.523	-41.502	-0.083	0.042
-351.508	13.714	-0.076	0.058
-350.493	-73.516	0.280	0.102
-349.479	44.483	0.072	-0.066
-348.464	90.190	0.068	0.076
-347.450	-91.318	0.130	-0.037
-346.435	-200.000	0.026	-0.230
-345.420	-74.908	0.379	-0.135
-344.406	800.000	0.033	0.094
-343.391	236.240	0.091	0.151
-342.377	175.745	-0.087	0.126
-341.362	-175.608	-0.433	-0.012
-340.348	-200.000	-0.037	0.367
-339.333	176.304	-0.167	0.242
-338.318	87.611	0.058	0.064
-337.304	432.417	-0.033	-0.071
-336.289	800.000	-0.067	0.249
-335.275	800.000	0.114	0.361
-334.260	-23.339	0.246	0.147
-333.245	-200.000	-0.002	0.256
-332.231	67.174	-0.093	-0.094
-331.216	254.668	0.148	-0.252
-330.202	101.776	-0.078	-0.090
-329.187	-50.551	-0.343	0.161
-328.172	800.000	-0.020	0.072
-327.158	-15.106	-0.026	-0.016
-326.143	597.743	0.048	-0.119
-325.129	-42.876	-0.156	0.079
-324.114	800.000	-0.041	-0.170
-323.099	152.074	-0.117	0.158
-322.085	-186.528	0.176	-0.002
-321.070	194.023	0.067	0.101
-320.056	481.398	-0.034	0.078
-319.041	-59.858	-0.236	0.100
-318.026	337.766	0.075	-0.146
-317.012	-151.395	0.216	-0.016
-315.997	-102.969	0.470	-0.111
-314.983	177.222	0.050	0.072
-313.968	-138.316	-0.128	0.014
-312.953	239.912	-0.017	-0.028
-311.939	182.269	0.213	0.312
-310.924	27.727	-0.331	0.277
-309.910	-145.834	0.052	0.005
-308.895	136.421	0.269	-0.349
-307.880	-12.548	0.177	-0.115
-306.866	64.250	-0.222	-0.222
-305.851	-64.864	-0.133	-0.053
-304.837	800.000	-0.106	0.317
-303.822	-56.581	-0.115	0.051
-302.807	-84.146	0.384	0.121
-301.793	800.000	0.077	-0.308
-300.778	-175.332	-0.199	-0.005
-299.764	-200.000	0.031	-0.389
-298.749	-37.108	0.152	0.081
-297.735	-68.853	-0.099	0.038
-296.720	-200.000	-0.044	0.320
-295.705	299.386	-0.181	-0.331
-294.691	176.386	-0.136	-0.196
-293.676	264.288	0.255	0.441
-292.662	-200.000	0.019	0.104
-291.647	-85.498	0.256	0.079
-290.632	222.965	0.201	0.321
-289.618	-200.000	0.013	-0.199
-288.603	-200.000	0.011	0.081
-287.589	205.717	0.249	0.385
-286.574	45.491	0.194	0.178
-285.559	81.731	-0.101	-0.108
-284.545	-106.547	-0.201	0.045
-283.530	-200.000	-0.034	0.239
-282.516	70.763	0.223	0.230
-281.501	-10.175	0.220	0.145
-280.486	800.000	-0.104	-0.441
-279.472	75.722	-0.251	-0.263
-278.457	-150.240	-0.136	-0.010
-277.443	262.504	-0.118	-0.203
-276.428	-51.590	-0.063	-0.029
-275.413	-97.517	0.328	-0.085
-274.399	-107.312	-0.156	0.034
-273.384	-200.000	0.053	-0.256
-272.370	94.244	-0.282	-0.317
-271.355	800.000	-0.056	0.195
-270.340	-65.760	-0.182	0.072
-269.326	-200.000	0.031	-0.451
-268.311	-200.000	0.015	-0.182
-267.297	20.348	-0.215	0.172
-266.282	26.726	0.094	0.078
-265.267	-200.000	-0.018	0.123
-264.253	-86.645	-0.431	-0.131
-263.238	228.434	0.097	-0.156
-262.224	-158.956	-0.122	0.007
-261.209	-81.983	0.123	0.040
-260.195	-110.639	-0.348	-0.071
-259.180	-22.309	0.266	-0.160
-258.165	176.312	-0.240	0.346
-257.151	702.137	0.013	-0.035
-256.136	367.825	0.077	-0.154
-255.122	236.718	-0.299	-0.491
-254.107	-104.993	0.276	-0.063
-253.092	326.648	0.054	-0.103
-252.078	111.914	0.042	0.050
-251.063	132.443	-0.140	0.179
-250.049	-49.701	-0.227	0.107
-249.034	-106.794	-0.341	-0.075
-248.019	-127.972	-0.169	0.024
-247.005	800.000	-0.017	-0.063
-245.990	1.673	-0.166	-0.119
-244.976	-127.450	0.183	-0.026
-243.961	30.749	0.134	-0.114
-242.946	-70.796	-0.175	-0.066
-241.932	-200.000	0.036	0.185
-240.917	-78.591	0.126	0.043
-239.903	29.373	-0.217	-0.183
-238.888	-200.000	-0.015	-0.290
-237.873	1.327	0.255	-0.182
-236.859	115.272	-0.071	0.086
-235.844	-57.367	0.311	-0.135
-234.830	-200.000	0.035	0.185
-233.815	-191.377	-0.093	0.001
-232.800	291.799	-0.065	0.117
-231.786	-154.536	-0.266	-0.018
-230.771	-112.866	0.185	-0.036
-229.757	-132.989	0.182	-0.023
-228.742	-46.777	0.234	-0.114
-227.727	-80.442	0.169	-0.056
-226.713	-136.070	0.276	-0.032
-225.698	-88.062	-0.263	0.078
-224.684	198.976	-0.085	0.129
-223.669	-200.000	-0.041	-0.300
-222.655	398.703	0.027	-0.055
-221.640	457.331	-0.247	0.543
-220.625	134.875	0.047	-0.060
-219.611	800.000	0.089	-0.343
-218.596	-129.160	-0.280	0.039
-217.582	-82.803	-0.156	-0.050
-216.567	800.000	-0.112	-0.482
-215.552	800.000	0.031	-0.116
-214.538	-102.069	0.284	-0.068
-213.523	-194.986	-0.260	0.002
-212.509	253.852	-0.057	0.097
-211.494	166.420	0.044	0.061
-210.479	108.793	-0.082	-0.097
-209.465	-59.254	0.147	-0.063
-208.450	-103.833	0.145	0.034
-207.436	-114.226	0.119	0.023
-206.421	-156.419	-0.262	0.016
-205.406	5.634	-0.184	-0.135
-204.392	-82.468	0.182	-0.059
-203.377	75.498	-0.272	0.284
-202.363	-200.000	0.064	0.313
-201.348	56.378	-0.162	0.156
-200.333	-13.871	0.222	-0.142
-199.319	-21.335	-0.455	0.275
-198.304	-127.345	0.248	0.036
-197.290	145.304	-0.097	0.129
-196.275	2.291	-0.193	0.138
-195.260	78.146	-0.166	0.175
-194.246	-28.081	0.141	0.081
-193.231	12.267	0.262	0.199
-192.217	-90.311	0.432	0.124
-191.202	-200.000	0.041	-0.302
-190.187	-27.843	-0.223	-0.128
-189.173	-76.474	-0.406	-0.141
-188.158	-19.000	0.067	0.041
-187.144	21.113	0.162	-0.130
-186.129	-101.047	-0.112	-0.027
-185.114	800.000	-0.032	0.119
-184.100	-200.000	0.003	0.373
-183.085	-70.647	0.294	-0.110
-182.071	186.967	-0.122	0.180
-181.056	29.311	0.136	0.114
-180.042	-50.206	-0.361	-0.169
-179.027	1.447	0.116	-0.082
-178.012	61.554	0.298	-0.293
-176.998	-58.259	0.033	-0.014
-175.983	-161.346	0.046	-0.002
-174.969	800.000	0.034	-0.108
-173.954	133.905	0.104	0.133
-172.939	276.865	0.149	0.262
-171.925	776.327	-0.089	-0.241
-170.910	-138.125	0.205	-0.022
-169.896	-112.318	0.092	0.018
-168.881	168.273	0.061	-0.086
-167.866	-200.000	0.001	0.320
-166.852	0.603	-0.185	-0.131
-165.837	800.000	0.140	-0.481
-164.823	218.579	-0.094	-0.149
-163.808	76.770	0.170	0.178
-162.793	-93.923	0.165	0.045
-161.779	25.247	-0.201	0.165
-160.764	800.000	0.038	-0.119
-159.750	7.154	-0.051	0.038
-158.735	-200.000	0.024	-0.456
-157.720	-200.000	0.001	0.012
-156.706	800.000	0.038	0.111
-155.691	200.684	0.030	0.046
-154.677	560.155	-0.128	-0.305
-153.662	293.400	0.105	-0.190
-152.647	-50.587	-0.324	0.151
-151.633	87.436	-0.158	0.173
-150.618	-200.000	-0.054	0.306
-149.604	-107.459	0.075	0.016
-148.589	9.377	0.302	0.226
-147.574	-32.657	-0.142	0.078
-146.560	-70.152	-0.179	-0.067
-145.545	11.779	0.115	0.087
-144.531	66.366	0.060	-0.061
-143.516	-68.689	0.372	0.142
-142.502	42.341	0.120	-0.107
-141.487	163.843	0.150	0.209
-140.472	-200.000	-0.010	-0.196
-139.458	800.000	-0.072	-0.272
-138.443	47.597	-0.231	0.213
-137.429	227.993	-0.203	0.327
-136.414	800.000	0.083	0.281
-135.399	-146.461	0.185	0.016
-134.385	-200.000	-0.010	-0.150
-133.370	457.496	-0.127	-0.278
-132.356	-200.000	-0.034	0.148
-131.341	595.182	0.016	0.040
-130.326	-24.590	0.377	-0.222
-129.312	-57.799	0.084	-0.036
-128.297	-167.397	-0.145	-0.006
-127.283	-91.756	0.198	-0.056
-126.268	520.638	0.078	0.181
-125.253	800.000	0.025	0.071
-124.239	800.000	-0.034	-0.132
-123.224	-200.000	0.017	-0.236
-122.210	183.962	0.203	0.297
-121.195	268.126	0.153	-0.265
-120.180	49.492	0.068	-0.063
-119.166	-119.422	0.239	-0.041
-118.151	-85.897	-0.483	0.148
-117.137	-124.802	0.295	0.045
-116.122	45.157	0.156	-0.142
-115.107	160.007	0.185	0.254
-114.093	-179.238	-0.336	-0.007
-113.078	-16.059	-0.182	-0.114
-112.064	-136.336	0.230	0.026
-111.049	800.000	0.164	0.460
-110.034	160.573	-0.093	0.128
-109.020	116.920	-0.076	-0.092
-108.005	-200.000	0.036	-0.203
-106.991	-125.034	-0.454	-0.069
-105.976	-33.041	0.248	0.136
-104.962	-136.152	-0.057	-0.007
-103.947	-88.922	-0.316	0.092
-102.932	330.444	0.066	0.126
-101.918	546.925	0.237	-0.559
-100.903	-200.000	0.041	0.581
-99.889	440.408	-0.072	0.154
-98.874	800.000	-0.012	0.047
-97.859	247.701	-0.135	0.226
-96.845	-200.000	-0.011	0.295
-95.830	-141.450	-0.176	0.018
-94.816	-12.990	0.187	-0.120
-93.801	-102.994	0.215	0.050
-92.786	37.558	0.106	0.093
-91.772	-56.725	-0.075	-0.033
-90.757	125.724	-0.166	0.206
-89.743	-154.971	-0.268	0.017
-88.728	-162.065	-0.179	-0.009
-87.713	20.889	0.143	0.114
-86.699	454.275	-0.176	0.384
-85.684	234.113	-0.044	-0.071
-84.670	-200.000	0.001	0.083
-83.655	37.133	0.140	-0.122
-82.640	-200.000	0.023	-0.108
-81.626	-90.637	-0.237	0.067
-80.611	-137.119	0.283	-0.032
-79.597	-122.234	0.238	0.038
-78.582	-135.010	0.295	0.035
-77.567	-110.365	-0.260	-0.053
-76.553	-41.462	-0.147	0.074
-75.538	-72.368	0.231	-0.084
-74.524	54.901	-0.107	0.102
-73.509	-200.000	-0.002	0.102
-72.494	19.237	-0.148	0.117
-71.480	-8.303	0.105	-0.070
-70.465	49.877	0.039	0.037
-69.451	217.593	-0.102	-0.160
-68.436	-200.000	0.044	0.280
-67.422	-105.838	0.115	0.026
-66.407	-31.145	0.088	0.049
-65.392	800.000	0.042	-0.116
-64.378	142.518	0.042	0.055
-63.363	-200.000	0.025	0.271
-62.349	-104.257	0.249	0.057
-61.334	129.175	-0.743	-0.934
-60.319	111.284	0.576	0.683
-59.305	519.741	-0.466	-1.075
-58.290	423.908	0.588	1.244
-57.276	800.000	0.435	1.692
-56.261	-200.000	114.320	644.549
-55.246	457.646	1512.398	3307.475
-54.232	143.462	2688.635	3523.349
-53.217	93.269	2328.619	2592.070
-52.203	33.715	2075.353	1776.159
-51.188	29.063	1990.060	1661.227
-50.173	27.676	1972.747	1634.287
-49.159	45.938	2030.335	1848.445
-48.144	44.751	2047.257	1852.989
-47.130	29.662	2005.528	1679.314
-46.115	27.310	1995.137	1649.255
-45.100	27.233	1992.670	1646.454
-44.086	27.273	1989.922	1644.475
-43.071	27.167	1987.832	1641.725
-42.057	27.125	1986.163	1639.902
-41.042	27.190	1983.551	1638.273
-40.027	27.216	1981.757	1636.957
-39.013	27.173	1979.730	1634.831
-37.998	27.200	1978.251	1633.789
-36.984	27.214	1976.441	1632.353
-35.969	27.261	1974.277	1630.926
-34.954	27.271	1972.839	1629.757
-33.940	27.241	1971.269	1628.128
-32.925	27.286	1969.457	1626.973
-31.911	27.306	1967.720	1625.647
-30.896	27.352	1965.891	1624.490
-29.881	27.303	1964.836	1623.113
-28.867	27.377	1962.820	1622.038
-27.852	27.358	1961.023	1620.322
-26.838	27.338	1959.484	1618.807
-25.823	27.340	1957.995	1617.535
-24.809	27.371	1955.949	1616.058
-23.794	27.341	1954.673	1614.670
-22.779	27.386	1951.930	1612.738
-21.765	27.361	1951.155	1611.816
-20.750	27.353	1948.819	1609.745
-19.736	27.318	1947.893	1608.609
-18.721	27.350	1945.878	1607.160
-17.706	27.333	1944.410	1605.738
-16.692	27.451	1942.167	1604.867
-15.677	27.379	1940.538	1602.823
-14.663	27.378	1939.610	1601.982
-13.648	27.324	1939.096	1601.013
-12.633	27.280	1937.750	1599.455
-11.619	27.286	1936.215	1598.173
-10.604	27.380	1934.134	1597.222
-9.590	27.298	1933.439	1595.863
-8.575	27.337	1931.880	1594.855
-7.560	27.248	1931.207	1593.454
-6.546	27.349	1929.280	1592.691
-5.531	27.310	1928.248	1591.435
-4.517	27.272	1926.896	1589.924
-3.502	27.331	1925.784	1589.457
-2.487	27.264	1925.043	1588.197
-1.473	27.324	1923.371	1587.275
-0.458	27.355	1918.820	1583.727
0.556	25.542	1898.869	1556.801
1.571	21.638	1880.201	1507.817
2.586	17.926	1902.980	1493.539
3.600	17.084	1938.606	1513.858
4.615	17.182	1933.441	1510.562
5.629	16.054	1840.587	1428.342
6.644	13.132	1736.571	1324.104
7.659	11.433	1705.347	1286.797
8.673	11.209	1702.632	1282.873
9.688	11.154	1701.347	1281.361
10.702	11.123	1699.863	1279.884
11.717	11.124	1696.046	1276.905
12.731	11.310	1694.701	1277.241
13.746	13.472	1699.385	1297.616
14.761	16.434	1704.863	1324.937
15.775	17.656	1705.979	1335.273
16.790	17.443	1703.449	1331.502
17.804	16.262	1701.042	1320.273
18.819	15.306	1697.037	1309.584
19.834	14.662	1694.371	1302.393
20.848	14.264	1692.813	1297.976
21.863	14.041	1691.239	1294.915
22.877	13.824	1689.926	1292.107
23.892	13.561	1688.362	1288.754
24.907	13.532	1686.918	1287.309
25.921	13.400	1686.219	1285.633
26.936	13.437	1685.400	1285.188
27.950	13.489	1684.224	1284.578
28.965	13.464	1683.818	1283.963
29.980	13.481	1683.429	1283.685
30.994	13.579	1682.113	1283.322
32.009	13.705	1680.630	1283.057
33.023	13.661	1679.607	1281.823
34.038	13.680	1678.888	1281.303
35.053	13.633	1677.989	1280.146
36.067	13.656	1675.977	1278.674
37.082	13.523	1675.502	1277.166
38.096	13.693	1673.752	1277.032
39.111	13.632	1673.247	1276.066
40.126	13.637	1672.769	1275.628
41.140	13.744	1671.214	1275.147
42.155	13.517	1669.855	1272.254
43.169	13.506	1668.518	1271.042
44.184	13.280	1668.223	1268.972
45.199	13.375	1666.428	1268.220
46.213	13.324	1665.229	1266.803
47.228	13.385	1663.948	1266.181
48.242	13.553	1662.481	1266.239
49.257	13.498	1661.951	1265.304
50.271	13.558	1660.357	1264.433
51.286	13.573	1659.113	1263.491
52.301	13.507	1657.531	1261.674
53.315	13.469	1656.392	1260.407
54.330	13.447	1655.107	1259.147
55.344	13.470	1653.265	1257.808
56.359	13.403	1651.717	1256.010
57.374	13.447	1650.766	1255.514
58.388	13.506	1649.479	1254.866
59.403	13.414	1648.111	1253.022
60.417	13.364	1646.921	1251.627
61.432	13.302	1645.996	1250.344
62.447	13.365	1644.763	1249.773
63.461	13.401	1643.445	1248.931
64.476	13.363	1641.977	1247.418
65.490	13.306	1641.273	1246.345
66.505	13.226	1640.329	1244.919
67.520	13.342	1638.706	1244.447
68.534	13.283	1638.459	1243.707
69.549	13.271	1637.205	1242.555
70.563	13.332	1635.787	1241.823
71.578	13.308	1634.726	1240.727
72.593	13.209	1633.862	1239.224
73.607	13.232	1632.261	1238.069
74.622	13.189	1631.362	1236.956
75.636	13.201	1630.571	1236.334
76.651	13.268	1629.506	1235.923
77.666	13.197	1628.752	1234.712
78.680	13.219	1628.096	1234.269
79.695	13.336	1626.955	1234.164
80.709	13.283	1626.001	1232.935
81.724	13.270	1625.486	1232.341
82.739	13.347	1624.462	1232.032
83.753	13.373	1623.670	1231.517
84.768	13.471	1622.600	1231.323
85.782	13.484	1622.096	1230.925
86.797	13.572	1621.031	1230.667
87.812	13.552	1619.958	1229.588
88.826	13.606	1618.363	1228.669
89.841	13.484	1617.674	1227.135
90.855	13.463	1617.074	1226.421
91.870	13.550	1615.228	1225.554
92.884	13.487	1614.849	1224.690
93.899	13.579	1613.502	1224.244
94.914	13.567	1612.309	1223.138
95.928	13.607	1610.854	1222.222
96.943	13.689	1609.547	1221.726
97.957	13.593	1608.248	1219.929
98.972	13.551	1606.533	1218.209
99.987	13.551	1605.424	1217.259
101.001	13.577	1603.424	1215.825
102.016	13.620	1601.505	1214.578
103.030	13.583	1600.888	1213.735
104.045	13.610	1599.559	1212.814
105.060	13.556	1597.856	1211.020
106.074	13.591	1596.293	1209.986
107.089	13.514	1594.620	1208.047
108.103	13.430	1593.505	1206.485
109.118	13.378	1591.912	1204.790
110.133	13.369	1590.392	1203.468
111.147	13.374	1589.170	1202.477
112.162	13.253	1588.144	1200.717
113.176	13.336	1586.389	1199.882
114.191	13.464	1584.810	1199.509
115.206	13.464	1584.012	1198.799
116.220	13.481	1582.430	1197.620
117.235	13.458	1580.720	1196.053
118.249	13.355	1580.130	1194.757
119.264	13.336	1578.663	1193.403
120.279	13.358	1577.479	1192.566
121.293	13.429	1575.453	1191.437
122.308	13.321	1574.255	1189.648
123.322	13.342	1572.493	1188.366
124.337	13.316	1571.016	1186.954
125.352	13.282	1569.786	1185.676
126.366	13.370	1568.721	1185.398
127.381	13.309	1567.578	1183.992
128.395	13.305	1566.021	1182.681
129.410	13.345	1564.743	1181.898
130.424	13.384	1563.010	1180.767
131.439	13.334	1562.157	1179.659
132.454	13.355	1560.852	1178.716
133.468	13.375	1559.322	1177.598
134.483	13.396	1557.872	1176.553
135.497	13.387	1556.542	1175.379
136.512	13.454	1554.901	1174.513
137.527	13.549	1553.435	1173.971
138.541	13.411	1552.742	1172.371
139.556	13.501	1551.126	1171.681
140.570	13.478	1549.146	1169.919
141.585	13.564	1548.021	1169.573
142.600	13.586	1546.810	1168.709
143.614	13.706	1545.600	1168.541
144.629	13.625	1544.870	1167.310
145.643	13.675	1542.945	1166.106
146.658	13.711	1541.652	1165.278
147.673	13.744	1539.991	1164.154
148.687	13.562	1538.988	1162.014
149.702	13.653	1537.336	1161.300
150.716	13.602	1535.705	1159.608
151.731	13.643	1534.088	1158.574
152.746	13.556	1532.910	1156.975
153.760	13.576	1531.603	1156.024
154.775	13.601	1530.051	1154.922
155.789	13.722	1528.778	1154.705
156.804	13.647	1528.286	1153.711
157.819	13.653	1526.753	1152.488
158.833	13.704	1525.229	1151.596
159.848	13.787	1524.291	1151.360
160.862	13.742	1523.391	1150.265
161.877	13.807	1521.893	1149.485
162.892	13.815	1520.282	1148.218
163.906	13.729	1518.908	1146.484
164.921	13.695	1517.791	1145.305
165.935	13.649	1517.144	1144.396
166.950	13.665	1516.107	1143.626
167.964	13.802	1514.859	1143.524
168.979	13.787	1513.663	1142.420
169.994	13.793	1513.003	1141.861
171.008	13.724	1512.450	1140.871
172.023	13.788	1510.712	1139.900
173.037	13.840	1509.786	1139.454
174.052	13.854	1508.712	1138.637
175.067	13.848	1507.466	1137.554
176.081	13.911	1506.035	1136.811
177.096	13.775	1504.891	1134.915
178.110	13.819	1503.729	1134.235
179.125	13.728	1502.595	1132.658
180.140	13.786	1500.996	1131.749
181.154	13.874	1500.061	1131.548
182.169	13.934	1498.818	1130.918
183.183	13.850	1498.318	1129.866
184.198	13.992	1496.764	1129.558
185.213	13.899	1495.975	1128.235
186.227	13.963	1494.881	1127.743
187.242	14.026	1493.412	1126.964
188.256	14.095	1492.481	1126.628
189.271	14.054	1491.784	1125.726
190.286	14.210	1490.285	1125.545
191.300	14.112	1489.018	1123.826
192.315	13.840	1488.273	1121.329
193.329	13.814	1486.588	1119.784
194.344	13.784	1485.519	1118.679
195.359	13.843	1484.525	1118.228
196.373	13.913	1483.933	1118.152
197.388	13.873	1482.616	1116.794
198.402	14.052	1481.511	1117.066
199.417	14.113	1480.267	1116.438
200.432	14.231	1479.520	1116.567
201.446	14.250	1478.609	1115.908
202.461	14.280	1477.500	1115.177
203.475	14.307	1476.166	1114.250
204.490	14.371	1475.092	1113.768
205.504	14.204	1474.533	1112.131
206.519	14.236	1473.326	1111.341
207.534	14.278	1471.685	1110.283
208.548	14.204	1470.517	1108.810
209.563	14.159	1470.143	1108.127
210.577	14.184	1468.730	1107.131
211.592	14.218	1467.857	1106.606
212.607	14.228	1467.213	1106.084
213.621	14.383	1466.449	1106.439
214.636	14.492	1465.341	1106.228
215.650	14.420	1464.742	1105.205
216.665	14.464	1463.334	1104.335
217.680	14.416	1462.656	1103.408
218.694	14.380	1461.908	1102.504
219.709	14.552	1460.717	1102.648
220.723	14.528	1459.595	1101.548
221.738	14.473	1458.837	1100.515
222.753	14.438	1458.024	1099.572
223.767	14.539	1456.975	1099.350
224.782	14.501	1456.503	1098.643
225.796	14.542	1454.924	1097.624
226.811	14.591	1454.461	1097.505
227.826	14.691	1453.818	1097.579
228.840	14.626	1452.725	1096.231
229.855	14.504	1451.981	1094.770
230.869	14.554	1450.176	1093.640
231.884	14.558	1449.612	1093.142
232.899	14.530	1448.684	1092.160
233.913	14.494	1447.584	1091.003
234.928	14.524	1445.822	1089.771
235.942	14.545	1444.728	1088.992
236.957	14.542	1443.686	1088.087
237.972	14.517	1442.667	1087.063
238.986	14.581	1441.290	1086.342
240.001	14.580	1440.610	1085.726
241.015	14.587	1439.428	1084.789
242.030	14.561	1438.351	1083.712
243.045	14.655	1437.559	1083.631
244.059	14.654	1436.764	1082.925
245.074	14.688	1435.734	1082.273
246.088	14.671	1435.052	1081.555
247.103	14.715	1434.241	1081.130
248.117	14.833	1433.454	1081.208
249.132	14.779	1432.790	1080.259
250.147	14.878	1432.155	1080.328
251.161	14.888	1431.804	1080.033
252.176	15.047	1430.763	1080.175
253.190	15.026	1430.082	1079.431
254.205	15.065	1429.176	1078.906
255.220	15.142	1427.835	1078.290
256.234	15.180	1427.182	1077.946
257.249	15.242	1426.333	1077.609
258.263	15.115	1425.587	1076.136
259.278	15.124	1424.774	1075.481
260.293	15.209	1423.623	1075.065
261.307	15.168	1422.848	1074.119
262.322	15.232	1422.575	1074.230
263.336	15.240	1421.606	1073.453
264.351	15.238	1420.616	1072.597
265.366	15.299	1419.595	1072.126
266.380	15.270	1418.404	1070.943
267.395	15.376	1417.233	1070.640
268.409	15.348	1416.247	1069.626
269.424	15.276	1415.858	1068.778
270.439	15.280	1414.565	1067.734
271.453	15.364	1412.980	1066.973
272.468	15.334	1412.430	1066.272
273.482	15.299	1412.133	1065.732
274.497	15.221	1411.123	1064.380
275.512	15.247	1409.873	1063.512
276.526	15.294	1409.075	1063.108
277.541	15.345	1407.751	1062.340
278.555	15.388	1407.095	1062.023
279.570	15.277	1406.539	1060.808
280.585	15.373	1405.742	1060.724
281.599	15.371	1404.774	1059.881
282.614	15.445	1403.887	1059.587
283.628	15.474	1402.732	1058.807
284.643	15.368	1401.914	1057.426
285.657	15.433	1400.835	1056.930
286.672	15.434	1399.685	1055.971
287.687	15.466	1398.706	1055.341
288.701	15.456	1397.665	1054.403
289.716	15.591	1396.702	1054.426
290.730	15.547	1396.117	1053.617
291.745	15.510	1395.480	1052.813
292.760	15.478	1394.533	1051.801
293.774	15.574	1393.173	1051.284
294.789	15.442	1392.053	1049.520
295.803	15.656	1390.761	1049.790
296.818	15.665	1390.497	1049.555
297.833	15.630	1389.361	1048.389
298.847	15.583	1388.387	1047.263
299.862	15.520	1387.685	1046.253
300.876	15.584	1386.650	1045.777
301.891	15.733	1385.656	1045.859
302.906	15.736	1384.891	1045.207
303.920	15.678	1384.350	1044.350
304.935	15.682	1383.508	1043.644
305.949	15.734	1382.700	1043.264
306.964	15.826	1381.757	1043.033
307.979	15.944	1380.818	1042.961
308.993	15.940	1379.888	1042.145
310.008	15.871	1378.962	1040.925
311.022	15.952	1377.419	1040.169
312.037	15.916	1377.051	1039.579
313.052	15.907	1376.023	1038.654
314.066	15.926	1374.985	1037.892
315.081	15.834	1373.908	1036.425
316.095	15.790	1372.698	1035.150
317.110	15.752	1372.047	1034.332
318.125	15.754	1370.855	1033.354
319.139	15.849	1369.651	1032.941
320.154	15.747	1369.017	1031.744
321.168	15.870	1367.659	1031.380
322.183	15.809	1367.031	1030.445
323.197	15.880	1365.928	1029.958
324.212	15.862	1365.229	1029.228
325.227	15.909	1364.803	1029.103
326.241	16.020	1363.236	1028.509
327.256	15.912	1362.497	1027.201
328.270	15.924	1362.108	1026.885
329.285	16.003	1360.846	1026.326
330.300	15.940	1359.775	1025.047
331.314	15.983	1359.331	1024.881
332.329	16.044	1357.910	1024.093
333.343	16.056	1357.060	1023.431
334.358	15.982	1356.318	1022.333
335.373	16.128	1355.562	1022.557
336.387	16.139	1354.575	1021.789
337.402	16.175	1354.014	1021.493
338.416	16.211	1353.245	1021.038
339.431	16.171	1352.830	1020.394
340.446	16.325	1352.038	1020.640
341.460	16.136	1351.195	1018.771
342.475	16.257	1350.142	1018.619
343.489	16.473	1349.151	1019.083
344.504	16.324	1348.196	1017.374
345.519	16.426	1347.786	1017.584
346.533	16.355	1346.743	1016.284
347.548	16.391	1345.753	1015.664
348.562	16.396	1344.884	1014.942
349.577	16.389	1344.245	1014.333
350.592	16.483	1343.349	1014.132
351.606	16.334	1342.768	1012.709
352.621	16.339	1341.844	1011.951
353.635	16.359	1340.539	1010.998
354.650	16.179	1339.740	1009.227
355.665	16.325	1338.651	1009.190
356.679	16.344	1337.094	1008.041
357.694	16.471	1336.047	1007.922
358.708	16.517	1335.008	1007.320
359.723	16.451	1334.244	1006.266
360.738	16.427	1333.413	1005.402
361.752	16.545	1332.124	1005.043
362.767	16.550	1331.129	1004.235
363.781	16.483	1330.508	1003.278
364.796	16.457	1329.785	1002.490
365.810	16.463	1328.989	1001.836
366.825	16.584	1328.012	1001.731
367.840	16.716	1327.451	1001.997
368.854	16.775	1326.457	1001.509
369.869	16.670	1326.465	1000.806
370.883	16.766	1325.813	1000.793
371.898	16.725	1324.692	999.618
372.913	16.776	1324.083	999.369
373.927	16.712	1323.195	998.232
374.942	16.705	1322.599	997.651
375.956	16.735	1321.671	997.041
376.971	16.899	1320.334	996.908
377.986	16.778	1319.872	995.759
379.000	16.827	1318.576	994.986
380.015	16.912	1317.914	994.892
381.029	16.877	1317.417	994.227
382.044	16.989	1316.896	994.401
383.059	16.998	1316.038	993.717
384.073	16.937	1315.174	992.618
385.088	16.960	1314.784	992.374
386.102	16.989	1313.945	991.823
387.117	16.989	1313.481	991.386
388.132	16.999	1312.552	990.655
389.146	17.019	1311.752	990.077
390.161	16.851	1310.763	988.264
391.175	16.965	1309.990	988.259
392.190	16.901	1309.131	987.153
393.205	17.043	1308.077	987.094
394.219	17.133	1307.005	986.722
395.234	17.160	1306.109	986.112
396.248	17.062	1305.075	984.680
397.263	17.050	1304.016	983.725
398.278	17.046	1302.327	982.338
399.292	16.997	1301.248	981.156
400.307	16.977	1300.180	980.145
401.321	17.081	1299.054	979.813
402.336	17.103	1298.199	979.205
403.350	17.010	1297.111	977.765
404.365	17.037	1296.370	977.275
405.380	17.130	1295.108	976.771
406.394	17.163	1294.271	976.243
407.409	17.200	1293.954	976.130
408.423	17.206	1293.356	975.626
409.438	17.268	1292.525	975.267
410.453	17.214	1292.097	974.550
411.467	17.285	1291.171	974.173
412.482	17.297	1290.923	973.971
413.496	17.409	1289.831	973.697
414.511	17.306	1289.393	972.691
415.526	17.475	1288.206	972.678
416.540	17.385	1287.710	971.700
417.555	17.447	1287.134	971.533
418.569	17.536	1286.552	971.517
419.584	17.450	1286.453	970.868
420.599	17.470	1285.458	970.144
421.613	96.815	1355.824	1475.632
422.628	94.796	1366.033	1475.709
