DTS Sentinel unit serial number:	SN413079Multiplexer serial number:	ORYXHardware model number:	OX4-SRSoftware version number:	ORYX F/W v4.00 Oryx Data Collector v3.7.2.0data status	okinstallation	princeton_trtdifferential loss correction	single-endedforward channel	channel 4reverse channel	N/Adate	2019/09/19time	09:53:34forward acquisition time	60.00reverse acquisition time	0.00gamma	496.2192k internal	0.2331k external	0.2331temperature offset calibration	1.0015default loss term (dB/km)	0.3790temperature slope calibration	1.0000multiplexer offset coefficient	1.0000multiplexer slope coefficient	1.0000fibre end	0.00T internal ref (°C)	23.56T ext. ref 1 (°C)	0.66T ext. ref 2 (°C)	19.42length (m)	temperature (°C)	Stokes	anti-Stokes-747.200	143.234	-0.135	0.181
-746.185	90.813	0.145	0.163
-745.171	164.229	-0.057	-0.080
-744.156	-109.539	0.381	0.081
-743.142	19.429	-0.210	-0.170
-742.127	22.775	0.110	0.090
-741.112	159.644	0.018	0.026
-740.098	-177.779	-0.262	-0.006
-739.083	-200.000	0.027	0.225
-738.069	-0.386	-0.283	0.202
-737.054	-115.809	0.243	-0.046
-736.039	800.000	0.032	-0.090
-735.025	-98.014	0.329	-0.085
-734.010	-106.997	-0.282	-0.063
-732.996	-67.412	0.264	-0.104
-731.981	20.605	0.209	0.170
-730.966	-193.113	0.330	-0.003
-729.952	290.172	-0.101	0.185
-728.937	115.089	-0.044	-0.054
-727.923	-10.322	-0.462	-0.308
-726.908	-54.686	0.089	-0.041
-725.894	-97.030	-0.168	-0.044
-724.879	543.427	-0.180	-0.432
-723.864	-200.000	-0.254	-0.000
-722.850	-200.000	0.092	-0.523
-721.835	-97.374	0.081	-0.021
-720.821	-200.000	0.012	-0.286
-719.806	-103.498	-0.171	-0.040
-718.791	-96.553	0.078	-0.021
-717.777	196.339	-0.190	-0.292
-716.762	-45.129	0.170	0.085
-715.748	-47.952	0.189	0.092
-714.733	56.117	0.016	-0.016
-713.718	800.000	-0.042	-0.154
-712.704	800.000	-0.108	-0.354
-711.689	-87.324	-0.251	-0.076
-710.675	267.855	0.062	0.109
-709.660	43.365	-0.143	-0.131
-708.645	-9.255	-0.097	-0.065
-707.631	-31.196	-0.119	-0.068
-706.616	800.000	-0.065	-0.241
-705.602	422.363	-0.035	-0.076
-704.587	-136.857	0.403	0.047
-703.572	-159.091	0.243	0.014
-702.558	-83.842	-0.238	-0.076
-701.543	117.490	-0.160	-0.198
-700.529	-95.824	0.160	-0.043
-699.514	-200.000	0.018	-0.108
-698.499	800.000	-0.050	-0.147
-697.485	87.271	0.161	-0.179
-696.470	-200.000	-0.033	-0.260
-695.456	-104.662	-0.326	0.075
-694.441	800.000	0.041	-0.166
-693.426	800.000	0.171	-0.530
-692.412	-200.000	0.038	0.187
-691.397	-200.000	-0.046	-0.246
-690.383	131.611	0.125	-0.162
-689.368	-200.000	0.048	-0.231
-688.354	28.700	0.287	0.244
-687.339	800.000	0.099	0.283
-686.324	-200.000	-0.055	-0.348
-685.310	-81.216	0.024	-0.008
-684.295	179.744	0.194	0.285
-683.281	800.000	0.034	-0.095
-682.266	800.000	0.066	-0.245
-681.251	640.866	-0.091	-0.233
-680.237	649.712	0.134	-0.344
-679.222	-63.578	-0.166	0.068
-678.208	-98.938	0.167	0.043
-677.193	-73.630	-0.163	0.060
-676.178	-22.772	0.327	-0.198
-675.164	-35.485	-0.233	0.127
-674.149	233.601	0.092	-0.153
-673.135	-52.137	-0.219	0.102
-672.120	-169.016	0.273	-0.010
-671.105	36.122	-0.219	-0.194
-670.091	-200.000	-0.071	0.327
-669.076	-118.183	0.139	-0.025
-668.062	800.000	0.072	-0.212
-667.047	33.711	-0.268	-0.233
-666.032	81.695	0.040	-0.044
-665.018	4.774	0.258	-0.190
-664.003	464.975	-0.073	-0.165
-662.989	-52.868	0.334	0.154
-661.974	48.247	-0.148	0.139
-660.959	310.884	-0.154	-0.290
-659.945	185.780	0.171	0.255
-658.930	-99.626	-0.279	-0.070
-657.916	49.489	-0.081	-0.076
-656.901	243.909	-0.038	0.064
-655.886	385.787	-0.132	-0.274
-654.872	-97.657	-0.418	0.109
-653.857	27.857	-0.044	0.038
-652.843	423.146	0.059	-0.127
-651.828	800.000	-0.030	0.125
-650.814	127.104	-0.057	-0.072
-649.799	651.232	-0.109	-0.280
-648.784	-125.184	-0.096	-0.015
-647.770	-99.822	-0.210	0.053
-646.755	-69.833	0.124	0.047
-645.741	-40.360	0.215	-0.112
-644.726	-86.676	-0.492	0.151
-643.711	126.555	-0.161	-0.204
-642.697	-200.000	-0.035	-0.276
-641.682	-24.193	0.062	0.037
-640.668	-156.587	-0.046	0.003
-639.653	-54.237	0.368	-0.168
-638.638	-104.169	-0.043	0.010
-637.624	73.884	-0.234	-0.246
-636.609	54.125	-0.218	-0.210
-635.595	-59.420	0.056	-0.024
-634.580	-200.000	0.042	0.228
-633.565	-200.000	0.004	0.218
-632.551	-200.000	0.026	0.176
-631.536	800.000	-0.037	-0.103
-630.522	-31.178	0.080	0.045
-629.507	-5.082	0.453	0.312
-628.492	85.101	-0.190	0.209
-627.478	-80.491	-0.389	0.130
-626.463	-200.000	-0.013	-0.072
-625.449	-200.000	0.006	-0.129
-624.434	-117.660	-0.227	-0.041
-623.419	-142.297	0.046	-0.005
-622.405	-200.000	-0.028	0.143
-621.390	-38.206	-0.217	0.115
-620.376	-90.820	0.117	-0.034
-619.361	-77.524	-0.159	0.055
-618.346	248.709	-0.133	0.226
-617.332	439.211	0.042	-0.092
-616.317	-200.000	-0.036	0.187
-615.303	202.852	-0.069	-0.106
-614.288	99.583	0.231	0.267
-613.273	-11.794	-0.217	-0.142
-612.259	-200.000	-0.441	0.002
-611.244	150.655	-0.065	0.088
-610.230	800.000	0.068	-0.284
-609.215	215.674	-0.048	-0.076
-608.201	-28.367	0.225	0.130
-607.186	417.649	0.114	-0.245
-606.171	77.455	-0.048	-0.051
-605.157	-5.042	-0.212	-0.146
-604.142	6.463	-0.140	0.104
-603.128	92.487	-0.199	-0.224
-602.113	-200.000	-0.012	0.272
-601.098	-200.000	-0.016	0.254
-600.084	-85.432	0.131	-0.041
-599.069	69.341	-0.367	-0.378
-598.055	-153.663	-0.059	0.004
-597.040	800.000	0.178	-0.586
-596.025	-87.944	0.190	-0.057
-595.011	-26.834	-0.106	-0.062
-593.996	666.612	-0.055	-0.143
-592.982	201.642	-0.094	0.145
-591.967	420.453	0.088	-0.189
-590.952	250.557	0.048	-0.082
-589.938	-10.526	-0.237	0.157
-588.923	-75.422	-0.328	0.117
-587.909	27.274	0.081	-0.068
-586.894	92.424	0.043	-0.049
-585.879	-158.459	-0.305	0.018
-584.865	-166.667	0.243	-0.010
-583.850	-200.000	0.009	0.055
-582.836	339.018	-0.191	-0.373
-581.821	1.911	-0.038	-0.027
-580.806	-140.891	0.115	0.012
-579.792	-200.000	-0.020	0.243
-578.777	-41.026	0.101	0.052
-577.763	-200.000	-0.020	0.099
-576.748	-22.563	0.055	0.033
-575.733	-200.000	-0.041	0.444
-574.719	-75.097	0.077	0.027
-573.704	312.599	-0.158	-0.297
-572.690	162.932	0.140	-0.197
-571.675	409.081	0.114	-0.241
-570.661	-65.313	0.171	0.069
-569.646	-200.000	-0.017	-0.239
-568.631	-57.175	-0.220	-0.097
-567.617	63.989	0.135	-0.136
-566.602	800.000	0.057	-0.248
-565.588	-200.000	-0.043	-0.294
-564.573	800.000	-0.016	0.054
-563.558	369.965	0.091	0.184
-562.544	-57.997	-0.106	0.046
-561.529	-200.000	-0.044	0.252
-560.515	-100.168	-0.097	-0.024
-559.500	-114.282	0.009	-0.002
-558.485	-200.000	0.038	0.219
-557.471	-200.000	-0.080	0.364
-556.456	112.986	-0.071	-0.086
-555.442	-167.144	0.379	-0.015
-554.427	-129.317	-0.347	0.048
-553.412	75.173	-0.198	-0.209
-552.398	800.000	-0.086	-0.250
-551.383	65.088	-0.103	0.104
-550.369	-200.000	-0.021	-0.140
-549.354	53.387	-0.070	-0.067
-548.339	-149.375	-0.052	0.004
-547.325	-100.811	-0.199	-0.049
-546.310	-200.000	0.006	-0.046
-545.296	-128.897	-0.118	-0.017
-544.281	250.474	0.058	0.098
-543.266	113.437	0.117	-0.142
-542.252	36.239	-0.223	0.196
-541.237	-200.000	0.042	0.313
-540.223	417.435	0.048	-0.102
-539.208	539.058	0.140	0.333
-538.193	-56.282	0.097	-0.043
-537.179	-36.060	0.183	0.099
-536.164	401.255	0.028	-0.058
-535.150	-104.493	-0.131	0.030
-534.135	289.658	0.071	0.129
-533.121	-41.766	-0.181	-0.093
-532.106	357.546	-0.133	-0.265
-531.091	561.881	-0.158	-0.382
-530.077	70.204	0.157	-0.161
-529.062	-200.000	0.051	-0.318
-528.048	-54.833	-0.026	-0.012
-527.033	-11.779	0.408	-0.267
-526.018	-200.000	-0.007	0.286
-525.004	-200.000	-0.004	-0.483
-523.989	-14.012	0.102	-0.066
-522.975	-62.897	0.237	-0.098
-521.960	-121.018	0.292	-0.049
-520.945	-200.000	-0.028	0.196
-519.931	-200.000	0.013	-0.087
-518.916	90.930	-0.202	0.226
-517.902	-76.146	-0.237	0.083
-516.887	-77.295	-0.188	-0.065
-515.872	800.000	0.067	-0.217
-514.858	131.645	-0.241	0.310
-513.843	465.745	0.061	0.137
-512.829	232.560	-0.094	-0.154
-511.814	-40.839	0.072	0.037
-510.799	70.016	-0.092	-0.095
-509.785	-200.000	0.025	-0.261
-508.770	-200.000	-0.038	0.220
-507.756	800.000	0.037	-0.157
-506.741	207.167	0.097	0.151
-505.726	55.248	-0.109	-0.106
-504.712	-1.928	0.120	0.084
-503.697	187.968	-0.153	0.227
-502.683	-200.000	-0.025	-0.116
-501.668	190.910	-0.157	-0.235
-500.653	-88.165	0.101	-0.030
-499.639	-24.773	0.206	-0.122
-498.624	-28.578	0.043	-0.025
-497.610	626.608	0.123	0.310
-496.595	-138.745	0.211	-0.023
-495.581	-99.296	-0.286	0.072
-494.566	-70.345	-0.043	-0.016
-493.551	-132.616	-0.118	0.015
-492.537	-200.000	0.012	-0.377
-491.522	-19.654	0.231	0.142
-490.508	-32.506	0.087	0.049
-489.493	7.554	-0.234	-0.175
-488.478	-183.688	-0.129	-0.002
-487.464	224.185	-0.064	0.103
-486.449	-21.613	-0.195	0.118
-485.435	579.067	0.052	-0.126
-484.420	-200.000	0.043	0.281
-483.405	517.448	-0.061	0.142
-482.391	-200.000	0.020	0.206
-481.376	357.101	0.128	0.254
-480.362	-124.464	-0.338	0.052
-479.347	-200.000	-0.050	-0.246
-478.332	50.697	0.128	-0.121
-477.318	-126.579	0.298	-0.044
-476.303	800.000	0.135	-0.443
-475.289	143.176	0.141	0.186
-474.274	-28.596	-0.438	-0.251
-473.259	-200.000	-0.024	-0.216
-472.245	-200.000	0.020	0.158
-471.230	-200.000	-0.003	0.025
-470.216	-143.339	0.365	0.035
-469.201	-18.329	-0.068	-0.042
-468.186	-89.128	0.058	0.017
-467.172	31.561	0.101	0.087
-466.157	16.782	0.162	-0.127
-465.143	-200.000	-0.027	0.280
-464.128	13.412	-0.212	0.163
-463.113	38.776	0.071	-0.063
-462.099	-200.000	-0.040	-0.379
-461.084	247.604	0.178	-0.299
-460.070	-14.856	-0.400	-0.255
-459.055	-19.052	-0.177	-0.110
-458.040	-200.000	0.015	0.248
-457.026	102.064	0.146	-0.170
-456.011	147.614	0.111	-0.149
-454.997	158.278	0.170	-0.235
-453.982	97.507	-0.024	0.028
-452.968	-200.000	0.067	0.505
-451.953	800.000	-0.090	0.389
-450.938	-140.917	0.196	-0.020
-449.924	316.722	-0.092	-0.173
-448.909	-22.674	0.153	-0.092
-447.895	68.278	0.117	0.119
-446.880	151.631	-0.163	0.221
-445.865	-117.637	0.182	0.033
-444.851	800.000	-0.147	0.438
-443.836	2.460	0.185	-0.133
-442.822	-14.629	0.164	0.105
-441.807	-200.000	-0.009	-0.190
-440.792	193.410	0.095	0.143
-439.778	800.000	0.023	0.069
-438.763	800.000	-0.061	0.196
-437.749	43.638	0.282	0.257
-436.734	-121.125	0.290	0.048
-435.719	148.778	-0.075	-0.101
-434.705	-200.000	-0.004	-0.288
-433.690	652.928	-0.097	0.247
-432.676	-60.591	0.064	-0.027
-431.661	-200.000	-0.020	0.463
-430.646	22.368	-0.185	-0.150
-429.632	252.422	-0.090	0.153
-428.617	-200.000	-0.012	0.060
-427.603	-166.709	0.206	0.008
-426.588	-95.242	-0.249	0.067
-425.573	-106.413	0.173	0.038
-424.559	-200.000	-0.066	-0.390
-423.544	-160.239	0.322	-0.017
-422.530	-140.430	-0.499	-0.052
-421.515	-68.250	-0.280	-0.108
-420.500	313.736	0.216	0.403
-419.486	-114.513	0.275	0.053
-418.471	636.333	0.068	-0.172
-417.457	800.000	0.073	-0.301
-416.442	-116.992	-0.102	-0.019
-415.428	-74.090	-0.191	0.069
-414.413	-61.445	0.418	0.175
-413.398	229.320	0.201	-0.327
-412.384	-39.364	-0.255	0.133
-411.369	123.938	0.130	-0.162
-410.355	-200.000	0.022	-0.114
-409.340	-200.000	0.006	0.128
-408.325	127.163	-0.127	0.160
-407.311	-200.000	0.031	-0.349
-406.296	-59.060	-0.135	-0.058
-405.282	239.557	0.111	0.184
-404.267	15.862	-0.137	0.107
-403.252	-64.559	0.232	0.094
-402.238	-77.681	-0.133	0.046
-401.223	-120.449	-0.477	0.081
-400.209	-57.893	-0.318	-0.138
-399.194	180.209	-0.099	-0.144
-398.179	800.000	0.070	0.194
-397.165	-163.747	0.306	0.014
-396.150	-24.846	0.112	0.066
-395.136	-68.234	-0.327	0.126
-394.121	800.000	0.046	-0.195
-393.106	47.175	0.264	-0.244
-392.092	-4.654	0.164	0.112
-391.077	191.654	0.049	-0.073
-390.063	170.967	-0.183	0.260
-389.048	-164.622	-0.370	0.017
-388.033	251.254	0.121	0.205
-387.019	77.762	0.259	0.274
-386.004	-152.534	-0.127	-0.009
-384.990	-15.004	0.110	-0.070
-383.975	57.167	0.178	0.172
-382.960	181.141	0.034	0.050
-381.946	-64.866	-0.100	-0.040
-380.931	-193.064	0.063	-0.001
-379.917	-133.564	-0.047	0.006
-378.902	272.292	-0.130	-0.228
-377.888	520.013	-0.134	0.312
-376.873	800.000	-0.047	0.190
-375.858	800.000	-0.137	-0.376
-374.844	189.655	0.132	0.197
-373.829	-200.000	-0.014	-0.131
-372.815	-122.452	0.312	0.050
-371.800	527.244	0.131	-0.305
-370.785	119.480	0.221	-0.272
-369.771	-200.000	0.023	0.228
-368.756	-200.000	0.023	0.362
-367.742	-112.847	-0.203	0.040
-366.727	716.809	0.058	-0.151
-365.712	151.131	-0.086	0.116
-364.698	-135.074	0.020	-0.002
-363.683	711.591	0.070	-0.184
-362.669	-93.240	0.099	-0.027
-361.654	-200.000	0.025	-0.270
-360.639	159.288	-0.076	0.105
-359.625	-100.031	0.116	-0.029
-358.610	70.203	-0.121	0.124
-357.596	-200.000	0.017	-0.105
-356.581	-140.528	-0.465	-0.048
-355.566	-200.000	-0.008	0.215
-354.552	383.790	-0.116	0.236
-353.537	75.310	0.338	0.353
-352.523	168.273	-0.074	0.105
-351.508	224.119	-0.107	-0.171
-350.493	-46.254	-0.049	0.024
-349.479	563.823	-0.102	0.246
-348.464	74.535	0.150	-0.157
-347.450	-200.000	-0.013	-0.123
-346.435	800.000	-0.044	-0.171
-345.420	25.966	0.113	-0.094
-344.406	34.749	-0.260	0.225
-343.391	-200.000	-0.010	-0.283
-342.377	-38.032	0.223	-0.118
-341.362	237.596	-0.191	0.314
-340.348	-48.267	-0.241	0.115
-339.333	30.086	-0.105	0.088
-338.318	-86.070	-0.301	-0.092
-337.304	73.578	-0.129	0.134
-336.289	-27.204	-0.178	-0.103
-335.275	-200.000	-0.005	-0.121
-334.260	762.524	-0.052	-0.141
-333.245	209.209	0.133	0.206
-332.231	-62.369	0.082	-0.034
-331.216	800.000	-0.130	-0.454
-330.202	225.042	0.172	-0.276
-329.187	150.469	-0.200	-0.269
-328.172	-0.527	0.287	-0.202
-327.158	-120.276	-0.144	0.024
-326.143	-29.469	-0.106	-0.060
-325.129	40.911	-0.150	-0.134
-324.114	-84.358	-0.204	0.064
-323.099	289.599	-0.180	0.323
-322.085	-200.000	0.016	-0.137
-321.070	70.453	0.219	0.225
-320.056	-200.000	-0.113	-0.728
-319.041	-37.153	0.168	-0.089
-318.026	800.000	-0.076	0.261
-317.012	4.031	0.221	-0.160
-315.997	184.828	-0.161	-0.236
-314.983	-39.547	0.135	-0.070
-313.968	-74.457	0.103	-0.037
-312.953	-120.866	-0.099	-0.016
-311.939	221.649	0.107	0.170
-310.924	-156.985	-0.221	0.013
-309.910	-91.961	-0.067	-0.019
-308.895	800.000	-0.092	-0.274
-307.880	800.000	0.047	0.147
-306.866	-96.584	0.110	-0.029
-305.851	-100.326	-0.122	0.030
-304.837	-200.000	0.017	0.145
-303.822	-36.438	0.062	-0.033
-302.807	-21.437	0.256	-0.155
-301.793	-200.000	-0.014	0.192
-300.778	253.138	-0.104	0.176
-299.764	70.630	-0.057	-0.059
-298.749	-200.000	0.023	-0.159
-297.735	238.770	-0.204	-0.335
-296.720	59.681	0.508	0.496
-295.705	-19.205	0.137	0.084
-294.691	800.000	0.020	0.077
-293.676	-63.778	0.265	0.107
-292.662	2.087	0.216	0.154
-291.647	-200.000	-0.044	-0.416
-290.632	-200.000	0.015	0.381
-289.618	-200.000	0.028	0.204
-288.603	666.541	-0.152	-0.387
-287.589	-117.230	-0.194	-0.035
-286.574	-60.457	0.186	-0.078
-285.559	215.140	-0.046	0.072
-284.545	-200.000	0.046	0.283
-283.530	161.270	-0.149	-0.205
-282.516	-30.060	0.371	-0.209
-281.501	800.000	0.121	-0.340
-280.486	12.684	-0.269	0.205
-279.472	-29.536	0.192	0.109
-278.457	30.955	-0.077	0.065
-277.443	89.685	0.076	-0.084
-276.428	800.000	0.056	0.205
-275.413	-200.000	-0.008	0.276
-274.399	183.030	-0.153	0.224
-273.384	-71.529	0.283	0.104
-272.370	800.000	0.025	0.071
-271.355	-131.116	0.151	0.020
-270.340	-80.977	0.202	-0.066
-269.326	800.000	0.105	-0.308
-268.311	223.098	0.123	-0.196
-267.297	-22.094	-0.033	-0.020
-266.282	-200.000	0.060	-0.382
-265.267	230.330	0.231	0.373
-264.253	377.319	0.049	0.099
-263.238	-135.551	0.294	-0.035
-262.224	-200.000	-0.016	-0.086
-261.209	-13.770	0.179	0.114
-260.195	-21.689	0.277	-0.166
-259.180	42.525	0.045	0.041
-258.165	-98.552	0.374	0.094
-257.151	-104.436	-0.165	0.038
-256.136	-200.000	-0.007	0.032
-255.122	-200.000	0.020	0.202
-254.107	800.000	-0.096	0.302
-253.092	690.228	-0.063	-0.163
-252.078	800.000	-0.026	-0.099
-251.063	7.477	-0.053	-0.039
-250.049	-200.000	0.104	0.501
-249.034	306.246	0.110	0.202
-248.019	800.000	-0.087	0.252
-247.005	-200.000	0.029	0.256
-245.990	800.000	-0.046	0.182
-244.976	111.798	-0.155	0.185
-243.961	-123.960	-0.409	0.064
-242.946	483.488	0.153	0.344
-241.932	141.021	-0.205	0.268
-240.917	26.388	0.218	0.180
-239.903	141.887	-0.209	0.274
-238.888	-76.066	0.078	-0.027
-237.873	52.712	0.144	-0.136
-236.859	800.000	0.026	-0.074
-235.844	-163.159	0.440	-0.021
-234.830	-135.608	0.249	-0.029
-233.815	381.808	-0.181	-0.367
-232.800	-89.084	-0.298	0.087
-231.786	-122.238	-0.299	-0.048
-230.771	-2.885	-0.174	-0.120
-229.757	-87.831	0.252	0.075
-228.742	-200.000	-0.018	0.317
-227.727	41.550	0.160	0.143
-226.713	-128.760	-0.272	-0.038
-225.698	276.507	0.173	-0.303
-224.684	16.163	-0.033	0.026
-223.669	-142.757	0.164	0.016
-222.655	82.532	0.213	-0.228
-221.640	13.516	0.052	-0.039
-220.625	-172.833	0.184	0.006
-219.611	-74.119	0.164	0.059
-218.596	0.018	-0.034	-0.024
-217.582	3.678	0.152	-0.110
-216.567	57.037	0.321	-0.309
-215.552	-98.790	-0.252	0.063
-214.538	77.174	0.369	-0.386
-213.523	-126.800	0.249	0.036
-212.509	-7.089	-0.149	-0.100
-211.494	-118.578	0.323	-0.056
-210.479	800.000	0.111	0.359
-209.465	621.101	0.074	-0.185
-208.450	-200.000	0.051	-0.286
-207.436	264.262	-0.117	-0.201
-206.421	201.621	-0.237	-0.359
-205.406	90.701	0.089	0.098
-204.392	-133.227	0.100	-0.012
-203.377	70.916	-0.169	-0.172
-202.363	-35.064	0.276	0.148
-201.348	-88.684	-0.048	0.014
-200.333	-124.719	-0.408	-0.062
-199.319	611.354	0.161	-0.396
-198.304	-119.230	0.371	0.064
-197.290	32.569	-0.102	-0.087
-196.275	313.308	0.138	0.256
-195.260	37.999	0.139	0.122
-194.246	226.325	0.161	0.257
-193.231	-23.670	-0.171	-0.101
-192.217	638.911	-0.024	0.061
-191.202	720.240	0.089	-0.233
-190.187	-15.336	-0.310	-0.195
-189.173	-81.969	-0.254	-0.082
-188.158	-200.000	-0.013	-0.169
-187.144	411.696	0.057	0.120
-186.129	-78.416	0.100	0.034
-185.114	63.816	0.160	0.158
-184.100	104.257	-0.119	-0.138
-183.085	291.730	0.076	-0.136
-182.071	-70.009	0.121	-0.045
-181.056	-200.000	0.009	0.151
-180.042	-200.000	0.024	0.171
-179.027	-200.000	0.020	0.253
-178.012	-29.522	0.207	0.117
-176.998	-101.797	-0.010	0.002
-175.983	78.442	-0.199	-0.209
-174.969	-17.244	0.213	0.132
-173.954	21.613	-0.059	-0.047
-172.939	-200.000	-0.003	-0.135
-171.925	288.992	0.119	0.213
-170.910	380.600	0.056	0.114
-169.896	-94.527	-0.219	-0.059
-168.881	-40.012	-0.167	0.086
-167.866	-200.000	0.009	-0.072
-166.852	488.401	-0.121	0.271
-165.837	-99.967	-0.189	-0.047
-164.823	800.000	0.059	0.251
-163.808	15.158	-0.159	-0.122
-162.793	-200.000	-0.032	0.183
-161.779	-166.585	-0.247	0.010
-160.764	-86.863	-0.332	-0.100
-159.750	178.661	-0.141	-0.203
-158.735	-22.962	-0.174	0.103
-157.720	-35.229	0.374	0.200
-156.706	-200.000	-0.033	0.176
-155.691	299.717	0.090	0.163
-154.677	243.587	0.056	0.092
-153.662	-121.577	0.094	-0.015
-152.647	92.880	0.100	0.111
-151.633	29.017	-0.308	0.257
-150.618	23.477	0.195	0.158
-149.604	-87.084	-0.292	0.087
-148.589	546.529	0.042	0.098
-147.574	-136.197	0.283	0.032
-146.560	486.790	-0.086	-0.194
-145.545	800.000	-0.062	-0.171
-144.531	59.202	0.044	-0.043
-143.516	-81.506	0.107	0.035
-142.502	87.945	0.184	0.201
-141.487	248.358	-0.032	0.053
-140.472	800.000	0.070	0.257
-139.458	229.418	0.231	-0.371
-138.443	-44.184	0.388	0.191
-137.429	-200.000	0.059	-0.257
-136.414	106.096	0.067	-0.078
-135.399	-200.000	-0.044	-0.420
-134.385	44.460	0.092	-0.083
-133.370	-80.499	-0.175	0.057
-132.356	-43.094	0.138	-0.069
-131.341	800.000	-0.025	0.071
-130.326	138.875	0.175	0.226
-129.312	-44.493	-0.332	0.163
-128.297	444.988	-0.060	0.129
-127.283	800.000	0.040	0.124
-126.268	143.390	0.147	0.192
-125.253	-32.939	-0.135	0.074
-124.239	7.388	-0.238	0.175
-123.224	462.449	-0.146	0.321
-122.210	-41.700	0.159	-0.080
-121.195	188.405	-0.117	-0.172
-120.180	-61.294	-0.130	0.054
-119.166	115.153	-0.125	0.150
-118.151	-36.177	-0.105	0.056
-117.137	104.556	0.194	0.224
-116.122	42.777	-0.149	0.134
-115.107	-200.000	-0.056	-0.445
-114.093	326.314	0.139	0.260
-113.078	37.377	-0.149	0.130
-112.064	86.397	0.212	-0.229
-111.049	16.074	0.160	0.124
-110.034	-200.000	-0.016	0.209
-109.020	800.000	-0.062	0.252
-108.005	-27.297	0.091	0.052
-106.991	-27.338	0.202	-0.115
-105.976	800.000	-0.116	-0.331
-104.962	244.064	0.022	0.036
-103.947	-143.830	0.141	-0.013
-102.932	-68.730	0.077	0.029
-101.918	-200.000	-0.002	0.013
-100.903	-200.000	-0.009	-0.107
-99.889	693.892	-0.147	0.379
-98.874	555.686	-0.017	0.040
-97.859	-200.000	-0.005	0.070
-96.845	792.672	-0.144	0.390
-95.830	-140.065	0.057	-0.006
-94.816	32.897	-0.182	-0.155
-93.801	31.300	0.159	-0.134
-92.786	-200.000	0.031	-0.230
-91.772	-74.025	0.134	0.048
-90.757	-2.033	-0.170	-0.117
-89.743	273.985	0.189	0.328
-88.728	265.779	-0.091	0.156
-87.713	-108.741	0.146	0.031
-86.699	7.653	-0.234	-0.171
-85.684	4.938	0.099	-0.071
-84.670	-200.000	-0.020	-0.128
-83.655	-38.247	-0.092	-0.048
-82.640	151.311	0.178	-0.238
-81.626	-158.880	0.289	-0.016
-80.611	-131.891	-0.099	-0.013
-79.597	-49.927	0.255	-0.119
-78.582	162.588	-0.221	-0.304
-77.567	7.141	0.182	-0.133
-76.553	800.000	0.049	0.136
-75.538	-150.458	-0.065	0.005
-74.524	-138.546	-0.221	-0.024
-73.509	-122.093	0.178	0.029
-72.494	318.764	-0.024	0.045
-71.480	3.535	0.173	0.124
-70.465	800.000	0.089	0.281
-69.451	316.429	-0.043	-0.079
-68.436	-200.000	0.048	-0.276
-67.422	-36.861	-0.113	-0.059
-66.407	144.052	0.135	-0.176
-65.392	-200.000	-0.027	0.207
-64.378	-74.883	0.082	-0.029
-63.363	70.111	-0.161	0.163
-62.349	-200.000	0.036	0.193
-61.334	16.754	-1.259	-0.976
-60.319	166.991	0.487	0.677
-59.305	-200.000	-0.223	-1.336
-58.290	196.899	0.967	1.445
-57.276	462.338	0.681	1.489
-56.261	-200.000	121.857	612.173
-55.246	381.540	1566.354	3150.681
-54.232	137.955	2751.964	3532.659
-53.217	84.609	2362.570	2533.151
-52.203	29.995	2106.483	1759.109
-51.188	25.314	2021.230	1645.070
-50.173	24.055	2005.074	1620.405
-49.159	41.110	2076.349	1837.076
-48.144	39.684	2089.343	1835.244
-47.130	25.717	2041.923	1665.377
-46.115	23.580	2030.946	1636.675
-45.100	23.526	2027.844	1633.614
-44.086	23.520	2025.444	1631.559
-43.071	23.435	2023.362	1629.031
-42.057	23.420	2020.877	1626.829
-41.042	23.416	2019.192	1625.375
-40.027	23.485	2017.095	1624.251
-39.013	23.420	2014.510	1621.511
-37.998	23.477	2013.335	1621.020
-36.984	23.426	2011.649	1619.136
-35.969	23.421	2009.691	1617.445
-34.954	23.439	2008.333	1616.460
-33.940	23.497	2006.439	1615.400
-32.925	23.636	2004.234	1614.821
-31.911	23.572	2003.177	1613.322
-30.896	23.597	2001.728	1612.324
-29.881	23.571	2000.524	1611.046
-28.867	23.652	1998.372	1609.988
-27.852	23.679	1996.589	1608.735
-26.838	23.653	1994.782	1606.980
-25.823	23.583	1992.592	1604.519
-24.809	23.550	1990.961	1602.841
-23.794	23.609	1989.314	1601.985
-22.779	23.599	1987.831	1600.635
-21.765	23.603	1986.292	1599.366
-20.750	23.539	1984.865	1597.582
-19.736	23.577	1983.350	1596.642
-18.721	23.620	1981.825	1595.737
-17.706	23.616	1980.224	1594.348
-16.692	23.604	1978.038	1592.416
-15.677	23.575	1976.845	1591.128
-14.663	23.537	1975.165	1589.381
-13.648	23.621	1973.868	1589.018
-12.633	23.561	1973.010	1587.727
-11.619	23.592	1971.420	1586.664
-10.604	23.610	1969.862	1585.508
-9.590	23.598	1968.667	1584.379
-8.575	23.496	1967.441	1582.420
-7.560	23.583	1965.933	1581.915
-6.546	23.604	1964.555	1580.935
-5.531	23.631	1963.333	1580.126
-4.517	23.616	1962.138	1578.968
-3.502	23.531	1961.222	1577.417
-2.487	23.538	1959.830	1576.295
-1.473	23.616	1958.512	1575.863
-0.458	23.761	1953.222	1572.828
0.556	22.558	1933.555	1546.470
1.571	18.564	1915.980	1497.472
2.586	14.988	1940.493	1484.823
3.600	14.209	1977.198	1505.729
4.615	14.125	1969.827	1499.223
5.629	11.086	1866.972	1394.813
6.644	4.586	1751.376	1255.962
7.659	0.996	1718.727	1203.937
8.673	0.722	1715.025	1199.067
9.688	0.641	1714.585	1198.010
10.702	0.700	1712.366	1196.819
11.717	0.576	1708.734	1193.197
12.731	0.952	1707.760	1195.379
13.746	5.956	1718.039	1242.135
14.761	12.850	1732.434	1307.272
15.775	16.528	1737.714	1340.342
16.790	17.067	1738.679	1345.247
17.804	16.212	1735.274	1335.722
18.819	15.199	1732.249	1325.267
19.834	14.617	1730.171	1318.964
20.848	14.383	1727.950	1315.308
21.863	14.143	1726.387	1312.105
22.877	13.922	1724.478	1308.803
23.892	13.755	1723.074	1306.304
24.907	13.581	1721.981	1303.990
25.921	13.508	1721.256	1302.752
26.936	13.551	1719.748	1301.835
27.950	13.470	1719.353	1300.782
28.965	13.571	1718.816	1301.055
29.980	13.668	1717.699	1300.854
30.994	13.738	1716.570	1300.434
32.009	13.678	1715.691	1299.186
33.023	13.802	1714.956	1299.479
34.038	13.702	1713.984	1297.846
35.053	13.686	1712.943	1296.815
36.067	13.645	1711.412	1295.223
37.082	13.751	1710.170	1294.997
38.096	13.647	1709.595	1293.634
39.111	13.693	1708.948	1293.388
40.126	13.720	1708.331	1293.022
41.140	13.707	1706.483	1291.410
42.155	13.591	1705.847	1289.906
43.169	13.495	1704.530	1288.050
44.184	13.538	1703.135	1287.213
45.199	13.525	1701.734	1285.945
46.213	13.528	1700.720	1285.085
47.228	13.546	1699.243	1283.998
48.242	13.622	1697.828	1283.401
49.257	13.609	1697.066	1282.611
50.271	13.643	1695.151	1281.315
51.286	13.659	1693.948	1280.415
52.301	13.688	1692.351	1279.316
53.315	13.695	1691.276	1278.448
54.330	13.640	1689.559	1276.613
55.344	13.579	1688.426	1275.171
56.359	13.572	1686.849	1273.813
57.374	13.532	1685.858	1272.643
58.388	13.641	1684.422	1272.285
59.403	13.606	1683.037	1270.861
60.417	13.493	1681.613	1268.808
61.432	13.512	1680.735	1268.179
62.447	13.457	1679.954	1267.058
63.461	13.548	1677.622	1265.877
64.476	13.472	1677.287	1264.937
65.490	13.400	1676.463	1263.653
66.505	13.545	1674.300	1263.017
67.520	13.520	1673.156	1261.849
68.534	13.585	1672.319	1261.600
69.549	13.580	1671.284	1260.667
70.563	13.536	1669.948	1259.216
71.578	13.530	1668.551	1258.009
72.593	13.488	1667.616	1256.867
73.607	13.460	1666.730	1255.876
74.622	13.453	1665.298	1254.639
75.636	13.480	1664.535	1254.153
76.651	13.454	1663.723	1253.239
77.666	13.413	1662.926	1252.215
78.680	13.377	1661.993	1251.132
79.695	13.486	1660.644	1250.825
80.709	13.424	1659.492	1249.381
81.724	13.562	1658.551	1249.602
82.739	13.540	1658.053	1248.951
83.753	13.545	1656.812	1247.939
84.768	13.565	1655.811	1247.226
85.782	13.607	1655.132	1246.924
86.797	13.696	1653.655	1246.368
87.812	13.717	1653.089	1245.987
88.826	13.652	1651.498	1244.192
89.841	13.528	1650.860	1242.673
90.855	13.595	1649.498	1242.041
91.870	13.616	1648.542	1241.367
92.884	13.623	1647.317	1240.384
93.899	13.691	1646.085	1239.854
94.914	13.708	1644.753	1238.874
95.928	13.737	1643.688	1238.175
96.943	13.707	1642.571	1236.998
97.957	13.651	1641.104	1235.369
98.972	13.670	1639.483	1234.179
99.987	13.622	1638.696	1233.123
101.001	13.728	1636.968	1232.499
102.016	13.652	1635.277	1230.556
103.030	13.645	1634.050	1229.471
104.045	13.706	1632.796	1228.869
105.060	13.676	1631.074	1227.242
106.074	13.715	1629.325	1226.108
107.089	13.684	1628.416	1225.089
108.103	13.666	1626.527	1223.426
109.118	13.529	1625.297	1221.376
110.133	13.566	1623.570	1220.247
111.147	13.583	1622.034	1219.109
112.162	13.481	1621.517	1217.862
113.176	13.551	1619.857	1217.024
114.191	13.558	1618.338	1215.822
115.206	13.654	1617.242	1215.599
116.220	13.723	1615.808	1214.918
117.235	13.573	1614.409	1212.657
118.249	13.597	1612.857	1211.561
119.264	13.575	1612.023	1210.666
120.279	13.644	1610.054	1209.589
121.293	13.574	1608.966	1208.150
122.308	13.629	1607.175	1207.097
123.322	13.608	1605.854	1205.846
124.337	13.561	1604.051	1204.046
125.352	13.555	1603.709	1203.643
126.366	13.576	1602.164	1202.527
127.381	13.609	1601.187	1201.925
128.395	13.516	1599.800	1200.107
129.410	13.650	1598.151	1199.734
130.424	13.547	1596.836	1197.896
131.439	13.602	1595.271	1197.012
132.454	13.631	1593.927	1196.105
133.468	13.642	1592.491	1195.000
134.483	13.669	1590.987	1193.960
135.497	13.658	1589.939	1192.991
136.512	13.604	1587.879	1190.951
137.527	13.659	1586.781	1190.419
138.541	13.701	1585.802	1189.881
139.556	13.700	1584.320	1188.653
140.570	13.721	1582.703	1187.487
141.585	13.720	1581.514	1186.481
142.600	13.739	1580.304	1185.605
143.614	13.798	1578.942	1184.901
144.629	13.860	1577.694	1184.300
145.643	13.852	1576.489	1183.236
146.658	13.945	1574.842	1182.556
147.673	13.941	1573.553	1181.454
148.687	13.867	1571.989	1179.653
149.702	13.821	1570.571	1178.156
150.716	13.825	1568.824	1176.766
151.731	13.738	1567.677	1175.189
152.746	13.797	1566.073	1174.300
153.760	13.819	1564.852	1173.435
154.775	13.845	1563.371	1172.403
155.789	13.802	1562.304	1171.195
156.804	13.906	1560.593	1170.547
157.819	13.903	1559.372	1169.505
158.833	13.951	1558.138	1168.815
159.848	14.044	1556.655	1168.249
160.862	14.001	1555.862	1167.252
161.877	14.024	1554.230	1166.086
162.892	14.008	1552.764	1164.764
163.906	13.851	1552.086	1163.057
164.921	13.860	1551.040	1162.234
165.935	13.986	1549.161	1161.606
166.950	13.978	1548.507	1160.950
167.964	14.027	1547.124	1160.159
168.979	13.916	1546.239	1158.613
169.994	14.027	1545.057	1158.402
171.008	13.938	1544.268	1157.085
172.023	13.977	1542.948	1156.268
173.037	14.024	1541.632	1155.502
174.052	14.108	1540.203	1154.913
175.067	14.119	1539.161	1154.107
176.081	14.053	1538.599	1153.125
177.096	13.966	1537.134	1151.324
178.110	13.996	1535.343	1150.088
179.125	14.077	1534.395	1149.837
180.140	14.030	1533.508	1148.744
181.154	14.078	1532.320	1148.087
182.169	14.094	1531.498	1147.479
183.183	14.153	1529.710	1146.442
184.198	14.115	1528.895	1145.467
185.213	14.162	1527.976	1145.001
186.227	14.192	1527.031	1144.400
187.242	14.296	1525.410	1143.801
188.256	14.339	1524.200	1143.088
189.271	14.297	1523.106	1141.876
190.286	14.274	1522.197	1140.934
191.300	14.285	1521.179	1140.144
192.315	14.173	1519.852	1138.285
193.329	14.114	1518.759	1136.959
194.344	14.114	1517.848	1136.179
195.359	14.112	1516.635	1135.154
196.373	14.226	1515.506	1134.987
197.388	14.236	1514.640	1134.312
198.402	14.302	1513.501	1133.802
199.417	14.325	1512.010	1132.743
200.432	14.388	1510.953	1132.278
201.446	14.358	1510.456	1131.604
202.461	14.438	1509.139	1131.058
203.475	14.415	1507.940	1129.908
204.490	14.470	1506.728	1129.269
205.504	14.455	1505.550	1128.188
206.519	14.512	1504.744	1127.863
207.534	14.420	1503.228	1126.012
208.548	14.454	1501.939	1125.176
209.563	14.469	1501.047	1124.506
210.577	14.440	1500.066	1123.477
211.592	14.587	1498.670	1123.320
212.607	14.537	1498.700	1122.910
213.621	14.515	1497.783	1121.974
214.636	14.629	1496.411	1121.613
215.650	14.567	1495.402	1120.341
216.665	14.559	1494.984	1119.872
217.680	14.526	1494.321	1119.059
218.694	14.678	1492.621	1118.704
219.709	14.748	1491.543	1118.266
220.723	14.731	1490.919	1117.587
221.738	14.744	1489.867	1116.786
222.753	14.663	1489.057	1115.536
223.767	14.656	1487.942	1114.557
224.782	14.688	1487.241	1114.146
225.796	14.768	1485.999	1113.651
226.811	14.684	1485.423	1112.564
227.826	14.757	1484.253	1112.074
228.840	14.713	1483.916	1111.429
229.855	14.787	1482.901	1111.062
230.869	14.827	1481.321	1110.045
231.884	14.728	1480.449	1108.635
232.899	14.704	1479.258	1107.486
233.913	14.734	1478.447	1106.982
234.928	14.772	1476.774	1105.883
235.942	14.834	1475.286	1105.079
236.957	14.739	1474.884	1104.054
237.972	14.824	1473.455	1103.449
238.986	14.822	1472.244	1102.432
240.001	14.772	1471.598	1101.518
241.015	14.846	1470.325	1100.953
242.030	14.839	1469.424	1100.138
243.045	14.831	1468.239	1099.100
244.059	14.808	1467.642	1098.404
245.074	14.920	1466.546	1098.221
246.088	14.963	1465.399	1097.546
247.103	15.003	1464.919	1097.358
248.117	15.044	1463.931	1096.789
249.132	15.066	1462.884	1096.047
250.147	15.075	1462.246	1095.536
251.161	15.116	1461.919	1095.462
252.176	15.249	1460.279	1095.003
253.190	15.226	1460.083	1094.609
254.205	15.288	1458.904	1094.032
255.220	15.303	1458.313	1093.590
256.234	15.262	1458.106	1093.074
257.249	15.236	1457.191	1092.121
258.263	15.257	1456.353	1091.534
259.278	15.233	1455.509	1090.645
260.293	15.281	1454.129	1089.829
261.307	15.343	1452.870	1089.192
262.322	15.345	1452.483	1088.818
263.336	15.326	1451.597	1087.929
264.351	15.357	1450.740	1087.396
265.366	15.416	1449.636	1086.856
266.380	15.518	1448.157	1086.306
267.395	15.519	1447.676	1085.860
268.409	15.501	1446.567	1084.815
269.424	15.449	1445.758	1083.777
270.439	15.496	1444.723	1083.208
271.453	15.490	1443.880	1082.440
272.468	15.510	1442.777	1081.649
273.482	15.510	1442.235	1081.143
274.497	15.490	1441.349	1080.257
275.512	15.460	1440.080	1079.016
276.526	15.536	1439.294	1078.818
277.541	15.486	1438.684	1077.944
278.555	15.507	1437.763	1077.297
279.570	15.563	1436.513	1076.621
280.585	15.591	1435.635	1076.049
281.599	15.540	1434.881	1075.059
282.614	15.679	1434.081	1075.256
283.628	15.738	1432.806	1074.583
284.643	15.729	1431.240	1073.257
285.657	15.680	1430.311	1072.149
286.672	15.613	1429.857	1071.292
287.687	15.615	1429.071	1070.619
288.701	15.785	1427.062	1070.100
289.716	15.717	1426.669	1069.276
290.730	15.831	1425.720	1069.199
291.745	15.728	1424.889	1067.827
292.760	15.788	1423.988	1067.434
293.774	15.757	1422.995	1066.397
294.789	15.778	1421.941	1065.649
295.803	15.786	1421.400	1065.200
296.818	15.886	1419.897	1064.608
297.833	15.873	1419.104	1063.840
298.847	15.790	1418.683	1062.909
299.862	15.885	1416.996	1062.148
300.876	15.897	1416.090	1061.454
301.891	15.869	1415.927	1061.060
302.906	15.879	1414.802	1060.186
303.920	15.848	1414.332	1059.540
304.935	15.942	1413.363	1059.312
305.949	16.032	1412.026	1058.785
306.964	16.105	1411.306	1058.607
307.979	16.134	1410.209	1057.877
308.993	16.171	1409.351	1057.366
310.008	16.113	1408.464	1056.245
311.022	16.155	1407.054	1055.359
312.037	16.116	1406.303	1054.458
313.052	16.125	1405.599	1053.891
314.066	16.087	1404.713	1052.899
315.081	16.170	1403.154	1052.154
316.095	16.196	1402.436	1051.685
317.110	16.146	1401.490	1050.571
318.125	16.083	1400.419	1049.281
319.139	16.132	1399.782	1049.017
320.154	16.110	1398.618	1047.915
321.168	16.165	1397.114	1047.038
322.183	16.198	1396.331	1046.560
323.197	16.177	1395.215	1045.500
324.212	16.061	1395.004	1044.532
325.227	16.233	1393.928	1044.699
326.241	16.310	1392.709	1044.171
327.256	16.307	1391.508	1043.160
328.270	16.329	1391.082	1042.886
329.285	16.267	1390.531	1041.994
330.300	16.378	1389.242	1041.623
331.314	16.340	1388.124	1040.458
332.329	16.278	1387.558	1039.556
333.343	16.217	1386.445	1038.256
334.358	16.268	1385.865	1038.047
335.373	16.354	1385.186	1037.974
336.387	16.371	1384.043	1037.128
337.402	16.301	1383.454	1036.169
338.416	16.438	1382.632	1036.300
339.431	16.403	1382.102	1035.597
340.446	16.565	1380.912	1035.603
341.460	16.514	1379.707	1034.301
342.475	16.588	1379.101	1034.203
343.489	16.580	1378.214	1033.401
344.504	16.535	1377.666	1032.619
345.519	16.634	1376.561	1032.306
346.533	16.487	1375.872	1030.800
347.548	16.626	1374.722	1030.695
348.562	16.610	1373.857	1029.856
349.577	16.704	1372.841	1029.580
350.592	16.664	1372.060	1028.660
351.606	16.694	1371.334	1028.207
352.621	16.618	1370.284	1026.865
353.635	16.573	1369.043	1025.572
354.650	16.598	1368.350	1025.114
355.665	16.709	1367.001	1024.682
356.679	16.623	1366.184	1023.462
357.694	16.617	1365.458	1022.790
358.708	16.647	1364.065	1021.839
359.723	16.825	1362.534	1021.670
360.738	16.759	1361.634	1020.507
361.752	16.749	1360.940	1019.839
362.767	16.785	1359.678	1019.021
363.781	16.806	1358.430	1018.118
364.796	16.799	1358.090	1017.735
365.810	16.810	1357.389	1017.186
366.825	17.021	1356.187	1017.457
367.840	16.927	1355.832	1016.537
368.854	16.900	1355.220	1015.828
369.869	16.976	1354.183	1015.413
370.883	16.876	1354.229	1014.763
371.898	16.873	1353.360	1014.000
372.913	17.000	1352.277	1013.864
373.927	16.968	1351.014	1012.633
374.942	16.999	1350.232	1012.142
375.956	16.966	1349.699	1011.456
376.971	16.997	1348.973	1011.008
377.986	17.047	1347.977	1010.472
379.000	16.982	1347.322	1009.504
380.015	17.149	1346.294	1009.635
381.029	17.176	1345.814	1009.348
382.044	17.160	1344.622	1008.269
383.059	17.180	1344.042	1007.862
384.073	17.123	1343.585	1007.093
385.088	17.219	1342.831	1007.009
386.102	17.145	1342.358	1006.125
387.117	17.318	1341.035	1006.070
388.132	17.319	1340.369	1005.484
389.146	17.182	1340.097	1004.385
390.161	17.115	1339.287	1003.294
391.175	17.288	1337.884	1003.171
392.190	17.202	1337.402	1002.218
393.205	17.255	1336.132	1001.489
394.219	17.369	1335.110	1001.302
395.234	17.337	1334.111	1000.279
396.248	17.322	1332.752	999.084
397.263	17.309	1331.365	997.876
398.278	17.358	1330.035	997.081
399.292	17.456	1328.584	996.479
400.307	17.405	1327.697	995.423
401.321	17.367	1326.833	994.466
402.336	17.365	1325.796	993.593
403.350	17.413	1324.779	993.023
404.365	17.402	1323.693	992.057
405.380	17.429	1323.159	991.724
406.394	17.413	1322.204	990.827
407.409	17.416	1321.383	990.143
408.423	17.469	1320.896	989.996
409.438	17.487	1320.166	989.466
410.453	17.565	1319.261	989.156
411.467	17.620	1318.081	988.503
412.482	17.618	1318.004	988.348
413.496	17.593	1317.672	987.863
414.511	17.620	1316.347	986.941
415.526	17.721	1315.176	986.559
416.540	17.677	1314.826	985.957
417.555	17.727	1314.178	985.668
418.569	17.861	1313.436	985.799
419.584	17.752	1313.017	984.769
420.599	17.741	1312.638	984.333
421.613	99.569	1362.422	1485.655
422.628	98.149	1369.572	1485.740
