DTS Sentinel unit serial number:	SN413079Multiplexer serial number:	ORYXHardware model number:	OX4-SRSoftware version number:	ORYX F/W v4.00 Oryx Data Collector v3.7.2.0data status	okinstallation	princeton_trtdifferential loss correction	single-endedforward channel	channel 4reverse channel	N/Adate	2019/09/12time	19:42:19forward acquisition time	15.00reverse acquisition time	0.00gamma	496.2192k internal	0.2310k external	0.2310temperature offset calibration	1.0154default loss term (dB/km)	0.3790temperature slope calibration	1.0000multiplexer offset coefficient	1.0000multiplexer slope coefficient	1.0000fibre end	0.00T internal ref (°C)	32.06T ext. ref 1 (°C)	3.35T ext. ref 2 (°C)	26.66length (m)	temperature (°C)	Stokes	anti-Stokes-747.200	139.169	-0.464	0.620
-746.185	564.162	0.190	0.469
-745.171	-21.637	-0.819	0.507
-744.156	-58.779	0.202	0.089
-743.142	800.000	0.021	0.082
-742.127	-172.455	-0.703	-0.023
-741.112	490.060	-0.123	-0.285
-740.098	50.294	-0.192	0.185
-739.083	-40.845	0.252	-0.132
-738.069	544.542	-0.053	-0.127
-737.054	-200.000	0.002	-0.213
-736.039	3.951	0.285	-0.211
-735.025	-70.490	0.362	-0.139
-734.010	-200.000	0.111	-0.827
-732.996	-200.000	0.075	-1.141
-731.981	800.000	0.121	0.346
-730.966	-30.556	0.535	0.308
-729.952	-200.000	-0.027	-0.279
-728.937	-176.485	-0.510	0.013
-727.923	526.311	-0.115	-0.276
-726.908	277.272	-0.266	-0.481
-725.894	148.931	0.348	-0.477
-724.879	800.000	-0.173	-0.655
-723.864	-124.375	0.927	0.147
-722.850	-200.000	0.059	0.331
-721.835	-180.019	-0.116	0.003
-720.821	-138.210	0.102	-0.011
-719.806	31.420	0.210	-0.183
-718.791	-90.339	-0.799	-0.235
-717.777	-200.000	-0.005	0.826
-716.762	-124.174	0.514	0.082
-715.748	800.000	0.237	-0.947
-714.733	643.023	0.264	-0.682
-713.718	160.515	-0.336	-0.475
-712.704	-9.864	-0.278	-0.187
-711.689	-61.949	1.167	-0.495
-710.675	-200.000	0.090	-1.257
-709.660	106.251	0.135	-0.163
-708.645	-29.534	0.322	-0.187
-707.631	4.400	0.050	0.037
-706.616	-200.000	-0.165	0.781
-705.602	2.123	-0.289	0.211
-704.587	-61.404	-0.967	0.412
-703.572	-188.792	0.784	0.010
-702.558	-119.950	0.885	-0.154
-701.543	216.874	0.281	0.453
-700.529	150.165	-0.153	-0.211
-699.514	597.111	-0.040	0.100
-698.499	-83.668	-0.127	0.041
-697.485	43.480	-0.456	0.423
-696.470	-200.000	0.027	0.559
-695.456	89.199	-0.065	-0.074
-694.441	-30.159	-0.443	0.256
-693.426	492.735	0.213	-0.496
-692.412	800.000	0.027	-0.106
-691.397	-62.074	-0.453	0.192
-690.383	45.427	-0.949	0.888
-689.368	-5.613	-0.358	0.249
-688.354	471.545	0.269	-0.615
-687.339	-78.496	-1.109	0.385
-686.324	580.746	-0.118	0.293
-685.310	800.000	0.167	-0.616
-684.295	-82.215	0.674	-0.222
-683.281	34.627	-0.434	-0.384
-682.266	-200.000	0.066	0.398
-681.251	-99.855	-0.555	-0.141
-680.237	31.209	0.431	-0.374
-679.222	-114.938	-0.444	0.086
-678.208	-59.474	-1.014	-0.441
-677.193	-132.714	-0.652	-0.084
-676.178	716.197	0.195	-0.525
-675.164	-200.000	0.079	0.827
-674.149	322.795	-0.096	0.185
-673.135	158.987	0.418	-0.588
-672.120	800.000	0.215	-0.884
-671.105	-200.000	-0.135	-0.892
-670.091	61.839	0.789	-0.796
-669.076	-200.000	0.093	0.566
-668.062	-1.564	-0.157	0.112
-667.047	-200.000	-0.017	0.388
-666.032	800.000	-0.041	0.136
-665.018	-98.147	0.308	0.080
-664.003	-47.893	0.606	-0.297
-662.989	230.445	-0.334	-0.553
-661.974	-42.556	-0.321	-0.166
-660.959	-200.000	0.109	-0.558
-659.945	-38.573	0.479	0.256
-658.930	85.036	-0.203	0.226
-657.916	-139.156	0.455	0.050
-656.901	-136.843	0.556	-0.065
-655.886	229.429	-0.362	-0.599
-654.872	-138.528	-0.756	0.084
-653.857	-118.130	0.362	0.065
-652.843	68.028	0.770	-0.797
-651.828	-182.554	-0.373	-0.007
-650.814	287.572	0.487	0.891
-649.799	167.992	-0.324	-0.467
-648.784	21.335	-0.175	-0.144
-647.770	-105.347	-0.898	0.207
-646.755	-96.558	0.585	0.156
-645.741	35.682	0.226	0.201
-644.726	747.994	-0.360	0.983
-643.711	89.682	-0.131	0.148
-642.697	-52.402	-0.262	-0.123
-641.682	60.425	-0.479	0.479
-640.668	237.865	0.208	-0.350
-639.653	-133.397	0.270	0.034
-638.638	-200.000	0.032	0.406
-637.624	-88.802	0.409	0.123
-636.609	58.102	0.431	-0.427
-635.595	-55.212	0.296	0.135
-634.580	-48.693	0.703	0.342
-633.565	-200.000	0.006	0.060
-632.551	126.666	-0.278	0.357
-631.536	90.954	-0.510	0.579
-630.522	-200.000	-0.084	0.409
-629.507	-141.037	0.763	0.079
-628.492	-128.045	-0.679	0.098
-627.478	-84.462	0.294	-0.094
-626.463	-26.943	0.498	0.294
-625.449	-74.608	0.237	-0.086
-624.434	134.594	-0.263	0.345
-623.419	50.670	0.195	-0.187
-622.405	-73.900	-0.218	-0.080
-621.390	-149.096	-0.629	-0.051
-620.376	25.921	0.302	0.255
-619.361	-200.000	0.134	-0.981
-618.346	-200.000	-0.028	0.192
-617.332	-200.000	0.182	-1.235
-616.317	-11.374	0.527	0.351
-615.303	372.264	0.225	0.461
-614.288	-31.507	-0.455	-0.259
-613.273	800.000	-0.103	0.447
-612.259	246.958	0.218	0.372
-611.244	39.448	-0.346	-0.313
-610.230	-23.265	-0.290	-0.176
-609.215	580.131	-0.201	0.498
-608.201	-90.325	-0.305	-0.090
-607.186	-200.000	-0.015	0.166
-606.171	-200.000	0.014	0.223
-605.157	-21.613	-0.306	-0.189
-604.142	-52.917	-0.159	-0.074
-603.128	-129.401	-0.525	0.074
-602.113	-30.524	-0.399	0.229
-601.098	-200.000	-0.017	0.210
-600.084	-200.000	0.045	0.364
-599.069	77.309	0.479	-0.514
-598.055	-164.663	-0.668	-0.031
-597.040	-78.816	0.112	0.039
-596.025	39.402	0.309	0.279
-595.011	-51.889	-0.241	-0.113
-593.996	419.954	0.351	-0.759
-592.982	141.445	0.615	0.822
-591.967	800.000	0.153	0.627
-590.952	800.000	0.198	-0.600
-589.938	41.223	-0.551	-0.503
-588.923	-200.000	-0.053	0.496
-587.909	800.000	-0.197	0.788
-586.894	-152.853	0.704	-0.050
-585.879	93.173	-0.313	0.358
-584.865	800.000	0.203	-0.625
-583.850	-65.519	-0.239	-0.097
-582.836	800.000	-0.150	0.480
-581.821	-67.998	0.683	0.269
-580.806	800.000	-0.119	0.461
-579.792	-94.560	-0.989	0.272
-578.777	56.826	-0.239	0.235
-577.763	-85.377	1.208	-0.380
-576.748	-77.796	0.411	-0.143
-575.733	-82.413	0.802	-0.263
-574.719	-23.346	-0.920	0.558
-573.704	425.402	-0.131	0.284
-572.690	800.000	-0.058	0.227
-571.675	-126.610	0.109	0.016
-570.661	-29.441	0.985	-0.569
-569.646	-200.000	0.125	-0.601
-568.631	800.000	0.085	0.285
-567.617	-140.722	0.632	0.066
-566.602	-24.672	0.554	-0.332
-565.588	22.549	-0.590	-0.487
-564.573	23.500	0.399	-0.331
-563.558	-117.702	0.190	0.034
-562.544	234.242	0.088	0.146
-561.529	-54.276	-0.767	0.351
-560.515	-109.068	0.761	-0.163
-559.500	-200.000	-0.059	0.844
-558.485	158.142	-0.267	0.374
-557.471	-39.085	0.541	-0.287
-556.456	-200.000	0.026	-0.161
-555.442	-147.050	-0.392	-0.034
-554.427	-20.633	0.534	-0.331
-553.412	6.178	0.280	0.209
-552.398	73.665	-0.347	0.367
-551.383	190.577	0.323	0.489
-550.369	-200.000	-0.047	-0.429
-549.354	13.180	-0.246	-0.192
-548.339	-126.241	-0.387	0.058
-547.325	-46.148	-0.232	0.115
-546.310	-110.881	0.692	-0.144
-545.296	39.097	-0.278	-0.250
-544.281	800.000	0.202	-0.679
-543.266	590.474	0.254	-0.632
-542.252	-161.290	0.779	0.041
-541.237	790.905	0.188	-0.519
-540.223	-200.000	-0.126	-0.708
-539.208	-19.271	-0.583	-0.365
-538.193	-128.537	0.360	-0.051
-537.179	191.836	0.372	0.564
-536.164	800.000	0.247	-0.802
-535.150	44.222	0.352	-0.326
-534.135	-64.367	-0.427	-0.175
-533.121	-200.000	0.006	0.137
-532.106	-101.434	-0.466	0.114
-531.091	-200.000	0.006	-0.173
-530.077	-159.663	0.196	0.011
-529.062	600.207	-0.322	0.806
-528.048	800.000	0.193	-0.693
-527.033	-87.382	0.359	-0.110
-526.018	-200.000	-0.024	-0.767
-525.004	-71.865	0.697	-0.261
-523.989	800.000	0.146	0.537
-522.975	43.110	0.224	0.206
-521.960	167.987	-0.475	-0.681
-520.945	101.341	0.433	-0.508
-519.931	-178.874	-0.220	-0.005
-518.916	800.000	0.150	0.634
-517.902	-127.493	0.895	-0.131
-516.887	-18.447	0.401	-0.252
-515.872	800.000	0.097	0.370
-514.858	800.000	0.098	0.315
-513.843	-133.516	-0.537	0.068
-512.829	-95.945	0.184	0.049
-511.814	-35.435	-0.153	0.084
-510.799	800.000	0.310	0.966
-509.785	-94.414	0.766	0.210
-508.770	-153.815	0.147	0.010
-507.756	-200.000	-0.052	-0.494
-506.741	-104.519	-0.037	0.009
-505.726	478.944	0.326	-0.744
-504.712	800.000	-0.258	-0.735
-503.697	284.892	0.416	0.753
-502.683	-22.164	0.459	-0.280
-501.668	-102.998	-0.658	0.157
-500.653	-200.000	-0.025	-0.269
-499.639	18.577	0.233	0.187
-498.624	-59.784	0.215	0.093
-497.610	-123.041	0.720	0.116
-496.595	-121.728	-0.617	0.103
-495.581	-155.486	0.340	-0.022
-494.566	32.909	-0.384	0.335
-493.551	43.843	-0.663	-0.611
-492.537	-7.363	-0.700	-0.477
-491.522	-91.274	-0.609	0.175
-490.508	-200.000	0.035	-0.169
-489.493	-196.766	-0.340	-0.002
-488.478	-200.000	-0.015	-0.287
-487.464	800.000	0.182	-0.799
-486.449	430.006	-0.127	-0.277
-485.435	-200.000	-0.069	0.343
-484.420	121.101	0.341	-0.427
-483.405	383.309	0.119	0.246
-482.391	-53.079	-0.519	0.240
-481.376	-182.502	-0.130	0.002
-480.362	569.344	0.141	0.344
-479.347	-72.187	-0.087	-0.032
-478.332	83.567	0.094	0.103
-477.318	582.847	0.248	0.611
-476.303	314.021	-0.241	-0.455
-475.289	-40.995	-0.338	0.176
-474.274	77.983	-0.339	-0.364
-473.259	395.562	0.244	0.511
-472.245	-92.877	0.504	-0.141
-471.230	-71.619	-0.187	-0.070
-470.216	-200.000	-0.004	0.661
-469.201	743.871	0.279	0.753
-468.186	-159.373	-0.938	0.053
-467.172	-112.583	-0.325	-0.065
-466.157	800.000	-0.200	0.573
-465.143	-89.730	-0.374	-0.110
-464.128	14.267	-0.197	-0.154
-463.113	-200.000	0.009	0.378
-462.099	15.265	0.151	0.119
-461.084	800.000	0.144	-0.461
-460.070	-12.723	0.300	-0.197
-459.055	-109.073	0.838	-0.179
-458.040	-139.971	0.091	-0.010
-457.026	237.576	0.272	-0.453
-456.011	-200.000	0.048	-0.952
-454.997	-200.000	0.107	0.472
-453.982	136.357	-0.340	-0.446
-452.968	-124.423	0.168	0.026
-451.953	-200.000	-0.010	0.643
-450.938	-156.972	0.443	0.027
-449.924	345.793	0.073	0.144
-448.909	-10.819	-0.312	0.207
-447.895	23.108	0.435	0.359
-446.880	234.001	-0.438	0.725
-445.865	130.938	0.152	0.196
-444.851	-200.000	0.130	-0.943
-443.836	276.039	-0.334	-0.595
-442.822	-163.901	0.247	-0.012
-441.807	-45.378	-0.708	-0.352
-440.792	-8.683	0.626	0.422
-439.778	376.705	-0.314	-0.643
-438.763	152.263	-0.364	0.499
-437.749	-200.000	-0.250	-1.278
-436.734	380.814	0.336	-0.691
-435.719	-15.346	-0.366	0.235
-434.705	-116.204	0.557	-0.104
-433.690	567.219	0.298	-0.727
-432.676	-89.763	0.321	-0.094
-431.661	19.633	-0.487	-0.393
-430.646	732.532	0.120	0.321
-429.632	545.760	0.172	0.411
-428.617	-200.000	0.013	0.236
-427.603	272.402	0.026	0.047
-426.588	-81.958	-0.163	0.054
-425.573	547.510	0.070	-0.167
-424.559	623.292	-0.038	-0.095
-423.544	130.388	-0.246	-0.316
-422.530	164.543	0.255	-0.361
-421.515	-200.000	-0.003	0.094
-420.500	121.043	0.567	0.708
-419.486	-200.000	0.012	-0.356
-418.471	-70.083	0.878	-0.335
-417.457	-151.391	0.096	0.007
-416.442	78.152	0.367	-0.393
-415.428	-41.360	0.402	-0.208
-414.413	800.000	0.288	-0.947
-413.398	-13.018	-0.416	0.272
-412.384	24.030	0.442	0.366
-411.369	215.166	0.332	0.527
-410.355	165.572	-0.198	0.281
-409.340	-32.277	-0.060	-0.034
-408.325	-146.707	-1.452	0.126
-407.311	-9.802	0.762	0.509
-406.296	-104.898	-0.653	0.150
-405.282	-19.128	-0.942	0.587
-404.267	-29.829	-0.713	-0.407
-403.252	-145.010	0.347	-0.032
-402.238	-200.000	0.099	0.786
-401.223	700.327	-0.097	0.256
-400.209	12.259	0.592	0.457
-399.194	118.580	0.214	-0.265
-398.179	-53.884	-0.599	-0.274
-397.165	-4.961	-0.400	0.276
-396.150	218.908	-0.481	-0.770
-395.136	137.706	-0.592	0.777
-394.121	18.961	0.382	-0.307
-393.106	85.428	-0.047	-0.052
-392.092	155.769	-0.165	-0.228
-391.077	800.000	0.193	0.810
-390.063	333.029	-0.313	0.607
-389.048	66.361	0.060	0.061
-388.033	93.803	-0.449	0.510
-387.019	-86.454	-0.677	0.208
-386.004	188.575	-0.334	-0.501
-384.990	40.776	-0.311	-0.281
-383.975	40.663	0.101	-0.092
-382.960	266.537	0.222	-0.389
-381.946	800.000	-0.102	0.427
-380.931	319.786	-0.444	-0.844
-379.917	123.266	0.168	0.211
-378.902	800.000	0.211	0.762
-377.888	616.540	0.152	0.383
-376.873	71.573	-0.252	0.262
-375.858	-68.861	-0.801	0.310
-374.844	-165.078	0.846	0.038
-373.829	-168.893	-0.863	0.032
-372.815	-200.000	0.009	-0.508
-371.800	383.112	-0.042	-0.086
-370.785	-74.890	-0.359	0.129
-369.771	427.261	-0.043	-0.092
-368.756	-59.081	-0.476	-0.205
-367.742	416.824	-0.109	-0.233
-366.727	-83.529	0.432	-0.138
-365.712	-9.897	-0.165	-0.110
-364.698	33.632	-0.705	-0.613
-363.683	-61.432	-0.260	0.110
-362.669	-96.387	1.061	0.281
-361.654	569.071	0.321	-0.780
-360.639	34.588	0.950	0.830
-359.625	197.521	-0.095	-0.145
-358.610	150.402	0.656	0.891
-357.596	285.144	-0.450	0.812
-356.581	272.336	0.535	0.943
-355.566	-7.183	-0.450	0.306
-354.552	180.858	0.402	0.591
-353.537	209.711	-0.195	0.306
-352.523	64.360	0.629	-0.633
-351.508	136.775	0.403	0.526
-350.493	-8.922	-0.396	-0.265
-349.479	11.757	-0.282	-0.217
-348.464	-200.000	0.127	-0.592
-347.450	76.064	-0.381	0.404
-346.435	-200.000	-0.057	0.370
-345.420	-104.910	-0.299	-0.069
-344.406	-200.000	-0.029	1.073
-343.391	-200.000	0.039	-0.304
-342.377	136.654	0.433	0.566
-341.362	-73.262	0.585	-0.214
-340.348	689.051	0.094	0.247
-339.333	186.682	-0.557	-0.829
-338.318	-82.995	-0.979	-0.315
-337.304	-31.311	-0.846	0.476
-336.289	-133.514	-0.517	0.065
-335.275	800.000	-0.160	0.612
-334.260	220.425	-0.230	-0.368
-333.245	-115.866	-0.750	0.140
-332.231	-72.167	-1.138	-0.422
-331.216	-200.000	0.075	-0.409
-330.202	800.000	-0.124	-0.505
-329.187	44.358	0.228	-0.210
-328.172	800.000	0.087	-0.258
-327.158	-200.000	0.087	-0.821
-326.143	70.223	-0.615	0.635
-325.129	-101.818	-0.480	0.116
-324.114	465.313	0.408	-0.911
-323.099	-200.000	-0.010	0.111
-322.085	-40.658	-0.896	0.464
-321.070	800.000	-0.288	-0.917
-320.056	151.415	0.646	-0.879
-319.041	711.085	0.121	0.319
-318.026	-88.401	1.413	-0.421
-317.012	-200.000	-0.010	0.696
-315.997	700.878	0.157	0.412
-314.983	-200.000	0.032	0.186
-313.968	-100.359	0.913	-0.226
-312.953	-55.995	0.407	-0.181
-311.939	-200.000	0.028	-0.331
-310.924	-143.724	0.495	-0.047
-309.910	-116.076	-0.538	-0.100
-308.895	-51.649	-0.300	-0.140
-307.880	651.564	0.275	-0.703
-306.866	4.880	-0.486	0.357
-305.851	-58.506	0.397	0.172
-304.837	800.000	0.088	-0.287
-303.822	664.978	-0.245	0.632
-302.807	-200.000	0.073	0.987
-301.793	-35.537	-0.418	0.227
-300.778	332.898	0.394	0.760
-299.764	172.758	0.353	-0.508
-298.749	-200.000	0.017	0.591
-297.735	800.000	0.064	0.254
-296.720	139.053	0.232	0.304
-295.705	-200.000	-0.180	-0.821
-294.691	-14.517	0.211	-0.135
-293.676	159.525	0.111	-0.154
-292.662	75.556	-0.536	-0.565
-291.647	-200.000	0.038	-0.835
-290.632	-3.170	-0.609	0.424
-289.618	107.904	0.329	-0.391
-288.603	-47.187	-0.395	0.192
-287.589	-200.000	-0.023	-0.362
-286.574	-35.422	-0.347	0.188
-285.559	800.000	-0.092	-0.395
-284.545	87.137	-0.347	-0.383
-283.530	-77.365	0.362	-0.125
-282.516	-63.882	-0.499	-0.204
-281.501	16.956	-0.148	-0.117
-280.486	-163.096	1.238	-0.060
-279.472	32.210	-0.408	0.351
-278.457	50.867	0.197	0.186
-277.443	276.939	0.088	0.156
-276.428	452.632	-0.088	-0.194
-275.413	800.000	-0.138	-0.410
-274.399	34.353	-0.087	-0.076
-273.384	450.965	0.327	-0.720
-272.370	-145.168	0.920	-0.083
-271.355	-17.402	0.139	-0.087
-270.340	-100.951	0.150	0.037
-269.326	-2.254	-0.458	-0.320
-268.311	-38.153	-0.309	-0.163
-267.297	26.110	0.392	0.326
-266.282	-165.138	-0.122	0.005
-265.267	23.442	-0.510	-0.418
-264.253	-130.410	0.467	-0.063
-263.238	-200.000	0.016	0.794
-262.224	536.598	-0.275	-0.651
-261.209	-90.199	-0.596	-0.173
-260.195	-62.844	0.612	-0.253
-259.180	-100.651	-0.843	0.207
-258.165	-6.854	-0.140	0.095
-257.151	12.114	-0.585	0.448
-256.136	-200.000	0.025	-0.195
-255.122	151.568	-0.213	-0.289
-254.107	174.431	-0.256	-0.369
-253.092	800.000	-0.051	0.186
-252.078	-53.811	-0.293	0.133
-251.063	31.297	0.519	-0.444
-250.049	800.000	0.097	0.270
-249.034	-65.977	-0.522	0.208
-248.019	529.634	-0.072	-0.170
-247.005	-173.026	0.582	-0.018
-245.990	25.323	0.225	-0.186
-244.976	-200.000	0.029	-0.775
-243.961	32.245	-0.109	0.093
-242.946	-74.738	-0.438	-0.157
-241.932	38.476	-0.222	0.197
-240.917	-32.177	0.208	0.116
-239.903	800.000	0.134	0.421
-238.888	-26.891	-0.303	0.177
-237.873	151.446	-0.063	0.086
-236.859	-120.459	-0.656	0.111
-235.844	-42.802	0.214	-0.108
-234.830	16.084	0.797	-0.625
-233.815	7.098	0.149	0.111
-232.800	491.025	0.302	0.687
-231.786	421.653	0.305	0.652
-230.771	-38.596	0.567	-0.298
-229.757	-75.969	-0.130	0.046
-228.742	206.308	0.350	0.542
-227.727	-81.086	0.882	0.290
-226.713	-122.161	-0.281	0.046
-225.698	-120.229	0.703	0.120
-224.684	-56.052	0.397	-0.176
-223.669	-200.000	0.022	-0.380
-222.655	-49.568	0.486	-0.230
-221.640	-93.875	-0.756	0.207
-220.625	540.144	0.067	0.159
-219.611	-1.564	-0.253	0.177
-218.596	-76.488	-0.677	-0.237
-217.582	800.000	-0.128	-0.394
-216.567	-72.585	0.498	-0.183
-215.552	83.119	-0.117	0.126
-214.538	-61.612	0.758	-0.316
-213.523	64.978	0.192	0.193
-212.509	-60.018	0.219	-0.093
-211.494	-32.727	0.387	-0.214
-210.479	-1.090	0.437	-0.308
-209.465	118.393	0.336	-0.412
-208.450	-200.000	-0.122	0.584
-207.436	402.359	0.107	-0.224
-206.421	-200.000	0.111	-0.683
-205.406	-198.642	0.484	-0.003
-204.392	-130.951	0.345	-0.046
-203.377	4.022	0.369	-0.268
-202.363	143.673	0.289	0.384
-201.348	105.882	-0.370	0.436
-200.333	800.000	0.076	0.234
-199.319	800.000	-0.148	-0.519
-198.304	32.186	-0.356	-0.305
-197.290	800.000	-0.257	0.751
-196.275	-119.508	-0.684	0.118
-195.260	-70.829	-0.680	-0.255
-194.246	-200.000	-0.072	0.386
-193.231	120.576	-0.421	-0.520
-192.217	342.479	-0.116	0.225
-191.202	-49.742	-0.309	0.146
-190.187	-81.541	0.289	0.094
-189.173	-72.166	0.746	0.275
-188.158	800.000	0.162	0.589
-187.144	-89.389	-0.466	-0.136
-186.129	5.983	-0.107	0.079
-185.114	-200.000	-0.022	-0.471
-184.100	-88.693	-0.234	-0.069
-183.085	-132.031	0.956	-0.124
-182.071	-109.104	0.466	0.098
-181.056	-108.723	0.183	0.039
-180.042	-49.564	-0.443	-0.210
-179.027	-90.052	-0.749	-0.217
-178.012	-172.360	-0.512	-0.016
-176.998	314.589	-0.119	-0.223
-175.983	-200.000	0.004	0.320
-174.969	25.027	-0.680	0.561
-173.954	-121.016	-0.514	-0.086
-172.939	477.157	0.185	0.416
-171.925	-200.000	0.111	0.615
-170.910	298.388	0.071	-0.130
-169.896	-143.241	-0.227	-0.022
-168.881	-200.000	-0.056	0.535
-167.866	-37.737	0.745	0.394
-166.852	-1.028	-0.246	-0.172
-165.837	213.508	-0.228	0.358
-164.823	105.783	0.440	0.516
-163.808	61.064	-0.784	-0.773
-162.793	322.773	-0.102	0.193
-161.779	-27.509	0.792	0.457
-160.764	-59.095	0.366	0.157
-159.750	204.207	0.020	-0.030
-158.735	468.146	-0.216	0.480
-157.720	32.549	-0.362	0.311
-156.706	84.007	-1.209	-1.310
-155.691	-200.000	-0.016	-0.878
-154.677	52.322	0.689	-0.653
-153.662	92.268	0.206	-0.231
-152.647	56.757	-0.480	0.464
-151.633	15.584	-0.423	0.330
-150.618	-77.910	0.683	0.234
-149.604	-200.000	-0.025	1.031
-148.589	-10.776	-0.322	-0.211
-147.574	-14.457	-0.557	-0.356
-146.560	102.761	0.227	0.263
-145.545	-200.000	0.068	-0.392
-144.531	-21.182	-0.594	-0.360
-143.516	800.000	-0.085	-0.278
-142.502	-200.000	0.009	-0.461
-141.487	-50.528	0.523	-0.245
-140.472	-65.698	0.668	0.266
-139.458	-200.000	0.040	-0.260
-138.443	-70.928	-0.193	-0.072
-137.429	21.376	0.300	-0.242
-136.414	-106.965	-0.536	-0.118
-135.399	-21.361	-0.276	-0.167
-134.385	800.000	0.122	-0.358
-133.370	374.463	0.183	-0.370
-132.356	-200.000	0.114	-0.504
-131.341	-200.000	-0.021	-0.415
-130.326	-9.987	-0.690	0.455
-129.312	-200.000	0.059	-0.654
-128.297	-162.496	0.704	-0.035
-127.283	261.971	0.082	-0.141
-126.268	800.000	-0.085	0.358
-125.253	-200.000	0.192	1.075
-124.239	-72.178	-0.535	-0.197
-123.224	-69.881	0.215	-0.081
-122.210	138.233	-0.135	-0.176
-121.195	-91.004	0.772	-0.220
-120.180	800.000	-0.091	-0.375
-119.166	-200.000	-0.247	1.201
-118.151	-143.704	-0.414	0.039
-117.137	21.022	0.417	0.335
-116.122	800.000	0.303	-1.220
-115.107	24.864	0.331	-0.272
-114.093	556.663	-0.180	-0.429
-113.078	346.688	-0.217	0.423
-112.064	-174.246	0.596	0.017
-111.049	800.000	-0.086	0.262
-110.034	173.345	0.091	-0.130
-109.020	800.000	-0.201	0.754
-108.005	-51.085	0.184	-0.086
-106.991	-200.000	0.063	0.793
-105.976	-95.689	-0.087	-0.023
-104.962	-99.733	0.925	0.230
-103.947	101.876	0.292	-0.337
-102.932	-43.685	-0.886	0.443
-101.918	554.111	-0.139	-0.330
-100.903	109.016	0.121	-0.144
-99.889	-159.581	0.094	-0.005
-98.874	800.000	-0.166	0.607
-97.859	129.452	-0.053	0.067
-96.845	-16.308	0.604	-0.380
-95.830	265.599	0.164	-0.284
-94.816	92.215	-0.471	0.526
-93.801	31.938	0.468	-0.399
-92.786	409.393	0.326	-0.684
-91.772	-45.330	0.442	0.217
-90.757	-200.000	0.041	0.580
-89.743	800.000	-0.195	0.544
-88.728	753.542	-0.314	0.840
-87.713	-165.368	-0.451	0.020
-86.699	-200.000	-0.051	-0.227
-85.684	-91.734	-0.376	0.106
-84.670	304.991	-0.057	0.105
-83.655	-53.881	-0.906	0.409
-82.640	-122.397	-0.455	0.073
-81.626	37.480	0.401	0.352
-80.611	112.971	0.305	0.366
-79.597	81.600	0.628	-0.672
-78.582	-134.492	0.731	0.089
-77.567	6.758	-0.498	0.367
-76.553	-97.597	0.846	0.217
-75.538	-91.623	1.177	-0.332
-74.524	-143.123	-0.396	0.038
-73.509	213.232	0.357	-0.558
-72.494	-30.551	0.553	-0.310
-71.480	66.248	0.243	0.244
-70.465	800.000	0.258	-0.983
-69.451	-23.261	-1.047	0.623
-68.436	-200.000	0.032	0.565
-67.422	-94.261	0.988	0.267
-66.407	-16.859	0.122	0.076
-65.392	6.625	-0.442	0.325
-64.378	272.755	-0.351	0.612
-63.363	-200.000	-0.099	0.616
-62.349	250.276	0.457	0.768
-61.334	17.348	-1.314	-1.032
-60.319	503.755	0.077	0.177
-59.305	800.000	0.432	-1.181
-58.290	103.461	0.993	1.152
-57.276	582.131	0.941	2.283
-56.261	-200.000	96.647	600.070
-55.246	649.704	1358.267	3436.789
-54.232	199.990	2530.579	3840.718
-53.217	109.617	2279.354	2700.517
-52.203	38.740	2046.515	1805.870
-51.188	33.891	1962.111	1688.356
-50.173	32.310	1944.316	1659.041
-49.159	47.888	1998.594	1845.156
-48.144	48.680	2013.894	1866.289
-47.130	34.359	1975.970	1704.203
-46.115	32.148	1965.400	1675.330
-45.100	32.164	1962.327	1672.784
-44.086	31.995	1960.659	1669.792
-43.071	31.870	1959.024	1667.216
-42.057	31.721	1956.307	1663.514
-41.042	31.861	1954.986	1663.569
-40.027	31.863	1951.822	1660.829
-39.013	32.001	1949.153	1659.717
-37.998	32.061	1948.664	1659.758
-36.984	32.196	1946.124	1658.723
-35.969	31.961	1945.278	1655.867
-34.954	32.090	1942.887	1654.899
-33.940	31.856	1942.407	1652.362
-32.925	32.021	1939.744	1651.484
-31.911	32.121	1938.140	1650.933
-30.896	32.134	1936.469	1649.560
-29.881	31.937	1935.813	1647.202
-28.867	32.035	1934.616	1646.979
-27.852	32.216	1931.349	1645.721
-26.838	32.059	1929.067	1642.335
-25.823	32.107	1927.956	1641.742
-24.809	32.050	1925.933	1639.456
-23.794	31.927	1925.510	1637.956
-22.779	31.943	1923.278	1636.138
-21.765	32.093	1921.600	1635.950
-20.750	32.094	1918.803	1633.512
-19.736	32.118	1918.033	1633.003
-18.721	32.199	1915.322	1631.332
-17.706	32.001	1914.737	1629.047
-16.692	31.898	1914.336	1627.748
-15.677	32.156	1911.345	1627.381
-14.663	32.167	1910.307	1626.524
-13.648	32.030	1909.677	1624.735
-12.633	32.181	1907.497	1624.123
-11.619	32.098	1906.357	1622.375
-10.604	32.364	1904.180	1622.746
-9.590	31.990	1904.523	1619.747
-8.575	32.045	1902.220	1618.201
-7.560	32.003	1901.678	1617.309
-6.546	32.171	1899.860	1617.150
-5.531	32.038	1898.921	1615.141
-4.517	32.267	1896.711	1615.169
-3.502	31.905	1896.930	1612.178
-2.487	31.932	1895.187	1610.868
-1.473	31.965	1894.542	1610.537
-0.458	32.153	1888.683	1607.099
0.556	33.347	1869.608	1579.032
1.571	28.958	1850.763	1526.641
2.586	24.914	1872.481	1510.386
3.600	23.619	1907.861	1527.648
4.615	23.096	1902.014	1518.337
5.629	17.889	1801.479	1395.507
6.644	8.487	1684.396	1232.507
7.659	3.809	1647.333	1169.940
8.673	3.451	1643.860	1164.667
9.688	3.390	1643.049	1163.524
10.702	3.380	1641.904	1162.538
11.717	3.179	1639.668	1159.336
12.731	3.806	1637.615	1162.501
13.746	10.114	1652.372	1220.615
14.761	19.711	1673.932	1309.488
15.775	24.224	1681.263	1349.359
16.790	24.830	1681.476	1354.000
17.804	24.363	1679.863	1349.047
18.819	24.404	1678.103	1347.827
19.834	24.113	1677.060	1344.675
20.848	24.172	1675.985	1344.135
21.863	24.096	1675.372	1342.951
22.877	24.309	1674.211	1343.506
23.892	24.431	1672.789	1343.165
24.907	24.187	1672.836	1341.251
25.921	24.165	1670.569	1339.147
26.936	24.128	1670.124	1338.395
27.950	24.066	1669.989	1337.699
28.965	24.278	1668.541	1338.017
29.980	24.099	1668.685	1336.667
30.994	24.377	1667.115	1337.378
32.009	24.187	1665.632	1334.644
33.023	24.261	1665.697	1335.133
34.038	24.292	1665.030	1334.713
35.053	24.442	1663.661	1334.616
36.067	24.350	1661.534	1332.107
37.082	24.153	1662.397	1331.212
38.096	24.242	1660.297	1330.074
39.111	24.257	1659.080	1329.090
40.126	24.393	1657.914	1329.051
41.140	24.318	1658.094	1328.526
42.155	24.175	1656.610	1326.154
43.169	24.020	1654.764	1323.405
44.184	23.825	1653.446	1320.783
45.199	23.889	1653.001	1320.789
46.213	23.736	1651.613	1318.428
47.228	23.839	1650.605	1318.265
48.242	23.798	1650.124	1317.465
49.257	24.164	1648.856	1319.047
50.271	24.471	1648.091	1320.588
51.286	24.334	1646.040	1317.813
52.301	24.281	1644.726	1316.258
53.315	24.008	1645.134	1314.450
54.330	24.155	1642.954	1313.672
55.344	24.047	1641.246	1311.398
56.359	23.912	1639.154	1308.614
57.374	23.936	1639.038	1308.581
58.388	23.972	1637.597	1307.586
59.403	23.884	1635.934	1305.492
60.417	23.794	1635.972	1304.749
61.432	23.973	1633.884	1304.282
62.447	23.853	1632.465	1302.152
63.461	23.823	1631.578	1301.112
64.476	23.876	1630.227	1300.303
65.490	23.629	1630.147	1298.318
66.505	23.873	1628.097	1298.355
67.520	23.683	1628.438	1297.121
68.534	23.697	1626.217	1295.346
69.549	23.804	1625.757	1295.644
70.563	23.583	1625.222	1293.490
71.578	23.723	1623.908	1293.346
72.593	23.626	1621.990	1291.001
73.607	23.565	1621.096	1289.733
74.622	23.376	1621.066	1288.223
75.636	23.508	1618.674	1287.165
76.651	23.436	1619.128	1286.885
77.666	23.571	1618.488	1287.247
78.680	23.752	1617.024	1287.275
79.695	23.563	1617.069	1285.827
80.709	23.608	1615.615	1284.887
81.724	23.597	1615.688	1284.752
82.739	23.880	1614.155	1285.465
83.753	23.957	1613.506	1285.391
84.768	24.118	1612.478	1285.623
85.782	24.404	1613.014	1287.997
86.797	24.264	1611.792	1285.899
87.812	24.611	1610.780	1287.481
88.826	24.435	1609.955	1285.439
89.841	24.459	1608.352	1284.218
90.855	24.470	1607.455	1283.467
91.870	24.307	1607.292	1282.050
92.884	24.268	1606.122	1280.727
93.899	24.615	1605.818	1282.856
94.914	24.526	1605.056	1281.500
95.928	24.521	1603.223	1279.887
96.943	24.535	1602.079	1278.958
97.957	24.578	1600.528	1277.913
98.972	24.434	1599.819	1276.205
99.987	24.370	1598.153	1274.305
101.001	24.346	1596.240	1272.495
102.016	24.335	1594.928	1271.263
103.030	24.290	1593.464	1269.662
104.045	24.478	1592.770	1270.333
105.060	24.366	1591.622	1268.512
106.074	24.116	1590.005	1265.336
107.089	24.000	1588.722	1263.376
108.103	23.935	1586.585	1261.106
109.118	23.722	1584.895	1258.141
110.133	23.398	1583.978	1255.008
111.147	23.757	1581.952	1255.829
112.162	23.628	1580.453	1253.620
113.176	23.687	1579.613	1253.258
114.191	23.704	1578.956	1252.744
115.206	23.804	1578.155	1252.703
116.220	23.860	1576.386	1251.580
117.235	23.863	1575.658	1250.918
118.249	23.844	1574.870	1250.047
119.264	23.704	1573.508	1247.872
120.279	23.605	1571.657	1245.600
121.293	23.656	1570.457	1244.895
122.308	23.704	1569.233	1244.146
123.322	23.629	1568.909	1243.255
124.337	23.305	1567.665	1239.892
125.352	23.468	1565.176	1238.951
126.366	23.339	1564.000	1237.014
127.381	23.430	1562.728	1236.529
128.395	23.615	1562.155	1237.261
129.410	23.421	1561.270	1235.094
130.424	23.070	1560.031	1231.562
131.439	23.412	1558.186	1232.379
132.454	23.327	1557.142	1230.852
133.468	23.579	1555.922	1231.525
134.483	23.443	1555.904	1230.462
135.497	23.667	1553.813	1230.252
136.512	23.815	1554.109	1231.400
137.527	23.799	1551.828	1229.371
138.541	23.827	1551.174	1228.940
139.556	23.690	1550.180	1227.099
140.570	23.896	1548.467	1227.058
141.585	23.802	1548.010	1225.933
142.600	24.105	1547.323	1227.375
143.614	24.055	1547.396	1226.975
144.629	24.524	1544.484	1227.781
145.643	24.383	1543.750	1226.122
146.658	24.401	1542.770	1225.362
147.673	24.188	1541.105	1222.469
148.687	24.128	1540.168	1221.206
149.702	24.149	1539.154	1220.440
150.716	24.178	1537.256	1219.025
151.731	23.922	1535.321	1215.630
152.746	23.457	1535.111	1212.176
153.760	23.612	1532.626	1211.164
154.775	23.558	1532.843	1210.863
155.789	23.977	1531.450	1212.515
156.804	23.972	1531.099	1212.095
157.819	24.201	1529.412	1212.207
158.833	23.955	1528.424	1209.646
159.848	24.053	1526.571	1208.734
160.862	24.098	1527.721	1209.844
161.877	24.218	1524.691	1208.151
162.892	24.189	1525.072	1208.154
163.906	23.849	1522.991	1204.096
164.921	23.705	1521.349	1201.711
165.935	23.481	1520.392	1199.335
166.950	23.521	1520.809	1199.833
167.964	23.791	1518.552	1199.764
168.979	23.859	1518.053	1199.726
169.994	24.021	1516.189	1199.239
171.008	23.794	1516.095	1197.530
172.023	24.084	1513.635	1197.430
173.037	23.935	1513.897	1196.530
174.052	23.890	1514.011	1196.207
175.067	24.220	1511.598	1196.417
176.081	24.084	1510.840	1194.792
177.096	23.838	1510.108	1192.461
178.110	23.722	1508.042	1189.945
179.125	23.707	1507.027	1188.942
180.140	23.821	1505.867	1188.684
181.154	23.682	1505.596	1187.431
182.169	23.944	1505.445	1188.961
183.183	24.121	1503.953	1188.861
184.198	24.065	1502.734	1187.417
185.213	24.086	1501.781	1186.697
186.227	24.164	1501.034	1186.521
187.242	24.436	1499.950	1187.369
188.256	24.318	1499.328	1185.990
189.271	24.346	1497.746	1184.820
190.286	24.426	1497.236	1184.840
191.300	24.430	1496.016	1183.797
192.315	24.258	1494.737	1181.541
193.329	23.963	1494.308	1179.140
194.344	24.096	1493.071	1178.940
195.359	23.891	1492.370	1176.926
196.373	23.894	1489.739	1174.772
197.388	23.531	1490.400	1172.788
198.402	23.565	1488.278	1171.236
199.417	23.549	1487.648	1170.536
200.432	24.135	1488.476	1174.947
201.446	24.401	1488.820	1176.872
202.461	24.511	1486.497	1175.657
203.475	24.269	1485.390	1173.085
204.490	24.415	1485.250	1173.825
205.504	24.413	1483.562	1172.380
206.519	23.866	1482.118	1167.542
207.534	24.030	1480.625	1167.336
208.548	23.886	1480.092	1165.868
209.563	23.574	1479.924	1163.589
210.577	23.632	1478.051	1162.393
211.592	23.897	1476.541	1162.837
212.607	23.742	1476.142	1161.407
213.621	24.254	1474.987	1163.738
214.636	24.601	1474.722	1165.688
215.650	24.142	1474.404	1162.339
216.665	23.972	1472.796	1159.862
217.680	24.136	1472.894	1160.904
218.694	24.190	1473.072	1161.297
219.709	24.542	1472.284	1162.861
220.723	24.494	1469.712	1160.420
221.738	24.191	1469.883	1158.483
222.753	24.244	1469.200	1158.183
223.767	24.528	1467.367	1158.482
224.782	23.902	1467.600	1154.498
225.796	24.315	1464.950	1154.985
226.811	24.390	1464.907	1155.337
227.826	24.427	1465.366	1155.835
228.840	24.330	1463.653	1153.751
229.855	23.963	1463.530	1151.182
230.869	24.115	1461.069	1150.127
231.884	24.210	1460.131	1149.900
232.899	23.940	1459.939	1147.902
233.913	23.937	1457.644	1145.975
234.928	23.687	1457.090	1143.827
235.942	23.786	1454.879	1142.629
236.957	23.658	1454.416	1141.344
237.972	23.728	1453.538	1141.003
238.986	23.505	1452.901	1138.972
240.001	23.484	1451.262	1137.449
241.015	23.812	1450.622	1138.951
242.030	23.734	1449.624	1137.566
243.045	23.715	1448.398	1136.381
244.059	23.740	1448.565	1136.572
245.074	23.973	1447.485	1137.110
246.088	23.908	1446.619	1135.918
247.103	24.307	1445.878	1137.777
248.117	24.238	1445.261	1136.753
249.132	24.383	1445.569	1137.822
250.147	24.244	1445.217	1136.554
251.161	24.679	1444.270	1138.483
252.176	24.898	1444.402	1139.883
253.190	25.122	1442.916	1140.032
254.205	25.075	1443.371	1139.992
255.220	25.166	1441.364	1138.882
256.234	25.056	1441.119	1137.892
257.249	25.193	1441.115	1138.656
258.263	25.492	1438.675	1138.521
259.278	25.178	1438.140	1136.009
260.293	25.181	1436.640	1134.744
261.307	25.042	1436.467	1133.625
262.322	25.028	1435.389	1132.590
263.336	25.009	1436.037	1132.879
264.351	25.211	1434.856	1133.121
265.366	25.359	1433.313	1132.736
266.380	25.249	1432.053	1130.950
267.395	25.285	1431.585	1130.704
268.409	25.191	1431.291	1129.779
269.424	25.143	1430.156	1128.482
270.439	24.840	1428.504	1125.175
271.453	24.775	1428.440	1124.617
272.468	25.058	1426.647	1124.882
273.482	24.750	1426.471	1122.709
274.497	24.544	1425.672	1120.687
275.512	24.618	1424.085	1119.803
276.526	24.552	1423.362	1118.723
277.541	24.736	1421.700	1118.471
278.555	24.600	1421.243	1117.161
279.570	24.779	1420.096	1117.282
280.585	24.852	1419.604	1117.250
281.599	25.060	1419.360	1118.259
282.614	25.047	1419.072	1117.852
283.628	25.117	1416.641	1116.271
284.643	24.800	1415.929	1113.640
285.657	24.715	1415.036	1112.308
286.672	24.834	1413.470	1111.717
287.687	24.564	1413.287	1109.800
288.701	24.646	1412.374	1109.493
289.716	24.737	1412.241	1109.857
290.730	24.783	1410.613	1108.762
291.745	24.848	1409.889	1108.497
292.760	24.834	1408.919	1107.550
293.774	24.690	1408.529	1106.257
294.789	24.888	1406.418	1105.723
295.803	24.958	1406.480	1106.104
296.818	25.261	1406.016	1107.511
297.833	24.928	1405.577	1105.013
298.847	24.972	1403.243	1103.352
299.862	24.861	1403.321	1102.632
300.876	24.915	1401.250	1101.239
301.891	24.941	1401.145	1101.219
302.906	24.870	1401.243	1100.762
303.920	24.991	1400.360	1100.718
304.935	25.153	1399.983	1101.319
305.949	25.340	1398.803	1101.437
306.964	25.467	1398.026	1101.506
307.979	25.348	1398.164	1100.788
308.993	25.257	1397.561	1099.661
310.008	25.119	1395.643	1097.211
311.022	25.131	1394.588	1096.355
312.037	25.160	1393.125	1095.289
313.052	25.418	1392.897	1096.583
314.066	25.255	1391.838	1094.661
315.081	25.012	1390.264	1091.844
316.095	24.764	1388.683	1089.000
317.110	24.496	1388.003	1086.739
318.125	24.408	1387.150	1085.435
319.139	24.700	1386.606	1086.689
320.154	24.494	1385.679	1084.618
321.168	24.675	1384.372	1084.593
322.183	24.600	1383.582	1083.428
323.197	24.644	1381.722	1082.139
324.212	24.785	1381.441	1082.675
325.227	24.664	1380.315	1080.965
326.241	24.773	1379.465	1080.865
327.256	24.829	1379.611	1081.219
328.270	24.944	1378.573	1081.010
329.285	24.900	1376.704	1079.179
330.300	24.512	1377.539	1077.397
331.314	24.653	1376.333	1077.212
332.329	24.952	1374.794	1077.712
333.343	24.687	1373.899	1075.322
334.358	24.613	1373.779	1074.688
335.373	24.780	1372.764	1074.801
336.387	25.224	1372.277	1076.987
337.402	25.021	1372.132	1075.558
338.416	25.239	1371.650	1076.395
339.431	25.197	1369.950	1074.718
340.446	25.380	1369.652	1075.483
341.460	25.487	1369.290	1075.741
342.475	25.629	1368.749	1076.073
343.489	25.679	1368.869	1076.370
344.504	25.890	1366.635	1075.779
345.519	25.742	1366.393	1074.611
346.533	25.805	1365.352	1074.075
347.548	25.941	1364.337	1073.989
348.562	25.909	1363.592	1073.118
349.577	25.713	1363.373	1071.685
350.592	25.323	1362.289	1068.416
351.606	25.391	1360.366	1067.217
352.621	25.282	1358.607	1065.097
353.635	25.291	1357.417	1064.122
354.650	25.057	1357.043	1062.347
355.665	24.859	1355.700	1060.030
356.679	24.891	1354.910	1059.508
357.694	24.972	1354.826	1059.825
358.708	25.337	1353.478	1060.836
359.723	25.183	1352.883	1059.368
360.738	25.307	1352.291	1059.542
361.752	25.409	1349.808	1058.104
362.767	25.495	1348.941	1057.838
363.781	25.453	1348.472	1057.126
364.796	25.246	1347.922	1055.386
365.810	25.485	1346.415	1055.516
366.825	25.730	1346.699	1057.084
367.840	26.064	1346.383	1058.704
368.854	26.072	1345.365	1057.852
369.869	25.965	1346.272	1057.845
370.883	26.047	1344.937	1057.185
371.898	25.962	1344.874	1056.546
372.913	25.616	1343.423	1053.284
373.927	25.651	1342.190	1052.429
374.942	25.752	1341.064	1052.041
375.956	25.834	1340.601	1052.065
376.971	26.086	1339.235	1052.371
377.986	25.750	1339.328	1050.393
379.000	25.621	1338.439	1048.846
380.015	25.914	1337.228	1049.516
381.029	26.112	1336.941	1050.347
382.044	26.150	1336.193	1049.887
383.059	26.063	1336.099	1049.216
384.073	25.847	1335.473	1047.372
385.088	25.988	1334.656	1047.461
386.102	25.756	1334.623	1045.997
387.117	25.995	1333.770	1046.623
388.132	25.830	1332.729	1044.754
389.146	25.554	1331.225	1041.884
390.161	25.522	1329.601	1040.335
391.175	25.471	1329.759	1040.071
392.190	25.581	1327.915	1039.172
393.205	25.598	1328.268	1039.453
394.219	25.766	1326.886	1039.251
395.234	26.196	1325.169	1040.292
396.248	25.965	1324.049	1037.990
397.263	25.577	1323.847	1035.511
398.278	25.410	1321.705	1032.783
399.292	25.311	1321.348	1031.842
400.307	25.531	1319.444	1031.525
401.321	25.809	1318.902	1032.606
402.336	25.626	1318.142	1030.870
403.350	25.375	1316.527	1028.081
404.365	25.069	1315.851	1025.711
405.380	25.336	1315.149	1026.599
406.394	25.562	1314.374	1027.192
407.409	25.613	1314.467	1027.469
408.423	25.593	1313.377	1026.409
409.438	25.827	1313.313	1027.604
410.453	26.203	1312.311	1028.870
411.467	26.202	1311.634	1028.244
412.482	26.043	1311.779	1027.361
413.496	26.293	1311.081	1028.147
414.511	26.021	1311.081	1026.510
415.526	26.328	1309.694	1027.076
416.540	26.392	1308.298	1026.254
417.555	26.384	1308.815	1026.524
418.569	26.627	1307.349	1026.658
419.584	26.094	1307.793	1023.893
420.599	26.258	1306.165	1023.457
421.613	143.789	1434.948	1793.770
422.628	139.332	1453.723	1793.861
