DTS Sentinel unit serial number:	SN413079Multiplexer serial number:	ORYXHardware model number:	OX4-SRSoftware version number:	ORYX F/W v4.00 Oryx Data Collector v3.7.2.0data status	okinstallation	princeton_trtdifferential loss correction	single-endedforward channel	channel 4reverse channel	N/Adate	2019/09/16time	03:21:34forward acquisition time	60.00reverse acquisition time	0.00gamma	496.2192k internal	0.2319k external	0.2319temperature offset calibration	0.9976default loss term (dB/km)	0.3790temperature slope calibration	1.0000multiplexer offset coefficient	1.0000multiplexer slope coefficient	1.0000fibre end	0.00T internal ref (°C)	27.69T ext. ref 1 (°C)	10.52T ext. ref 2 (°C)	21.82length (m)	temperature (°C)	Stokes	anti-Stokes-747.200	-200.000	0.053	0.456
-746.185	-71.718	-0.191	0.072
-745.171	570.237	0.079	-0.195
-744.156	-84.526	-0.068	0.022
-743.142	800.000	0.065	0.248
-742.127	149.585	-0.180	0.247
-741.112	-3.279	-0.356	-0.251
-740.098	-200.000	-0.009	0.363
-739.083	-40.199	-0.176	0.093
-738.069	-97.977	-0.172	0.045
-737.054	49.969	-0.261	0.249
-736.039	-110.431	-0.273	0.057
-735.025	-143.681	0.063	-0.006
-734.010	486.473	0.095	0.219
-732.996	-112.512	0.251	0.051
-731.981	-95.561	-0.382	0.104
-730.966	-200.000	0.024	0.134
-729.952	234.496	-0.138	0.230
-728.937	-91.513	-0.219	0.063
-727.923	-200.000	-0.017	-0.182
-726.908	-39.939	-0.159	0.084
-725.894	-200.000	-0.022	-0.242
-724.879	156.294	-0.181	-0.252
-723.864	-75.088	0.162	-0.059
-722.850	-16.890	0.152	0.097
-721.835	-200.000	0.016	0.139
-720.821	-81.888	-0.139	-0.046
-719.806	-49.788	-0.299	-0.143
-718.791	-200.000	-0.045	0.229
-717.777	-64.879	-0.131	-0.053
-716.762	474.326	-0.068	-0.156
-715.748	-99.804	-0.463	0.117
-714.733	3.917	-0.082	-0.061
-713.718	46.288	-0.226	0.212
-712.704	385.531	-0.072	-0.150
-711.689	-31.184	0.068	-0.039
-710.675	32.171	0.044	-0.038
-709.660	800.000	0.057	-0.217
-708.645	43.623	0.193	-0.178
-707.631	69.081	0.116	0.120
-706.616	687.393	-0.089	0.236
-705.602	181.048	0.081	-0.120
-704.587	-82.702	0.384	-0.125
-703.572	529.884	0.109	-0.261
-702.558	101.187	0.094	0.111
-701.543	800.000	-0.084	-0.345
-700.529	-200.000	-0.000	-0.180
-699.514	-63.220	0.067	0.028
-698.499	-34.744	-0.087	-0.048
-697.485	23.312	-0.347	-0.288
-696.470	-200.000	0.032	0.202
-695.456	-163.873	-0.051	0.002
-694.441	-121.712	-0.135	-0.022
-693.426	-104.609	-0.285	0.066
-692.412	-14.956	-0.112	0.073
-691.397	359.467	0.082	0.165
-690.383	-93.479	0.124	-0.035
-689.368	195.268	0.055	-0.084
-688.354	50.171	-0.059	-0.057
-687.339	-174.524	-0.145	0.004
-686.324	693.224	0.126	-0.334
-685.310	800.000	-0.092	-0.270
-684.295	290.606	-0.080	0.147
-683.281	-99.589	-0.214	0.054
-682.266	694.593	-0.039	-0.103
-681.251	-42.628	0.172	-0.089
-680.237	56.919	0.112	-0.110
-679.222	-200.000	0.127	-0.578
-678.208	595.346	0.084	-0.209
-677.193	800.000	-0.113	-0.417
-676.178	-135.113	-0.179	-0.022
-675.164	-69.478	-0.052	-0.020
-674.149	-71.382	0.191	-0.072
-673.135	800.000	0.076	0.234
-672.120	245.263	-0.025	0.042
-671.105	-5.933	0.254	0.175
-670.091	-180.609	-0.212	-0.004
-669.076	-200.000	-0.025	0.167
-668.062	-27.003	-0.182	0.107
-667.047	-81.815	-0.041	-0.013
-666.032	27.030	-0.061	0.051
-665.018	-82.209	-0.273	0.090
-664.003	-24.570	0.163	0.098
-662.989	-6.340	-0.453	0.311
-661.974	197.055	0.236	0.363
-660.959	247.906	-0.110	0.187
-659.945	122.464	-0.170	0.214
-658.930	-200.000	0.017	0.318
-657.916	800.000	0.074	-0.238
-656.901	-52.559	-0.283	0.132
-655.886	44.733	0.038	-0.035
-654.872	-129.304	-0.104	-0.015
-653.857	800.000	-0.093	-0.296
-652.843	-171.014	-0.262	-0.009
-651.828	-54.271	0.141	-0.065
-650.814	-96.976	0.090	-0.024
-649.799	9.746	-0.239	0.183
-648.784	-200.000	0.044	0.229
-647.770	-125.213	0.096	-0.015
-646.755	-200.000	0.057	-0.415
-645.741	10.504	0.182	0.140
-644.726	800.000	0.119	0.374
-643.711	9.847	-0.042	0.032
-642.697	-28.934	-0.149	-0.086
-641.682	800.000	0.104	0.328
-640.668	-200.000	0.036	-0.484
-639.653	-200.000	0.010	-0.342
-638.638	-91.587	0.226	-0.065
-637.624	-200.000	0.092	0.548
-636.609	55.968	0.090	-0.088
-635.595	67.986	-0.160	0.164
-634.580	-200.000	-0.055	0.266
-633.565	-200.000	-0.049	0.340
-632.551	-167.560	0.150	-0.006
-631.536	-128.786	0.032	0.004
-630.522	2.136	0.219	0.160
-629.507	-41.679	0.134	-0.069
-628.492	800.000	0.067	-0.219
-627.478	294.622	-0.108	-0.200
-626.463	91.373	-0.123	0.140
-625.449	-25.623	0.092	0.055
-624.434	-135.684	-0.387	0.046
-623.419	-60.465	0.185	0.079
-622.405	-13.777	0.232	0.151
-621.390	-39.858	-0.138	-0.073
-620.376	-13.087	0.258	-0.169
-619.361	103.316	-0.095	-0.112
-618.346	69.384	-0.307	-0.318
-617.332	47.664	0.211	-0.198
-616.317	76.530	-0.294	0.314
-615.303	739.619	0.023	-0.063
-614.288	-183.296	0.205	0.004
-613.273	-89.057	0.112	0.033
-612.259	109.097	-0.106	-0.127
-611.244	238.035	-0.221	-0.369
-610.230	37.913	-0.125	-0.111
-609.215	-80.627	0.232	0.078
-608.201	-52.261	0.202	0.094
-607.186	-200.000	0.000	0.104
-606.171	436.002	0.036	-0.080
-605.157	-113.134	-0.162	-0.032
-604.142	-52.055	-0.091	-0.042
-603.128	145.493	-0.196	-0.265
-602.113	-141.638	-0.304	-0.031
-601.098	-200.000	-0.006	-0.242
-600.084	-200.000	0.002	-0.103
-599.069	-200.000	-0.283	0.000
-598.055	-200.000	0.018	-0.091
-597.040	317.001	0.024	-0.046
-596.025	-5.654	-0.255	-0.176
-595.011	393.936	-0.210	0.439
-593.996	82.091	0.080	0.088
-592.982	-64.106	-0.317	0.130
-591.967	224.109	-0.073	-0.119
-590.952	24.073	-0.077	-0.064
-589.938	800.000	0.043	0.176
-588.923	-200.000	0.053	0.273
-587.909	-17.990	-0.163	-0.103
-586.894	-200.000	0.011	-0.150
-585.879	15.439	-0.161	0.127
-584.865	157.845	0.174	-0.242
-583.850	248.393	0.146	-0.249
-582.836	-117.835	0.244	-0.044
-581.821	54.869	0.170	0.165
-580.806	-34.024	0.253	0.140
-579.792	554.679	0.163	-0.395
-578.777	-89.838	0.231	0.068
-577.763	-88.527	0.450	0.135
-576.748	-143.459	0.178	0.017
-575.733	-58.278	0.436	-0.191
-574.719	-180.065	0.183	0.004
-573.704	183.113	-0.046	-0.068
-572.690	-4.859	-0.225	0.156
-571.675	-139.345	0.281	-0.030
-570.661	-55.466	-0.237	-0.107
-569.646	800.000	-0.097	-0.280
-568.631	203.202	-0.113	0.176
-567.617	246.313	-0.033	-0.056
-566.602	-62.105	0.209	-0.088
-565.588	99.883	-0.377	0.438
-564.573	-200.000	-0.025	-0.185
-563.558	49.899	-0.243	-0.231
-562.544	-43.435	0.230	-0.116
-561.529	1.289	-0.257	-0.185
-560.515	118.311	0.158	0.195
-559.500	800.000	-0.085	0.366
-558.485	-200.000	-0.010	0.114
-557.471	-105.468	-0.365	0.083
-556.456	19.897	-0.151	-0.122
-555.442	74.811	-0.266	-0.281
-554.427	-126.818	0.082	0.012
-553.412	129.408	0.143	0.183
-552.398	295.289	-0.015	-0.027
-551.383	-104.732	-0.317	0.073
-550.369	-2.517	-0.064	0.045
-549.354	142.465	-0.161	-0.214
-548.339	-100.729	0.346	0.086
-547.325	-4.351	0.115	0.080
-546.310	-96.536	0.179	0.047
-545.296	800.000	0.068	-0.263
-544.281	109.239	-0.231	-0.278
-543.266	110.977	-0.186	-0.225
-542.252	-200.000	0.058	-0.611
-541.237	-97.959	-0.453	0.117
-540.223	-81.358	0.082	-0.027
-539.208	221.317	0.090	0.144
-538.193	-200.000	0.008	-0.539
-537.179	99.042	-0.157	-0.182
-536.164	94.840	0.225	-0.256
-535.150	242.809	0.096	0.161
-534.135	-132.382	-0.216	0.028
-533.121	-41.762	0.349	-0.180
-532.106	41.982	-0.254	-0.231
-531.091	12.867	0.162	0.125
-530.077	119.938	0.025	0.031
-529.062	79.533	-0.104	-0.111
-528.048	59.355	0.096	-0.095
-527.033	-200.000	0.022	-0.126
-526.018	-200.000	-0.004	0.227
-525.004	384.009	-0.134	-0.277
-523.989	-36.176	0.282	0.153
-522.975	160.061	-0.107	-0.150
-521.960	800.000	-0.073	-0.298
-520.945	-192.384	-0.246	-0.002
-519.931	249.350	-0.121	-0.206
-518.916	-41.116	-0.218	-0.113
-517.902	-42.402	-0.182	0.093
-516.887	-96.011	0.254	-0.068
-515.872	-18.593	-0.193	0.121
-514.858	33.473	-0.156	0.136
-513.843	-144.868	-0.145	-0.013
-512.829	-165.801	-0.335	-0.014
-511.814	-25.662	-0.231	0.137
-510.799	-200.000	-0.015	-0.093
-509.785	-200.000	0.019	0.086
-508.770	182.003	-0.257	-0.380
-507.756	-200.000	-0.032	-0.243
-506.741	-200.000	-0.005	0.108
-505.726	99.212	-0.276	-0.319
-504.712	147.647	0.176	0.237
-503.697	171.445	0.092	0.132
-502.683	284.309	0.031	0.055
-501.668	-200.000	0.069	0.304
-500.653	-200.000	-0.018	-0.243
-499.639	-200.000	0.057	-0.340
-498.624	-200.000	-0.008	-0.138
-497.610	332.996	-0.071	0.138
-496.595	-40.888	0.167	0.087
-495.581	-62.795	0.081	0.034
-494.566	132.075	-0.156	0.202
-493.551	-92.859	-0.117	-0.033
-492.537	-200.000	0.016	-0.378
-491.522	109.003	-0.114	-0.137
-490.508	-32.252	0.131	0.073
-489.493	-148.013	-0.176	-0.015
-488.478	78.190	-0.264	-0.282
-487.464	-168.311	0.283	-0.011
-486.449	104.623	-0.253	0.299
-485.435	-74.524	-0.221	-0.080
-484.420	800.000	0.101	0.315
-483.405	-131.489	0.420	0.055
-482.391	84.289	-0.080	0.087
-481.376	800.000	-0.100	0.359
-480.362	462.686	0.126	0.281
-479.347	-130.638	0.176	0.024
-478.332	94.727	0.178	0.202
-477.318	-200.000	0.010	-0.318
-476.303	-133.926	0.239	-0.030
-475.289	-200.000	-0.039	0.190
-474.274	-106.689	0.155	-0.034
-473.259	94.525	-0.186	-0.211
-472.245	76.377	0.226	0.239
-471.230	-103.703	0.285	0.067
-470.216	-200.000	0.034	0.238
-469.201	-142.418	0.076	0.007
-468.186	545.771	-0.139	-0.333
-467.172	416.128	-0.063	0.135
-466.157	-119.934	0.223	-0.038
-465.143	-83.467	-0.156	0.050
-464.128	-113.751	0.340	-0.066
-463.113	29.393	-0.125	0.106
-462.099	3.768	0.349	0.255
-461.084	165.969	-0.157	0.222
-460.070	-200.000	0.094	0.439
-459.055	25.724	-0.190	0.159
-458.040	120.658	-0.222	-0.276
-457.026	184.034	-0.131	0.195
-456.011	-200.000	-0.085	-0.465
-454.997	48.429	0.084	-0.078
-453.982	23.814	0.146	0.120
-452.968	-78.395	0.165	-0.056
-451.953	-41.601	0.185	-0.095
-450.938	35.342	-0.153	-0.134
-449.924	-200.000	0.002	-0.139
-448.909	94.591	-0.176	0.200
-447.895	-200.000	0.020	-0.208
-446.880	-200.000	0.018	0.223
-445.865	-200.000	0.011	-0.115
-444.851	-35.254	0.123	-0.067
-443.836	-200.000	0.014	0.152
-442.822	140.642	0.116	-0.154
-441.807	-115.403	-0.298	0.056
-440.792	-200.000	-0.001	-0.099
-439.778	-4.956	-0.161	0.111
-438.763	-129.149	-0.295	-0.041
-437.749	-200.000	-0.023	-0.145
-436.734	146.800	0.113	0.152
-435.719	-200.000	-0.006	-0.156
-434.705	-39.225	-0.086	-0.045
-433.690	40.160	-0.163	-0.147
-432.676	-200.000	0.003	0.049
-431.661	800.000	0.059	0.166
-430.646	132.324	0.066	-0.084
-429.632	-200.000	-0.047	-0.208
-428.617	-139.289	-0.277	-0.030
-427.603	800.000	0.052	-0.164
-426.588	-200.000	0.008	0.323
-425.573	-200.000	0.004	-0.348
-424.559	-71.100	0.052	-0.020
-423.544	216.438	0.132	0.210
-422.530	-200.000	0.021	0.268
-421.515	-149.658	-0.263	-0.021
-420.500	-172.893	-0.190	-0.006
-419.486	800.000	0.105	-0.300
-418.471	-200.000	0.004	0.145
-417.457	-200.000	0.063	0.278
-416.442	-108.472	0.242	0.052
-415.428	-42.407	0.143	0.073
-414.413	-25.942	0.238	0.140
-413.398	-200.000	-0.013	-0.272
-412.384	-119.876	0.266	-0.046
-411.369	-60.392	-0.296	0.126
-410.355	-69.710	-0.085	-0.032
-409.340	-106.477	0.251	-0.056
-408.325	-52.581	-0.160	0.074
-407.311	-32.891	0.013	-0.007
-406.296	-97.715	0.307	-0.079
-405.282	275.672	0.035	-0.062
-404.267	-200.000	-0.016	0.190
-403.252	-200.000	0.008	0.259
-402.238	-25.430	0.056	0.033
-401.223	631.780	0.123	0.311
-400.209	-30.140	0.148	0.084
-399.194	336.856	0.085	-0.165
-398.179	-64.688	-0.109	-0.044
-397.165	-200.000	0.044	0.467
-396.150	-54.240	-0.361	-0.163
-395.136	62.541	0.142	-0.141
-394.121	-131.263	-0.203	0.027
-393.106	199.802	0.100	-0.153
-392.092	-167.758	-0.225	-0.009
-391.077	-101.617	-0.281	-0.068
-390.063	-126.898	0.060	-0.009
-389.048	37.263	-0.255	0.225
-388.033	-200.000	-0.006	-0.032
-387.019	-200.000	-0.016	-0.095
-386.004	-170.548	-0.121	0.004
-384.990	-137.391	0.274	-0.031
-383.975	-92.069	0.262	-0.074
-382.960	-34.186	-0.049	-0.027
-381.946	256.760	0.108	-0.184
-380.931	117.977	-0.192	-0.236
-379.917	-200.000	0.014	0.204
-378.902	18.292	-0.248	0.197
-377.888	-177.025	0.146	-0.004
-376.873	800.000	0.046	-0.160
-375.858	514.946	-0.108	0.251
-374.844	13.608	0.218	0.169
-373.829	-111.591	-0.216	-0.044
-372.815	-104.416	-0.426	-0.098
-371.800	800.000	0.059	0.233
-370.785	-39.616	0.330	-0.172
-369.771	-2.789	-0.110	-0.077
-368.756	393.571	0.094	-0.195
-367.742	-200.000	-0.026	0.177
-366.727	-200.000	0.024	0.204
-365.712	56.887	0.235	0.229
-364.698	-143.658	0.322	0.030
-363.683	259.153	-0.224	-0.386
-362.669	-32.074	-0.425	0.237
-361.654	72.590	-0.082	0.085
-360.639	14.472	0.158	0.122
-359.625	-200.000	-0.003	0.384
-358.610	-67.315	-0.161	-0.063
-357.596	800.000	-0.095	-0.389
-356.581	95.056	0.059	0.067
-355.566	65.456	0.276	-0.279
-354.552	-186.209	0.733	-0.011
-353.537	83.014	0.182	0.197
-352.523	115.555	0.223	0.271
-351.508	-187.319	-0.135	0.002
-350.493	95.726	0.170	-0.194
-349.479	-200.000	-0.005	-0.121
-348.464	-87.046	-0.086	-0.026
-347.450	274.464	0.072	-0.126
-346.435	6.553	-0.272	0.201
-345.420	800.000	-0.045	0.144
-344.406	-200.000	-0.008	0.084
-343.391	-43.301	0.261	0.132
-342.377	-80.970	-0.395	0.130
-341.362	-11.254	0.193	-0.127
-340.348	-96.269	-0.249	-0.066
-339.333	213.119	0.120	0.189
-338.318	-71.731	0.174	-0.064
-337.304	-168.629	0.207	-0.008
-336.289	800.000	0.134	0.440
-335.275	-200.000	0.006	-0.117
-334.260	48.263	-0.072	0.067
-333.245	800.000	-0.064	-0.215
-332.231	358.498	-0.265	0.528
-331.216	-112.423	-0.226	-0.045
-330.202	-200.000	0.050	-0.283
-329.187	-62.668	0.041	0.017
-328.172	398.704	0.054	-0.113
-327.158	-142.449	0.381	0.037
-326.143	28.954	0.123	-0.104
-325.129	800.000	0.008	0.027
-324.114	0.979	0.077	0.055
-323.099	800.000	0.073	0.314
-322.085	199.787	-0.037	0.057
-321.070	490.277	-0.062	-0.142
-320.056	351.054	0.162	-0.319
-319.041	-170.301	-0.107	0.004
-318.026	103.052	-0.148	-0.172
-317.012	-28.499	-0.052	-0.030
-315.997	485.113	0.052	0.118
-314.983	-109.452	-0.253	0.053
-313.968	594.361	0.101	0.248
-312.953	90.715	-0.323	-0.360
-311.939	209.550	0.098	0.153
-310.924	-200.000	0.056	0.456
-309.910	144.371	0.302	-0.401
-308.895	-200.000	0.010	0.461
-307.880	-1.553	-0.187	0.131
-306.866	109.105	-0.124	0.148
-305.851	-118.984	-0.226	0.039
-304.837	-74.131	-0.243	0.088
-303.822	-16.239	-0.131	-0.083
-302.807	-9.821	-0.070	-0.046
-301.793	-108.197	-0.224	-0.048
-300.778	130.615	0.074	-0.094
-299.764	-200.000	-0.055	0.337
-298.749	-200.000	0.032	-0.194
-297.735	-48.334	0.171	-0.082
-296.720	2.377	-0.166	0.120
-295.705	6.630	0.058	-0.043
-294.691	-24.473	0.320	0.189
-293.676	289.891	-0.045	0.081
-292.662	420.776	0.090	-0.191
-291.647	-200.000	0.009	-0.047
-290.632	800.000	-0.039	0.118
-289.618	-87.860	0.198	0.059
-288.603	177.554	0.181	0.263
-287.589	-200.000	-0.047	0.215
-286.574	-200.000	-0.003	0.193
-285.559	-200.000	0.025	0.142
-284.545	-43.198	0.173	0.087
-283.530	-109.984	0.094	0.019
-282.516	146.538	-0.205	-0.274
-281.501	800.000	0.099	-0.282
-280.486	-49.435	0.320	-0.152
-279.472	-200.000	0.078	0.351
-278.457	-97.653	-0.137	0.035
-277.443	213.076	0.058	-0.091
-276.428	125.171	0.212	-0.266
-275.413	-142.738	-0.307	0.030
-274.399	-105.434	-0.188	-0.042
-273.384	383.817	-0.095	0.194
-272.370	-200.000	0.018	-0.163
-271.355	-149.485	0.084	-0.007
-270.340	-106.329	-0.188	0.042
-269.326	800.000	-0.094	0.358
-268.311	-89.001	-0.255	0.075
-267.297	-146.330	0.252	-0.022
-266.282	-113.733	0.186	-0.036
-265.267	-191.199	-0.208	0.002
-264.253	79.533	0.287	-0.306
-263.238	115.861	0.126	-0.153
-262.224	-200.000	-0.049	-0.293
-261.209	-200.000	-0.078	0.364
-260.195	54.815	-0.148	0.142
-259.180	-200.000	-0.003	0.016
-258.165	800.000	-0.116	0.337
-257.151	-73.127	-0.199	0.072
-256.136	647.073	0.067	0.169
-255.122	-112.840	-0.038	-0.008
-254.107	-139.321	-0.210	0.022
-253.092	359.750	-0.104	0.205
-252.078	-87.515	-0.247	0.074
-251.063	-49.208	0.118	-0.056
-250.049	261.492	0.054	0.093
-249.034	-72.009	0.147	-0.054
-248.019	800.000	-0.042	-0.160
-247.005	-200.000	0.007	-0.119
-245.990	130.331	0.188	-0.239
-244.976	800.000	-0.090	-0.309
-243.961	-200.000	-0.054	0.309
-242.946	-117.859	0.185	-0.033
-241.932	68.304	0.146	0.148
-240.917	539.345	0.042	-0.099
-239.903	-78.825	0.017	-0.006
-238.888	303.526	-0.094	-0.173
-237.873	-200.000	-0.009	-0.202
-236.859	30.763	0.224	0.190
-235.844	764.389	-0.107	-0.287
-234.830	32.577	-0.200	0.172
-233.815	8.243	-0.199	-0.148
-232.800	-155.588	0.143	0.009
-231.786	800.000	0.014	-0.051
-230.771	430.856	-0.028	-0.060
-229.757	-88.692	-0.224	-0.066
-228.742	234.070	-0.065	-0.106
-227.727	-200.000	0.023	0.122
-226.713	-44.741	-0.232	0.115
-225.698	299.390	-0.071	-0.129
-224.684	-114.049	0.130	-0.025
-223.669	800.000	0.085	-0.243
-222.655	-73.725	0.221	-0.080
-221.640	207.376	0.214	-0.331
-220.625	30.134	-0.203	0.171
-219.611	-13.560	-0.206	-0.132
-218.596	80.500	-0.124	-0.132
-217.582	-94.903	0.345	-0.093
-216.567	-8.304	-0.204	-0.136
-215.552	-200.000	-0.077	-0.000
-214.538	-5.558	-0.223	0.151
-213.523	316.292	-0.079	-0.148
-212.509	-122.986	-0.154	0.025
-211.494	-155.573	0.102	-0.006
-210.479	-92.129	-0.180	-0.050
-209.465	-77.920	0.087	-0.030
-208.450	-200.000	0.053	-0.421
-207.436	-200.000	0.016	-0.127
-206.421	34.258	0.252	0.217
-205.406	-52.535	-0.086	-0.039
-204.392	595.380	-0.183	0.448
-203.377	126.469	-0.087	-0.109
-202.363	-200.000	0.020	0.093
-201.348	-54.893	-0.264	0.118
-200.333	-200.000	0.019	-0.250
-199.319	-67.838	0.229	0.089
-198.304	-39.582	-0.056	-0.029
-197.290	-200.000	-0.017	0.357
-196.275	-1.146	-0.315	0.220
-195.260	235.463	0.115	-0.187
-194.246	23.862	-0.219	0.179
-193.231	125.747	0.308	-0.385
-192.217	-200.000	-0.006	0.110
-191.202	32.481	0.240	0.205
-190.187	-4.587	-0.112	-0.076
-189.173	-15.018	-0.284	0.180
-188.158	-156.847	0.235	0.014
-187.144	106.184	-0.083	-0.097
-186.129	-200.000	-0.005	0.086
-185.114	-17.123	0.299	0.187
-184.100	361.228	0.130	0.258
-183.085	800.000	0.077	0.230
-182.071	-132.042	0.389	0.050
-181.056	653.889	-0.015	-0.038
-180.042	47.085	-0.125	0.115
-179.027	546.366	-0.046	-0.109
-178.012	800.000	-0.093	-0.267
-176.998	-54.725	0.101	0.045
-175.983	160.563	0.108	-0.148
-174.969	50.741	-0.077	-0.072
-173.954	82.929	0.131	0.141
-172.939	199.326	0.197	0.299
-171.925	41.755	0.185	0.166
-170.910	-3.656	0.172	-0.119
-169.896	-63.102	0.026	-0.011
-168.881	450.913	0.026	-0.058
-167.866	-200.000	-0.007	0.163
-166.852	-200.000	-0.021	-0.178
-165.837	-24.109	0.184	-0.109
-164.823	-200.000	-0.001	-0.285
-163.808	-126.992	0.261	-0.038
-162.793	272.468	0.164	0.285
-161.779	-200.000	-0.026	0.317
-160.764	46.191	-0.175	0.160
-159.750	148.664	-0.102	-0.137
-158.735	24.472	-0.133	0.109
-157.720	54.084	0.240	-0.229
-156.706	244.950	-0.095	0.157
-155.691	-99.175	0.191	0.048
-154.677	-104.173	-0.076	0.017
-153.662	-126.422	0.064	-0.009
-152.647	800.000	0.078	-0.296
-151.633	442.800	0.094	-0.203
-150.618	145.843	0.138	-0.183
-149.604	2.920	0.263	-0.189
-148.589	-68.169	0.305	0.117
-147.574	-151.420	-0.191	-0.014
-146.560	-72.943	0.143	0.052
-145.545	-82.744	-0.117	0.037
-144.531	-26.437	0.122	0.070
-143.516	153.464	0.198	-0.267
-142.502	-98.657	0.348	-0.088
-141.487	800.000	0.071	0.244
-140.472	113.730	0.070	-0.085
-139.458	-38.301	-0.261	-0.137
-138.443	149.105	0.069	-0.093
-137.429	13.405	0.099	0.076
-136.414	65.462	0.274	-0.274
-135.399	-163.223	0.207	0.010
-134.385	800.000	-0.227	-0.640
-133.370	-200.000	0.018	0.090
-132.356	800.000	0.056	-0.159
-131.341	508.231	-0.055	-0.126
-130.326	-200.000	-0.057	-0.341
-129.312	-111.655	0.071	-0.014
-128.297	-200.000	0.083	0.513
-127.283	104.591	0.040	0.046
-126.268	698.408	-0.088	0.229
-125.253	-56.780	-0.482	-0.210
-124.239	124.689	-0.165	0.205
-123.224	-49.954	-0.352	0.165
-122.210	70.770	-0.218	-0.223
-121.195	-200.000	0.044	-0.190
-120.180	126.775	0.048	0.060
-119.166	461.024	0.101	-0.223
-118.151	-48.413	0.220	-0.104
-117.137	413.117	-0.046	-0.097
-116.122	77.505	0.092	-0.097
-115.107	-78.054	0.109	-0.037
-114.093	-15.821	-0.226	0.142
-113.078	75.614	-0.124	-0.129
-112.064	-0.484	0.140	-0.098
-111.049	43.265	-0.094	-0.085
-110.034	-35.329	0.108	0.058
-109.020	359.207	-0.084	0.165
-108.005	512.802	-0.095	-0.218
-106.991	800.000	0.062	-0.199
-105.976	-200.000	0.057	0.406
-104.962	712.977	0.187	-0.490
-103.947	800.000	-0.039	0.112
-102.932	82.767	0.235	-0.252
-101.918	242.838	0.150	0.248
-100.903	22.163	0.333	0.268
-99.889	-136.007	-0.163	-0.019
-98.874	-47.626	-0.112	-0.053
-97.859	59.714	0.084	0.082
-96.845	800.000	-0.008	0.025
-95.830	-6.479	-0.134	0.090
-94.816	-200.000	0.016	0.160
-93.801	202.032	0.062	0.094
-92.786	-44.457	-0.087	0.043
-91.772	691.849	0.054	-0.140
-90.757	-132.280	-0.355	-0.045
-89.743	-173.114	0.241	0.007
-88.728	-138.643	-0.352	0.038
-87.713	-200.000	-0.010	0.243
-86.699	-130.297	-0.393	0.053
-85.684	-44.695	-0.376	0.185
-84.670	-118.215	-0.390	0.069
-83.655	64.993	0.058	-0.058
-82.640	-120.942	-0.204	-0.034
-81.626	-200.000	0.014	-0.315
-80.611	-77.423	-0.260	-0.089
-79.597	367.154	0.093	0.186
-78.582	-200.000	-0.051	-0.293
-77.567	5.611	-0.128	-0.093
-76.553	-132.149	-0.262	-0.033
-75.538	279.359	-0.088	0.154
-74.524	428.376	-0.120	-0.255
-73.509	86.040	0.071	-0.077
-72.494	800.000	0.056	-0.174
-71.480	-133.945	0.291	0.036
-70.465	-200.000	-0.063	0.317
-69.451	88.315	0.190	-0.208
-68.436	-31.577	-0.333	-0.184
-67.422	-71.173	-0.227	0.084
-66.407	100.694	0.106	-0.121
-65.392	-200.000	-0.039	0.271
-64.378	-113.132	-0.149	-0.029
-63.363	49.027	-0.204	0.189
-62.349	-94.883	0.075	-0.020
-61.334	87.022	-1.226	-1.334
-60.319	90.682	0.622	0.686
-59.305	-200.000	-0.199	-1.089
-58.290	235.067	0.739	1.200
-57.276	522.396	0.637	1.473
-56.261	-200.000	111.826	636.732
-55.246	467.453	1499.971	3311.131
-54.232	145.093	2676.445	3524.993
-53.217	94.173	2323.990	2596.503
-52.203	34.103	2072.554	1778.037
-51.188	29.327	1987.563	1662.126
-50.173	28.008	1970.210	1635.750
-49.159	46.316	2027.991	1850.386
-48.144	45.415	2044.743	1857.418
-47.130	29.916	2004.074	1681.016
-46.115	27.721	1993.280	1652.042
-45.100	27.612	1990.368	1648.576
-44.086	27.650	1987.345	1646.349
-43.071	27.539	1984.986	1643.334
-42.057	27.474	1983.472	1641.430
-41.042	27.480	1981.740	1639.988
-40.027	27.582	1979.386	1638.884
-39.013	27.577	1977.542	1637.249
-37.998	27.585	1976.079	1636.048
-36.984	27.572	1974.564	1634.610
-35.969	27.590	1972.513	1633.010
-34.954	27.555	1970.717	1631.150
-33.940	27.634	1969.062	1630.417
-32.925	27.641	1967.384	1629.028
-31.911	27.628	1965.738	1627.483
-30.896	27.752	1963.737	1626.864
-29.881	27.753	1962.289	1625.615
-28.867	27.714	1961.195	1624.292
-27.852	27.774	1959.070	1623.000
-26.838	27.800	1957.361	1621.754
-25.823	27.758	1955.938	1620.139
-24.809	27.704	1953.623	1617.679
-23.794	27.735	1952.068	1616.602
-22.779	27.706	1950.304	1614.821
-21.765	27.653	1949.123	1613.307
-20.750	27.709	1947.045	1612.016
-19.736	27.818	1945.091	1611.299
-18.721	27.745	1944.023	1609.704
-17.706	27.739	1941.933	1607.859
-16.692	27.778	1940.188	1606.696
-15.677	27.725	1939.346	1605.468
-14.663	27.651	1937.911	1603.565
-13.648	27.750	1936.634	1603.310
-12.633	27.729	1935.241	1601.910
-11.619	27.703	1933.925	1600.533
-10.604	27.650	1932.393	1598.733
-9.590	27.734	1931.162	1598.384
-8.575	27.700	1929.557	1596.696
-7.560	27.680	1929.019	1596.018
-6.546	27.684	1927.155	1594.442
-5.531	27.675	1925.817	1593.193
-4.517	27.705	1924.689	1592.458
-3.502	27.766	1923.747	1592.155
-2.487	27.652	1922.878	1590.370
-1.473	27.800	1920.939	1590.000
-0.458	27.796	1916.247	1586.011
0.556	25.664	1897.209	1558.026
1.571	21.457	1878.978	1506.759
2.586	17.712	1901.218	1491.759
3.600	16.728	1936.847	1510.799
4.615	16.603	1931.162	1505.119
5.629	15.265	1839.116	1421.915
6.644	12.418	1735.358	1318.760
7.659	10.626	1704.713	1281.220
8.673	10.570	1701.432	1278.197
9.688	10.594	1700.156	1277.319
10.702	10.455	1698.580	1274.929
11.717	10.451	1695.242	1272.275
12.731	10.534	1693.446	1271.467
13.746	12.671	1697.586	1291.241
14.761	15.861	1703.999	1321.079
15.775	17.471	1706.155	1335.274
16.790	17.131	1704.474	1331.173
17.804	16.122	1700.705	1320.217
18.819	15.207	1697.475	1310.438
19.834	14.446	1695.059	1302.514
20.848	14.023	1693.223	1297.685
21.863	13.865	1691.695	1295.170
22.877	13.621	1689.678	1291.610
23.892	13.362	1688.825	1288.825
24.907	13.296	1687.524	1287.201
25.921	13.282	1686.774	1286.409
26.936	13.361	1684.986	1285.549
27.950	13.389	1684.282	1285.111
28.965	13.391	1683.939	1284.753
29.980	13.400	1683.532	1284.395
30.994	13.490	1682.380	1284.102
32.009	13.520	1680.798	1283.014
33.023	13.654	1680.061	1283.374
34.038	13.598	1679.081	1282.084
35.053	13.590	1677.563	1280.746
36.067	13.516	1676.436	1279.204
37.082	13.527	1675.146	1278.190
38.096	13.472	1674.416	1277.093
39.111	13.555	1673.255	1276.731
40.126	13.614	1672.224	1276.286
41.140	13.613	1671.569	1275.670
42.155	13.475	1670.360	1273.572
43.169	13.327	1669.071	1271.337
44.184	13.290	1667.796	1269.975
45.199	13.360	1665.861	1268.919
46.213	13.192	1665.509	1267.255
47.228	13.316	1664.421	1267.263
48.242	13.346	1662.874	1266.206
49.257	13.461	1661.488	1265.917
50.271	13.454	1660.362	1264.893
51.286	13.399	1658.728	1263.113
52.301	13.418	1657.663	1262.337
53.315	13.432	1656.118	1261.154
54.330	13.412	1654.743	1259.842
55.344	13.369	1653.080	1258.140
56.359	13.344	1651.332	1256.511
57.374	13.414	1650.203	1256.067
58.388	13.356	1649.231	1254.778
59.403	13.342	1648.048	1253.662
60.417	13.199	1646.934	1251.620
61.432	13.229	1645.940	1250.981
62.447	13.216	1644.478	1249.660
63.461	13.162	1643.587	1248.468
64.476	13.184	1642.375	1247.599
65.490	13.157	1641.422	1246.564
66.505	13.086	1640.315	1245.074
67.520	13.251	1639.100	1245.286
68.534	13.240	1638.350	1244.526
69.549	13.253	1637.310	1243.720
70.563	13.297	1635.682	1242.703
71.578	13.238	1634.810	1241.492
72.593	13.150	1634.077	1240.160
73.607	13.108	1633.163	1239.045
74.622	13.243	1631.301	1238.536
75.636	13.126	1630.784	1237.159
76.651	13.156	1629.842	1236.560
77.666	13.061	1629.063	1235.144
78.680	12.991	1628.883	1234.377
79.695	13.206	1627.251	1234.633
80.709	13.179	1626.414	1233.693
81.724	13.241	1625.529	1233.373
82.739	13.266	1625.005	1233.056
83.753	13.324	1623.706	1232.392
84.768	13.358	1623.370	1232.281
85.782	13.429	1622.412	1231.971
86.797	13.552	1620.934	1231.651
87.812	13.545	1620.101	1230.859
88.826	13.483	1618.671	1229.203
89.841	13.349	1618.130	1227.691
90.855	13.332	1617.307	1226.833
91.870	13.471	1616.023	1226.781
92.884	13.383	1614.914	1225.179
93.899	13.460	1613.887	1224.856
94.914	13.516	1612.404	1224.041
95.928	13.486	1611.539	1223.053
96.943	13.536	1610.200	1222.298
97.957	13.493	1608.875	1220.863
98.972	13.558	1607.067	1219.864
99.987	13.483	1605.635	1218.118
101.001	13.457	1604.034	1216.607
102.016	13.490	1602.603	1215.652
103.030	13.470	1601.390	1214.476
104.045	13.461	1600.441	1213.589
105.060	13.469	1598.680	1212.199
106.074	13.411	1596.762	1210.216
107.089	13.362	1595.245	1208.598
108.103	13.383	1593.506	1207.334
109.118	13.297	1592.486	1205.821
110.133	13.194	1590.900	1203.765
111.147	13.250	1589.531	1203.032
112.162	13.323	1588.353	1202.567
113.176	13.274	1586.564	1200.747
114.191	13.289	1585.637	1200.050
115.206	13.357	1584.165	1199.325
116.220	13.444	1582.089	1198.275
117.235	13.351	1581.598	1197.122
118.249	13.304	1579.983	1195.455
119.264	13.345	1578.711	1194.681
120.279	13.215	1577.672	1192.853
121.293	13.307	1575.842	1192.030
122.308	13.232	1574.943	1190.700
123.322	13.285	1573.010	1189.514
124.337	13.260	1571.571	1188.139
125.352	13.268	1570.271	1187.112
126.366	13.321	1568.804	1186.274
127.381	13.278	1567.876	1185.161
128.395	13.241	1566.645	1183.864
129.410	13.237	1565.059	1182.529
130.424	13.282	1564.027	1181.964
131.439	13.243	1562.807	1180.665
132.454	13.275	1561.634	1179.900
133.468	13.251	1559.873	1178.292
134.483	13.363	1558.217	1177.735
135.497	13.317	1557.420	1176.704
136.512	13.367	1555.753	1175.693
137.527	13.407	1554.242	1174.736
138.541	13.386	1553.192	1173.683
139.556	13.376	1551.560	1172.277
140.570	13.472	1550.209	1171.835
141.585	13.459	1548.928	1170.669
142.600	13.454	1548.095	1169.903
143.614	13.580	1546.685	1169.621
144.629	13.574	1545.887	1168.873
145.643	13.731	1543.806	1168.301
146.658	13.662	1542.956	1167.071
147.673	13.664	1541.244	1165.685
148.687	13.577	1539.382	1163.561
149.702	13.578	1537.850	1162.311
150.716	13.464	1536.703	1160.543
151.731	13.482	1535.102	1159.353
152.746	13.554	1534.071	1158.977
153.760	13.529	1532.475	1157.491
154.775	13.517	1531.150	1156.305
155.789	13.551	1530.087	1155.640
156.804	13.691	1528.452	1155.278
157.819	13.647	1527.430	1154.096
158.833	13.725	1526.258	1153.652
159.848	13.701	1525.177	1152.564
160.862	13.752	1524.273	1152.133
161.877	13.776	1522.762	1151.059
162.892	13.755	1521.552	1149.896
163.906	13.554	1520.359	1147.501
164.921	13.588	1519.289	1146.825
165.935	13.642	1517.726	1145.920
166.950	13.586	1516.963	1144.853
167.964	13.664	1515.554	1144.224
168.979	13.677	1514.718	1143.582
169.994	13.684	1513.447	1142.575
171.008	13.658	1512.492	1141.571
172.023	13.682	1511.294	1140.733
173.037	13.701	1510.550	1140.197
174.052	13.718	1509.298	1139.266
175.067	13.844	1507.672	1138.808
176.081	13.773	1507.338	1137.966
177.096	13.667	1505.723	1135.921
178.110	13.645	1504.060	1134.414
179.125	13.756	1502.790	1134.115
180.140	13.744	1501.751	1133.148
181.154	13.762	1501.123	1132.695
182.169	13.724	1500.228	1131.662
183.183	13.762	1498.877	1130.801
184.198	13.846	1497.389	1130.150
185.213	13.789	1496.957	1129.335
186.227	13.927	1495.523	1129.093
187.242	13.931	1494.738	1128.428
188.256	13.955	1493.255	1127.374
189.271	14.031	1492.098	1126.914
190.286	14.050	1491.329	1126.363
191.300	13.941	1490.277	1124.733
192.315	13.754	1488.867	1122.302
193.329	13.803	1487.071	1121.178
194.344	13.672	1486.557	1119.807
195.359	13.733	1485.461	1119.295
196.373	13.821	1483.892	1118.607
197.388	13.964	1482.951	1118.765
198.402	13.991	1482.192	1118.272
199.417	14.083	1480.997	1117.890
200.432	14.123	1480.180	1117.442
201.446	14.146	1479.123	1116.702
202.461	14.176	1478.335	1116.206
203.475	14.213	1476.959	1115.318
204.490	14.293	1475.691	1114.795
205.504	14.138	1475.055	1113.184
206.519	14.256	1473.445	1112.658
207.534	14.211	1472.314	1111.404
208.548	14.128	1471.531	1110.162
209.563	14.114	1470.207	1108.968
210.577	14.133	1469.363	1108.364
211.592	14.066	1468.482	1107.155
212.607	14.196	1467.972	1107.534
213.621	14.199	1467.055	1106.769
214.636	14.261	1466.221	1106.449
215.650	14.244	1464.905	1105.250
216.665	14.191	1464.535	1104.518
217.680	14.330	1463.283	1104.395
218.694	14.292	1462.730	1103.633
219.709	14.392	1461.448	1103.227
220.723	14.445	1460.653	1102.879
221.738	14.422	1459.434	1101.713
222.753	14.369	1459.021	1100.953
223.767	14.333	1458.120	1099.939
224.782	14.394	1456.660	1099.143
225.796	14.514	1455.680	1099.094
226.811	14.525	1454.653	1098.297
227.826	14.527	1454.231	1097.894
228.840	14.570	1453.273	1097.351
229.855	14.499	1452.152	1095.942
230.869	14.517	1450.961	1095.065
231.884	14.536	1450.171	1094.496
232.899	14.506	1448.737	1093.119
233.913	14.450	1447.763	1091.926
234.928	14.522	1446.602	1091.425
235.942	14.475	1445.198	1089.956
236.957	14.379	1444.566	1088.757
237.972	14.290	1443.739	1087.458
238.986	14.416	1441.699	1086.645
240.001	14.445	1441.363	1086.484
241.015	14.548	1440.141	1086.141
242.030	14.586	1438.736	1085.228
243.045	14.503	1438.059	1084.085
244.059	14.494	1437.137	1083.237
245.074	14.549	1436.498	1083.017
246.088	14.559	1435.700	1082.383
247.103	14.631	1434.971	1082.201
248.117	14.689	1433.955	1081.718
249.132	14.693	1433.566	1081.357
250.147	14.703	1433.016	1080.911
251.161	14.862	1432.522	1081.469
252.176	14.911	1431.397	1080.842
253.190	15.003	1430.493	1080.656
254.205	14.972	1430.146	1080.099
255.220	15.014	1429.014	1079.418
256.234	15.112	1428.031	1079.212
257.249	15.055	1427.224	1078.139
258.263	15.075	1426.287	1077.465
259.278	15.137	1425.237	1076.977
260.293	15.054	1424.780	1076.001
261.307	15.067	1424.054	1075.444
262.322	15.225	1422.735	1075.363
263.336	15.161	1422.361	1074.579
264.351	15.260	1420.747	1073.895
265.366	15.223	1419.995	1072.996
266.380	15.146	1419.319	1071.897
267.395	15.302	1417.982	1071.790
268.409	15.234	1417.720	1071.061
269.424	15.300	1416.401	1070.391
270.439	15.239	1415.174	1068.985
271.453	15.167	1414.178	1067.673
272.468	15.155	1413.479	1066.977
273.482	15.216	1412.514	1066.546
274.497	15.169	1411.783	1065.600
275.512	15.225	1410.993	1065.264
276.526	15.220	1410.060	1064.432
277.541	15.300	1408.522	1063.687
278.555	15.235	1407.731	1062.579
279.570	15.217	1407.377	1062.105
280.585	15.349	1406.370	1062.087
281.599	15.357	1405.738	1061.569
282.614	15.317	1404.917	1060.603
283.628	15.403	1403.282	1059.817
284.643	15.285	1402.450	1058.346
285.657	15.333	1401.177	1057.595
286.672	15.413	1400.417	1057.432
287.687	15.452	1399.346	1056.779
288.701	15.369	1398.262	1055.339
289.716	15.414	1397.633	1055.055
290.730	15.486	1396.802	1054.789
291.745	15.510	1395.941	1054.196
292.760	15.397	1395.538	1053.089
293.774	15.430	1394.056	1052.083
294.789	15.518	1392.972	1051.722
295.803	15.517	1392.303	1051.118
296.818	15.534	1391.248	1050.340
297.833	15.528	1390.503	1049.647
298.847	15.514	1389.145	1048.436
299.862	15.526	1388.143	1047.662
300.876	15.622	1387.010	1047.316
301.891	15.581	1386.370	1046.485
302.906	15.599	1385.853	1046.116
303.920	15.594	1385.285	1045.561
304.935	15.680	1384.347	1045.294
305.949	15.758	1382.816	1044.533
306.964	15.753	1382.344	1044.050
307.979	15.850	1381.407	1043.852
308.993	15.832	1380.413	1042.900
310.008	15.752	1379.635	1041.724
311.022	15.823	1378.765	1041.411
312.037	15.849	1377.584	1040.586
313.052	15.824	1376.870	1039.804
314.066	15.848	1375.960	1039.169
315.081	15.795	1374.978	1038.012
316.095	15.696	1373.740	1036.375
317.110	15.710	1372.368	1035.334
318.125	15.705	1371.434	1034.508
319.139	15.777	1370.559	1034.198
320.154	15.830	1369.796	1033.857
321.168	15.785	1368.376	1032.418
322.183	15.757	1367.502	1031.497
323.197	15.866	1366.664	1031.441
324.212	15.808	1365.964	1030.464
325.227	15.841	1365.389	1030.141
326.241	15.868	1364.091	1029.234
327.256	15.743	1363.475	1027.914
328.270	15.881	1362.374	1027.837
329.285	15.804	1361.611	1026.703
330.300	15.913	1360.724	1026.608
331.314	15.911	1359.985	1025.946
332.329	15.897	1358.740	1024.830
333.343	16.000	1357.657	1024.548
334.358	16.029	1357.079	1024.197
335.373	15.979	1356.270	1023.197
336.387	15.921	1355.695	1022.318
337.402	16.024	1354.772	1022.158
338.416	16.028	1354.490	1021.876
339.431	16.032	1353.904	1021.366
340.446	16.113	1352.565	1020.761
341.460	16.155	1351.448	1020.082
342.475	16.247	1350.539	1019.860
343.489	16.131	1350.474	1019.021
344.504	16.290	1349.157	1018.896
345.519	16.295	1348.342	1018.218
346.533	16.324	1347.244	1017.477
347.548	16.317	1346.628	1016.880
348.562	16.445	1345.369	1016.608
349.577	16.459	1344.411	1015.874
350.592	16.287	1343.705	1014.222
351.606	16.354	1343.074	1014.060
352.621	16.310	1342.004	1012.897
353.635	16.185	1341.183	1011.439
354.650	16.235	1339.921	1010.692
355.665	16.230	1339.046	1009.917
356.679	16.292	1337.829	1009.281
357.694	16.346	1336.585	1008.574
358.708	16.450	1335.534	1008.311
359.723	16.387	1335.037	1007.473
360.738	16.416	1333.972	1006.750
361.752	16.453	1332.786	1005.987
362.767	16.432	1331.338	1004.680
363.781	16.518	1330.539	1004.499
364.796	16.536	1329.773	1003.938
365.810	16.466	1329.063	1002.897
366.825	16.508	1328.668	1002.763
367.840	16.538	1327.683	1002.106
368.854	16.624	1327.186	1002.153
369.869	16.552	1327.085	1001.562
370.883	16.627	1326.200	1001.249
371.898	16.664	1325.072	1000.528
372.913	16.559	1324.655	999.502
373.927	16.780	1323.082	999.534
374.942	16.719	1322.712	998.803
375.956	16.789	1321.544	998.247
376.971	16.777	1321.091	997.747
377.986	16.783	1319.839	996.744
379.000	16.781	1319.436	996.344
380.015	16.919	1318.472	996.337
381.029	16.848	1317.929	995.421
382.044	16.941	1317.021	995.191
383.059	16.937	1316.284	994.523
384.073	16.908	1315.755	993.867
385.088	16.924	1315.268	993.506
386.102	16.946	1314.448	992.925
387.117	17.013	1313.420	992.453
388.132	16.914	1312.854	991.362
389.146	16.844	1311.718	990.003
390.161	16.941	1310.545	989.597
391.175	16.809	1310.278	988.537
392.190	16.876	1309.260	988.076
393.205	16.885	1308.682	987.603
394.219	16.985	1307.561	987.249
395.234	17.039	1306.417	986.613
396.248	17.043	1305.019	985.496
397.263	17.066	1303.754	984.589
398.278	16.932	1302.277	982.608
399.292	16.949	1301.169	981.785
400.307	16.989	1300.060	981.089
401.321	16.918	1299.187	979.937
402.336	16.863	1298.495	979.006
403.350	16.948	1297.226	978.452
404.365	16.934	1296.675	977.870
405.380	16.933	1295.504	976.896
406.394	16.988	1294.439	976.326
407.409	17.023	1294.158	976.228
408.423	17.071	1293.196	975.692
409.438	17.062	1292.709	975.187
410.453	17.227	1291.798	975.358
411.467	17.201	1291.199	974.672
412.482	17.263	1290.725	974.584
413.496	17.309	1290.043	974.243
414.511	17.319	1289.123	973.525
415.526	17.392	1288.092	973.075
416.540	17.303	1288.027	972.432
417.555	17.369	1286.911	971.880
418.569	17.370	1286.715	971.651
419.584	17.409	1286.011	971.257
420.599	17.471	1284.973	970.742
421.613	96.888	1355.600	1477.232
422.628	94.872	1365.817	1477.340
