DTS Sentinel unit serial number:	SN413079Multiplexer serial number:	ORYXHardware model number:	OX4-SRSoftware version number:	ORYX F/W v4.00 Oryx Data Collector v3.7.2.0data status	okinstallation	princeton_trtdifferential loss correction	single-endedforward channel	channel 4reverse channel	N/Adate	2019/09/12time	20:49:35forward acquisition time	60.00reverse acquisition time	0.00gamma	496.2192k internal	0.2312k external	0.2312temperature offset calibration	1.0165default loss term (dB/km)	0.3790temperature slope calibration	1.0000multiplexer offset coefficient	1.0000multiplexer slope coefficient	1.0000fibre end	0.00T internal ref (°C)	31.00T ext. ref 1 (°C)	3.62T ext. ref 2 (°C)	25.51length (m)	temperature (°C)	Stokes	anti-Stokes-747.200	228.216	-0.083	0.137
-746.185	-25.665	0.074	0.044
-745.171	-102.930	-0.240	-0.058
-744.156	-13.511	-0.206	0.135
-743.142	19.063	0.107	0.087
-742.127	246.342	-0.189	0.324
-741.112	-43.271	-0.033	-0.017
-740.098	-12.816	0.218	0.144
-739.083	-99.066	0.158	0.041
-738.069	-200.000	-0.012	0.084
-737.054	-200.000	-0.067	0.456
-736.039	-178.014	-0.376	0.009
-735.025	-74.880	-0.069	-0.025
-734.010	-39.981	-0.327	-0.173
-732.996	7.725	-0.288	0.219
-731.981	-200.000	0.049	-0.217
-730.966	303.275	-0.066	-0.124
-729.952	64.071	0.200	-0.204
-728.937	-123.674	-0.150	-0.024
-727.923	-136.476	0.166	0.020
-726.908	-26.897	-0.255	-0.151
-725.894	800.000	-0.049	-0.151
-724.879	36.323	0.099	-0.089
-723.864	-6.062	0.130	0.090
-722.850	-169.890	0.096	-0.004
-721.835	309.037	-0.163	0.308
-720.821	-11.434	-0.373	0.248
-719.806	800.000	0.109	-0.317
-718.791	25.052	-0.023	-0.019
-717.777	-200.000	-0.001	-0.317
-716.762	240.027	0.098	-0.166
-715.748	115.621	0.274	0.339
-714.733	-65.545	0.104	-0.042
-713.718	-200.000	-0.009	-0.083
-712.704	-107.706	-0.144	-0.032
-711.689	270.569	0.086	-0.153
-710.675	177.060	0.081	-0.119
-709.660	67.176	0.128	0.132
-708.645	40.232	-0.277	0.253
-707.631	-156.289	-0.040	0.003
-706.616	-38.479	-0.253	-0.135
-705.602	800.000	0.021	-0.080
-704.587	-33.196	-0.131	-0.073
-703.572	-200.000	-0.001	0.224
-702.558	-106.091	0.300	-0.068
-701.543	52.640	-0.097	0.094
-700.529	-30.762	-0.212	0.121
-699.514	-200.000	0.005	0.291
-698.499	0.479	0.099	-0.072
-697.485	78.034	0.021	0.023
-696.470	60.392	-0.146	-0.146
-695.456	-7.596	0.152	-0.104
-694.441	93.400	-0.150	-0.171
-693.426	-200.000	-0.012	0.119
-692.412	587.052	-0.092	0.229
-691.397	460.230	0.175	-0.395
-690.383	-77.443	0.197	-0.069
-689.368	78.953	0.194	0.210
-688.354	-78.256	-0.298	0.104
-687.339	-56.821	0.057	-0.025
-686.324	58.145	-0.177	-0.176
-685.310	207.309	-0.194	-0.306
-684.295	800.000	-0.057	-0.224
-683.281	-77.428	0.477	-0.168
-682.266	685.513	0.073	0.194
-681.251	-128.784	-0.162	0.023
-680.237	800.000	-0.088	0.256
-679.222	418.686	0.114	0.247
-678.208	164.658	0.322	0.460
-677.193	494.925	-0.123	-0.285
-676.178	-200.000	0.019	-0.137
-675.164	-200.000	-0.034	0.388
-674.149	-200.000	-0.008	0.170
-673.135	213.123	0.025	-0.040
-672.120	433.259	-0.008	0.018
-671.105	800.000	0.044	0.127
-670.091	135.965	-0.185	-0.244
-669.076	607.560	-0.065	-0.163
-668.062	40.280	0.257	-0.234
-667.047	-200.000	-0.095	-0.504
-666.032	-90.862	-0.369	0.107
-665.018	-200.000	-0.023	0.326
-664.003	-23.753	-0.107	0.065
-662.989	420.691	0.157	-0.340
-661.974	160.932	0.122	-0.172
-660.959	18.236	0.087	0.070
-659.945	800.000	0.060	-0.179
-658.930	-200.000	0.003	0.055
-657.916	-53.876	-0.109	0.050
-656.901	-21.114	0.073	0.045
-655.886	39.217	-0.142	0.128
-654.872	-51.771	0.315	0.148
-653.857	-177.373	-0.419	0.010
-652.843	-36.914	0.154	0.083
-651.828	800.000	-0.015	-0.047
-650.814	97.906	-0.138	0.161
-649.799	-200.000	0.033	0.185
-648.784	-92.876	-0.284	0.080
-647.770	-119.583	0.391	0.068
-646.755	-168.831	-0.207	0.008
-645.741	235.545	-0.054	-0.090
-644.726	197.147	0.075	0.115
-643.711	-48.734	0.145	0.070
-642.697	800.000	-0.084	-0.260
-641.682	800.000	-0.038	-0.162
-640.668	-200.000	-0.052	0.253
-639.653	107.874	0.230	0.277
-638.638	0.058	-0.147	0.106
-637.624	177.575	0.045	-0.066
-636.609	-81.594	-0.209	-0.069
-635.595	-200.000	-0.051	0.258
-634.580	90.424	-0.112	-0.126
-633.565	-200.000	-0.003	-0.213
-632.551	265.051	0.041	0.072
-631.536	42.291	0.090	-0.083
-630.522	-112.207	-0.307	0.062
-629.507	-154.903	-0.082	-0.005
-628.492	57.270	0.134	-0.132
-627.478	-53.944	-0.388	-0.179
-626.463	-82.673	0.072	0.023
-625.449	-25.989	0.383	-0.227
-624.434	129.551	0.147	-0.190
-623.419	-83.212	0.167	-0.054
-622.405	34.821	-0.111	0.098
-621.390	265.050	-0.089	-0.156
-620.376	800.000	-0.155	-0.555
-619.361	-56.069	-0.160	-0.072
-618.346	-45.897	0.060	0.030
-617.332	181.348	0.269	-0.399
-616.317	-200.000	-0.079	-0.426
-615.303	800.000	-0.029	-0.085
-614.288	15.835	-0.204	-0.162
-613.273	-65.259	-0.075	-0.031
-612.259	-200.000	-0.023	0.189
-611.244	129.507	0.159	0.205
-610.230	174.281	-0.065	-0.095
-609.215	-200.000	-0.005	-0.354
-608.201	-200.000	0.060	0.320
-607.186	-200.000	0.041	-0.296
-606.171	-200.000	0.004	-0.063
-605.157	-70.996	-0.057	0.022
-604.142	34.570	0.178	-0.157
-603.128	645.322	-0.119	-0.306
-602.113	-200.000	-0.045	0.237
-601.098	-200.000	-0.059	-0.276
-600.084	-72.232	-0.379	-0.142
-599.069	-97.346	0.243	-0.064
-598.055	689.639	0.176	-0.464
-597.040	-200.000	0.023	0.126
-596.025	-79.486	-0.190	-0.065
-595.011	-200.000	0.015	0.110
-593.996	800.000	0.083	0.245
-592.982	-63.148	-0.245	-0.102
-591.967	-114.468	0.374	0.073
-590.952	-172.685	0.181	-0.006
-589.938	175.539	0.093	-0.136
-588.923	28.112	0.175	-0.149
-587.909	41.016	0.096	-0.087
-586.894	-200.000	0.024	-0.176
-585.879	-190.005	-0.369	0.004
-584.865	204.030	0.047	-0.074
-583.850	-69.749	-0.159	-0.061
-582.836	-200.000	-0.002	0.063
-581.821	-200.000	0.030	0.280
-580.806	-184.801	-0.188	0.003
-579.792	226.828	-0.080	-0.132
-578.777	8.784	0.104	-0.079
-577.763	-55.529	-0.274	0.124
-576.748	85.922	0.197	-0.219
-575.733	620.735	-0.174	-0.441
-574.719	143.189	-0.068	-0.091
-573.704	595.530	0.070	0.174
-572.690	-200.000	0.003	0.109
-571.675	-200.000	-0.025	-0.211
-570.661	-62.386	-0.263	0.110
-569.646	-48.284	-0.153	0.074
-568.631	292.309	0.165	0.303
-567.617	118.024	-0.105	0.131
-566.602	-200.000	-0.016	0.342
-565.588	-12.496	0.078	-0.052
-564.573	85.548	-0.114	-0.126
-563.558	-200.000	0.062	0.345
-562.544	-182.340	-0.130	0.002
-561.529	-153.746	0.317	-0.022
-560.515	-114.417	-0.163	0.032
-559.500	-100.312	0.191	0.048
-558.485	-124.122	-0.153	-0.024
-557.471	800.000	-0.064	0.191
-556.456	112.441	0.091	0.110
-555.442	24.543	-0.471	0.392
-554.427	800.000	0.155	0.471
-553.412	47.493	-0.213	0.200
-552.398	-14.923	-0.426	0.275
-551.383	-18.460	0.184	0.116
-550.369	-52.744	-0.206	-0.096
-549.354	-97.388	0.151	-0.040
-548.339	215.004	-0.218	-0.348
-547.325	-74.681	0.142	-0.052
-546.310	79.259	0.155	0.167
-545.296	-200.000	0.021	0.129
-544.281	800.000	0.044	0.136
-543.266	-107.644	0.245	-0.054
-542.252	-141.342	-0.195	0.020
-541.237	800.000	-0.018	0.075
-540.223	65.399	0.118	0.121
-539.208	60.140	-0.134	-0.133
-538.193	-130.075	-0.082	-0.011
-537.179	-89.883	-0.292	0.086
-536.164	156.695	-0.177	-0.246
-535.150	267.150	0.153	0.270
-534.135	-6.954	0.101	-0.069
-533.121	84.533	0.117	-0.129
-532.106	-53.370	-0.167	0.077
-531.091	-136.001	0.086	-0.010
-530.077	-144.774	0.139	0.013
-529.062	19.279	0.174	-0.141
-528.048	2.344	-0.178	0.130
-527.033	800.000	-0.058	-0.203
-526.018	46.051	-0.127	-0.118
-525.004	423.823	0.023	-0.050
-523.989	-59.216	0.193	-0.084
-522.975	7.880	-0.112	0.085
-521.960	97.334	-0.174	0.201
-520.945	800.000	0.022	0.070
-519.931	52.877	0.192	0.184
-518.916	-200.000	-0.003	-0.035
-517.902	335.000	-0.078	-0.152
-516.887	-68.021	-0.181	0.071
-515.872	107.578	0.067	0.080
-514.858	355.298	0.120	-0.240
-513.843	-200.000	-0.005	0.086
-512.829	104.226	0.283	-0.335
-511.814	121.194	0.029	-0.037
-510.799	4.657	-0.057	0.042
-509.785	800.000	0.054	-0.176
-508.770	15.306	0.098	-0.077
-507.756	125.232	0.159	-0.202
-506.741	77.374	-0.032	0.034
-505.726	260.939	-0.035	0.061
-504.712	144.442	-0.154	-0.206
-503.697	22.541	-0.071	0.058
-502.683	-32.037	0.129	-0.073
-501.668	133.844	0.120	0.157
-500.653	693.755	-0.041	-0.108
-499.639	800.000	0.012	0.038
-498.624	15.008	-0.108	-0.085
-497.610	657.826	0.039	-0.101
-496.595	-170.788	-0.232	0.008
-495.581	800.000	0.025	-0.082
-494.566	-200.000	0.003	0.039
-493.551	-122.769	-0.141	0.023
-492.537	-200.000	0.046	0.331
-491.522	59.468	0.081	0.080
-490.508	102.266	-0.133	0.156
-489.493	412.571	-0.067	0.143
-488.478	800.000	-0.024	-0.105
-487.464	292.459	0.157	-0.288
-486.449	-125.910	-0.271	-0.041
-485.435	-200.000	-0.012	0.232
-484.420	64.478	-0.146	0.148
-483.405	-141.592	0.389	-0.039
-482.391	-3.136	-0.347	0.243
-481.376	-75.370	-0.104	0.037
-480.362	-150.510	0.208	0.016
-479.347	-171.452	-0.130	0.004
-478.332	-108.424	0.258	-0.056
-477.318	23.108	0.073	0.060
-476.303	-65.852	0.249	0.100
-475.289	360.180	-0.088	0.177
-474.274	1.386	-0.102	0.074
-473.259	-75.197	0.168	-0.060
-472.245	800.000	-0.099	0.314
-471.230	61.884	-0.303	-0.304
-470.216	-4.668	-0.102	-0.071
-469.201	357.406	0.024	-0.048
-468.186	-63.638	0.170	0.070
-467.172	-88.078	0.096	0.029
-466.157	-37.466	-0.121	0.065
-465.143	-140.385	0.264	0.028
-464.128	-200.000	0.072	0.343
-463.113	631.661	0.099	0.251
-462.099	-200.000	0.008	-0.123
-461.084	-200.000	-0.003	-0.144
-460.070	-148.721	0.320	0.026
-459.055	-200.000	-0.023	-0.253
-458.040	309.836	-0.140	-0.264
-457.026	-129.373	0.317	0.044
-456.011	800.000	-0.011	-0.033
-454.997	800.000	0.054	-0.159
-453.982	-101.036	0.096	-0.024
-452.968	264.719	0.157	0.274
-451.953	-200.000	-0.032	-0.148
-450.938	-200.000	0.028	-0.137
-449.924	-35.698	0.142	0.077
-448.909	-200.000	0.047	-0.314
-447.895	103.225	-0.264	-0.310
-446.880	-114.182	-0.136	0.026
-445.865	96.106	-0.084	0.096
-444.851	358.824	-0.077	-0.155
-443.836	-117.648	-0.404	-0.073
-442.822	-54.311	0.243	-0.111
-441.807	0.901	-0.100	0.072
-440.792	-132.873	0.190	-0.024
-439.778	-112.846	0.212	-0.042
-438.763	-94.397	-0.230	-0.063
-437.749	159.031	0.217	-0.302
-436.734	-80.013	-0.377	-0.127
-435.719	-110.171	0.598	0.125
-434.705	405.600	0.038	-0.080
-433.690	-51.507	0.370	-0.173
-432.676	11.139	0.088	-0.068
-431.661	800.000	0.031	-0.104
-430.646	-7.432	0.024	-0.016
-429.632	-102.318	-0.232	0.056
-428.617	-200.000	-0.039	0.332
-427.603	574.689	-0.117	0.286
-426.588	-200.000	0.018	0.140
-425.573	-200.000	-0.003	0.218
-424.559	-119.045	0.100	0.018
-423.544	133.594	0.102	-0.132
-422.530	-200.000	0.035	-0.269
-421.515	231.884	-0.049	-0.080
-420.500	266.068	-0.063	-0.109
-419.486	-6.290	-0.162	-0.111
-418.471	-200.000	-0.026	0.342
-417.457	800.000	0.020	0.088
-416.442	163.911	-0.065	0.091
-415.428	-145.762	-0.189	-0.017
-414.413	-51.660	0.202	0.094
-413.398	395.713	0.167	-0.349
-412.384	-43.021	-0.273	0.138
-411.369	-108.161	0.131	0.028
-410.355	-30.713	0.193	0.110
-409.340	-32.425	0.140	0.078
-408.325	800.000	-0.048	0.196
-407.311	-200.000	0.063	0.350
-406.296	-200.000	-0.047	0.312
-405.282	-120.534	0.156	-0.027
-404.267	2.774	-0.135	-0.098
-403.252	21.942	-0.231	0.188
-402.238	80.165	-0.132	-0.142
-401.223	198.721	0.196	0.301
-400.209	-129.197	-0.243	-0.034
-399.194	-62.643	-0.172	-0.071
-398.179	-200.000	0.008	-0.084
-397.165	-173.383	-0.221	0.007
-396.150	223.531	0.133	0.214
-395.136	-60.167	-0.058	-0.025
-394.121	68.683	0.053	0.055
-393.106	-200.000	0.005	-0.375
-392.092	-200.000	-0.089	0.518
-391.077	-68.523	0.161	-0.062
-390.063	65.922	-0.141	0.143
-389.048	230.320	0.054	0.088
-388.033	-200.000	0.011	0.136
-387.019	-200.000	-0.001	0.083
-386.004	143.702	0.148	-0.197
-384.990	800.000	-0.059	0.197
-383.975	196.633	-0.156	-0.238
-382.960	-154.002	-0.357	0.024
-381.946	-55.239	0.327	-0.147
-380.931	23.053	-0.146	0.120
-379.917	800.000	-0.057	0.184
-378.902	27.895	-0.027	-0.023
-377.888	-69.105	-0.562	0.216
-376.873	-102.279	0.284	-0.068
-375.858	297.008	0.112	0.206
-374.844	-10.240	0.200	-0.132
-373.829	34.959	0.201	0.176
-372.815	66.417	0.169	0.172
-371.800	114.524	0.054	-0.066
-370.785	295.350	-0.103	0.189
-369.771	-120.991	-0.199	-0.033
-368.756	175.342	-0.029	-0.042
-367.742	52.015	0.097	0.093
-366.727	-118.916	0.252	-0.044
-365.712	800.000	0.070	0.206
-364.698	-72.489	0.152	0.056
-363.683	-125.340	0.492	0.075
-362.669	281.057	-0.160	0.286
-361.654	-200.000	-0.009	0.043
-360.639	-8.841	-0.253	0.170
-359.625	345.426	-0.053	-0.104
-358.610	18.688	0.114	0.091
-357.596	-200.000	0.019	-0.319
-356.581	-200.000	0.004	0.093
-355.566	800.000	0.100	-0.377
-354.552	205.184	0.040	0.063
-353.537	-50.509	0.169	-0.080
-352.523	-16.885	0.184	-0.116
-351.508	173.298	-0.206	-0.296
-350.493	800.000	-0.090	-0.304
-349.479	800.000	-0.091	-0.263
-348.464	-57.415	-0.092	0.040
-347.450	-200.000	0.031	-0.310
-346.435	408.791	-0.066	0.139
-345.420	-87.557	-0.160	0.048
-344.406	-200.000	0.005	0.327
-343.391	-125.318	-0.140	0.021
-342.377	11.326	-0.199	-0.152
-341.362	12.835	-0.352	-0.272
-340.348	-190.737	-0.263	-0.003
-339.333	-200.000	0.017	-0.302
-338.318	-200.000	0.014	-0.127
-337.304	224.411	0.124	0.200
-336.289	-84.588	-0.422	0.133
-335.275	94.664	0.135	-0.153
-334.260	-85.590	0.281	-0.087
-333.245	-84.791	-0.212	-0.067
-332.231	216.588	-0.020	-0.032
-331.216	-117.742	0.048	-0.009
-330.202	-122.748	0.203	-0.033
-329.187	800.000	-0.014	0.045
-328.172	-4.810	0.261	0.180
-327.158	-107.862	0.258	-0.056
-326.143	142.674	0.181	-0.239
-325.129	387.724	-0.036	0.075
-324.114	-110.886	-0.304	-0.063
-323.099	44.908	0.062	-0.057
-322.085	-200.000	0.010	-0.121
-321.070	189.651	0.079	-0.117
-320.056	143.700	-0.143	-0.190
-319.041	-136.755	0.015	0.002
-318.026	800.000	-0.039	-0.150
-317.012	-79.953	0.286	0.096
-315.997	-35.482	0.228	-0.124
-314.983	-18.866	-0.380	-0.236
-313.968	52.866	0.255	-0.243
-312.953	-200.000	0.050	-0.232
-311.939	466.257	-0.067	0.151
-310.924	149.894	0.142	0.193
-309.910	234.281	0.202	0.331
-308.895	-155.321	0.362	0.023
-307.880	-200.000	-0.042	-0.277
-306.866	107.518	0.053	-0.063
-305.851	-113.400	0.292	0.057
-304.837	84.012	0.299	0.325
-303.822	115.071	-0.167	0.203
-302.807	14.052	0.112	0.087
-301.793	-0.376	-0.288	0.204
-300.778	-17.718	0.240	0.150
-299.764	-200.000	-0.003	0.158
-298.749	800.000	0.104	0.448
-297.735	-200.000	0.054	0.243
-296.720	800.000	0.152	0.496
-295.705	-200.000	0.071	-0.365
-294.691	-50.770	0.369	0.173
-293.676	8.071	-0.303	-0.226
-292.662	176.055	0.075	-0.109
-291.647	47.215	0.272	-0.252
-290.632	-200.000	-0.066	-0.373
-289.618	-60.006	-0.146	0.062
-288.603	-54.331	-0.392	0.177
-287.589	26.292	0.029	-0.024
-286.574	-111.822	-0.240	0.048
-285.559	32.318	0.032	0.028
-284.545	44.312	0.159	0.145
-283.530	-41.280	0.144	0.074
-282.516	-189.141	0.195	-0.002
-281.501	246.331	-0.084	-0.141
-280.486	-77.638	-0.355	-0.122
-279.472	-200.000	0.050	0.236
-278.457	92.563	-0.192	-0.215
-277.443	9.708	0.178	0.135
-276.428	-145.492	-0.264	0.024
-275.413	-146.884	-0.189	0.016
-274.399	-200.000	-0.030	-0.154
-273.384	312.514	0.160	-0.299
-272.370	-200.000	-0.027	0.176
-271.355	31.315	-0.054	-0.046
-270.340	692.131	0.173	-0.451
-269.326	-200.000	0.012	-0.689
-268.311	-122.016	-0.142	0.023
-267.297	-200.000	-0.021	0.174
-266.282	800.000	0.098	0.327
-265.267	-59.190	0.273	0.117
-264.253	136.311	-0.062	-0.080
-263.238	-125.298	-0.065	-0.010
-262.224	800.000	-0.050	-0.217
-261.209	-200.000	0.001	0.227
-260.195	-120.576	-0.386	-0.065
-259.180	-74.020	0.055	-0.020
-258.165	-200.000	0.040	0.200
-257.151	800.000	-0.132	0.464
-256.136	50.732	0.057	0.054
-255.122	268.567	0.071	0.123
-254.107	306.370	0.112	0.208
-253.092	-184.923	-0.105	0.002
-252.078	115.201	-0.073	-0.088
-251.063	202.125	0.125	0.192
-250.049	-129.953	0.244	0.033
-249.034	-200.000	0.011	0.048
-248.019	800.000	0.011	0.033
-247.005	38.998	0.213	-0.189
-245.990	16.868	-0.054	-0.042
-244.976	-169.563	0.169	0.006
-243.961	-57.192	-0.184	-0.081
-242.946	121.442	0.046	0.057
-241.932	6.762	0.033	0.025
-240.917	800.000	-0.122	0.346
-239.903	321.626	-0.119	-0.225
-238.888	186.737	0.181	0.268
-237.873	188.689	-0.253	-0.376
-236.859	215.480	0.241	-0.380
-235.844	-94.644	0.220	-0.059
-234.830	-23.342	-0.164	0.098
-233.815	-200.000	-0.005	-0.046
-232.800	800.000	0.122	-0.420
-231.786	35.338	0.093	0.081
-230.771	-10.311	-0.260	0.171
-229.757	-113.444	0.374	-0.073
-228.742	800.000	-0.131	0.412
-227.727	169.203	0.106	0.151
-226.713	-7.334	-0.199	-0.134
-225.698	166.690	-0.090	-0.127
-224.684	17.241	0.229	0.180
-223.669	-52.322	0.385	-0.177
-222.655	-4.686	-0.237	-0.163
-221.640	-69.751	-0.262	0.100
-220.625	219.966	0.248	-0.395
-219.611	625.984	-0.097	-0.244
-218.596	800.000	-0.027	0.099
-217.582	79.818	-0.215	0.229
-216.567	-132.732	0.252	-0.032
-215.552	-95.654	0.215	0.057
-214.538	377.260	0.021	-0.043
-213.523	27.583	0.127	0.106
-212.509	-200.000	-0.037	-0.244
-211.494	120.182	-0.119	0.147
-210.479	-200.000	0.001	-0.136
-209.465	-122.813	-0.300	0.048
-208.450	207.775	-0.092	0.142
-207.436	-190.175	0.395	0.004
-206.421	55.833	-0.332	-0.320
-205.406	-200.000	0.007	0.119
-204.392	-164.090	-0.120	0.006
-203.377	36.202	-0.120	0.105
-202.363	12.082	-0.103	-0.079
-201.348	800.000	-0.084	-0.231
-200.333	-200.000	0.059	-0.264
-199.319	-107.186	0.267	-0.058
-198.304	260.572	-0.132	-0.226
-197.290	45.425	-0.103	0.094
-196.275	229.203	0.151	0.244
-195.260	419.769	-0.142	0.301
-194.246	800.000	0.059	-0.236
-193.231	-200.000	0.036	-0.276
-192.217	800.000	0.088	-0.356
-191.202	-200.000	0.028	0.132
-190.187	-78.397	-0.443	-0.151
-189.173	535.612	-0.139	0.327
-188.158	800.000	-0.040	0.130
-187.144	-20.597	0.223	-0.136
-186.129	22.141	0.129	0.105
-185.114	404.148	-0.104	0.218
-184.100	170.816	0.172	-0.245
-183.085	-130.723	-0.270	-0.036
-182.071	-28.604	0.029	0.016
-181.056	-61.715	-0.151	-0.063
-180.042	800.000	-0.012	-0.033
-179.027	800.000	-0.068	-0.244
-178.012	-1.342	0.079	-0.055
-176.998	-200.000	0.063	0.444
-175.983	-200.000	0.027	0.292
-174.969	-200.000	-0.012	-0.165
-173.954	-107.874	0.296	0.064
-172.939	-157.143	-0.200	0.012
-171.925	155.029	-0.105	0.143
-170.910	108.873	0.012	-0.014
-169.896	800.000	0.101	0.359
-168.881	-187.119	-0.353	0.005
-167.866	326.197	0.223	-0.424
-166.852	800.000	-0.117	0.335
-165.837	-41.532	0.210	0.107
-164.823	-200.000	-0.035	0.275
-163.808	800.000	-0.072	0.242
-162.793	183.726	-0.118	-0.172
-161.779	163.156	0.069	-0.096
-160.764	515.286	-0.085	0.197
-159.750	-143.147	0.307	0.029
-158.735	-180.066	-0.320	0.007
-157.720	155.843	-0.191	0.261
-156.706	-183.878	0.112	-0.002
-155.691	150.672	0.112	0.151
-154.677	-200.000	-0.011	0.195
-153.662	15.039	0.081	0.063
-152.647	-200.000	0.009	0.063
-151.633	138.598	-0.035	-0.046
-150.618	-48.457	-0.163	-0.078
-149.604	-80.134	0.135	-0.045
-148.589	-120.315	-0.419	0.071
-147.574	-200.000	0.077	0.461
-146.560	-66.022	0.381	0.151
-145.545	-35.380	0.156	0.084
-144.531	-166.946	-0.167	-0.007
-143.516	-158.270	0.065	0.004
-142.502	-73.133	-0.271	0.099
-141.487	-105.139	-0.497	0.113
-140.472	84.364	-0.145	0.157
-139.458	45.689	0.293	0.268
-138.443	800.000	0.059	-0.198
-137.429	-200.000	-0.002	0.133
-136.414	173.758	-0.159	-0.227
-135.399	-34.426	0.177	-0.096
-134.385	58.018	-0.162	-0.157
-133.370	-3.149	-0.182	0.126
-132.356	-125.394	0.140	-0.021
-131.341	-135.313	0.541	-0.064
-130.326	307.076	-0.101	0.186
-129.312	51.600	0.061	-0.057
-128.297	-7.459	-0.372	0.249
-127.283	-103.537	-0.178	-0.041
-126.268	30.020	0.121	0.102
-125.253	-166.729	-0.242	-0.010
-124.239	-119.727	0.265	0.045
-123.224	-50.117	0.514	-0.241
-122.210	200.998	0.111	-0.170
-121.195	-48.991	0.170	-0.080
-120.180	800.000	0.072	0.207
-119.166	800.000	0.051	0.222
-118.151	594.355	0.142	0.346
-117.137	-39.256	0.245	0.127
-116.122	-119.823	0.453	0.077
-115.107	-27.722	-0.234	0.135
-114.093	-200.000	0.009	-0.061
-113.078	800.000	0.040	0.173
-112.064	-194.104	0.158	-0.001
-111.049	-61.923	-0.182	-0.075
-110.034	688.236	-0.075	0.193
-109.020	-200.000	-0.065	0.336
-108.005	212.616	-0.116	0.181
-106.991	-13.737	0.213	-0.137
-105.976	-63.460	0.109	-0.044
-104.962	800.000	-0.038	0.109
-103.947	66.111	-0.186	-0.187
-102.932	-200.000	0.041	-0.351
-101.918	512.878	0.034	-0.077
-100.903	28.370	-0.175	0.146
-99.889	-139.560	-0.185	-0.020
-98.874	-66.245	0.115	0.045
-97.859	800.000	-0.076	0.322
-96.845	-49.504	-0.149	-0.070
-95.830	564.568	-0.132	0.316
-94.816	800.000	0.033	0.132
-93.801	203.864	0.159	-0.243
-92.786	-162.703	-0.210	-0.010
-91.772	-40.100	0.101	0.052
-90.757	148.889	-0.069	-0.092
-89.743	-195.868	0.407	0.003
-88.728	-200.000	-0.042	-0.315
-87.713	-107.291	0.109	-0.024
-86.699	-121.145	-0.235	-0.039
-85.684	-200.000	-0.025	0.244
-84.670	-93.461	0.252	0.069
-83.655	489.840	0.184	0.415
-82.640	-130.848	0.123	-0.016
-81.626	60.023	-0.167	0.163
-80.611	-200.000	-0.032	-0.234
-79.597	-57.235	0.204	0.089
-78.582	-163.120	0.268	0.013
-77.567	800.000	0.137	0.411
-76.553	-165.936	-0.080	-0.003
-75.538	-182.692	0.162	-0.003
-74.524	78.426	-0.268	0.283
-73.509	21.599	0.067	-0.054
-72.494	-60.263	0.178	0.075
-71.480	-137.833	-0.148	0.016
-70.465	-200.000	-0.004	0.201
-69.451	105.676	-0.038	0.044
-68.436	-200.000	0.011	-0.095
-67.422	-200.000	0.011	0.344
-66.407	-15.107	-0.098	0.062
-65.392	136.656	0.137	0.177
-64.378	-85.759	0.353	0.108
-63.363	-200.000	0.056	0.440
-62.349	62.675	0.091	0.090
-61.334	11.963	-0.921	-0.699
-60.319	176.075	0.373	0.535
-59.305	578.864	-0.401	-0.969
-58.290	318.379	0.659	1.232
-57.276	800.000	0.411	1.686
-56.261	-200.000	101.591	600.794
-55.246	576.552	1410.622	3404.185
-54.232	189.158	2597.661	3842.745
-53.217	107.510	2295.980	2697.898
-52.203	37.577	2052.762	1798.716
-51.188	32.698	1967.616	1680.673
-50.173	31.228	1949.144	1651.837
-49.159	46.743	2002.934	1837.011
-48.144	47.883	2020.952	1863.700
-47.130	33.354	1980.583	1697.365
-46.115	30.991	1970.414	1667.476
-45.100	30.885	1967.063	1663.623
-44.086	30.905	1964.676	1661.717
-43.071	30.804	1962.671	1659.061
-42.057	30.829	1960.525	1657.403
-41.042	30.873	1958.004	1655.596
-40.027	30.904	1956.124	1654.217
-39.013	30.899	1953.905	1652.230
-37.998	30.932	1952.908	1651.612
-36.984	30.940	1950.360	1649.461
-35.969	30.946	1948.496	1647.876
-34.954	30.939	1947.157	1646.609
-33.940	30.956	1945.805	1645.557
-32.925	30.993	1944.050	1644.332
-31.911	30.964	1942.001	1642.280
-30.896	31.017	1940.667	1641.551
-29.881	30.975	1939.497	1640.130
-28.867	31.029	1937.726	1639.034
-27.852	30.992	1936.233	1637.388
-26.838	31.057	1934.293	1636.253
-25.823	31.068	1932.335	1634.629
-24.809	31.059	1930.362	1632.812
-23.794	31.006	1929.515	1631.572
-22.779	31.059	1927.002	1629.842
-21.765	31.074	1925.329	1628.493
-20.750	30.964	1924.595	1626.848
-19.736	31.056	1922.913	1626.166
-18.721	31.010	1921.034	1624.109
-17.706	30.998	1919.438	1622.594
-16.692	31.095	1917.513	1621.740
-15.677	30.977	1916.287	1619.613
-14.663	30.990	1915.108	1618.671
-13.648	31.091	1913.436	1618.067
-12.633	31.076	1912.515	1617.094
-11.619	31.062	1910.791	1615.453
-10.604	31.030	1909.878	1614.333
-9.590	30.994	1908.553	1612.838
-8.575	30.998	1906.710	1611.252
-7.560	31.033	1905.277	1610.281
-6.546	30.979	1904.354	1608.969
-5.531	30.989	1903.082	1607.922
-4.517	30.992	1902.088	1607.046
-3.502	31.070	1900.695	1606.469
-2.487	30.972	1899.448	1604.511
-1.473	31.054	1898.471	1604.331
-0.458	31.081	1893.673	1600.441
0.556	32.437	1874.130	1571.822
1.571	28.113	1854.270	1519.203
2.586	23.932	1876.617	1502.144
3.600	22.836	1911.460	1520.464
4.615	22.303	1905.515	1511.030
5.629	17.315	1806.398	1391.580
6.644	8.491	1689.384	1233.505
7.659	3.945	1653.975	1173.142
8.673	3.574	1650.162	1167.526
9.688	3.608	1648.818	1166.729
10.702	3.700	1647.011	1166.036
11.717	3.608	1643.819	1162.984
12.731	4.057	1643.847	1166.284
13.746	10.014	1658.409	1221.657
14.761	19.249	1678.160	1306.444
15.775	24.024	1686.111	1348.797
16.790	24.553	1685.886	1352.506
17.804	24.075	1683.922	1347.199
18.819	23.400	1682.145	1340.551
19.834	23.188	1680.226	1337.301
20.848	23.067	1679.612	1335.778
21.863	23.145	1677.880	1334.871
22.877	23.210	1677.345	1334.820
23.892	23.140	1676.794	1333.735
24.907	23.108	1675.524	1332.366
25.921	23.044	1673.808	1330.400
26.936	22.936	1673.053	1328.870
27.950	23.030	1672.003	1328.628
28.965	23.051	1671.917	1328.600
29.980	23.071	1671.108	1327.986
30.994	23.093	1670.218	1327.332
32.009	23.268	1669.059	1327.599
33.023	23.277	1668.411	1327.036
34.038	23.260	1667.538	1326.098
35.053	23.139	1666.676	1324.387
36.067	23.222	1665.120	1323.659
37.082	23.057	1664.045	1321.451
38.096	23.029	1662.940	1320.247
39.111	23.042	1662.204	1319.646
40.126	23.082	1661.433	1319.217
41.140	23.170	1660.553	1319.056
42.155	22.939	1659.500	1316.378
43.169	22.685	1657.868	1313.077
44.184	22.551	1656.109	1310.572
45.199	22.415	1655.468	1308.935
46.213	22.622	1654.218	1309.371
47.228	22.731	1653.700	1309.655
48.242	22.802	1652.778	1309.336
49.257	22.979	1652.270	1310.128
50.271	23.014	1650.621	1308.967
51.286	23.084	1649.310	1308.327
52.301	22.989	1648.465	1306.836
53.315	22.960	1646.997	1305.342
54.330	22.903	1645.630	1303.727
55.344	22.788	1644.324	1301.731
56.359	22.773	1641.852	1299.546
57.374	22.694	1640.969	1298.150
58.388	22.688	1639.859	1297.110
59.403	22.658	1638.752	1295.901
60.417	22.498	1637.711	1293.791
61.432	22.432	1635.844	1291.716
62.447	22.366	1635.016	1290.464
63.461	22.391	1633.732	1289.523
64.476	22.345	1633.108	1288.578
65.490	22.208	1632.201	1286.741
66.505	22.176	1630.991	1285.440
67.520	22.234	1629.864	1284.864
68.534	22.312	1628.718	1284.413
69.549	22.364	1627.497	1283.722
70.563	22.328	1626.312	1282.409
71.578	22.230	1624.560	1280.203
72.593	22.241	1623.453	1279.294
73.607	22.048	1622.786	1277.249
74.622	22.011	1621.915	1276.186
75.636	22.075	1621.420	1276.148
76.651	22.200	1620.208	1275.986
77.666	22.100	1619.253	1274.394
78.680	22.145	1619.289	1274.640
79.695	22.205	1618.241	1274.140
80.709	22.249	1617.456	1273.725
81.724	22.296	1616.583	1273.267
82.739	22.525	1616.352	1274.629
83.753	22.517	1615.195	1273.542
84.768	22.764	1614.851	1274.946
85.782	23.069	1614.504	1276.759
86.797	23.272	1613.540	1277.347
87.812	23.224	1613.408	1276.785
88.826	23.208	1612.218	1275.615
89.841	23.093	1610.667	1273.449
90.855	23.115	1610.107	1273.052
91.870	23.203	1609.233	1272.878
92.884	23.229	1608.297	1272.215
93.899	23.306	1607.444	1271.978
94.914	23.397	1606.103	1271.462
95.928	23.367	1604.981	1270.241
96.943	23.403	1603.893	1269.528
97.957	23.325	1602.628	1267.857
98.972	23.365	1600.989	1266.733
99.987	23.238	1599.707	1264.697
101.001	23.224	1598.225	1263.315
102.016	23.205	1596.788	1261.934
103.030	23.211	1595.265	1260.663
104.045	23.157	1594.700	1259.720
105.060	23.144	1593.176	1258.311
106.074	23.074	1591.130	1256.086
107.089	22.850	1589.444	1253.054
108.103	22.572	1587.881	1249.737
109.118	22.411	1586.140	1247.121
110.133	22.218	1584.517	1244.365
111.147	22.073	1583.345	1242.309
112.162	22.152	1582.032	1241.728
113.176	22.299	1580.752	1241.653
114.191	22.389	1579.769	1241.407
115.206	22.497	1578.636	1241.162
116.220	22.468	1577.687	1240.106
117.235	22.503	1576.407	1239.232
118.249	22.406	1575.330	1237.598
119.264	22.403	1573.495	1236.026
120.279	22.163	1572.342	1233.329
121.293	22.143	1571.103	1232.108
122.308	22.167	1569.337	1230.779
123.322	22.069	1567.783	1228.764
124.337	21.915	1566.487	1226.567
125.352	21.917	1565.051	1225.348
126.366	21.809	1564.702	1224.210
127.381	21.858	1563.456	1223.467
128.395	21.940	1561.821	1222.653
129.410	21.861	1560.881	1221.258
130.424	21.771	1559.142	1219.162
131.439	21.751	1558.115	1218.115
132.454	21.955	1557.335	1218.810
133.468	22.171	1555.901	1219.081
134.483	22.346	1555.449	1219.835
135.497	22.412	1554.289	1219.272
136.512	22.404	1553.058	1218.140
137.527	22.359	1552.266	1217.102
138.541	22.437	1550.831	1216.412
139.556	22.471	1549.254	1215.300
140.570	22.607	1548.091	1215.219
141.585	22.651	1547.579	1215.010
142.600	22.803	1545.960	1214.677
143.614	22.866	1545.575	1214.702
144.629	23.088	1544.660	1215.402
145.643	23.195	1543.448	1215.077
146.658	23.202	1542.615	1214.357
147.673	23.081	1540.936	1212.103
148.687	22.870	1539.540	1209.451
149.702	22.694	1537.860	1206.821
150.716	22.647	1536.180	1205.071
151.731	22.581	1534.571	1203.254
152.746	22.343	1533.413	1200.614
153.760	22.343	1531.647	1199.124
154.775	22.445	1531.057	1199.253
155.789	22.593	1530.775	1199.937
156.804	22.737	1529.819	1200.061
157.819	22.798	1528.205	1199.099
158.833	22.688	1527.616	1197.784
159.848	22.751	1526.595	1197.307
160.862	22.994	1525.395	1197.908
161.877	23.036	1524.417	1197.318
162.892	22.896	1522.744	1194.951
163.906	22.589	1521.173	1191.539
164.921	22.191	1519.938	1187.773
165.935	22.174	1518.754	1186.626
166.950	22.293	1517.624	1186.444
167.964	22.475	1516.933	1187.026
168.979	22.568	1516.487	1187.200
169.994	22.542	1515.385	1186.054
171.008	22.494	1513.751	1184.346
172.023	22.420	1513.097	1183.233
173.037	22.422	1512.134	1182.393
174.052	22.707	1511.385	1183.611
175.067	22.956	1510.564	1184.532
176.081	22.771	1508.995	1181.958
177.096	22.409	1507.411	1178.193
178.110	22.335	1505.851	1176.377
179.125	22.324	1505.413	1175.857
180.140	22.212	1504.875	1174.582
181.154	22.402	1503.762	1174.881
182.169	22.681	1502.808	1175.891
183.183	22.807	1502.210	1176.157
184.198	22.902	1501.309	1175.979
185.213	22.950	1500.377	1175.468
186.227	23.070	1499.420	1175.412
187.242	22.979	1498.435	1173.931
188.256	23.001	1497.213	1173.013
189.271	23.180	1495.853	1173.030
190.286	23.138	1495.692	1172.522
191.300	23.153	1495.180	1172.116
192.315	22.740	1493.713	1168.131
193.329	22.523	1491.859	1165.143
194.344	22.534	1491.070	1164.497
195.359	22.484	1490.319	1163.475
196.373	22.507	1488.642	1162.214
197.388	22.326	1487.692	1160.176
198.402	22.301	1486.523	1158.997
199.417	22.510	1485.637	1159.579
200.432	23.004	1485.716	1162.788
201.446	23.089	1485.702	1163.236
202.461	23.246	1484.742	1163.413
203.475	23.332	1483.595	1162.975
204.490	23.301	1482.954	1162.166
205.504	23.073	1481.951	1159.784
206.519	22.777	1480.232	1156.395
207.534	22.715	1478.895	1154.844
208.548	22.643	1477.838	1153.442
209.563	22.521	1476.685	1151.644
210.577	22.531	1475.517	1150.700
211.592	22.605	1474.670	1150.417
212.607	22.538	1473.901	1149.278
213.621	22.849	1473.766	1151.098
214.636	23.078	1473.734	1152.462
215.650	23.046	1472.575	1151.246
216.665	22.837	1471.548	1148.982
217.680	22.930	1471.000	1149.056
218.694	23.186	1470.568	1150.287
219.709	23.381	1469.758	1150.814
220.723	23.293	1468.405	1149.085
221.738	23.188	1467.201	1147.360
222.753	23.205	1466.630	1146.920
223.767	23.087	1465.871	1145.463
224.782	22.956	1464.491	1143.433
225.796	22.921	1464.266	1142.930
226.811	23.333	1463.988	1145.279
227.826	23.326	1462.807	1144.209
228.840	23.212	1461.497	1142.345
229.855	23.018	1460.713	1140.380
230.869	22.855	1459.288	1138.118
231.884	22.854	1458.396	1137.311
232.899	22.907	1456.977	1136.449
233.913	22.640	1455.763	1133.684
234.928	22.570	1454.165	1131.887
235.942	22.528	1452.725	1130.398
236.957	22.607	1451.514	1129.859
237.972	22.443	1450.411	1127.855
238.986	22.286	1449.230	1125.829
240.001	22.338	1448.722	1125.670
241.015	22.521	1447.518	1125.805
242.030	22.504	1446.433	1124.748
243.045	22.443	1446.410	1124.241
244.059	22.532	1445.474	1123.982
245.074	22.872	1444.694	1125.448
246.088	22.904	1443.818	1124.865
247.103	23.024	1443.735	1125.468
248.117	23.065	1442.945	1125.011
249.132	23.200	1442.185	1125.182
250.147	23.415	1441.873	1126.200
251.161	23.713	1441.540	1127.734
252.176	23.947	1441.555	1129.130
253.190	24.083	1440.678	1129.209
254.205	24.101	1440.198	1128.846
255.220	24.128	1439.096	1128.055
256.234	24.159	1438.625	1127.780
257.249	24.281	1437.781	1127.791
258.263	24.298	1436.827	1127.048
259.278	24.159	1435.999	1125.425
260.293	24.094	1435.109	1124.218
261.307	24.057	1434.706	1123.570
262.322	24.071	1433.931	1122.949
263.336	24.245	1433.012	1123.228
264.351	24.124	1432.214	1121.743
265.366	24.182	1431.308	1121.299
266.380	24.145	1430.135	1120.046
267.395	24.193	1429.287	1119.581
268.409	24.256	1428.338	1119.137
269.424	24.071	1426.915	1116.762
270.439	23.829	1425.954	1114.396
271.453	23.885	1425.127	1114.002
272.468	23.878	1423.771	1112.795
273.482	23.732	1423.351	1111.458
274.497	23.647	1422.127	1109.871
275.512	23.676	1420.783	1108.904
276.526	23.483	1420.424	1107.321
277.541	23.614	1419.202	1107.088
278.555	23.579	1418.628	1106.328
279.570	23.595	1418.347	1106.106
280.585	23.839	1417.538	1106.897
281.599	24.099	1417.014	1108.007
282.614	24.136	1416.334	1107.609
283.628	24.092	1414.638	1105.913
284.643	23.684	1413.697	1102.544
285.657	23.699	1412.307	1101.458
286.672	23.641	1411.308	1100.224
287.687	23.583	1410.511	1099.142
288.701	23.723	1409.277	1098.951
289.716	23.692	1408.769	1098.265
290.730	23.718	1408.715	1098.286
291.745	23.747	1407.145	1097.147
292.760	23.657	1406.279	1095.818
293.774	23.772	1405.572	1095.882
294.789	23.741	1404.729	1094.931
295.803	23.918	1404.072	1095.415
296.818	24.134	1403.378	1096.105
297.833	23.960	1402.618	1094.343
298.847	23.745	1401.484	1092.040
299.862	23.734	1400.306	1090.960
300.876	23.644	1399.446	1089.640
301.891	23.742	1398.567	1089.463
302.906	23.600	1398.356	1088.331
303.920	23.982	1397.437	1089.857
304.935	24.161	1397.040	1090.548
305.949	24.308	1396.707	1091.094
306.964	24.382	1395.960	1090.867
307.979	24.391	1395.062	1090.123
308.993	24.390	1393.902	1089.110
310.008	24.206	1392.587	1086.865
311.022	24.134	1391.693	1085.633
312.037	24.292	1390.862	1085.854
313.052	24.294	1390.152	1085.213
314.066	24.245	1388.668	1083.663
315.081	23.978	1387.569	1081.085
316.095	23.802	1386.340	1078.963
317.110	23.568	1384.956	1076.371
318.125	23.528	1383.916	1075.226
319.139	23.486	1383.231	1074.346
320.154	23.509	1382.110	1073.518
321.168	23.424	1381.654	1072.556
322.183	23.592	1380.169	1072.321
323.197	23.531	1379.425	1071.278
324.212	23.736	1378.286	1071.539
325.227	23.697	1377.939	1070.940
326.241	23.788	1377.459	1071.017
327.256	23.762	1376.490	1070.012
328.270	23.788	1375.362	1069.201
329.285	23.701	1374.085	1067.590
330.300	23.593	1373.766	1066.598
331.314	23.690	1372.884	1066.397
332.329	23.629	1372.093	1065.324
333.343	23.643	1371.110	1064.551
334.358	23.666	1370.237	1063.917
335.373	23.728	1369.635	1063.727
336.387	23.853	1369.608	1064.361
337.402	24.122	1368.997	1065.400
338.416	24.116	1368.381	1064.791
339.431	24.224	1367.995	1065.040
340.446	24.334	1367.166	1064.962
341.460	24.412	1366.402	1064.737
342.475	24.630	1365.505	1065.243
343.489	24.810	1364.962	1065.797
344.504	24.759	1364.154	1064.770
345.519	24.795	1363.601	1064.459
346.533	24.882	1362.774	1064.236
347.548	24.949	1361.762	1063.746
348.562	24.949	1361.147	1063.172
349.577	24.963	1360.181	1062.406
350.592	24.715	1359.276	1060.135
351.606	24.436	1357.776	1057.220
352.621	24.136	1356.637	1054.463
353.635	23.920	1355.171	1051.956
354.650	23.867	1354.174	1050.775
355.665	23.899	1352.876	1049.861
356.679	23.990	1351.930	1049.573
357.694	24.069	1351.296	1049.452
358.708	24.260	1350.402	1049.790
359.723	24.319	1349.670	1049.474
360.738	24.392	1348.272	1048.728
361.752	24.285	1347.684	1047.544
362.767	24.418	1346.364	1047.208
363.781	24.318	1345.741	1046.046
364.796	24.268	1344.832	1044.954
365.810	24.389	1344.223	1045.096
366.825	24.834	1343.688	1047.195
367.840	24.922	1344.185	1048.003
368.854	24.948	1342.880	1047.041
369.869	25.163	1342.787	1048.132
370.883	25.172	1342.420	1047.811
371.898	25.077	1341.036	1046.082
372.913	24.898	1339.715	1043.914
373.927	24.809	1338.835	1042.618
374.942	24.808	1338.001	1041.869
375.956	24.913	1337.616	1042.088
376.971	25.124	1336.590	1042.425
377.986	24.884	1335.988	1040.467
379.000	24.850	1335.257	1039.611
380.015	24.974	1334.893	1039.955
381.029	25.224	1334.170	1040.749
382.044	25.250	1333.860	1040.568
383.059	25.269	1333.143	1040.021
384.073	25.192	1332.326	1038.847
385.088	25.133	1331.634	1037.874
386.102	25.207	1330.723	1037.502
387.117	25.184	1330.169	1036.845
388.132	25.106	1329.192	1035.543
389.146	24.855	1327.942	1033.026
390.161	24.610	1326.985	1030.778
391.175	24.541	1326.236	1029.708
392.190	24.463	1325.656	1028.719
393.205	24.680	1324.628	1029.075
394.219	24.750	1324.748	1029.485
395.234	25.006	1323.598	1029.970
396.248	24.902	1321.859	1027.928
397.263	24.752	1320.403	1025.845
398.278	24.538	1318.892	1023.354
399.292	24.455	1317.958	1022.063
400.307	24.602	1316.780	1021.898
401.321	24.600	1315.869	1021.089
402.336	24.576	1314.912	1020.121
403.350	24.407	1313.448	1017.932
404.365	24.304	1312.580	1016.581
405.380	24.327	1311.983	1016.163
406.394	24.538	1311.808	1017.135
407.409	24.595	1310.855	1016.631
408.423	24.708	1310.550	1016.947
409.438	25.123	1309.917	1018.724
410.453	25.262	1309.540	1019.135
411.467	25.297	1308.998	1018.817
412.482	25.327	1308.561	1018.557
413.496	25.403	1307.884	1018.373
414.511	25.347	1307.365	1017.559
415.526	25.452	1306.641	1017.502
416.540	25.540	1306.184	1017.556
417.555	25.732	1305.320	1017.875
418.569	25.818	1304.935	1017.969
419.584	25.593	1304.429	1016.218
420.599	25.535	1302.761	1014.498
421.613	144.878	1434.975	1795.472
422.628	140.281	1454.243	1795.561
