DTS Sentinel unit serial number:	SN413079Multiplexer serial number:	ORYXHardware model number:	OX4-SRSoftware version number:	ORYX F/W v4.00 Oryx Data Collector v3.7.2.0data status	okinstallation	princeton_trtdifferential loss correction	single-endedforward channel	channel 4reverse channel	N/Adate	2019/09/15time	20:49:35forward acquisition time	60.00reverse acquisition time	0.00gamma	496.2192k internal	0.2316k external	0.2316temperature offset calibration	0.9933default loss term (dB/km)	0.3790temperature slope calibration	1.0000multiplexer offset coefficient	1.0000multiplexer slope coefficient	1.0000fibre end	0.00T internal ref (°C)	32.31T ext. ref 1 (°C)	7.97T ext. ref 2 (°C)	24.49length (m)	temperature (°C)	Stokes	anti-Stokes-747.200	50.345	-0.184	-0.176
-746.185	-120.177	-0.286	0.049
-745.171	-110.492	-0.165	-0.035
-744.156	-90.128	0.181	0.053
-743.142	-92.931	0.162	0.046
-742.127	-58.783	-0.251	-0.110
-741.112	-45.654	0.239	0.120
-740.098	674.454	-0.087	0.229
-739.083	-105.866	-0.258	0.059
-738.069	-200.000	-0.028	0.320
-737.054	94.755	0.106	0.122
-736.039	160.981	-0.068	-0.096
-735.025	800.000	0.024	-0.074
-734.010	-41.601	-0.447	-0.233
-732.996	287.372	0.075	-0.138
-731.981	-92.701	0.285	0.081
-730.966	46.639	-0.242	-0.227
-729.952	-200.000	-0.030	-0.168
-728.937	-8.646	-0.205	0.139
-727.923	-81.146	-0.206	0.069
-726.908	-169.699	-0.689	-0.025
-725.894	-76.238	-0.083	-0.030
-724.879	-200.000	0.029	-0.270
-723.864	581.943	0.077	-0.192
-722.850	222.560	-0.153	-0.250
-721.835	-35.502	0.192	0.106
-720.821	-200.000	-0.086	0.434
-719.806	-156.430	-0.116	-0.007
-718.791	41.053	-0.243	-0.222
-717.777	-110.284	0.131	-0.028
-716.762	195.148	-0.199	0.306
-715.748	-79.732	0.173	0.059
-714.733	23.852	-0.055	0.046
-713.718	115.099	0.043	-0.054
-712.704	800.000	-0.052	0.147
-711.689	800.000	0.069	-0.246
-710.675	-200.000	0.002	-0.071
-709.660	578.562	0.072	0.177
-708.645	-200.000	-0.047	-0.264
-707.631	-37.263	-0.130	-0.070
-706.616	61.902	0.207	-0.208
-705.602	-94.745	-0.451	0.124
-704.587	167.437	0.093	-0.134
-703.572	-141.227	0.356	-0.037
-702.558	48.004	0.055	0.052
-701.543	-200.000	-0.018	0.167
-700.529	177.209	0.106	0.157
-699.514	251.442	-0.121	-0.208
-698.499	-97.412	0.298	-0.078
-697.485	204.076	-0.113	-0.178
-696.470	34.199	-0.160	0.141
-695.456	-159.860	0.133	0.007
-694.441	-39.473	-0.304	-0.161
-693.426	45.999	-0.060	-0.056
-692.412	248.596	0.040	0.068
-691.397	232.764	-0.126	0.209
-690.383	-33.612	-0.131	0.073
-689.368	-16.649	-0.194	0.124
-688.354	-43.991	-0.133	-0.068
-687.339	-169.589	-0.337	0.012
-686.324	-152.251	0.124	-0.009
-685.310	259.192	-0.107	-0.186
-684.295	-146.836	-0.428	-0.037
-683.281	-34.306	-0.263	-0.146
-682.266	50.798	-0.172	-0.165
-681.251	260.846	-0.077	-0.135
-680.237	-95.060	0.033	-0.009
-679.222	-23.108	0.122	-0.074
-678.208	-200.000	0.001	-0.050
-677.193	-5.240	-0.301	0.209
-676.178	800.000	0.023	-0.074
-675.164	-73.749	0.084	-0.031
-674.149	-137.479	0.253	-0.029
-673.135	365.138	-0.038	0.077
-672.120	69.366	0.044	0.046
-671.105	56.317	-0.216	0.212
-670.091	-12.186	-0.221	-0.146
-669.076	800.000	0.026	0.101
-668.062	5.738	0.202	0.151
-667.047	-118.484	-0.295	-0.053
-666.032	119.377	0.160	-0.199
-665.018	800.000	0.030	-0.115
-664.003	-71.763	0.173	0.065
-662.989	-200.000	-0.002	0.033
-661.974	32.993	0.271	0.237
-660.959	-195.205	-0.339	-0.003
-659.945	574.088	-0.172	0.424
-658.930	-50.809	0.177	-0.084
-657.916	5.591	-0.216	-0.161
-656.901	-68.551	0.133	0.052
-655.886	-89.896	0.271	0.080
-654.872	181.541	-0.233	-0.347
-653.857	-14.352	-0.267	-0.174
-652.843	-200.000	-0.012	-0.053
-651.828	194.258	-0.328	0.502
-650.814	-12.704	0.126	-0.083
-649.799	800.000	0.058	0.183
-648.784	-58.618	-0.333	-0.146
-647.770	800.000	-0.051	0.185
-646.755	-137.125	0.190	-0.022
-645.741	-200.000	0.013	-0.078
-644.726	-156.341	0.191	-0.012
-643.711	-200.000	-0.001	-0.197
-642.697	-74.231	0.222	-0.081
-641.682	-22.774	0.165	-0.101
-640.668	-95.945	0.241	0.065
-639.653	800.000	0.060	-0.220
-638.638	130.908	0.120	-0.156
-637.624	332.664	-0.112	-0.217
-636.609	55.222	-0.059	0.057
-635.595	-47.236	-0.361	-0.178
-634.580	72.122	-0.032	-0.034
-633.565	8.990	-0.069	-0.052
-632.551	12.887	0.034	-0.027
-631.536	-51.508	0.061	-0.029
-630.522	147.290	0.399	0.541
-629.507	800.000	-0.039	-0.154
-628.492	-151.725	0.157	0.012
-627.478	282.729	-0.019	0.034
-626.463	-102.847	-0.399	0.096
-625.449	-105.403	-0.020	-0.005
-624.434	-200.000	0.007	-0.070
-623.419	-200.000	-0.021	0.382
-622.405	800.000	-0.075	-0.243
-621.390	-100.040	-0.121	0.031
-620.376	85.638	-0.187	-0.207
-619.361	-144.066	-0.156	-0.015
-618.346	135.386	-0.204	0.267
-617.332	140.641	0.049	-0.065
-616.317	-129.595	-0.189	-0.026
-615.303	-104.848	0.402	-0.093
-614.288	-82.917	-0.302	-0.098
-613.273	-89.924	-0.096	0.028
-612.259	-78.874	0.155	-0.053
-611.244	55.663	-0.224	-0.219
-610.230	-46.626	0.338	-0.167
-609.215	259.008	-0.064	0.111
-608.201	206.368	-0.318	-0.499
-607.186	-59.265	-0.020	0.009
-606.171	-5.134	0.208	0.144
-605.157	-83.099	-0.052	0.017
-604.142	-150.292	-0.193	-0.015
-603.128	-200.000	-0.021	-0.126
-602.113	-36.921	-0.073	0.040
-601.098	-135.275	0.323	0.039
-600.084	-93.775	0.189	-0.053
-599.069	0.593	0.179	0.129
-598.055	-141.484	0.237	0.024
-597.040	205.662	-0.142	0.223
-596.025	800.000	0.060	0.191
-595.011	370.626	0.078	-0.160
-593.996	-140.020	0.197	-0.021
-592.982	-76.895	-0.250	0.088
-591.967	58.082	-0.154	-0.151
-590.952	227.652	-0.159	-0.261
-589.938	-124.194	-0.093	0.015
-588.923	165.389	0.047	0.067
-587.909	800.000	0.036	-0.103
-586.894	800.000	-0.058	-0.250
-585.879	-200.000	-0.019	0.110
-584.865	-86.351	0.045	-0.014
-583.850	-120.300	-0.017	0.003
-582.836	-26.776	-0.316	0.186
-581.821	-27.245	-0.156	0.092
-580.806	-191.468	0.144	0.001
-579.792	-122.730	-0.263	0.043
-578.777	800.000	-0.125	0.351
-577.763	269.541	0.131	-0.231
-576.748	-113.860	-0.418	-0.082
-575.733	59.343	-0.186	0.185
-574.719	169.570	0.121	-0.174
-573.704	55.372	0.157	0.153
-572.690	-91.502	-0.348	0.100
-571.675	800.000	0.160	0.485
-570.661	-129.960	0.148	0.020
-569.646	-200.000	-0.025	0.242
-568.631	106.842	0.258	0.308
-567.617	-72.404	-0.081	-0.030
-566.602	256.976	0.035	-0.061
-565.588	28.697	0.381	0.324
-564.573	-42.884	0.174	0.089
-563.558	-49.285	0.227	0.109
-562.544	94.192	-0.109	0.124
-561.529	325.671	-0.063	0.121
-560.515	-67.743	0.358	0.141
-559.500	800.000	-0.052	-0.183
-558.485	800.000	-0.038	0.112
-557.471	-200.000	0.001	-0.091
-556.456	-56.807	-0.224	0.099
-555.442	800.000	-0.051	0.147
-554.427	59.159	0.149	0.148
-553.412	-18.145	-0.100	-0.063
-552.398	62.418	-0.140	0.141
-551.383	436.784	0.051	0.112
-550.369	-200.000	-0.002	-0.209
-549.354	375.097	0.086	-0.175
-548.339	-2.934	-0.203	0.143
-547.325	-128.875	0.401	-0.057
-546.310	34.462	0.143	-0.125
-545.296	-6.287	0.143	-0.098
-544.281	-125.783	-0.209	0.032
-543.266	-69.883	-0.269	0.103
-542.252	-200.000	0.017	0.142
-541.237	27.139	0.108	-0.091
-540.223	96.620	0.292	-0.336
-539.208	64.511	0.308	-0.312
-538.193	800.000	-0.031	-0.089
-537.179	-11.975	-0.121	-0.080
-536.164	-7.380	-0.415	-0.283
-535.150	-200.000	-0.008	0.136
-534.135	-129.276	0.250	-0.035
-533.121	-138.383	0.322	0.036
-532.106	800.000	-0.076	-0.325
-531.091	-83.786	-0.085	-0.027
-530.077	670.653	0.131	-0.340
-529.062	-53.152	-0.135	0.062
-528.048	-114.422	-0.176	0.034
-527.033	-156.660	-0.288	0.018
-526.018	62.256	-0.058	0.058
-525.004	-103.613	-0.207	0.049
-523.989	139.653	-0.108	-0.142
-522.975	800.000	0.072	-0.273
-521.960	116.642	0.231	-0.284
-520.945	-23.742	0.222	-0.134
-519.931	72.239	-0.140	-0.146
-518.916	-18.037	0.106	0.066
-517.902	342.847	-0.035	0.068
-516.887	-2.025	-0.328	0.231
-515.872	240.136	-0.084	0.140
-514.858	-4.659	0.126	-0.087
-513.843	29.734	-0.206	-0.176
-512.829	22.816	0.248	-0.204
-511.814	-97.463	0.145	0.038
-510.799	407.383	0.032	-0.068
-509.785	586.560	0.102	0.252
-508.770	-30.993	-0.406	0.230
-507.756	-28.970	0.338	0.195
-506.741	-200.000	0.020	-0.235
-505.726	579.237	0.137	0.338
-504.712	-143.158	0.274	0.026
-503.697	-63.157	-0.187	-0.078
-502.683	343.251	-0.050	-0.098
-501.668	-127.196	0.405	0.059
-500.653	-163.732	-0.216	0.010
-499.639	-110.480	0.185	-0.039
-498.624	-200.000	0.010	0.171
-497.610	-106.235	0.206	-0.046
-496.595	43.370	0.116	-0.106
-495.581	243.316	-0.183	-0.308
-494.566	-134.425	-0.232	0.029
-493.551	-121.031	-0.202	0.034
-492.537	-39.665	-0.212	0.111
-491.522	-126.512	-0.158	-0.024
-490.508	-83.259	-0.293	-0.095
-489.493	-200.000	0.015	0.223
-488.478	-116.910	0.161	0.029
-487.464	189.009	0.181	0.271
-486.449	431.584	0.050	0.109
-485.435	-143.663	0.246	0.023
-484.420	151.224	0.244	0.332
-483.405	800.000	0.032	0.117
-482.391	15.346	-0.390	0.307
-481.376	184.032	0.271	0.403
-480.362	800.000	-0.063	-0.200
-479.347	208.697	-0.103	-0.162
-478.332	-20.672	-0.256	-0.158
-477.318	132.662	-0.016	0.021
-476.303	-23.985	-0.151	-0.090
-475.289	-82.089	-0.428	-0.140
-474.274	306.002	-0.080	-0.150
-473.259	800.000	-0.048	-0.177
-472.245	12.125	0.165	-0.127
-471.230	64.086	0.162	-0.163
-470.216	77.710	-0.121	0.129
-469.201	-42.045	0.129	0.066
-468.186	-200.000	-0.026	-0.337
-467.172	43.727	-0.070	0.064
-466.157	-198.471	0.113	-0.001
-465.143	32.906	0.368	0.319
-464.128	-108.534	-0.079	-0.017
-463.113	-47.000	0.301	0.147
-462.099	-6.626	-0.090	-0.061
-461.084	139.656	-0.168	-0.222
-460.070	337.554	0.093	-0.182
-459.055	92.760	0.138	0.156
-458.040	98.387	0.113	-0.131
-457.026	-168.199	0.134	-0.005
-456.011	-200.000	-0.004	-0.202
-454.997	-166.580	0.135	0.006
-453.982	-35.560	-0.194	0.105
-452.968	-130.750	-0.069	0.009
-451.953	800.000	-0.044	0.153
-450.938	-3.968	-0.129	-0.090
-449.924	229.393	-0.093	-0.152
-448.909	-193.682	0.188	0.002
-447.895	145.679	-0.242	-0.324
-446.880	-81.452	-0.099	0.033
-445.865	800.000	0.083	-0.294
-444.851	-200.000	0.104	-0.455
-443.836	110.889	0.109	0.132
-442.822	-200.000	0.010	0.214
-441.807	-200.000	-0.034	0.160
-440.792	151.044	0.288	0.392
-439.778	-107.634	0.174	-0.038
-438.763	43.239	-0.193	-0.176
-437.749	420.097	0.244	-0.524
-436.734	-44.038	0.188	-0.095
-435.719	-10.906	-0.298	-0.197
-434.705	73.673	0.088	0.092
-433.690	-45.113	0.329	0.164
-432.676	-200.000	0.002	-0.102
-431.661	800.000	0.028	0.092
-430.646	800.000	-0.043	0.118
-429.632	-49.458	-0.221	-0.106
-428.617	-166.137	0.275	0.012
-427.603	-101.666	-0.194	-0.047
-426.588	562.966	0.107	-0.260
-425.573	-3.122	0.255	0.178
-424.559	-200.000	-0.281	0.001
-423.544	87.949	0.171	-0.189
-422.530	-25.389	-0.174	0.103
-421.515	-102.856	0.464	-0.110
-420.500	-74.546	-0.161	-0.058
-419.486	800.000	-0.050	-0.209
-418.471	54.747	-0.106	0.102
-417.457	-90.268	0.182	0.053
-416.442	-200.000	0.003	-0.205
-415.428	-108.221	0.165	0.036
-414.413	423.057	0.024	0.051
-413.398	-200.000	0.022	0.301
-412.384	-200.000	0.015	0.128
-411.369	220.619	-0.069	0.110
-410.355	-126.904	-0.091	0.013
-409.340	800.000	0.038	0.118
-408.325	-89.354	0.314	0.092
-407.311	800.000	-0.075	0.212
-406.296	-3.710	-0.141	0.098
-405.282	-200.000	-0.017	0.099
-404.267	-109.048	-0.056	0.012
-403.252	800.000	0.077	0.281
-402.238	156.289	-0.135	-0.186
-401.223	295.179	-0.061	-0.112
-400.209	-57.108	-0.108	-0.047
-399.194	-200.000	-0.084	0.392
-398.179	37.726	-0.055	-0.049
-397.165	-113.416	0.168	-0.033
-396.150	-88.231	-0.312	-0.093
-395.136	274.964	-0.058	0.103
-394.121	-200.000	-0.066	0.345
-393.106	-200.000	0.010	0.120
-392.092	-165.644	-0.239	0.010
-391.077	184.955	0.241	0.357
-390.063	166.573	-0.078	0.110
-389.048	-32.996	-0.170	0.094
-388.033	14.753	-0.117	0.091
-387.019	-125.707	-0.515	-0.078
-386.004	339.813	0.060	-0.117
-384.990	192.659	0.066	0.100
-383.975	362.944	-0.122	0.246
-382.960	35.656	-0.068	0.059
-381.946	-3.129	0.192	0.134
-380.931	-200.000	-0.023	-0.154
-379.917	-200.000	-0.027	-0.166
-378.902	-70.614	0.087	-0.033
-377.888	-108.533	-0.465	0.100
-376.873	-102.359	0.535	-0.128
-375.858	800.000	0.050	0.167
-374.844	245.408	0.177	-0.298
-373.829	-144.760	0.080	-0.007
-372.815	-200.000	0.045	0.228
-371.800	30.631	-0.237	0.202
-370.785	-95.273	0.081	0.022
-369.771	87.888	-0.123	-0.136
-368.756	-60.044	0.282	0.120
-367.742	-200.000	-0.002	-0.229
-366.727	160.976	0.111	-0.155
-365.712	-200.000	-0.008	0.036
-364.698	-200.000	0.007	0.178
-363.683	-68.792	0.160	0.062
-362.669	-200.000	-0.046	-0.213
-361.654	-130.331	-0.240	-0.033
-360.639	-152.002	0.146	0.011
-359.625	-138.269	0.178	0.020
-358.610	19.812	0.054	0.044
-357.596	274.746	-0.180	0.318
-356.581	119.993	-0.076	-0.093
-355.566	-200.000	-0.037	-0.202
-354.552	-166.990	0.151	0.006
-353.537	124.482	0.060	-0.075
-352.523	123.907	-0.223	-0.279
-351.508	97.386	0.268	-0.307
-350.493	73.359	-0.112	0.117
-349.479	800.000	0.057	0.173
-348.464	32.509	-0.040	0.034
-347.450	749.685	0.138	0.372
-346.435	15.145	-0.143	-0.112
-345.420	124.185	0.194	-0.243
-344.406	-12.879	0.223	0.145
-343.391	185.652	-0.094	-0.140
-342.377	105.120	-0.102	0.120
-341.362	-34.666	0.296	0.161
-340.348	-59.016	-0.392	-0.169
-339.333	237.320	-0.103	-0.171
-338.318	137.094	0.052	0.068
-337.304	-89.204	0.306	-0.090
-336.289	-143.062	0.223	0.021
-335.275	15.084	-0.140	-0.109
-334.260	259.323	-0.135	-0.232
-333.245	-200.000	0.022	-0.246
-332.231	-86.937	0.283	0.086
-331.216	800.000	0.040	0.136
-330.202	-59.811	-0.240	-0.103
-329.187	-200.000	0.001	-0.209
-328.172	222.170	0.036	0.058
-327.158	80.029	-0.027	0.029
-326.143	-200.000	-0.042	-0.304
-325.129	-200.000	-0.018	-0.528
-324.114	168.074	-0.124	-0.177
-323.099	-93.158	-0.151	-0.042
-322.085	347.439	-0.025	0.048
-321.070	115.715	0.156	0.191
-320.056	-167.577	-0.029	0.001
-319.041	-148.200	-0.340	0.028
-318.026	-200.000	-0.007	-0.142
-317.012	-141.930	0.079	0.008
-315.997	800.000	-0.026	-0.112
-314.983	84.011	-0.223	0.242
-313.968	-2.758	0.269	0.188
-312.953	800.000	-0.056	-0.216
-311.939	-12.778	-0.052	-0.034
-310.924	402.022	0.158	0.330
-309.910	-64.921	-0.234	-0.094
-308.895	-200.000	0.001	-0.074
-307.880	-200.000	-0.069	0.441
-306.866	76.141	-0.157	-0.166
-305.851	-35.007	-0.243	-0.132
-304.837	800.000	-0.065	-0.245
-303.822	195.003	0.127	-0.192
-302.807	-10.781	-0.125	-0.082
-301.793	700.491	0.057	0.149
-300.778	-140.076	0.179	-0.019
-299.764	123.301	-0.291	-0.363
-298.749	800.000	-0.065	-0.244
-297.735	800.000	-0.041	-0.126
-296.720	-44.917	0.392	0.194
-295.705	-33.530	-0.132	0.073
-294.691	800.000	-0.085	-0.331
-293.676	800.000	0.051	0.176
-292.662	24.686	-0.071	-0.059
-291.647	-60.862	-0.147	-0.062
-290.632	-83.627	-0.337	-0.107
-289.618	64.439	0.221	0.221
-288.603	-200.000	0.030	0.181
-287.589	-112.255	-0.179	-0.036
-286.574	151.405	0.223	0.302
-285.559	-158.499	-0.156	-0.009
-284.545	-57.342	-0.231	0.101
-283.530	27.942	0.133	0.112
-282.516	216.203	0.089	0.140
-281.501	-129.748	-0.233	-0.032
-280.486	-200.000	0.010	-0.272
-279.472	-200.000	0.046	-0.278
-278.457	477.825	-0.127	-0.286
-277.443	-200.000	-0.011	-0.332
-276.428	-44.360	0.234	-0.117
-275.413	-32.873	-0.440	0.243
-274.399	411.173	-0.105	-0.222
-273.384	800.000	0.096	-0.271
-272.370	-67.453	-0.447	-0.175
-271.355	800.000	-0.007	-0.022
-270.340	-103.594	0.121	0.028
-269.326	-19.905	-0.189	-0.116
-268.311	-200.000	-0.005	0.138
-267.297	-51.022	0.217	-0.101
-266.282	800.000	0.107	-0.322
-265.267	79.296	0.316	0.336
-264.253	472.933	-0.122	0.274
-263.238	-23.492	-0.029	0.017
-262.224	-22.787	-0.300	-0.180
-261.209	-88.506	0.226	0.067
-260.195	-200.000	-0.085	0.394
-259.180	-78.147	-0.506	-0.173
-258.165	-44.802	0.431	-0.213
-257.151	0.146	-0.150	0.106
-256.136	-105.711	0.346	-0.078
-255.122	-176.658	0.259	-0.007
-254.107	154.426	-0.199	-0.272
-253.092	-103.349	-0.207	0.049
-252.078	153.688	0.060	0.081
-251.063	132.523	0.086	-0.110
-250.049	-102.430	0.187	0.045
-249.034	-109.770	-0.105	-0.022
-248.019	267.980	0.005	0.009
-247.005	108.810	-0.088	0.104
-245.990	-148.687	0.330	0.027
-244.976	-121.264	0.328	0.054
-243.961	17.708	-0.187	-0.148
-242.946	195.649	-0.188	0.284
-241.932	-118.471	-0.159	-0.028
-240.917	54.406	-0.124	-0.118
-239.903	-113.697	0.368	0.071
-238.888	-90.750	0.213	0.061
-237.873	-157.096	0.474	-0.029
-236.859	-51.844	0.226	0.105
-235.844	-38.544	0.190	0.099
-234.830	-116.128	0.176	0.032
-233.815	-104.938	-0.262	-0.060
-232.800	-143.979	0.369	-0.034
-231.786	-200.000	-0.022	0.236
-230.771	728.534	0.075	0.198
-229.757	427.999	0.114	-0.245
-228.742	52.203	0.314	-0.297
-227.727	800.000	0.040	0.174
-226.713	407.767	0.116	0.244
-225.698	-94.469	0.187	0.051
-224.684	160.874	0.123	-0.171
-223.669	-51.882	-0.201	-0.093
-222.655	-200.000	-0.033	0.172
-221.640	-110.419	0.120	-0.025
-220.625	70.656	-0.011	-0.011
-219.611	60.807	0.049	0.048
-218.596	-200.000	0.062	-0.275
-217.582	800.000	-0.060	-0.177
-216.567	-200.000	0.007	0.040
-215.552	739.286	-0.099	0.264
-214.538	-145.029	-0.254	0.023
-213.523	-200.000	-0.041	0.181
-212.509	37.439	0.131	-0.115
-211.494	-200.000	0.049	0.412
-210.479	72.737	0.095	-0.099
-209.465	192.729	-0.059	-0.088
-208.450	-200.000	-0.007	0.247
-207.436	-200.000	-0.040	0.309
-206.421	-0.516	-0.173	0.122
-205.406	-21.346	-0.172	-0.104
-204.392	75.035	0.217	0.227
-203.377	170.092	0.094	0.134
-202.363	8.910	-0.140	-0.105
-201.348	-31.512	0.369	0.206
-200.333	325.150	0.095	0.180
-199.319	-200.000	0.001	-0.173
-198.304	-36.579	-0.227	-0.121
-197.290	-23.136	0.142	0.085
-196.275	44.705	0.286	0.261
-195.260	-57.315	0.134	-0.058
-194.246	-200.000	-0.010	0.351
-193.231	800.000	-0.059	-0.216
-192.217	95.319	-0.203	-0.230
-191.202	-67.362	-0.154	-0.060
-190.187	-40.768	0.084	-0.043
-189.173	-166.154	-0.135	-0.006
-188.158	5.726	0.072	-0.053
-187.144	-19.815	0.132	0.081
-186.129	-21.949	-0.111	0.067
-185.114	-66.873	-0.208	0.081
-184.100	59.118	-0.257	0.251
-183.085	-200.000	-0.020	0.091
-182.071	800.000	-0.052	0.182
-181.056	48.599	-0.208	-0.193
-180.042	-200.000	0.043	0.236
-179.027	-192.519	0.260	-0.002
-178.012	-34.142	-0.200	0.109
-176.998	9.595	-0.170	-0.128
-175.983	-42.602	0.308	0.155
-174.969	800.000	0.058	0.223
-173.954	-200.000	0.058	-0.290
-172.939	-200.000	-0.061	-0.283
-171.925	-80.176	0.108	-0.036
-170.910	-69.998	0.536	0.202
-169.896	1.712	-0.266	-0.190
-168.881	-200.000	-0.023	-0.116
-167.866	99.783	-0.096	-0.110
-166.852	800.000	0.028	0.116
-165.837	-200.000	-0.008	0.145
-164.823	-177.141	0.079	-0.002
-163.808	-200.000	0.008	0.185
-162.793	-105.498	0.181	0.041
-161.779	-36.569	-0.175	-0.093
-160.764	-17.999	-0.205	0.127
-159.750	-200.000	0.017	-0.242
-158.735	-110.305	-0.365	0.075
-157.720	-137.241	-0.167	0.019
-156.706	-95.025	-0.417	0.111
-155.691	149.329	-0.068	-0.091
-154.677	117.245	0.103	0.125
-153.662	800.000	0.076	0.265
-152.647	800.000	0.061	0.248
-151.633	-127.372	-0.372	-0.054
-150.618	-181.290	0.123	-0.002
-149.604	800.000	-0.050	0.141
-148.589	800.000	-0.056	0.213
-147.574	113.507	0.283	0.340
-146.560	-1.655	0.226	-0.157
-145.545	-78.060	0.175	0.060
-144.531	523.985	-0.020	0.048
-143.516	-57.583	0.175	0.076
-142.502	434.795	0.130	-0.279
-141.487	25.509	-0.212	-0.175
-140.472	-200.000	-0.009	-0.396
-139.458	800.000	-0.050	-0.209
-138.443	-78.661	0.195	0.066
-137.429	800.000	0.031	-0.128
-136.414	112.347	-0.080	-0.096
-135.399	31.676	-0.218	-0.186
-134.385	-0.924	-0.223	0.156
-133.370	-53.173	0.283	-0.128
-132.356	-129.603	0.216	0.029
-131.341	44.514	0.117	-0.107
-130.326	-17.546	0.073	-0.045
-129.312	186.455	-0.147	-0.217
-128.297	-87.146	-0.160	-0.048
-127.283	-41.812	0.410	-0.208
-126.268	13.153	0.112	-0.086
-125.253	-119.299	-0.196	-0.034
-124.239	-39.631	-0.279	0.145
-123.224	74.012	-0.128	0.133
-122.210	29.524	-0.111	0.093
-121.195	-29.514	0.205	0.116
-120.180	-11.262	-0.017	0.011
-119.166	-200.000	0.005	-0.263
-118.151	-200.000	0.081	-0.484
-117.137	-200.000	-0.033	0.240
-116.122	-31.980	0.113	0.063
-115.107	-200.000	-0.032	-0.327
-114.093	-200.000	0.019	-0.195
-113.078	-121.861	-0.237	0.039
-112.064	-85.478	0.212	0.065
-111.049	18.613	0.178	0.140
-110.034	-200.000	-0.030	-0.214
-109.020	-65.624	-0.176	-0.070
-108.005	59.850	0.170	-0.166
-106.991	444.078	-0.135	-0.293
-105.976	3.006	0.385	0.277
-104.962	-95.586	-0.185	0.049
-103.947	-127.552	0.415	0.059
-102.932	392.744	0.066	0.136
-101.918	-76.137	-0.121	0.042
-100.903	-200.000	-0.011	0.137
-99.889	-181.172	0.190	-0.004
-98.874	59.845	-0.275	0.268
-97.859	-88.867	-0.260	-0.076
-96.845	296.491	0.040	0.072
-95.830	800.000	0.049	0.189
-94.816	800.000	0.028	0.106
-93.801	52.980	-0.151	0.143
-92.786	200.494	0.203	0.307
-91.772	-169.016	0.214	-0.008
-90.757	22.527	0.106	0.085
-89.743	194.275	0.216	-0.323
-88.728	19.882	-0.084	0.067
-87.713	-200.000	0.089	-0.408
-86.699	800.000	0.073	0.218
-85.684	-200.000	0.062	0.350
-84.670	139.146	-0.263	-0.341
-83.655	351.553	0.075	-0.147
-82.640	-38.517	-0.198	-0.103
-81.626	138.356	0.085	0.110
-80.611	800.000	-0.036	0.116
-79.597	346.133	0.056	0.109
-78.582	800.000	-0.035	0.136
-77.567	216.402	-0.083	0.131
-76.553	-100.676	0.244	0.059
-75.538	88.003	0.053	0.058
-74.524	-87.840	0.234	0.070
-73.509	-200.000	0.005	-0.352
-72.494	-127.347	-0.112	0.016
-71.480	-100.309	0.260	0.064
-70.465	730.493	-0.077	0.203
-69.451	49.743	-0.103	-0.096
-68.436	-184.087	-0.249	0.004
-67.422	800.000	-0.059	-0.187
-66.407	65.063	-0.303	0.302
-65.392	-103.978	-0.354	0.082
-64.378	53.966	0.167	-0.158
-63.363	-104.579	0.198	-0.045
-62.349	405.536	0.065	-0.135
-61.334	112.905	-0.880	-1.052
-60.319	103.628	0.430	0.498
-59.305	-200.000	-0.135	-0.999
-58.290	346.343	0.636	1.234
-57.276	454.101	0.670	1.463
-56.261	-200.000	95.439	579.406
-55.246	533.121	1372.405	3204.465
-54.232	161.150	2544.871	3507.478
-53.217	102.408	2287.344	2636.515
-52.203	38.773	2051.002	1805.428
-51.188	34.025	1966.618	1689.034
-50.173	32.516	1948.065	1659.743
-49.159	47.256	1998.492	1834.671
-48.144	48.554	2016.829	1863.033
-47.130	34.610	1978.484	1704.186
-46.115	32.352	1968.037	1675.032
-45.100	32.222	1965.604	1671.743
-44.086	32.211	1963.469	1669.764
-43.071	32.143	1960.466	1666.543
-42.057	32.108	1958.604	1664.580
-41.042	32.141	1956.857	1663.320
-40.027	32.111	1954.975	1661.390
-39.013	32.183	1952.891	1660.192
-37.998	32.245	1951.309	1659.326
-36.984	32.252	1949.020	1657.375
-35.969	32.270	1947.080	1655.819
-34.954	32.240	1945.791	1654.392
-33.940	32.245	1944.446	1653.227
-32.925	32.360	1942.278	1652.330
-31.911	32.279	1941.012	1650.472
-30.896	32.283	1939.675	1649.309
-29.881	32.293	1937.952	1647.860
-28.867	32.282	1936.566	1646.525
-27.852	32.375	1934.588	1645.589
-26.838	32.341	1932.367	1643.335
-25.823	32.341	1930.885	1642.011
-24.809	32.303	1929.394	1640.348
-23.794	32.354	1927.394	1639.027
-22.779	32.280	1925.865	1637.022
-21.765	32.273	1924.264	1635.527
-20.750	32.264	1922.624	1633.992
-19.736	32.421	1920.414	1633.411
-18.721	32.398	1919.055	1631.991
-17.706	32.446	1917.097	1630.681
-16.692	32.381	1915.916	1629.044
-15.677	32.436	1914.323	1628.105
-14.663	32.311	1913.057	1625.885
-13.648	32.341	1911.910	1625.102
-12.633	32.363	1910.257	1623.825
-11.619	32.274	1909.715	1622.526
-10.604	32.330	1907.833	1621.349
-9.590	32.239	1906.619	1619.471
-8.575	32.396	1904.703	1619.126
-7.560	32.420	1903.700	1618.415
-6.546	32.270	1903.090	1616.547
-5.531	32.374	1901.184	1615.757
-4.517	32.349	1899.925	1614.403
-3.502	32.330	1899.035	1613.425
-2.487	32.313	1897.468	1611.883
-1.473	32.365	1896.434	1611.388
-0.458	32.364	1891.693	1607.288
0.556	29.049	1870.910	1574.459
1.571	24.029	1849.463	1513.700
2.586	19.494	1869.790	1491.111
3.600	18.100	1905.147	1506.898
4.615	17.749	1900.417	1499.932
5.629	15.382	1807.557	1406.690
6.644	10.948	1700.632	1288.319
7.659	8.339	1667.001	1242.451
8.673	8.030	1664.214	1237.863
9.688	8.023	1663.179	1236.928
10.702	7.960	1661.623	1235.168
11.717	7.847	1658.251	1231.685
12.731	8.082	1656.870	1232.367
13.746	11.447	1664.085	1263.710
14.761	15.788	1672.892	1304.003
15.775	17.331	1674.400	1317.022
16.790	16.762	1671.714	1310.390
17.804	15.658	1668.644	1299.344
18.819	14.663	1664.957	1288.679
19.834	13.935	1663.024	1281.456
20.848	13.571	1661.443	1277.319
21.863	13.354	1659.763	1274.237
22.877	13.077	1658.494	1271.022
23.892	12.916	1656.536	1268.170
24.907	12.924	1655.610	1267.410
25.921	12.770	1654.346	1265.147
26.936	12.767	1653.785	1264.581
27.950	12.841	1652.758	1264.255
28.965	12.867	1652.314	1264.000
29.980	12.916	1651.511	1263.650
30.994	12.972	1650.439	1263.148
32.009	12.969	1649.471	1262.272
33.023	13.063	1647.838	1261.631
34.038	13.125	1647.442	1261.688
35.053	13.128	1646.182	1260.637
36.067	13.013	1645.229	1258.913
37.082	13.042	1643.844	1257.966
38.096	13.024	1642.524	1256.709
39.111	13.071	1642.229	1256.727
40.126	13.052	1641.520	1255.928
41.140	13.026	1640.509	1254.846
42.155	12.878	1639.076	1252.520
43.169	12.876	1637.431	1251.131
44.184	12.793	1636.507	1249.686
45.199	12.831	1635.567	1249.146
46.213	12.790	1634.253	1247.719
47.228	12.912	1632.544	1247.228
48.242	12.905	1631.544	1246.305
49.257	12.955	1630.996	1246.151
50.271	12.980	1629.466	1245.061
51.286	12.863	1628.853	1243.597
52.301	12.871	1627.031	1242.162
53.315	12.922	1625.861	1241.538
54.330	12.850	1624.396	1239.772
55.344	12.841	1622.544	1238.178
56.359	12.770	1620.912	1236.294
57.374	12.775	1620.118	1235.614
58.388	12.897	1618.664	1235.313
59.403	12.819	1617.250	1233.541
60.417	12.767	1615.914	1232.021
61.432	12.712	1615.187	1230.946
62.447	12.703	1614.160	1229.991
63.461	12.682	1612.618	1228.544
64.476	12.600	1612.038	1227.386
65.490	12.712	1610.113	1226.645
66.505	12.666	1609.529	1225.748
67.520	12.676	1608.048	1224.587
68.534	12.638	1607.652	1223.893
69.549	12.734	1605.907	1223.169
70.563	12.663	1605.469	1222.200
71.578	12.699	1603.838	1221.117
72.593	12.631	1603.182	1220.005
73.607	12.607	1601.705	1218.600
74.622	12.655	1600.019	1217.561
75.636	12.520	1600.063	1216.486
76.651	12.483	1599.572	1215.735
77.666	12.543	1598.156	1214.992
78.680	12.595	1597.780	1214.987
79.695	12.644	1596.590	1214.333
80.709	12.628	1595.703	1213.432
81.724	12.670	1595.014	1213.115
82.739	12.819	1593.860	1213.226
83.753	12.779	1593.290	1212.392
84.768	12.758	1592.464	1211.498
85.782	12.885	1591.337	1211.470
86.797	12.922	1590.903	1211.302
87.812	13.010	1589.510	1210.778
88.826	12.950	1588.658	1209.584
89.841	12.848	1587.596	1207.921
90.855	12.912	1586.637	1207.555
91.870	12.925	1585.273	1206.502
92.884	12.954	1584.495	1206.011
93.899	13.028	1583.294	1205.537
94.914	12.927	1582.427	1204.033
95.928	13.013	1580.932	1203.413
96.943	13.106	1579.734	1203.076
97.957	12.998	1578.427	1201.183
98.972	12.871	1577.259	1199.264
99.987	13.021	1575.760	1199.113
101.001	12.957	1573.954	1197.167
102.016	12.984	1572.613	1196.232
103.030	12.895	1571.307	1194.489
104.045	12.966	1570.243	1194.092
105.060	12.977	1568.339	1192.616
106.074	12.985	1567.301	1191.777
107.089	12.802	1565.884	1189.274
108.103	12.890	1563.725	1188.169
109.118	12.769	1562.592	1186.332
110.133	12.703	1560.955	1184.509
111.147	12.622	1560.093	1183.165
112.162	12.741	1558.761	1182.907
113.176	12.690	1557.571	1181.529
114.191	12.800	1556.182	1181.161
115.206	12.779	1555.031	1180.032
116.220	12.813	1553.580	1179.071
117.235	12.838	1552.185	1178.085
118.249	12.711	1551.308	1176.408
119.264	12.790	1549.446	1175.457
120.279	12.765	1548.363	1174.355
121.293	12.773	1546.595	1172.965
122.308	12.785	1544.781	1171.567
123.322	12.776	1543.586	1170.493
124.337	12.706	1542.039	1168.722
125.352	12.615	1541.443	1167.525
126.366	12.696	1539.638	1166.624
127.381	12.844	1538.349	1166.596
128.395	12.727	1537.863	1165.295
129.410	12.831	1536.224	1164.681
130.424	12.744	1534.975	1163.016
131.439	12.754	1533.794	1162.090
132.454	12.818	1532.735	1161.638
133.468	12.819	1531.313	1160.467
134.483	12.811	1530.032	1159.336
135.497	12.831	1528.429	1158.159
136.512	12.931	1527.019	1157.686
137.527	12.874	1525.481	1156.019
138.541	12.851	1524.795	1155.239
139.556	12.838	1523.424	1154.005
140.570	12.879	1521.481	1152.721
141.585	12.966	1520.175	1152.238
142.600	13.006	1519.237	1151.700
143.614	13.090	1517.711	1151.029
144.629	13.116	1517.064	1150.615
145.643	13.082	1515.480	1149.078
146.658	13.174	1513.951	1148.457
147.673	13.139	1512.299	1146.858
148.687	13.093	1511.329	1145.704
149.702	12.963	1509.707	1143.467
150.716	13.044	1507.681	1142.396
151.731	13.038	1506.780	1141.571
152.746	13.017	1505.295	1140.197
153.760	13.037	1503.873	1139.157
154.775	13.021	1502.933	1138.234
155.789	13.129	1501.640	1137.900
156.804	13.202	1500.169	1137.189
157.819	13.091	1499.488	1135.809
158.833	13.106	1498.272	1134.888
159.848	13.218	1497.022	1134.607
160.862	13.371	1495.801	1134.634
161.877	13.312	1494.810	1133.378
162.892	13.209	1493.702	1131.731
163.906	13.110	1492.095	1129.735
164.921	13.054	1491.021	1128.443
165.935	13.055	1490.050	1127.613
166.950	13.080	1489.449	1127.227
167.964	13.221	1487.484	1126.603
168.979	13.147	1486.799	1125.481
169.994	13.177	1486.313	1125.220
171.008	13.272	1484.649	1124.507
172.023	13.240	1483.833	1123.566
173.037	13.266	1482.533	1122.662
174.052	13.309	1481.394	1121.995
175.067	13.346	1480.830	1121.717
176.081	13.298	1479.129	1120.001
177.096	13.200	1478.122	1118.479
178.110	13.233	1476.668	1117.499
179.125	13.181	1475.868	1116.450
180.140	13.298	1474.713	1116.264
181.154	13.335	1473.630	1115.595
182.169	13.267	1472.591	1114.251
183.183	13.274	1471.553	1113.416
184.198	13.323	1470.081	1112.534
185.213	13.412	1469.518	1112.604
186.227	13.469	1468.376	1112.024
187.242	13.421	1467.054	1110.607
188.256	13.365	1466.167	1109.460
189.271	13.489	1465.429	1109.636
190.286	13.605	1464.100	1109.306
191.300	13.423	1463.747	1107.721
192.315	13.281	1462.070	1105.408
193.329	13.200	1460.220	1103.369
194.344	13.160	1459.718	1102.621
195.359	13.222	1458.555	1102.064
196.373	13.371	1457.416	1102.098
197.388	13.387	1456.358	1101.303
198.402	13.465	1455.611	1101.159
199.417	13.558	1454.451	1100.806
200.432	13.624	1453.690	1100.568
201.446	13.565	1452.985	1099.549
202.461	13.777	1451.536	1099.761
203.475	13.722	1450.393	1098.430
204.490	13.735	1449.294	1097.589
205.504	13.730	1448.434	1096.806
206.519	13.711	1447.092	1095.565
207.534	13.617	1445.954	1093.985
208.548	13.678	1445.114	1093.658
209.563	13.696	1443.808	1092.690
210.577	13.669	1443.115	1091.892
211.592	13.676	1442.071	1091.051
212.607	13.658	1441.636	1090.510
213.621	13.789	1440.868	1090.691
214.636	13.760	1440.265	1089.947
215.650	13.813	1438.758	1089.061
216.665	13.806	1438.103	1088.420
217.680	13.793	1437.354	1087.672
218.694	13.868	1436.638	1087.523
219.709	13.931	1435.870	1087.263
220.723	13.986	1434.715	1086.649
221.738	13.922	1433.850	1085.480
222.753	13.924	1432.900	1084.680
223.767	13.938	1431.861	1083.887
224.782	14.005	1430.798	1083.425
225.796	14.020	1429.824	1082.690
226.811	14.073	1429.544	1082.726
227.826	14.039	1428.977	1081.981
228.840	14.043	1427.670	1080.921
229.855	13.988	1426.835	1079.834
230.869	14.058	1425.383	1079.094
231.884	13.951	1424.675	1077.765
232.899	13.929	1423.602	1076.716
233.913	13.971	1422.263	1075.882
234.928	13.946	1421.148	1074.782
235.942	13.908	1419.797	1073.422
236.957	13.831	1419.212	1072.382
237.972	13.957	1417.711	1071.967
238.986	14.068	1415.907	1071.227
240.001	13.945	1415.726	1070.200
241.015	13.985	1414.361	1069.331
242.030	14.045	1413.097	1068.669
243.045	13.953	1412.751	1067.723
244.059	14.135	1411.529	1067.873
245.074	14.039	1411.125	1066.855
246.088	14.073	1410.351	1066.394
247.103	14.166	1409.311	1066.106
248.117	14.130	1408.505	1065.175
249.132	14.214	1407.780	1065.068
250.147	14.302	1407.202	1065.102
251.161	14.357	1406.485	1064.812
252.176	14.471	1405.816	1064.940
253.190	14.445	1405.084	1064.126
254.205	14.492	1404.476	1063.871
255.220	14.555	1403.515	1063.454
256.234	14.612	1402.725	1063.119
257.249	14.589	1401.609	1062.033
258.263	14.599	1400.752	1061.358
259.278	14.546	1400.337	1060.609
260.293	14.569	1399.396	1059.951
261.307	14.650	1398.482	1059.681
262.322	14.626	1397.916	1059.003
263.336	14.651	1396.895	1058.294
264.351	14.710	1396.036	1057.924
265.366	14.713	1394.779	1056.895
266.380	14.775	1393.458	1056.195
267.395	14.811	1392.572	1055.658
268.409	14.802	1391.943	1055.031
269.424	14.700	1391.365	1053.852
270.439	14.781	1390.119	1053.328
271.453	14.649	1389.379	1051.844
272.468	14.652	1388.582	1051.166
273.482	14.593	1388.198	1050.409
274.497	14.632	1387.008	1049.662
275.512	14.670	1385.869	1048.943
276.526	14.699	1385.195	1048.524
277.541	14.706	1384.207	1047.730
278.555	14.815	1382.717	1047.191
279.570	14.838	1381.973	1046.678
280.585	14.845	1381.380	1046.182
281.599	14.845	1380.720	1045.591
282.614	14.920	1379.723	1045.207
283.628	14.800	1378.862	1043.717
284.643	14.841	1377.804	1043.077
285.657	14.850	1376.594	1042.127
286.672	14.937	1375.299	1041.596
287.687	14.792	1374.808	1040.230
288.701	14.936	1373.481	1040.030
289.716	14.888	1372.915	1039.209
290.730	14.908	1372.081	1038.611
291.745	14.968	1371.019	1038.086
292.760	14.882	1370.206	1036.844
293.774	14.982	1369.114	1036.545
294.789	15.005	1368.346	1036.019
295.803	15.048	1367.721	1035.716
296.818	15.168	1366.241	1035.246
297.833	15.017	1365.639	1033.766
298.847	15.035	1364.679	1033.059
299.862	15.020	1363.385	1031.898
300.876	15.103	1362.360	1031.538
301.891	15.115	1361.276	1030.704
302.906	15.067	1360.863	1030.004
303.920	15.222	1360.118	1030.303
304.935	15.206	1359.379	1029.553
305.949	15.308	1358.927	1029.747
306.964	15.217	1358.274	1028.598
307.979	15.367	1357.026	1028.487
308.993	15.403	1355.684	1027.598
310.008	15.294	1355.395	1026.618
311.022	15.247	1354.333	1025.436
312.037	15.249	1353.499	1024.724
313.052	15.285	1352.808	1024.335
314.066	15.382	1351.147	1023.575
315.081	15.346	1350.247	1022.584
316.095	15.252	1349.332	1021.229
317.110	15.228	1348.700	1020.516
318.125	15.219	1347.505	1019.462
319.139	15.145	1346.834	1018.415
320.154	15.234	1345.717	1018.024
321.168	15.251	1344.437	1017.064
322.183	15.297	1343.252	1016.362
323.197	15.278	1342.616	1015.672
324.212	15.351	1341.789	1015.402
325.227	15.305	1341.287	1014.649
326.241	15.379	1340.308	1014.271
327.256	15.347	1339.156	1013.114
328.270	15.326	1338.614	1012.490
329.285	15.381	1337.542	1011.921
330.300	15.366	1336.819	1011.190
331.314	15.368	1335.700	1010.269
332.329	15.394	1335.244	1009.988
333.343	15.400	1334.171	1009.123
334.358	15.440	1333.252	1008.582
335.373	15.523	1332.149	1008.154
336.387	15.518	1331.643	1007.654
337.402	15.548	1331.117	1007.345
338.416	15.608	1330.254	1006.965
339.431	15.755	1329.281	1007.021
340.446	15.655	1328.963	1006.091
341.460	15.617	1328.367	1005.323
342.475	15.728	1327.224	1005.033
343.489	15.818	1326.235	1004.730
344.504	15.776	1325.727	1004.006
345.519	15.815	1324.787	1003.439
346.533	15.813	1323.916	1002.676
347.548	15.886	1322.681	1002.090
348.562	15.859	1321.891	1001.243
349.577	15.942	1321.100	1001.048
350.592	15.922	1320.467	1000.360
351.606	15.931	1319.392	999.508
352.621	15.760	1317.924	997.297
353.635	15.841	1317.037	997.019
354.650	15.760	1316.503	996.043
355.665	15.688	1315.844	995.033
356.679	15.865	1314.116	994.684
357.694	15.829	1313.340	993.795
358.708	15.791	1312.148	992.581
359.723	15.879	1311.375	992.425
360.738	15.974	1309.876	991.766
361.752	15.924	1309.362	990.991
362.767	15.933	1308.340	990.182
363.781	15.850	1307.580	989.033
364.796	16.020	1306.569	989.178
365.810	15.979	1305.823	988.289
366.825	16.050	1305.308	988.226
367.840	16.147	1304.641	988.201
368.854	16.043	1304.092	987.089
369.869	16.161	1303.379	987.154
370.883	16.225	1302.800	986.999
371.898	16.137	1301.971	985.771
372.913	16.092	1301.490	985.057
373.927	16.159	1300.042	984.265
374.942	16.154	1299.255	983.553
375.956	16.282	1298.586	983.706
376.971	16.290	1297.760	983.041
377.986	16.324	1297.074	982.632
379.000	16.310	1295.920	981.589
380.015	16.286	1295.366	980.942
381.029	16.384	1294.934	981.097
382.044	16.370	1294.099	980.295
383.059	16.370	1293.687	979.900
384.073	16.432	1292.853	979.540
385.088	16.419	1292.144	978.838
386.102	16.589	1291.390	979.167
387.117	16.406	1291.096	977.795
388.132	16.409	1290.033	976.921
389.146	16.285	1289.418	975.655
390.161	16.412	1288.177	975.363
391.175	16.381	1287.264	974.408
392.190	16.430	1286.513	974.033
393.205	16.424	1285.967	973.498
394.219	16.447	1284.943	972.769
395.234	16.579	1283.121	972.062
396.248	16.559	1282.345	971.275
397.263	16.487	1280.910	969.688
398.278	16.537	1279.264	968.642
399.292	16.526	1278.444	967.875
400.307	16.560	1277.092	966.957
401.321	16.372	1276.864	965.624
402.336	16.352	1275.767	964.600
403.350	16.401	1274.476	963.818
404.365	16.432	1274.031	963.570
405.380	16.498	1273.015	963.090
406.394	16.531	1272.081	962.489
407.409	16.612	1271.246	962.233
408.423	16.522	1271.036	961.478
409.438	16.658	1270.334	961.631
410.453	16.734	1269.276	961.177
411.467	16.740	1268.696	960.690
412.482	16.777	1268.273	960.495
413.496	16.796	1267.437	959.881
414.511	16.844	1266.684	959.500
415.526	16.750	1266.275	958.570
416.540	16.923	1265.332	958.752
417.555	16.910	1264.733	958.138
418.569	16.932	1264.038	957.654
419.584	16.985	1263.615	957.546
420.599	16.926	1263.076	956.719
421.613	93.272	1349.219	1459.463
422.628	90.844	1361.720	1459.608
