DTS Sentinel unit serial number:	SN413079Multiplexer serial number:	ORYXHardware model number:	OX4-SRSoftware version number:	ORYX F/W v4.00 Oryx Data Collector v3.7.2.0data status	okinstallation	princeton_trtdifferential loss correction	single-endedforward channel	channel 4reverse channel	N/Adate	2019/09/17time	22:53:34forward acquisition time	60.00reverse acquisition time	0.00gamma	496.2192k internal	0.2330k external	0.2330temperature offset calibration	0.9996default loss term (dB/km)	0.3790temperature slope calibration	1.0000multiplexer offset coefficient	1.0000multiplexer slope coefficient	1.0000fibre end	0.00T internal ref (°C)	24.87T ext. ref 1 (°C)	0.17T ext. ref 2 (°C)	18.01length (m)	temperature (°C)	Stokes	anti-Stokes-747.200	-53.040	0.247	-0.114
-746.185	-71.407	-0.371	0.140
-745.171	800.000	0.044	0.141
-744.156	800.000	-0.009	0.035
-743.142	-53.854	-0.119	0.055
-742.127	-115.408	0.054	0.010
-741.112	44.980	0.242	0.225
-740.098	-106.105	-0.119	0.027
-739.083	6.479	0.145	0.109
-738.069	86.575	-0.101	0.112
-737.054	-200.000	0.013	0.151
-736.039	-0.278	-0.188	-0.135
-735.025	100.134	-0.244	-0.285
-734.010	-200.000	-0.073	-0.356
-732.996	83.225	-0.261	-0.285
-731.981	800.000	0.026	-0.096
-730.966	-31.614	-0.370	-0.209
-729.952	-200.000	-0.036	-0.201
-728.937	-143.236	-0.218	0.021
-727.923	-117.980	0.241	-0.043
-726.908	7.777	-0.055	-0.042
-725.894	13.679	-0.151	-0.118
-724.879	-3.427	-0.111	0.078
-723.864	-188.631	0.145	-0.002
-722.850	-96.590	-0.270	-0.072
-721.835	-51.466	-0.131	0.061
-720.821	-80.711	-0.047	-0.016
-719.806	-82.870	0.243	0.079
-718.791	-200.000	-0.020	-0.339
-717.777	800.000	0.030	0.116
-716.762	-200.000	0.015	-0.085
-715.748	477.466	-0.049	-0.112
-714.733	108.063	-0.453	0.543
-713.718	-55.605	0.055	0.025
-712.704	-200.000	-0.016	-0.172
-711.689	-100.310	-0.064	-0.016
-710.675	344.928	0.076	0.150
-709.660	800.000	0.049	0.193
-708.645	-160.907	-0.145	-0.008
-707.631	-182.590	-0.128	0.002
-706.616	-200.000	0.003	0.168
-705.602	800.000	-0.093	-0.323
-704.587	800.000	0.064	0.204
-703.572	71.723	0.108	-0.113
-702.558	672.622	-0.045	-0.118
-701.543	383.456	-0.057	-0.117
-700.529	-96.667	0.225	0.059
-699.514	-25.605	0.333	-0.197
-698.499	-60.179	-0.365	0.157
-697.485	51.098	0.065	0.062
-696.470	-150.676	0.258	0.020
-695.456	-21.551	-0.299	-0.183
-694.441	-200.000	-0.013	0.245
-693.426	-39.967	0.122	-0.064
-692.412	-73.000	-0.266	-0.098
-691.397	201.016	-0.095	0.147
-690.383	-200.000	0.004	-0.556
-689.368	91.792	0.169	-0.191
-688.354	-154.150	-0.022	0.001
-687.339	213.820	0.220	-0.350
-686.324	591.215	-0.113	-0.280
-685.310	-193.247	-0.097	0.001
-684.295	-29.341	0.170	0.098
-683.281	646.751	0.193	0.495
-682.266	-148.159	0.293	0.024
-681.251	-23.201	-0.145	-0.087
-680.237	-200.000	0.005	0.024
-679.222	-128.228	-0.076	-0.011
-678.208	88.245	0.205	-0.229
-677.193	-200.000	-0.004	-0.307
-676.178	-113.179	-0.402	0.079
-675.164	30.821	0.105	0.091
-674.149	-89.122	-0.469	0.139
-673.135	-120.539	-0.268	-0.046
-672.120	800.000	0.081	-0.248
-671.105	389.950	-0.054	0.113
-670.091	-200.000	0.440	0.000
-669.076	98.496	0.096	0.112
-668.062	-101.005	-0.294	0.072
-667.047	-16.628	-0.110	-0.070
-666.032	-161.687	0.087	0.004
-665.018	-200.000	0.105	0.000
-664.003	424.102	0.059	0.126
-662.989	228.388	-0.117	-0.191
-661.974	-171.131	-0.297	0.010
-660.959	79.552	-0.094	-0.101
-659.945	256.628	-0.080	-0.138
-658.930	-82.230	0.191	0.063
-657.916	-82.895	-0.244	0.079
-656.901	-187.262	-0.329	-0.004
-655.886	-48.385	0.188	0.091
-654.872	-38.104	-0.153	-0.082
-653.857	-21.004	0.179	-0.110
-652.843	-115.632	-0.298	-0.056
-651.828	227.696	0.141	0.230
-650.814	366.345	-0.102	0.206
-649.799	-35.738	0.335	-0.182
-648.784	366.430	-0.050	0.102
-647.770	-174.092	-0.228	0.007
-646.755	362.563	0.080	-0.160
-645.741	-115.444	0.367	-0.069
-644.726	-82.274	-0.137	0.045
-643.711	-200.000	-0.040	-0.247
-642.697	373.216	0.139	0.284
-641.682	800.000	-0.033	-0.134
-640.668	800.000	-0.062	-0.255
-639.653	-55.619	-0.288	-0.129
-638.638	125.806	0.096	0.121
-637.624	800.000	0.140	0.479
-636.609	-66.597	-0.195	0.077
-635.595	49.554	0.024	-0.023
-634.580	621.920	0.099	-0.249
-633.565	40.273	0.160	0.145
-632.551	28.060	0.181	-0.153
-631.536	265.125	0.097	-0.169
-630.522	37.451	0.192	0.170
-629.507	772.969	0.040	-0.110
-628.492	-200.000	0.012	-0.077
-627.478	-96.658	-0.049	0.013
-626.463	105.906	-0.061	-0.073
-625.449	225.942	0.082	0.134
-624.434	207.776	0.126	0.197
-623.419	-200.000	-0.025	-0.372
-622.405	-134.390	-0.096	-0.012
-621.390	-48.550	0.178	-0.086
-620.376	51.098	-0.103	0.098
-619.361	-200.000	0.012	-0.385
-618.346	-28.231	0.176	-0.102
-617.332	117.427	0.232	0.286
-616.317	172.049	0.032	-0.046
-615.303	-57.124	-0.159	0.070
-614.288	-115.015	0.180	0.034
-613.273	518.533	-0.056	-0.132
-612.259	228.822	-0.080	0.130
-611.244	245.852	0.090	-0.151
-610.230	3.822	-0.342	-0.251
-609.215	47.673	0.238	-0.222
-608.201	-200.000	0.107	-0.485
-607.186	-200.000	-0.005	-0.286
-606.171	4.865	-0.320	-0.235
-605.157	88.419	-0.114	-0.127
-604.142	-200.000	0.001	-0.014
-603.128	6.839	-0.127	0.095
-602.113	-200.000	0.015	0.167
-601.098	117.797	-0.148	0.183
-600.084	165.968	0.184	-0.261
-599.069	-43.468	-0.293	0.148
-598.055	-200.000	-0.278	-0.001
-597.040	800.000	-0.095	-0.335
-596.025	132.522	0.216	0.279
-595.011	-22.668	0.315	-0.190
-593.996	-27.438	-0.128	-0.075
-592.982	800.000	0.118	0.382
-591.967	285.431	0.036	0.064
-590.952	-61.116	-0.245	-0.103
-589.938	-200.000	0.037	-0.341
-588.923	-85.923	0.141	-0.044
-587.909	800.000	-0.067	0.211
-586.894	800.000	-0.088	0.384
-585.879	-141.884	-0.266	0.027
-584.865	392.786	-0.074	-0.154
-583.850	672.538	0.122	-0.317
-582.836	-13.037	0.226	0.147
-581.821	1.378	-0.319	0.229
-580.806	188.289	-0.119	0.177
-579.792	-98.858	0.270	-0.069
-578.777	3.674	-0.159	0.116
-577.763	-200.000	0.053	0.282
-576.748	-140.319	-0.435	0.046
-575.733	-50.825	0.190	-0.089
-574.719	800.000	0.117	0.333
-573.704	-156.006	-0.286	-0.018
-572.690	52.886	0.212	-0.203
-571.675	-24.354	-0.172	-0.103
-570.661	-33.742	0.245	-0.135
-569.646	-200.000	-0.000	-0.022
-568.631	-149.437	-0.232	-0.018
-567.617	-200.000	0.033	0.156
-566.602	800.000	0.088	0.267
-565.588	-131.098	-0.215	-0.029
-564.573	145.356	-0.039	0.052
-563.558	-200.000	-0.044	-0.407
-562.544	800.000	-0.083	-0.231
-561.529	-45.903	0.124	-0.061
-560.515	38.452	-0.025	0.023
-559.500	-141.450	-0.142	-0.014
-558.485	-200.000	-0.020	-0.132
-557.471	-200.000	0.007	-0.110
-556.456	-125.641	-0.264	-0.040
-555.442	732.743	-0.072	0.193
-554.427	-94.103	0.074	0.020
-553.412	-107.917	-0.398	0.087
-552.398	118.787	-0.182	-0.224
-551.383	-200.000	-0.001	-0.168
-550.369	-58.247	0.168	-0.073
-549.354	-19.122	0.035	-0.022
-548.339	800.000	0.012	0.041
-547.325	420.867	-0.044	0.094
-546.310	260.712	-0.012	0.021
-545.296	-69.479	-0.201	-0.077
-544.281	84.624	-0.092	-0.101
-543.266	727.272	-0.058	0.155
-542.252	-114.866	-0.248	0.047
-541.237	-105.624	0.316	-0.071
-540.223	397.271	0.090	-0.189
-539.208	64.761	-0.071	-0.071
-538.193	-90.105	-0.168	-0.049
-537.179	230.120	-0.178	-0.290
-536.164	-115.642	-0.278	-0.052
-535.150	405.084	0.042	0.088
-534.135	52.830	-0.098	0.093
-533.121	173.689	0.111	0.159
-532.106	-58.789	-0.209	-0.090
-531.091	800.000	-0.043	0.152
-530.077	3.290	0.275	0.200
-529.062	235.333	0.115	0.189
-528.048	-85.968	-0.049	0.015
-527.033	361.647	0.156	0.312
-526.018	16.181	0.086	0.068
-525.004	-200.000	0.039	0.253
-523.989	23.759	-0.137	-0.112
-522.975	41.224	-0.124	0.112
-521.960	800.000	-0.052	0.179
-520.945	622.548	-0.092	0.232
-519.931	11.559	-0.096	0.074
-518.916	-200.000	0.009	0.081
-517.902	93.522	-0.186	0.211
-516.887	-24.909	0.239	-0.142
-515.872	212.641	-0.028	0.044
-514.858	-200.000	-0.041	-0.398
-513.843	-74.081	-0.104	0.038
-512.829	-114.323	0.215	0.041
-511.814	800.000	0.106	-0.372
-510.799	-114.180	-0.162	-0.031
-509.785	-60.586	-0.327	-0.138
-508.770	-200.000	0.017	0.096
-507.756	-74.934	-0.216	-0.077
-506.741	368.142	0.054	0.108
-505.726	-137.826	0.178	0.020
-504.712	-50.885	-0.147	0.069
-503.697	257.951	0.059	-0.101
-502.683	-200.000	-0.012	-0.071
-501.668	-125.818	0.251	-0.038
-500.653	41.913	0.152	0.137
-499.639	800.000	-0.126	0.349
-498.624	4.316	0.075	0.055
-497.610	-57.389	-0.220	0.096
-496.595	229.633	0.177	-0.288
-495.581	-200.000	-0.023	-0.239
-494.566	-150.122	0.368	-0.028
-493.551	571.989	0.050	0.121
-492.537	-162.336	-0.356	-0.018
-491.522	-40.325	0.136	0.071
-490.508	91.904	0.217	-0.244
-489.493	-52.020	-0.402	-0.186
-488.478	8.513	0.284	0.213
-487.464	-200.000	0.023	0.256
-486.449	-102.937	-0.198	0.047
-485.435	-0.355	-0.142	-0.100
-484.420	-112.683	-0.192	0.038
-483.405	144.196	0.181	-0.241
-482.391	-157.924	-0.289	0.017
-481.376	-138.442	-0.111	0.012
-480.362	-200.000	-0.019	-0.376
-479.347	72.094	-0.232	-0.240
-478.332	44.206	0.180	-0.165
-477.318	267.752	-0.035	0.060
-476.303	-102.829	0.266	0.063
-475.289	-60.195	-0.296	-0.126
-474.274	-113.604	-0.036	0.007
-473.259	-26.962	0.248	-0.144
-472.245	-200.000	-0.005	0.120
-471.230	-25.623	0.372	-0.219
-470.216	172.205	-0.264	-0.378
-469.201	-200.000	0.045	-0.257
-468.186	104.551	-0.226	0.265
-467.172	339.929	0.104	0.202
-466.157	292.873	-0.007	0.012
-465.143	2.717	-0.227	-0.164
-464.128	45.850	0.041	0.037
-463.113	-200.000	-0.000	0.027
-462.099	-20.455	0.187	-0.114
-461.084	-50.253	-0.216	-0.102
-460.070	355.428	0.151	0.298
-459.055	-163.025	-0.169	0.008
-458.040	454.273	-0.036	-0.080
-457.026	800.000	0.111	-0.346
-456.011	377.905	0.074	0.151
-454.997	-38.635	-0.147	-0.078
-453.982	-15.238	-0.235	0.150
-452.968	-200.000	-0.055	0.273
-451.953	-198.326	0.263	-0.002
-450.938	-31.424	0.013	-0.007
-449.924	105.981	-0.245	-0.288
-448.909	-200.000	0.010	0.326
-447.895	-128.642	0.567	-0.080
-446.880	-113.129	-0.443	-0.087
-445.865	800.000	0.081	0.284
-444.851	-200.000	0.047	-0.212
-443.836	800.000	0.045	0.161
-442.822	-200.000	0.006	0.165
-441.807	-43.351	-0.315	0.158
-440.792	800.000	0.050	0.155
-439.778	-54.832	-0.126	0.057
-438.763	34.227	-0.099	0.086
-437.749	204.893	-0.112	-0.172
-436.734	-200.000	0.051	0.254
-435.719	-164.967	-0.097	-0.004
-434.705	-15.480	0.098	0.062
-433.690	-34.454	0.110	0.060
-432.676	131.645	0.187	-0.239
-431.661	-136.760	-0.112	0.013
-430.646	418.316	-0.037	-0.078
-429.632	367.897	-0.114	-0.229
-428.617	-105.327	0.330	-0.075
-427.603	-46.660	0.192	-0.093
-426.588	42.017	-0.101	0.091
-425.573	-39.706	-0.155	-0.081
-424.559	-3.598	-0.116	0.080
-423.544	61.863	0.058	0.057
-422.530	160.649	0.171	0.237
-421.515	-96.920	-0.299	0.078
-420.500	-200.000	-0.024	-0.180
-419.486	-148.002	-0.056	-0.005
-418.471	-139.761	0.043	-0.005
-417.457	-200.000	-0.041	0.205
-416.442	-87.123	0.392	-0.118
-415.428	-118.532	-0.034	-0.006
-414.413	150.627	-0.305	0.412
-413.398	460.123	-0.063	0.140
-412.384	276.004	0.125	-0.220
-411.369	800.000	0.111	0.405
-410.355	44.981	0.121	0.111
-409.340	-62.286	0.310	0.128
-408.325	283.195	-0.177	-0.315
-407.311	505.109	-0.121	0.280
-406.296	-75.221	0.246	0.087
-405.282	-46.753	0.075	0.037
-404.267	-23.357	0.262	0.157
-403.252	149.350	0.172	0.231
-402.238	-40.508	-0.232	0.120
-401.223	-89.069	0.261	0.077
-400.209	92.219	-0.219	0.245
-399.194	344.601	-0.109	0.212
-398.179	7.637	0.019	0.014
-397.165	240.361	0.319	0.529
-396.150	-200.000	-0.007	-0.090
-395.136	709.292	0.150	-0.394
-394.121	-89.759	0.173	-0.050
-393.106	-45.041	0.163	0.081
-392.092	-71.581	-0.310	-0.115
-391.077	-176.591	0.210	-0.005
-390.063	-147.198	0.251	0.021
-389.048	19.955	-0.386	-0.309
-388.033	-200.000	-0.027	0.219
-387.019	-24.734	0.128	0.076
-386.004	-115.362	-0.517	-0.097
-384.990	-29.643	0.110	-0.062
-383.975	547.677	-0.183	0.436
-382.960	-77.623	0.369	0.127
-381.946	-16.078	0.376	-0.237
-380.931	-129.531	0.211	0.029
-379.917	-200.000	-0.008	0.136
-378.902	-200.000	0.003	-0.357
-377.888	260.661	-0.107	-0.184
-376.873	-29.062	-0.247	0.140
-375.858	-28.141	0.188	-0.108
-374.844	-200.000	0.092	0.405
-373.829	-62.794	-0.279	-0.115
-372.815	-167.143	-0.258	-0.010
-371.800	800.000	-0.157	0.465
-370.785	50.806	0.358	0.337
-369.771	800.000	-0.028	0.084
-368.756	-157.141	-0.216	0.013
-367.742	-17.783	0.215	0.134
-366.727	-127.302	-0.167	-0.024
-365.712	-61.780	0.211	-0.088
-364.698	55.578	0.118	-0.113
-363.683	453.274	0.091	0.200
-362.669	-200.000	0.003	-0.074
-361.654	-95.150	-0.407	0.109
-360.639	-95.324	-0.142	-0.038
-359.625	-146.818	0.142	0.012
-358.610	-200.000	0.008	0.038
-357.596	50.175	0.276	0.258
-356.581	301.157	0.040	-0.074
-355.566	158.392	0.183	0.251
-354.552	800.000	-0.121	-0.491
-353.537	-103.520	0.137	-0.032
-352.523	-122.342	0.189	-0.031
-351.508	-154.888	0.417	-0.027
-350.493	9.775	-0.329	-0.247
-349.479	-200.000	-0.001	0.126
-348.464	-40.806	-0.219	0.112
-347.450	76.863	-0.193	-0.203
-346.435	8.784	-0.315	-0.235
-345.420	289.488	0.133	-0.239
-344.406	-78.272	-0.288	0.098
-343.391	800.000	0.070	0.236
-342.377	219.724	0.210	0.334
-341.362	-70.128	-0.099	-0.037
-340.348	-200.000	0.011	0.107
-339.333	-79.586	0.115	-0.038
-338.318	-200.000	-0.054	0.313
-337.304	-29.648	-0.093	0.052
-336.289	309.519	0.189	-0.350
-335.275	92.345	-0.136	0.152
-334.260	-60.465	-0.217	0.091
-333.245	-200.000	-0.014	-0.125
-332.231	130.599	-0.025	0.032
-331.216	521.434	0.053	0.123
-330.202	-124.882	-0.069	0.010
-329.187	94.231	0.108	-0.122
-328.172	-4.474	0.112	0.076
-327.158	-200.000	0.026	-0.151
-326.143	-200.000	-0.053	0.267
-325.129	-172.568	0.270	-0.008
-324.114	-136.176	0.236	0.027
-323.099	-123.541	0.087	-0.014
-322.085	800.000	0.070	0.254
-321.070	800.000	0.055	-0.237
-320.056	365.190	0.210	0.418
-319.041	104.242	-0.012	-0.014
-318.026	388.136	-0.226	-0.464
-317.012	-89.150	0.229	-0.067
-315.997	497.172	-0.089	-0.203
-314.983	-110.037	0.267	-0.055
-313.968	-200.000	0.058	0.337
-312.953	-106.874	0.225	0.049
-311.939	-124.115	-0.057	-0.009
-310.924	43.740	0.229	0.208
-309.910	285.046	0.162	0.289
-308.895	-56.640	-0.253	0.111
-307.880	32.329	0.466	-0.398
-306.866	-50.796	0.368	-0.171
-305.851	-35.746	-0.192	-0.103
-304.837	-200.000	0.063	-0.321
-303.822	-200.000	-0.031	0.195
-302.807	-120.460	0.309	-0.052
-301.793	-103.841	-0.292	0.068
-300.778	174.658	-0.154	0.220
-299.764	20.025	0.424	0.339
-298.749	5.365	0.149	-0.109
-297.735	-113.776	-0.252	0.049
-296.720	-106.991	-0.153	-0.033
-295.705	-200.000	0.009	-0.047
-294.691	-200.000	0.084	-0.526
-293.676	-200.000	-0.026	0.146
-292.662	800.000	0.042	0.134
-291.647	405.896	0.078	0.163
-290.632	-200.000	0.025	0.330
-289.618	26.536	-0.108	0.089
-288.603	-101.633	0.297	-0.071
-287.589	102.846	0.241	0.279
-286.574	522.637	-0.031	-0.072
-285.559	-200.000	-0.034	-0.171
-284.545	-14.788	-0.131	-0.083
-283.530	-152.743	0.308	-0.022
-282.516	-92.683	0.267	0.074
-281.501	800.000	-0.033	-0.099
-280.486	-44.354	-0.274	0.135
-279.472	-123.506	0.120	0.019
-278.457	-191.536	-0.225	0.002
-277.443	800.000	-0.037	-0.111
-276.428	-137.818	-0.510	-0.056
-275.413	800.000	-0.080	0.230
-274.399	-67.995	0.071	-0.028
-273.384	-154.375	0.049	0.003
-272.370	10.181	-0.131	-0.099
-271.355	-93.626	-0.250	-0.068
-270.340	-40.144	0.209	-0.107
-269.326	289.866	-0.049	-0.089
-268.311	607.314	-0.056	0.138
-267.297	213.065	-0.298	0.465
-266.282	-141.668	0.491	0.049
-265.267	-9.005	-0.190	0.126
-264.253	-200.000	0.054	-0.345
-263.238	800.000	-0.101	-0.314
-262.224	-7.048	0.217	0.146
-261.209	-179.193	0.221	0.005
-260.195	-51.247	0.131	-0.061
-259.180	-47.487	0.131	-0.063
-258.165	-97.027	0.144	-0.037
-257.151	-200.000	0.081	-0.519
-256.136	116.548	-0.173	0.210
-255.122	120.687	-0.166	0.204
-254.107	430.808	0.068	0.146
-253.092	135.642	0.234	0.301
-252.078	-49.047	0.063	0.030
-251.063	-200.000	-0.038	-0.351
-250.049	100.725	0.030	0.034
-249.034	-200.000	-0.001	-0.035
-248.019	-33.985	0.140	-0.076
-247.005	-200.000	0.033	-0.179
-245.990	-84.378	0.034	-0.011
-244.976	-200.000	0.041	-0.315
-243.961	182.283	-0.070	-0.102
-242.946	-18.733	-0.083	0.051
-241.932	-123.895	-0.221	0.034
-240.917	193.305	-0.199	-0.297
-239.903	800.000	-0.035	-0.100
-238.888	119.097	0.053	0.065
-237.873	-120.049	0.050	0.008
-236.859	800.000	0.092	-0.367
-235.844	-105.684	-0.125	-0.028
-234.830	604.621	-0.057	0.139
-233.815	-200.000	0.011	0.159
-232.800	-37.277	-0.132	0.070
-231.786	-133.268	-0.248	0.031
-230.771	83.752	0.048	-0.051
-229.757	89.535	-0.252	-0.277
-228.742	-34.130	0.253	0.137
-227.727	92.127	-0.245	0.273
-226.713	117.204	0.080	-0.097
-225.698	-200.000	0.017	0.263
-224.684	-140.273	-0.344	0.036
-223.669	-200.000	-0.078	0.462
-222.655	144.511	0.108	0.142
-221.640	25.152	-0.232	-0.190
-220.625	800.000	-0.036	-0.130
-219.611	198.078	0.185	0.279
-218.596	-200.000	0.001	-0.195
-217.582	212.103	0.222	0.345
-216.567	800.000	-0.082	-0.252
-215.552	-51.179	-0.137	-0.063
-214.538	52.761	-0.203	0.192
-213.523	619.494	-0.126	-0.312
-212.509	154.176	-0.083	-0.112
-211.494	-120.934	-0.106	0.018
-210.479	-200.000	0.031	-0.389
-209.465	129.840	0.313	0.394
-208.450	-56.316	0.564	-0.247
-207.436	119.311	-0.198	-0.241
-206.421	800.000	-0.018	-0.058
-205.406	800.000	0.013	0.046
-204.392	319.983	0.032	0.061
-203.377	-200.000	-0.018	0.200
-202.363	74.914	-0.092	-0.096
-201.348	-200.000	0.022	-0.115
-200.333	139.883	0.170	-0.221
-199.319	-200.000	0.011	0.090
-198.304	800.000	-0.055	-0.150
-197.290	544.420	-0.092	-0.217
-196.275	800.000	-0.051	-0.168
-195.260	-106.355	-0.118	0.026
-194.246	259.052	-0.042	-0.072
-193.231	-111.456	0.163	-0.033
-192.217	-200.000	0.022	-0.162
-191.202	-200.000	0.224	-0.001
-190.187	-21.743	0.169	0.101
-189.173	305.351	-0.047	-0.086
-188.158	-103.913	-0.388	0.089
-187.144	0.557	-0.328	0.231
-186.129	800.000	0.035	0.112
-185.114	-200.000	-0.048	-0.364
-184.100	-200.000	0.039	0.211
-183.085	89.490	0.084	0.092
-182.071	-48.661	-0.049	0.023
-181.056	190.561	-0.068	0.100
-180.042	800.000	0.046	-0.134
-179.027	-68.731	-0.153	-0.058
-178.012	18.771	-0.288	-0.227
-176.998	-200.000	-0.019	0.142
-175.983	-137.101	0.152	-0.017
-174.969	160.575	0.043	0.059
-173.954	-36.861	-0.078	-0.041
-172.939	419.243	0.098	-0.206
-171.925	-56.928	0.044	-0.019
-170.910	-13.302	0.190	-0.122
-169.896	800.000	0.047	-0.131
-168.881	-200.000	-0.049	0.229
-167.866	21.960	-0.122	-0.098
-166.852	-39.541	0.162	0.083
-165.837	-49.120	-0.091	0.043
-164.823	-67.443	0.107	-0.041
-163.808	250.537	0.113	0.190
-162.793	800.000	-0.045	0.130
-161.779	-20.464	0.248	0.150
-160.764	-64.014	-0.190	0.076
-159.750	-108.969	-0.184	-0.039
-158.735	-86.374	-0.360	-0.109
-157.720	-200.000	0.011	0.214
-156.706	251.756	-0.113	0.189
-155.691	792.545	0.089	-0.242
-154.677	258.315	0.127	-0.215
-153.662	800.000	0.013	0.041
-152.647	-158.490	0.451	-0.026
-151.633	236.664	0.105	-0.171
-150.618	-200.000	0.026	-0.518
-149.604	800.000	0.139	0.542
-148.589	329.815	-0.055	0.103
-147.574	-131.102	0.348	0.046
-146.560	-200.000	-0.042	-0.230
-145.545	-63.506	0.094	-0.038
-144.531	-200.000	-0.017	0.312
-143.516	327.377	-0.121	0.228
-142.502	800.000	-0.103	0.319
-141.487	55.501	0.289	0.275
-140.472	583.604	-0.161	-0.388
-139.458	-200.000	-0.009	-0.038
-138.443	192.421	-0.125	0.186
-137.429	-100.217	0.071	-0.017
-136.414	458.082	-0.189	-0.413
-135.399	94.948	-0.181	0.203
-134.385	207.846	-0.171	-0.263
-133.370	-100.264	0.367	-0.090
-132.356	-148.716	0.276	-0.022
-131.341	39.228	-0.077	-0.067
-130.326	15.754	-0.164	0.127
-129.312	364.475	0.101	0.199
-128.297	194.136	-0.070	0.104
-127.283	245.405	-0.194	0.320
-126.268	-82.209	0.084	-0.027
-125.253	-200.000	-0.022	0.288
-124.239	13.879	0.111	0.085
-123.224	-117.581	0.356	-0.063
-122.210	-86.674	-0.020	-0.006
-121.195	-200.000	0.008	0.233
-120.180	-137.938	-0.061	-0.007
-119.166	800.000	0.030	-0.115
-118.151	99.601	0.107	-0.121
-117.137	736.664	0.106	0.280
-116.122	30.411	0.092	-0.077
-115.107	-31.707	0.185	-0.102
-114.093	-83.896	-0.134	-0.042
-113.078	-68.422	0.119	0.045
-112.064	-63.556	-0.127	-0.051
-111.049	405.101	0.177	-0.366
-110.034	-142.474	0.289	0.028
-109.020	340.383	-0.151	0.290
-108.005	-200.000	-0.011	0.086
-106.991	379.308	-0.069	-0.138
-105.976	-180.964	-0.195	0.004
-104.962	122.324	-0.103	0.126
-103.947	-88.376	-0.292	-0.086
-102.932	-121.478	0.320	-0.052
-101.918	-78.366	0.111	-0.037
-100.903	-200.000	0.028	-0.156
-99.889	97.207	-0.163	-0.184
-98.874	-148.566	-0.252	-0.020
-97.859	-139.433	-0.340	0.036
-96.845	50.912	0.190	0.177
-95.830	-143.102	-0.102	0.010
-94.816	373.837	0.122	0.244
-93.801	-125.155	-0.197	0.030
-92.786	-200.000	0.066	-0.349
-91.772	800.000	0.093	-0.303
-90.757	30.249	-0.106	0.089
-89.743	-86.531	-0.362	0.109
-88.728	-94.387	-0.126	0.034
-87.713	413.879	0.003	-0.005
-86.699	800.000	0.029	0.107
-85.684	-83.918	0.168	-0.052
-84.670	80.403	0.137	0.145
-83.655	-106.224	-0.080	-0.018
-82.640	-182.606	0.225	-0.004
-81.626	-123.877	-0.187	-0.029
-80.611	-40.257	0.277	0.142
-79.597	-122.386	0.265	-0.042
-78.582	745.176	0.061	0.161
-77.567	800.000	0.023	-0.072
-76.553	301.202	0.082	-0.148
-75.538	29.065	-0.086	0.072
-74.524	800.000	-0.069	0.253
-73.509	2.845	-0.200	0.142
-72.494	-200.000	-0.028	0.172
-71.480	485.500	-0.065	-0.146
-70.465	37.157	0.337	0.293
-69.451	-136.428	0.276	0.031
-68.436	230.802	0.083	-0.134
-67.422	-200.000	-0.021	-0.139
-66.407	24.941	-0.129	-0.105
-65.392	-75.511	0.263	-0.092
-64.378	10.026	-0.153	-0.114
-63.363	800.000	0.027	0.074
-62.349	57.181	-0.021	-0.020
-61.334	73.765	-1.296	-1.331
-60.319	800.000	0.262	0.953
-59.305	237.240	-0.748	-1.215
-58.290	110.163	0.900	1.059
-57.276	302.684	0.676	1.227
-56.261	-200.000	119.960	618.783
-55.246	410.670	1530.847	3181.662
-54.232	146.318	2685.553	3532.882
-53.217	88.108	2299.816	2500.281
-52.203	30.916	2050.520	1721.626
-51.188	26.706	1966.893	1613.936
-50.173	25.376	1951.971	1589.868
-49.159	41.813	2021.263	1795.419
-48.144	40.423	2034.809	1794.805
-47.130	27.061	1987.637	1633.895
-46.115	24.989	1976.546	1606.161
-45.100	24.826	1974.002	1602.571
-44.086	24.829	1971.429	1600.440
-43.071	24.735	1969.407	1597.900
-42.057	24.739	1966.810	1595.764
-41.042	24.686	1965.382	1594.071
-40.027	24.781	1963.000	1592.916
-39.013	24.820	1961.168	1591.716
-37.998	24.783	1960.088	1590.449
-36.984	24.752	1958.022	1588.430
-35.969	24.805	1956.159	1587.331
-34.954	24.764	1954.488	1585.544
-33.940	24.823	1953.158	1584.928
-32.925	24.842	1951.900	1584.009
-31.911	24.856	1950.020	1582.545
-30.896	24.896	1948.261	1581.410
-29.881	24.910	1947.499	1580.855
-28.867	25.005	1944.878	1579.500
-27.852	24.978	1943.346	1577.952
-26.838	24.919	1941.835	1576.148
-25.823	24.918	1939.463	1574.150
-24.809	24.936	1938.010	1573.061
-23.794	24.891	1936.258	1571.182
-22.779	24.888	1934.683	1569.819
-21.765	24.837	1933.649	1568.468
-20.750	24.863	1931.729	1567.074
-19.736	24.921	1929.789	1565.953
-18.721	24.925	1928.248	1564.674
-17.706	24.974	1926.783	1563.846
-16.692	24.970	1925.164	1562.441
-15.677	24.937	1923.291	1560.572
-14.663	24.928	1921.723	1559.151
-13.648	24.830	1921.298	1557.894
-12.633	24.911	1919.825	1557.340
-11.619	24.876	1918.643	1556.022
-10.604	24.827	1917.510	1554.608
-9.590	24.866	1915.408	1553.181
-8.575	24.813	1914.483	1551.915
-7.560	24.960	1912.720	1551.699
-6.546	24.819	1911.966	1549.805
-5.531	24.946	1910.760	1549.859
-4.517	24.836	1909.961	1548.204
-3.502	24.866	1908.400	1547.133
-2.487	24.871	1906.961	1545.945
-1.473	24.875	1905.446	1544.694
-0.458	24.914	1900.843	1541.240
0.556	22.957	1881.769	1511.966
1.571	18.509	1862.175	1458.336
2.586	14.515	1884.204	1441.015
3.600	13.381	1919.081	1457.571
4.615	13.308	1912.094	1451.495
5.629	10.463	1814.033	1353.208
6.644	4.141	1701.944	1219.840
7.659	0.524	1668.674	1167.934
8.673	0.217	1666.187	1163.725
9.688	0.190	1664.767	1162.418
10.702	0.199	1663.509	1161.505
11.717	0.084	1659.757	1157.899
12.731	0.557	1658.423	1160.503
13.746	5.442	1669.064	1205.569
14.761	12.773	1683.417	1272.641
15.775	16.627	1689.297	1306.793
16.790	16.812	1688.626	1307.581
17.804	15.876	1686.157	1298.341
18.819	14.948	1682.521	1288.277
19.834	14.423	1679.978	1282.185
20.848	14.122	1678.733	1278.802
21.863	13.914	1676.805	1275.627
22.877	13.551	1675.820	1271.973
23.892	13.453	1673.646	1269.463
24.907	13.294	1672.969	1267.613
25.921	13.260	1671.909	1266.443
26.936	13.242	1670.836	1265.380
27.950	13.357	1670.160	1265.632
28.965	13.287	1669.444	1264.444
29.980	13.379	1668.690	1264.462
30.994	13.413	1667.978	1264.072
32.009	13.485	1666.912	1263.700
33.023	13.499	1666.249	1263.193
34.038	13.572	1664.672	1262.442
35.053	13.488	1664.076	1261.241
36.067	13.474	1662.893	1260.126
37.082	13.443	1661.733	1258.898
38.096	13.510	1660.717	1258.531
39.111	13.505	1659.956	1257.798
40.126	13.479	1659.417	1257.086
41.140	13.455	1657.838	1255.596
42.155	13.369	1656.768	1254.020
43.169	13.357	1655.359	1252.757
44.184	13.277	1654.553	1251.429
45.199	13.287	1653.356	1250.487
46.213	13.257	1651.883	1249.036
47.228	13.289	1650.785	1248.339
48.242	13.303	1649.068	1247.033
49.257	13.337	1648.839	1247.006
50.271	13.430	1647.333	1246.453
51.286	13.357	1646.395	1245.083
52.301	13.324	1645.241	1243.853
53.315	13.316	1643.746	1242.558
54.330	13.408	1641.703	1241.596
55.344	13.328	1640.261	1239.788
56.359	13.292	1639.020	1238.474
57.374	13.341	1637.782	1237.797
58.388	13.312	1636.570	1236.550
59.403	13.362	1635.118	1235.723
60.417	13.235	1634.266	1234.019
61.432	13.259	1632.631	1232.852
62.447	13.268	1631.630	1232.059
63.461	13.237	1630.695	1231.012
64.476	13.162	1629.772	1229.645
65.490	13.130	1628.622	1228.431
66.505	13.191	1626.867	1227.452
67.520	13.226	1625.855	1226.840
68.534	13.262	1625.263	1226.549
69.549	13.280	1624.161	1225.746
70.563	13.277	1622.764	1224.559
71.578	13.236	1621.619	1223.282
72.593	13.157	1620.758	1221.944
73.607	13.171	1619.321	1220.859
74.622	13.161	1618.342	1219.936
75.636	13.155	1617.458	1219.117
76.651	13.160	1616.579	1218.382
77.666	13.149	1615.874	1217.659
78.680	13.090	1614.382	1215.994
79.695	13.200	1613.632	1216.135
80.709	13.230	1612.246	1215.203
81.724	13.186	1611.975	1214.564
82.739	13.142	1611.567	1213.827
83.753	13.307	1610.077	1213.808
84.768	13.432	1608.645	1213.539
85.782	13.369	1608.265	1212.684
86.797	13.527	1606.915	1212.715
87.812	13.420	1606.442	1211.468
88.826	13.347	1605.553	1210.154
89.841	13.345	1603.998	1208.863
90.855	13.448	1602.762	1208.578
91.870	13.361	1601.749	1207.067
92.884	13.341	1601.144	1206.362
93.899	13.414	1599.673	1205.679
94.914	13.454	1598.513	1204.990
95.928	13.472	1597.616	1204.334
96.943	13.479	1595.824	1202.933
97.957	13.418	1594.906	1201.688
98.972	13.386	1593.675	1200.423
99.987	13.419	1591.433	1198.870
101.001	13.494	1590.422	1198.542
102.016	13.440	1588.740	1196.777
103.030	13.389	1587.706	1195.528
104.045	13.425	1586.497	1194.767
105.060	13.487	1585.165	1194.106
106.074	13.511	1582.873	1192.445
107.089	13.361	1582.109	1190.686
108.103	13.280	1580.665	1188.911
109.118	13.281	1579.009	1187.566
110.133	13.213	1577.298	1185.693
111.147	13.240	1576.277	1185.012
112.162	13.328	1574.860	1184.470
113.176	13.258	1573.989	1183.207
114.191	13.370	1572.259	1182.608
115.206	13.403	1570.774	1181.621
116.220	13.374	1569.663	1180.473
117.235	13.404	1567.942	1179.289
118.249	13.323	1567.094	1177.971
119.264	13.395	1565.414	1177.116
120.279	13.385	1564.269	1176.079
121.293	13.393	1562.703	1174.854
122.308	13.376	1561.160	1173.471
123.322	13.406	1559.357	1172.223
124.337	13.237	1558.543	1170.309
125.352	13.244	1557.271	1169.298
126.366	13.355	1555.719	1168.814
127.381	13.251	1555.371	1167.713
128.395	13.314	1553.519	1166.666
129.410	13.193	1552.497	1164.945
130.424	13.255	1550.844	1164.036
131.439	13.292	1549.705	1163.336
132.454	13.407	1547.459	1162.360
133.468	13.299	1547.384	1161.437
134.483	13.370	1545.180	1160.183
135.497	13.307	1544.280	1158.965
136.512	13.327	1543.078	1158.095
137.527	13.369	1541.102	1156.807
138.541	13.407	1540.153	1156.256
139.556	13.420	1538.545	1155.040
140.570	13.343	1537.319	1153.480
141.585	13.472	1535.886	1153.201
142.600	13.471	1534.892	1152.341
143.614	13.444	1533.650	1151.120
144.629	13.573	1532.431	1151.001
145.643	13.547	1530.818	1149.508
146.658	13.526	1529.959	1148.613
147.673	13.536	1527.865	1147.009
148.687	13.544	1526.443	1145.894
149.702	13.461	1525.272	1144.344
150.716	13.600	1522.758	1143.317
151.731	13.545	1521.524	1141.906
152.746	13.550	1520.627	1141.167
153.760	13.534	1519.197	1139.886
154.775	13.493	1518.062	1138.651
155.789	13.709	1516.362	1138.758
156.804	13.663	1515.332	1137.568
157.819	13.665	1514.034	1136.505
158.833	13.644	1513.038	1135.513
159.848	13.653	1511.732	1134.494
160.862	13.762	1510.628	1134.310
161.877	13.805	1509.243	1133.464
162.892	13.693	1508.562	1132.087
163.906	13.669	1507.243	1130.835
164.921	13.690	1505.395	1129.487
165.935	13.636	1504.760	1128.544
166.950	13.662	1503.592	1127.747
167.964	13.711	1502.387	1127.078
168.979	13.713	1501.742	1126.504
169.994	13.676	1500.896	1125.518
171.008	13.644	1499.819	1124.395
172.023	13.816	1498.344	1124.359
173.037	13.750	1497.414	1123.110
174.052	13.781	1496.182	1122.300
175.067	13.759	1495.235	1121.342
176.081	13.761	1494.424	1120.647
177.096	13.857	1492.647	1119.861
178.110	13.733	1491.240	1117.874
179.125	13.739	1489.920	1116.828
180.140	13.778	1489.283	1116.512
181.154	13.789	1488.059	1115.572
182.169	13.881	1486.455	1114.886
183.183	13.863	1485.359	1113.841
184.198	13.875	1484.583	1113.245
185.213	13.924	1483.472	1112.637
186.227	14.008	1482.132	1112.101
187.242	13.957	1481.737	1111.362
188.256	14.037	1480.686	1111.014
189.271	14.011	1479.683	1109.986
190.286	14.033	1478.300	1108.996
191.300	13.979	1477.097	1107.638
192.315	13.914	1475.981	1106.268
193.329	13.838	1474.526	1104.574
194.344	13.919	1473.455	1104.212
195.359	13.865	1472.491	1103.034
196.373	13.907	1471.290	1102.320
197.388	14.041	1470.313	1102.373
198.402	14.161	1469.021	1102.104
199.417	14.086	1467.992	1100.739
200.432	14.119	1467.096	1100.188
201.446	14.116	1466.406	1099.554
202.461	14.147	1465.404	1098.908
203.475	14.108	1464.110	1097.587
204.490	14.197	1463.060	1097.288
205.504	14.231	1461.789	1096.458
206.519	14.207	1460.659	1095.357
207.534	14.229	1459.593	1094.608
208.548	14.090	1458.958	1093.118
209.563	14.205	1457.487	1092.673
210.577	14.213	1456.237	1091.692
211.592	14.225	1455.562	1091.171
212.607	14.226	1455.103	1090.733
213.621	14.341	1453.729	1090.364
214.636	14.325	1452.879	1089.524
215.650	14.244	1452.166	1088.361
216.665	14.264	1451.256	1087.717
217.680	14.421	1449.891	1087.620
218.694	14.410	1449.494	1087.158
219.709	14.437	1448.335	1086.369
220.723	14.441	1447.546	1085.703
221.738	14.435	1446.450	1084.748
222.753	14.376	1445.731	1083.728
223.767	14.379	1444.784	1082.939
224.782	14.342	1444.059	1082.060
225.796	14.467	1442.948	1081.945
226.811	14.453	1442.268	1081.246
227.826	14.548	1441.355	1081.082
228.840	14.464	1440.304	1079.657
229.855	14.471	1439.329	1078.878
230.869	14.473	1438.641	1078.279
231.884	14.552	1437.171	1077.591
232.899	14.593	1436.085	1076.943
233.913	14.576	1434.854	1075.819
234.928	14.418	1434.171	1074.189
235.942	14.458	1432.965	1073.450
236.957	14.421	1431.946	1072.356
237.972	14.476	1430.091	1071.224
238.986	14.503	1429.210	1070.646
240.001	14.612	1428.060	1070.385
241.015	14.492	1427.687	1069.243
242.030	14.554	1426.370	1068.558
243.045	14.639	1425.113	1068.064
244.059	14.663	1424.452	1067.632
245.074	14.654	1423.323	1066.634
246.088	14.662	1422.622	1066.062
247.103	14.668	1422.260	1065.734
248.117	14.706	1421.399	1065.238
249.132	14.641	1420.858	1064.326
250.147	14.838	1419.836	1064.721
251.161	14.816	1419.207	1064.016
252.176	14.907	1418.338	1063.848
253.190	15.013	1417.239	1063.601
254.205	14.926	1416.956	1062.743
255.220	14.974	1416.033	1062.261
256.234	15.049	1414.916	1061.808
257.249	15.040	1414.354	1061.229
258.263	15.029	1413.607	1060.509
259.278	15.004	1412.640	1059.531
260.293	15.061	1411.253	1058.760
261.307	15.059	1410.901	1058.389
262.322	15.071	1409.930	1057.639
263.336	15.115	1409.044	1057.158
264.351	15.163	1408.052	1056.626
265.366	15.184	1407.192	1056.016
266.380	15.242	1406.016	1055.407
267.395	15.221	1404.893	1054.341
268.409	15.256	1404.463	1054.143
269.424	15.215	1403.669	1053.194
270.439	15.152	1402.874	1052.112
271.453	15.181	1401.542	1051.201
272.468	15.166	1400.398	1050.159
273.482	15.107	1400.158	1049.516
274.497	15.300	1398.803	1049.616
275.512	15.260	1397.854	1048.557
276.526	15.301	1396.596	1047.778
277.541	15.191	1395.937	1046.505
278.555	15.299	1395.084	1046.443
279.570	15.208	1394.334	1045.225
280.585	15.217	1393.733	1044.736
281.599	15.367	1392.671	1044.783
282.614	15.380	1391.819	1044.134
283.628	15.421	1390.797	1043.528
284.643	15.320	1389.784	1042.048
285.657	15.325	1388.656	1041.142
286.672	15.301	1387.859	1040.300
287.687	15.405	1386.815	1040.074
288.701	15.393	1385.788	1039.135
289.716	15.400	1385.278	1038.706
290.730	15.400	1384.559	1038.073
291.745	15.513	1382.885	1037.425
292.760	15.412	1382.446	1036.380
293.774	15.509	1380.969	1035.781
294.789	15.436	1380.251	1034.700
295.803	15.547	1379.593	1034.796
296.818	15.593	1378.295	1034.017
297.833	15.551	1377.557	1033.112
298.847	15.609	1376.515	1032.594
299.862	15.546	1375.672	1031.483
300.876	15.584	1374.470	1030.724
301.891	15.604	1373.814	1030.264
302.906	15.610	1373.035	1029.630
303.920	15.756	1372.093	1029.725
304.935	15.681	1372.036	1029.132
305.949	15.762	1370.460	1028.349
306.964	15.832	1369.760	1028.162
307.979	15.720	1369.207	1026.975
308.993	15.841	1368.371	1026.997
310.008	15.766	1367.150	1025.527
311.022	15.776	1366.275	1024.841
312.037	15.891	1364.903	1024.424
313.052	15.891	1364.447	1023.992
314.066	15.821	1363.601	1022.840
315.081	15.766	1362.536	1021.618
316.095	15.728	1361.694	1020.661
317.110	15.726	1360.674	1019.799
318.125	15.834	1359.505	1019.485
319.139	15.879	1358.298	1018.759
320.154	15.863	1357.547	1018.009
321.168	15.826	1356.793	1017.132
322.183	15.738	1356.085	1015.979
323.197	15.893	1354.812	1015.871
324.212	15.961	1353.606	1015.285
325.227	16.012	1352.895	1014.971
326.241	15.977	1352.439	1014.328
327.256	15.978	1351.237	1013.341
328.270	15.903	1350.601	1012.324
329.285	15.924	1349.604	1011.614
330.300	15.931	1348.482	1010.725
331.314	15.988	1347.852	1010.504
332.329	16.003	1346.778	1009.701
333.343	15.897	1346.259	1008.589
334.358	15.956	1345.214	1008.071
335.373	16.038	1344.560	1007.983
336.387	16.031	1343.801	1007.278
337.402	16.082	1342.779	1006.730
338.416	16.185	1342.209	1006.826
339.431	16.107	1341.920	1006.055
340.446	16.181	1340.645	1005.456
341.460	16.198	1339.510	1004.617
342.475	16.201	1338.451	1003.749
343.489	16.255	1338.000	1003.640
344.504	16.275	1337.328	1003.168
345.519	16.343	1335.695	1002.259
346.533	16.319	1335.502	1001.882
347.548	16.394	1334.299	1001.335
348.562	16.259	1333.674	999.979
349.577	16.275	1332.859	999.375
350.592	16.377	1332.037	999.271
351.606	16.369	1330.967	998.335
352.621	16.259	1330.087	996.939
353.635	16.383	1328.894	996.684
354.650	16.328	1327.793	995.450
355.665	16.375	1327.127	995.136
356.679	16.348	1326.024	994.065
357.694	16.396	1324.951	993.456
358.708	16.477	1323.714	992.917
359.723	16.387	1322.885	991.674
360.738	16.517	1321.744	991.496
361.752	16.351	1320.970	989.851
362.767	16.461	1319.666	989.435
363.781	16.446	1318.942	988.718
364.796	16.503	1318.386	988.541
365.810	16.592	1317.290	988.155
366.825	16.593	1316.460	987.451
367.840	16.609	1316.224	987.279
368.854	16.686	1315.284	986.933
369.869	16.687	1314.815	986.501
370.883	16.694	1314.146	985.951
371.898	16.752	1313.125	985.436
372.913	16.680	1312.482	984.447
373.927	16.671	1311.810	983.805
374.942	16.759	1310.754	983.438
375.956	16.705	1310.190	982.614
376.971	16.771	1309.499	982.391
377.986	16.747	1308.433	981.368
379.000	16.826	1307.456	981.005
380.015	16.921	1306.552	980.787
381.029	16.861	1306.259	980.135
382.044	16.809	1305.556	979.219
383.059	16.832	1304.934	978.798
384.073	16.850	1304.145	978.223
385.088	16.919	1303.449	978.012
386.102	16.955	1302.612	977.505
387.117	16.934	1302.223	977.008
388.132	16.980	1301.234	976.442
389.146	17.053	1300.070	975.906
390.161	16.908	1299.562	974.602
391.175	16.877	1298.950	973.881
392.190	16.949	1297.955	973.461
393.205	16.968	1297.201	972.918
394.219	17.182	1295.723	972.952
395.234	17.120	1294.897	971.888
396.248	17.076	1293.791	970.720
397.263	17.010	1292.355	969.180
398.278	17.116	1290.969	968.659
399.292	17.043	1290.079	967.490
400.307	16.999	1289.010	966.352
401.321	17.040	1287.933	965.695
402.336	17.143	1286.492	965.111
403.350	17.128	1285.714	964.359
404.365	17.061	1285.213	963.516
405.380	17.019	1284.399	962.585
406.394	17.130	1283.219	962.241
407.409	17.223	1282.910	962.455
408.423	17.302	1282.105	962.212
409.438	17.289	1281.387	961.512
410.453	17.194	1280.826	960.470
411.467	17.242	1279.974	960.018
412.482	17.343	1279.101	959.848
413.496	17.297	1278.548	959.090
414.511	17.333	1277.968	958.768
415.526	17.275	1277.255	957.822
416.540	17.431	1276.156	957.796
417.555	17.413	1275.998	957.488
418.569	17.474	1275.332	957.249
419.584	17.450	1274.433	956.350
420.599	17.450	1273.562	955.616
421.613	99.790	1358.351	1485.829
422.628	97.319	1370.649	1485.900
