DTS Sentinel unit serial number:	SN413079Multiplexer serial number:	ORYXHardware model number:	OX4-SRSoftware version number:	ORYX F/W v4.00 Oryx Data Collector v3.7.2.0data status	okinstallation	princeton_trtdifferential loss correction	single-endedforward channel	channel 4reverse channel	N/Adate	2019/09/18time	04:57:34forward acquisition time	60.00reverse acquisition time	0.00gamma	496.2192k internal	0.2331k external	0.2331temperature offset calibration	0.9993default loss term (dB/km)	0.3790temperature slope calibration	1.0000multiplexer offset coefficient	1.0000multiplexer slope coefficient	1.0000fibre end	0.00T internal ref (°C)	23.50T ext. ref 1 (°C)	0.19T ext. ref 2 (°C)	17.92length (m)	temperature (°C)	Stokes	anti-Stokes-747.200	62.550	0.116	0.117
-746.185	240.908	0.020	0.034
-745.171	-200.000	-0.023	0.385
-744.156	196.992	0.101	-0.155
-743.142	53.738	-0.059	-0.057
-742.127	-38.384	-0.119	0.063
-741.112	-72.602	0.326	-0.121
-740.098	-2.083	-0.379	0.268
-739.083	-68.478	0.219	0.085
-738.069	-200.000	-0.123	-0.001
-737.054	105.277	-0.162	-0.193
-736.039	-200.000	0.003	0.097
-735.025	-200.000	-0.024	0.251
-734.010	-200.000	-0.001	0.052
-732.996	390.296	0.057	0.119
-731.981	115.893	0.194	0.239
-730.966	-92.259	-0.327	-0.093
-729.952	285.270	0.096	0.174
-728.937	-200.000	0.038	-0.292
-727.923	-59.623	-0.327	-0.141
-726.908	67.974	0.041	-0.042
-725.894	29.615	0.067	-0.057
-724.879	-168.130	0.075	0.003
-723.864	153.122	0.149	0.205
-722.850	-123.873	-0.157	-0.025
-721.835	119.526	-0.070	-0.087
-720.821	-147.288	0.225	0.019
-719.806	14.112	-0.179	-0.140
-718.791	-42.186	0.065	-0.034
-717.777	86.931	0.107	0.119
-716.762	-200.000	0.057	-0.538
-715.748	-200.000	0.023	-0.413
-714.733	-160.694	0.121	0.006
-713.718	-89.466	-0.278	0.082
-712.704	676.456	-0.089	-0.232
-711.689	-164.142	-0.042	0.002
-710.675	232.393	0.207	0.341
-709.660	163.964	0.142	0.201
-708.645	-109.198	0.392	-0.084
-707.631	800.000	0.040	0.137
-706.616	-86.675	0.092	0.028
-705.602	-200.000	-0.032	-0.179
-704.587	154.529	-0.259	-0.358
-703.572	81.140	-0.361	-0.392
-702.558	444.125	0.200	-0.442
-701.543	55.397	-0.068	0.066
-700.529	-41.615	0.220	0.114
-699.514	4.169	-0.245	-0.180
-698.499	-169.274	-0.417	-0.015
-697.485	-31.009	-0.266	0.151
-696.470	-30.026	0.135	-0.077
-695.456	340.040	0.059	0.117
-694.441	49.559	0.109	-0.103
-693.426	318.084	0.119	-0.227
-692.412	-88.801	0.231	-0.069
-691.397	-18.892	0.238	-0.149
-690.383	368.857	-0.084	-0.171
-689.368	-13.386	-0.087	-0.056
-688.354	-48.817	-0.163	0.079
-687.339	-74.044	-0.336	-0.122
-686.324	128.675	0.217	-0.278
-685.310	-200.000	0.020	0.518
-684.295	249.940	-0.122	0.209
-683.281	-59.391	-0.273	0.118
-682.266	-200.000	0.018	0.000
-681.251	259.326	0.031	-0.053
-680.237	-200.000	-0.007	0.050
-679.222	-200.000	-0.006	-0.169
-678.208	104.921	-0.083	0.098
-677.193	-80.381	0.333	-0.112
-676.178	31.197	-0.095	-0.081
-675.164	-200.000	0.035	0.156
-674.149	-200.000	0.035	-0.397
-673.135	146.799	-0.155	0.209
-672.120	328.021	0.067	-0.129
-671.105	-26.110	-0.190	-0.112
-670.091	178.878	-0.048	-0.071
-669.076	123.431	-0.095	-0.120
-668.062	-200.000	0.193	0.001
-667.047	-105.804	-0.256	0.058
-666.032	154.181	0.107	0.147
-665.018	253.509	0.064	0.109
-664.003	331.782	-0.100	0.194
-662.989	-200.000	0.005	0.112
-661.974	47.889	-0.277	0.260
-660.959	-134.114	-0.182	0.023
-659.945	337.359	0.253	0.492
-658.930	-14.130	-0.419	0.271
-657.916	64.893	-0.053	-0.054
-656.901	-110.985	0.227	-0.047
-655.886	-36.545	0.265	0.143
-654.872	-200.000	0.062	-0.275
-653.857	168.588	-0.186	-0.266
-652.843	-200.000	-0.003	-0.062
-651.828	152.568	0.075	0.103
-650.814	141.219	-0.188	0.249
-649.799	-152.043	0.177	-0.013
-648.784	-64.175	-0.461	0.189
-647.770	800.000	-0.065	-0.223
-646.755	-54.599	-0.294	-0.133
-645.741	-54.698	-0.125	0.057
-644.726	-200.000	0.049	-0.274
-643.711	272.998	0.087	-0.155
-642.697	-79.291	0.279	-0.095
-641.682	26.353	-0.451	-0.378
-640.668	-108.164	-0.125	0.027
-639.653	161.133	-0.080	-0.113
-638.638	13.225	0.083	-0.064
-637.624	61.416	-0.082	0.081
-636.609	140.499	0.290	0.384
-635.595	-200.000	-0.067	-0.415
-634.580	50.921	0.145	-0.138
-633.565	-71.115	-0.272	0.102
-632.551	-58.061	0.124	-0.054
-631.536	-200.000	-0.006	-0.225
-630.522	318.079	-0.163	-0.309
-629.507	369.749	-0.107	-0.218
-628.492	204.162	0.046	-0.071
-627.478	-150.360	-0.231	-0.018
-626.463	800.000	0.052	0.171
-625.449	142.497	0.111	-0.148
-624.434	-146.417	0.181	0.016
-623.419	-200.000	0.064	0.398
-622.405	123.639	0.111	-0.139
-621.390	-6.445	0.250	-0.170
-620.376	-139.502	0.489	-0.052
-619.361	89.678	-0.110	0.123
-618.346	384.330	-0.088	0.183
-617.332	486.859	-0.045	-0.104
-616.317	4.424	0.249	0.183
-615.303	-42.263	-0.225	-0.115
-614.288	-29.845	0.158	0.090
-613.273	-55.037	0.356	-0.161
-612.259	50.226	-0.043	0.040
-611.244	54.163	0.121	-0.116
-610.230	140.987	0.071	-0.094
-609.215	-19.131	-0.123	0.076
-608.201	-98.559	0.365	0.093
-607.186	800.000	0.026	-0.103
-606.171	-200.000	0.033	0.272
-605.157	-135.136	-0.396	-0.048
-604.142	-78.082	-0.077	0.027
-603.128	-116.859	-0.238	0.044
-602.113	70.493	0.255	0.264
-601.098	162.683	-0.228	0.321
-600.084	97.822	-0.346	0.399
-599.069	-200.000	-0.029	0.153
-598.055	800.000	0.063	-0.187
-597.040	-200.000	-0.020	0.272
-596.025	-88.225	-0.590	-0.177
-595.011	-129.683	-0.209	0.029
-593.996	18.538	-0.112	-0.090
-592.982	238.958	0.038	-0.064
-591.967	-53.797	-0.227	0.104
-590.952	-119.440	0.173	-0.030
-589.938	-56.581	0.065	-0.029
-588.923	-134.327	-0.350	-0.043
-587.909	249.110	0.163	0.276
-586.894	301.740	-0.117	0.217
-585.879	44.085	0.065	-0.059
-584.865	-48.709	-0.211	-0.101
-583.850	-74.725	-0.436	-0.157
-582.836	179.332	-0.155	-0.227
-581.821	669.848	-0.065	-0.168
-580.806	83.183	-0.042	0.046
-579.792	464.242	0.136	-0.305
-578.777	60.188	0.059	0.059
-577.763	127.508	-0.256	0.325
-576.748	238.391	0.133	-0.221
-575.733	-200.000	0.041	-0.336
-574.719	510.102	-0.181	0.422
-573.704	-16.353	-0.139	-0.088
-572.690	150.969	-0.126	0.171
-571.675	312.801	-0.114	-0.213
-570.661	-26.216	-0.138	-0.081
-569.646	88.672	-0.047	-0.052
-568.631	79.389	-0.045	0.049
-567.617	174.399	-0.241	0.349
-566.602	149.976	0.125	-0.170
-565.588	323.640	-0.045	0.086
-564.573	-107.573	-0.179	0.039
-563.558	-134.896	0.194	0.023
-562.544	-200.000	0.030	0.226
-561.529	-73.069	-0.214	-0.078
-560.515	-105.205	0.104	-0.024
-559.500	127.911	-0.222	0.282
-558.485	-200.000	-0.038	-0.272
-557.471	2.865	0.151	0.110
-556.456	18.953	-0.039	0.032
-555.442	-158.474	-0.216	0.012
-554.427	-113.370	0.079	0.016
-553.412	-200.000	-0.008	-0.039
-552.398	-200.000	-0.023	-0.119
-551.383	355.991	0.122	0.243
-550.369	-200.000	0.071	0.348
-549.354	345.224	0.144	-0.282
-548.339	800.000	-0.080	0.265
-547.325	-200.000	-0.002	0.042
-546.310	-71.348	0.298	-0.112
-545.296	-132.741	-0.121	-0.015
-544.281	-171.769	-0.139	0.005
-543.266	-8.922	0.140	-0.094
-542.252	100.966	0.282	0.327
-541.237	-200.000	0.050	0.299
-540.223	105.471	0.043	0.051
-539.208	-133.352	0.345	-0.043
-538.193	-2.922	-0.073	-0.051
-537.179	-47.203	0.123	-0.060
-536.164	-46.340	0.116	-0.057
-535.150	-200.000	-0.011	0.055
-534.135	-114.120	0.062	0.012
-533.121	-90.005	0.122	0.035
-532.106	-130.079	-0.271	-0.037
-531.091	-10.756	0.128	-0.085
-530.077	-131.276	0.246	0.033
-529.062	76.772	0.095	-0.100
-528.048	669.190	-0.097	0.251
-527.033	29.705	0.161	-0.137
-526.018	123.006	-0.206	0.257
-525.004	-74.287	-0.127	-0.046
-523.989	189.358	-0.133	0.199
-522.975	-137.676	0.274	0.031
-521.960	-98.340	-0.234	0.060
-520.945	-80.411	-0.395	0.132
-519.931	-200.000	-0.049	-0.267
-518.916	666.900	-0.141	0.363
-517.902	-90.658	0.292	0.084
-516.887	-83.641	-0.216	-0.069
-515.872	800.000	0.077	0.244
-514.858	-39.877	0.257	0.134
-513.843	14.233	-0.209	0.162
-512.829	528.796	-0.013	-0.030
-511.814	-200.000	-0.009	0.089
-510.799	-131.897	0.416	0.054
-509.785	31.037	-0.198	-0.169
-508.770	-188.041	0.082	0.001
-507.756	-200.000	-0.014	-0.104
-506.741	-155.687	0.112	0.007
-505.726	-200.000	-0.037	0.176
-504.712	-90.865	0.105	-0.030
-503.697	-51.588	-0.103	-0.048
-502.683	110.239	-0.194	0.232
-501.668	-35.413	0.082	-0.045
-500.653	220.805	0.052	-0.084
-499.639	-2.867	-0.186	-0.130
-498.624	35.262	-0.119	-0.104
-497.610	646.089	-0.111	-0.282
-496.595	-200.000	-0.004	-0.232
-495.581	168.732	-0.116	0.165
-494.566	-135.413	-0.227	-0.027
-493.551	-100.921	0.095	0.023
-492.537	31.382	-0.195	0.167
-491.522	-126.851	0.107	-0.016
-490.508	41.383	-0.183	-0.165
-489.493	-137.530	0.481	0.054
-488.478	-115.325	0.258	0.048
-487.464	-178.418	0.526	-0.012
-486.449	-178.488	0.135	0.003
-485.435	115.562	0.251	-0.306
-484.420	-73.482	-0.070	-0.025
-483.405	-200.000	-0.005	0.029
-482.391	-200.000	0.044	0.194
-481.376	-200.000	0.069	0.368
-480.362	333.273	-0.069	-0.133
-479.347	-46.444	0.200	0.098
-478.332	130.552	0.349	0.446
-477.318	800.000	0.057	-0.191
-476.303	-200.000	-0.030	0.189
-475.289	233.720	0.042	-0.070
-474.274	-38.894	-0.199	-0.104
-473.259	-200.000	-0.002	-0.075
-472.245	-164.910	-0.293	-0.013
-471.230	136.331	0.180	0.234
-470.216	-19.466	0.054	-0.033
-469.201	800.000	-0.112	0.331
-468.186	-15.061	0.146	0.093
-467.172	9.869	-0.107	-0.081
-466.157	-200.000	-0.022	0.123
-465.143	-40.395	-0.260	-0.135
-464.128	-3.513	-0.165	-0.114
-463.113	800.000	0.057	0.199
-462.099	-108.595	-0.212	0.045
-461.084	12.309	0.078	-0.060
-460.070	-200.000	0.039	0.247
-459.055	2.931	0.092	-0.066
-458.040	630.995	-0.103	-0.259
-457.026	800.000	-0.136	-0.419
-456.011	-72.626	0.403	0.148
-454.997	348.432	0.141	0.276
-453.982	35.911	-0.110	-0.097
-452.968	-200.000	0.010	0.109
-451.953	72.564	-0.095	-0.099
-450.938	800.000	0.106	-0.325
-449.924	-72.951	-0.226	0.083
-448.909	-11.055	0.278	0.183
-447.895	-49.621	-0.164	-0.078
-446.880	136.735	-0.026	-0.034
-445.865	23.680	0.315	-0.258
-444.851	-41.057	0.157	0.081
-443.836	30.544	0.129	0.110
-442.822	254.928	0.074	-0.127
-441.807	-8.764	-0.174	-0.116
-440.792	800.000	-0.056	0.220
-439.778	-189.160	0.302	0.004
-438.763	276.347	-0.145	-0.257
-437.749	-195.340	-0.158	-0.001
-436.734	800.000	-0.073	0.271
-435.719	-129.901	0.263	0.036
-434.705	-133.777	-0.172	0.021
-433.690	-178.880	0.342	0.008
-432.676	-200.000	-0.047	-0.226
-431.661	-200.000	-0.007	-0.109
-430.646	-118.621	0.253	0.044
-429.632	117.617	-0.197	0.241
-428.617	-187.515	-0.126	-0.002
-427.603	9.452	-0.083	-0.063
-426.588	-61.625	-0.184	-0.077
-425.573	-12.625	-0.275	0.178
-424.559	-81.717	0.336	0.110
-423.544	800.000	0.064	-0.233
-422.530	294.198	-0.106	-0.193
-421.515	-116.179	0.390	0.072
-420.500	-61.098	0.228	-0.096
-419.486	-84.861	0.161	0.050
-418.471	71.817	-0.209	-0.215
-417.457	-22.438	-0.082	-0.049
-416.442	-200.000	-0.002	-0.084
-415.428	313.051	0.111	0.207
-414.413	4.844	0.191	0.139
-413.398	80.182	0.237	-0.253
-412.384	-66.203	0.334	-0.132
-411.369	800.000	-0.099	0.308
-410.355	-83.471	-0.256	-0.081
-409.340	-146.839	0.232	0.020
-408.325	-82.078	0.422	0.137
-407.311	-107.573	0.103	0.022
-406.296	186.033	0.141	0.209
-405.282	346.047	-0.036	0.070
-404.267	-147.464	-0.270	0.023
-403.252	-36.601	0.157	0.084
-402.238	34.010	-0.202	0.175
-401.223	113.114	0.038	0.046
-400.209	-60.820	0.168	0.071
-399.194	-200.000	0.039	0.201
-398.179	-8.136	0.108	0.072
-397.165	175.433	-0.131	-0.188
-396.150	712.607	-0.071	0.187
-395.136	-96.056	0.264	-0.070
-394.121	-154.692	-0.253	0.017
-393.106	-9.238	0.197	-0.130
-392.092	-93.036	0.236	0.065
-391.077	17.134	-0.289	0.228
-390.063	252.051	0.212	-0.358
-389.048	18.636	-0.378	-0.300
-388.033	-22.366	0.139	-0.083
-387.019	72.999	-0.134	0.139
-386.004	-73.833	0.410	-0.148
-384.990	-200.000	-0.018	-0.078
-383.975	-132.678	-0.189	0.024
-382.960	229.007	-0.123	-0.199
-381.946	-90.003	0.312	0.090
-380.931	-200.000	0.003	-0.370
-379.917	168.019	0.045	-0.063
-378.902	800.000	-0.074	-0.253
-377.888	-177.582	0.143	-0.003
-376.873	200.338	0.189	-0.288
-375.858	-200.000	-0.052	-0.235
-374.844	-92.944	0.327	-0.090
-373.829	-67.098	-0.202	-0.079
-372.815	800.000	-0.044	0.126
-371.800	613.882	0.040	-0.100
-370.785	108.126	-0.301	-0.355
-369.771	-200.000	-0.047	0.323
-368.756	78.652	-0.205	0.217
-367.742	-100.675	-0.177	0.043
-366.727	304.604	-0.057	0.105
-365.712	141.251	-0.055	0.072
-364.698	250.845	0.086	0.145
-363.683	125.968	-0.151	-0.190
-362.669	-200.000	0.005	0.179
-361.654	-4.404	0.323	0.221
-360.639	-200.000	0.003	-0.228
-359.625	79.535	0.036	0.038
-358.610	443.152	-0.115	-0.249
-357.596	800.000	-0.007	0.028
-356.581	-200.000	-0.027	-0.191
-355.566	-6.528	0.073	0.049
-354.552	-200.000	-0.008	-0.094
-353.537	295.736	-0.217	0.394
-352.523	-73.052	0.339	0.123
-351.508	8.342	0.130	-0.097
-350.493	-53.360	-0.320	-0.145
-349.479	-127.523	0.121	-0.017
-348.464	-149.445	-0.183	0.014
-347.450	396.529	-0.105	0.218
-346.435	50.376	-0.051	0.047
-345.420	-200.000	0.015	-0.189
-344.406	54.864	0.194	-0.186
-343.391	-200.000	0.012	0.110
-342.377	-200.000	-0.008	-0.372
-341.362	26.811	-0.143	0.119
-340.348	-200.000	-0.019	-0.217
-339.333	800.000	0.016	-0.067
-338.318	800.000	0.021	0.080
-337.304	-117.637	0.457	-0.082
-336.289	-13.239	0.037	-0.024
-335.275	800.000	-0.039	0.111
-334.260	35.291	-0.385	-0.334
-333.245	-120.913	-0.336	-0.056
-332.231	166.255	0.105	-0.147
-331.216	21.718	-0.112	0.090
-330.202	271.086	-0.183	0.319
-329.187	-200.000	0.040	0.316
-328.172	-200.000	-0.041	-0.310
-327.158	44.507	0.349	-0.318
-326.143	-18.668	0.215	0.133
-325.129	800.000	0.047	0.147
-324.114	-66.009	0.067	-0.027
-323.099	-155.280	0.194	-0.012
-322.085	71.389	-0.181	0.185
-321.070	-77.165	0.118	-0.041
-320.056	-63.669	-0.241	0.098
-319.041	-200.000	-0.002	0.141
-318.026	-200.000	-0.032	-0.254
-317.012	800.000	-0.177	0.530
-315.997	-49.213	0.140	-0.066
-314.983	-48.749	-0.102	0.048
-313.968	131.279	0.190	0.241
-312.953	-200.000	-0.033	-0.157
-311.939	190.447	-0.045	0.067
-310.924	-165.845	-0.159	0.007
-309.910	-104.878	-0.203	-0.046
-308.895	-41.584	-0.059	-0.030
-307.880	-124.566	0.267	0.041
-306.866	-33.916	-0.260	0.142
-305.851	49.621	0.148	-0.138
-304.837	-93.563	-0.037	0.010
-303.822	-3.951	-0.235	-0.161
-302.807	-50.396	0.256	0.120
-301.793	165.084	0.097	-0.136
-300.778	-28.272	0.304	-0.174
-299.764	87.720	0.085	0.093
-298.749	105.091	0.238	-0.278
-297.735	353.374	-0.101	0.198
-296.720	-127.531	-0.298	-0.043
-295.705	-88.580	-0.484	-0.143
-294.691	-142.831	0.247	-0.024
-293.676	-117.967	0.158	0.028
-292.662	88.775	-0.114	-0.125
-291.647	273.425	-0.071	-0.124
-290.632	459.159	-0.057	0.126
-289.618	11.381	0.215	-0.162
-288.603	800.000	0.014	0.061
-287.589	-93.468	0.246	-0.067
-286.574	800.000	-0.041	-0.150
-285.559	-200.000	0.032	0.145
-284.545	-200.000	-0.008	-0.083
-283.530	80.285	-0.161	-0.171
-282.516	26.072	-0.058	-0.048
-281.501	132.801	-0.166	-0.212
-280.486	-82.770	-0.161	-0.051
-279.472	-113.980	-0.104	0.020
-278.457	435.873	-0.106	-0.228
-277.443	-55.494	0.120	0.053
-276.428	-183.845	-0.494	0.008
-275.413	-121.308	0.216	-0.036
-274.399	301.074	-0.097	-0.177
-273.384	-200.000	0.046	-0.432
-272.370	20.171	0.216	0.172
-271.355	196.190	0.090	0.135
-270.340	470.313	-0.072	-0.161
-269.326	-112.617	-0.248	0.049
-268.311	-112.131	-0.072	-0.014
-267.297	389.000	0.041	0.084
-266.282	-188.264	-0.234	0.003
-265.267	-200.000	0.020	0.280
-264.253	-52.900	0.342	0.155
-263.238	800.000	0.076	-0.260
-262.224	-111.326	-0.272	-0.055
-261.209	9.583	0.160	0.119
-260.195	-140.217	0.204	-0.021
-259.180	14.707	-0.190	-0.146
-258.165	66.928	-0.067	-0.067
-257.151	800.000	-0.029	0.087
-256.136	601.513	0.107	-0.262
-255.122	-198.838	-0.138	0.001
-254.107	-77.339	-0.227	-0.078
-253.092	-119.813	0.155	-0.026
-252.078	-200.000	0.018	-0.203
-251.063	303.650	-0.224	-0.410
-250.049	-158.018	0.211	0.012
-249.034	800.000	0.012	0.036
-248.019	202.196	-0.165	0.251
-247.005	-73.873	-0.092	-0.033
-245.990	-31.459	0.029	-0.016
-244.976	-131.793	0.286	-0.037
-243.961	-94.003	-0.008	0.002
-242.946	186.217	-0.122	-0.179
-241.932	-200.000	-0.032	-0.273
-240.917	-200.000	-0.000	-0.080
-239.903	102.561	0.118	0.136
-238.888	-200.000	-0.048	0.339
-237.873	-58.253	0.174	0.075
-236.859	-106.941	-0.080	0.018
-235.844	236.007	0.102	-0.167
-234.830	-116.492	-0.170	0.031
-233.815	15.560	-0.141	0.109
-232.800	104.213	0.094	0.109
-231.786	61.697	-0.123	0.121
-230.771	-186.807	-0.021	-0.000
-229.757	59.382	0.244	0.237
-228.742	-118.884	-0.288	-0.050
-227.727	366.003	0.065	-0.130
-226.713	-103.061	0.203	-0.047
-225.698	-200.000	-0.011	-0.189
-224.684	605.475	-0.029	-0.071
-223.669	196.005	0.167	-0.251
-222.655	800.000	-0.109	0.399
-221.640	-70.251	0.220	0.082
-220.625	22.239	-0.268	0.216
-219.611	34.966	-0.165	0.142
-218.596	-89.600	0.124	-0.036
-217.582	-156.746	0.222	-0.014
-216.567	-200.000	-0.006	-0.131
-215.552	-85.203	-0.168	0.052
-214.538	-6.673	0.062	-0.042
-213.523	-4.170	0.022	-0.015
-212.509	216.585	-0.147	0.231
-211.494	-46.575	-0.041	-0.020
-210.479	-163.532	-0.092	0.004
-209.465	-97.016	-0.084	0.022
-208.450	122.608	-0.175	-0.216
-207.436	-200.000	0.036	-0.163
-206.421	-113.963	-0.166	0.032
-205.406	147.792	-0.160	0.213
-204.392	-117.430	0.087	0.016
-203.377	800.000	0.040	0.115
-202.363	276.176	0.108	0.190
-201.348	36.377	-0.221	-0.192
-200.333	25.556	-0.024	0.020
-199.319	-76.182	0.223	0.077
-198.304	51.615	0.110	-0.103
-197.290	-51.836	0.317	0.146
-196.275	-173.695	0.475	0.014
-195.260	-200.000	0.042	-0.246
-194.246	368.062	0.162	-0.323
-193.231	12.103	-0.138	0.104
-192.217	-200.000	-0.073	0.466
-191.202	-128.628	-0.182	-0.025
-190.187	105.095	-0.085	-0.099
-189.173	-200.000	-0.017	-0.101
-188.158	703.281	-0.071	-0.183
-187.144	101.132	0.132	-0.151
-186.129	-200.000	-0.019	-0.094
-185.114	237.474	-0.186	-0.304
-184.100	270.427	-0.046	-0.079
-183.085	106.274	-0.070	0.082
-182.071	800.000	-0.068	0.223
-181.056	419.434	0.146	0.307
-180.042	302.813	0.078	-0.142
-179.027	-200.000	-0.001	-0.251
-178.012	-33.751	-0.249	0.135
-176.998	-99.879	0.087	0.021
-175.983	-200.000	-0.053	0.365
-174.969	-111.790	0.376	-0.075
-173.954	170.000	0.069	0.097
-172.939	125.666	-0.068	0.084
-171.925	-200.000	0.034	0.340
-170.910	94.508	-0.224	-0.251
-169.896	349.301	-0.144	-0.280
-168.881	-71.465	0.070	-0.026
-167.866	-67.597	-0.126	0.049
-166.852	527.026	0.081	-0.188
-165.837	-69.615	0.515	0.194
-164.823	800.000	-0.114	0.363
-163.808	800.000	0.110	0.408
-162.793	92.104	-0.054	0.059
-161.779	405.790	-0.062	0.129
-160.764	22.355	0.082	0.066
-159.750	177.105	0.108	-0.155
-158.735	-165.230	-0.254	-0.011
-157.720	39.806	0.148	0.131
-156.706	217.639	0.057	0.089
-155.691	-200.000	-0.002	0.267
-154.677	-91.898	0.101	-0.028
-153.662	43.279	-0.202	-0.181
-152.647	-67.356	0.039	0.015
-151.633	733.141	0.088	0.232
-150.618	48.437	0.156	0.144
-149.604	-61.721	0.270	-0.111
-148.589	-200.000	-0.049	-0.261
-147.574	767.672	-0.095	-0.255
-146.560	435.046	-0.113	-0.241
-145.545	62.038	0.233	-0.228
-144.531	-138.571	-0.020	0.002
-143.516	46.512	-0.111	0.101
-142.502	47.863	0.164	-0.151
-141.487	-117.499	0.183	-0.032
-140.472	-31.249	-0.081	-0.045
-139.458	-131.574	0.091	0.012
-138.443	800.000	-0.096	0.309
-137.429	-54.012	-0.191	0.085
-136.414	800.000	0.112	0.332
-135.399	-64.520	0.420	-0.168
-134.385	772.176	0.047	0.127
-133.370	-200.000	0.030	-0.210
-132.356	213.744	0.106	0.165
-131.341	700.981	0.025	-0.064
-130.326	45.987	0.227	-0.206
-129.312	354.976	0.043	0.083
-128.297	184.694	-0.045	0.066
-127.283	-91.360	0.034	0.010
-126.268	238.998	-0.056	-0.092
-125.253	-8.076	-0.358	-0.237
-124.239	-102.457	-0.279	0.065
-123.224	211.556	0.083	0.128
-122.210	-171.607	0.268	0.009
-121.195	-1.122	0.232	0.161
-120.180	54.894	-0.080	0.076
-119.166	0.887	-0.054	0.038
-118.151	800.000	-0.073	-0.202
-117.137	64.246	-0.115	-0.113
-116.122	-67.333	-0.016	0.006
-115.107	7.221	0.202	0.148
-114.093	800.000	-0.037	-0.123
-113.078	-144.421	-0.078	0.007
-112.064	-101.980	0.457	0.108
-111.049	-73.110	-0.108	0.039
-110.034	-149.892	-0.075	0.006
-109.020	-5.087	0.339	0.229
-108.005	-14.524	-0.082	-0.052
-106.991	-70.711	0.339	0.126
-105.976	-62.177	-0.280	-0.114
-104.962	800.000	0.069	0.210
-103.947	-165.599	0.183	0.008
-102.932	-200.000	-0.004	-0.277
-101.918	800.000	-0.076	0.214
-100.903	800.000	0.030	0.084
-99.889	377.237	0.053	-0.106
-98.874	99.720	0.143	-0.163
-97.859	-98.994	0.106	-0.026
-96.845	-44.663	0.210	-0.103
-95.830	54.912	0.030	0.028
-94.816	-200.000	-0.007	-0.138
-93.801	800.000	-0.094	0.392
-92.786	-43.850	0.193	-0.095
-91.772	43.809	0.122	-0.110
-90.757	737.568	-0.047	0.123
-89.743	255.614	-0.092	0.155
-88.728	-200.000	0.002	0.073
-87.713	514.124	0.136	-0.310
-86.699	800.000	0.068	0.186
-85.684	800.000	-0.041	0.159
-84.670	82.273	-0.084	-0.089
-83.655	145.521	-0.054	0.071
-82.640	32.677	-0.104	-0.088
-81.626	-200.000	-0.000	-0.005
-80.611	397.141	-0.140	0.287
-79.597	800.000	-0.049	0.197
-78.582	256.765	0.208	-0.351
-77.567	800.000	-0.088	-0.338
-76.553	253.622	0.026	0.044
-75.538	1.633	0.100	-0.070
-74.524	342.182	0.141	-0.271
-73.509	-70.494	-0.291	-0.108
-72.494	800.000	0.073	-0.239
-71.480	310.399	-0.079	0.145
-70.465	-121.718	-0.218	-0.035
-69.451	-49.052	-0.236	-0.110
-68.436	-200.000	0.014	0.207
-67.422	435.780	-0.197	-0.419
-66.407	49.082	0.144	0.133
-65.392	52.575	-0.058	0.054
-64.378	-80.761	0.175	-0.057
-63.363	-142.507	0.269	0.026
-62.349	-110.435	0.141	0.029
-61.334	119.358	-1.179	-1.430
-60.319	184.487	0.609	0.883
-59.305	230.503	-0.609	-0.976
-58.290	700.421	0.670	1.727
-57.276	526.261	0.687	1.585
-56.261	-200.000	124.005	642.047
-55.246	411.266	1560.861	3244.563
-54.232	140.915	2729.649	3534.219
-53.217	87.237	2340.769	2535.172
-52.203	30.060	2087.982	1744.201
-51.188	25.193	2003.682	1629.614
-50.173	24.012	1987.048	1605.382
-49.159	41.467	2059.254	1825.137
-48.144	39.949	2072.410	1822.742
-47.130	25.603	2024.391	1649.964
-46.115	23.505	2013.080	1621.516
-45.100	23.431	2010.039	1618.324
-44.086	23.465	2007.422	1616.470
-43.071	23.295	2005.480	1613.294
-42.057	23.360	2002.923	1611.762
-41.042	23.378	2001.409	1610.644
-40.027	23.360	1999.322	1608.735
-39.013	23.429	1997.147	1607.547
-37.998	23.418	1995.702	1606.225
-36.984	23.378	1994.443	1604.779
-35.969	23.395	1992.544	1603.345
-34.954	23.395	1990.700	1601.792
-33.940	23.424	1988.971	1600.604
-32.925	23.506	1987.063	1599.743
-31.911	23.507	1985.899	1598.755
-30.896	23.443	1984.820	1597.246
-29.881	23.532	1982.729	1596.300
-28.867	23.556	1980.994	1595.052
-27.852	23.567	1979.202	1593.644
-26.838	23.595	1977.226	1592.243
-25.823	23.496	1975.758	1590.107
-24.809	23.577	1973.929	1589.300
-23.794	23.430	1973.059	1587.220
-22.779	23.527	1970.529	1585.986
-21.765	23.579	1968.826	1585.021
-20.750	23.534	1967.607	1583.573
-19.736	23.553	1966.163	1582.520
-18.721	23.555	1964.521	1581.152
-17.706	23.528	1962.649	1579.340
-16.692	23.495	1961.683	1578.208
-15.677	23.518	1959.505	1576.601
-14.663	23.532	1958.075	1575.513
-13.648	23.525	1957.136	1574.630
-12.633	23.466	1955.899	1573.050
-11.619	23.545	1954.168	1572.297
-10.604	23.570	1952.772	1571.334
-9.590	23.524	1951.233	1569.619
-8.575	23.481	1950.342	1568.466
-7.560	23.478	1948.564	1566.943
-6.546	23.548	1947.393	1566.560
-5.531	23.635	1946.058	1566.189
-4.517	23.492	1945.293	1564.248
-3.502	23.503	1944.065	1563.299
-2.487	23.487	1942.653	1561.965
-1.473	23.500	1942.121	1561.585
-0.458	23.484	1936.895	1557.183
0.556	21.834	1916.184	1529.609
1.571	17.711	1898.203	1479.423
2.586	14.003	1922.400	1465.503
3.600	13.171	1958.046	1485.074
4.615	13.198	1951.409	1480.148
5.629	10.382	1849.670	1378.921
6.644	3.983	1736.360	1243.065
7.659	0.488	1703.246	1191.689
8.673	0.246	1700.317	1187.627
9.688	0.232	1698.563	1186.187
10.702	0.222	1697.667	1185.371
11.717	0.050	1693.849	1181.252
12.731	0.452	1692.982	1183.698
13.746	5.441	1702.004	1229.182
14.761	12.561	1717.482	1296.542
15.775	16.314	1723.569	1330.650
16.790	16.654	1723.617	1333.246
17.804	15.748	1720.938	1323.933
18.819	14.914	1716.827	1314.102
19.834	14.411	1714.262	1308.074
20.848	14.055	1712.881	1304.112
21.863	13.927	1710.924	1301.505
22.877	13.471	1710.617	1297.579
23.892	13.275	1709.090	1294.775
24.907	13.262	1707.265	1293.176
25.921	13.169	1706.770	1291.957
26.936	13.222	1705.380	1291.203
27.950	13.331	1704.312	1291.135
28.965	13.329	1703.885	1290.682
29.980	13.303	1703.309	1289.925
30.994	13.383	1702.171	1289.578
32.009	13.460	1700.889	1289.086
33.023	13.476	1700.356	1288.697
34.038	13.484	1699.218	1287.784
35.053	13.413	1698.433	1286.519
36.067	13.447	1697.139	1285.690
37.082	13.382	1696.367	1284.489
38.096	13.414	1695.102	1283.664
39.111	13.484	1694.391	1283.555
40.126	13.435	1693.470	1282.360
41.140	13.404	1692.878	1281.559
42.155	13.372	1691.245	1279.968
43.169	13.316	1689.594	1278.165
44.184	13.214	1688.905	1276.749
45.199	13.206	1687.687	1275.649
46.213	13.251	1685.709	1274.387
47.228	13.209	1684.602	1273.116
48.242	13.234	1683.957	1272.710
49.257	13.333	1682.005	1271.881
50.271	13.319	1681.069	1270.952
51.286	13.365	1680.410	1270.695
52.301	13.373	1678.595	1269.272
53.315	13.341	1676.998	1267.709
54.330	13.287	1675.588	1266.114
55.344	13.213	1674.214	1264.400
56.359	13.291	1672.381	1263.499
57.374	13.357	1670.908	1262.784
58.388	13.258	1670.230	1261.403
59.403	13.196	1668.972	1259.863
60.417	13.166	1667.598	1258.487
61.432	13.174	1666.519	1257.622
62.447	13.191	1664.845	1256.380
63.461	13.165	1663.406	1254.985
64.476	13.142	1662.969	1254.367
65.490	13.119	1660.965	1252.570
66.505	13.146	1660.176	1252.072
67.520	13.171	1658.968	1251.241
68.534	13.218	1658.016	1250.767
69.549	13.225	1656.633	1249.662
70.563	13.176	1655.166	1248.078
71.578	13.214	1653.710	1247.153
72.593	13.122	1653.371	1246.098
73.607	13.091	1651.959	1244.685
74.622	13.164	1650.463	1244.000
75.636	13.112	1649.761	1242.967
76.651	13.156	1648.632	1242.339
77.666	13.153	1647.403	1241.281
78.680	13.192	1646.795	1241.004
79.695	13.158	1646.231	1240.213
80.709	13.132	1645.525	1239.380
81.724	13.159	1644.408	1238.629
82.739	13.165	1643.630	1237.977
83.753	13.182	1642.521	1237.162
84.768	13.289	1641.376	1236.988
85.782	13.243	1641.062	1236.303
86.797	13.357	1639.738	1236.044
87.812	13.375	1638.469	1235.111
88.826	13.370	1637.214	1234.019
89.841	13.313	1636.042	1232.604
90.855	13.301	1635.343	1231.879
91.870	13.343	1634.276	1231.277
92.884	13.346	1633.380	1230.521
93.899	13.424	1631.957	1229.919
94.914	13.363	1631.169	1228.764
95.928	13.437	1629.574	1228.001
96.943	13.466	1628.539	1227.323
97.957	13.426	1626.758	1225.580
98.972	13.428	1625.490	1224.531
99.987	13.415	1623.654	1222.939
101.001	13.232	1622.534	1220.639
102.016	13.426	1620.652	1220.544
103.030	13.341	1619.718	1219.110
104.045	13.264	1619.204	1218.046
105.060	13.371	1616.795	1216.911
106.074	13.353	1615.459	1215.671
107.089	13.247	1613.838	1213.566
108.103	13.281	1612.197	1212.469
109.118	13.221	1610.958	1210.992
110.133	13.231	1609.492	1209.856
111.147	13.232	1608.164	1208.756
112.162	13.185	1606.759	1207.252
113.176	13.264	1605.561	1206.820
114.191	13.275	1603.327	1205.116
115.206	13.283	1602.702	1204.595
116.220	13.303	1601.603	1203.814
117.235	13.313	1600.072	1202.622
118.249	13.288	1598.533	1201.182
119.264	13.269	1597.355	1200.053
120.279	13.390	1595.775	1199.639
121.293	13.273	1594.585	1197.788
122.308	13.206	1593.044	1196.036
123.322	13.277	1591.101	1194.985
124.337	13.270	1589.872	1193.906
125.352	13.202	1589.069	1192.707
126.366	13.181	1587.470	1191.249
127.381	13.164	1586.078	1189.982
128.395	13.240	1584.815	1189.472
129.410	13.204	1583.352	1188.011
130.424	13.132	1582.464	1186.724
131.439	13.244	1580.973	1186.305
132.454	13.244	1579.566	1185.146
133.468	13.340	1577.767	1184.373
134.483	13.236	1576.596	1182.647
135.497	13.370	1575.130	1182.402
136.512	13.383	1573.452	1181.127
137.527	13.211	1572.980	1179.446
138.541	13.337	1571.046	1178.789
139.556	13.346	1569.940	1177.919
140.570	13.333	1568.487	1176.632
141.585	13.357	1567.186	1175.724
142.600	13.359	1565.474	1174.346
143.614	13.349	1564.659	1173.557
144.629	13.457	1562.662	1172.724
145.643	13.490	1561.755	1172.172
146.658	13.565	1560.030	1171.302
147.673	13.586	1558.371	1170.105
148.687	13.448	1557.346	1168.256
149.702	13.472	1555.610	1167.023
150.716	13.394	1554.232	1165.334
151.731	13.447	1552.866	1164.578
152.746	13.480	1550.569	1162.984
153.760	13.400	1550.252	1162.084
154.775	13.469	1548.470	1161.129
155.789	13.479	1547.637	1160.475
156.804	13.578	1546.263	1160.031
157.819	13.536	1545.111	1158.771
158.833	13.534	1543.543	1157.481
159.848	13.604	1542.750	1157.268
160.862	13.745	1541.276	1157.044
161.877	13.767	1539.476	1155.744
162.892	13.623	1538.889	1154.200
163.906	13.583	1537.554	1152.820
164.921	13.517	1536.057	1151.132
165.935	13.567	1535.230	1150.764
166.950	13.606	1533.937	1149.959
167.964	13.602	1533.069	1149.177
168.979	13.654	1531.677	1148.395
169.994	13.517	1531.144	1146.944
171.008	13.630	1529.739	1146.576
172.023	13.710	1528.277	1145.930
173.037	13.670	1527.766	1145.170
174.052	13.772	1526.378	1144.734
175.067	13.791	1524.934	1143.673
176.081	13.740	1524.092	1142.594
177.096	13.685	1522.622	1141.013
178.110	13.603	1521.522	1139.521
179.125	13.681	1519.993	1138.813
180.140	13.726	1518.957	1138.246
181.154	13.727	1517.770	1137.258
182.169	13.721	1517.386	1136.834
183.183	13.728	1515.639	1135.470
184.198	13.838	1514.150	1135.008
185.213	13.857	1513.332	1134.423
186.227	13.898	1511.935	1133.556
187.242	13.898	1511.385	1133.040
188.256	13.906	1510.009	1131.966
189.271	13.892	1509.195	1131.161
190.286	13.972	1507.890	1130.625
191.300	13.884	1506.770	1129.088
192.315	13.814	1505.529	1127.579
193.329	13.765	1503.876	1125.911
194.344	13.760	1502.948	1125.082
195.359	13.817	1502.132	1124.758
196.373	13.793	1501.056	1123.688
197.388	13.849	1499.990	1123.174
198.402	13.962	1498.775	1122.930
199.417	13.990	1497.837	1122.316
200.432	14.075	1496.693	1121.931
201.446	14.027	1496.174	1121.120
202.461	14.048	1494.630	1120.004
203.475	14.222	1493.053	1119.898
204.490	14.134	1492.118	1118.501
205.504	14.158	1490.925	1117.672
206.519	14.143	1489.829	1116.651
207.534	14.064	1488.726	1115.192
208.548	14.109	1487.963	1114.826
209.563	14.058	1486.899	1113.590
210.577	14.000	1485.997	1112.423
211.592	14.122	1484.611	1112.103
212.607	14.166	1483.772	1111.673
213.621	14.287	1483.049	1111.841
214.636	14.178	1482.380	1110.514
215.650	14.287	1480.899	1110.034
216.665	14.264	1480.398	1109.404
217.680	14.335	1479.234	1108.904
218.694	14.304	1478.804	1108.278
219.709	14.379	1477.938	1108.031
220.723	14.445	1476.392	1107.214
221.738	14.364	1476.320	1106.521
222.753	14.350	1475.128	1105.437
223.767	14.275	1474.417	1104.310
224.782	14.332	1473.416	1103.844
225.796	14.344	1472.394	1103.055
226.811	14.420	1471.020	1102.432
227.826	14.431	1470.326	1101.892
228.840	14.462	1469.840	1101.635
229.855	14.455	1468.216	1100.274
230.869	14.386	1468.025	1099.575
231.884	14.525	1466.160	1098.999
232.899	14.439	1465.631	1097.936
233.913	14.458	1463.922	1096.686
234.928	14.390	1463.120	1095.536
235.942	14.475	1461.719	1094.953
236.957	14.415	1460.400	1093.471
237.972	14.478	1459.440	1093.069
238.986	14.450	1458.963	1092.435
240.001	14.403	1457.413	1090.870
241.015	14.508	1456.599	1090.850
242.030	14.570	1455.142	1090.065
243.045	14.532	1454.349	1089.127
244.059	14.573	1453.320	1088.527
245.074	14.501	1452.811	1087.584
246.088	14.692	1451.784	1087.959
247.103	14.597	1451.093	1086.727
248.117	14.681	1450.188	1086.501
249.132	14.645	1449.009	1085.291
250.147	14.665	1448.798	1085.161
251.161	14.735	1448.417	1085.237
252.176	14.805	1447.553	1084.947
253.190	14.887	1446.141	1084.326
254.205	14.848	1445.485	1083.484
255.220	14.854	1444.731	1082.862
256.234	14.889	1444.306	1082.672
257.249	14.928	1443.022	1081.869
258.263	14.908	1442.456	1081.219
259.278	14.974	1441.077	1080.515
260.293	14.985	1440.566	1080.108
261.307	14.981	1439.655	1079.304
262.322	15.102	1438.721	1079.288
263.336	14.992	1437.740	1077.751
264.351	15.101	1436.571	1077.476
265.366	15.097	1435.743	1076.739
266.380	15.115	1434.768	1076.027
267.395	15.134	1433.833	1075.352
268.409	15.124	1433.306	1074.795
269.424	15.177	1432.207	1074.215
270.439	15.122	1431.272	1073.071
271.453	15.158	1430.210	1072.407
272.468	15.175	1429.284	1071.728
273.482	15.130	1428.463	1070.728
274.497	15.156	1427.977	1070.434
275.512	15.180	1427.186	1069.901
276.526	15.161	1426.079	1068.858
277.541	15.192	1424.859	1068.048
278.555	15.203	1424.007	1067.383
279.570	15.238	1423.195	1066.902
280.585	15.243	1421.870	1065.844
281.599	15.292	1421.163	1065.534
282.614	15.259	1420.443	1064.689
283.628	15.342	1419.289	1064.259
284.643	15.300	1418.651	1063.416
285.657	15.286	1417.309	1062.230
286.672	15.304	1416.320	1061.505
287.687	15.328	1415.243	1060.760
288.701	15.418	1413.819	1060.164
289.716	15.341	1413.523	1059.365
290.730	15.417	1412.788	1059.198
291.745	15.405	1411.886	1058.356
292.760	15.450	1410.547	1057.539
293.774	15.563	1409.159	1057.119
294.789	15.501	1408.216	1055.925
295.803	15.456	1407.830	1055.259
296.818	15.566	1406.659	1054.982
297.833	15.584	1405.602	1054.205
298.847	15.486	1405.189	1053.191
299.862	15.492	1404.101	1052.319
300.876	15.571	1402.999	1051.893
301.891	15.542	1401.995	1050.869
302.906	15.570	1401.089	1050.272
303.920	15.679	1400.598	1050.492
304.935	15.682	1399.987	1049.957
305.949	15.674	1399.123	1049.165
306.964	15.800	1398.007	1049.019
307.979	15.799	1396.740	1047.972
308.993	15.770	1396.219	1047.308
310.008	15.738	1395.208	1046.256
311.022	15.732	1394.454	1045.561
312.037	15.742	1393.636	1044.916
313.052	15.829	1392.316	1044.374
314.066	15.846	1391.205	1043.556
315.081	15.755	1390.480	1042.358
316.095	15.693	1389.585	1041.206
317.110	15.666	1388.731	1040.311
318.125	15.707	1387.306	1039.406
319.139	15.700	1386.836	1038.915
320.154	15.832	1385.181	1038.401
321.168	15.730	1384.699	1037.319
322.183	15.773	1383.323	1036.460
323.197	15.849	1382.290	1036.061
324.212	15.779	1381.867	1035.220
325.227	15.860	1380.958	1034.949
326.241	15.903	1380.063	1034.450
327.256	15.845	1379.549	1033.614
328.270	15.900	1378.492	1033.069
329.285	15.934	1377.388	1032.360
330.300	15.796	1376.828	1031.002
331.314	15.952	1375.461	1030.843
332.329	15.850	1374.841	1029.664
333.343	15.936	1374.085	1029.533
334.358	15.971	1373.322	1029.082
335.373	15.937	1372.307	1028.024
336.387	16.040	1371.131	1027.677
337.402	15.894	1371.118	1026.690
338.416	16.028	1370.078	1026.635
339.431	16.022	1369.438	1026.026
340.446	16.058	1368.757	1025.648
341.460	16.101	1367.228	1024.670
342.475	16.201	1366.508	1024.647
343.489	16.225	1365.931	1024.271
344.504	16.268	1364.852	1023.634
345.519	16.234	1363.858	1022.593
346.533	16.264	1362.710	1021.819
347.548	16.258	1361.970	1021.137
348.562	16.265	1361.052	1020.402
349.577	16.350	1360.663	1020.532
350.592	16.304	1359.806	1019.522
351.606	16.235	1358.646	1018.146
352.621	16.302	1357.409	1017.534
353.635	16.257	1356.688	1016.635
354.650	16.292	1355.459	1015.831
355.665	16.352	1354.440	1015.341
356.679	16.370	1353.385	1014.566
357.694	16.361	1352.232	1013.556
358.708	16.396	1350.942	1012.711
359.723	16.297	1350.435	1011.650
360.738	16.414	1349.272	1011.387
361.752	16.351	1348.454	1010.311
362.767	16.461	1347.151	1009.903
363.781	16.418	1346.263	1008.887
364.796	16.529	1345.403	1008.819
365.810	16.442	1344.860	1007.803
366.825	16.490	1344.076	1007.410
367.840	16.510	1343.444	1006.966
368.854	16.523	1342.913	1006.559
369.869	16.473	1342.547	1005.897
370.883	16.694	1341.217	1006.124
371.898	16.695	1340.082	1005.191
372.913	16.690	1339.728	1004.808
373.927	16.583	1338.857	1003.429
374.942	16.624	1338.066	1002.991
375.956	16.617	1337.380	1002.347
376.971	16.751	1336.197	1002.164
377.986	16.688	1335.395	1001.101
379.000	16.743	1334.115	1000.379
380.015	16.708	1333.687	999.762
381.029	16.720	1333.236	999.408
382.044	16.811	1332.370	999.203
383.059	16.889	1331.570	998.976
384.073	16.974	1330.948	998.923
385.088	16.826	1330.353	997.519
386.102	16.864	1329.679	997.149
387.117	16.874	1328.656	996.351
388.132	16.982	1327.656	996.144
389.146	16.872	1327.058	994.965
390.161	16.923	1326.080	994.441
391.175	16.977	1325.271	994.061
392.190	16.943	1324.815	993.435
393.205	16.865	1323.987	992.266
394.219	16.917	1323.120	991.837
395.234	16.993	1321.528	990.996
396.248	16.900	1320.729	989.766
397.263	16.979	1319.257	989.037
398.278	17.086	1317.330	988.127
399.292	16.984	1316.704	986.980
400.307	16.979	1316.241	986.518
401.321	17.010	1314.619	985.395
402.336	16.991	1313.662	984.476
403.350	17.033	1312.414	983.700
404.365	16.934	1311.799	982.578
405.380	17.051	1310.828	982.441
406.394	17.078	1309.936	981.839
407.409	17.068	1309.144	981.104
408.423	17.123	1308.541	980.881
409.438	17.183	1307.856	980.629
410.453	17.272	1306.960	980.384
411.467	17.276	1306.296	979.820
412.482	17.238	1306.020	979.308
413.496	17.279	1304.803	978.545
414.511	17.310	1304.200	978.182
415.526	17.337	1303.331	977.602
416.540	17.295	1302.869	976.927
417.555	17.425	1301.709	976.719
418.569	17.410	1301.185	976.153
419.584	17.310	1301.393	975.647
420.599	17.441	1300.168	975.394
421.613	99.380	1361.518	1486.911
422.628	97.613	1370.385	1486.990
