DTS Sentinel unit serial number:	SN413079Multiplexer serial number:	ORYXHardware model number:	OX4-SRSoftware version number:	ORYX F/W v4.00 Oryx Data Collector v3.7.2.0data status	okinstallation	princeton_trtdifferential loss correction	single-endedforward channel	channel 4reverse channel	N/Adate	2019/09/11time	17:51:11forward acquisition time	60.00reverse acquisition time	0.00gamma	496.2192k internal	0.2274k external	0.2274temperature offset calibration	1.0026default loss term (dB/km)	0.3790temperature slope calibration	1.0000multiplexer offset coefficient	1.0000multiplexer slope coefficient	1.0000fibre end	0.00T internal ref (°C)	43.97T ext. ref 1 (°C)	1.13T ext. ref 2 (°C)	38.83length (m)	temperature (°C)	Stokes	anti-Stokes-747.200	204.551	-0.154	-0.246
-746.185	-200.000	-0.043	0.318
-745.171	-86.298	-0.270	-0.086
-744.156	354.739	0.145	0.297
-743.142	-200.000	0.002	-0.204
-742.127	-137.887	0.392	0.045
-741.112	-200.000	-0.002	0.120
-740.098	179.013	0.218	0.329
-739.083	121.634	0.120	-0.154
-738.069	-99.428	-0.301	0.078
-737.054	-34.463	-0.332	0.188
-736.039	-168.199	-0.250	-0.010
-735.025	800.000	0.033	0.108
-734.010	160.179	-0.143	-0.206
-732.996	427.515	-0.111	-0.247
-731.981	800.000	0.071	-0.221
-730.966	46.649	-0.070	0.067
-729.952	50.623	-0.138	-0.135
-728.937	-16.941	-0.248	-0.161
-727.923	-7.442	0.505	0.353
-726.908	-53.029	0.167	0.079
-725.894	-200.000	-0.011	-0.157
-724.879	-200.000	0.056	-0.266
-723.864	-200.000	0.053	-0.470
-722.850	-147.449	-0.158	0.014
-721.835	152.276	-0.041	0.057
-720.821	78.241	-0.081	0.090
-719.806	324.398	0.128	-0.252
-718.791	-200.000	0.000	-0.068
-717.777	-128.103	-0.558	0.082
-716.762	-128.869	0.366	-0.053
-715.748	55.776	0.177	0.177
-714.733	408.923	-0.092	-0.201
-713.718	-200.000	0.000	-0.083
-712.704	582.888	0.136	-0.345
-711.689	-137.113	-0.205	0.024
-710.675	596.015	-0.036	0.091
-709.660	-52.753	-0.185	-0.088
-708.645	191.624	-0.133	-0.206
-707.631	79.882	0.176	-0.194
-706.616	227.989	0.154	-0.259
-705.602	548.205	0.048	-0.120
-704.587	-12.379	0.202	-0.136
-703.572	-92.743	-0.094	0.027
-702.558	-200.000	-0.046	0.224
-701.543	800.000	-0.042	-0.162
-700.529	26.721	0.049	-0.042
-699.514	199.865	-0.048	-0.075
-698.499	665.136	0.145	0.387
-697.485	81.727	-0.236	0.263
-696.470	-200.000	-0.022	-0.100
-695.456	-187.154	0.247	-0.003
-694.441	383.698	0.068	-0.144
-693.426	7.762	-0.026	0.020
-692.412	-4.571	-0.152	0.108
-691.397	316.181	0.145	0.282
-690.383	-200.000	-0.007	-0.188
-689.368	261.509	0.116	0.208
-688.354	16.906	-0.317	-0.258
-687.339	194.914	0.085	0.133
-686.324	-106.315	-0.230	0.053
-685.310	322.386	-0.088	0.172
-684.295	-1.509	-0.238	-0.173
-683.281	-135.809	-0.441	-0.054
-682.266	31.018	-0.231	-0.204
-681.251	-116.691	-0.312	-0.059
-680.237	73.731	-0.124	-0.133
-679.222	436.424	0.088	-0.197
-678.208	800.000	-0.132	-0.376
-677.193	-85.391	-0.109	-0.035
-676.178	-200.000	-0.021	-0.265
-675.164	800.000	-0.071	-0.222
-674.149	-65.735	0.199	0.082
-673.135	-200.000	0.024	0.236
-672.120	-200.000	-0.041	-0.225
-671.105	38.358	0.148	-0.136
-670.091	61.560	-0.104	-0.106
-669.076	-200.000	-0.033	-0.150
-668.062	273.493	0.128	0.234
-667.047	-200.000	0.014	-0.066
-666.032	-200.000	-0.042	0.319
-665.018	-200.000	0.062	-0.370
-664.003	-200.000	-0.011	-0.106
-662.989	800.000	0.058	-0.182
-661.974	96.897	-0.157	0.185
-660.959	213.279	0.219	-0.356
-659.945	-94.980	-0.298	-0.083
-658.930	-69.933	0.209	-0.082
-657.916	-134.371	-0.585	0.074
-656.901	118.176	0.094	0.119
-655.886	-200.000	0.024	-0.291
-654.872	-200.000	-0.002	-0.069
-653.857	115.763	0.228	-0.286
-652.843	16.006	-0.107	-0.087
-651.828	-38.267	-0.032	-0.018
-650.814	-141.968	-0.257	-0.026
-649.799	-200.000	-0.007	0.210
-648.784	-14.047	0.054	-0.036
-647.770	-33.000	-0.227	0.130
-646.755	599.031	0.064	-0.162
-645.741	800.000	0.097	-0.294
-644.726	-76.470	0.192	-0.069
-643.711	800.000	-0.063	0.188
-642.697	-17.909	-0.349	-0.225
-641.682	-129.957	0.159	-0.022
-640.668	633.390	0.145	0.379
-639.653	-46.893	0.182	0.092
-638.638	-70.756	-0.262	-0.101
-637.624	-200.000	-0.006	0.059
-636.609	-91.594	0.257	0.075
-635.595	395.351	-0.020	-0.043
-634.580	-117.337	-0.410	0.076
-633.565	-86.456	-0.255	-0.081
-632.551	420.749	0.111	-0.244
-631.536	211.375	-0.078	-0.126
-630.522	800.000	-0.094	-0.406
-629.507	-167.736	-0.572	0.023
-628.492	-54.049	-0.252	-0.118
-627.478	-31.533	0.380	-0.219
-626.463	20.912	0.271	-0.226
-625.449	371.339	0.055	-0.114
-624.434	134.701	0.260	-0.346
-623.419	108.292	0.063	0.077
-622.405	-43.212	-0.388	-0.202
-621.390	-200.000	-0.030	-0.206
-620.376	93.225	-0.117	-0.136
-619.361	125.646	-0.094	0.122
-618.346	-168.228	-0.446	-0.018
-617.332	800.000	0.120	-0.342
-616.317	800.000	-0.035	0.132
-615.303	800.000	0.049	-0.184
-614.288	-99.864	-0.163	0.042
-613.273	-69.565	-0.232	-0.091
-612.259	-106.569	0.228	-0.052
-611.244	258.122	-0.088	0.155
-610.230	96.777	-0.156	-0.183
-609.215	800.000	-0.081	-0.277
-608.201	332.800	-0.082	-0.162
-607.186	-108.758	-0.115	0.025
-606.171	401.967	-0.078	0.169
-605.157	-59.764	-0.166	-0.073
-604.142	-140.742	-0.498	0.053
-603.128	-159.051	0.061	0.004
-602.113	800.000	0.054	0.164
-601.098	174.297	-0.234	-0.347
-600.084	-53.694	-0.175	-0.082
-599.069	800.000	0.072	-0.229
-598.055	1.870	0.136	0.100
-597.040	177.550	-0.191	-0.286
-596.025	-21.675	0.082	0.051
-595.011	-138.047	0.131	0.015
-593.996	6.830	-0.165	-0.126
-592.982	-133.725	-0.106	0.014
-591.967	-200.000	0.010	0.059
-590.952	729.321	0.079	0.216
-589.938	-133.429	0.248	-0.032
-588.923	-176.799	-0.335	0.009
-587.909	-44.836	-0.192	0.098
-586.894	-115.780	-0.387	0.074
-585.879	119.434	-0.324	-0.411
-584.865	800.000	0.025	0.089
-583.850	76.850	-0.182	0.198
-582.836	24.938	0.360	0.306
-581.821	-38.141	-0.254	0.138
-580.806	-180.786	-0.091	0.002
-579.792	207.539	0.168	0.269
-578.777	504.790	-0.195	-0.462
-577.763	-200.000	-0.011	-0.098
-576.748	31.640	-0.039	0.034
-575.733	-64.654	-0.229	0.095
-574.719	99.523	-0.123	0.146
-573.704	-107.586	-0.176	-0.039
-572.690	-175.863	0.232	0.006
-571.675	502.431	-0.115	0.271
-570.661	-80.238	-0.294	0.101
-569.646	-136.645	-0.214	0.025
-568.631	-1.773	-0.150	-0.108
-567.617	800.000	0.116	-0.344
-566.602	-200.000	0.014	-0.157
-565.588	800.000	-0.056	0.213
-564.573	26.356	-0.161	0.138
-563.558	-23.988	-0.218	0.134
-562.544	30.040	0.097	-0.085
-561.529	-200.000	-0.006	-0.042
-560.515	800.000	-0.063	-0.212
-559.500	58.473	-0.130	-0.131
-558.485	-116.625	0.435	-0.082
-557.471	-200.000	-0.001	0.129
-556.456	-200.000	0.027	-0.234
-555.442	-37.201	0.329	-0.180
-554.427	-200.000	0.006	0.205
-553.412	800.000	-0.017	-0.053
-552.398	280.225	-0.189	0.346
-551.383	190.357	0.078	-0.121
-550.369	-90.087	-0.150	0.045
-549.354	-200.000	0.013	0.181
-548.339	258.952	-0.130	-0.230
-547.325	800.000	-0.061	0.175
-546.310	-131.353	-0.289	0.039
-545.296	100.789	0.049	0.058
-544.281	235.726	-0.050	0.085
-543.266	-200.000	-0.012	-0.145
-542.252	744.383	-0.083	-0.229
-541.237	-148.454	0.088	0.007
-540.223	61.915	0.112	-0.115
-539.208	269.055	-0.053	0.096
-538.193	-137.937	0.096	0.011
-537.179	647.143	0.073	0.190
-536.164	-69.068	0.021	0.008
-535.150	-137.394	-0.191	0.022
-534.135	310.849	0.155	-0.298
-533.121	-164.432	-0.081	-0.004
-532.106	24.585	-0.193	0.164
-531.091	-200.000	-0.016	0.219
-530.077	278.449	-0.261	0.475
-529.062	-67.262	-0.178	-0.072
-528.048	65.576	-0.205	-0.212
-527.033	-90.797	-0.275	-0.081
-526.018	106.732	0.189	0.230
-525.004	314.700	-0.167	0.322
-523.989	-200.000	0.023	-0.322
-522.975	-200.000	0.033	-0.155
-521.960	-131.533	-0.066	0.009
-520.945	-137.339	0.181	0.021
-519.931	34.277	0.280	-0.250
-518.916	-62.691	0.175	0.074
-517.902	-120.117	-0.418	0.073
-516.887	512.786	0.038	-0.090
-515.872	800.000	0.012	0.035
-514.858	174.491	-0.070	-0.104
-513.843	-129.295	0.202	0.029
-512.829	238.000	0.161	-0.272
-511.814	190.448	-0.040	0.061
-510.799	124.311	-0.171	0.220
-509.785	563.926	-0.113	-0.280
-508.770	-143.599	0.182	-0.018
-507.756	42.469	-0.063	0.059
-506.741	800.000	0.044	0.140
-505.726	-135.272	0.263	0.032
-504.712	11.612	-0.263	-0.206
-503.697	-118.241	-0.292	0.053
-502.683	-163.191	-0.225	-0.011
-501.668	-200.000	-0.046	0.443
-500.653	35.459	-0.075	0.068
-499.639	-177.455	-0.202	-0.005
-498.624	-36.191	-0.098	-0.054
-497.610	-200.000	0.004	0.219
-496.595	-55.247	-0.145	-0.067
-495.581	474.597	-0.089	-0.204
-494.566	-146.233	0.192	-0.017
-493.551	165.978	0.104	0.150
-492.537	800.000	-0.056	-0.166
-491.522	-167.160	0.144	-0.006
-490.508	-7.512	0.268	0.185
-489.493	-46.347	0.161	-0.081
-488.478	-152.257	0.136	0.010
-487.464	-173.200	0.148	-0.005
-486.449	-122.003	-0.363	-0.061
-485.435	-81.654	-0.170	0.057
-484.420	-81.617	0.302	0.101
-483.405	223.502	-0.061	0.100
-482.391	-70.696	-0.207	-0.080
-481.376	-200.000	-0.007	0.177
-480.362	293.892	-0.104	-0.194
-479.347	-56.108	0.179	0.082
-478.332	-131.663	-0.310	-0.042
-477.318	14.203	0.098	-0.078
-476.303	0.524	0.058	-0.043
-475.289	-160.731	0.167	0.009
-474.274	-41.162	0.230	-0.121
-473.259	208.059	-0.170	-0.272
-472.245	261.197	0.169	-0.298
-471.230	-117.416	0.116	-0.021
-470.216	-8.235	0.134	-0.092
-469.201	-200.000	0.004	-0.205
-468.186	-93.492	0.260	0.073
-467.172	-27.120	-0.079	0.047
-466.157	21.188	-0.455	0.377
-465.143	-19.074	0.330	0.209
-464.128	-48.439	0.169	0.083
-463.113	-85.073	0.372	-0.119
-462.099	-45.367	0.280	0.142
-461.084	62.327	-0.208	0.212
-460.070	-110.831	0.333	0.070
-459.055	505.410	-0.094	0.221
-458.040	-130.463	-0.352	0.049
-457.026	96.238	0.252	0.294
-456.011	-69.043	0.245	-0.096
-454.997	-183.086	-0.138	0.002
-453.982	-118.942	-0.146	-0.026
-452.968	800.000	-0.070	0.257
-451.953	101.210	0.107	-0.127
-450.938	-200.000	-0.027	-0.229
-449.924	8.917	0.218	-0.168
-448.909	222.480	-0.079	-0.129
-447.895	-57.196	-0.288	0.129
-446.880	-109.648	-0.122	-0.026
-445.865	-148.986	0.147	-0.012
-444.851	-200.000	-0.017	-0.081
-443.836	114.905	0.126	0.156
-442.822	-152.396	-0.059	-0.004
-441.807	-179.119	-0.237	-0.005
-440.792	311.271	0.112	0.215
-439.778	88.578	-0.144	-0.163
-438.763	-40.223	0.350	0.186
-437.749	305.410	-0.065	0.124
-436.734	-141.272	-0.232	-0.024
-435.719	146.879	0.132	0.181
-434.705	-53.547	-0.154	0.072
-433.690	50.520	-0.109	0.105
-432.676	45.605	-0.103	-0.097
-431.661	-128.586	-0.093	-0.013
-430.646	11.187	-0.321	-0.251
-429.632	-109.250	-0.168	-0.036
-428.617	-200.000	0.039	0.252
-427.603	17.311	-0.160	0.130
-426.588	-200.000	0.038	0.176
-425.573	-51.557	0.215	0.102
-424.559	-132.444	0.279	-0.037
-423.544	736.280	-0.061	0.168
-422.530	-84.821	0.142	0.045
-421.515	-16.743	0.259	-0.167
-420.500	-167.415	0.192	0.008
-419.486	-120.029	0.194	-0.034
-418.471	95.877	-0.132	-0.154
-417.457	800.000	-0.061	0.175
-416.442	-74.661	0.087	0.032
-415.428	800.000	-0.048	0.177
-414.413	19.604	-0.220	0.180
-413.398	800.000	-0.061	-0.265
-412.384	193.551	0.166	0.255
-411.369	507.589	0.097	0.228
-410.355	-200.000	-0.007	0.074
-409.340	457.227	-0.095	0.215
-408.325	28.180	0.130	0.112
-407.311	-131.302	-0.515	0.069
-406.296	-49.867	0.150	-0.073
-405.282	-85.873	0.386	0.122
-404.267	56.666	-0.161	0.159
-403.252	152.479	0.038	0.053
-402.238	101.286	-0.028	-0.034
-401.223	472.390	-0.083	0.190
-400.209	-44.901	-0.112	0.057
-399.194	-146.116	-0.237	-0.021
-398.179	-37.143	-0.035	0.019
-397.165	-200.000	0.018	-0.274
-396.150	62.697	0.014	0.014
-395.136	-182.929	0.142	-0.003
-394.121	-52.846	0.202	-0.094
-393.106	-117.206	-0.184	-0.034
-392.092	222.415	0.042	-0.069
-391.077	70.202	0.229	-0.241
-390.063	631.434	0.050	-0.130
-389.048	444.582	-0.066	0.147
-388.033	-168.071	-0.292	-0.012
-387.019	-173.529	0.429	0.013
-386.004	-200.000	0.017	0.177
-384.990	-200.000	0.007	-0.132
-383.975	800.000	0.068	-0.284
-382.960	2.035	0.076	-0.056
-381.946	-200.000	0.023	0.103
-380.931	-122.546	-0.167	0.028
-379.917	800.000	-0.080	-0.327
-378.902	234.141	-0.062	-0.104
-377.888	135.131	0.232	-0.307
-376.873	-200.000	-0.003	0.387
-375.858	51.431	-0.105	0.101
-374.844	-200.000	-0.004	-0.116
-373.829	159.076	-0.106	-0.150
-372.815	1.388	-0.209	-0.153
-371.800	48.366	-0.036	-0.034
-370.785	37.177	-0.167	0.151
-369.771	332.733	0.084	0.165
-368.756	11.320	-0.377	0.294
-367.742	800.000	-0.084	-0.264
-366.727	68.181	0.307	-0.320
-365.712	379.058	0.140	-0.292
-364.698	-88.933	0.340	0.103
-363.683	-200.000	-0.036	-0.210
-362.669	-19.938	-0.158	0.099
-361.654	-15.762	0.192	-0.125
-360.639	-200.000	0.030	-0.132
-359.625	-1.607	0.143	-0.102
-358.610	444.592	-0.106	-0.237
-357.596	-124.085	0.260	-0.042
-356.581	800.000	0.065	-0.240
-355.566	-200.000	0.034	-0.256
-354.552	83.847	-0.135	-0.150
-353.537	196.780	-0.073	-0.113
-352.523	-18.091	0.182	0.116
-351.508	-200.000	0.011	0.113
-350.493	-116.950	0.115	-0.021
-349.479	186.255	0.132	0.200
-348.464	-132.642	0.397	-0.052
-347.450	87.980	0.224	-0.253
-346.435	151.890	0.110	0.153
-345.420	800.000	-0.059	-0.179
-344.406	457.078	0.050	-0.113
-343.391	0.140	-0.306	0.222
-342.377	-122.261	0.485	-0.081
-341.362	-137.688	-0.101	0.012
-340.348	-128.874	-0.184	-0.026
-339.333	-99.146	0.234	-0.060
-338.318	94.519	0.129	0.149
-337.304	-200.000	0.006	0.338
-336.289	-200.000	-0.003	0.115
-335.275	409.991	-0.111	0.238
-334.260	-127.414	-0.297	-0.044
-333.245	-120.199	-0.187	-0.032
-332.231	-200.000	0.032	0.285
-331.216	-127.385	0.088	0.013
-330.202	-131.298	0.405	-0.054
-329.187	-200.000	-0.009	0.199
-328.172	179.296	0.034	-0.051
-327.158	115.930	-0.282	-0.350
-326.143	-23.965	0.238	-0.145
-325.129	-41.746	0.211	0.110
-324.114	-131.937	0.467	0.062
-323.099	27.280	0.432	0.368
-322.085	-170.289	-0.305	0.011
-321.070	83.786	0.129	-0.143
-320.056	65.984	0.150	-0.154
-319.041	-130.779	-0.256	0.035
-318.026	-43.325	0.480	-0.246
-317.012	-189.345	-0.214	-0.003
-315.997	-59.671	-0.100	-0.044
-314.983	-64.468	-0.074	0.030
-313.968	-35.178	-0.300	0.166
-312.953	16.622	0.163	0.130
-311.939	595.409	0.084	0.211
-310.924	211.565	0.019	0.031
-309.910	-101.013	0.084	0.021
-308.895	-117.515	0.090	0.017
-307.880	-200.000	-0.040	0.285
-306.866	-103.384	0.149	-0.036
-305.851	-200.000	0.098	-0.489
-304.837	11.550	-0.184	0.143
-303.822	-68.067	0.132	0.052
-302.807	1.395	-0.011	0.008
-301.793	-94.604	0.366	0.101
-300.778	-118.934	-0.288	0.051
-299.764	-200.000	-0.031	0.411
-298.749	-101.788	0.146	0.036
-297.735	619.751	-0.005	-0.014
-296.720	17.359	0.246	0.198
-295.705	-132.139	-0.290	0.038
-294.691	19.594	-0.310	0.253
-293.676	-120.895	0.046	0.008
-292.662	800.000	0.137	0.465
-291.647	90.052	0.089	0.101
-290.632	35.823	0.232	0.207
-289.618	-108.108	0.112	-0.025
-288.603	201.285	-0.063	0.098
-287.589	387.207	-0.123	-0.258
-286.574	108.324	-0.127	-0.154
-285.559	800.000	-0.071	0.290
-284.545	-200.000	-0.024	0.239
-283.530	800.000	0.130	0.373
-282.516	-129.401	0.109	0.015
-281.501	232.585	0.119	-0.199
-280.486	800.000	-0.041	0.142
-279.472	-42.253	-0.301	0.156
-278.457	169.698	-0.151	0.218
-277.443	-140.490	0.272	-0.029
-276.428	-200.000	0.008	-0.086
-275.413	126.206	-0.089	0.115
-274.399	433.985	-0.037	0.082
-273.384	-200.000	-0.006	0.166
-272.370	88.778	-0.117	-0.131
-271.355	-200.000	-0.008	-0.252
-270.340	78.007	-0.229	-0.247
-269.326	-200.000	-0.022	-0.207
-268.311	19.028	0.221	0.179
-267.297	67.987	-0.246	0.254
-266.282	39.569	0.179	0.162
-265.267	-200.000	0.062	0.394
-264.253	-200.000	-0.019	-0.130
-263.238	-142.618	-0.186	-0.018
-262.224	-27.650	0.201	0.118
-261.209	-77.729	0.300	0.105
-260.195	66.625	0.095	-0.098
-259.180	49.103	-0.044	-0.042
-258.165	800.000	0.082	-0.236
-257.151	334.132	0.124	-0.243
-256.136	87.565	0.066	0.074
-255.122	176.382	-0.164	-0.241
-254.107	-41.485	-0.254	0.132
-253.092	-41.603	-0.143	-0.075
-252.078	-52.782	-0.132	-0.061
-251.063	-115.496	0.179	-0.034
-250.049	114.838	-0.064	-0.078
-249.034	800.000	-0.065	-0.216
-248.019	-95.054	-0.171	0.047
-247.005	800.000	-0.041	0.147
-245.990	481.055	-0.140	0.322
-244.976	210.260	-0.084	0.134
-243.961	594.969	-0.177	0.444
-242.946	-200.000	0.004	0.249
-241.932	143.681	0.112	0.152
-240.917	-200.000	-0.025	0.193
-239.903	-77.187	0.293	-0.103
-238.888	-200.000	0.006	-0.103
-237.873	99.700	0.050	0.059
-236.859	-200.000	-0.022	-0.384
-235.844	-43.071	0.219	0.112
-234.830	-200.000	-0.017	0.326
-233.815	-33.327	0.178	-0.100
-232.800	-200.000	0.007	0.314
-231.786	-182.223	0.446	0.008
-230.771	-200.000	-0.016	-0.249
-229.757	-144.625	-0.426	-0.040
-228.742	181.080	0.108	0.160
-227.727	-31.996	0.228	-0.129
-226.713	529.720	0.099	-0.237
-225.698	136.763	0.169	0.223
-224.684	-123.890	-0.049	-0.008
-223.669	125.405	-0.071	-0.091
-222.655	-98.028	-0.057	0.015
-221.640	-200.000	-0.001	0.078
-220.625	413.902	0.048	0.103
-219.611	157.324	0.203	-0.284
-218.596	246.714	0.417	-0.710
-217.582	-58.086	0.323	0.142
-216.567	-200.000	0.042	0.201
-215.552	-200.000	-0.026	0.221
-214.538	-153.195	-0.481	-0.034
-213.523	9.984	-0.162	0.124
-212.509	-200.000	-0.007	-0.099
-211.494	176.164	0.233	-0.341
-210.479	-200.000	0.036	-0.241
-209.465	-200.000	-0.023	-0.140
-208.450	-160.385	0.354	0.019
-207.436	-200.000	-0.035	0.163
-206.421	-102.792	-0.257	-0.062
-205.406	-118.542	0.217	0.039
-204.392	-198.959	0.203	0.001
-203.377	74.190	0.154	-0.164
-202.363	-57.177	-0.089	0.039
-201.348	-118.239	-0.324	0.058
-200.333	57.378	0.153	0.151
-199.319	564.281	-0.040	0.097
-198.304	-200.000	0.029	0.135
-197.290	-109.742	0.098	0.021
-196.275	-1.608	-0.121	0.086
-195.260	411.695	0.048	-0.104
-194.246	85.894	0.092	0.102
-193.231	257.553	-0.085	0.148
-192.217	-200.000	0.012	-0.053
-191.202	26.641	0.135	-0.114
-190.187	-78.873	-0.068	0.023
-189.173	-96.405	-0.106	0.028
-188.158	-142.489	0.364	0.036
-187.144	-200.000	-0.020	-0.096
-186.129	-58.907	0.467	0.204
-185.114	-4.800	-0.103	-0.072
-184.100	355.630	0.096	-0.193
-183.085	595.905	0.064	-0.160
-182.071	800.000	0.089	-0.279
-181.056	14.536	0.056	-0.044
-180.042	74.110	-0.171	-0.181
-179.027	444.368	-0.153	-0.338
-178.012	-200.000	-0.005	-0.205
-176.998	74.900	0.146	0.155
-175.983	-71.936	-0.056	0.021
-174.969	452.510	0.115	-0.256
-173.954	-200.000	-0.006	-0.061
-172.939	57.929	0.166	-0.164
-171.925	-121.269	-0.270	-0.045
-170.910	58.854	0.164	0.162
-169.896	-38.028	0.311	0.166
-168.881	-107.552	-0.189	0.042
-167.866	224.702	0.079	0.129
-166.852	-200.000	-0.006	-0.291
-165.837	82.663	-0.075	-0.082
-164.823	-200.000	0.030	-0.156
-163.808	121.060	0.042	0.052
-162.793	-148.743	0.161	0.013
-161.779	-200.000	0.003	-0.090
-160.764	-140.105	-0.260	-0.028
-159.750	-200.000	0.027	0.132
-158.735	-161.027	-0.260	0.014
-157.720	715.792	-0.019	0.051
-156.706	-156.456	0.353	0.022
-155.691	-17.492	0.059	-0.037
-154.677	-77.062	0.190	0.067
-153.662	-35.528	-0.251	-0.137
-152.647	745.456	-0.099	-0.269
-151.633	33.342	0.344	0.301
-150.618	256.795	-0.165	0.286
-149.604	800.000	-0.015	0.055
-148.589	-200.000	-0.001	0.129
-147.574	635.292	0.043	-0.110
-146.560	-82.378	-0.124	0.041
-145.545	187.136	0.133	0.200
-144.531	20.442	0.151	0.123
-143.516	-28.349	-0.362	-0.211
-142.502	-158.116	-0.266	0.016
-141.487	-38.642	-0.166	-0.088
-140.472	-71.905	0.273	0.102
-139.458	-89.852	0.101	-0.030
-138.443	-72.292	-0.153	0.057
-137.429	329.883	-0.117	-0.228
-136.414	800.000	-0.108	-0.370
-135.399	51.839	0.185	0.177
-134.385	-200.000	0.039	-0.358
-133.370	289.397	-0.043	0.079
-132.356	-200.000	-0.041	0.219
-131.341	43.998	0.059	0.054
-130.326	190.575	-0.114	-0.173
-129.312	63.074	0.231	-0.233
-128.297	-200.000	-0.024	-0.230
-127.283	-134.334	0.252	-0.031
-126.268	108.671	-0.171	-0.206
-125.253	74.497	-0.171	0.181
-124.239	91.838	-0.113	-0.128
-123.224	151.909	-0.193	-0.265
-122.210	800.000	-0.083	-0.261
-121.195	208.026	-0.152	-0.240
-120.180	600.646	0.116	0.290
-119.166	154.214	-0.217	-0.299
-118.151	-200.000	-0.014	-0.248
-117.137	764.340	-0.090	-0.245
-116.122	1.372	-0.122	-0.088
-115.107	-88.121	-0.270	0.082
-114.093	96.950	-0.091	0.105
-113.078	-200.000	0.015	0.135
-112.064	-200.000	0.048	0.376
-111.049	-86.815	-0.307	0.094
-110.034	800.000	0.015	-0.046
-109.020	-66.010	-0.170	-0.068
-108.005	390.371	0.107	-0.223
-106.991	92.427	-0.183	0.208
-105.976	36.979	-0.151	0.134
-104.962	-19.049	-0.128	0.080
-103.947	800.000	-0.038	0.152
-102.932	800.000	0.069	-0.214
-101.918	-11.024	-0.234	-0.155
-100.903	32.215	0.044	-0.038
-99.889	8.940	0.153	-0.116
-98.874	129.553	-0.030	-0.038
-97.859	282.121	0.123	0.222
-96.845	800.000	-0.043	-0.192
-95.830	-53.644	0.118	0.054
-94.816	-4.400	0.194	-0.135
-93.801	-200.000	-0.006	0.099
-92.786	800.000	-0.142	0.398
-91.772	286.229	-0.112	-0.203
-90.757	-200.000	0.002	-0.165
-89.743	251.149	0.127	-0.218
-88.728	95.831	-0.101	-0.115
-87.713	9.331	-0.141	0.107
-86.699	25.547	0.338	-0.283
-85.684	32.912	0.045	0.039
-84.670	658.187	-0.046	-0.120
-83.655	212.288	-0.130	0.207
-82.640	-56.264	0.021	0.009
-81.626	-157.804	0.136	0.008
-80.611	-44.878	-0.233	0.116
-79.597	-69.592	0.170	0.065
-78.582	-200.000	0.057	0.254
-77.567	111.728	-0.086	-0.104
-76.553	-84.439	-0.167	0.053
-75.538	3.678	-0.114	0.084
-74.524	-190.355	0.318	0.003
-73.509	-76.684	-0.038	0.013
-72.494	-140.988	0.148	0.015
-71.480	29.836	-0.218	0.187
-70.465	218.878	0.055	-0.088
-69.451	70.420	-0.046	0.048
-68.436	-200.000	-0.013	0.282
-67.422	99.319	0.305	-0.354
-66.407	-200.000	-0.070	-0.332
-65.392	800.000	-0.081	-0.246
-64.378	-145.360	0.271	-0.025
-63.363	52.047	-0.289	0.277
-62.349	381.012	-0.207	-0.426
-61.334	87.402	-0.649	-0.721
-60.319	800.000	-0.056	0.208
-59.305	-200.000	-0.126	-0.984
-58.290	264.907	0.327	0.573
-57.276	800.000	0.636	1.990
-56.261	-200.000	70.863	520.800
-55.246	595.762	1268.781	3153.661
-54.232	144.531	2493.984	3344.766
-53.217	111.857	2367.687	2870.727
-52.203	51.383	2106.341	2008.515
-51.188	46.121	2011.912	1870.658
-50.173	44.307	1992.969	1836.590
-49.159	55.730	2027.088	1972.170
-48.144	61.601	2048.198	2046.060
-47.130	46.876	2013.800	1878.995
-46.115	44.055	2002.823	1843.085
-45.100	43.997	1999.688	1839.603
-44.086	43.932	1997.971	1837.359
-43.071	43.796	1995.897	1834.145
-42.057	43.761	1993.614	1831.663
-41.042	43.803	1991.259	1829.801
-40.027	43.873	1989.182	1828.453
-39.013	43.866	1987.314	1826.597
-37.998	43.887	1985.530	1825.073
-36.984	43.966	1983.535	1823.877
-35.969	43.871	1982.224	1821.747
-34.954	43.994	1980.045	1820.778
-33.940	43.930	1979.078	1819.245
-32.925	44.003	1977.121	1818.028
-31.911	43.983	1975.776	1816.540
-30.896	44.038	1973.836	1815.173
-29.881	43.969	1972.593	1813.342
-28.867	43.936	1970.977	1811.490
-27.852	43.990	1969.077	1810.155
-26.838	44.011	1966.724	1808.102
-25.823	43.978	1965.387	1806.511
-24.809	44.025	1963.526	1805.149
-23.794	44.000	1961.939	1803.393
-22.779	44.040	1959.430	1801.370
-21.765	43.997	1957.967	1799.578
-20.750	44.031	1956.619	1798.569
-19.736	43.922	1955.381	1796.388
-18.721	43.990	1953.408	1795.106
-17.706	44.067	1951.818	1794.255
-16.692	43.995	1950.103	1791.973
-15.677	43.984	1948.484	1790.322
-14.663	43.964	1947.028	1788.735
-13.648	43.938	1945.863	1787.365
-12.633	44.027	1944.652	1786.961
-11.619	43.913	1943.280	1784.628
-10.604	44.007	1941.823	1784.043
-9.590	43.961	1940.437	1782.297
-8.575	43.894	1938.952	1780.269
-7.560	43.955	1937.589	1779.487
-6.546	44.044	1936.296	1779.005
-5.531	44.024	1935.232	1777.782
-4.517	44.003	1934.118	1776.509
-3.502	43.915	1932.883	1774.534
-2.487	43.990	1931.386	1773.742
-1.473	43.999	1930.117	1772.584
-0.458	44.105	1926.426	1770.048
0.556	43.582	1907.428	1746.089
1.571	39.353	1886.792	1690.822
2.586	34.490	1906.249	1665.760
3.600	32.918	1942.658	1683.426
4.615	31.771	1939.871	1670.636
5.629	23.903	1833.858	1512.578
6.644	9.532	1700.158	1288.012
7.659	1.938	1653.175	1193.072
8.673	1.252	1649.462	1184.927
9.688	1.189	1647.681	1183.058
10.702	1.152	1646.003	1181.459
11.717	0.937	1643.587	1177.948
12.731	1.389	1642.893	1180.862
13.746	9.237	1662.041	1256.053
14.761	20.326	1686.892	1362.227
15.775	24.704	1693.891	1402.179
16.790	24.982	1693.656	1404.044
17.804	25.032	1693.784	1404.410
18.819	25.097	1692.567	1403.790
19.834	25.252	1691.363	1403.881
20.848	25.462	1690.510	1404.690
21.863	25.512	1689.600	1404.197
22.877	25.499	1688.364	1402.946
23.892	25.499	1687.693	1402.263
24.907	25.428	1687.225	1401.202
25.921	25.457	1685.758	1400.086
26.936	25.351	1685.346	1398.793
27.950	25.462	1684.087	1398.486
28.965	25.384	1683.496	1397.267
29.980	25.475	1682.436	1396.968
30.994	25.435	1681.573	1395.816
32.009	25.484	1679.811	1394.608
33.023	25.385	1679.407	1393.388
34.038	25.507	1678.544	1393.491
35.053	25.450	1677.475	1392.038
36.067	25.437	1676.305	1390.841
37.082	25.466	1675.225	1390.046
38.096	25.491	1674.523	1389.541
39.111	25.561	1673.542	1389.137
40.126	25.419	1673.067	1387.523
41.140	25.426	1672.160	1386.707
42.155	25.415	1671.163	1385.669
43.169	25.418	1669.894	1384.516
44.184	25.377	1669.022	1383.362
45.199	25.461	1667.486	1382.610
46.213	25.408	1666.696	1381.424
47.228	25.352	1665.833	1380.153
48.242	25.401	1664.390	1379.212
49.257	25.355	1663.264	1377.805
50.271	25.428	1661.866	1377.090
51.286	25.458	1660.738	1376.262
52.301	25.360	1659.662	1374.495
53.315	25.403	1657.873	1373.225
54.330	25.416	1656.703	1372.229
55.344	25.451	1655.240	1371.164
56.359	25.484	1653.772	1370.078
57.374	25.427	1653.065	1368.940
58.388	25.397	1652.056	1367.748
59.403	25.506	1650.481	1367.159
60.417	25.496	1649.713	1366.320
61.432	25.504	1648.304	1365.095
62.447	25.533	1647.582	1364.595
63.461	25.440	1646.790	1363.118
64.476	25.465	1646.279	1362.758
65.490	25.505	1644.724	1361.656
66.505	25.464	1643.394	1360.127
67.520	25.499	1642.522	1359.546
68.534	25.512	1641.485	1358.668
69.549	25.559	1640.764	1358.304
70.563	25.538	1639.455	1356.940
71.578	25.535	1638.067	1355.648
72.593	25.485	1637.512	1354.695
73.607	25.516	1636.740	1354.172
74.622	25.498	1635.873	1353.196
75.636	25.500	1634.577	1352.022
76.651	25.515	1633.875	1351.436
77.666	25.401	1633.277	1349.964
78.680	25.540	1632.110	1349.919
79.695	25.543	1630.840	1348.775
80.709	25.530	1630.336	1348.138
81.724	25.589	1629.093	1347.438
82.739	25.498	1628.821	1346.409
83.753	25.535	1628.118	1345.987
84.768	25.503	1626.780	1344.524
85.782	25.547	1625.637	1343.788
86.797	25.430	1625.312	1342.523
87.812	25.469	1624.412	1341.955
88.826	25.500	1623.143	1341.022
89.841	25.531	1622.006	1340.189
90.855	25.580	1621.213	1339.783
91.870	25.507	1620.260	1338.334
92.884	25.535	1619.417	1337.724
93.899	25.521	1618.180	1336.479
94.914	25.564	1617.094	1335.784
95.928	25.527	1615.580	1334.145
96.943	25.546	1614.504	1333.279
97.957	25.519	1613.464	1332.104
98.972	25.569	1612.107	1331.233
99.987	25.555	1611.093	1330.176
101.001	25.555	1609.261	1328.543
102.016	25.503	1607.992	1326.992
103.030	25.636	1606.219	1326.396
104.045	25.563	1604.835	1324.599
105.060	25.494	1603.864	1323.167
106.074	25.552	1602.433	1322.300
107.089	25.478	1601.782	1321.104
108.103	25.529	1600.309	1320.142
109.118	25.474	1599.833	1319.233
110.133	25.523	1598.068	1318.016
111.147	25.568	1596.745	1317.143
112.162	25.548	1595.632	1315.958
113.176	25.576	1594.701	1315.281
114.191	25.623	1593.550	1314.561
115.206	25.583	1592.610	1313.374
116.220	25.576	1591.407	1312.211
117.235	25.673	1590.186	1311.800
118.249	25.557	1589.291	1310.098
119.264	25.557	1588.349	1309.210
120.279	25.545	1587.151	1308.013
121.293	25.613	1585.765	1307.250
122.308	25.610	1584.836	1306.351
123.322	25.702	1583.092	1305.465
124.337	25.648	1582.054	1304.101
125.352	25.591	1580.960	1302.667
126.366	25.613	1580.544	1302.369
127.381	25.698	1579.203	1301.769
128.395	25.664	1578.694	1300.986
129.410	25.721	1577.217	1300.065
130.424	25.713	1575.906	1298.811
131.439	25.680	1575.131	1297.817
132.454	25.629	1574.035	1296.436
133.468	25.698	1572.649	1295.677
134.483	25.722	1571.176	1294.516
135.497	25.656	1570.136	1293.073
136.512	25.661	1569.234	1292.250
137.527	25.719	1567.595	1291.202
138.541	25.727	1566.878	1290.555
139.556	25.731	1565.256	1289.134
140.570	25.651	1564.414	1287.756
141.585	25.669	1563.141	1286.722
142.600	25.678	1562.052	1285.774
143.614	25.681	1560.838	1284.688
144.629	25.708	1560.164	1284.206
145.643	25.572	1558.995	1282.164
146.658	25.662	1557.430	1281.405
147.673	25.645	1556.190	1280.147
148.687	25.736	1554.753	1279.500
149.702	25.653	1553.743	1277.970
150.716	25.773	1552.129	1277.381
151.731	25.615	1551.583	1275.694
152.746	25.625	1550.235	1274.542
153.760	25.688	1549.139	1273.978
154.775	25.660	1548.023	1272.750
155.789	25.728	1547.011	1272.281
156.804	25.716	1546.044	1271.290
157.819	25.692	1545.201	1270.319
158.833	25.665	1544.115	1269.119
159.848	25.689	1542.944	1268.215
160.862	25.738	1542.178	1267.816
161.877	25.757	1540.769	1266.678
162.892	25.836	1540.062	1266.544
163.906	25.709	1539.547	1265.114
164.921	25.783	1538.234	1264.441
165.935	25.744	1537.472	1263.431
166.950	25.767	1536.392	1262.596
167.964	25.689	1535.917	1261.544
168.979	25.759	1534.416	1260.689
169.994	25.757	1533.790	1260.052
171.008	25.790	1533.060	1259.568
172.023	25.848	1531.685	1258.738
173.037	25.772	1530.810	1257.376
174.052	25.810	1529.482	1256.439
175.067	25.788	1528.609	1255.453
176.081	25.809	1527.789	1254.817
177.096	25.734	1526.672	1253.263
178.110	25.876	1525.624	1253.284
179.125	25.743	1524.946	1251.693
180.140	25.806	1524.062	1251.291
181.154	25.787	1523.507	1250.591
182.169	25.824	1522.290	1249.737
183.183	25.910	1520.991	1249.159
184.198	25.803	1520.284	1247.728
185.213	25.820	1519.458	1247.057
186.227	25.838	1518.288	1246.108
187.242	25.843	1517.754	1245.595
188.256	25.927	1517.175	1245.591
189.271	25.761	1516.429	1243.720
190.286	25.847	1515.208	1243.202
191.300	25.867	1514.386	1242.555
192.315	25.862	1513.418	1241.615
193.329	25.883	1512.634	1241.009
194.344	25.813	1511.706	1239.658
195.359	25.870	1511.082	1239.428
196.373	25.932	1510.350	1239.143
197.388	25.836	1509.224	1237.454
198.402	25.874	1507.979	1236.583
199.417	25.769	1507.266	1235.167
200.432	25.842	1505.980	1234.503
201.446	25.794	1505.972	1234.062
202.461	25.933	1504.641	1233.809
203.475	25.831	1503.962	1232.447
204.490	25.870	1502.934	1231.762
205.504	25.901	1501.951	1231.058
206.519	25.839	1501.006	1229.751
207.534	25.936	1500.174	1229.622
208.548	25.892	1499.704	1228.833
209.563	25.905	1498.783	1228.056
210.577	25.964	1497.604	1227.381
211.592	25.950	1497.077	1226.745
212.607	26.019	1496.139	1226.339
213.621	26.019	1495.869	1226.011
214.636	26.077	1494.865	1225.468
215.650	25.961	1494.032	1223.895
216.665	25.998	1493.299	1223.433
217.680	26.027	1492.737	1223.066
218.694	25.887	1491.991	1221.393
219.709	26.006	1491.102	1221.366
220.723	26.094	1489.910	1220.876
221.738	25.932	1489.713	1219.511
222.753	26.042	1488.316	1219.000
223.767	25.907	1487.692	1217.469
224.782	25.930	1486.647	1216.667
225.796	25.948	1486.184	1216.300
226.811	26.021	1485.008	1215.721
227.826	26.079	1484.709	1215.758
228.840	26.056	1484.055	1214.962
229.855	26.130	1483.025	1214.511
230.869	26.004	1482.293	1212.957
231.884	26.126	1481.018	1212.625
232.899	26.112	1480.185	1211.742
233.913	25.990	1479.363	1210.143
234.928	25.996	1478.242	1209.154
235.942	26.012	1477.470	1208.526
236.957	26.136	1476.460	1208.426
237.972	26.130	1475.305	1207.333
238.986	26.121	1474.385	1206.408
240.001	26.231	1473.037	1205.938
241.015	26.227	1472.158	1205.086
242.030	26.209	1471.291	1204.146
243.045	26.274	1470.436	1203.772
244.059	26.109	1470.126	1202.315
245.074	26.241	1469.027	1202.185
246.088	26.247	1467.867	1201.172
247.103	26.307	1467.185	1200.902
248.117	26.337	1466.650	1200.562
249.132	26.286	1465.744	1199.374
250.147	26.263	1465.280	1198.738
251.161	26.239	1464.557	1197.877
252.176	26.409	1463.510	1198.044
253.190	26.355	1462.942	1197.115
254.205	26.298	1462.280	1196.090
255.220	26.314	1460.961	1195.012
256.234	26.312	1460.471	1194.491
257.249	26.366	1459.246	1193.739
258.263	26.412	1458.780	1193.555
259.278	26.366	1457.932	1192.454
260.293	26.359	1457.339	1191.818
261.307	26.447	1456.711	1191.778
262.322	26.407	1455.737	1190.610
263.336	26.482	1455.079	1190.464
264.351	26.442	1454.326	1189.476
265.366	26.427	1453.357	1188.479
266.380	26.536	1452.200	1188.147
267.395	26.504	1451.446	1187.211
268.409	26.448	1450.921	1186.309
269.424	26.424	1450.060	1185.343
270.439	26.381	1449.203	1184.260
271.453	26.449	1448.061	1183.666
272.468	26.522	1447.253	1183.380
273.482	26.542	1446.345	1182.663
274.497	26.459	1446.081	1181.797
275.512	26.481	1445.337	1181.230
276.526	26.626	1444.046	1181.018
277.541	26.492	1443.654	1179.717
278.555	26.573	1442.266	1179.004
279.570	26.550	1441.777	1178.351
280.585	26.516	1441.035	1177.422
281.599	26.432	1440.638	1176.444
282.614	26.636	1439.202	1176.493
283.628	26.574	1438.275	1175.231
284.643	26.543	1437.508	1174.299
285.657	26.597	1436.579	1173.787
286.672	26.580	1435.583	1172.756
287.687	26.491	1435.686	1172.164
288.701	26.461	1434.271	1170.711
289.716	26.538	1433.745	1170.672
290.730	26.640	1432.789	1170.446
291.745	26.688	1431.523	1169.621
292.760	26.593	1430.819	1168.327
293.774	26.712	1430.168	1168.461
294.789	26.619	1429.107	1166.890
295.803	26.786	1428.384	1167.274
296.818	26.689	1427.627	1165.928
297.833	26.690	1427.028	1165.344
298.847	26.656	1426.438	1164.540
299.862	26.739	1425.245	1163.994
300.876	26.834	1424.010	1163.492
301.891	26.843	1423.095	1162.701
302.906	26.738	1422.555	1161.479
303.920	26.691	1422.237	1160.815
304.935	26.777	1421.459	1160.632
305.949	26.757	1420.902	1159.946
306.964	26.798	1420.207	1159.536
307.979	26.769	1419.297	1158.508
308.993	26.850	1418.129	1157.970
310.008	26.898	1417.370	1157.553
311.022	26.874	1416.482	1156.569
312.037	26.868	1415.692	1155.786
313.052	26.795	1415.202	1154.817
314.066	26.848	1413.669	1153.804
315.081	26.974	1412.364	1153.435
316.095	26.880	1411.761	1152.246
317.110	26.816	1411.057	1151.161
318.125	26.873	1410.157	1150.690
319.139	26.904	1409.329	1150.106
320.154	26.858	1408.553	1149.079
321.168	26.851	1407.981	1148.469
322.183	26.881	1406.986	1147.746
323.197	26.935	1406.055	1147.227
324.212	26.899	1405.290	1146.271
325.227	26.929	1404.572	1145.771
326.241	26.985	1403.483	1145.139
327.256	27.021	1403.079	1144.937
328.270	27.046	1402.355	1144.399
329.285	27.062	1401.343	1143.570
330.300	27.080	1400.337	1142.765
331.314	27.041	1399.600	1141.812
332.329	26.933	1399.318	1140.806
333.343	27.106	1397.927	1140.657
334.358	27.090	1397.792	1140.348
335.373	27.119	1397.164	1139.915
336.387	26.979	1396.519	1138.411
337.402	27.045	1395.719	1138.070
338.416	27.164	1394.922	1138.065
339.431	27.052	1394.912	1137.252
340.446	27.054	1394.113	1136.513
341.460	27.164	1392.847	1136.068
342.475	27.220	1391.965	1135.600
343.489	27.220	1391.069	1134.769
344.504	27.244	1389.983	1133.931
345.519	27.248	1389.391	1133.376
346.533	27.243	1388.454	1132.474
347.548	27.305	1387.397	1131.904
348.562	27.237	1386.998	1131.051
349.577	27.203	1386.280	1130.155
350.592	27.218	1385.382	1129.417
351.606	27.259	1384.225	1128.627
352.621	27.104	1384.006	1127.386
353.635	27.143	1382.815	1126.561
354.650	27.222	1382.268	1126.502
355.665	27.200	1381.409	1125.566
356.679	27.331	1380.099	1125.212
357.694	27.283	1378.838	1123.787
358.708	27.334	1377.875	1123.215
359.723	27.334	1376.860	1122.290
360.738	27.341	1375.543	1121.158
361.752	27.398	1374.665	1120.695
362.767	27.266	1373.790	1119.070
363.781	27.438	1372.612	1119.070
364.796	27.406	1372.060	1118.326
365.810	27.461	1371.475	1118.085
366.825	27.411	1370.758	1117.096
367.840	27.472	1370.096	1116.831
368.854	27.450	1369.170	1115.843
369.869	27.474	1369.032	1115.781
370.883	27.539	1368.186	1115.389
371.898	27.508	1367.764	1114.758
372.913	27.549	1366.935	1114.233
373.927	27.542	1365.940	1113.281
374.942	27.518	1365.386	1112.587
375.956	27.619	1364.832	1112.650
376.971	27.495	1363.765	1110.926
377.986	27.539	1362.737	1110.262
379.000	27.535	1362.160	1109.667
380.015	27.637	1361.547	1109.688
381.029	27.640	1361.095	1109.243
382.044	27.614	1360.228	1108.278
383.059	27.597	1359.711	1107.658
384.073	27.662	1359.079	1107.437
385.088	27.617	1358.483	1106.579
386.102	27.741	1357.702	1106.596
387.117	27.664	1357.313	1105.714
388.132	27.703	1356.484	1105.178
389.146	27.608	1355.858	1103.996
390.161	27.714	1355.154	1103.966
391.175	27.828	1354.522	1104.041
392.190	27.656	1354.174	1102.624
393.205	27.794	1352.707	1102.165
394.219	27.665	1352.270	1100.930
395.234	27.628	1351.212	1099.751
396.248	27.716	1350.256	1099.405
397.263	27.765	1349.217	1098.759
398.278	27.849	1347.426	1097.709
399.292	27.799	1346.868	1096.852
400.307	27.846	1346.377	1096.637
401.321	27.901	1345.134	1095.862
402.336	27.854	1344.040	1094.589
403.350	27.816	1343.382	1093.730
404.365	27.782	1342.811	1092.966
405.380	27.876	1341.691	1092.516
406.394	27.911	1340.767	1091.881
407.409	27.942	1340.101	1091.423
408.423	27.889	1339.461	1090.491
409.438	27.905	1339.061	1090.166
410.453	28.072	1337.983	1090.188
411.467	27.915	1337.602	1088.843
412.482	27.991	1337.014	1088.721
413.496	28.022	1336.105	1088.070
414.511	28.025	1335.501	1087.497
415.526	28.021	1334.727	1086.747
416.540	28.019	1334.013	1086.058
417.555	27.986	1333.156	1085.071
418.569	28.036	1332.966	1085.116
419.584	27.977	1332.217	1084.057
420.599	27.979	1331.878	1083.699
421.613	69.192	1306.954	1296.647
422.628	69.900	1303.308	1296.789
