DTS Sentinel unit serial number:	SN413079Multiplexer serial number:	ORYXHardware model number:	OX4-SRSoftware version number:	ORYX F/W v4.00 Oryx Data Collector v3.7.2.0data status	okinstallation	princeton_trtdifferential loss correction	single-endedforward channel	channel 4reverse channel	N/Adate	2019/09/18time	10:05:34forward acquisition time	60.00reverse acquisition time	0.00gamma	496.2192k internal	0.2318k external	0.2318temperature offset calibration	0.9984default loss term (dB/km)	0.3790temperature slope calibration	1.0000multiplexer offset coefficient	1.0000multiplexer slope coefficient	1.0000fibre end	0.00T internal ref (°C)	27.61T ext. ref 1 (°C)	0.32T ext. ref 2 (°C)	24.10length (m)	temperature (°C)	Stokes	anti-Stokes-747.200	-132.387	0.327	0.043
-746.185	-9.358	0.253	0.171
-745.171	293.636	-0.139	0.257
-744.156	-90.182	0.242	0.071
-743.142	800.000	-0.075	-0.290
-742.127	-200.000	-0.025	0.340
-741.112	121.483	-0.190	-0.240
-740.098	100.491	0.129	-0.152
-739.083	-200.000	-0.006	-0.120
-738.069	-24.126	-0.407	0.246
-737.054	-200.000	0.007	-0.229
-736.039	526.792	0.093	-0.221
-735.025	-111.009	0.024	-0.005
-734.010	2.938	0.384	-0.282
-732.996	-200.000	-0.022	-0.113
-731.981	-23.369	-0.127	0.077
-730.966	-48.075	-0.155	0.076
-729.952	-106.314	-0.649	-0.147
-728.937	15.747	0.074	-0.059
-727.923	422.484	0.061	-0.133
-726.908	-41.580	-0.270	-0.141
-725.894	-120.128	0.176	-0.030
-724.879	-0.874	-0.202	-0.145
-723.864	-102.036	0.278	-0.068
-722.850	103.315	-0.171	-0.203
-721.835	-48.534	-0.176	0.086
-720.821	-200.000	-0.001	0.156
-719.806	-123.187	0.215	0.035
-718.791	-52.082	-0.193	-0.090
-717.777	-200.000	0.012	0.057
-716.762	547.303	-0.109	-0.264
-715.748	-173.998	-0.115	0.003
-714.733	-170.353	-0.116	0.004
-713.718	27.123	-0.124	-0.105
-712.704	-150.982	-0.461	-0.035
-711.689	3.010	-0.233	-0.171
-710.675	512.806	0.097	0.228
-709.660	-164.677	-0.312	0.014
-708.645	-60.734	-0.262	-0.112
-707.631	-131.700	0.089	0.012
-706.616	2.655	0.179	-0.131
-705.602	-125.648	0.202	-0.031
-704.587	-200.000	-0.012	0.052
-703.572	107.503	0.124	-0.149
-702.558	-85.322	-0.027	0.008
-701.543	92.429	-0.335	0.382
-700.529	133.950	-0.210	-0.274
-699.514	-189.368	-0.151	0.002
-698.499	-163.426	-0.326	0.016
-697.485	-200.000	-0.003	-0.296
-696.470	356.152	-0.168	-0.338
-695.456	-172.504	-0.227	-0.007
-694.441	800.000	-0.012	-0.046
-693.426	-200.000	0.037	-0.187
-692.412	800.000	-0.057	-0.246
-691.397	478.791	0.103	-0.236
-690.383	-102.528	-0.554	0.134
-689.368	607.418	-0.050	-0.125
-688.354	-129.154	0.326	0.046
-687.339	374.105	-0.013	0.028
-686.324	-69.026	-0.101	0.039
-685.310	-200.000	0.013	-0.140
-684.295	-89.175	0.354	0.106
-683.281	-200.000	0.031	0.220
-682.266	16.625	-0.340	-0.271
-681.251	35.656	-0.206	-0.183
-680.237	-50.168	-0.299	0.143
-679.222	117.623	0.130	0.162
-678.208	456.809	-0.183	0.410
-677.193	337.324	-0.082	-0.160
-676.178	167.651	-0.188	0.269
-675.164	281.530	0.080	-0.145
-674.149	800.000	-0.047	-0.161
-673.135	785.200	-0.085	0.236
-672.120	-39.316	-0.166	0.088
-671.105	-200.000	-0.019	0.219
-670.091	-42.748	-0.071	0.036
-669.076	626.475	-0.094	-0.240
-668.062	13.416	-0.254	0.199
-667.047	81.148	0.089	0.097
-666.032	-165.742	-0.171	-0.007
-665.018	791.291	0.143	-0.396
-664.003	-35.334	-0.263	-0.144
-662.989	-5.087	-0.224	-0.156
-661.974	800.000	-0.059	-0.199
-660.959	83.873	0.129	0.142
-659.945	286.731	0.214	-0.390
-658.930	-20.058	0.323	-0.201
-657.916	-45.082	0.117	0.059
-656.901	-155.595	0.082	0.005
-655.886	-134.400	0.050	0.006
-654.872	50.909	0.112	0.107
-653.857	-200.000	-0.045	-0.272
-652.843	-136.511	0.374	0.044
-651.828	-200.000	-0.070	-0.476
-650.814	48.463	-0.111	-0.104
-649.799	23.204	0.133	0.110
-648.784	-58.009	0.144	0.063
-647.770	-47.673	0.220	-0.108
-646.755	111.657	-0.329	-0.400
-645.741	70.257	-0.180	-0.188
-644.726	-52.321	0.099	0.046
-643.711	-200.000	0.043	0.291
-642.697	-157.439	-0.562	-0.034
-641.682	206.869	-0.216	0.340
-640.668	58.730	0.233	-0.230
-639.653	-37.111	-0.134	-0.072
-638.638	-197.987	0.049	-0.000
-637.624	-179.591	-0.285	-0.006
-636.609	428.552	0.085	-0.186
-635.595	-174.050	-0.190	0.006
-634.580	302.101	-0.060	0.111
-633.565	800.000	-0.032	0.093
-632.551	513.648	0.215	0.505
-631.536	800.000	-0.096	0.293
-630.522	-165.704	-0.024	0.001
-629.507	341.135	-0.120	-0.236
-628.492	-7.093	0.137	-0.093
-627.478	-153.687	-0.222	0.015
-626.463	9.115	0.060	0.046
-625.449	-139.409	0.254	0.027
-624.434	537.944	-0.112	0.268
-623.419	-36.807	0.112	-0.061
-622.405	91.822	0.129	0.146
-621.390	-32.795	-0.159	-0.089
-620.376	44.166	0.067	-0.062
-619.361	316.910	-0.115	0.219
-618.346	10.026	-0.222	-0.170
-617.332	292.383	0.145	-0.266
-616.317	-167.942	-0.116	-0.005
-615.303	-200.000	0.039	-0.258
-614.288	800.000	0.070	-0.216
-613.273	114.068	-0.224	0.274
-612.259	-3.127	-0.136	-0.096
-611.244	-81.287	-0.263	-0.087
-610.230	-84.410	-0.182	-0.058
-609.215	27.072	0.266	0.225
-608.201	505.699	-0.118	0.276
-607.186	17.742	-0.171	0.137
-606.171	239.304	-0.028	0.047
-605.157	256.334	-0.129	-0.224
-604.142	19.049	0.143	-0.116
-603.128	-134.516	0.146	0.018
-602.113	117.830	0.053	0.066
-601.098	-97.609	-0.292	0.076
-600.084	-200.000	0.039	0.197
-599.069	114.805	0.245	0.301
-598.055	-200.000	-0.005	0.101
-597.040	-74.736	0.406	-0.147
-596.025	179.101	0.217	-0.319
-595.011	800.000	-0.016	-0.060
-593.996	-200.000	0.006	0.139
-592.982	710.995	0.120	-0.318
-591.967	320.747	0.129	-0.246
-590.952	123.534	0.180	-0.227
-589.938	-84.051	-0.285	-0.091
-588.923	-200.000	-0.024	-0.110
-587.909	88.741	0.176	-0.197
-586.894	-130.424	-0.224	-0.031
-585.879	292.545	0.066	0.120
-584.865	192.663	0.151	0.229
-583.850	19.340	-0.138	0.112
-582.836	-200.000	-0.331	0.000
-581.821	122.268	0.114	0.143
-580.806	124.602	-0.074	-0.093
-579.792	800.000	0.052	-0.151
-578.777	26.568	0.132	-0.111
-577.763	-150.445	0.238	0.018
-576.748	470.657	-0.072	0.163
-575.733	-78.228	-0.318	0.110
-574.719	-200.000	0.046	0.412
-573.704	622.153	-0.011	-0.027
-572.690	-142.764	-0.213	0.021
-571.675	52.171	0.087	-0.083
-570.661	-200.000	-0.019	-0.309
-569.646	800.000	0.018	0.074
-568.631	-110.702	-0.223	-0.046
-567.617	-41.407	-0.214	-0.111
-566.602	-200.000	-0.015	0.207
-565.588	-200.000	0.078	-0.418
-564.573	46.180	0.191	0.178
-563.558	-120.878	0.394	0.067
-562.544	-7.822	-0.401	0.272
-561.529	278.333	-0.175	0.312
-560.515	-151.752	0.403	0.030
-559.500	-176.137	-0.314	0.008
-558.485	-138.561	0.523	0.058
-557.471	74.573	-0.140	-0.148
-556.456	-180.705	0.197	-0.004
-555.442	378.708	0.117	-0.240
-554.427	570.611	0.056	0.137
-553.412	170.672	-0.049	-0.071
-552.398	237.966	0.194	0.324
-551.383	-122.471	-0.177	0.029
-550.369	-169.517	0.027	0.001
-549.354	800.000	0.042	0.129
-548.339	-11.821	0.198	-0.130
-547.325	-20.133	0.228	-0.141
-546.310	200.554	0.069	-0.107
-545.296	-200.000	0.015	-0.076
-544.281	-75.345	0.111	0.040
-543.266	43.671	0.265	-0.244
-542.252	67.626	-0.074	0.076
-541.237	28.317	0.170	-0.145
-540.223	-200.000	-0.013	-0.258
-539.208	-200.000	-0.055	-0.372
-538.193	565.078	0.066	0.160
-537.179	49.652	-0.222	-0.210
-536.164	-200.000	-0.068	-0.349
-535.150	-127.942	0.224	0.032
-534.135	-200.000	0.044	0.438
-533.121	-123.792	-0.315	-0.050
-532.106	-97.585	-0.213	0.056
-531.091	800.000	0.060	0.186
-530.077	-129.149	0.145	0.020
-529.062	800.000	0.115	0.329
-528.048	93.602	-0.254	0.289
-527.033	-106.409	-0.094	0.021
-526.018	45.084	-0.183	0.169
-525.004	268.221	-0.198	-0.349
-523.989	466.316	-0.085	-0.190
-522.975	31.287	-0.039	-0.034
-521.960	-14.868	0.121	-0.078
-520.945	-200.000	0.017	0.132
-519.931	51.849	-0.088	-0.084
-518.916	800.000	0.051	0.209
-517.902	227.232	0.169	0.275
-516.887	-126.330	0.048	-0.007
-515.872	-200.000	-0.057	-0.253
-514.858	74.298	-0.198	0.209
-513.843	632.461	0.047	-0.120
-512.829	72.461	0.047	-0.049
-511.814	27.665	-0.207	-0.175
-510.799	272.473	-0.192	-0.340
-509.785	258.257	-0.105	-0.182
-508.770	249.816	-0.097	0.165
-507.756	800.000	-0.082	-0.239
-506.741	509.249	-0.038	-0.088
-505.726	174.613	-0.074	0.107
-504.712	0.046	-0.117	-0.084
-503.697	155.826	0.135	0.187
-502.683	174.621	0.085	-0.124
-501.668	-98.792	-0.161	0.041
-500.653	-200.000	0.007	-0.209
-499.639	42.154	0.156	-0.142
-498.624	239.981	-0.140	0.233
-497.610	405.571	0.043	-0.092
-496.595	169.770	0.157	0.225
-495.581	-174.543	-0.156	-0.004
-494.566	-200.000	0.005	0.411
-493.551	-13.265	-0.072	-0.047
-492.537	-86.616	-0.133	-0.041
-491.522	-200.000	0.019	0.120
-490.508	800.000	0.093	0.267
-489.493	592.349	0.102	0.251
-488.478	370.839	0.137	-0.278
-487.464	-126.799	0.036	0.005
-486.449	148.663	0.154	0.208
-485.435	-114.219	-0.337	0.065
-484.420	-34.203	-0.228	-0.126
-483.405	-171.395	0.256	0.009
-482.391	647.747	-0.155	0.397
-481.376	149.317	-0.100	-0.135
-480.362	106.925	-0.181	-0.216
-479.347	-195.911	-0.067	-0.000
-478.332	-79.630	-0.037	-0.013
-477.318	121.189	0.073	0.091
-476.303	87.155	-0.216	0.239
-475.289	-68.927	0.273	0.106
-474.274	108.826	-0.092	0.110
-473.259	6.950	-0.060	-0.045
-472.245	-88.885	0.556	-0.165
-471.230	-88.787	0.200	0.059
-470.216	-200.000	-0.011	-0.211
-469.201	186.956	-0.125	0.186
-468.186	2.599	0.204	0.148
-467.172	-146.673	-0.292	0.025
-466.157	104.191	-0.149	-0.175
-465.143	-200.000	0.027	-0.215
-464.128	800.000	0.035	-0.139
-463.113	567.314	-0.050	0.120
-462.099	196.014	-0.167	0.255
-461.084	800.000	-0.030	0.107
-460.070	-200.000	-0.013	0.072
-459.055	800.000	-0.012	-0.038
-458.040	-200.000	0.074	0.478
-457.026	-99.120	0.081	0.021
-456.011	-62.911	-0.158	-0.065
-454.997	102.424	-0.227	-0.266
-453.982	-106.623	0.282	0.063
-452.968	-200.000	-0.034	-0.157
-451.953	217.341	-0.123	-0.196
-450.938	-10.717	-0.254	0.168
-449.924	-24.550	-0.042	0.025
-448.909	-128.539	-0.201	-0.028
-447.895	-114.268	-0.108	-0.021
-446.880	-145.911	-0.084	-0.007
-445.865	-200.000	-0.056	-0.326
-444.851	-125.791	0.086	0.013
-443.836	800.000	-0.096	0.289
-442.822	-68.710	-0.248	-0.096
-441.807	263.305	-0.019	0.033
-440.792	-12.053	-0.215	0.141
-439.778	-40.743	0.084	-0.044
-438.763	-7.176	-0.303	-0.205
-437.749	800.000	-0.085	0.261
-436.734	161.052	0.203	0.284
-435.719	253.338	0.142	-0.242
-434.705	-44.679	-0.338	-0.169
-433.690	-97.643	-0.122	-0.032
-432.676	-200.000	-0.031	0.138
-431.661	-147.135	-0.097	-0.008
-430.646	-200.000	0.008	-0.201
-429.632	-62.164	-0.108	-0.045
-428.617	242.258	0.036	-0.059
-427.603	70.367	-0.151	-0.156
-426.588	800.000	-0.105	-0.331
-425.573	-103.442	0.092	-0.022
-424.559	15.981	0.237	-0.187
-423.544	-41.528	0.247	0.127
-422.530	206.038	-0.172	-0.267
-421.515	800.000	0.159	0.481
-420.500	-37.345	0.133	0.071
-419.486	-200.000	-0.061	-0.346
-418.471	204.640	-0.244	0.379
-417.457	109.258	0.137	-0.164
-416.442	5.827	-0.288	-0.213
-415.428	345.086	-0.089	-0.175
-414.413	125.541	-0.231	-0.292
-413.398	-102.849	0.185	0.044
-412.384	800.000	0.066	0.187
-411.369	254.163	0.212	0.362
-410.355	-200.000	-0.047	0.258
-409.340	311.943	-0.094	-0.177
-408.325	-107.632	0.134	0.029
-407.311	143.277	0.198	-0.264
-406.296	243.280	0.088	-0.147
-405.282	21.223	0.169	-0.137
-404.267	-200.000	-0.005	0.079
-403.252	78.415	0.052	-0.056
-402.238	-155.419	-0.383	-0.025
-401.223	-86.977	0.118	0.036
-400.209	-22.946	0.306	0.184
-399.194	-200.000	-0.002	0.145
-398.179	-22.813	0.444	-0.267
-397.165	355.845	-0.059	-0.118
-396.150	51.820	0.174	-0.165
-395.136	-57.274	-0.051	-0.022
-394.121	-92.551	-0.205	0.057
-393.106	127.654	-0.083	0.106
-392.092	-200.000	-0.256	-0.000
-391.077	41.731	0.068	-0.061
-390.063	-120.671	-0.213	0.036
-389.048	45.969	0.150	0.139
-388.033	-200.000	0.020	-0.196
-387.019	-102.393	0.200	-0.048
-386.004	119.601	0.023	0.028
-384.990	800.000	-0.084	-0.332
-383.975	259.715	-0.081	-0.140
-382.960	85.116	-0.166	-0.181
-381.946	-77.436	0.412	0.143
-380.931	26.228	0.173	-0.144
-379.917	-192.628	0.132	-0.001
-378.902	259.120	-0.277	-0.476
-377.888	-200.000	-0.006	0.084
-376.873	95.906	0.359	0.409
-375.858	267.897	0.119	-0.208
-374.844	-130.165	-0.317	-0.043
-373.829	800.000	0.083	0.291
-372.815	358.403	-0.128	-0.255
-371.800	-104.496	0.114	0.026
-370.785	144.969	0.032	0.042
-369.771	-200.000	-0.021	-0.205
-368.756	-68.223	0.266	-0.103
-367.742	-13.553	-0.212	0.137
-366.727	-176.086	-0.113	0.003
-365.712	-120.545	-0.477	-0.081
-364.698	-200.000	0.011	-0.142
-363.683	-200.000	0.036	0.236
-362.669	78.104	0.097	0.103
-361.654	322.839	0.084	-0.159
-360.639	-10.696	0.101	0.067
-359.625	800.000	-0.092	-0.338
-358.610	-22.964	-0.141	0.085
-357.596	66.702	-0.123	0.124
-356.581	-33.629	0.137	0.075
-355.566	-81.034	0.062	-0.020
-354.552	163.425	-0.139	-0.194
-353.537	-35.170	0.134	-0.073
-352.523	-160.033	0.199	0.011
-351.508	6.568	-0.153	0.113
-350.493	-189.389	-0.280	0.003
-349.479	-200.000	0.037	-0.246
-348.464	181.725	-0.065	0.096
-347.450	-81.417	0.196	0.064
-346.435	40.338	0.112	0.101
-345.420	91.998	-0.275	-0.308
-344.406	114.686	0.078	-0.095
-343.391	-119.222	0.281	0.049
-342.377	-67.777	0.080	-0.031
-341.362	257.687	-0.155	-0.266
-340.348	19.228	0.074	-0.059
-339.333	93.613	0.223	-0.251
-338.318	143.729	-0.032	0.042
-337.304	48.143	-0.227	-0.211
-336.289	340.043	0.077	0.150
-335.275	-24.327	0.303	0.180
-334.260	-116.091	0.227	0.042
-333.245	-200.000	-0.038	0.207
-332.231	-186.035	-0.172	-0.003
-331.216	-200.000	0.035	0.206
-330.202	-200.000	-0.097	-0.511
-329.187	73.729	-0.079	-0.082
-328.172	-55.900	0.140	0.062
-327.158	-121.995	0.219	-0.036
-326.143	-200.000	-0.075	0.343
-325.129	-106.390	-0.275	-0.061
-324.114	565.242	0.085	-0.205
-323.099	170.540	-0.277	-0.394
-322.085	-99.381	0.232	-0.058
-321.070	-200.000	-0.002	0.142
-320.056	-156.480	-0.526	0.033
-319.041	-110.776	0.057	-0.012
-318.026	800.000	0.068	-0.285
-317.012	-61.224	0.072	-0.030
-315.997	35.414	0.345	0.302
-314.983	-50.936	0.160	-0.075
-313.968	-91.934	0.224	-0.063
-312.953	-34.483	-0.295	-0.161
-311.939	-46.530	-0.320	0.156
-310.924	-113.657	0.106	-0.021
-309.910	-72.319	0.140	-0.052
-308.895	43.644	0.252	-0.229
-307.880	-99.856	0.229	-0.057
-306.866	-200.000	-0.015	-0.173
-305.851	213.892	0.102	0.161
-304.837	-37.342	0.292	-0.155
-303.822	118.907	-0.020	0.025
-302.807	-20.643	-0.412	0.252
-301.793	198.557	0.107	0.162
-300.778	-200.000	-0.013	-0.445
-299.764	25.699	0.214	-0.177
-298.749	-143.305	0.251	0.024
-297.735	70.554	0.091	0.094
-296.720	-28.654	-0.268	-0.154
-295.705	-71.044	-0.078	0.029
-294.691	329.638	0.083	0.159
-293.676	-66.876	0.109	0.043
-292.662	184.060	-0.051	0.075
-291.647	-46.650	-0.365	0.178
-290.632	-60.307	0.382	0.162
-289.618	-200.000	0.009	-0.122
-288.603	130.175	-0.198	-0.253
-287.589	-12.948	-0.259	0.168
-286.574	-86.602	-0.259	-0.079
-285.559	28.302	0.179	0.150
-284.545	-77.088	0.126	-0.044
-283.530	84.576	0.104	0.113
-282.516	798.438	0.075	0.205
-281.501	-64.858	-0.318	0.128
-280.486	142.399	-0.021	0.027
-279.472	-80.693	0.165	-0.055
-278.457	-118.075	-0.136	0.024
-277.443	18.593	-0.249	0.198
-276.428	110.294	0.166	-0.198
-275.413	-164.279	0.386	-0.018
-274.399	30.211	-0.104	-0.088
-273.384	15.376	0.238	-0.186
-272.370	205.555	-0.110	-0.170
-271.355	800.000	-0.101	-0.280
-270.340	536.495	-0.040	0.093
-269.326	-20.266	-0.196	-0.120
-268.311	478.857	0.063	-0.141
-267.297	289.782	0.067	-0.120
-266.282	800.000	0.058	-0.172
-265.267	51.021	-0.151	-0.142
-264.253	-64.815	-0.205	0.082
-263.238	723.309	-0.132	0.348
-262.224	61.731	-0.188	0.186
-261.209	337.575	0.192	0.371
-260.195	-200.000	0.025	0.353
-259.180	716.292	-0.064	0.167
-258.165	96.784	0.244	-0.277
-257.151	-118.334	-0.494	0.087
-256.136	-13.282	0.305	-0.197
-255.122	40.158	-0.212	0.189
-254.107	-145.905	-0.022	0.002
-253.092	488.028	-0.171	0.389
-252.078	-104.504	0.049	-0.011
-251.063	60.120	0.383	-0.376
-250.049	111.506	-0.180	0.216
-249.034	-200.000	0.034	0.261
-248.019	39.618	0.076	0.067
-247.005	-199.989	0.272	0.001
-245.990	-121.097	0.509	-0.085
-244.976	-60.722	-0.572	-0.241
-243.961	686.566	-0.076	0.198
-242.946	-130.151	0.277	0.038
-241.932	-18.572	-0.228	0.141
-240.917	279.890	0.062	0.111
-239.903	800.000	-0.049	-0.202
-238.888	394.333	0.075	-0.155
-237.873	143.143	0.096	0.127
-236.859	-200.000	0.018	-0.295
-235.844	800.000	-0.073	0.209
-234.830	-200.000	0.013	0.120
-233.815	800.000	-0.045	-0.142
-232.800	800.000	-0.054	-0.164
-231.786	32.406	0.128	0.110
-230.771	299.229	-0.114	-0.209
-229.757	501.083	-0.050	-0.115
-228.742	6.446	-0.059	0.044
-227.727	-200.000	-0.009	-0.065
-226.713	369.795	-0.107	-0.215
-225.698	57.100	-0.116	-0.112
-224.684	800.000	0.079	0.291
-223.669	-39.464	-0.329	0.171
-222.655	-81.679	0.270	0.088
-221.640	-200.000	0.014	0.138
-220.625	-200.000	0.026	-0.145
-219.611	800.000	0.027	-0.100
-218.596	475.404	0.085	0.189
-217.582	-161.712	0.225	0.011
-216.567	800.000	-0.019	-0.070
-215.552	-200.000	-0.009	-0.196
-214.538	-200.000	0.023	0.100
-213.523	-29.634	0.118	0.067
-212.509	8.179	0.320	-0.238
-211.494	-38.454	0.308	-0.161
-210.479	28.639	0.230	-0.193
-209.465	52.790	0.203	0.193
-208.450	-31.541	-0.169	-0.094
-207.436	-200.000	-0.229	0.000
-206.421	-15.821	0.089	0.056
-205.406	224.954	-0.068	0.110
-204.392	-200.000	-0.061	0.334
-203.377	50.528	0.111	0.104
-202.363	-200.000	-0.013	-0.289
-201.348	153.774	0.077	-0.105
-200.333	-74.706	0.192	-0.068
-199.319	-152.683	0.391	-0.028
-198.304	128.468	-0.088	0.111
-197.290	800.000	0.051	0.177
-196.275	800.000	-0.069	0.229
-195.260	31.404	-0.248	-0.211
-194.246	21.192	-0.264	0.213
-193.231	-38.151	0.248	0.130
-192.217	62.482	-0.186	0.184
-191.202	1.920	0.376	0.269
-190.187	389.747	0.105	0.215
-189.173	-200.000	-0.024	-0.228
-188.158	277.209	-0.152	-0.268
-187.144	101.004	0.148	0.171
-186.129	-25.913	0.132	-0.077
-185.114	-31.375	0.184	0.102
-184.100	238.095	-0.073	0.120
-183.085	-200.000	0.002	0.163
-182.071	170.760	-0.044	-0.063
-181.056	-200.000	0.004	0.098
-180.042	-27.296	-0.277	-0.160
-179.027	-49.015	0.268	0.127
-178.012	-76.106	-0.145	-0.051
-176.998	348.658	-0.135	0.264
-175.983	-200.000	0.110	0.482
-174.969	223.870	0.101	0.162
-173.954	295.757	-0.108	0.195
-172.939	266.209	0.081	0.140
-171.925	-98.582	0.074	-0.019
-170.910	167.160	-0.141	-0.198
-169.896	35.327	-0.103	-0.089
-168.881	-34.619	0.271	0.147
-167.866	106.876	0.156	-0.183
-166.852	-175.033	-0.230	0.006
-165.837	293.263	0.087	0.158
-164.823	-14.574	0.329	0.209
-163.808	32.957	-0.133	0.114
-162.793	108.660	0.104	0.123
-161.779	-155.410	-0.340	0.022
-160.764	-36.644	0.188	-0.100
-159.750	800.000	-0.044	0.126
-158.735	305.574	-0.123	-0.226
-157.720	55.423	0.122	0.117
-156.706	327.570	0.141	0.268
-155.691	67.267	0.199	0.201
-154.677	22.952	0.090	0.073
-153.662	298.424	-0.138	-0.251
-152.647	139.651	0.014	-0.019
-151.633	-106.655	0.097	-0.021
-150.618	800.000	-0.119	-0.468
-149.604	170.286	0.123	-0.174
-148.589	-119.034	-0.147	-0.025
-147.574	68.475	-0.148	0.150
-146.560	-100.887	0.133	-0.032
-145.545	-18.091	0.008	-0.005
-144.531	800.000	0.097	0.331
-143.516	-200.000	0.031	-0.300
-142.502	-82.887	-0.192	-0.061
-141.487	102.208	-0.159	-0.183
-140.472	521.761	-0.057	-0.132
-139.458	800.000	-0.080	-0.240
-138.443	83.661	0.067	-0.073
-137.429	-99.312	0.186	0.046
-136.414	-200.000	0.005	0.271
-135.399	-183.256	-0.060	-0.001
-134.385	-125.676	-0.369	-0.055
-133.370	273.365	0.127	0.222
-132.356	-43.179	0.304	-0.152
-131.341	-200.000	0.056	-0.268
-130.326	302.065	0.082	0.150
-129.312	38.700	0.151	0.133
-128.297	-200.000	-0.016	0.217
-127.283	157.018	0.138	0.189
-126.268	-84.937	0.352	0.109
-125.253	-62.431	-0.229	-0.094
-124.239	-15.640	-0.209	0.132
-123.224	-25.757	0.103	-0.060
-122.210	-69.277	-0.204	0.077
-121.195	37.896	0.156	0.137
-120.180	-150.612	0.281	-0.021
-119.166	105.620	-0.148	-0.173
-118.151	59.114	-0.064	0.063
-117.137	85.181	0.094	0.101
-116.122	800.000	0.047	-0.178
-115.107	398.839	0.106	0.219
-114.093	57.500	-0.106	0.102
-113.078	438.317	-0.041	0.087
-112.064	4.847	0.102	0.074
-111.049	-28.724	0.251	0.143
-110.034	45.842	-0.112	-0.102
-109.020	156.683	-0.065	-0.089
-108.005	31.042	-0.103	0.088
-106.991	154.732	0.039	-0.053
-105.976	-169.313	0.327	-0.012
-104.962	25.074	-0.064	-0.052
-103.947	-200.000	-0.017	0.322
-102.932	-85.614	-0.242	0.074
-101.918	-56.901	-0.360	0.157
-100.903	-200.000	-0.008	0.042
-99.889	-200.000	-0.021	-0.093
-98.874	641.770	0.070	0.175
-97.859	7.372	0.040	0.029
-96.845	316.670	0.042	-0.079
-95.830	84.488	0.036	-0.039
-94.816	800.000	-0.076	0.321
-93.801	-200.000	0.008	-0.129
-92.786	784.722	-0.070	-0.189
-91.772	40.989	-0.255	0.227
-90.757	-59.093	0.209	0.089
-89.743	568.603	-0.161	0.386
-88.728	-26.773	-0.276	-0.159
-87.713	-200.000	-0.026	0.136
-86.699	554.931	-0.104	-0.247
-85.684	-77.621	0.221	-0.076
-84.670	139.770	-0.258	-0.335
-83.655	-49.276	-0.070	0.033
-82.640	130.623	0.203	0.256
-81.626	-200.000	0.029	0.171
-80.611	331.382	0.126	0.239
-79.597	712.850	-0.104	0.271
-78.582	519.248	0.071	0.164
-77.567	37.125	-0.080	-0.070
-76.553	54.374	-0.078	0.074
-75.538	132.053	0.129	0.164
-74.524	-117.528	0.325	-0.058
-73.509	-20.118	0.204	0.124
-72.494	48.474	-0.219	0.202
-71.480	40.449	0.203	0.180
-70.465	733.275	-0.062	-0.162
-69.451	-144.530	-0.079	0.007
-68.436	-31.397	-0.095	0.052
-67.422	15.192	-0.092	-0.071
-66.407	176.632	0.218	-0.313
-65.392	257.260	0.108	-0.183
-64.378	-166.754	0.313	-0.013
-63.363	-148.846	-0.241	0.019
-62.349	112.733	0.073	0.087
-61.334	26.922	-0.915	-0.756
-60.319	54.967	0.828	0.788
-59.305	81.135	-0.827	-0.880
-58.290	428.492	0.592	1.259
-57.276	-200.000	0.329	1.449
-56.261	-200.000	110.444	603.985
-55.246	428.207	1519.931	3233.208
-54.232	140.426	2711.364	3525.103
-53.217	92.490	2357.669	2619.001
-52.203	33.923	2103.143	1803.400
-51.188	29.274	2015.568	1685.832
-50.173	27.892	1998.455	1658.904
-49.159	44.533	2054.729	1859.358
-48.144	44.387	2071.178	1872.826
-47.130	29.805	2031.359	1703.662
-46.115	27.572	2020.605	1674.086
-45.100	27.505	2017.557	1670.886
-44.086	27.500	2015.380	1668.968
-43.071	27.413	2013.276	1666.366
-42.057	27.296	2010.884	1663.251
-41.042	27.401	2009.504	1662.998
-40.027	27.437	2007.149	1661.313
-39.013	27.519	2004.770	1660.022
-37.998	27.552	2003.345	1659.080
-36.984	27.567	2001.588	1657.691
-35.969	27.494	1999.734	1655.427
-34.954	27.482	1998.059	1653.871
-33.940	27.583	1996.480	1653.412
-32.925	27.609	1994.522	1651.960
-31.911	27.536	1992.716	1649.740
-30.896	27.651	1990.651	1649.008
-29.881	27.576	1989.954	1647.685
-28.867	27.601	1988.346	1646.517
-27.852	27.675	1986.123	1645.275
-26.838	27.640	1984.652	1643.675
-25.823	27.708	1982.558	1642.485
-24.809	27.601	1981.008	1640.178
-23.794	27.653	1978.752	1638.713
-22.779	27.663	1977.043	1637.317
-21.765	27.598	1975.540	1635.427
-20.750	27.628	1973.751	1634.153
-19.736	27.558	1972.445	1632.375
-18.721	27.652	1970.752	1631.750
-17.706	27.622	1968.990	1629.960
-16.692	27.675	1967.363	1629.022
-15.677	27.568	1966.201	1627.040
-14.663	27.672	1964.443	1626.449
-13.648	27.629	1963.984	1625.624
-12.633	27.644	1962.127	1624.151
-11.619	27.640	1960.840	1622.991
-10.604	27.717	1959.006	1622.087
-9.590	27.677	1957.516	1620.434
-8.575	27.594	1957.020	1619.224
-7.560	27.673	1954.988	1618.176
-6.546	27.651	1953.697	1616.847
-5.531	27.653	1952.365	1615.705
-4.517	27.598	1951.098	1614.099
-3.502	27.569	1950.874	1613.598
-2.487	27.596	1949.330	1612.495
-1.473	27.743	1947.801	1612.461
-0.458	27.813	1942.696	1608.791
0.556	26.153	1923.921	1583.672
1.571	22.431	1906.289	1536.600
2.586	18.807	1930.405	1523.816
3.600	17.926	1966.300	1544.052
4.615	17.653	1960.345	1536.778
5.629	13.766	1857.516	1422.765
6.644	5.443	1737.380	1263.621
7.659	0.830	1700.605	1200.226
8.673	0.342	1697.300	1193.919
9.688	0.376	1696.181	1193.295
10.702	0.375	1694.667	1192.116
11.717	0.198	1690.722	1187.842
12.731	0.742	1690.348	1191.766
13.746	6.819	1704.185	1249.598
14.761	14.500	1719.215	1321.599
15.775	16.983	1721.947	1343.271
16.790	16.708	1720.550	1339.883
17.804	16.002	1717.015	1331.437
18.819	14.959	1714.330	1321.006
19.834	14.396	1711.878	1314.559
20.848	14.096	1709.774	1310.460
21.863	13.841	1708.863	1307.640
22.877	13.632	1706.814	1304.308
23.892	13.321	1705.012	1300.372
24.907	13.204	1704.254	1298.763
25.921	13.149	1703.149	1297.375
26.936	13.196	1702.131	1296.852
27.950	13.247	1701.305	1296.506
28.965	13.249	1700.965	1296.151
29.980	13.360	1700.262	1296.371
30.994	13.326	1699.524	1295.425
32.009	13.445	1698.112	1295.167
33.023	13.478	1697.111	1294.546
34.038	13.501	1696.228	1293.939
35.053	13.426	1695.389	1292.596
36.067	13.394	1693.959	1291.141
37.082	13.350	1693.024	1289.967
38.096	13.342	1692.462	1289.367
39.111	13.432	1691.282	1289.055
40.126	13.393	1690.800	1288.271
41.140	13.423	1689.633	1287.496
42.155	13.313	1688.194	1285.432
43.169	13.156	1687.047	1283.231
44.184	13.138	1686.018	1282.193
45.199	13.176	1684.855	1281.487
46.213	13.176	1683.119	1280.057
47.228	13.224	1681.929	1279.408
48.242	13.236	1680.571	1278.354
49.257	13.278	1679.528	1277.775
50.271	13.306	1678.506	1277.096
51.286	13.233	1676.931	1275.226
52.301	13.278	1675.591	1274.441
53.315	13.335	1674.256	1273.750
54.330	13.323	1672.583	1272.268
55.344	13.228	1671.004	1270.227
56.359	13.333	1669.240	1269.584
57.374	13.261	1668.500	1268.351
58.388	13.292	1667.041	1267.373
59.403	13.172	1666.224	1265.718
60.417	13.138	1664.225	1263.829
61.432	13.161	1663.302	1263.188
62.447	13.239	1661.816	1262.547
63.461	13.137	1660.952	1260.995
64.476	13.116	1659.669	1259.752
65.490	13.190	1658.610	1259.404
66.505	13.166	1657.473	1258.242
67.520	13.151	1656.445	1257.235
68.534	13.155	1655.680	1256.576
69.549	13.164	1654.280	1255.472
70.563	13.184	1653.328	1254.787
71.578	13.218	1651.299	1253.393
72.593	13.166	1650.434	1252.233
73.607	13.066	1649.599	1250.732
74.622	13.132	1648.266	1250.110
75.636	13.056	1647.895	1249.145
76.651	13.043	1646.836	1248.131
77.666	13.058	1645.480	1247.106
78.680	13.118	1644.443	1246.664
79.695	13.062	1643.587	1245.484
80.709	13.057	1642.776	1244.719
81.724	13.189	1641.762	1244.839
82.739	13.159	1641.227	1244.091
83.753	13.225	1639.887	1243.466
84.768	13.196	1638.876	1242.369
85.782	13.297	1638.079	1242.417
86.797	13.273	1637.446	1241.642
87.812	13.280	1636.194	1240.641
88.826	13.232	1634.743	1239.069
89.841	13.140	1634.242	1237.892
90.855	13.224	1632.901	1237.393
91.870	13.273	1632.146	1237.076
92.884	13.244	1630.905	1235.814
93.899	13.404	1629.468	1235.807
94.914	13.337	1628.670	1234.592
95.928	13.375	1627.550	1233.915
96.943	13.312	1626.553	1232.586
97.957	13.289	1624.405	1230.676
98.972	13.340	1622.960	1229.852
99.987	13.347	1621.271	1228.517
101.001	13.336	1619.842	1227.243
102.016	13.298	1618.476	1225.814
103.030	13.277	1616.942	1224.388
104.045	13.343	1615.850	1223.944
105.060	13.373	1613.711	1222.436
106.074	13.271	1612.886	1220.953
107.089	13.290	1611.131	1219.654
108.103	13.156	1609.781	1217.538
109.118	13.191	1608.212	1216.504
110.133	13.198	1606.922	1215.470
111.147	13.178	1605.254	1213.954
112.162	13.116	1604.362	1212.716
113.176	13.169	1602.619	1211.678
114.191	13.150	1601.594	1210.656
115.206	13.250	1600.208	1210.235
116.220	13.233	1599.074	1209.147
117.235	13.307	1597.210	1208.173
118.249	13.277	1596.360	1207.204
119.264	13.245	1594.856	1205.726
120.279	13.166	1593.949	1204.352
121.293	13.240	1591.953	1203.281
122.308	13.258	1590.523	1202.226
123.322	13.200	1589.318	1200.782
124.337	13.217	1587.302	1199.276
125.352	13.145	1586.144	1197.774
126.366	13.211	1584.712	1197.066
127.381	13.199	1583.261	1195.777
128.395	13.214	1582.332	1195.078
129.410	13.192	1580.670	1193.556
130.424	13.219	1579.260	1192.579
131.439	13.199	1578.144	1191.491
132.454	13.194	1577.315	1190.726
133.468	13.308	1575.114	1189.773
134.483	13.285	1573.650	1188.401
135.497	13.230	1572.760	1187.229
136.512	13.289	1571.542	1186.626
137.527	13.341	1569.763	1185.548
138.541	13.306	1568.365	1184.142
139.556	13.271	1566.828	1182.626
140.570	13.392	1565.124	1182.100
141.585	13.406	1564.053	1181.286
142.600	13.393	1562.795	1180.134
143.614	13.411	1561.884	1179.475
144.629	13.411	1560.597	1178.400
145.643	13.496	1559.055	1177.734
146.658	13.458	1557.937	1176.514
147.673	13.510	1556.491	1175.688
148.687	13.438	1555.229	1174.116
149.702	13.537	1552.939	1172.985
150.716	13.436	1551.975	1171.440
151.731	13.500	1550.050	1170.336
152.746	13.495	1548.971	1169.382
153.760	13.606	1547.103	1168.650
154.775	13.473	1546.522	1167.170
155.789	13.529	1544.913	1166.249
156.804	13.451	1543.790	1164.751
157.819	13.554	1542.797	1164.622
158.833	13.558	1541.701	1163.720
159.848	13.622	1540.154	1162.899
160.862	13.656	1538.864	1162.059
161.877	13.541	1537.644	1160.230
162.892	13.597	1536.264	1159.479
163.906	13.501	1535.113	1157.837
164.921	13.520	1533.873	1156.933
165.935	13.554	1532.561	1156.074
166.950	13.610	1531.647	1155.671
167.964	13.591	1530.482	1154.559
168.979	13.609	1529.543	1153.876
169.994	13.528	1528.650	1152.536
171.008	13.592	1527.661	1152.131
172.023	13.632	1526.099	1151.130
173.037	13.635	1525.007	1150.229
174.052	13.682	1523.766	1149.516
175.067	13.706	1523.032	1149.026
176.081	13.816	1521.610	1148.613
177.096	13.662	1520.368	1146.510
178.110	13.688	1519.027	1145.579
179.125	13.705	1517.706	1144.592
180.140	13.681	1516.668	1143.545
181.154	13.658	1516.076	1142.836
182.169	13.704	1514.500	1141.864
183.183	13.802	1513.252	1141.497
184.198	13.806	1512.073	1140.537
185.213	13.870	1511.259	1140.264
186.227	13.853	1510.161	1139.217
187.242	13.849	1509.232	1138.385
188.256	13.886	1507.903	1137.537
189.271	13.923	1506.961	1136.977
190.286	13.883	1506.219	1136.045
191.300	13.918	1504.977	1135.244
192.315	13.834	1503.406	1133.386
193.329	13.742	1501.989	1131.592
194.344	13.742	1501.212	1130.908
195.359	13.761	1500.007	1130.026
196.373	13.926	1498.602	1129.993
197.388	13.891	1497.892	1129.117
198.402	13.953	1496.625	1128.483
199.417	13.932	1495.731	1127.566
200.432	13.938	1494.358	1126.472
201.446	14.056	1493.869	1126.808
202.461	14.116	1491.967	1125.678
203.475	14.089	1490.988	1124.656
204.490	14.116	1489.678	1123.751
205.504	14.118	1488.714	1122.936
206.519	14.084	1487.752	1121.882
207.534	14.068	1486.273	1120.564
208.548	14.061	1485.379	1119.742
209.563	14.090	1484.331	1119.044
210.577	14.134	1483.247	1118.425
211.592	14.094	1482.521	1117.513
212.607	14.155	1482.060	1117.472
213.621	14.149	1481.338	1116.793
214.636	14.144	1480.297	1115.877
215.650	14.171	1479.508	1115.363
216.665	14.197	1478.453	1114.643
217.680	14.241	1477.396	1114.040
218.694	14.287	1476.701	1113.727
219.709	14.314	1475.483	1112.892
220.723	14.360	1474.619	1112.450
221.738	14.344	1473.592	1111.469
222.753	14.210	1473.190	1110.170
223.767	14.310	1471.922	1109.782
224.782	14.311	1470.832	1108.872
225.796	14.367	1470.235	1108.697
226.811	14.326	1469.499	1107.772
227.826	14.339	1468.537	1107.034
228.840	14.504	1467.452	1107.209
229.855	14.423	1466.587	1105.922
230.869	14.382	1465.294	1104.582
231.884	14.381	1464.475	1103.858
232.899	14.405	1462.833	1102.681
233.913	14.404	1461.683	1101.709
234.928	14.403	1460.683	1100.849
235.942	14.329	1459.792	1099.592
236.957	14.318	1458.685	1098.594
237.972	14.334	1457.195	1097.476
238.986	14.431	1455.863	1097.015
240.001	14.399	1455.191	1096.203
241.015	14.480	1454.211	1095.899
242.030	14.528	1453.045	1095.240
243.045	14.538	1452.202	1094.569
244.059	14.474	1451.511	1093.533
245.074	14.603	1450.502	1093.523
246.088	14.573	1449.589	1092.543
247.103	14.584	1448.844	1091.954
248.117	14.649	1448.176	1091.782
249.132	14.742	1446.902	1091.331
250.147	14.651	1446.710	1090.496
251.161	14.670	1446.022	1090.001
252.176	14.838	1445.476	1090.593
253.190	14.759	1444.763	1089.440
254.205	14.822	1443.359	1088.698
255.220	14.822	1442.401	1087.877
256.234	14.882	1442.025	1087.892
257.249	14.843	1441.070	1086.815
258.263	14.871	1440.554	1086.518
259.278	14.907	1439.739	1086.035
260.293	14.919	1438.615	1085.171
261.307	14.858	1437.702	1083.990
262.322	15.043	1436.749	1084.373
263.336	15.054	1436.168	1083.915
264.351	14.942	1435.459	1082.558
265.366	15.041	1434.168	1082.126
266.380	15.149	1432.998	1081.846
267.395	15.177	1431.645	1080.909
268.409	15.121	1430.725	1079.761
269.424	15.053	1430.115	1078.766
270.439	15.002	1429.376	1077.783
271.453	15.128	1428.124	1077.552
272.468	15.030	1427.323	1076.223
273.482	15.033	1426.496	1075.525
274.497	15.068	1425.582	1074.967
275.512	15.122	1424.634	1074.502
276.526	15.129	1423.778	1073.804
277.541	15.102	1422.538	1072.602
278.555	15.186	1421.808	1072.497
279.570	15.159	1421.267	1071.817
280.585	15.269	1420.139	1071.575
281.599	15.291	1419.595	1071.215
282.614	15.218	1418.527	1069.844
283.628	15.248	1417.291	1069.009
284.643	15.224	1416.035	1067.817
285.657	15.204	1414.880	1066.724
286.672	15.289	1413.822	1066.369
287.687	15.357	1413.097	1066.160
288.701	15.299	1411.901	1064.796
289.716	15.364	1411.255	1064.627
290.730	15.388	1410.725	1064.287
291.745	15.320	1409.958	1063.182
292.760	15.350	1408.804	1062.406
293.774	15.451	1407.841	1062.227
294.789	15.429	1406.481	1060.970
295.803	15.537	1405.798	1061.043
296.818	15.459	1405.244	1060.038
297.833	15.413	1404.047	1058.748
298.847	15.432	1403.003	1057.988
299.862	15.431	1402.005	1057.138
300.876	15.513	1401.011	1056.808
301.891	15.524	1399.802	1055.875
302.906	15.585	1399.180	1055.697
303.920	15.495	1398.780	1054.736
304.935	15.532	1397.938	1054.239
305.949	15.586	1397.138	1053.878
306.964	15.680	1395.960	1053.485
307.979	15.643	1395.122	1052.530
308.993	15.733	1393.799	1051.999
310.008	15.747	1392.967	1051.368
311.022	15.667	1391.729	1049.842
312.037	15.754	1390.954	1049.709
313.052	15.714	1390.452	1048.986
314.066	15.783	1388.905	1048.157
315.081	15.668	1388.633	1047.138
316.095	15.756	1386.930	1046.310
317.110	15.809	1385.886	1045.764
318.125	15.647	1385.227	1044.164
319.139	15.720	1384.595	1044.050
320.154	15.697	1383.356	1042.880
321.168	15.780	1382.230	1042.450
322.183	15.747	1381.205	1041.382
323.197	15.819	1380.401	1041.127
324.212	15.769	1379.346	1039.931
325.227	15.777	1378.960	1039.599
326.241	15.690	1378.161	1038.370
327.256	15.902	1376.627	1038.429
328.270	15.910	1375.754	1037.726
329.285	15.825	1375.510	1036.930
330.300	15.857	1374.500	1036.274
331.314	15.914	1373.253	1035.590
332.329	15.866	1372.311	1034.493
333.343	15.983	1371.104	1034.211
334.358	15.886	1370.419	1033.007
335.373	15.900	1369.495	1032.306
336.387	15.929	1368.574	1031.699
337.402	15.928	1368.406	1031.471
338.416	16.012	1367.757	1031.409
339.431	15.974	1367.525	1030.908
340.446	16.108	1366.208	1030.641
341.460	16.011	1365.204	1029.201
342.475	16.191	1363.810	1029.156
343.489	16.183	1363.006	1028.414
344.504	16.105	1362.439	1027.418
345.519	16.138	1361.335	1026.693
346.533	16.256	1360.202	1026.468
347.548	16.168	1359.586	1025.379
348.562	16.249	1358.678	1025.095
349.577	16.308	1358.030	1024.869
350.592	16.271	1357.165	1023.905
351.606	16.257	1356.236	1023.027
352.621	16.260	1354.943	1021.979
353.635	16.337	1353.602	1021.341
354.650	16.192	1353.435	1020.247
355.665	16.153	1352.226	1019.012
356.679	16.204	1351.365	1018.583
357.694	16.240	1350.618	1018.148
358.708	16.273	1349.095	1017.109
359.723	16.354	1347.661	1016.422
360.738	16.340	1346.809	1015.607
361.752	16.330	1345.800	1014.697
362.767	16.411	1344.274	1013.944
363.781	16.425	1343.996	1013.727
364.796	16.427	1343.219	1013.062
365.810	16.417	1342.614	1012.458
366.825	16.428	1341.492	1011.588
367.840	16.438	1340.971	1011.163
368.854	16.429	1340.457	1010.635
369.869	16.583	1339.421	1010.681
370.883	16.540	1339.058	1010.065
371.898	16.563	1338.350	1009.578
372.913	16.460	1337.482	1008.217
373.927	16.482	1336.432	1007.471
374.942	16.622	1335.486	1007.499
375.956	16.609	1334.890	1006.881
376.971	16.646	1333.872	1006.244
377.986	16.644	1333.468	1005.841
379.000	16.591	1332.949	1005.043
380.015	16.716	1331.394	1004.524
381.029	16.709	1330.650	1003.836
382.044	16.852	1329.763	1003.925
383.059	16.761	1329.556	1003.137
384.073	16.753	1328.893	1002.504
385.088	16.790	1328.210	1002.118
386.102	16.892	1327.364	1001.991
387.117	16.847	1326.477	1000.971
388.132	16.804	1325.865	1000.163
389.146	16.873	1324.811	999.691
390.161	16.801	1324.010	998.571
391.175	16.861	1323.599	998.528
392.190	16.871	1322.396	997.590
393.205	16.885	1321.547	996.941
394.219	16.878	1320.476	996.005
395.234	16.917	1319.331	995.285
396.248	17.035	1317.813	994.741
397.263	16.852	1316.933	992.920
398.278	16.899	1315.688	992.166
399.292	16.907	1314.603	991.309
400.307	16.944	1313.145	990.337
401.321	16.986	1311.926	989.573
402.336	16.967	1311.432	989.002
403.350	17.007	1310.222	988.233
404.365	16.883	1309.286	986.721
405.380	16.972	1308.488	986.547
406.394	16.989	1307.625	985.908
407.409	17.088	1306.864	985.825
408.423	17.170	1305.931	985.507
409.438	17.102	1305.263	984.525
410.453	17.161	1304.935	984.530
411.467	17.132	1304.062	983.619
412.482	17.216	1303.540	983.624
413.496	17.306	1302.538	983.299
414.511	17.380	1301.803	983.086
415.526	17.279	1300.914	981.745
416.540	17.344	1300.226	981.516
417.555	17.289	1300.139	981.041
418.569	17.342	1298.964	980.378
419.584	17.449	1298.632	980.656
420.599	17.370	1297.915	979.573
421.613	96.428	1358.432	1477.300
422.628	94.707	1367.216	1477.412
