DTS Sentinel unit serial number:	SN413079Multiplexer serial number:	ORYXHardware model number:	OX4-SRSoftware version number:	ORYX F/W v4.00 Oryx Data Collector v3.7.2.0data status	okinstallation	princeton_trtdifferential loss correction	single-endedforward channel	channel 4reverse channel	N/Adate	2019/09/12time	19:15:19forward acquisition time	15.00reverse acquisition time	0.00gamma	496.2192k internal	0.2308k external	0.2308temperature offset calibration	1.0142default loss term (dB/km)	0.3790temperature slope calibration	1.0000multiplexer offset coefficient	1.0000multiplexer slope coefficient	1.0000fibre end	0.00T internal ref (°C)	32.50T ext. ref 1 (°C)	3.20T ext. ref 2 (°C)	27.04length (m)	temperature (°C)	Stokes	anti-Stokes-747.200	800.000	-0.154	-0.649
-746.185	-200.000	0.024	-0.309
-745.171	382.454	-0.213	0.444
-744.156	202.902	-0.343	-0.538
-743.142	-200.000	-0.097	0.993
-742.127	223.384	-0.319	0.523
-741.112	-200.000	0.087	-0.425
-740.098	-200.000	-0.017	-0.731
-739.083	800.000	0.119	-0.451
-738.069	-67.104	0.263	0.105
-737.054	800.000	-0.144	0.517
-736.039	-92.921	-0.778	0.221
-735.025	-200.000	0.002	0.092
-734.010	-128.386	-0.629	-0.091
-732.996	19.347	-0.412	0.336
-731.981	-79.108	0.650	0.224
-730.966	58.293	0.524	0.522
-729.952	-76.610	-0.333	0.119
-728.937	207.717	-0.386	-0.611
-727.923	389.368	0.256	-0.539
-726.908	222.162	0.364	0.594
-725.894	82.979	0.067	0.074
-724.879	134.657	-0.422	-0.556
-723.864	-54.565	0.405	-0.186
-722.850	23.790	-0.332	-0.278
-721.835	800.000	0.127	0.401
-720.821	44.352	0.090	-0.084
-719.806	180.973	-0.332	-0.495
-718.791	-0.514	0.301	-0.217
-717.777	-200.000	0.091	-0.496
-716.762	49.649	-0.754	-0.721
-715.748	-71.568	-0.448	-0.170
-714.733	800.000	-0.145	0.549
-713.718	-88.275	0.322	0.098
-712.704	-133.204	-0.233	-0.030
-711.689	-79.239	-1.302	0.448
-710.675	-68.739	-0.150	-0.059
-709.660	-83.776	-0.203	0.066
-708.645	432.399	-0.064	-0.140
-707.631	-200.000	-0.007	-0.557
-706.616	-106.707	0.675	0.152
-705.602	39.835	0.724	0.659
-704.587	36.990	0.473	-0.425
-703.572	-200.000	-0.163	-1.051
-702.558	351.812	0.094	-0.190
-701.543	-42.841	0.679	-0.350
-700.529	527.951	-0.158	0.378
-699.514	-120.129	-0.595	0.103
-698.499	-150.785	0.865	-0.067
-697.485	-82.172	0.287	-0.095
-696.470	223.439	-0.349	0.571
-695.456	-121.067	-0.461	-0.078
-694.441	113.712	-0.608	0.749
-693.426	-61.968	0.269	0.114
-692.412	-168.151	-0.335	-0.013
-691.397	-42.867	-0.390	0.201
-690.383	233.334	0.530	-0.884
-689.368	38.162	0.084	-0.076
-688.354	214.786	0.227	-0.365
-687.339	-99.045	0.060	-0.015
-686.324	-11.825	0.699	-0.465
-685.310	75.605	-0.263	0.282
-684.295	800.000	-0.178	-0.692
-683.281	103.446	-0.325	0.386
-682.266	-39.122	-0.542	0.289
-681.251	283.285	0.197	-0.358
-680.237	-161.652	-0.091	0.005
-679.222	-13.273	-0.856	0.564
-678.208	271.398	0.091	-0.163
-677.193	-36.063	-0.953	0.522
-676.178	-70.595	0.245	-0.094
-675.164	-200.000	0.044	0.273
-674.149	800.000	0.180	0.668
-673.135	191.388	0.443	0.676
-672.120	-200.000	-0.009	0.593
-671.105	0.129	0.458	0.331
-670.091	157.205	-0.052	-0.072
-669.076	599.254	0.087	-0.219
-668.062	54.762	0.760	0.743
-667.047	800.000	0.145	-0.567
-666.032	-200.000	-0.061	0.482
-665.018	-200.000	-0.066	-0.870
-664.003	221.109	0.165	-0.269
-662.989	-200.000	-0.069	-0.333
-661.974	-200.000	0.005	-0.256
-660.959	-145.797	-1.087	-0.098
-659.945	-90.174	-0.568	0.167
-658.930	15.734	-0.184	-0.147
-657.916	-71.310	0.697	-0.265
-656.901	662.534	-0.142	0.371
-655.886	-200.000	0.014	-0.086
-654.872	-50.259	-0.276	0.132
-653.857	42.893	0.274	0.253
-652.843	-11.167	-0.227	-0.152
-651.828	26.640	0.583	-0.495
-650.814	-200.000	0.023	-0.309
-649.799	17.125	0.437	0.351
-648.784	120.134	-0.362	0.454
-647.770	-145.657	-0.511	-0.046
-646.755	742.852	-0.204	0.556
-645.741	-148.924	-1.202	-0.098
-644.726	60.346	-0.060	-0.060
-643.711	79.031	0.440	0.477
-642.697	474.140	0.189	0.431
-641.682	800.000	-0.206	0.736
-640.668	-200.000	-0.021	-0.457
-639.653	-121.683	0.510	0.085
-638.638	-72.490	0.481	-0.180
-637.624	-70.147	0.577	0.222
-636.609	-12.076	0.316	0.209
-635.595	-115.235	-0.493	-0.094
-634.580	92.405	0.403	0.460
-633.565	-70.949	0.205	-0.078
-632.551	105.755	0.491	0.588
-631.536	-94.113	-0.715	-0.198
-630.522	-70.380	-0.651	0.250
-629.507	800.000	-0.308	-0.910
-628.492	-84.723	0.661	-0.210
-627.478	478.779	-0.234	-0.536
-626.463	680.265	-0.060	-0.157
-625.449	-144.493	0.278	-0.026
-624.434	800.000	-0.159	-0.545
-623.419	-48.413	-0.930	0.453
-622.405	-5.607	0.670	0.465
-621.390	-75.529	-0.699	-0.251
-620.376	-3.957	-0.799	0.561
-619.361	10.495	-0.385	0.297
-618.346	464.992	0.538	-1.218
-617.332	-116.629	0.501	-0.093
-616.317	-200.000	0.121	0.956
-615.303	149.378	0.285	-0.390
-614.288	-127.465	0.105	0.015
-613.273	-109.655	0.693	-0.148
-612.259	95.308	-0.151	-0.174
-611.244	22.581	-0.126	-0.104
-610.230	276.858	0.363	-0.652
-609.215	322.699	-0.204	-0.392
-608.201	-200.000	-0.417	0.002
-607.186	149.746	0.205	0.281
-606.171	-39.883	0.355	0.188
-605.157	-0.384	0.102	-0.073
-604.142	524.612	0.079	0.188
-603.128	24.543	0.782	-0.654
-602.113	-28.312	0.500	-0.292
-601.098	800.000	0.301	-1.119
-600.084	-200.000	-0.043	-0.277
-599.069	-200.000	0.008	0.487
-598.055	-66.554	0.904	-0.363
-597.040	-93.649	0.441	-0.123
-596.025	-174.142	0.452	-0.013
-595.011	800.000	-0.196	-0.794
-593.996	427.205	0.156	0.341
-592.982	50.990	0.451	0.432
-591.967	-30.894	-0.679	0.387
-590.952	-78.019	0.070	0.024
-589.938	-146.012	0.443	-0.040
-588.923	54.869	0.315	0.307
-587.909	534.826	-0.426	1.020
-586.894	-139.854	-0.367	-0.039
-585.879	800.000	0.310	1.307
-584.865	9.932	-0.503	-0.386
-583.850	-79.670	0.269	0.092
-582.836	-109.970	-0.368	-0.078
-581.821	-130.061	0.266	0.037
-580.806	-77.034	0.532	0.187
-579.792	800.000	0.075	-0.244
-578.777	-200.000	-0.008	-0.116
-577.763	-58.973	-0.819	-0.357
-576.748	-25.844	0.988	0.588
-575.733	115.558	-0.268	0.331
-574.719	-51.990	0.259	0.122
-573.704	119.647	0.600	0.751
-572.690	75.703	0.025	-0.026
-571.675	-11.202	0.481	0.320
-570.661	-92.414	0.247	0.070
-569.646	-200.000	-0.055	-0.384
-568.631	-169.231	-0.639	-0.024
-567.617	149.404	0.463	-0.632
-566.602	800.000	-0.318	-1.402
-565.588	-200.000	-0.024	-0.205
-564.573	-197.798	0.686	0.004
-563.558	-114.420	-0.187	-0.036
-562.544	-119.449	-1.086	-0.190
-561.529	-82.458	0.257	-0.084
-560.515	-52.528	-0.481	-0.224
-559.500	-200.000	-0.125	-0.663
-558.485	45.489	0.281	-0.261
-557.471	151.947	0.333	0.458
-556.456	-20.037	0.247	0.154
-555.442	-9.301	0.343	-0.231
-554.427	258.149	-0.316	-0.550
-553.412	19.324	0.369	0.299
-552.398	-179.368	0.412	0.009
-551.383	111.686	-0.162	0.197
-550.369	64.704	0.249	0.253
-549.354	-200.000	0.114	0.529
-548.339	160.474	-0.098	0.138
-547.325	-113.385	-0.623	0.123
-546.310	-200.000	0.016	-0.602
-545.296	-110.822	0.478	-0.099
-544.281	-49.142	0.097	-0.047
-543.266	108.108	0.391	0.471
-542.252	43.743	0.601	0.555
-541.237	30.445	-0.325	-0.280
-540.223	277.473	0.215	-0.386
-539.208	137.475	-0.388	-0.512
-538.193	-200.000	0.021	-0.433
-537.179	800.000	0.102	0.391
-536.164	-200.000	0.032	-0.203
-535.150	-131.856	-0.496	0.065
-534.135	-200.000	0.009	-0.064
-533.121	-150.132	0.775	0.061
-532.106	-117.304	-0.545	-0.100
-531.091	-200.000	0.098	0.503
-530.077	-173.738	-0.527	0.016
-529.062	520.304	-0.075	-0.177
-528.048	113.215	-0.568	0.694
-527.033	-200.000	0.085	0.418
-526.018	315.328	-0.453	0.860
-525.004	-114.247	-0.941	-0.183
-523.989	-5.544	-0.498	0.344
-522.975	98.543	0.144	0.167
-521.960	800.000	-0.100	0.301
-520.945	648.179	0.013	0.033
-519.931	-200.000	-0.011	-0.120
-518.916	-200.000	-0.257	-1.143
-517.902	-2.716	0.023	0.016
-516.887	-71.461	-0.222	0.084
-515.872	18.439	-0.494	0.398
-514.858	-90.059	0.436	0.128
-513.843	265.065	-0.240	0.421
-512.829	-135.598	0.681	-0.081
-511.814	800.000	-0.336	1.048
-510.799	232.030	-0.527	0.871
-509.785	-57.003	0.755	-0.335
-508.770	-200.000	0.136	-0.681
-507.756	22.696	-0.373	-0.307
-506.741	59.990	0.198	0.197
-505.726	-200.000	0.126	-0.573
-504.712	-28.424	0.395	-0.229
-503.697	59.938	-0.317	-0.315
-502.683	350.060	0.195	0.387
-501.668	33.695	0.360	-0.315
-500.653	152.452	-0.757	-1.040
-499.639	260.419	-0.405	-0.705
-498.624	-12.935	-0.424	-0.278
-497.610	707.546	-0.121	-0.321
-496.595	-6.476	-0.639	-0.438
-495.581	-15.077	0.621	-0.400
-494.566	-142.157	-0.542	-0.054
-493.551	105.354	0.207	0.247
-492.537	-89.953	0.194	-0.057
-491.522	-86.897	0.661	0.203
-490.508	526.204	0.343	0.813
-489.493	-200.000	0.014	-0.384
-488.478	-200.000	0.034	-0.465
-487.464	-200.000	-0.091	1.084
-486.449	81.618	-0.354	0.386
-485.435	48.878	-0.338	0.319
-484.420	-39.167	-0.349	-0.185
-483.405	97.649	0.412	0.477
-482.391	-200.000	0.057	0.981
-481.376	800.000	-0.102	0.301
-480.362	-77.238	-0.444	0.156
-479.347	-200.000	-0.014	-0.327
-478.332	-45.244	0.449	0.224
-477.318	-200.000	0.085	0.818
-476.303	-187.457	-0.887	0.012
-475.289	800.000	-0.129	-0.536
-474.274	-48.859	-0.622	-0.300
-473.259	-79.725	0.627	0.213
-472.245	8.012	-0.721	0.544
-471.230	571.731	0.152	0.371
-470.216	243.109	0.339	0.571
-469.201	-127.762	-0.748	-0.109
-468.186	59.861	0.451	0.448
-467.172	53.377	-0.573	0.553
-466.157	0.038	0.369	-0.264
-465.143	-113.907	-0.422	-0.082
-464.128	43.836	-0.532	0.489
-463.113	41.842	0.284	0.259
-462.099	800.000	0.224	-0.808
-461.084	152.683	0.180	-0.248
-460.070	146.089	0.460	0.620
-459.055	-55.890	0.739	-0.331
-458.040	-124.451	0.718	-0.112
-457.026	-67.314	-0.711	-0.281
-456.011	-200.000	-0.021	-0.613
-454.997	33.925	0.429	-0.376
-453.982	100.796	0.252	-0.294
-452.968	-25.027	-0.408	0.243
-451.953	-200.000	0.024	-0.672
-450.938	-49.794	-0.194	0.093
-449.924	-169.594	-0.823	-0.030
-448.909	135.296	0.236	0.308
-447.895	-69.001	0.508	0.197
-446.880	-99.141	-1.083	0.275
-445.865	-200.000	-0.032	-0.415
-444.851	-10.862	-0.262	-0.174
-443.836	800.000	-0.166	-0.600
-442.822	73.276	-0.212	0.223
-441.807	-63.014	0.576	-0.239
-440.792	-104.784	-0.184	0.043
-439.778	-110.503	0.924	-0.192
-438.763	13.858	0.407	-0.318
-437.749	-200.000	-0.082	-0.472
-436.734	464.492	-0.240	0.539
-435.719	-43.461	0.661	0.336
-434.705	83.517	0.349	-0.382
-433.690	800.000	0.286	-1.050
-432.676	-92.670	-0.236	-0.067
-431.661	299.862	-0.133	0.245
-430.646	482.457	-0.192	-0.438
-429.632	-200.000	-0.008	0.873
-428.617	800.000	-0.332	0.925
-427.603	55.034	-0.462	-0.448
-426.588	179.133	0.150	-0.221
-425.573	800.000	-0.067	-0.189
-424.559	-200.000	-0.099	-0.511
-423.544	-79.649	-0.665	0.225
-422.530	-200.000	-0.010	-0.870
-421.515	-68.460	0.630	-0.245
-420.500	-18.596	-0.391	0.245
-419.486	25.211	0.379	0.316
-418.471	-80.062	0.354	0.119
-417.457	90.454	0.453	-0.508
-416.442	209.365	0.180	-0.284
-415.428	-34.941	0.651	-0.356
-414.413	-6.969	-0.241	-0.164
-413.398	800.000	-0.076	-0.263
-412.384	800.000	-0.101	-0.308
-411.369	-29.198	-0.369	0.212
-410.355	-200.000	-0.055	-0.312
-409.340	-92.624	-0.366	-0.103
-408.325	-52.405	0.982	0.456
-407.311	-165.756	-0.234	-0.010
-406.296	-49.398	-0.242	0.116
-405.282	800.000	-0.146	-0.432
-404.267	63.239	0.218	0.219
-403.252	-200.000	-0.018	-0.364
-402.238	-48.611	-0.246	-0.118
-401.223	109.051	0.256	-0.307
-400.209	-145.989	-0.692	0.061
-399.194	214.349	0.289	-0.459
-398.179	800.000	0.205	-0.807
-397.165	-200.000	0.081	-0.516
-396.150	-23.849	-0.143	-0.086
-395.136	-10.147	-0.539	-0.359
-394.121	-69.507	0.847	-0.325
-393.106	726.905	-0.242	-0.646
-392.092	-200.000	0.129	1.093
-391.077	181.785	-0.256	0.378
-390.063	-95.895	0.368	0.098
-389.048	-42.214	-0.367	0.188
-388.033	-102.852	1.163	0.277
-387.019	-86.433	-0.082	-0.025
-386.004	-128.783	-0.668	-0.094
-384.990	11.970	0.954	-0.735
-383.975	-200.000	-0.080	-0.455
-382.960	-16.315	0.706	-0.449
-381.946	-82.208	-0.783	-0.256
-380.931	-200.000	0.013	0.453
-379.917	-122.497	-0.440	-0.072
-378.902	-18.241	0.761	-0.477
-377.888	73.479	0.331	0.347
-376.873	106.419	-0.628	0.746
-375.858	177.054	0.173	-0.252
-374.844	-200.000	0.050	0.583
-373.829	-200.000	0.050	0.624
-372.815	101.054	0.204	-0.238
-371.800	-4.675	0.042	-0.029
-370.785	-90.864	-0.895	-0.258
-369.771	71.078	-0.177	0.184
-368.756	184.887	-0.532	0.790
-367.742	357.258	-0.439	-0.877
-366.727	28.293	-0.218	0.185
-365.712	-79.081	0.543	0.185
-364.698	-25.960	-0.812	-0.479
-363.683	1.628	-0.973	-0.701
-362.669	8.759	0.467	-0.352
-361.654	-12.176	-0.530	0.347
-360.639	-84.876	-0.790	-0.248
-359.625	42.802	0.720	-0.657
-358.610	8.008	-0.269	-0.202
-357.596	-105.361	-0.297	0.068
-356.581	-77.882	0.045	-0.016
-355.566	82.900	0.450	-0.490
-354.552	19.691	-0.914	-0.737
-353.537	61.026	-0.394	0.391
-352.523	40.520	-0.244	-0.220
-351.508	800.000	0.187	0.659
-350.493	-36.256	-0.938	0.506
-349.479	639.526	0.375	0.956
-348.464	141.620	0.330	0.438
-347.450	-79.442	-0.689	0.233
-346.435	60.422	0.651	0.645
-345.420	217.522	0.262	-0.417
-344.406	19.754	-0.540	0.435
-343.391	800.000	0.089	0.330
-342.377	-200.000	-0.041	-0.405
-341.362	-94.115	-0.328	-0.090
-340.348	-35.110	-0.280	0.153
-339.333	-4.037	0.282	-0.196
-338.318	485.934	0.168	0.384
-337.304	119.139	0.361	-0.446
-336.289	-161.462	1.021	0.053
-335.275	-103.628	1.163	0.273
-334.260	114.511	0.136	-0.165
-333.245	-62.803	-0.752	0.311
-332.231	-59.458	0.672	0.289
-331.216	-153.101	0.743	0.052
-330.202	19.969	-0.976	-0.787
-329.187	800.000	0.094	0.303
-328.172	-65.094	-0.413	0.167
-327.158	455.116	0.168	0.373
-326.143	201.309	-0.185	0.284
-325.129	76.286	-0.307	-0.325
-324.114	424.273	0.298	-0.642
-323.099	49.897	0.088	0.083
-322.085	20.748	0.097	-0.078
-321.070	234.726	0.486	-0.801
-320.056	-168.095	0.435	0.017
-319.041	1.586	-0.465	-0.335
-318.026	325.688	0.317	-0.607
-317.012	-200.000	-0.033	0.823
-315.997	800.000	0.105	0.432
-314.983	28.970	-0.165	-0.139
-313.968	139.764	-0.200	-0.264
-312.953	274.804	0.221	0.392
-311.939	-56.122	-0.614	-0.273
-310.924	99.246	0.345	-0.399
-309.910	182.024	-0.148	0.218
-308.895	-200.000	0.000	-0.199
-307.880	-117.786	1.256	0.225
-306.866	-65.244	-0.392	0.158
-305.851	-81.829	0.331	0.108
-304.837	-200.000	0.055	0.339
-303.822	-71.424	-0.317	0.118
-302.807	-200.000	-0.260	-1.149
-301.793	-11.681	-0.416	-0.273
-300.778	232.461	0.185	0.303
-299.764	800.000	0.245	0.693
-298.749	52.956	-0.207	0.198
-297.735	-200.000	-0.093	-0.436
-296.720	800.000	0.249	0.725
-295.705	133.846	0.470	0.607
-294.691	-200.000	-0.003	0.840
-293.676	-50.280	0.532	0.251
-292.662	-200.000	0.091	0.468
-291.647	562.644	-0.173	-0.418
-290.632	-63.840	-0.725	0.296
-289.618	209.771	-0.068	0.107
-288.603	-161.693	-1.170	-0.060
-287.589	490.063	0.190	-0.434
-286.574	-200.000	-0.048	-0.280
-285.559	-200.000	-0.040	0.384
-284.545	308.759	0.202	0.377
-283.530	-200.000	0.036	0.273
-282.516	-200.000	-0.061	0.566
-281.501	-200.000	0.013	-0.652
-280.486	-66.457	0.261	0.103
-279.472	134.218	0.198	-0.256
-278.457	-200.000	0.008	-0.428
-277.443	800.000	0.072	0.280
-276.428	-22.491	-0.122	-0.074
-275.413	250.463	0.461	0.782
-274.399	-160.984	0.930	0.049
-273.384	800.000	0.135	-0.573
-272.370	800.000	-0.409	-1.146
-271.355	-51.298	-1.008	-0.471
-270.340	800.000	-0.109	-0.311
-269.326	-5.601	-0.529	0.362
-268.311	39.018	-0.415	-0.370
-267.297	9.573	0.206	0.156
-266.282	800.000	0.121	-0.409
-265.267	-200.000	-0.033	-0.795
-264.253	41.698	0.761	-0.688
-263.238	-65.990	0.643	0.256
-262.224	210.931	0.343	0.537
-261.209	-161.395	-0.700	0.036
-260.195	455.047	0.137	-0.304
-259.180	-137.762	-0.502	-0.056
-258.165	88.776	0.556	-0.617
-257.151	77.105	-0.505	-0.536
-256.136	47.198	-0.272	0.252
-255.122	284.334	0.372	0.668
-254.107	349.219	-0.220	0.432
-253.092	-50.131	-0.306	-0.144
-252.078	48.707	0.548	0.512
-251.063	-73.914	-1.019	0.369
-250.049	-200.000	0.030	0.270
-249.034	113.271	-0.050	0.060
-248.019	-200.000	0.033	0.466
-247.005	81.085	-0.225	0.242
-245.990	35.803	-0.230	-0.202
-244.976	-116.311	0.487	0.090
-243.961	-83.330	-0.443	-0.142
-242.946	427.319	0.294	0.632
-241.932	-161.642	0.930	-0.047
-240.917	-114.153	-0.445	0.086
-239.903	-155.670	1.106	-0.071
-238.888	213.782	-0.418	0.659
-237.873	-35.892	0.672	0.362
-236.859	-200.000	0.064	-0.330
-235.844	73.822	-0.206	0.216
-234.830	28.430	-1.115	-0.939
-233.815	181.763	-0.223	0.327
-232.800	-142.584	-0.277	0.027
-231.786	-200.000	0.406	-0.002
-230.771	23.996	0.366	0.301
-229.757	72.841	0.620	-0.645
-228.742	-69.386	-0.771	0.295
-227.727	346.987	-0.479	0.940
-226.713	-97.740	0.008	-0.002
-225.698	35.399	-0.102	-0.089
-224.684	262.185	0.282	-0.487
-223.669	-6.561	0.528	-0.358
-222.655	-53.793	-0.468	0.213
-221.640	408.210	-0.243	-0.513
-220.625	-200.000	0.176	-0.879
-219.611	115.578	0.549	0.668
-218.596	-200.000	0.068	-0.462
-217.582	29.295	-0.432	-0.365
-216.567	169.503	-0.196	0.278
-215.552	-65.800	0.288	-0.115
-214.538	448.300	0.262	-0.574
-213.523	-140.801	0.786	-0.081
-212.509	-73.061	0.540	-0.197
-211.494	5.486	-0.436	-0.320
-210.479	122.421	0.399	0.496
-209.465	241.351	0.477	0.793
-208.450	441.032	0.276	-0.602
-207.436	179.657	-0.273	-0.398
-206.421	31.836	-0.211	0.181
-205.406	-44.619	-0.347	-0.172
-204.392	-200.000	0.005	-0.347
-203.377	-148.775	0.037	0.003
-202.363	-200.000	-0.834	0.002
-201.348	426.392	-0.439	0.942
-200.333	124.678	0.056	0.070
-199.319	646.070	-0.289	-0.734
-198.304	-200.000	-0.016	0.944
-197.290	236.153	-0.325	-0.536
-196.275	800.000	0.196	0.815
-195.260	233.040	-0.340	-0.556
-194.246	-22.368	0.587	0.354
-193.231	-138.538	0.851	-0.093
-192.217	-6.217	0.155	0.105
-191.202	-200.000	0.066	0.411
-190.187	327.164	0.191	0.365
-189.173	-200.000	-0.005	-0.311
-188.158	-52.376	-0.365	0.168
-187.144	-136.414	0.157	0.018
-186.129	-200.000	0.047	0.245
-185.114	629.120	-0.132	0.331
-184.100	-200.000	0.076	1.034
-183.085	15.334	-0.420	0.327
-182.071	-63.135	0.683	0.280
-181.056	800.000	0.113	-0.448
-180.042	540.714	0.436	-1.031
-179.027	155.503	-0.355	-0.486
-178.012	-106.987	-0.588	0.129
-176.998	-200.000	-0.016	0.592
-175.983	-8.166	-0.675	0.452
-174.969	-130.192	0.608	-0.082
-173.954	-200.000	0.081	-0.778
-172.939	309.474	-0.292	0.543
-171.925	-37.508	0.342	-0.182
-170.910	-87.774	-1.074	-0.322
-169.896	86.557	0.310	0.340
-168.881	-92.267	-0.417	-0.117
-167.866	64.515	0.168	-0.168
-166.852	-104.714	-0.687	0.157
-165.837	800.000	0.154	-0.469
-164.823	549.336	0.292	0.695
-163.808	-79.614	-0.955	0.320
-162.793	-102.311	0.862	-0.206
-161.779	800.000	0.288	0.801
-160.764	140.278	0.211	-0.277
-159.750	36.523	-0.352	-0.308
-158.735	111.147	-0.298	-0.356
-157.720	800.000	0.218	-0.815
-156.706	800.000	0.404	1.396
-155.691	-139.639	-0.545	-0.058
-154.677	800.000	0.132	0.368
-153.662	28.429	0.648	0.544
-152.647	-200.000	-0.058	0.397
-151.633	69.022	-0.496	-0.506
-150.618	-131.895	-0.255	0.033
-149.604	-37.643	0.291	0.154
-148.589	711.970	0.043	0.113
-147.574	211.653	0.241	-0.377
-146.560	37.840	0.383	-0.338
-145.545	-146.642	0.722	-0.062
-144.531	800.000	-0.090	0.336
-143.516	-79.895	-1.254	0.418
-142.502	52.864	0.703	0.667
-141.487	-113.654	-1.029	0.199
-140.472	-64.795	0.442	0.178
-139.458	-167.968	0.135	-0.005
-138.443	392.242	0.313	-0.645
-137.429	-200.000	0.017	-0.242
-136.414	-11.137	0.255	-0.167
-135.399	-16.187	-0.820	-0.517
-134.385	-54.110	0.397	-0.179
-133.370	268.002	-0.279	0.485
-132.356	379.513	-0.305	-0.621
-131.341	9.453	0.134	-0.101
-130.326	-152.060	-0.926	-0.067
-129.312	-24.173	0.278	0.165
-128.297	-200.000	0.103	1.007
-127.283	-125.645	-0.470	-0.071
-126.268	-113.307	-0.661	-0.129
-125.253	565.793	0.157	-0.379
-124.239	-184.720	0.692	-0.011
-123.224	-132.474	-0.570	-0.073
-122.210	800.000	0.165	-0.490
-121.195	55.989	-0.131	0.126
-120.180	-200.000	-0.002	0.193
-119.166	72.670	0.453	0.469
-118.151	190.254	0.335	-0.499
-117.137	-52.019	-0.383	0.176
-116.122	-200.000	0.045	0.522
-115.107	-200.000	-0.120	0.790
-114.093	91.510	0.278	0.309
-113.078	-200.000	-0.002	-0.060
-112.064	67.414	0.327	0.331
-111.049	135.998	-0.504	0.651
-110.034	163.907	0.415	0.579
-109.020	-200.000	0.113	0.540
-108.005	-3.718	-0.648	-0.446
-106.991	63.299	0.532	0.529
-105.976	157.375	0.311	-0.426
-104.962	-184.902	-0.263	-0.004
-103.947	206.271	-0.055	0.085
-102.932	-32.283	-0.921	-0.510
-101.918	227.263	0.204	-0.329
-100.903	-200.000	0.077	0.545
-99.889	-200.000	0.094	0.449
-98.874	-200.000	0.038	0.490
-97.859	30.606	-0.295	0.250
-96.845	444.372	-0.217	0.471
-95.830	34.472	0.276	0.239
-94.816	-200.000	-0.275	-1.334
-93.801	800.000	0.125	0.419
-92.786	184.777	-0.256	-0.377
-91.772	732.666	-0.239	-0.633
-90.757	15.983	-0.471	-0.368
-89.743	140.988	0.382	0.501
-88.728	-41.848	-0.479	-0.243
-87.713	800.000	-0.091	-0.278
-86.699	-200.000	-0.007	-0.085
-85.684	49.571	0.392	-0.366
-84.670	99.557	-0.196	0.224
-83.655	-200.000	0.015	-0.093
-82.640	186.688	-0.216	-0.319
-81.626	7.410	-0.424	-0.314
-80.611	800.000	-0.259	-0.888
-79.597	12.347	0.170	0.129
-78.582	800.000	0.071	-0.247
-77.567	-33.555	0.632	0.346
-76.553	-200.000	-0.111	-1.212
-75.538	-20.816	0.337	-0.204
-74.524	-200.000	-0.014	-0.713
-73.509	-200.000	-0.183	0.894
-72.494	-200.000	-0.022	-0.579
-71.480	80.251	-0.325	-0.346
-70.465	105.325	0.455	-0.532
-69.451	-110.314	-0.573	-0.118
-68.436	480.680	0.059	-0.132
-67.422	-31.509	0.516	-0.287
-66.407	-90.031	-0.498	0.144
-65.392	310.319	0.278	0.515
-64.378	263.057	-0.150	-0.258
-63.363	-98.934	0.638	-0.160
-62.349	800.000	-0.244	-0.675
-61.334	130.824	-1.525	-1.936
-60.319	272.830	-0.238	0.415
-59.305	301.258	-0.056	-0.102
-58.290	165.769	0.476	0.667
-57.276	167.109	0.746	1.048
-56.261	-200.000	96.609	605.133
-55.246	661.884	1357.268	3460.988
-54.232	201.081	2521.743	3839.422
-53.217	109.393	2276.350	2696.919
-52.203	39.218	2044.774	1810.085
-51.188	34.285	1961.857	1692.904
-50.173	32.701	1943.642	1663.165
-49.159	48.203	1995.235	1846.225
-48.144	48.922	2012.116	1868.206
-47.130	34.814	1974.728	1708.475
-46.115	32.713	1964.658	1680.983
-45.100	32.647	1961.848	1677.928
-44.086	32.454	1959.365	1674.019
-43.071	32.387	1957.017	1671.348
-42.057	32.292	1954.273	1668.096
-41.042	32.355	1951.775	1666.460
-40.027	32.008	1952.582	1664.003
-39.013	32.416	1948.110	1663.737
-37.998	32.318	1947.567	1662.346
-36.984	32.321	1946.383	1661.289
-35.969	32.605	1943.489	1661.262
-34.954	32.478	1941.990	1658.796
-33.940	32.613	1939.833	1658.072
-32.925	32.612	1938.017	1656.443
-31.911	32.540	1936.800	1654.704
-30.896	32.649	1935.002	1654.059
-29.881	32.398	1934.549	1651.406
-28.867	32.633	1932.215	1651.406
-27.852	32.564	1930.265	1649.074
-26.838	32.534	1927.788	1646.630
-25.823	32.450	1927.476	1645.558
-24.809	32.476	1925.849	1644.332
-23.794	32.444	1923.882	1642.314
-22.779	32.501	1922.345	1641.428
-21.765	32.481	1919.392	1638.668
-20.750	32.264	1919.033	1636.409
-19.736	32.397	1916.888	1635.672
-18.721	32.522	1914.483	1634.638
-17.706	32.511	1912.698	1632.956
-16.692	32.543	1911.597	1632.230
-15.677	32.617	1909.661	1631.155
-14.663	32.460	1908.757	1628.960
-13.648	32.487	1908.381	1628.805
-12.633	32.516	1906.762	1627.610
-11.619	32.472	1905.731	1626.286
-10.604	32.580	1903.216	1625.006
-9.590	32.656	1901.828	1624.407
-8.575	32.668	1900.007	1622.891
-7.560	32.515	1899.628	1621.190
-6.546	32.543	1899.280	1621.066
-5.531	32.470	1897.597	1618.943
-4.517	32.513	1896.423	1618.243
-3.502	32.412	1895.759	1616.744
-2.487	32.482	1894.212	1615.962
-1.473	32.555	1892.783	1615.302
-0.458	32.667	1887.981	1612.100
0.556	33.435	1869.719	1582.863
1.571	29.281	1849.595	1531.259
2.586	25.148	1871.393	1514.352
3.600	23.834	1906.570	1531.371
4.615	23.382	1901.686	1523.421
5.629	17.974	1801.379	1398.780
6.644	8.426	1682.368	1232.889
7.659	3.685	1646.514	1170.640
8.673	3.049	1642.156	1162.626
9.688	3.177	1642.014	1163.392
10.702	3.324	1640.367	1163.237
11.717	3.250	1636.612	1159.914
12.731	3.544	1637.490	1162.645
13.746	10.291	1651.830	1223.873
14.761	19.934	1674.213	1313.892
15.775	24.540	1681.615	1354.608
16.790	24.904	1680.738	1356.538
17.804	24.907	1679.680	1355.586
18.819	24.476	1678.271	1351.071
19.834	24.732	1676.385	1351.366
20.848	24.609	1675.820	1349.859
21.863	24.642	1674.628	1349.032
22.877	24.613	1674.992	1348.985
23.892	24.773	1674.405	1349.603
24.907	24.552	1673.206	1346.850
25.921	24.878	1672.457	1348.586
26.936	24.794	1670.351	1346.134
27.950	24.680	1669.592	1344.548
28.965	24.809	1669.110	1345.008
29.980	24.865	1667.529	1344.037
30.994	24.570	1668.163	1342.207
32.009	24.840	1666.590	1342.855
33.023	24.842	1665.664	1342.002
34.038	24.855	1665.162	1341.577
35.053	24.745	1664.093	1339.769
36.067	24.731	1662.167	1338.002
37.082	24.747	1661.026	1337.085
38.096	24.607	1661.824	1336.560
39.111	24.846	1658.416	1335.483
40.126	24.771	1658.631	1334.975
41.140	24.962	1657.597	1335.456
42.155	24.826	1657.220	1334.014
43.169	24.649	1655.646	1331.313
44.184	24.365	1654.044	1327.797
45.199	24.334	1653.231	1326.792
46.213	24.375	1652.640	1326.504
47.228	24.463	1651.034	1325.756
48.242	24.582	1650.306	1325.932
49.257	24.789	1648.788	1326.130
50.271	24.825	1648.494	1326.045
51.286	24.817	1646.807	1324.509
52.301	24.783	1645.985	1323.479
53.315	24.689	1646.099	1322.763
54.330	24.811	1643.094	1321.130
55.344	24.668	1641.430	1318.618
56.359	24.655	1640.745	1317.861
57.374	24.712	1639.583	1317.229
58.388	24.562	1638.734	1315.325
59.403	24.600	1637.194	1314.256
60.417	24.333	1635.723	1310.994
61.432	24.393	1635.142	1310.849
62.447	24.410	1634.489	1310.338
63.461	24.309	1633.364	1308.578
64.476	24.567	1631.717	1309.036
65.490	24.365	1631.941	1307.617
66.505	24.335	1629.200	1305.089
67.520	24.369	1628.374	1304.559
68.534	24.358	1628.065	1304.113
69.549	24.642	1626.630	1304.924
70.563	24.278	1625.712	1301.416
71.578	24.346	1625.027	1301.248
72.593	24.260	1622.747	1298.683
73.607	24.128	1622.345	1297.285
74.622	24.188	1622.134	1297.433
75.636	24.203	1620.689	1296.272
76.651	24.209	1620.999	1296.453
77.666	24.305	1618.171	1294.773
78.680	24.170	1618.010	1293.549
79.695	24.449	1617.677	1295.195
80.709	24.442	1615.912	1293.615
81.724	24.367	1614.596	1291.900
82.739	24.339	1615.355	1292.190
83.753	24.643	1613.832	1293.058
84.768	24.583	1614.170	1292.778
85.782	24.734	1613.146	1292.940
86.797	24.905	1612.835	1293.809
87.812	25.046	1611.318	1293.501
88.826	25.006	1610.819	1292.692
89.841	24.813	1609.302	1289.971
90.855	24.723	1608.510	1288.573
91.870	24.902	1608.155	1289.467
92.884	24.888	1607.107	1288.412
93.899	25.189	1604.850	1288.646
94.914	24.990	1605.424	1287.563
95.928	24.955	1603.859	1285.942
96.943	24.937	1602.722	1284.793
97.957	24.927	1602.455	1284.392
98.972	24.905	1600.382	1282.461
99.987	25.131	1598.056	1282.096
101.001	25.060	1596.847	1280.508
102.016	24.949	1596.017	1278.935
103.030	24.951	1595.147	1278.137
104.045	24.859	1592.359	1275.134
105.060	24.965	1592.322	1275.747
106.074	24.927	1590.911	1274.232
107.089	24.836	1589.040	1271.975
108.103	24.513	1587.980	1268.719
109.118	24.437	1586.862	1267.179
110.133	24.433	1584.566	1265.205
111.147	24.462	1583.280	1264.269
112.162	24.274	1582.938	1262.551
113.176	24.497	1581.597	1262.946
114.191	24.515	1580.717	1262.259
115.206	24.581	1579.164	1261.373
116.220	24.507	1577.791	1259.643
117.235	24.487	1577.560	1259.212
118.249	24.699	1575.885	1259.250
119.264	24.310	1574.268	1255.112
120.279	24.258	1572.652	1253.348
121.293	24.232	1572.855	1253.219
122.308	24.475	1572.198	1254.286
123.322	24.584	1570.035	1253.221
124.337	24.237	1569.654	1250.366
125.352	24.031	1567.192	1246.854
126.366	24.143	1566.343	1246.853
127.381	24.152	1566.166	1246.662
128.395	24.250	1565.103	1246.391
129.410	24.149	1563.892	1244.609
130.424	24.261	1561.065	1243.031
131.439	23.895	1560.923	1240.261
132.454	23.937	1560.344	1239.980
133.468	24.205	1558.124	1239.973
134.483	24.414	1557.768	1241.030
135.497	24.540	1556.300	1240.631
136.512	24.551	1555.127	1239.661
137.527	24.552	1553.583	1238.324
138.541	24.564	1553.092	1237.908
139.556	24.433	1551.564	1235.675
140.570	24.592	1550.516	1235.832
141.585	24.467	1550.145	1234.558
142.600	24.729	1548.412	1234.878
143.614	24.895	1547.900	1235.513
144.629	24.893	1548.035	1235.496
145.643	24.978	1546.137	1234.459
146.658	24.845	1545.068	1232.580
147.673	24.860	1542.549	1230.560
148.687	24.924	1541.989	1230.445
149.702	24.714	1541.769	1228.718
150.716	24.774	1539.439	1227.163
151.731	24.721	1538.186	1225.692
152.746	24.225	1535.924	1220.388
153.760	24.053	1535.958	1219.127
154.775	24.137	1535.690	1219.385
155.789	24.716	1534.564	1222.338
156.804	24.735	1534.516	1222.324
157.819	24.925	1532.586	1221.975
158.833	24.666	1529.985	1218.030
159.848	24.722	1529.473	1217.898
160.862	24.636	1529.365	1217.113
161.877	24.856	1528.707	1217.978
162.892	24.783	1526.073	1215.279
163.906	24.686	1524.872	1213.560
164.921	24.508	1524.881	1212.248
165.935	24.377	1522.778	1209.578
166.950	24.416	1521.857	1209.008
167.964	24.747	1520.339	1209.933
168.979	24.814	1520.376	1210.313
169.994	24.719	1518.830	1208.332
171.008	24.574	1518.531	1207.008
172.023	24.446	1516.684	1204.564
173.037	24.605	1515.792	1204.825
174.052	24.643	1515.885	1205.050
175.067	24.905	1514.467	1205.578
176.081	25.036	1513.320	1205.440
177.096	24.349	1513.365	1200.743
178.110	24.465	1510.856	1199.427
179.125	24.693	1509.332	1199.642
180.140	24.456	1509.366	1197.969
181.154	24.574	1508.450	1197.930
182.169	24.709	1507.134	1197.685
183.183	24.512	1507.055	1196.196
184.198	24.414	1506.183	1194.741
185.213	24.751	1504.594	1195.627
186.227	24.854	1503.751	1195.544
187.242	24.766	1503.605	1194.731
188.256	24.755	1502.562	1193.728
189.271	24.784	1502.045	1193.399
190.286	24.715	1500.912	1191.937
191.300	24.964	1498.878	1191.874
192.315	24.591	1499.373	1189.676
193.329	24.691	1497.184	1188.497
194.344	24.879	1496.092	1188.774
195.359	24.749	1496.143	1187.850
196.373	24.436	1495.155	1184.882
197.388	24.226	1493.177	1181.815
198.402	24.150	1491.596	1179.957
199.417	24.142	1491.740	1179.915
200.432	24.733	1490.150	1182.459
201.446	24.892	1490.812	1183.929
202.461	25.000	1489.332	1183.363
203.475	24.958	1487.992	1181.919
204.490	25.045	1487.949	1182.353
205.504	25.069	1485.765	1180.670
206.519	24.612	1484.912	1176.879
207.534	24.340	1484.058	1174.310
208.548	24.456	1482.813	1173.984
209.563	24.280	1481.921	1172.017
210.577	24.267	1480.774	1170.923
211.592	24.088	1480.498	1169.420
212.607	24.154	1478.913	1168.497
213.621	24.543	1479.457	1171.378
214.636	24.987	1478.722	1173.605
215.650	24.648	1477.520	1170.323
216.665	24.528	1476.938	1168.974
217.680	24.563	1476.331	1168.622
218.694	24.801	1475.095	1169.094
219.709	25.163	1473.825	1170.346
220.723	25.104	1472.976	1169.184
221.738	24.494	1473.062	1165.173
222.753	24.670	1471.815	1165.231
223.767	24.766	1470.442	1164.665
224.782	24.551	1470.164	1162.940
225.796	24.650	1468.976	1162.544
226.811	24.947	1469.039	1164.417
227.826	25.136	1467.353	1164.208
228.840	24.882	1466.177	1161.526
229.855	24.830	1464.755	1159.958
230.869	24.512	1464.544	1157.624
231.884	24.523	1464.824	1157.815
232.899	24.821	1462.059	1157.455
233.913	24.414	1461.202	1154.047
234.928	24.437	1459.035	1152.377
235.942	24.321	1458.439	1151.055
236.957	24.453	1458.448	1151.813
237.972	24.252	1456.627	1148.982
238.986	24.189	1454.694	1146.949
240.001	24.143	1453.788	1145.837
241.015	24.539	1452.819	1147.516
242.030	24.328	1453.036	1146.229
243.045	24.390	1452.374	1146.005
244.059	24.524	1451.325	1145.934
245.074	24.684	1450.391	1146.123
246.088	24.733	1449.370	1145.527
247.103	24.824	1448.986	1145.703
248.117	24.772	1449.609	1145.761
249.132	24.952	1448.201	1145.699
250.147	24.962	1448.113	1145.591
251.161	25.112	1447.035	1145.596
252.176	25.588	1447.247	1148.706
253.190	25.399	1446.582	1146.869
254.205	25.483	1445.004	1146.055
255.220	25.659	1444.032	1146.304
256.234	25.441	1444.406	1145.109
257.249	25.834	1442.454	1145.959
258.263	25.613	1442.962	1144.856
259.278	25.306	1441.884	1141.946
260.293	25.526	1439.480	1141.336
261.307	25.599	1439.115	1141.414
262.322	25.343	1439.844	1140.264
263.336	25.807	1438.449	1142.003
264.351	25.277	1437.511	1137.793
265.366	25.581	1436.536	1138.848
266.380	25.514	1435.199	1137.262
267.395	25.324	1435.201	1135.965
268.409	25.582	1434.046	1136.577
269.424	25.504	1432.844	1135.036
270.439	25.291	1431.522	1132.543
271.453	25.467	1430.584	1132.806
272.468	25.613	1429.255	1132.574
273.482	25.230	1429.064	1129.913
274.497	25.072	1428.113	1128.066
275.512	25.142	1427.140	1127.639
276.526	25.051	1427.373	1127.150
277.541	25.061	1425.065	1125.289
278.555	24.923	1424.087	1123.553
279.570	25.235	1423.772	1125.160
280.585	25.306	1422.772	1124.716
281.599	25.808	1421.028	1126.379
282.614	25.635	1422.132	1126.069
283.628	25.610	1419.474	1123.710
284.643	25.420	1418.205	1121.420
285.657	25.209	1418.087	1119.911
286.672	25.145	1416.839	1118.426
287.687	25.270	1415.758	1118.254
288.701	25.365	1414.617	1117.846
289.716	25.375	1414.107	1117.408
290.730	25.022	1414.064	1115.079
291.745	25.342	1412.855	1116.013
292.760	25.531	1411.872	1116.315
293.774	25.324	1411.312	1114.484
294.789	25.102	1410.158	1112.100
295.803	25.532	1409.555	1114.189
296.818	25.611	1409.593	1114.610
297.833	25.441	1407.451	1111.768
298.847	25.081	1407.362	1109.370
299.862	25.251	1406.188	1109.399
300.876	25.181	1405.141	1108.044
301.891	25.273	1404.828	1108.264
302.906	25.138	1404.145	1106.796
303.920	25.261	1402.987	1106.540
304.935	25.657	1402.460	1108.470
305.949	25.791	1401.941	1108.788
306.964	25.831	1401.096	1108.267
307.979	25.621	1401.097	1106.874
308.993	25.781	1399.644	1106.612
310.008	25.532	1398.512	1104.090
311.022	25.419	1397.196	1102.262
312.037	25.660	1397.032	1103.515
313.052	25.685	1395.854	1102.636
314.066	25.767	1395.089	1102.436
315.081	25.362	1393.719	1098.780
316.095	25.225	1391.874	1096.392
317.110	25.072	1391.170	1094.805
318.125	25.171	1390.255	1094.592
319.139	25.206	1389.072	1093.779
320.154	25.180	1388.053	1092.720
321.168	25.156	1387.020	1091.665
322.183	25.227	1386.008	1091.204
323.197	25.106	1385.908	1090.294
324.212	25.242	1384.479	1089.898
325.227	25.175	1384.371	1089.311
326.241	25.501	1382.579	1089.782
327.256	25.573	1381.883	1089.569
328.270	25.379	1382.345	1088.663
329.285	25.204	1381.179	1086.586
330.300	25.088	1379.631	1084.573
331.314	25.403	1378.664	1085.621
332.329	25.614	1377.481	1085.870
333.343	25.306	1377.182	1083.675
334.358	24.970	1376.624	1081.112
335.373	25.084	1377.287	1082.227
336.387	25.474	1376.055	1083.513
337.402	25.656	1374.885	1083.592
338.416	25.638	1374.763	1083.296
339.431	25.473	1374.500	1081.998
340.446	25.770	1372.580	1082.176
341.460	25.823	1372.244	1082.130
342.475	25.903	1372.803	1082.961
343.489	26.316	1371.187	1084.067
344.504	26.215	1369.689	1082.181
345.519	26.081	1369.644	1081.246
346.533	26.124	1368.824	1080.763
347.548	26.289	1366.063	1079.472
348.562	26.302	1366.530	1079.819
349.577	26.199	1366.236	1078.882
350.592	26.011	1365.189	1076.835
351.606	25.730	1363.489	1073.720
352.621	25.622	1362.143	1071.925
353.635	25.507	1361.235	1070.433
354.650	25.500	1360.354	1069.601
355.665	25.273	1360.177	1068.017
356.679	25.265	1359.174	1067.087
357.694	25.385	1357.561	1066.439
358.708	25.801	1356.992	1068.367
359.723	25.762	1355.587	1066.931
360.738	25.788	1354.669	1066.269
361.752	25.755	1354.172	1065.592
362.767	25.728	1352.638	1064.132
363.781	25.781	1351.902	1063.770
364.796	25.606	1351.383	1062.232
365.810	25.751	1350.262	1062.111
366.825	25.931	1349.958	1062.841
367.840	26.251	1349.581	1064.337
368.854	26.112	1349.616	1063.449
369.869	26.425	1348.363	1064.213
370.883	26.244	1348.415	1063.094
371.898	26.301	1347.128	1062.320
372.913	26.035	1347.084	1060.626
373.927	25.796	1346.619	1058.759
374.942	25.913	1344.987	1058.072
375.956	26.091	1344.260	1058.453
376.971	26.148	1342.862	1057.591
377.986	26.098	1342.758	1057.121
379.000	26.122	1340.929	1055.732
380.015	26.195	1341.216	1056.291
381.029	26.015	1341.204	1055.134
382.044	26.305	1340.258	1055.987
383.059	26.204	1339.582	1054.775
384.073	26.288	1338.203	1054.087
385.088	26.490	1338.077	1055.069
386.102	26.248	1337.493	1053.105
387.117	26.166	1337.239	1052.335
388.132	26.374	1336.168	1052.608
389.146	26.041	1334.314	1049.121
390.161	25.881	1333.091	1047.139
391.175	25.955	1332.436	1046.960
392.190	25.871	1332.047	1046.071
393.205	25.702	1331.389	1044.482
394.219	26.135	1330.676	1046.343
395.234	26.245	1330.400	1046.671
396.248	26.258	1328.477	1045.136
397.263	25.934	1327.149	1042.129
398.278	26.001	1324.754	1040.541
399.292	25.754	1324.590	1038.897
400.307	25.773	1323.708	1038.221
401.321	26.117	1322.464	1039.139
402.336	26.046	1321.860	1038.161
403.350	25.901	1320.438	1036.120
404.365	25.898	1318.426	1034.432
405.380	25.616	1318.572	1032.836
406.394	25.850	1318.372	1033.930
407.409	25.778	1317.905	1033.059
408.423	25.788	1318.062	1033.150
409.438	26.183	1317.038	1034.519
410.453	26.438	1315.756	1034.882
411.467	26.341	1316.087	1034.495
412.482	26.435	1315.469	1034.453
413.496	26.264	1313.976	1032.211
414.511	26.220	1313.979	1031.869
415.526	26.561	1312.565	1032.613
416.540	26.536	1312.124	1032.031
417.555	26.723	1311.213	1032.290
418.569	26.783	1311.681	1032.910
419.584	26.592	1310.488	1030.789
420.599	26.439	1310.295	1029.676
421.613	142.737	1435.870	1792.927
422.628	138.434	1454.056	1792.970
