DTS Sentinel unit serial number:	SN413079Multiplexer serial number:	ORYXHardware model number:	OX4-SRSoftware version number:	ORYX F/W v4.00 Oryx Data Collector v3.7.2.0data status	okinstallation	princeton_trtdifferential loss correction	single-endedforward channel	channel 4reverse channel	N/Adate	2019/09/12time	03:43:10forward acquisition time	60.00reverse acquisition time	0.00gamma	496.2192k internal	0.2309k external	0.2309temperature offset calibration	1.0097default loss term (dB/km)	0.3790temperature slope calibration	1.0000multiplexer offset coefficient	1.0000multiplexer slope coefficient	1.0000fibre end	0.00T internal ref (°C)	32.14T ext. ref 1 (°C)	2.13T ext. ref 2 (°C)	27.33length (m)	temperature (°C)	Stokes	anti-Stokes-747.200	-5.815	0.155	0.108
-746.185	35.159	-0.275	0.245
-745.171	27.278	0.112	-0.095
-744.156	32.170	0.254	0.223
-743.142	-200.000	-0.030	0.200
-742.127	800.000	0.071	0.301
-741.112	266.450	-0.040	0.071
-740.098	-60.336	0.269	-0.116
-739.083	38.738	-0.156	0.141
-738.069	179.928	0.063	0.093
-737.054	575.997	0.180	-0.448
-736.039	-132.713	-0.299	0.039
-735.025	-12.916	0.262	-0.173
-734.010	276.963	0.083	-0.150
-732.996	-196.874	-0.459	-0.003
-731.981	-66.477	0.338	-0.137
-730.966	473.151	-0.129	0.296
-729.952	-69.490	-0.204	0.079
-728.937	-99.719	-0.386	-0.098
-727.923	480.210	-0.050	0.115
-726.908	-131.598	0.137	-0.018
-725.894	-156.761	-0.341	0.021
-724.879	-200.000	0.074	0.420
-723.864	-200.000	0.135	0.000
-722.850	-152.419	0.224	0.016
-721.835	-200.000	-0.014	0.175
-720.821	435.658	-0.116	-0.256
-719.806	-96.121	0.063	-0.017
-718.791	-200.000	-0.048	0.234
-717.777	800.000	-0.126	0.381
-716.762	108.255	-0.134	-0.162
-715.748	113.807	-0.064	-0.079
-714.733	103.284	0.230	0.274
-713.718	130.041	-0.125	-0.162
-712.704	-200.000	0.021	-0.373
-711.689	800.000	0.050	-0.146
-710.675	489.681	0.104	-0.240
-709.660	-200.000	0.015	-0.113
-708.645	-200.000	0.079	-0.498
-707.631	-84.283	0.225	-0.072
-706.616	-20.623	0.248	0.155
-705.602	-200.000	-0.008	-0.181
-704.587	59.393	0.168	-0.168
-703.572	-73.195	0.153	-0.057
-702.558	16.948	0.144	-0.115
-701.543	12.537	0.073	0.057
-700.529	-134.308	0.190	0.024
-699.514	800.000	0.036	-0.130
-698.499	-63.719	-0.355	-0.148
-697.485	703.666	0.124	-0.331
-696.470	-200.000	0.019	-0.284
-695.456	-80.910	0.139	-0.047
-694.441	800.000	-0.018	-0.064
-693.426	800.000	-0.029	-0.109
-692.412	97.727	0.245	-0.286
-691.397	-200.000	-0.218	-0.000
-690.383	-56.289	0.121	0.054
-689.368	-200.000	0.043	-0.249
-688.354	-200.000	0.064	0.000
-687.339	206.061	0.065	-0.102
-686.324	7.542	-0.276	-0.209
-685.310	422.282	-0.188	0.410
-684.295	108.800	-0.197	-0.239
-683.281	-35.626	0.264	0.145
-682.266	800.000	-0.032	-0.107
-681.251	442.526	-0.062	-0.137
-680.237	204.187	0.158	-0.248
-679.222	800.000	0.044	0.127
-678.208	44.571	-0.073	0.068
-677.193	-123.667	0.101	0.016
-676.178	130.124	-0.077	-0.099
-675.164	-29.590	0.092	0.054
-674.149	-162.133	-0.302	0.015
-673.135	-200.000	-0.005	0.339
-672.120	21.106	0.107	-0.088
-671.105	-84.704	0.311	0.099
-670.091	-57.494	-0.023	0.010
-669.076	-4.934	-0.322	-0.225
-668.062	-200.000	0.004	-0.187
-667.047	-200.000	-0.031	-0.200
-666.032	-118.245	-0.232	0.042
-665.018	800.000	-0.013	-0.053
-664.003	-67.161	-0.099	0.040
-662.989	300.904	0.049	0.091
-661.974	800.000	0.062	-0.232
-660.959	-133.728	-0.289	0.037
-659.945	-200.000	-0.001	-0.203
-658.930	-200.000	-0.079	-0.355
-657.916	-66.986	-0.183	-0.073
-656.901	-135.901	0.044	0.005
-655.886	762.861	-0.013	0.035
-654.872	-58.241	0.294	-0.130
-653.857	800.000	0.007	-0.030
-652.843	-86.577	0.334	-0.104
-651.828	800.000	-0.010	-0.030
-650.814	-153.571	-0.109	0.008
-649.799	445.855	-0.165	-0.367
-648.784	800.000	0.087	-0.319
-647.770	171.395	-0.198	-0.288
-646.755	111.247	-0.231	0.281
-645.741	-141.225	0.142	-0.015
-644.726	-56.135	-0.213	0.096
-643.711	71.702	-0.238	-0.251
-642.697	13.443	-0.012	0.010
-641.682	5.346	0.064	0.048
-640.668	111.432	0.231	-0.281
-639.653	-87.612	-0.149	-0.046
-638.638	-200.000	-0.020	-0.116
-637.624	-134.051	-0.166	-0.021
-636.609	341.356	0.031	0.060
-635.595	-52.345	0.280	-0.131
-634.580	377.713	0.057	0.118
-633.565	-30.760	-0.390	0.223
-632.551	-90.546	-0.142	-0.042
-631.536	-138.431	0.372	-0.041
-630.522	-61.161	0.270	0.115
-629.507	334.108	-0.076	-0.149
-628.492	337.503	0.145	0.286
-627.478	800.000	0.100	-0.291
-626.463	129.454	0.141	0.182
-625.449	11.826	-0.179	-0.139
-624.434	-123.429	-0.180	-0.029
-623.419	31.812	0.174	0.151
-622.405	27.864	0.128	0.109
-621.390	-45.334	-0.245	-0.123
-620.376	48.376	-0.185	-0.175
-619.361	-149.376	0.207	0.017
-618.346	-135.436	-0.324	-0.039
-617.332	52.158	0.116	-0.112
-616.317	800.000	-0.033	0.115
-615.303	-200.000	0.022	-0.479
-614.288	304.467	-0.237	0.445
-613.273	742.732	-0.006	-0.015
-612.259	-200.000	-0.020	-0.189
-611.244	-46.886	-0.310	0.153
-610.230	176.068	0.083	0.122
-609.215	114.837	0.199	0.245
-608.201	800.000	0.060	-0.191
-607.186	-75.321	-0.523	-0.189
-606.171	244.886	0.119	-0.203
-605.157	275.348	-0.197	-0.353
-604.142	-200.000	0.038	-0.268
-603.128	120.606	0.305	0.383
-602.113	2.132	0.249	0.181
-601.098	144.685	-0.247	-0.333
-600.084	13.886	0.287	-0.226
-599.069	-23.906	0.186	-0.113
-598.055	34.739	-0.102	0.090
-597.040	-43.241	0.112	-0.057
-596.025	303.074	0.042	-0.078
-595.011	265.175	-0.124	-0.218
-593.996	68.331	0.122	-0.126
-592.982	-148.912	0.075	0.006
-591.967	246.436	0.070	-0.119
-590.952	-97.850	-0.267	-0.070
-589.938	13.922	-0.111	-0.087
-588.923	148.851	-0.072	0.098
-587.909	-122.832	0.147	0.024
-586.894	308.500	0.126	-0.237
-585.879	800.000	0.035	-0.119
-584.865	-44.168	-0.078	-0.040
-583.850	228.673	-0.129	-0.213
-582.836	45.394	0.233	-0.217
-581.821	-18.145	0.216	0.136
-580.806	-126.738	-0.079	0.012
-579.792	195.628	-0.151	0.232
-578.777	785.440	0.121	0.335
-577.763	-18.791	0.216	-0.136
-576.748	754.901	-0.139	0.379
-575.733	-80.422	0.105	0.035
-574.719	48.934	-0.163	-0.154
-573.704	800.000	-0.017	-0.052
-572.690	39.343	-0.113	-0.102
-571.675	-200.000	-0.003	0.304
-570.661	267.442	0.072	0.128
-569.646	800.000	-0.094	0.268
-568.631	-71.818	0.299	0.112
-567.617	146.589	-0.168	0.228
-566.602	-200.000	-0.003	-0.245
-565.588	23.697	-0.494	0.410
-564.573	800.000	-0.071	-0.239
-563.558	-200.000	0.010	0.244
-562.544	-94.936	-0.129	0.035
-561.529	800.000	-0.119	0.370
-560.515	15.119	-0.132	0.104
-559.500	77.231	0.211	0.226
-558.485	-149.643	0.195	-0.016
-557.471	302.878	0.081	-0.151
-556.456	163.854	-0.098	-0.140
-555.442	-80.614	-0.270	0.091
-554.427	145.124	-0.111	-0.150
-553.412	800.000	0.083	-0.324
-552.398	-200.000	0.036	-0.372
-551.383	158.676	-0.040	0.056
-550.369	235.945	-0.144	0.240
-549.354	-91.212	-0.200	-0.058
-548.339	-188.036	-0.290	0.004
-547.325	344.696	0.146	0.290
-546.310	439.947	-0.047	0.103
-545.296	42.652	0.079	0.073
-544.281	-99.340	-0.057	0.014
-543.266	-44.439	0.480	-0.242
-542.252	-59.540	-0.208	-0.090
-541.237	110.287	0.180	-0.218
-540.223	88.165	-0.059	-0.066
-539.208	341.597	0.091	-0.179
-538.193	-87.411	-0.103	-0.032
-537.179	-146.675	0.104	0.009
-536.164	-163.289	0.263	-0.013
-535.150	110.070	0.220	-0.266
-534.135	-200.000	-0.004	-0.033
-533.121	-200.000	0.038	0.255
-532.106	35.560	-0.044	-0.039
-531.091	-200.000	-0.013	-0.132
-530.077	-200.000	0.012	-0.199
-529.062	385.651	0.083	0.173
-528.048	-59.509	0.073	0.031
-527.033	180.039	-0.212	-0.312
-526.018	-19.125	-0.388	0.243
-525.004	-82.471	0.242	-0.079
-523.989	-101.696	-0.322	0.079
-522.975	-200.000	-0.002	-0.398
-521.960	-151.045	-0.206	-0.016
-520.945	23.474	-0.105	-0.087
-519.931	42.973	0.143	0.131
-518.916	-84.133	0.145	0.046
-517.902	65.697	-0.133	0.136
-516.887	-200.000	-0.022	-0.249
-515.872	-34.261	0.166	-0.092
-514.858	17.446	0.223	0.178
-513.843	-200.000	0.022	0.502
-512.829	800.000	-0.046	-0.159
-511.814	-50.366	-0.113	-0.054
-510.799	109.671	0.248	-0.299
-509.785	501.273	-0.209	-0.486
-508.770	8.729	0.145	0.110
-507.756	40.409	0.154	0.140
-506.741	176.624	-0.156	0.229
-505.726	-89.636	-0.223	0.066
-504.712	-49.541	-0.017	0.008
-503.697	154.638	0.159	0.219
-502.683	-17.042	0.329	-0.209
-501.668	-132.939	0.203	-0.026
-500.653	-15.198	-0.296	-0.191
-499.639	800.000	-0.026	-0.093
-498.624	-164.263	0.070	-0.003
-497.610	31.509	-0.060	-0.052
-496.595	92.890	0.193	-0.219
-495.581	425.876	-0.068	-0.148
-494.566	-146.579	0.176	-0.015
-493.551	-64.768	-0.152	-0.062
-492.537	-200.000	-0.038	0.266
-491.522	619.993	-0.177	0.448
-490.508	245.416	0.094	-0.160
-489.493	-47.843	-0.194	0.094
-488.478	-170.992	0.406	-0.014
-487.464	7.587	-0.111	-0.084
-486.449	-95.359	0.339	-0.092
-485.435	-133.387	-0.277	0.035
-484.420	-200.000	-0.020	-0.216
-483.405	-200.000	-0.029	0.191
-482.391	-75.700	0.177	0.063
-481.376	-109.798	-0.078	-0.017
-480.362	292.568	-0.135	0.247
-479.347	-149.613	-0.081	-0.006
-478.332	-95.347	-0.163	0.044
-477.318	96.988	-0.113	-0.130
-476.303	-0.145	0.173	0.124
-475.289	-131.273	-0.248	0.033
-474.274	6.217	-0.114	-0.085
-473.259	-65.745	0.291	-0.117
-472.245	26.098	0.071	0.059
-471.230	668.705	-0.228	-0.594
-470.216	-111.826	-0.145	0.029
-469.201	-200.000	-0.000	-0.025
-468.186	-86.996	-0.095	-0.029
-467.172	76.657	-0.402	-0.429
-466.157	800.000	-0.035	0.151
-465.143	45.485	-0.078	0.072
-464.128	10.352	0.135	0.104
-463.113	-200.000	0.027	-0.164
-462.099	-159.863	-0.186	0.010
-461.084	642.918	-0.068	-0.174
-460.070	-200.000	-0.037	0.166
-459.055	417.799	-0.037	-0.079
-458.040	-9.659	0.194	0.130
-457.026	32.518	-0.152	0.132
-456.011	164.322	-0.141	0.200
-454.997	28.231	-0.150	-0.127
-453.982	-70.537	0.165	-0.063
-452.968	-112.124	0.256	0.052
-451.953	219.321	-0.254	0.407
-450.938	-111.824	0.248	0.050
-449.924	-200.000	-0.032	-0.397
-448.909	-130.629	-0.071	-0.010
-447.895	281.518	-0.077	0.138
-446.880	800.000	0.070	0.265
-445.865	-70.577	-0.363	0.138
-444.851	426.086	0.074	0.159
-443.836	800.000	0.019	-0.078
-442.822	-161.867	-0.499	0.025
-441.807	195.327	-0.102	-0.156
-440.792	0.588	-0.175	-0.126
-439.778	-153.093	0.117	-0.008
-438.763	2.320	0.181	0.132
-437.749	162.671	0.041	0.058
-436.734	2.224	0.175	-0.127
-435.719	-200.000	-0.061	-0.445
-434.705	-51.820	-0.252	-0.118
-433.690	-33.511	-0.362	0.201
-432.676	-200.000	0.035	0.175
-431.661	-30.017	0.111	-0.063
-430.646	38.291	0.201	0.179
-429.632	132.987	-0.106	-0.137
-428.617	800.000	0.095	-0.350
-427.603	125.699	0.032	0.041
-426.588	105.040	-0.079	0.094
-425.573	-61.980	0.200	-0.084
-424.559	148.007	0.095	0.128
-423.544	-181.040	0.016	0.000
-422.530	-153.679	-0.235	0.016
-421.515	-30.111	-0.138	-0.079
-420.500	-112.853	0.110	-0.022
-419.486	66.065	-0.104	-0.106
-418.471	-110.661	0.193	0.040
-417.457	-19.255	-0.259	0.161
-416.442	-200.000	-0.047	0.294
-415.428	341.341	-0.123	0.241
-414.413	-58.070	0.213	-0.093
-413.398	-15.589	0.262	-0.167
-412.384	800.000	0.023	-0.073
-411.369	510.529	0.096	-0.225
-410.355	-29.433	0.098	-0.056
-409.340	336.307	-0.132	-0.257
-408.325	78.649	0.338	-0.362
-407.311	-56.318	0.046	-0.020
-406.296	300.252	0.198	0.367
-405.282	14.068	0.095	0.074
-404.267	378.503	0.191	0.392
-403.252	-8.142	-0.125	-0.084
-402.238	-28.843	0.381	0.219
-401.223	-200.000	-0.038	-0.259
-400.209	343.847	0.113	-0.221
-399.194	800.000	-0.057	0.198
-398.179	-132.438	0.376	-0.049
-397.165	-200.000	-0.008	0.161
-396.150	-126.829	0.275	0.041
-395.136	-200.000	-0.017	-0.118
-394.121	-60.707	-0.224	-0.095
-393.106	-34.369	0.050	0.027
-392.092	48.657	-0.154	0.145
-391.077	-120.149	0.217	-0.037
-390.063	-21.108	0.130	0.080
-389.048	-130.419	0.123	-0.017
-388.033	-114.865	0.155	-0.030
-387.019	103.425	0.052	0.061
-386.004	800.000	-0.046	0.149
-384.990	-91.440	0.309	0.088
-383.975	131.571	-0.066	0.085
-382.960	56.433	-0.116	-0.113
-381.946	-117.691	0.124	0.022
-380.931	-91.903	0.121	0.034
-379.917	12.734	-0.226	-0.175
-378.902	-200.000	-0.037	-0.246
-377.888	800.000	-0.046	0.192
-376.873	-123.230	-0.404	-0.065
-375.858	276.139	0.228	0.406
-374.844	50.174	-0.348	-0.329
-373.829	-73.473	0.068	0.025
-372.815	-200.000	0.012	0.240
-371.800	-200.000	0.042	0.389
-370.785	-11.891	0.236	-0.155
-369.771	800.000	-0.124	-0.457
-368.756	800.000	-0.055	-0.210
-367.742	800.000	-0.148	-0.474
-366.727	-124.719	0.204	-0.032
-365.712	-103.466	-0.259	-0.061
-364.698	-31.804	0.087	-0.049
-363.683	383.763	0.106	-0.219
-362.669	47.965	0.127	-0.118
-361.654	145.915	0.147	0.197
-360.639	-146.979	0.228	0.020
-359.625	800.000	-0.031	-0.093
-358.610	93.336	-0.126	-0.143
-357.596	-133.281	0.227	0.029
-356.581	-200.000	-0.020	0.135
-355.566	-80.662	0.021	-0.007
-354.552	448.109	-0.101	-0.222
-353.537	227.097	0.122	0.199
-352.523	352.136	0.096	-0.190
-351.508	-108.593	-0.089	0.019
-350.493	-76.004	-0.189	0.067
-349.479	-32.666	0.245	-0.137
-348.464	-8.892	0.176	-0.118
-347.450	-28.310	0.066	0.038
-346.435	-8.207	-0.145	0.098
-345.420	800.000	0.123	-0.403
-344.406	-125.336	-0.134	0.020
-343.391	-14.369	0.119	-0.077
-342.377	309.780	-0.129	-0.242
-341.362	800.000	-0.068	-0.270
-340.348	800.000	0.019	-0.077
-339.333	82.765	0.238	0.258
-338.318	800.000	0.029	0.107
-337.304	-200.000	0.021	-0.145
-336.289	11.633	0.217	0.167
-335.275	-63.232	0.233	0.096
-334.260	339.898	0.072	-0.140
-333.245	25.648	-0.266	0.222
-332.231	337.195	0.123	-0.239
-331.216	-19.972	-0.056	-0.035
-330.202	370.298	-0.232	-0.469
-329.187	242.232	0.068	-0.115
-328.172	-200.000	0.062	0.303
-327.158	405.644	0.076	-0.160
-326.143	241.042	-0.049	-0.082
-325.129	-7.743	0.554	-0.374
-324.114	-200.000	-0.092	-0.409
-323.099	-80.811	0.108	-0.036
-322.085	405.731	0.128	-0.270
-321.070	800.000	-0.053	0.205
-320.056	388.340	-0.026	0.054
-319.041	-42.161	0.251	-0.128
-318.026	-126.392	-0.159	-0.024
-317.012	-200.000	-0.010	-0.223
-315.997	159.295	-0.216	-0.300
-314.983	89.116	0.210	0.233
-313.968	24.663	0.012	-0.010
-312.953	190.446	0.097	-0.146
-311.939	-33.803	0.056	0.031
-310.924	-108.523	0.116	-0.025
-309.910	-93.915	0.245	-0.067
-308.895	-122.241	0.227	0.037
-307.880	800.000	-0.086	0.251
-306.866	800.000	-0.085	-0.251
-305.851	-107.698	-0.339	0.074
-304.837	800.000	-0.103	0.435
-303.822	800.000	-0.028	0.101
-302.807	-119.834	0.133	0.023
-301.793	126.072	0.095	-0.120
-300.778	-136.205	-0.306	0.036
-299.764	-1.409	-0.273	-0.193
-298.749	561.377	-0.155	0.373
-297.735	713.942	-0.044	0.117
-296.720	800.000	-0.055	0.158
-295.705	-200.000	-0.045	-0.229
-294.691	122.618	-0.143	-0.179
-293.676	-104.173	0.278	-0.065
-292.662	79.243	0.137	0.146
-291.647	14.760	-0.241	0.188
-290.632	-200.000	0.002	0.198
-289.618	104.749	-0.167	0.197
-288.603	-131.440	-0.077	-0.010
-287.589	-44.284	0.123	0.062
-286.574	66.087	-0.383	0.388
-285.559	-130.904	0.273	0.037
-284.545	-150.418	0.246	0.019
-283.530	544.639	0.137	-0.327
-282.516	800.000	-0.031	-0.088
-281.501	642.640	0.037	-0.095
-280.486	69.307	0.286	0.294
-279.472	404.409	0.089	0.187
-278.457	81.442	-0.061	0.066
-277.443	64.149	-0.152	0.152
-276.428	-55.074	0.227	-0.102
-275.413	296.067	-0.143	0.262
-274.399	-0.536	0.259	0.184
-273.384	325.645	0.136	0.259
-272.370	800.000	0.066	0.232
-271.355	40.790	-0.315	-0.284
-270.340	-65.981	-0.135	-0.054
-269.326	-74.665	0.055	-0.020
-268.311	-200.000	-0.038	0.234
-267.297	-200.000	0.016	0.251
-266.282	231.875	-0.017	-0.028
-265.267	-91.391	0.125	0.036
-264.253	800.000	-0.112	0.325
-263.238	-200.000	-0.033	-0.243
-262.224	-17.707	0.276	0.173
-261.209	800.000	-0.128	-0.364
-260.195	800.000	-0.104	-0.402
-259.180	-200.000	-0.019	0.179
-258.165	83.335	0.025	-0.028
-257.151	800.000	-0.083	0.245
-256.136	582.479	0.169	0.414
-255.122	-116.809	0.151	0.028
-254.107	800.000	-0.068	0.198
-253.092	-38.382	-0.130	0.069
-252.078	-21.761	0.072	-0.044
-251.063	-200.000	-0.023	0.146
-250.049	-200.000	0.027	0.119
-249.034	-113.067	-0.212	0.042
-248.019	800.000	0.041	0.135
-247.005	-109.203	-0.338	0.071
-245.990	-200.000	-0.027	-0.289
-244.976	57.001	0.076	0.074
-243.961	-20.622	-0.180	-0.110
-242.946	89.041	0.233	0.259
-241.932	9.870	0.324	0.245
-240.917	-200.000	0.108	-0.000
-239.903	-21.695	0.253	0.153
-238.888	-0.245	-0.355	0.251
-237.873	173.600	0.088	0.126
-236.859	147.574	0.125	0.167
-235.844	-45.044	-0.291	-0.144
-234.830	-31.069	0.106	-0.060
-233.815	-69.926	0.129	-0.049
-232.800	-1.797	0.184	0.129
-231.786	464.835	-0.018	-0.040
-230.771	75.252	-0.339	0.356
-229.757	113.402	0.201	0.243
-228.742	429.099	0.083	-0.180
-227.727	111.060	0.101	-0.121
-226.713	800.000	0.044	-0.184
-225.698	104.135	-0.049	0.057
-224.684	182.407	-0.166	0.244
-223.669	-200.000	0.051	0.237
-222.655	272.351	0.203	0.356
-221.640	0.173	-0.171	0.121
-220.625	-108.302	-0.224	0.048
-219.611	131.432	0.132	-0.169
-218.596	11.109	-0.028	0.022
-217.582	572.551	-0.166	-0.402
-216.567	92.124	0.144	-0.162
-215.552	-126.811	0.179	0.026
-214.538	-200.000	-0.002	0.222
-213.523	-44.502	-0.382	0.190
-212.509	-200.000	-0.065	0.286
-211.494	-200.000	-0.041	-0.231
-210.479	-126.402	-0.300	0.045
-209.465	-54.050	-0.173	-0.078
-208.450	-166.725	0.357	0.015
-207.436	800.000	-0.087	-0.256
-206.421	-95.265	0.176	-0.047
-205.406	375.829	-0.066	0.135
-204.392	-86.539	0.328	-0.100
-203.377	-84.818	0.132	-0.041
-202.363	-200.000	0.033	0.344
-201.348	-28.723	0.055	-0.031
-200.333	-129.018	-0.131	0.018
-199.319	10.097	0.304	0.230
-198.304	-110.520	-0.091	0.019
-197.290	-98.639	-0.417	-0.106
-196.275	-200.000	-0.059	-0.336
-195.260	800.000	-0.057	-0.202
-194.246	-200.000	-0.003	0.028
-193.231	88.256	-0.343	0.378
-192.217	-200.000	-0.003	0.054
-191.202	-200.000	-0.064	0.447
-190.187	800.000	0.106	-0.330
-189.173	800.000	0.097	-0.344
-188.158	-19.819	0.116	0.071
-187.144	-27.062	-0.202	0.117
-186.129	-200.000	-0.008	-0.064
-185.114	27.134	0.211	-0.176
-184.100	316.164	0.057	-0.106
-183.085	-200.000	0.003	-0.110
-182.071	-101.563	-0.057	-0.014
-181.056	-54.394	0.287	0.129
-180.042	-200.000	-0.021	0.340
-179.027	-200.000	0.032	0.211
-178.012	-91.253	-0.068	-0.019
-176.998	-200.000	-0.014	-0.083
-175.983	-200.000	-0.005	0.272
-174.969	373.791	-0.008	0.016
-173.954	9.685	-0.045	-0.034
-172.939	-200.000	-0.081	-0.000
-171.925	-200.000	-0.001	0.042
-170.910	-61.459	0.336	0.140
-169.896	120.006	0.101	-0.125
-168.881	12.144	0.155	0.118
-167.866	-46.247	-0.154	-0.075
-166.852	-97.349	-0.412	0.107
-165.837	-12.482	-0.192	-0.124
-164.823	342.222	0.134	0.261
-163.808	-93.918	-0.188	-0.051
-162.793	-38.858	-0.111	-0.058
-161.779	800.000	-0.099	0.415
-160.764	-153.524	0.696	-0.048
-159.750	-61.826	-0.111	0.046
-158.735	-157.613	-0.529	-0.031
-157.720	-200.000	0.004	0.163
-156.706	-200.000	0.029	0.471
-155.691	-30.925	-0.260	-0.146
-154.677	-200.000	0.055	-0.488
-153.662	-200.000	0.053	0.372
-152.647	-200.000	-0.022	0.131
-151.633	-81.515	-0.217	-0.071
-150.618	-162.701	0.142	-0.007
-149.604	-131.493	-0.131	-0.017
-148.589	-30.472	0.360	0.203
-147.574	-132.037	0.266	-0.034
-146.560	38.516	0.175	0.155
-145.545	45.792	-0.065	0.059
-144.531	-119.488	0.407	-0.070
-143.516	621.123	-0.091	-0.227
-142.502	517.861	-0.072	-0.168
-141.487	-146.270	0.187	-0.016
-140.472	525.809	0.181	-0.424
-139.458	-76.541	0.295	0.103
-138.443	-143.275	0.187	0.018
-137.429	-28.742	0.282	-0.161
-136.414	-2.461	-0.196	-0.136
-135.399	-78.223	-0.218	0.074
-134.385	230.694	-0.164	0.266
-133.370	31.971	-0.046	-0.040
-132.356	39.720	-0.020	-0.017
-131.341	-200.000	0.046	0.283
-130.326	-104.265	0.308	-0.071
-129.312	-200.000	0.028	-0.125
-128.297	746.995	0.032	-0.085
-127.283	19.641	-0.165	-0.131
-126.268	800.000	0.076	-0.209
-125.253	70.957	-0.316	-0.324
-124.239	-104.904	0.098	0.022
-123.224	-200.000	0.035	0.388
-122.210	239.528	0.119	0.196
-121.195	449.824	0.064	0.141
-120.180	374.434	-0.047	0.096
-119.166	-42.690	-0.156	-0.079
-118.151	-23.010	0.122	-0.073
-117.137	531.889	-0.133	-0.312
-116.122	145.024	-0.217	-0.288
-115.107	-92.198	0.433	0.121
-114.093	87.672	0.036	0.039
-113.078	257.103	-0.119	-0.203
-112.064	-200.000	0.008	-0.347
-111.049	-145.546	0.200	0.018
-110.034	3.260	-0.276	-0.199
-109.020	78.328	0.104	-0.110
-108.005	-25.077	0.217	-0.127
-106.991	149.273	-0.037	-0.049
-105.976	800.000	-0.047	-0.186
-104.962	-114.741	0.148	-0.028
-103.947	-200.000	-0.079	0.353
-102.932	-44.954	-0.269	-0.133
-101.918	79.066	0.106	-0.112
-100.903	-139.852	-0.320	-0.034
-99.889	-156.055	0.068	-0.004
-98.874	-200.000	-0.035	-0.191
-97.859	800.000	-0.055	-0.176
-96.845	-70.810	0.160	0.060
-95.830	185.672	-0.041	0.060
-94.816	-79.367	-0.163	0.055
-93.801	-90.494	0.111	0.032
-92.786	-125.537	-0.164	-0.025
-91.772	237.441	0.133	-0.219
-90.757	-43.777	0.278	-0.139
-89.743	-144.445	0.125	0.011
-88.728	-1.162	0.149	0.104
-87.713	-58.570	-0.188	-0.081
-86.699	-192.271	0.439	-0.004
-85.684	20.032	0.278	-0.222
-84.670	800.000	0.054	0.150
-83.655	-157.949	-0.136	0.008
-82.640	155.240	-0.078	-0.107
-81.626	-200.000	0.024	0.146
-80.611	130.364	0.269	-0.341
-79.597	10.508	0.082	-0.062
-78.582	-169.321	-0.322	0.012
-77.567	123.960	0.184	-0.229
-76.553	800.000	0.081	-0.343
-75.538	-200.000	0.045	-0.210
-74.524	315.072	-0.238	-0.444
-73.509	-200.000	-0.070	-0.372
-72.494	30.848	0.066	0.056
-71.480	292.380	0.052	0.094
-70.465	24.171	0.162	-0.133
-69.451	97.287	-0.102	0.116
-68.436	293.181	0.117	0.211
-67.422	-105.411	0.173	0.039
-66.407	-200.000	-0.004	-0.349
-65.392	-155.448	0.071	-0.005
-64.378	12.624	-0.180	0.137
-63.363	-112.380	0.288	0.057
-62.349	251.879	0.051	-0.086
-61.334	75.420	-1.134	-1.184
-60.319	8.656	0.559	0.417
-59.305	-200.000	-0.180	-1.251
-58.290	800.000	0.267	1.136
-57.276	472.208	0.734	1.634
-56.261	-200.000	95.650	597.104
-55.246	566.930	1362.499	3271.159
-54.232	159.619	2546.887	3506.864
-53.217	103.522	2296.043	2665.082
-52.203	38.866	2058.312	1818.306
-51.188	33.886	1973.932	1699.292
-50.173	32.411	1955.384	1670.179
-49.159	47.146	2004.530	1844.895
-48.144	48.648	2022.287	1874.674
-47.130	34.539	1984.481	1713.973
-46.115	32.111	1974.602	1683.642
-45.100	32.057	1971.502	1680.449
-44.086	32.020	1969.505	1678.345
-43.071	32.005	1966.361	1675.463
-42.057	31.955	1964.109	1673.037
-41.042	31.971	1962.679	1671.895
-40.027	32.007	1960.236	1670.062
-39.013	32.038	1958.292	1668.619
-37.998	32.039	1956.719	1667.221
-36.984	32.046	1954.894	1665.660
-35.969	32.106	1952.702	1664.261
-34.954	32.112	1951.096	1662.874
-33.940	32.181	1949.813	1662.331
-32.925	32.170	1948.044	1660.654
-31.911	32.143	1946.748	1659.250
-30.896	32.132	1944.826	1657.449
-29.881	32.171	1943.587	1656.670
-28.867	32.244	1941.833	1655.753
-27.852	32.201	1939.749	1653.531
-26.838	32.245	1937.620	1652.041
-25.823	32.245	1935.701	1650.336
-24.809	32.215	1934.215	1648.736
-23.794	32.174	1932.339	1646.720
-22.779	32.121	1931.184	1645.205
-21.765	32.040	1929.715	1643.177
-20.750	32.120	1927.599	1642.009
-19.736	32.125	1926.430	1640.995
-18.721	32.152	1924.630	1639.627
-17.706	32.177	1922.686	1638.125
-16.692	32.151	1920.955	1636.358
-15.677	32.229	1919.496	1635.733
-14.663	32.201	1918.513	1634.579
-13.648	32.171	1917.040	1633.005
-12.633	32.089	1916.419	1631.696
-11.619	32.099	1915.274	1630.745
-10.604	32.150	1913.223	1629.372
-9.590	32.116	1911.568	1627.603
-8.575	32.133	1910.413	1626.710
-7.560	32.124	1909.274	1625.592
-6.546	32.136	1907.930	1624.490
-5.531	32.228	1906.733	1624.201
-4.517	32.189	1905.722	1622.938
-3.502	32.185	1904.446	1621.747
-2.487	32.135	1903.206	1620.204
-1.473	32.141	1902.331	1619.439
-0.458	32.208	1897.683	1615.998
0.556	32.562	1878.253	1589.508
1.571	28.518	1860.332	1540.323
2.586	24.861	1882.554	1527.436
3.600	23.921	1918.720	1548.461
4.615	23.547	1914.017	1541.283
5.629	18.341	1813.542	1417.274
6.644	8.165	1692.543	1243.608
7.659	2.652	1654.471	1173.415
8.673	2.265	1650.134	1167.283
9.688	2.172	1649.255	1165.842
10.702	2.120	1647.818	1164.332
11.717	1.983	1644.523	1160.855
12.731	2.467	1643.523	1163.727
13.746	9.263	1659.785	1227.165
14.761	19.828	1683.947	1326.355
15.775	25.569	1694.143	1378.417
16.790	26.653	1696.124	1388.218
17.804	26.899	1694.955	1389.023
18.819	26.838	1694.323	1387.911
19.834	27.082	1693.978	1389.376
20.848	27.152	1693.633	1389.501
21.863	27.244	1692.209	1388.917
22.877	27.307	1691.170	1388.419
23.892	27.260	1690.802	1387.640
24.907	27.322	1689.561	1386.965
25.921	27.404	1688.254	1386.394
26.936	27.304	1687.295	1384.723
27.950	27.261	1686.632	1383.736
28.965	27.274	1686.076	1383.251
29.980	27.303	1684.661	1382.188
30.994	27.354	1683.270	1381.315
32.009	27.270	1682.767	1380.143
33.023	27.288	1681.896	1379.440
34.038	27.271	1680.774	1378.268
35.053	27.375	1679.439	1377.843
36.067	27.322	1678.503	1376.547
37.082	27.379	1677.686	1376.186
38.096	27.270	1677.302	1374.930
39.111	27.304	1676.250	1374.203
40.126	27.223	1675.728	1373.043
41.140	27.253	1674.644	1372.258
42.155	27.296	1673.365	1371.412
43.169	27.276	1672.413	1370.359
44.184	27.354	1670.929	1369.605
45.199	27.292	1670.243	1368.456
46.213	27.227	1669.433	1367.183
47.228	27.291	1668.193	1366.532
48.242	27.306	1666.728	1365.318
49.257	27.301	1665.716	1364.331
50.271	27.422	1663.887	1363.622
51.286	27.370	1663.179	1362.534
52.301	27.385	1662.059	1361.608
53.315	27.317	1660.732	1359.887
54.330	27.278	1659.175	1358.203
55.344	27.246	1658.044	1356.917
56.359	27.238	1656.971	1355.861
57.374	27.246	1656.325	1355.274
58.388	27.286	1655.252	1354.569
59.403	27.305	1653.570	1353.217
60.417	27.308	1652.375	1352.138
61.432	27.241	1652.038	1351.249
62.447	27.320	1650.137	1350.159
63.461	27.278	1649.676	1349.350
64.476	27.318	1648.354	1348.444
65.490	27.263	1647.417	1347.156
66.505	27.217	1646.569	1346.000
67.520	27.255	1645.818	1345.550
68.534	27.328	1644.061	1344.530
69.549	27.285	1643.439	1343.586
70.563	27.199	1642.110	1341.744
71.578	27.382	1640.694	1341.821
72.593	27.389	1640.244	1341.385
73.607	27.354	1639.288	1340.228
74.622	27.329	1638.228	1339.056
75.636	27.378	1637.480	1338.688
76.651	27.274	1636.677	1337.147
77.666	27.288	1635.865	1336.472
78.680	27.379	1634.663	1336.039
79.695	27.395	1633.682	1335.236
80.709	27.262	1633.503	1333.997
81.724	27.240	1632.378	1332.799
82.739	27.382	1631.192	1332.750
83.753	27.274	1630.613	1331.370
84.768	27.292	1629.102	1330.150
85.782	27.326	1628.574	1329.847
86.797	27.256	1627.740	1328.543
87.812	27.299	1626.542	1327.760
88.826	27.388	1625.537	1327.466
89.841	27.342	1624.675	1326.310
90.855	27.385	1623.858	1325.844
91.870	27.406	1622.729	1324.958
92.884	27.333	1621.732	1323.492
93.899	27.356	1620.501	1322.537
94.914	27.390	1619.358	1321.735
95.928	27.468	1617.706	1320.834
96.943	27.423	1616.891	1319.724
97.957	27.403	1616.027	1318.759
98.972	27.363	1614.346	1316.984
99.987	27.364	1613.160	1315.902
101.001	27.433	1611.881	1315.248
102.016	27.325	1610.782	1313.450
103.030	27.300	1609.761	1312.320
104.045	27.303	1608.639	1311.314
105.060	27.351	1607.012	1310.218
106.074	27.307	1606.029	1308.982
107.089	27.461	1604.310	1308.570
108.103	27.410	1603.301	1307.269
109.118	27.436	1602.283	1306.508
110.133	27.377	1601.715	1305.506
111.147	27.316	1600.147	1303.676
112.162	27.378	1598.830	1302.933
113.176	27.405	1597.572	1301.985
114.191	27.407	1596.281	1300.828
115.206	27.552	1595.568	1301.171
116.220	27.429	1594.317	1299.160
117.235	27.436	1592.901	1297.938
118.249	27.413	1591.915	1296.854
119.264	27.473	1590.643	1296.134
120.279	27.400	1590.028	1294.999
121.293	27.432	1588.781	1294.096
122.308	27.426	1587.716	1293.068
123.322	27.433	1586.141	1291.727
124.337	27.500	1584.861	1291.042
125.352	27.539	1583.795	1290.337
126.366	27.478	1583.174	1289.285
127.381	27.503	1581.960	1288.354
128.395	27.500	1581.564	1287.901
129.410	27.481	1580.400	1286.706
130.424	27.465	1579.050	1285.376
131.439	27.487	1578.307	1284.813
132.454	27.480	1577.095	1283.668
133.468	27.457	1575.177	1281.830
134.483	27.482	1574.256	1281.139
135.497	27.492	1572.849	1279.949
136.512	27.529	1571.221	1278.775
137.527	27.439	1570.666	1277.580
138.541	27.541	1569.456	1277.197
139.556	27.434	1568.544	1275.593
140.570	27.508	1567.140	1274.856
141.585	27.337	1566.630	1273.131
142.600	27.452	1564.925	1272.436
143.614	27.609	1563.754	1272.470
144.629	27.501	1562.896	1270.904
145.643	27.480	1561.603	1269.595
146.658	27.418	1560.348	1268.031
147.673	27.453	1558.955	1267.028
148.687	27.403	1558.365	1266.088
149.702	27.517	1557.049	1265.701
150.716	27.404	1555.556	1263.590
151.731	27.399	1555.095	1263.066
152.746	27.531	1553.633	1262.681
153.760	27.529	1552.187	1261.386
154.775	27.486	1551.614	1260.505
155.789	27.529	1550.476	1259.769
156.804	27.524	1549.654	1258.958
157.819	27.473	1548.855	1257.842
158.833	27.478	1547.648	1256.785
159.848	27.517	1546.535	1256.042
160.862	27.575	1545.476	1255.466
161.877	27.553	1544.930	1254.760
162.892	27.580	1544.035	1254.110
163.906	27.624	1542.498	1253.052
164.921	27.579	1541.862	1252.113
165.935	27.581	1540.912	1251.244
166.950	27.668	1540.349	1251.277
167.964	27.592	1539.448	1249.912
168.979	27.590	1538.732	1249.207
169.994	27.552	1537.662	1247.969
171.008	27.676	1536.419	1247.696
172.023	27.667	1535.423	1246.718
173.037	27.659	1534.361	1245.691
174.052	27.642	1533.350	1244.640
175.067	27.622	1532.939	1244.061
176.081	27.567	1532.014	1242.828
177.096	27.625	1530.609	1241.974
178.110	27.615	1529.865	1241.186
179.125	27.626	1528.383	1239.951
180.140	27.675	1527.554	1239.505
181.154	27.728	1527.142	1239.417
182.169	27.788	1525.895	1238.702
183.183	27.753	1525.001	1237.631
184.198	27.727	1524.012	1236.543
185.213	27.735	1523.444	1236.030
186.227	27.732	1522.155	1234.853
187.242	27.708	1521.851	1234.333
188.256	27.670	1520.743	1233.071
189.271	27.756	1519.927	1232.881
190.286	27.652	1519.375	1231.622
191.300	27.730	1518.056	1230.965
192.315	27.725	1517.489	1230.369
193.329	27.769	1516.025	1229.366
194.344	27.643	1515.626	1228.087
195.359	27.705	1514.830	1227.746
196.373	27.749	1513.895	1227.175
197.388	27.736	1513.127	1226.359
198.402	27.706	1511.986	1225.122
199.417	27.583	1511.311	1223.645
200.432	27.664	1510.310	1223.271
201.446	27.757	1509.964	1223.502
202.461	27.729	1509.083	1222.495
203.475	27.719	1507.926	1221.381
204.490	27.690	1507.162	1220.458
205.504	27.735	1506.224	1219.895
206.519	27.719	1505.474	1219.070
207.534	27.808	1504.461	1218.736
208.548	27.717	1503.903	1217.570
209.563	27.779	1502.917	1217.075
210.577	27.771	1501.557	1215.816
211.592	27.796	1501.023	1215.440
212.607	27.786	1500.405	1214.766
213.621	27.787	1500.031	1214.363
214.636	27.960	1498.880	1214.472
215.650	27.942	1498.148	1213.654
216.665	27.906	1497.145	1212.495
217.680	27.885	1496.191	1211.479
218.694	27.815	1496.047	1210.789
219.709	27.824	1495.007	1209.903
220.723	27.904	1494.078	1209.568
221.738	27.919	1493.135	1208.798
222.753	27.877	1492.096	1207.571
223.767	27.734	1491.763	1206.251
224.782	27.713	1490.747	1205.183
225.796	27.919	1490.037	1205.865
226.811	27.921	1489.161	1205.064
227.826	27.884	1488.697	1204.338
228.840	27.898	1487.642	1203.465
229.855	27.959	1486.804	1203.087
230.869	27.849	1486.482	1201.992
231.884	27.932	1485.175	1201.379
232.899	27.921	1484.324	1200.506
233.913	27.820	1482.925	1198.610
234.928	28.027	1481.936	1199.062
235.942	28.033	1480.765	1198.049
236.957	28.011	1480.258	1197.384
237.972	27.940	1479.265	1196.011
238.986	28.010	1477.900	1195.260
240.001	27.869	1477.224	1193.687
241.015	27.952	1476.737	1193.732
242.030	28.204	1475.345	1194.141
243.045	28.051	1474.729	1192.538
244.059	28.122	1473.490	1191.894
245.074	28.127	1472.913	1191.359
246.088	28.078	1472.287	1190.428
247.103	28.217	1471.200	1190.347
248.117	28.136	1470.600	1189.230
249.132	28.126	1469.820	1188.431
250.147	28.061	1469.304	1187.481
251.161	28.071	1468.868	1187.090
252.176	28.248	1467.692	1187.182
253.190	28.167	1467.035	1186.020
254.205	28.154	1466.592	1185.472
255.220	28.193	1465.550	1184.780
256.234	28.097	1464.793	1183.438
257.249	28.218	1463.739	1183.266
258.263	28.203	1462.899	1182.387
259.278	28.277	1462.218	1182.207
260.293	28.267	1461.167	1181.192
261.307	28.173	1460.899	1180.263
262.322	28.236	1459.887	1179.749
263.336	28.314	1459.344	1179.705
264.351	28.215	1458.400	1178.205
265.366	28.166	1457.466	1177.027
266.380	28.233	1456.832	1176.845
267.395	28.272	1455.413	1175.845
268.409	28.280	1454.622	1175.149
269.424	28.318	1453.677	1174.526
270.439	28.383	1452.394	1173.806
271.453	28.280	1451.940	1172.670
272.468	28.280	1451.468	1172.186
273.482	28.282	1450.262	1171.119
274.497	28.287	1449.783	1170.662
275.512	28.284	1448.540	1169.540
276.526	28.306	1448.373	1169.440
277.541	28.400	1447.502	1169.235
278.555	28.288	1446.659	1167.736
279.570	28.434	1445.569	1167.679
280.585	28.356	1445.408	1166.950
281.599	28.405	1443.956	1165.990
282.614	28.448	1443.217	1165.560
283.628	28.389	1441.886	1164.009
284.643	28.391	1441.286	1163.435
285.657	28.457	1440.445	1163.070
286.672	28.459	1439.376	1162.119
287.687	28.395	1438.885	1161.212
288.701	28.437	1438.003	1160.661
289.716	28.477	1437.331	1160.269
290.730	28.485	1436.600	1159.631
291.745	28.533	1435.373	1158.842
292.760	28.480	1434.911	1158.027
293.774	28.495	1434.387	1157.599
294.789	28.454	1433.297	1156.359
295.803	28.534	1432.656	1156.244
296.818	28.539	1431.908	1155.570
297.833	28.508	1430.696	1154.294
298.847	28.460	1429.813	1153.175
299.862	28.587	1429.341	1153.490
300.876	28.567	1428.303	1152.428
301.891	28.518	1427.725	1151.550
302.906	28.601	1426.723	1151.162
303.920	28.773	1425.914	1151.486
304.935	28.695	1425.303	1150.401
305.949	28.553	1425.144	1149.282
306.964	28.654	1424.192	1149.045
307.979	28.649	1422.898	1147.866
308.993	28.571	1422.488	1146.947
310.008	28.643	1421.623	1146.599
311.022	28.758	1420.497	1146.308
312.037	28.703	1419.353	1144.939
313.052	28.620	1418.916	1143.969
314.066	28.755	1417.934	1143.918
315.081	28.757	1416.464	1142.643
316.095	28.749	1415.889	1142.024
317.110	28.703	1414.818	1140.774
318.125	28.769	1414.301	1140.665
319.139	28.813	1413.470	1140.167
320.154	28.730	1412.740	1138.962
321.168	28.694	1412.108	1138.129
322.183	28.840	1410.853	1137.926
323.197	28.885	1409.784	1137.241
324.212	28.799	1409.175	1136.115
325.227	28.741	1408.288	1134.943
326.241	28.824	1407.561	1134.768
327.256	28.901	1406.846	1134.565
328.270	28.925	1406.246	1134.129
329.285	28.926	1405.290	1133.263
330.300	28.862	1404.492	1132.129
331.314	28.894	1403.945	1131.781
332.329	28.900	1403.083	1131.026
333.343	28.992	1402.147	1130.732
334.358	28.969	1401.824	1130.231
335.373	28.964	1401.065	1129.490
336.387	28.840	1400.501	1128.172
337.402	29.055	1399.442	1128.539
338.416	28.990	1398.745	1127.480
339.431	29.080	1398.261	1127.544
340.446	29.007	1397.923	1126.725
341.460	29.099	1396.960	1126.412
342.475	29.142	1395.875	1125.700
343.489	29.080	1395.106	1124.600
344.504	29.138	1394.183	1124.110
345.519	29.011	1393.145	1122.400
346.533	29.048	1392.575	1122.063
347.548	29.013	1391.743	1121.079
348.562	29.104	1390.883	1120.847
349.577	29.109	1390.217	1120.241
350.592	29.183	1389.233	1119.794
351.606	29.173	1388.512	1119.054
352.621	29.143	1386.991	1117.547
353.635	29.021	1386.597	1116.391
354.650	29.040	1386.080	1115.990
355.665	29.185	1385.063	1115.956
356.679	29.140	1383.776	1114.545
357.694	29.284	1382.646	1114.407
358.708	29.193	1382.174	1113.377
359.723	29.277	1381.000	1112.840
360.738	29.222	1379.813	1111.455
361.752	29.161	1378.656	1110.055
362.767	29.185	1377.437	1109.123
363.781	29.234	1377.025	1108.988
364.796	29.233	1376.140	1108.167
365.810	29.294	1374.900	1107.440
366.825	29.347	1374.536	1107.366
367.840	29.303	1374.215	1106.748
368.854	29.378	1373.192	1106.276
369.869	29.423	1372.486	1105.879
370.883	29.329	1372.289	1105.060
371.898	29.376	1371.392	1104.517
372.913	29.294	1371.105	1103.699
373.927	29.347	1370.102	1103.110
374.942	29.301	1369.124	1101.950
375.956	29.347	1368.977	1102.008
376.971	29.462	1367.901	1101.732
377.986	29.504	1366.771	1100.977
379.000	29.408	1366.079	1099.749
380.015	29.407	1365.637	1099.291
381.029	29.382	1364.964	1098.499
382.044	29.411	1364.409	1098.132
383.059	29.495	1363.428	1097.741
384.073	29.443	1362.895	1096.905
385.088	29.478	1362.444	1096.659
386.102	29.564	1361.624	1096.407
387.117	29.514	1361.066	1095.567
388.132	29.522	1360.197	1094.816
389.146	29.454	1359.698	1093.915
390.161	29.502	1358.982	1093.528
391.175	29.606	1358.437	1093.606
392.190	29.552	1357.639	1092.549
393.205	29.517	1356.633	1091.433
394.219	29.557	1355.991	1091.060
395.234	29.511	1355.160	1090.024
396.248	29.537	1354.219	1089.320
397.263	29.654	1352.987	1088.926
398.278	29.635	1351.426	1087.458
399.292	29.618	1350.837	1086.787
400.307	29.638	1350.169	1086.271
401.321	29.741	1349.018	1085.855
402.336	29.687	1348.239	1084.814
403.350	29.666	1347.329	1083.867
404.365	29.628	1346.648	1082.997
405.380	29.740	1345.410	1082.562
406.394	29.757	1344.498	1081.830
407.409	29.764	1344.244	1081.571
408.423	29.792	1343.564	1081.094
409.438	29.826	1342.887	1080.652
410.453	29.785	1342.042	1079.640
411.467	29.732	1341.395	1078.711
412.482	29.776	1340.743	1078.347
413.496	29.880	1340.071	1078.321
414.511	29.924	1339.339	1077.894
415.526	29.791	1338.581	1076.412
416.540	29.861	1338.095	1076.331
417.555	29.906	1337.115	1075.709
418.569	29.932	1336.875	1075.570
419.584	29.860	1336.804	1075.003
420.599	29.907	1336.063	1074.586
421.613	95.761	1354.258	1458.866
422.628	95.278	1356.874	1458.979
