DTS Sentinel unit serial number:	SN413079Multiplexer serial number:	ORYXHardware model number:	OX4-SRSoftware version number:	ORYX F/W v4.00 Oryx Data Collector v3.7.2.0data status	okinstallation	princeton_trtdifferential loss correction	single-endedforward channel	channel 4reverse channel	N/Adate	2019/09/18time	03:09:35forward acquisition time	60.00reverse acquisition time	0.00gamma	496.2192k internal	0.2334k external	0.2334temperature offset calibration	0.9994default loss term (dB/km)	0.3790temperature slope calibration	1.0000multiplexer offset coefficient	1.0000multiplexer slope coefficient	1.0000fibre end	0.00T internal ref (°C)	22.75T ext. ref 1 (°C)	0.16T ext. ref 2 (°C)	16.89length (m)	temperature (°C)	Stokes	anti-Stokes-747.200	800.000	-0.006	0.023
-746.185	3.014	0.144	0.105
-745.171	30.588	-0.088	-0.075
-744.156	-137.748	-0.278	-0.031
-743.142	800.000	-0.025	-0.073
-742.127	-40.491	-0.365	-0.190
-741.112	-97.771	-0.261	0.068
-740.098	-200.000	-0.028	0.316
-739.083	-112.462	0.227	0.046
-738.069	229.636	-0.195	0.321
-737.054	-200.000	0.092	-0.411
-736.039	-7.679	-0.185	0.126
-735.025	519.542	0.205	0.483
-734.010	61.472	-0.213	0.213
-732.996	-53.567	-0.313	-0.144
-731.981	-99.618	0.430	-0.109
-730.966	-200.000	-0.232	-0.000
-729.952	-200.000	-0.029	-0.287
-728.937	-150.307	-0.169	-0.013
-727.923	34.967	-0.209	0.184
-726.908	-80.796	-0.242	-0.081
-725.894	52.268	-0.192	-0.184
-724.879	-37.570	0.282	0.151
-723.864	145.055	-0.161	0.216
-722.850	-111.282	-0.294	-0.060
-721.835	101.498	-0.121	-0.142
-720.821	216.320	0.084	-0.135
-719.806	-172.141	0.269	0.009
-718.791	-55.529	0.204	-0.092
-717.777	800.000	-0.049	0.171
-716.762	-200.000	0.012	0.073
-715.748	38.333	0.168	0.150
-714.733	683.761	0.161	-0.421
-713.718	-40.372	-0.067	-0.035
-712.704	-200.000	-0.055	0.337
-711.689	-59.910	-0.281	0.121
-710.675	-137.717	-0.273	0.031
-709.660	800.000	0.038	-0.136
-708.645	-200.000	-0.016	-0.351
-707.631	-78.420	-0.171	-0.059
-706.616	404.671	0.147	-0.312
-705.602	29.946	0.253	-0.217
-704.587	-200.000	0.041	0.353
-703.572	273.491	0.178	0.316
-702.558	-79.910	0.264	-0.089
-701.543	198.635	-0.335	-0.514
-700.529	-167.917	-0.243	0.010
-699.514	34.875	-0.232	-0.203
-698.499	536.528	-0.051	-0.122
-697.485	471.572	0.211	0.477
-696.470	800.000	-0.034	-0.097
-695.456	295.618	0.168	-0.309
-694.441	-200.000	0.033	-0.206
-693.426	658.778	0.115	-0.298
-692.412	-96.903	0.328	-0.086
-691.397	-154.306	-0.241	0.016
-690.383	-38.774	0.177	0.094
-689.368	-200.000	-0.006	0.362
-688.354	-123.511	0.195	-0.031
-687.339	187.582	-0.162	0.242
-686.324	-200.000	0.057	-0.289
-685.310	-136.690	-0.339	0.039
-684.295	36.221	-0.141	0.125
-683.281	34.957	-0.127	0.112
-682.266	-98.645	-0.292	0.075
-681.251	-26.975	-0.156	-0.091
-680.237	-200.000	-0.028	-0.258
-679.222	800.000	-0.106	-0.313
-678.208	66.223	0.353	-0.360
-677.193	-200.000	0.033	-0.367
-676.178	353.916	0.159	-0.317
-675.164	-200.000	0.044	0.292
-674.149	85.726	-0.114	0.125
-673.135	-194.582	-0.191	-0.002
-672.120	-113.166	-0.453	0.089
-671.105	800.000	0.061	-0.247
-670.091	-39.621	-0.156	0.082
-669.076	41.643	0.061	-0.055
-668.062	121.254	-0.008	-0.011
-667.047	158.088	0.047	-0.065
-666.032	-99.948	0.260	-0.065
-665.018	-125.240	0.291	-0.045
-664.003	-200.000	-0.021	-0.176
-662.989	800.000	-0.048	-0.145
-661.974	-30.385	0.113	0.064
-660.959	-91.809	-0.385	0.110
-659.945	800.000	0.108	-0.400
-658.930	-96.460	0.376	0.099
-657.916	417.247	-0.055	0.118
-656.901	-200.000	-0.034	-0.371
-655.886	-200.000	-0.031	0.237
-654.872	-135.610	-0.021	0.002
-653.857	203.685	-0.152	-0.236
-652.843	-42.093	0.152	0.078
-651.828	206.219	-0.236	0.369
-650.814	-200.000	0.029	-0.232
-649.799	41.282	-0.379	-0.343
-648.784	79.413	0.286	0.307
-647.770	26.982	0.071	-0.060
-646.755	425.485	0.018	-0.039
-645.741	-114.970	-0.061	-0.012
-644.726	259.335	-0.149	-0.258
-643.711	-171.575	-0.150	-0.005
-642.697	77.467	0.255	0.272
-641.682	-99.066	-0.182	-0.046
-640.668	331.550	-0.069	-0.134
-639.653	-200.000	-0.008	0.122
-638.638	727.683	0.084	0.225
-637.624	349.423	0.125	-0.247
-636.609	-127.766	0.122	0.018
-635.595	13.693	-0.237	-0.184
-634.580	-27.943	0.046	0.027
-633.565	210.096	0.084	-0.132
-632.551	-143.075	-0.307	-0.030
-631.536	-186.607	-0.215	-0.003
-630.522	-200.000	-0.053	-0.460
-629.507	-46.096	0.132	-0.065
-628.492	130.764	-0.122	0.156
-627.478	-200.000	-0.006	0.044
-626.463	-200.000	-0.004	-0.075
-625.449	800.000	-0.078	-0.229
-624.434	-30.345	-0.172	-0.098
-623.419	-111.626	0.194	-0.039
-622.405	164.385	0.055	0.078
-621.390	-72.453	-0.160	-0.059
-620.376	-47.520	0.226	0.110
-619.361	44.479	-0.171	-0.157
-618.346	800.000	-0.032	0.126
-617.332	-9.335	-0.033	-0.022
-616.317	124.292	-0.054	0.068
-615.303	800.000	-0.020	-0.083
-614.288	613.375	-0.045	-0.112
-613.273	800.000	0.104	-0.320
-612.259	-25.757	-0.242	-0.143
-611.244	-200.000	0.022	0.215
-610.230	-71.250	-0.064	0.024
-609.215	-164.686	0.074	0.003
-608.201	-31.605	-0.356	-0.200
-607.186	-200.000	0.007	0.232
-606.171	60.485	-0.126	-0.125
-605.157	-200.000	0.038	-0.243
-604.142	31.918	0.231	0.199
-603.128	240.418	-0.065	-0.108
-602.113	505.207	-0.039	-0.090
-601.098	74.125	-0.031	-0.032
-600.084	74.860	-0.134	-0.141
-599.069	-83.321	-0.156	0.050
-598.055	-152.245	0.385	0.028
-597.040	0.502	-0.171	0.122
-596.025	451.319	-0.031	-0.069
-595.011	-200.000	-0.009	-0.760
-593.996	75.834	0.258	-0.273
-592.982	-200.000	-0.027	-0.182
-591.967	29.388	0.075	0.064
-590.952	-26.234	0.154	0.090
-589.938	62.249	-0.231	-0.230
-588.923	78.742	-0.221	-0.236
-587.909	800.000	-0.028	-0.118
-586.894	-66.745	-0.243	0.096
-585.879	367.704	0.124	-0.250
-584.865	800.000	-0.057	-0.247
-583.850	-102.723	0.078	-0.019
-582.836	481.672	0.213	0.483
-581.821	-33.827	-0.039	0.022
-580.806	-68.419	0.063	0.024
-579.792	-120.059	-0.042	-0.007
-578.777	438.511	-0.206	-0.449
-577.763	-64.945	0.171	-0.069
-576.748	-67.031	-0.217	-0.085
-575.733	-183.604	0.356	-0.006
-574.719	-48.449	-0.140	-0.067
-573.704	696.518	0.136	-0.357
-572.690	72.306	-0.288	0.300
-571.675	79.658	-0.144	0.155
-570.661	130.389	-0.067	-0.086
-569.646	73.640	-0.263	-0.275
-568.631	-55.034	0.291	0.131
-567.617	-32.542	-0.106	-0.059
-566.602	-200.000	-0.000	-0.281
-565.588	800.000	-0.081	0.239
-564.573	211.014	-0.157	-0.247
-563.558	157.762	-0.350	-0.483
-562.544	-79.843	-0.403	-0.135
-561.529	800.000	0.025	0.095
-560.515	-200.000	0.007	-0.098
-559.500	800.000	-0.068	0.255
-558.485	-200.000	-0.030	0.331
-557.471	150.031	0.166	0.225
-556.456	-68.711	-0.106	0.041
-555.442	136.821	0.096	-0.126
-554.427	-132.189	0.126	-0.016
-553.412	800.000	-0.079	-0.241
-552.398	113.079	-0.020	0.024
-551.383	-12.583	-0.191	-0.125
-550.369	-7.924	-0.254	0.171
-549.354	-29.172	0.171	-0.098
-548.339	-200.000	0.011	0.111
-547.325	800.000	0.036	0.149
-546.310	-175.908	0.019	0.001
-545.296	67.246	0.144	0.146
-544.281	106.799	-0.141	-0.167
-543.266	800.000	0.133	0.413
-542.252	785.568	-0.066	0.181
-541.237	39.943	0.020	-0.018
-540.223	-62.660	-0.142	-0.059
-539.208	-200.000	0.060	-0.378
-538.193	157.665	-0.120	-0.166
-537.179	68.934	0.178	-0.183
-536.164	-86.418	-0.079	0.024
-535.150	-86.446	0.255	0.078
-534.135	-122.662	0.079	-0.013
-533.121	30.755	0.434	0.371
-532.106	-5.540	-0.071	0.049
-531.091	-200.000	0.027	-0.230
-530.077	800.000	0.050	-0.187
-529.062	-63.885	-0.147	-0.060
-528.048	21.632	-0.281	0.228
-527.033	800.000	0.007	-0.019
-526.018	-200.000	-0.017	-0.180
-525.004	13.359	0.166	0.129
-523.989	33.420	0.034	0.030
-522.975	-59.729	0.589	0.251
-521.960	31.051	0.052	0.045
-520.945	-155.553	0.159	0.010
-519.931	-64.400	-0.448	-0.182
-518.916	-200.000	-0.026	0.221
-517.902	174.080	-0.237	0.341
-516.887	-145.580	-0.103	0.009
-515.872	120.412	0.234	-0.289
-514.858	-80.598	0.074	-0.024
-513.843	-69.837	-0.194	-0.074
-512.829	800.000	0.036	0.149
-511.814	-42.117	0.299	0.152
-510.799	-31.547	0.428	-0.239
-509.785	-49.879	-0.303	0.143
-508.770	61.130	-0.210	-0.207
-507.756	-47.344	0.265	0.128
-506.741	-77.117	-0.340	-0.118
-505.726	10.257	-0.070	-0.053
-504.712	435.382	-0.083	0.180
-503.697	-69.161	-0.178	0.068
-502.683	-166.236	0.211	0.009
-501.668	37.327	0.085	-0.075
-500.653	-8.733	-0.363	-0.242
-499.639	260.376	0.112	-0.193
-498.624	41.599	0.097	0.087
-497.610	-78.641	0.120	0.041
-496.595	-200.000	-0.060	-0.374
-495.581	18.098	0.163	-0.129
-494.566	524.438	0.071	0.167
-493.551	397.062	-0.200	0.416
-492.537	141.309	0.018	-0.023
-491.522	49.707	0.139	0.130
-490.508	-200.000	-0.002	0.301
-489.493	-46.437	0.278	0.136
-488.478	-133.845	-0.441	-0.055
-487.464	-200.000	-0.041	-0.301
-486.449	-129.199	0.370	0.051
-485.435	68.176	0.330	-0.336
-484.420	800.000	-0.040	0.147
-483.405	237.017	0.099	-0.162
-482.391	325.447	0.105	0.199
-481.376	-180.130	-0.088	0.002
-480.362	119.324	0.031	-0.038
-479.347	-110.142	-0.074	0.015
-478.332	800.000	0.079	-0.243
-477.318	63.601	0.222	-0.221
-476.303	15.704	0.095	0.075
-475.289	3.312	-0.006	0.004
-474.274	800.000	0.039	0.126
-473.259	497.601	0.037	-0.085
-472.245	-160.301	0.209	0.011
-471.230	-144.833	0.254	0.023
-470.216	-33.240	-0.162	0.089
-469.201	-133.947	0.121	0.015
-468.186	-130.754	-0.115	-0.015
-467.172	6.931	0.259	0.192
-466.157	131.051	-0.286	0.366
-465.143	-200.000	-0.103	-0.454
-464.128	293.428	-0.081	-0.147
-463.113	-113.604	0.383	0.074
-462.099	-114.776	-0.026	0.005
-461.084	-30.853	0.240	0.135
-460.070	-200.000	0.018	0.353
-459.055	-112.612	-0.157	-0.031
-458.040	-200.000	0.061	-0.338
-457.026	-86.207	-0.129	-0.040
-456.011	646.493	-0.083	0.210
-454.997	216.002	-0.068	-0.107
-453.982	50.690	0.217	-0.204
-452.968	-109.601	-0.353	-0.074
-451.953	15.372	0.139	0.108
-450.938	800.000	-0.008	0.031
-449.924	800.000	0.138	-0.402
-448.909	-34.941	0.419	-0.227
-447.895	93.979	0.303	-0.341
-446.880	-131.817	0.484	0.063
-445.865	-200.000	-0.252	-0.000
-444.851	-183.318	-0.380	0.007
-443.836	31.282	0.224	0.191
-442.822	498.529	0.057	0.131
-441.807	27.737	-0.155	-0.129
-440.792	-25.195	0.297	-0.175
-439.778	-45.951	-0.350	-0.171
-438.763	-200.000	0.002	0.117
-437.749	-12.015	0.144	-0.094
-436.734	-84.111	-0.183	0.058
-435.719	247.021	-0.044	-0.073
-434.705	800.000	0.035	-0.108
-433.690	-200.000	0.011	-0.356
-432.676	99.164	0.088	-0.101
-431.661	-77.044	0.217	-0.075
-430.646	-32.738	-0.109	-0.060
-429.632	-103.751	-0.253	-0.059
-428.617	-200.000	-0.008	0.210
-427.603	109.261	-0.131	0.155
-426.588	800.000	0.043	-0.153
-425.573	-77.154	0.140	-0.049
-424.559	62.127	0.197	0.195
-423.544	-200.000	-0.001	0.083
-422.530	-200.000	-0.023	-0.170
-421.515	-66.167	-0.153	0.060
-420.500	110.217	-0.194	-0.231
-419.486	38.201	-0.184	-0.162
-418.471	-19.151	0.336	0.207
-417.457	-68.047	-0.208	0.080
-416.442	270.034	-0.176	0.306
-415.428	414.026	-0.105	-0.223
-414.413	-102.654	-0.228	0.054
-413.398	-17.232	0.111	0.070
-412.384	800.000	-0.021	-0.069
-411.369	-39.826	0.330	-0.171
-410.355	159.216	-0.246	0.339
-409.340	-28.130	-0.041	-0.023
-408.325	131.901	0.261	-0.334
-407.311	8.686	0.212	-0.158
-406.296	-29.497	-0.242	-0.137
-405.282	800.000	0.036	-0.119
-404.267	21.890	0.363	0.294
-403.252	-47.271	0.103	-0.050
-402.238	299.794	-0.052	0.095
-401.223	-200.000	-0.028	0.152
-400.209	-71.304	-0.077	0.029
-399.194	-109.261	0.066	-0.014
-398.179	-61.016	0.174	0.073
-397.165	-98.438	0.096	-0.024
-396.150	56.449	-0.284	0.274
-395.136	800.000	0.042	0.177
-394.121	-159.001	-0.075	0.004
-393.106	-200.000	0.023	-0.484
-392.092	-105.398	-0.140	-0.032
-391.077	555.007	-0.087	0.207
-390.063	-135.941	0.157	0.018
-389.048	800.000	-0.052	0.203
-388.033	-85.569	0.138	-0.043
-387.019	-60.890	-0.173	-0.073
-386.004	-200.000	-0.240	0.000
-384.990	59.908	0.048	-0.047
-383.975	255.331	-0.203	-0.344
-382.960	-200.000	-0.012	-0.133
-381.946	-200.000	-0.047	0.392
-380.931	-59.705	-0.077	0.033
-379.917	179.697	0.148	0.215
-378.902	-76.635	0.251	0.087
-377.888	800.000	0.111	0.403
-376.873	-73.151	-0.142	0.051
-375.858	7.996	0.169	0.125
-374.844	-121.874	0.255	-0.042
-373.829	643.815	0.115	0.292
-372.815	-200.000	-0.001	0.006
-371.800	306.180	0.153	0.282
-370.785	124.662	0.054	0.067
-369.771	800.000	-0.051	0.147
-368.756	406.366	0.068	0.141
-367.742	-200.000	-0.024	0.115
-366.727	-111.352	0.095	0.019
-365.712	800.000	-0.029	-0.102
-364.698	-109.230	-0.461	-0.097
-363.683	-117.383	0.451	0.081
-362.669	82.744	-0.056	0.061
-361.654	800.000	-0.086	0.353
-360.639	178.636	-0.099	0.143
-359.625	50.788	-0.414	0.388
-358.610	83.606	0.169	0.182
-357.596	-53.891	-0.365	0.165
-356.581	800.000	0.078	-0.257
-355.566	-15.443	-0.029	-0.018
-354.552	800.000	-0.057	0.178
-353.537	35.844	-0.265	-0.231
-352.523	-11.522	-0.191	-0.124
-351.508	800.000	0.086	0.349
-350.493	-200.000	-0.086	0.398
-349.479	22.955	0.236	0.192
-348.464	-156.384	-0.326	-0.020
-347.450	-200.000	0.018	-0.198
-346.435	320.476	-0.165	0.310
-345.420	800.000	-0.120	0.514
-344.406	269.978	0.141	-0.245
-343.391	-116.823	0.327	-0.059
-342.377	205.254	-0.237	-0.363
-341.362	588.325	0.057	0.139
-340.348	800.000	-0.022	-0.077
-339.333	305.094	-0.102	0.187
-338.318	241.023	-0.132	0.218
-337.304	-5.002	0.191	0.130
-336.289	800.000	0.067	-0.198
-335.275	-56.228	-0.220	-0.097
-334.260	40.758	-0.207	-0.184
-333.245	-156.240	0.251	0.016
-332.231	35.519	0.128	0.111
-331.216	389.534	-0.009	-0.018
-330.202	-200.000	-0.304	0.001
-329.187	-106.555	0.087	-0.019
-328.172	-136.632	-0.382	0.044
-327.158	-200.000	-0.024	-0.331
-326.143	800.000	0.043	-0.138
-325.129	-24.038	0.215	0.127
-324.114	47.014	-0.044	0.041
-323.099	-167.495	0.249	-0.010
-322.085	-99.555	0.268	0.067
-321.070	-200.000	0.050	0.341
-320.056	-87.991	0.119	-0.035
-319.041	800.000	-0.029	-0.081
-318.026	-85.306	-0.176	-0.054
-317.012	-3.176	0.140	0.097
-315.997	-78.619	0.310	-0.105
-314.983	-200.000	0.003	-0.079
-313.968	-193.354	-0.399	-0.003
-312.953	-200.000	0.005	-0.070
-311.939	-28.668	0.075	-0.042
-310.924	-200.000	0.019	0.175
-309.910	-180.041	0.249	-0.005
-308.895	-117.013	-0.042	0.008
-307.880	-191.444	-0.108	-0.001
-306.866	-83.795	-0.140	-0.044
-305.851	-2.137	0.145	-0.100
-304.837	-200.000	0.008	-0.199
-303.822	247.036	0.187	0.311
-302.807	800.000	-0.035	0.138
-301.793	402.157	-0.073	-0.152
-300.778	-200.000	-0.005	0.153
-299.764	206.114	-0.030	-0.046
-298.749	357.793	0.318	-0.628
-297.735	-15.936	-0.280	-0.176
-296.720	-142.879	0.260	-0.025
-295.705	-13.937	0.117	-0.074
-294.691	800.000	0.018	0.061
-293.676	-83.771	-0.202	-0.064
-292.662	-200.000	0.000	0.270
-291.647	-101.165	-0.304	0.073
-290.632	66.746	-0.067	-0.067
-289.618	-110.206	-0.187	0.039
-288.603	-200.000	0.478	-0.002
-287.589	64.548	-0.019	-0.019
-286.574	275.647	0.111	-0.194
-285.559	-65.599	0.128	-0.051
-284.545	220.031	0.218	-0.345
-283.530	-35.774	-0.223	0.119
-282.516	800.000	0.060	-0.175
-281.501	-23.429	0.204	0.121
-280.486	174.892	-0.153	0.219
-279.472	800.000	-0.155	-0.501
-278.457	-200.000	-0.005	-0.169
-277.443	-83.572	-0.219	0.069
-276.428	527.957	0.149	0.347
-275.413	-200.000	0.021	0.114
-274.399	149.638	-0.094	0.126
-273.384	87.420	0.149	-0.162
-272.370	-97.443	-0.338	0.087
-271.355	-200.000	-0.028	0.176
-270.340	-64.632	0.134	0.053
-269.326	127.934	0.068	0.085
-268.311	-200.000	0.025	-0.191
-267.297	-167.669	0.251	-0.010
-266.282	-169.373	0.256	-0.009
-265.267	-200.000	-0.129	0.566
-264.253	-180.285	-0.262	-0.005
-263.238	513.305	0.174	0.401
-262.224	-5.026	0.275	0.187
-261.209	380.140	-0.054	0.110
-260.195	-127.267	-0.147	0.021
-259.180	-94.987	-0.271	0.072
-258.165	-141.416	0.289	-0.029
-257.151	800.000	-0.026	0.110
-256.136	-83.024	0.099	0.031
-255.122	-36.597	0.084	0.045
-254.107	-163.656	0.241	-0.011
-253.092	-200.000	-0.023	0.200
-252.078	488.599	-0.175	0.393
-251.063	-85.643	0.270	0.083
-250.049	-91.419	-0.248	0.070
-249.034	-200.000	-0.001	-0.488
-248.019	-200.000	-0.029	-0.129
-247.005	-200.000	-0.032	-0.197
-245.990	112.702	0.204	0.244
-244.976	-200.000	-0.027	0.158
-243.961	130.827	0.227	-0.288
-242.946	-31.581	0.328	0.182
-241.932	24.396	0.296	-0.241
-240.917	800.000	0.076	0.250
-239.903	800.000	0.036	-0.157
-238.888	800.000	0.046	-0.187
-237.873	-80.920	-0.297	-0.097
-236.859	180.927	-0.037	-0.053
-235.844	-191.253	0.272	-0.003
-234.830	-38.785	0.228	-0.118
-233.815	-87.961	-0.426	0.126
-232.800	-1.637	0.171	0.119
-231.786	-104.769	0.151	-0.034
-230.771	712.035	-0.034	0.088
-229.757	5.045	-0.290	0.210
-228.742	-100.007	-0.293	-0.072
-227.727	-200.000	-0.019	0.088
-226.713	-200.000	-0.024	-0.143
-225.698	-93.795	-0.335	0.091
-224.684	-200.000	-0.068	0.305
-223.669	800.000	-0.050	0.139
-222.655	-200.000	-0.095	0.424
-221.640	268.995	0.084	-0.146
-220.625	-67.344	-0.045	-0.017
-219.611	-51.148	0.156	0.072
-218.596	-34.468	-0.252	-0.136
-217.582	225.102	-0.284	-0.453
-216.567	25.805	-0.084	-0.069
-215.552	311.753	0.074	-0.137
-214.538	800.000	0.074	0.229
-213.523	-200.000	0.003	0.181
-212.509	294.719	-0.060	-0.109
-211.494	69.927	-0.280	0.284
-210.479	-33.482	-0.232	0.126
-209.465	-4.643	-0.130	0.089
-208.450	384.674	-0.013	-0.027
-207.436	49.951	-0.122	0.113
-206.421	93.081	-0.093	-0.103
-205.406	111.745	0.196	0.233
-204.392	372.321	-0.144	0.288
-203.377	-77.696	0.062	-0.021
-202.363	270.188	-0.072	0.124
-201.348	636.885	0.154	-0.384
-200.333	-110.640	0.324	-0.066
-199.319	-38.414	0.066	0.034
-198.304	-200.000	0.102	0.457
-197.290	428.730	0.072	0.153
-196.275	-28.986	-0.218	-0.123
-195.260	-118.108	-0.040	0.007
-194.246	23.303	0.279	0.226
-193.231	-200.000	-0.065	-0.473
-192.217	454.865	0.175	0.381
-191.202	-93.813	-0.067	-0.018
-190.187	-200.000	0.006	0.063
-189.173	-149.312	0.269	0.021
-188.158	5.410	0.231	-0.168
-187.144	482.962	-0.069	-0.153
-186.129	149.559	0.140	0.186
-185.114	800.000	-0.033	0.132
-184.100	384.647	-0.042	-0.086
-183.085	292.548	0.149	-0.267
-182.071	800.000	0.084	-0.294
-181.056	699.740	0.039	-0.101
-180.042	-200.000	0.016	0.070
-179.027	87.759	-0.221	0.241
-178.012	-200.000	-0.071	0.396
-176.998	-156.397	0.045	0.003
-175.983	107.201	0.158	-0.185
-174.969	41.708	-0.173	-0.154
-173.954	23.836	0.183	0.148
-172.939	-200.000	0.021	0.094
-171.925	45.600	-0.136	-0.124
-170.910	-6.490	-0.091	0.061
-169.896	189.006	0.120	0.177
-168.881	800.000	0.096	0.313
-167.866	90.268	-0.070	0.077
-166.852	-200.000	-0.010	-0.164
-165.837	99.526	-0.171	-0.195
-164.823	-104.927	0.121	-0.027
-163.808	-200.000	0.018	-0.436
-162.793	-102.514	-0.092	-0.022
-161.779	-200.000	-0.087	0.414
-160.764	-200.000	0.046	0.275
-159.750	-82.153	0.414	0.133
-158.735	800.000	0.110	-0.368
-157.720	-28.670	-0.387	-0.219
-156.706	-78.602	0.171	0.057
-155.691	-78.689	0.026	0.009
-154.677	529.702	-0.111	0.258
-153.662	34.140	0.051	0.044
-152.647	-200.000	-0.008	-0.290
-151.633	-78.647	-0.434	-0.146
-150.618	-200.000	0.024	-0.145
-149.604	800.000	-0.076	0.224
-148.589	-200.000	0.002	-0.069
-147.574	419.149	0.080	0.168
-146.560	99.142	-0.175	0.199
-145.545	800.000	0.077	0.276
-144.531	771.499	-0.143	-0.382
-143.516	800.000	0.142	0.387
-142.502	-55.723	0.250	0.110
-141.487	532.892	0.103	-0.240
-140.472	62.870	0.186	0.183
-139.458	-72.441	0.119	-0.043
-138.443	273.770	-0.108	-0.188
-137.429	211.299	0.119	0.184
-136.414	-200.000	0.006	0.086
-135.399	629.901	0.035	-0.086
-134.385	21.006	0.270	-0.215
-133.370	67.133	0.233	0.233
-132.356	-200.000	-0.026	-0.288
-131.341	-71.116	0.314	0.116
-130.326	-77.721	0.267	0.091
-129.312	-22.409	-0.135	-0.080
-128.297	69.261	0.173	-0.175
-127.283	800.000	-0.039	-0.159
-126.268	-60.554	-0.225	0.094
-125.253	-55.017	-0.044	0.019
-124.239	-94.091	-0.108	0.029
-123.224	29.272	0.154	-0.129
-122.210	-28.333	-0.226	0.128
-121.195	-28.016	-0.142	-0.081
-120.180	-44.821	0.046	0.022
-119.166	720.145	0.144	0.374
-118.151	144.943	0.243	0.319
-117.137	800.000	0.104	0.291
-116.122	-200.000	-0.022	0.116
-115.107	-161.201	-0.301	0.015
-114.093	-99.562	-0.375	-0.092
-113.078	18.744	0.328	0.258
-112.064	241.528	-0.199	-0.326
-111.049	-70.817	-0.224	0.083
-110.034	-67.649	0.192	0.074
-109.020	239.800	-0.144	-0.235
-108.005	-184.164	0.160	-0.003
-106.991	-16.986	-0.478	-0.296
-105.976	150.131	0.079	-0.104
-104.962	19.995	0.196	-0.155
-103.947	-200.000	0.053	0.000
-102.932	13.357	0.077	0.058
-101.918	800.000	0.074	0.250
-100.903	114.016	0.094	0.112
-99.889	6.801	0.042	-0.030
-98.874	65.922	0.323	0.321
-97.859	419.132	-0.248	-0.519
-96.845	131.650	0.080	-0.101
-95.830	-151.715	-0.315	0.023
-94.816	240.600	-0.184	0.300
-93.801	800.000	-0.114	-0.330
-92.786	-200.000	0.022	-0.104
-91.772	-200.000	0.017	-0.116
-90.757	452.777	0.030	-0.065
-89.743	44.160	-0.314	0.282
-88.728	260.459	0.107	-0.182
-87.713	800.000	0.029	-0.097
-86.699	99.438	0.109	0.123
-85.684	-200.000	0.065	-0.295
-84.670	-200.000	-0.009	0.070
-83.655	-200.000	0.060	0.284
-82.640	108.699	0.202	0.236
-81.626	-200.000	-0.003	0.210
-80.611	-128.595	-0.341	0.047
-79.597	308.456	-0.154	0.281
-78.582	43.598	-0.115	0.103
-77.567	-13.145	-0.026	0.017
-76.553	-172.827	0.215	-0.007
-75.538	152.097	0.120	-0.161
-74.524	297.525	0.086	-0.155
-73.509	-101.327	-0.202	0.048
-72.494	542.615	0.040	0.093
-71.480	169.439	0.125	0.175
-70.465	-200.000	-0.025	0.308
-69.451	-94.087	0.041	0.011
-68.436	-32.659	0.248	-0.135
-67.422	200.899	0.256	0.386
-66.407	800.000	0.075	0.213
-65.392	-141.125	0.118	0.012
-64.378	-50.357	0.344	0.159
-63.363	407.002	-0.085	0.176
-62.349	-99.173	-0.323	0.080
-61.334	92.850	-1.026	-1.134
-60.319	86.896	0.841	0.909
-59.305	-200.000	-0.046	-0.859
-58.290	415.910	0.632	1.319
-57.276	744.105	0.525	1.382
-56.261	-200.000	127.061	665.398
-55.246	402.391	1607.346	3305.617
-54.232	135.200	2779.660	3534.938
-53.217	86.622	2345.487	2531.322
-52.203	29.323	2083.099	1731.148
-51.188	24.506	1997.638	1616.570
-50.173	23.387	1981.015	1592.996
-49.159	41.830	2054.388	1821.990
-48.144	39.627	2067.034	1812.903
-47.130	24.928	2019.260	1637.663
-46.115	22.908	2007.930	1610.024
-45.100	22.690	2005.178	1605.766
-44.086	22.672	2002.565	1603.445
-43.071	22.645	2000.330	1601.350
-42.057	22.596	1997.729	1598.756
-41.042	22.626	1996.549	1598.025
-40.027	22.607	1994.064	1595.795
-39.013	22.617	1992.633	1594.679
-37.998	22.684	1990.796	1593.752
-36.984	22.687	1988.817	1592.136
-35.969	22.667	1987.100	1590.512
-34.954	22.686	1985.296	1589.181
-33.940	22.677	1984.050	1588.035
-32.925	22.778	1982.314	1587.495
-31.911	22.784	1980.904	1586.356
-30.896	22.763	1978.861	1584.463
-29.881	22.744	1977.869	1583.437
-28.867	22.789	1975.928	1582.227
-27.852	22.785	1974.517	1580.999
-26.838	22.824	1972.554	1579.709
-25.823	22.784	1970.487	1577.640
-24.809	22.803	1969.135	1576.664
-23.794	22.831	1967.235	1575.325
-22.779	22.809	1965.378	1573.581
-21.765	22.913	1963.546	1572.977
-20.750	22.752	1962.338	1570.518
-19.736	22.754	1960.638	1569.113
-18.721	22.778	1959.213	1568.124
-17.706	22.768	1957.355	1566.484
-16.692	22.765	1955.990	1565.299
-15.677	22.750	1954.395	1563.831
-14.663	22.734	1952.951	1562.467
-13.648	22.751	1951.442	1561.355
-12.633	22.738	1951.012	1560.829
-11.619	22.799	1949.202	1559.864
-10.604	22.729	1947.752	1558.017
-9.590	22.685	1946.635	1556.678
-8.575	22.690	1945.534	1555.782
-7.560	22.867	1943.078	1555.308
-6.546	22.801	1942.540	1554.241
-5.531	22.748	1941.425	1552.814
-4.517	22.764	1939.999	1551.754
-3.502	22.721	1939.000	1550.518
-2.487	22.744	1937.534	1549.482
-1.473	22.751	1937.159	1549.187
-0.458	22.805	1931.352	1544.953
0.556	21.015	1911.477	1516.748
1.571	17.003	1892.963	1467.303
2.586	13.293	1917.379	1453.540
3.600	12.495	1953.543	1473.675
4.615	12.602	1946.170	1468.938
5.629	9.768	1845.993	1369.176
6.644	3.706	1732.960	1236.805
7.659	0.533	1700.581	1188.629
8.673	0.242	1697.505	1184.085
9.688	0.242	1696.334	1183.166
10.702	0.150	1694.882	1181.323
11.717	0.017	1691.042	1177.501
12.731	0.460	1689.491	1179.782
13.746	5.179	1699.151	1223.474
14.761	12.454	1713.737	1291.195
15.775	16.243	1720.685	1326.143
16.790	16.709	1720.261	1329.351
17.804	15.837	1717.473	1320.246
18.819	14.915	1714.430	1310.568
19.834	14.326	1711.885	1303.896
20.848	14.058	1710.260	1300.445
21.863	13.844	1708.798	1297.547
22.877	13.579	1707.541	1294.410
23.892	13.340	1705.571	1290.933
24.907	13.232	1704.817	1289.404
25.921	13.225	1703.442	1288.201
26.936	13.233	1702.941	1287.771
27.950	13.264	1701.852	1287.070
28.965	13.248	1701.556	1286.612
29.980	13.394	1699.927	1286.398
30.994	13.417	1699.423	1286.081
32.009	13.427	1698.476	1285.327
33.023	13.525	1697.213	1285.022
34.038	13.507	1696.868	1284.504
35.053	13.482	1695.708	1283.316
36.067	13.400	1694.858	1281.927
37.082	13.409	1693.195	1280.629
38.096	13.440	1692.140	1279.957
39.111	13.524	1691.402	1279.936
40.126	13.462	1691.269	1279.241
41.140	13.441	1689.983	1277.991
42.155	13.300	1688.490	1275.659
43.169	13.297	1687.212	1274.561
44.184	13.339	1685.704	1273.634
45.199	13.264	1684.707	1272.185
46.213	13.304	1683.458	1271.441
47.228	13.279	1682.672	1270.543
48.242	13.330	1680.870	1269.459
49.257	13.307	1679.638	1268.245
50.271	13.392	1678.783	1268.139
51.286	13.343	1677.223	1266.467
52.301	13.358	1676.000	1265.548
53.315	13.419	1674.402	1264.696
54.330	13.359	1673.177	1263.203
55.344	13.297	1671.317	1261.209
56.359	13.265	1669.842	1259.745
57.374	13.306	1668.730	1259.109
58.388	13.320	1667.743	1258.355
59.403	13.264	1666.148	1256.617
60.417	13.236	1664.598	1255.125
61.432	13.127	1664.287	1253.950
62.447	13.110	1663.111	1252.821
63.461	13.164	1661.328	1251.781
64.476	13.119	1660.404	1250.635
65.490	13.090	1659.175	1249.378
66.505	13.189	1657.587	1248.817
67.520	13.210	1656.437	1248.000
68.534	13.164	1655.802	1247.060
69.549	13.255	1654.478	1246.642
70.563	13.238	1652.738	1245.093
71.578	13.172	1651.772	1243.758
72.593	13.132	1650.789	1242.610
73.607	13.153	1649.300	1241.530
74.622	13.123	1648.205	1240.374
75.636	13.053	1647.573	1239.262
76.651	13.031	1647.106	1238.640
77.666	13.170	1645.764	1238.559
78.680	13.062	1644.856	1236.956
79.695	13.094	1643.626	1236.163
80.709	13.198	1642.476	1235.966
81.724	13.167	1641.640	1234.995
82.739	13.168	1640.956	1234.378
83.753	13.237	1639.838	1233.947
84.768	13.260	1638.707	1233.155
85.782	13.272	1638.622	1233.077
86.797	13.340	1637.397	1232.546
87.812	13.385	1636.316	1231.963
88.826	13.325	1635.061	1230.464
89.841	13.288	1633.929	1229.229
90.855	13.368	1632.803	1228.865
91.870	13.336	1631.993	1227.908
92.884	13.373	1630.576	1227.010
93.899	13.411	1629.544	1226.406
94.914	13.299	1628.475	1224.658
95.928	13.367	1627.579	1224.386
96.943	13.407	1625.652	1223.117
97.957	13.450	1624.038	1222.112
98.972	13.388	1622.635	1220.491
99.987	13.445	1621.305	1219.803
101.001	13.393	1619.963	1218.305
102.016	13.436	1617.776	1216.866
103.030	13.373	1617.111	1215.797
104.045	13.398	1615.744	1214.845
105.060	13.435	1614.128	1213.791
106.074	13.393	1613.165	1212.659
107.089	13.397	1611.413	1211.259
108.103	13.321	1609.819	1209.397
109.118	13.205	1608.513	1207.461
110.133	13.191	1606.939	1206.076
111.147	13.253	1605.368	1205.239
112.162	13.200	1604.304	1203.950
113.176	13.197	1602.899	1202.762
114.191	13.216	1601.762	1201.941
115.206	13.254	1600.166	1200.913
116.220	13.347	1598.710	1200.389
117.235	13.253	1597.768	1198.895
118.249	13.370	1596.274	1198.518
119.264	13.231	1595.222	1196.616
120.279	13.241	1593.234	1195.093
121.293	13.220	1591.898	1193.830
122.308	13.236	1590.509	1192.802
123.322	13.199	1589.373	1191.571
124.337	13.202	1587.390	1190.007
125.352	13.200	1586.163	1188.968
126.366	13.178	1585.468	1188.181
127.381	13.192	1583.964	1187.046
128.395	13.182	1582.847	1186.031
129.410	13.183	1581.841	1185.186
130.424	13.222	1579.755	1183.797
131.439	13.196	1578.944	1182.897
132.454	13.271	1577.269	1182.071
133.468	13.248	1575.772	1180.679
134.483	13.342	1573.979	1179.904
135.497	13.309	1572.865	1178.727
136.512	13.289	1571.547	1177.499
137.527	13.334	1570.252	1176.744
138.541	13.370	1568.864	1175.854
139.556	13.449	1567.898	1175.589
140.570	13.353	1566.417	1173.690
141.585	13.445	1564.621	1172.892
142.600	13.495	1563.344	1172.188
143.614	13.506	1562.282	1171.363
144.629	13.482	1560.969	1170.104
145.643	13.546	1559.615	1169.440
146.658	13.500	1558.522	1168.189
147.673	13.472	1556.840	1166.632
148.687	13.459	1555.635	1165.535
149.702	13.461	1553.465	1163.817
150.716	13.459	1551.932	1162.555
151.731	13.478	1550.798	1161.731
152.746	13.446	1549.805	1160.664
153.760	13.521	1547.788	1159.572
154.775	13.473	1546.959	1158.518
155.789	13.453	1545.503	1157.183
156.804	13.589	1544.146	1157.014
157.819	13.595	1543.109	1156.173
158.833	13.657	1541.463	1155.272
159.848	13.742	1540.473	1155.021
160.862	13.683	1539.420	1153.716
161.877	13.741	1537.944	1152.913
162.892	13.675	1536.627	1151.364
163.906	13.599	1535.325	1149.763
164.921	13.641	1533.587	1148.647
165.935	13.552	1533.567	1147.919
166.950	13.659	1532.087	1147.446
167.964	13.578	1530.831	1145.843
168.979	13.618	1529.973	1145.377
169.994	13.616	1528.897	1144.458
171.008	13.617	1527.865	1143.589
172.023	13.588	1526.854	1142.531
173.037	13.796	1524.994	1142.471
174.052	13.739	1523.740	1141.038
175.067	13.827	1522.841	1140.868
176.081	13.776	1521.759	1139.607
177.096	13.675	1520.453	1137.833
178.110	13.673	1519.286	1136.848
179.125	13.710	1518.037	1136.067
180.140	13.708	1516.633	1134.900
181.154	13.763	1515.932	1134.650
182.169	13.715	1514.756	1133.341
183.183	13.802	1513.462	1132.866
184.198	13.805	1512.056	1131.736
185.213	13.907	1510.603	1131.246
186.227	13.971	1509.751	1130.939
187.242	13.960	1508.919	1130.142
188.256	13.946	1507.714	1129.044
189.271	13.951	1506.600	1128.143
190.286	14.011	1505.086	1127.323
191.300	13.978	1504.492	1126.554
192.315	13.816	1503.476	1124.593
193.329	13.735	1502.215	1123.004
194.344	13.777	1500.833	1122.153
195.359	13.863	1499.371	1121.541
196.373	13.805	1498.663	1120.522
197.388	13.822	1498.425	1120.359
198.402	13.915	1496.906	1119.753
199.417	13.971	1495.320	1118.843
200.432	14.050	1494.525	1118.682
201.446	14.170	1493.263	1118.445
202.461	14.119	1491.894	1116.978
203.475	14.146	1491.128	1116.485
204.490	14.191	1490.110	1115.929
205.504	14.099	1489.270	1114.585
206.519	14.111	1487.740	1113.420
207.534	14.122	1486.601	1112.541
208.548	14.075	1485.671	1111.432
209.563	14.104	1483.976	1110.262
210.577	13.994	1483.574	1109.126
211.592	14.180	1482.151	1109.208
212.607	14.263	1481.351	1109.063
213.621	14.190	1481.066	1108.261
214.636	14.311	1479.993	1108.169
215.650	14.321	1479.049	1107.427
216.665	14.229	1477.829	1105.811
217.680	14.358	1477.017	1105.958
218.694	14.354	1476.609	1105.525
219.709	14.289	1475.848	1104.432
220.723	14.297	1474.358	1103.269
221.738	14.345	1473.687	1102.986
222.753	14.310	1472.799	1101.995
223.767	14.336	1472.040	1101.498
224.782	14.417	1470.365	1100.682
225.796	14.352	1470.155	1099.999
226.811	14.486	1468.883	1099.836
227.826	14.453	1467.930	1098.809
228.840	14.506	1466.827	1098.234
229.855	14.444	1466.377	1097.392
230.869	14.357	1465.784	1096.279
231.884	14.449	1463.912	1095.388
232.899	14.435	1463.067	1094.561
233.913	14.412	1462.264	1093.714
234.928	14.428	1460.973	1092.759
235.942	14.504	1459.126	1091.776
236.957	14.413	1458.382	1090.530
237.972	14.349	1457.148	1089.094
238.986	14.409	1456.598	1088.979
240.001	14.481	1455.460	1088.499
241.015	14.484	1454.327	1087.576
242.030	14.495	1453.059	1086.606
243.045	14.457	1452.402	1085.769
244.059	14.544	1451.467	1085.537
245.074	14.565	1450.515	1084.866
246.088	14.598	1449.545	1084.261
247.103	14.674	1448.622	1083.968
248.117	14.647	1447.954	1083.198
249.132	14.789	1446.820	1083.171
250.147	14.858	1446.514	1083.294
251.161	14.856	1445.901	1082.730
252.176	14.823	1445.179	1081.880
253.190	15.015	1443.793	1081.985
254.205	14.881	1443.342	1080.685
255.220	14.856	1442.416	1079.733
256.234	14.891	1441.861	1079.452
257.249	14.948	1441.310	1079.311
258.263	15.049	1439.987	1078.873
259.278	15.063	1438.699	1077.906
260.293	14.986	1438.209	1076.948
261.307	15.048	1437.010	1076.350
262.322	15.007	1436.863	1075.881
263.336	15.143	1435.857	1075.905
264.351	15.041	1435.034	1074.542
265.366	15.125	1433.920	1074.150
266.380	15.086	1432.876	1073.024
267.395	15.141	1431.891	1072.545
268.409	15.177	1431.050	1072.051
269.424	15.139	1430.041	1070.957
270.439	15.141	1429.053	1070.131
271.453	15.163	1427.761	1069.214
272.468	15.078	1427.572	1068.435
273.482	15.203	1426.494	1068.331
274.497	15.169	1425.830	1067.523
275.512	15.131	1424.750	1066.371
276.526	15.115	1424.068	1065.670
277.541	15.171	1422.779	1064.965
278.555	15.226	1421.859	1064.531
279.570	15.262	1421.113	1064.108
280.585	15.304	1419.903	1063.374
281.599	15.340	1418.817	1062.696
282.614	15.345	1417.920	1061.959
283.628	15.383	1416.755	1061.232
284.643	15.331	1415.923	1060.188
285.657	15.361	1414.886	1059.506
286.672	15.397	1414.089	1059.047
287.687	15.361	1413.382	1058.192
288.701	15.285	1412.267	1056.788
289.716	15.429	1411.078	1056.708
290.730	15.353	1410.583	1055.765
291.745	15.455	1409.322	1055.373
292.760	15.432	1408.656	1054.638
293.774	15.544	1407.190	1054.148
294.789	15.291	1406.840	1052.202
295.803	15.508	1405.875	1052.750
296.818	15.568	1404.632	1052.100
297.833	15.537	1403.524	1050.985
298.847	15.540	1402.834	1050.395
299.862	15.626	1401.585	1049.900
300.876	15.499	1401.011	1048.585
301.891	15.588	1400.042	1048.324
302.906	15.643	1398.998	1047.791
303.920	15.592	1398.459	1046.978
304.935	15.608	1397.684	1046.408
305.949	15.686	1396.938	1046.240
306.964	15.802	1395.829	1046.036
307.979	15.855	1394.774	1045.483
308.993	15.764	1394.221	1044.412
310.008	15.769	1393.026	1043.457
311.022	15.804	1392.089	1042.876
312.037	15.773	1391.497	1042.152
313.052	15.817	1390.475	1041.566
314.066	15.830	1389.430	1040.770
315.081	15.769	1388.431	1039.552
316.095	15.826	1387.163	1038.865
317.110	15.802	1386.286	1037.968
318.125	15.708	1385.653	1036.818
319.139	15.822	1384.413	1036.502
320.154	15.839	1383.238	1035.636
321.168	15.810	1382.185	1034.579
322.183	15.916	1381.009	1034.260
323.197	15.844	1380.492	1033.335
324.212	15.866	1379.920	1032.954
325.227	15.903	1378.850	1032.290
326.241	15.882	1377.974	1031.409
327.256	15.926	1377.055	1030.903
328.270	15.796	1376.331	1029.476
329.285	15.853	1375.205	1028.888
330.300	15.893	1374.568	1028.565
331.314	16.056	1373.372	1028.572
332.329	15.951	1372.548	1027.227
333.343	15.838	1371.567	1025.710
334.358	15.942	1370.609	1025.539
335.373	16.103	1369.947	1025.929
336.387	16.031	1369.356	1024.963
337.402	16.104	1368.511	1024.678
338.416	16.119	1367.572	1023.976
339.431	16.150	1366.752	1023.459
340.446	16.224	1366.313	1023.491
341.460	16.211	1365.417	1022.651
342.475	16.151	1364.451	1021.473
343.489	16.229	1363.308	1020.999
344.504	16.290	1361.981	1020.282
345.519	16.324	1361.384	1019.954
346.533	16.363	1360.617	1019.523
347.548	16.337	1359.770	1018.641
348.562	16.230	1359.023	1017.345
349.577	16.351	1358.126	1017.316
350.592	16.329	1357.246	1016.429
351.606	16.399	1355.904	1015.755
352.621	16.285	1355.147	1014.413
353.635	16.275	1354.287	1013.619
354.650	16.248	1353.203	1012.560
355.665	16.342	1352.371	1012.409
356.679	16.360	1351.056	1011.441
357.694	16.364	1350.045	1010.620
358.708	16.313	1349.448	1009.782
359.723	16.420	1347.999	1009.243
360.738	16.394	1347.162	1008.377
361.752	16.454	1346.131	1007.869
362.767	16.456	1344.359	1006.468
363.781	16.526	1343.714	1006.314
364.796	16.409	1343.192	1005.134
365.810	16.474	1342.713	1005.078
366.825	16.503	1342.060	1004.669
367.840	16.502	1341.057	1003.824
368.854	16.629	1340.203	1003.852
369.869	16.602	1340.271	1003.650
370.883	16.708	1338.777	1003.074
371.898	16.732	1338.221	1002.710
372.913	16.637	1337.391	1001.437
373.927	16.603	1337.021	1000.866
374.942	16.659	1335.804	1000.201
375.956	16.637	1335.110	999.460
376.971	16.753	1334.295	999.450
377.986	16.705	1333.577	998.537
379.000	16.671	1332.460	997.415
380.015	16.862	1331.526	997.753
381.029	16.834	1331.082	997.165
382.044	16.806	1330.527	996.498
383.059	16.872	1329.458	995.998
384.073	16.953	1328.980	996.026
385.088	16.957	1328.574	995.654
386.102	16.816	1328.238	994.489
387.117	17.014	1326.855	994.528
388.132	16.902	1326.068	993.193
389.146	16.864	1325.211	992.242
390.161	16.891	1324.228	991.576
391.175	16.978	1323.402	991.377
392.190	16.901	1323.091	990.606
393.205	16.886	1322.639	990.089
394.219	17.038	1320.899	989.586
395.234	16.984	1319.648	988.250
396.248	17.055	1317.988	987.332
397.263	17.014	1316.905	986.197
398.278	17.017	1315.791	985.292
399.292	16.923	1314.699	983.841
400.307	16.992	1313.670	983.381
401.321	17.011	1312.609	982.612
402.336	17.019	1311.433	981.692
403.350	17.096	1310.615	981.439
404.365	17.037	1309.574	980.230
405.380	17.087	1308.345	979.512
406.394	17.061	1308.019	979.033
407.409	17.097	1307.437	978.717
408.423	17.206	1306.552	978.598
409.438	17.220	1305.574	977.858
410.453	17.123	1305.728	977.324
411.467	17.187	1304.839	976.943
412.482	17.261	1303.879	976.563
413.496	17.251	1303.115	975.847
414.511	17.402	1302.341	976.050
415.526	17.398	1301.646	975.418
416.540	17.488	1300.588	975.051
417.555	17.438	1299.799	974.089
418.569	17.392	1299.777	973.725
419.584	17.349	1299.627	973.278
420.599	17.487	1298.427	973.081
421.613	99.838	1361.600	1487.498
422.628	98.011	1370.761	1487.595
