DTS Sentinel unit serial number:	SN413079Multiplexer serial number:	ORYXHardware model number:	OX4-SRSoftware version number:	ORYX F/W v4.00 Oryx Data Collector v3.7.2.0data status	okinstallation	princeton_trtdifferential loss correction	single-endedforward channel	channel 4reverse channel	N/Adate	2019/09/14time	07:37:34forward acquisition time	60.00reverse acquisition time	0.00gamma	496.2192k internal	0.2323k external	0.2323temperature offset calibration	1.0133default loss term (dB/km)	0.3790temperature slope calibration	1.0000multiplexer offset coefficient	1.0000multiplexer slope coefficient	1.0000fibre end	0.00T internal ref (°C)	26.25T ext. ref 1 (°C)	3.47T ext. ref 2 (°C)	21.63length (m)	temperature (°C)	Stokes	anti-Stokes-747.200	-136.149	0.194	0.023
-746.185	-112.496	0.276	0.056
-745.171	-37.533	0.306	-0.165
-744.156	30.062	0.103	-0.088
-743.142	462.600	-0.093	0.211
-742.127	-58.717	-0.064	0.028
-741.112	-46.548	0.058	0.029
-740.098	158.701	-0.125	0.175
-739.083	800.000	-0.056	0.183
-738.069	-58.163	-0.198	0.087
-737.054	-200.000	0.006	0.040
-736.039	75.319	-0.123	-0.131
-735.025	-200.000	0.001	0.062
-734.010	184.933	-0.256	-0.384
-732.996	-200.000	-0.062	-0.482
-731.981	-200.000	0.003	-0.072
-730.966	-200.000	-0.005	0.139
-729.952	-66.336	-0.421	-0.169
-728.937	58.161	0.239	-0.236
-727.923	-147.840	-0.334	-0.028
-726.908	647.469	-0.126	0.325
-725.894	137.710	-0.117	0.155
-724.879	-72.182	0.264	0.099
-723.864	136.873	-0.227	-0.299
-722.850	-64.687	0.183	-0.075
-721.835	-200.000	-0.063	-0.530
-720.821	-59.521	-0.194	-0.084
-719.806	-200.000	0.008	-0.061
-718.791	443.447	0.030	0.066
-717.777	800.000	0.029	-0.128
-716.762	16.091	-0.063	0.050
-715.748	130.891	-0.026	-0.034
-714.733	109.806	0.146	-0.176
-713.718	-158.029	-0.060	0.004
-712.704	-50.230	0.090	0.043
-711.689	169.508	0.155	-0.223
-710.675	730.677	-0.064	-0.173
-709.660	-200.000	0.015	0.081
-708.645	22.828	0.116	0.096
-707.631	737.778	0.118	0.318
-706.616	-105.588	-0.149	-0.034
-705.602	-22.178	0.106	0.065
-704.587	-36.393	-0.223	0.121
-703.572	81.513	-0.226	-0.247
-702.558	222.581	-0.091	0.148
-701.543	800.000	0.035	-0.123
-700.529	-86.627	0.382	-0.118
-699.514	800.000	-0.088	0.254
-698.499	-67.013	0.082	-0.033
-697.485	-182.980	0.108	-0.002
-696.470	-47.805	-0.291	-0.142
-695.456	37.435	-0.188	-0.168
-694.441	-62.088	-0.229	0.096
-693.426	198.721	-0.169	-0.260
-692.412	-200.000	0.035	0.165
-691.397	-54.450	-0.088	0.040
-690.383	37.166	0.006	-0.006
-689.368	-24.157	-0.072	-0.043
-688.354	167.248	-0.156	0.224
-687.339	353.810	-0.143	-0.286
-686.324	-121.456	-0.083	-0.014
-685.310	800.000	0.032	0.091
-684.295	-141.546	0.111	-0.011
-683.281	234.097	0.063	-0.105
-682.266	133.164	-0.112	-0.145
-681.251	-200.000	-0.014	0.125
-680.237	-32.738	0.255	-0.143
-679.222	275.915	-0.059	0.105
-678.208	359.598	0.117	0.236
-677.193	71.449	-0.036	-0.038
-676.178	-200.000	0.023	-0.131
-675.164	-136.165	-0.199	-0.023
-674.149	800.000	0.048	-0.198
-673.135	-200.000	0.002	0.333
-672.120	-2.140	-0.181	0.128
-671.105	136.657	0.068	-0.090
-670.091	800.000	-0.092	-0.306
-669.076	-119.376	0.225	-0.039
-668.062	-200.000	0.168	0.000
-667.047	-46.357	-0.168	-0.083
-666.032	-200.000	-0.067	-0.373
-665.018	-148.643	0.141	-0.012
-664.003	48.755	-0.138	-0.130
-662.989	-113.030	-0.325	0.065
-661.974	-29.685	-0.325	0.187
-660.959	-200.000	0.055	0.315
-659.945	-92.773	0.275	-0.078
-658.930	111.228	-0.272	-0.330
-657.916	47.634	-0.181	0.170
-656.901	-200.000	0.007	-0.341
-655.886	181.072	0.139	-0.205
-654.872	-200.000	-0.012	-0.135
-653.857	-200.000	-0.013	0.215
-652.843	302.398	0.026	0.048
-651.828	29.445	0.305	-0.261
-650.814	-59.379	0.155	-0.067
-649.799	-200.000	0.008	-0.160
-648.784	22.472	-0.219	-0.180
-647.770	-18.067	-0.125	0.079
-646.755	-124.499	-0.026	0.004
-645.741	588.276	0.069	0.170
-644.726	-177.975	-0.174	-0.004
-643.711	-57.593	-0.195	-0.086
-642.697	-107.889	0.211	-0.046
-641.682	-137.271	-0.200	0.023
-640.668	55.028	-0.137	0.133
-639.653	53.044	0.201	-0.194
-638.638	-200.000	0.015	0.086
-637.624	132.365	0.134	-0.174
-636.609	-29.761	-0.128	0.074
-635.595	800.000	-0.002	0.009
-634.580	-200.000	0.038	-0.271
-633.565	266.988	0.054	-0.095
-632.551	-131.374	0.177	-0.024
-631.536	-200.000	-0.043	-0.225
-630.522	-38.343	0.066	0.035
-629.507	249.248	-0.123	0.210
-628.492	-56.277	0.309	-0.138
-627.478	49.883	-0.188	-0.178
-626.463	-45.841	-0.205	-0.102
-625.449	199.153	0.126	-0.195
-624.434	-200.000	-0.033	-0.146
-623.419	19.668	0.225	-0.182
-622.405	2.781	0.137	-0.100
-621.390	-200.000	0.025	-0.118
-620.376	-127.178	0.397	0.058
-619.361	-200.000	-0.011	0.302
-618.346	159.367	-0.175	-0.244
-617.332	788.297	0.051	0.139
-616.317	-117.433	0.078	-0.014
-615.303	-154.923	0.090	-0.006
-614.288	-200.000	-0.026	-0.136
-613.273	-200.000	-0.002	-0.035
-612.259	-200.000	-0.079	-0.438
-611.244	120.770	-0.388	-0.485
-610.230	-176.680	-0.105	-0.003
-609.215	-99.749	-0.117	0.029
-608.201	383.747	-0.087	-0.180
-607.186	-22.633	0.127	0.077
-606.171	80.603	-0.271	0.293
-605.157	-133.914	-0.317	0.040
-604.142	-50.387	-0.610	0.289
-603.128	-200.000	0.003	0.217
-602.113	-47.879	0.169	0.082
-601.098	-120.695	-0.208	0.035
-600.084	-200.000	-0.038	0.210
-599.069	143.338	0.145	0.193
-598.055	-115.484	0.335	-0.063
-597.040	112.433	-0.143	-0.174
-596.025	-84.402	0.547	-0.174
-595.011	-53.776	0.063	0.029
-593.996	35.565	-0.252	-0.222
-592.982	-34.091	-0.357	-0.197
-591.967	-70.848	0.298	-0.113
-590.952	134.519	-0.047	0.062
-589.938	-26.574	-0.307	-0.180
-588.923	-200.000	-0.031	-0.304
-587.909	-88.143	0.010	0.003
-586.894	5.709	0.096	0.071
-585.879	797.185	0.162	-0.448
-584.865	86.758	0.033	0.036
-583.850	-200.000	-0.004	-0.175
-582.836	-200.000	-0.003	0.117
-581.821	-36.539	-0.252	-0.136
-580.806	-110.405	-0.189	-0.039
-579.792	6.779	-0.279	-0.208
-578.777	-200.000	0.016	0.149
-577.763	15.003	-0.124	0.097
-576.748	-200.000	-0.043	-0.226
-575.733	-111.496	0.026	-0.005
-574.719	-109.521	-0.240	0.051
-573.704	-86.836	-0.266	-0.082
-572.690	-85.691	0.274	0.085
-571.675	-102.719	-0.063	-0.015
-570.661	439.274	0.074	0.162
-569.646	2.694	0.063	0.046
-568.631	203.247	0.073	0.114
-567.617	-200.000	0.029	-0.264
-566.602	-140.702	0.159	-0.017
-565.588	-68.256	0.038	0.015
-564.573	-73.365	0.310	0.114
-563.558	-62.296	-0.177	-0.074
-562.544	37.849	0.280	-0.249
-561.529	-28.562	-0.146	-0.084
-560.515	800.000	-0.068	0.277
-559.500	678.599	0.081	-0.212
-558.485	-128.265	-0.330	-0.047
-557.471	177.907	0.126	0.185
-556.456	543.771	0.126	0.301
-555.442	-56.905	-0.346	-0.153
-554.427	-200.000	-0.056	-0.272
-553.412	110.779	0.022	-0.027
-552.398	-200.000	-0.015	-0.311
-551.383	-59.030	0.304	0.132
-550.369	83.568	-0.083	-0.091
-549.354	383.684	0.182	0.376
-548.339	-38.700	-0.182	0.096
-547.325	250.156	-0.210	0.357
-546.310	212.677	0.022	0.035
-545.296	800.000	-0.069	0.228
-544.281	-135.595	-0.417	-0.050
-543.266	184.501	0.084	0.125
-542.252	-200.000	0.049	-0.261
-541.237	-138.360	0.402	-0.044
-540.223	-110.439	-0.430	0.089
-539.208	636.162	0.056	-0.143
-538.193	800.000	-0.078	-0.274
-537.179	-116.286	-0.300	-0.056
-536.164	475.330	0.023	-0.052
-535.150	-102.617	0.269	0.064
-534.135	-6.514	-0.313	-0.214
-533.121	-98.566	0.155	0.040
-532.106	70.017	0.223	0.231
-531.091	800.000	-0.047	-0.154
-530.077	-78.835	0.142	-0.049
-529.062	69.518	0.292	0.301
-528.048	-101.094	0.265	-0.065
-527.033	-200.000	-0.078	-0.439
-526.018	-162.947	-0.389	0.019
-525.004	87.394	0.062	-0.069
-523.989	-154.287	-0.050	0.003
-522.975	-41.448	-0.524	0.270
-521.960	263.018	0.166	0.288
-520.945	60.933	-0.115	0.115
-519.931	23.507	-0.091	0.075
-518.916	-35.568	0.303	-0.165
-517.902	-30.898	0.095	-0.054
-516.887	-142.601	-0.281	0.028
-515.872	-87.732	0.293	-0.089
-514.858	-133.000	0.324	-0.041
-513.843	-97.835	0.198	0.051
-512.829	800.000	-0.119	-0.340
-511.814	28.052	-0.138	-0.116
-510.799	-121.134	0.234	0.039
-509.785	258.222	0.068	-0.118
-508.770	-80.984	-0.153	-0.051
-507.756	-71.360	-0.153	-0.057
-506.741	-37.559	0.082	-0.044
-505.726	620.272	-0.029	-0.072
-504.712	254.157	-0.143	-0.245
-503.697	-69.102	0.064	-0.025
-502.683	-89.545	-0.153	-0.045
-501.668	789.588	0.074	-0.204
-500.653	3.674	-0.153	-0.112
-499.639	95.735	0.138	-0.158
-498.624	320.842	0.198	-0.376
-497.610	-200.000	0.084	-0.488
-496.595	203.130	-0.086	0.133
-495.581	-107.992	0.410	0.089
-494.566	-80.037	-0.230	-0.077
-493.551	800.000	0.070	0.240
-492.537	-141.466	-0.029	-0.003
-491.522	800.000	-0.081	-0.251
-490.508	680.254	0.137	0.358
-489.493	-169.913	-0.052	0.002
-488.478	800.000	-0.101	-0.412
-487.464	377.578	0.118	0.241
-486.449	-179.858	-0.096	0.002
-485.435	94.427	-0.062	0.070
-484.420	30.625	-0.082	0.070
-483.405	65.509	-0.225	-0.228
-482.391	-200.000	-0.006	-0.115
-481.376	-200.000	0.031	-0.160
-480.362	203.770	-0.023	0.036
-479.347	-59.088	-0.079	0.034
-478.332	26.812	0.153	0.128
-477.318	-164.897	-0.317	0.014
-476.303	34.332	-0.179	0.156
-475.289	-53.488	0.160	0.073
-474.274	-22.724	0.305	0.184
-473.259	-52.450	-0.354	0.163
-472.245	-130.075	-0.250	0.034
-471.230	165.728	0.124	-0.176
-470.216	-63.207	-0.220	-0.091
-469.201	318.989	-0.061	0.115
-468.186	277.237	0.036	0.064
-467.172	-157.087	0.155	0.009
-466.157	-200.000	0.010	-0.196
-465.143	-200.000	-0.039	-0.228
-464.128	-70.179	-0.087	-0.033
-463.113	-42.695	0.228	0.116
-462.099	282.534	-0.099	-0.177
-461.084	-41.044	0.258	-0.133
-460.070	71.485	-0.067	0.070
-459.055	-200.000	-0.061	0.300
-458.040	73.057	-0.216	0.225
-457.026	206.012	-0.248	-0.385
-456.011	-154.259	-0.394	0.027
-454.997	-104.303	-0.189	0.044
-453.982	-157.387	-0.101	0.006
-452.968	-127.803	-0.376	0.054
-451.953	-111.825	0.314	0.063
-450.938	-67.062	-0.164	0.065
-449.924	800.000	0.093	0.269
-448.909	-200.000	-0.032	-0.207
-447.895	-200.000	0.002	-0.041
-446.880	438.755	-0.013	0.028
-445.865	-154.001	0.338	-0.023
-444.851	-110.950	-0.385	0.079
-443.836	412.990	-0.068	0.144
-442.822	312.891	0.086	0.161
-441.807	563.426	-0.067	-0.161
-440.792	-23.782	0.219	0.131
-439.778	-96.214	-0.087	-0.023
-438.763	800.000	0.039	-0.122
-437.749	33.109	-0.153	0.132
-436.734	99.432	-0.181	0.209
-435.719	-102.655	-0.101	-0.024
-434.705	-34.529	-0.348	0.190
-433.690	100.106	-0.039	-0.045
-432.676	185.069	0.087	-0.128
-431.661	102.222	0.075	-0.088
-430.646	255.170	0.233	-0.398
-429.632	-200.000	0.036	0.260
-428.617	-59.038	0.119	0.051
-427.603	449.483	0.092	0.202
-426.588	-200.000	-0.081	-0.479
-425.573	88.861	-0.174	0.193
-424.559	800.000	-0.089	0.336
-423.544	155.782	-0.179	-0.245
-422.530	-12.771	-0.184	0.120
-421.515	-146.337	0.111	-0.010
-420.500	-49.361	0.294	0.140
-419.486	-60.603	-0.075	-0.032
-418.471	330.836	0.110	-0.212
-417.457	17.432	0.251	0.199
-416.442	27.564	0.317	-0.266
-415.428	52.399	0.354	-0.337
-414.413	800.000	-0.032	0.121
-413.398	-200.000	0.007	0.133
-412.384	800.000	-0.061	-0.235
-411.369	-200.000	-0.031	0.252
-410.355	231.718	0.187	0.305
-409.340	800.000	0.096	0.360
-408.325	-200.000	-0.005	0.349
-407.311	-96.244	0.289	-0.077
-406.296	-200.000	-0.023	0.108
-405.282	-116.117	0.261	0.048
-404.267	195.895	-0.091	0.138
-403.252	548.624	0.092	0.219
-402.238	123.325	-0.092	0.115
-401.223	-99.782	-0.195	0.049
-400.209	-200.000	-0.012	0.295
-399.194	-200.000	0.035	-0.242
-398.179	800.000	0.052	-0.146
-397.165	348.305	0.134	-0.263
-396.150	-56.434	-0.141	0.062
-395.136	-200.000	0.018	-0.137
-394.121	24.771	0.111	0.092
-393.106	-200.000	-0.043	0.376
-392.092	-200.000	-0.063	0.283
-391.077	385.625	-0.121	0.248
-390.063	-150.865	-0.109	-0.008
-389.048	103.798	0.213	-0.249
-388.033	-200.000	-0.003	-0.039
-387.019	-183.807	0.185	-0.003
-386.004	-200.000	-0.021	0.147
-384.990	771.648	-0.075	0.203
-383.975	-200.000	-0.019	0.408
-382.960	336.094	0.081	-0.156
-381.946	53.755	-0.185	0.177
-380.931	-17.354	-0.330	0.207
-379.917	264.505	-0.087	-0.150
-378.902	59.415	0.056	0.055
-377.888	800.000	0.044	0.177
-376.873	180.110	0.200	-0.292
-375.858	252.705	0.030	-0.050
-374.844	212.697	0.113	-0.178
-373.829	-6.359	-0.074	0.050
-372.815	-79.216	0.189	-0.064
-371.800	74.812	-0.063	0.066
-370.785	-115.488	0.105	0.020
-369.771	-72.284	-0.185	0.068
-368.756	-101.586	0.364	-0.088
-367.742	94.394	0.139	0.158
-366.727	800.000	-0.030	-0.112
-365.712	48.910	-0.046	0.043
-364.698	-200.000	-0.041	-0.273
-363.683	-44.036	-0.375	-0.187
-362.669	800.000	-0.023	0.086
-361.654	-200.000	0.071	-0.398
-360.639	-111.300	-0.160	0.032
-359.625	-200.000	0.041	-0.185
-358.610	-134.622	0.203	-0.025
-357.596	-15.278	-0.098	0.063
-356.581	665.238	0.090	0.232
-355.566	688.053	-0.041	0.106
-354.552	146.896	-0.169	-0.226
-353.537	-115.375	0.221	-0.042
-352.523	54.613	0.141	-0.135
-351.508	800.000	-0.070	0.242
-350.493	169.578	0.204	-0.289
-349.479	152.740	0.189	-0.257
-348.464	90.967	0.118	-0.132
-347.450	370.020	-0.032	-0.065
-346.435	428.132	0.125	-0.268
-345.420	-17.326	0.106	-0.066
-344.406	559.935	0.042	0.102
-343.391	-163.644	-0.346	0.016
-342.377	-97.109	-0.217	0.056
-341.362	-67.620	0.139	-0.054
-340.348	-137.403	0.245	-0.028
-339.333	22.885	0.084	0.069
-338.318	-23.897	0.342	-0.204
-337.304	6.186	-0.072	0.053
-336.289	800.000	0.048	-0.159
-335.275	-53.320	-0.207	0.095
-334.260	719.691	-0.060	-0.157
-333.245	-117.320	-0.207	-0.037
-332.231	559.539	0.185	-0.445
-331.216	143.958	-0.069	-0.091
-330.202	731.949	-0.104	-0.277
-329.187	-84.314	0.105	0.033
-328.172	-161.126	-0.188	0.010
-327.158	297.327	-0.096	0.175
-326.143	192.667	0.107	0.160
-325.129	64.657	0.035	-0.035
-324.114	32.983	-0.152	0.131
-323.099	368.065	0.219	-0.439
-322.085	-159.180	-0.231	-0.013
-321.070	486.303	-0.139	0.315
-320.056	-200.000	0.027	-0.193
-319.041	-200.000	-0.023	0.318
-318.026	-57.599	-0.160	0.070
-317.012	800.000	-0.044	0.128
-315.997	684.151	0.042	0.108
-314.983	28.255	-0.211	0.177
-313.968	307.909	0.131	0.242
-312.953	138.449	-0.269	-0.351
-311.939	673.158	-0.118	-0.303
-310.924	-141.727	-0.384	0.038
-309.910	-107.856	0.406	-0.088
-308.895	-169.821	-0.040	0.001
-307.880	-200.000	0.268	0.000
-306.866	-123.705	-0.104	-0.016
-305.851	398.780	0.069	0.144
-304.837	-37.686	0.050	0.026
-303.822	-2.064	-0.139	-0.097
-302.807	-149.065	0.097	-0.008
-301.793	800.000	0.076	0.244
-300.778	-133.832	0.290	-0.036
-299.764	407.892	-0.158	-0.331
-298.749	168.569	-0.094	-0.133
-297.735	-108.781	0.163	-0.035
-296.720	-200.000	-0.074	0.468
-295.705	-52.537	-0.259	0.119
-294.691	92.568	0.214	-0.239
-293.676	-37.899	-0.106	-0.056
-292.662	131.762	0.071	-0.091
-291.647	20.839	0.039	0.032
-290.632	800.000	-0.048	0.202
-289.618	624.336	-0.151	-0.377
-288.603	-112.302	-0.175	0.035
-287.589	259.025	-0.020	0.033
-286.574	-46.041	0.129	-0.063
-285.559	-96.821	0.176	-0.046
-284.545	-153.504	0.215	0.015
-283.530	3.645	0.063	-0.045
-282.516	781.975	-0.163	0.443
-281.501	14.830	0.122	0.095
-280.486	-200.000	-0.016	-0.139
-279.472	-148.495	-0.235	0.019
-278.457	88.040	0.319	-0.351
-277.443	275.067	0.084	0.147
-276.428	-43.532	-0.082	-0.041
-275.413	800.000	0.089	-0.382
-274.399	-92.080	0.297	-0.083
-273.384	225.218	-0.121	-0.195
-272.370	127.557	-0.103	0.129
-271.355	6.975	0.072	-0.053
-270.340	800.000	0.133	-0.395
-269.326	-115.501	0.379	-0.071
-268.311	800.000	0.060	-0.169
-267.297	565.508	0.087	0.208
-266.282	-200.000	-0.001	-0.015
-265.267	-51.752	0.077	-0.036
-264.253	-25.735	-0.165	-0.097
-263.238	-57.927	-0.134	-0.058
-262.224	-93.501	0.178	-0.049
-261.209	-70.881	0.100	-0.037
-260.195	-33.808	0.153	0.084
-259.180	-159.536	-0.348	-0.019
-258.165	78.305	-0.057	0.061
-257.151	-17.315	0.170	0.106
-256.136	249.796	0.068	-0.114
-255.122	-195.061	-0.311	0.002
-254.107	-33.268	-0.107	0.059
-253.092	17.329	0.236	0.185
-252.078	-146.192	-0.033	0.003
-251.063	-200.000	0.035	0.201
-250.049	-106.093	-0.257	-0.057
-249.034	71.086	-0.214	0.220
-248.019	-56.795	0.417	0.183
-247.005	-12.552	-0.192	0.124
-245.990	450.413	-0.058	-0.127
-244.976	-27.280	0.127	0.073
-243.961	155.152	0.119	0.163
-242.946	740.507	-0.177	0.472
-241.932	641.723	0.145	0.367
-240.917	-60.596	-0.199	0.084
-239.903	-200.000	-0.012	-0.144
-238.888	286.971	-0.062	0.111
-237.873	-111.435	0.259	-0.052
-236.859	269.091	-0.040	0.070
-235.844	-200.000	0.019	0.161
-234.830	399.427	0.018	0.037
-233.815	373.270	-0.124	-0.249
-232.800	-200.000	0.013	0.070
-231.786	-21.476	0.108	-0.065
-230.771	20.771	-0.240	0.193
-229.757	297.949	-0.020	0.037
-228.742	-6.987	0.419	0.282
-227.727	-57.073	0.424	-0.185
-226.713	17.714	-0.151	-0.119
-225.698	87.570	0.201	0.220
-224.684	-45.476	-0.091	-0.045
-223.669	-5.196	-0.255	0.173
-222.655	800.000	0.109	0.461
-221.640	-200.000	0.054	0.424
-220.625	-120.676	-0.250	0.042
-219.611	-106.799	-0.110	-0.024
-218.596	33.592	-0.232	-0.199
-217.582	-190.221	-0.130	0.001
-216.567	-200.000	0.043	0.255
-215.552	-191.260	-0.137	-0.001
-214.538	800.000	0.094	0.334
-213.523	648.940	-0.078	-0.197
-212.509	-73.659	-0.302	0.109
-211.494	-167.124	0.049	-0.002
-210.479	-134.128	-0.217	-0.027
-209.465	16.222	0.235	0.183
-208.450	-200.000	0.009	-0.217
-207.436	-119.084	0.482	0.083
-206.421	214.297	-0.124	0.194
-205.406	-51.041	-0.120	-0.056
-204.392	-169.795	-0.121	-0.004
-203.377	-48.565	0.261	-0.124
-202.363	-73.255	0.410	-0.148
-201.348	14.281	-0.192	0.148
-200.333	-123.923	-0.141	0.022
-199.319	-96.472	0.191	-0.050
-198.304	365.252	0.172	0.343
-197.290	42.390	0.282	0.253
-196.275	-200.000	0.006	0.202
-195.260	-200.000	-0.001	0.046
-194.246	-100.491	0.134	0.033
-193.231	-200.000	-0.018	-0.214
-192.217	51.916	0.046	0.043
-191.202	8.209	-0.087	-0.064
-190.187	-136.804	0.241	0.027
-189.173	-6.182	0.113	0.076
-188.158	-200.000	0.018	0.093
-187.144	800.000	0.046	0.178
-186.129	7.830	-0.181	-0.134
-185.114	18.534	0.171	0.135
-184.100	-71.594	0.178	-0.066
-183.085	576.141	0.035	-0.084
-182.071	250.364	0.099	0.166
-181.056	-77.295	-0.207	-0.071
-180.042	525.138	0.098	0.228
-179.027	-16.974	0.235	0.146
-178.012	29.195	-0.204	-0.171
-176.998	445.937	0.149	-0.323
-175.983	336.571	0.165	0.316
-174.969	158.304	0.153	-0.210
-173.954	-32.412	0.104	0.057
-172.939	-39.524	0.178	-0.092
-171.925	603.908	0.069	0.169
-170.910	-180.827	0.189	0.004
-169.896	39.886	0.059	-0.052
-168.881	253.695	-0.047	-0.080
-167.866	25.959	0.099	-0.082
-166.852	800.000	0.079	0.223
-165.837	67.848	-0.125	-0.126
-164.823	-83.314	0.303	-0.096
-163.808	-149.226	0.203	0.016
-162.793	103.424	0.117	0.135
-161.779	-21.236	-0.185	0.112
-160.764	-85.214	-0.314	0.097
-159.750	-56.911	-0.319	0.139
-158.735	487.406	-0.095	-0.213
-157.720	-200.000	0.026	0.241
-156.706	-200.000	0.027	0.130
-155.691	-200.000	-0.001	0.232
-154.677	-159.893	0.185	0.010
-153.662	-51.539	-0.163	0.075
-152.647	-200.000	-0.063	0.295
-151.633	-12.374	-0.312	0.201
-150.618	-20.548	0.205	-0.125
-149.604	138.950	-0.051	0.066
-148.589	434.486	0.199	0.427
-147.574	-91.733	-0.228	-0.064
-146.560	165.525	-0.210	0.292
-145.545	-84.686	-0.193	-0.060
-144.531	-48.336	-0.231	-0.110
-143.516	101.033	-0.279	0.320
-142.502	-0.580	-0.226	0.158
-141.487	-154.074	0.416	-0.028
-140.472	-137.002	-0.148	-0.017
-139.458	-118.545	0.240	0.042
-138.443	-200.000	0.010	-0.244
-137.429	531.025	0.045	0.104
-136.414	145.729	0.053	-0.070
-135.399	151.732	-0.081	0.109
-134.385	-137.274	-0.241	-0.027
-133.370	-200.000	-0.040	0.179
-132.356	800.000	0.062	-0.259
-131.341	308.251	-0.059	-0.109
-130.326	-200.000	0.009	-0.049
-129.312	800.000	-0.083	-0.234
-128.297	-200.000	0.254	-0.001
-127.283	800.000	0.007	0.021
-126.268	390.094	0.070	0.142
-125.253	-200.000	-0.060	-0.275
-124.239	-103.732	-0.063	-0.015
-123.224	151.392	-0.160	0.214
-122.210	-36.355	-0.161	0.086
-121.195	-121.633	0.191	0.031
-120.180	74.881	0.178	-0.185
-119.166	171.745	-0.008	0.012
-118.151	-200.000	0.034	-0.216
-117.137	-106.035	0.274	-0.061
-116.122	-6.221	0.256	-0.172
-115.107	231.983	-0.095	-0.153
-114.093	-162.040	-0.115	0.006
-113.078	800.000	0.057	-0.184
-112.064	290.551	0.122	0.219
-111.049	176.413	-0.243	0.348
-110.034	87.400	-0.091	-0.099
-109.020	253.605	-0.217	0.366
-108.005	-200.000	-0.027	0.274
-106.991	800.000	0.105	0.335
-105.976	-51.699	0.055	-0.025
-104.962	-140.630	-0.260	-0.027
-103.947	800.000	0.088	-0.321
-102.932	84.235	-0.136	-0.146
-101.918	-80.833	0.380	0.124
-100.903	-61.189	0.215	-0.089
-99.889	50.515	0.103	-0.096
-98.874	800.000	-0.041	0.119
-97.859	153.225	-0.230	0.310
-96.845	-191.692	0.226	0.002
-95.830	-45.959	0.076	0.037
-94.816	-200.000	0.008	0.092
-93.801	63.762	0.155	0.153
-92.786	189.654	0.088	-0.130
-91.772	196.462	0.095	0.142
-90.757	167.936	0.127	0.178
-89.743	-78.777	-0.113	0.038
-88.728	-77.642	-0.318	-0.109
-87.713	190.498	0.153	-0.226
-86.699	-24.462	0.082	-0.048
-85.684	-6.007	0.246	0.166
-84.670	-200.000	0.008	-0.084
-83.655	4.238	0.214	-0.154
-82.640	-69.891	-0.277	0.104
-81.626	357.560	0.123	-0.242
-80.611	596.738	-0.108	-0.263
-79.597	10.162	0.209	-0.157
-78.582	92.545	-0.193	-0.214
-77.567	-4.750	-0.109	0.074
-76.553	220.800	0.143	0.225
-75.538	-200.000	0.003	0.195
-74.524	73.847	0.104	-0.107
-73.509	-200.000	0.029	0.223
-72.494	-4.081	-0.136	0.093
-71.480	-200.000	-0.056	0.379
-70.465	-200.000	0.018	-0.323
-69.451	2.872	0.242	0.173
-68.436	16.331	-0.133	-0.103
-67.422	-76.327	0.295	0.102
-66.407	-70.686	-0.335	-0.125
-65.392	-200.000	-0.025	-0.273
-64.378	430.634	0.048	0.102
-63.363	81.574	-0.212	0.226
-62.349	29.632	-0.213	0.178
-61.334	4.179	-1.130	-0.814
-60.319	196.708	0.450	0.674
-59.305	370.506	-0.554	-1.103
-58.290	218.812	0.698	1.097
-57.276	219.219	0.649	1.021
-56.261	-200.000	116.450	642.671
-55.246	488.705	1547.035	3474.577
-54.232	170.238	2730.939	3841.701
-53.217	95.519	2338.416	2621.857
-52.203	32.777	2080.415	1769.850
-51.188	28.061	1995.188	1654.712
-50.173	26.746	1978.252	1628.795
-49.159	44.031	2039.399	1837.510
-48.144	42.727	2054.346	1838.990
-47.130	28.404	2011.836	1671.389
-46.115	26.290	2001.982	1643.924
-45.100	26.271	1998.569	1640.883
-44.086	26.147	1996.292	1637.827
-43.071	26.148	1993.666	1635.613
-42.057	26.001	1991.771	1632.664
-41.042	26.143	1989.660	1632.151
-40.027	26.107	1988.051	1630.445
-39.013	26.115	1986.264	1628.984
-37.998	26.192	1984.145	1627.877
-36.984	26.173	1982.322	1626.148
-35.969	26.216	1980.203	1624.729
-34.954	26.154	1978.769	1622.929
-33.940	26.266	1977.031	1622.448
-32.925	26.221	1975.951	1621.094
-31.911	26.281	1973.822	1619.820
-30.896	26.234	1972.641	1618.366
-29.881	26.309	1970.889	1617.534
-28.867	26.273	1969.747	1616.209
-27.852	26.308	1967.504	1614.615
-26.838	26.347	1965.277	1613.072
-25.823	26.249	1963.494	1610.677
-24.809	26.284	1961.913	1609.624
-23.794	26.297	1960.118	1608.202
-22.779	26.316	1958.137	1606.685
-21.765	26.245	1956.931	1604.997
-20.750	26.289	1955.326	1604.007
-19.736	26.253	1953.695	1602.290
-18.721	26.261	1952.449	1601.273
-17.706	26.217	1950.394	1599.139
-16.692	26.285	1948.539	1598.154
-15.677	26.257	1947.398	1596.910
-14.663	26.274	1945.541	1595.473
-13.648	26.278	1944.214	1594.353
-12.633	26.261	1942.986	1593.134
-11.619	26.266	1942.249	1592.508
-10.604	26.250	1940.669	1591.007
-9.590	26.181	1939.602	1589.464
-8.575	26.276	1937.793	1588.758
-7.560	26.261	1936.368	1587.395
-6.546	26.311	1934.831	1586.512
-5.531	26.339	1934.292	1586.252
-4.517	26.317	1932.685	1584.674
-3.502	26.328	1931.526	1583.762
-2.487	26.284	1930.782	1582.697
-1.473	26.254	1929.533	1581.347
-0.458	26.295	1924.920	1577.868
0.556	27.154	1905.078	1550.792
1.571	23.154	1886.561	1501.710
2.586	19.398	1910.726	1488.457
3.600	18.649	1946.503	1509.610
4.615	18.212	1939.140	1499.938
5.629	13.876	1836.682	1384.474
6.644	6.716	1722.795	1242.335
7.659	3.661	1690.923	1195.614
8.673	3.483	1687.843	1191.952
9.688	3.429	1686.363	1190.385
10.702	3.545	1685.006	1190.222
11.717	3.413	1682.090	1187.040
12.731	3.874	1680.529	1189.377
13.746	8.696	1692.218	1234.813
14.761	16.147	1708.938	1304.741
15.775	19.905	1714.280	1337.815
16.790	20.209	1713.224	1339.219
17.804	19.219	1710.882	1329.630
18.819	18.293	1707.335	1319.617
19.834	17.581	1705.423	1312.541
20.848	17.403	1703.781	1309.793
21.863	17.235	1702.845	1307.662
22.877	17.099	1700.598	1304.776
23.892	16.800	1699.718	1301.689
24.907	16.806	1698.266	1300.513
25.921	16.813	1696.801	1299.325
26.936	16.687	1696.684	1298.157
27.950	16.829	1695.526	1298.242
28.965	16.779	1694.875	1297.247
29.980	16.859	1694.327	1297.324
30.994	16.962	1693.128	1297.078
32.009	17.099	1691.964	1297.121
33.023	17.156	1690.929	1296.648
34.038	17.088	1690.280	1295.514
35.053	17.015	1689.341	1294.121
36.067	17.003	1688.012	1292.901
37.082	16.969	1686.433	1291.320
38.096	16.934	1684.991	1289.830
39.111	16.989	1684.498	1289.759
40.126	17.065	1683.608	1289.543
41.140	17.095	1682.801	1289.033
42.155	16.892	1681.066	1286.053
43.169	16.638	1679.616	1282.906
44.184	16.691	1678.334	1282.217
45.199	16.616	1677.569	1280.952
46.213	16.544	1676.623	1279.571
47.228	16.599	1675.295	1278.857
48.242	16.759	1674.061	1279.011
49.257	16.805	1673.395	1278.738
50.271	16.832	1672.043	1277.792
51.286	16.763	1671.105	1276.445
52.301	16.876	1669.789	1276.177
53.315	16.825	1668.450	1274.652
54.330	16.926	1666.664	1273.941
55.344	16.732	1664.877	1271.006
56.359	16.681	1663.314	1269.313
57.374	16.710	1662.193	1268.565
58.388	16.676	1661.346	1267.553
59.403	16.667	1659.943	1266.299
60.417	16.542	1658.631	1264.252
61.432	16.583	1657.190	1263.346
62.447	16.621	1656.287	1262.832
63.461	16.454	1654.959	1260.461
64.476	16.371	1653.920	1258.945
65.490	16.475	1652.433	1258.471
66.505	16.404	1651.889	1257.423
67.520	16.472	1650.423	1256.698
68.534	16.398	1649.801	1255.564
69.549	16.466	1648.227	1254.761
70.563	16.468	1647.172	1253.860
71.578	16.488	1645.723	1252.796
72.593	16.386	1644.668	1251.123
73.607	16.337	1643.817	1250.004
74.622	16.331	1642.685	1248.989
75.636	16.232	1642.045	1247.659
76.651	16.270	1641.167	1247.159
77.666	16.399	1640.306	1247.352
78.680	16.336	1639.389	1246.079
79.695	16.360	1638.478	1245.454
80.709	16.470	1637.421	1245.352
81.724	16.487	1636.848	1244.929
82.739	16.551	1635.828	1244.511
83.753	16.708	1635.134	1245.030
84.768	16.722	1634.499	1244.537
85.782	16.819	1633.771	1244.583
86.797	16.917	1632.736	1244.408
87.812	16.963	1631.721	1243.858
88.826	16.880	1630.468	1242.187
89.841	16.811	1629.586	1240.898
90.855	16.825	1628.123	1239.778
91.870	16.837	1627.229	1239.072
92.884	17.018	1626.171	1239.484
93.899	16.954	1625.508	1238.401
94.914	16.960	1624.501	1237.570
95.928	17.140	1623.015	1237.638
96.943	17.031	1621.996	1235.961
97.957	17.036	1620.160	1234.489
98.972	16.953	1618.898	1232.809
99.987	16.934	1617.259	1231.319
101.001	16.875	1616.098	1229.896
102.016	16.885	1614.232	1228.442
103.030	16.939	1613.038	1227.810
104.045	16.967	1611.825	1226.985
105.060	16.933	1610.480	1225.604
106.074	16.835	1608.942	1223.622
107.089	16.704	1607.582	1221.532
108.103	16.641	1605.010	1219.015
109.118	16.478	1603.868	1216.865
110.133	16.492	1602.229	1215.620
111.147	16.388	1601.664	1214.330
112.162	16.502	1599.770	1213.609
113.176	16.496	1598.476	1212.473
114.191	16.504	1597.117	1211.393
115.206	16.570	1596.389	1211.206
116.220	16.621	1594.954	1210.380
117.235	16.549	1593.332	1208.521
118.249	16.527	1592.741	1207.813
119.264	16.633	1590.860	1207.037
120.279	16.462	1589.352	1204.569
121.293	16.485	1588.190	1203.744
122.308	16.451	1586.009	1201.743
123.322	16.438	1584.908	1200.709
124.337	16.400	1583.059	1198.930
125.352	16.347	1582.006	1197.655
126.366	16.344	1580.684	1196.521
127.381	16.362	1579.696	1195.799
128.395	16.374	1578.696	1195.021
129.410	16.393	1577.495	1194.138
130.424	16.407	1576.202	1193.151
131.439	16.551	1574.911	1193.088
132.454	16.565	1573.807	1192.241
133.468	16.557	1572.602	1191.169
134.483	16.632	1571.000	1190.377
135.497	16.741	1569.558	1189.945
136.512	16.584	1568.488	1187.928
137.527	16.628	1567.047	1187.038
138.541	16.654	1565.883	1186.231
139.556	16.692	1564.362	1185.244
140.570	16.671	1563.386	1184.249
141.585	16.855	1561.767	1184.209
142.600	16.791	1561.128	1183.173
143.614	16.949	1559.698	1183.086
144.629	16.967	1558.184	1181.959
145.643	16.984	1557.396	1181.369
146.658	17.089	1555.955	1180.907
147.673	17.032	1553.837	1178.796
148.687	16.843	1552.663	1176.489
149.702	16.839	1550.999	1175.098
150.716	16.752	1550.036	1173.660
151.731	16.820	1547.696	1172.257
152.746	16.734	1546.986	1171.017
153.760	16.708	1545.456	1169.581
154.775	16.741	1544.422	1168.923
155.789	16.906	1542.869	1168.780
156.804	16.912	1542.047	1168.097
157.819	16.923	1540.970	1167.254
158.833	16.992	1539.348	1166.392
159.848	17.049	1538.548	1166.075
160.862	17.102	1537.373	1165.445
161.877	17.171	1535.754	1164.590
162.892	17.097	1534.880	1163.314
163.906	16.892	1533.725	1160.933
164.921	16.722	1532.431	1158.688
165.935	16.803	1531.388	1158.353
166.950	16.812	1530.237	1157.443
167.964	16.973	1529.120	1157.590
168.979	16.993	1527.742	1156.578
169.994	16.942	1527.014	1155.578
171.008	16.890	1526.026	1154.379
172.023	17.046	1524.436	1154.132
173.037	16.984	1523.197	1152.673
174.052	17.065	1522.359	1152.486
175.067	17.216	1521.205	1152.535
176.081	17.013	1520.514	1150.529
177.096	16.939	1518.589	1148.473
178.110	16.826	1517.687	1146.924
179.125	16.906	1516.282	1146.300
180.140	16.951	1514.930	1145.480
181.154	16.914	1514.185	1144.569
182.169	17.056	1513.323	1144.770
183.183	17.113	1511.915	1143.992
184.198	17.246	1511.036	1144.117
185.213	17.157	1510.221	1142.804
186.227	17.244	1508.701	1142.137
187.242	17.332	1508.321	1142.340
188.256	17.311	1507.297	1141.324
189.271	17.409	1506.112	1140.979
190.286	17.311	1505.525	1139.776
191.300	17.266	1503.923	1138.165
192.315	17.158	1501.955	1135.853
193.329	16.857	1500.960	1132.988
194.344	16.848	1500.159	1132.223
195.359	16.926	1498.966	1131.741
196.373	16.992	1497.881	1131.263
197.388	17.161	1497.285	1131.834
198.402	17.153	1496.340	1130.967
199.417	17.325	1494.615	1130.707
200.432	17.445	1493.907	1130.869
201.446	17.463	1493.441	1130.537
202.461	17.562	1492.018	1130.018
203.475	17.626	1491.119	1129.660
204.490	17.558	1490.116	1128.351
205.504	17.581	1488.701	1127.331
206.519	17.473	1487.333	1125.480
207.534	17.441	1486.121	1124.251
208.548	17.385	1484.814	1122.795
209.563	17.409	1483.932	1122.185
210.577	17.436	1483.214	1121.725
211.592	17.434	1481.875	1120.598
212.607	17.445	1481.576	1120.349
213.621	17.507	1481.570	1120.649
214.636	17.657	1479.911	1120.285
215.650	17.579	1478.696	1118.751
216.665	17.669	1477.690	1118.482
217.680	17.712	1477.061	1118.187
218.694	17.694	1476.883	1117.839
219.709	17.786	1475.374	1117.198
220.723	17.850	1474.591	1116.923
221.738	17.730	1473.469	1115.195
222.753	17.773	1472.749	1114.831
223.767	17.687	1472.159	1113.724
224.782	17.751	1470.800	1113.011
225.796	17.833	1469.725	1112.634
226.811	17.853	1469.209	1112.276
227.826	17.878	1468.844	1112.064
228.840	17.888	1467.284	1110.854
229.855	17.648	1466.759	1108.793
230.869	17.744	1465.186	1108.128
231.884	17.735	1464.118	1107.168
232.899	17.685	1462.686	1105.663
233.913	17.609	1462.045	1104.587
234.928	17.526	1460.739	1102.965
235.942	17.597	1459.664	1102.512
236.957	17.622	1458.001	1101.322
237.972	17.558	1457.165	1100.179
238.986	17.549	1455.852	1099.035
240.001	17.643	1455.122	1098.991
241.015	17.646	1453.792	1097.911
242.030	17.640	1452.532	1096.825
243.045	17.745	1451.569	1096.673
244.059	17.748	1451.207	1096.322
245.074	17.802	1450.342	1095.916
246.088	17.788	1449.734	1095.270
247.103	17.848	1448.868	1094.908
248.117	17.953	1448.025	1094.843
249.132	17.913	1447.665	1094.222
250.147	18.128	1446.723	1094.787
251.161	18.245	1446.126	1094.985
252.176	18.383	1445.806	1095.528
253.190	18.416	1444.339	1094.535
254.205	18.349	1443.979	1093.738
255.220	18.498	1443.200	1093.997
256.234	18.609	1442.233	1093.875
257.249	18.466	1441.556	1092.357
258.263	18.515	1440.598	1091.845
259.278	18.456	1440.047	1090.959
260.293	18.464	1439.015	1090.130
261.307	18.401	1438.228	1089.037
262.322	18.529	1437.556	1089.244
263.336	18.529	1437.129	1088.822
264.351	18.586	1435.357	1087.748
265.366	18.679	1434.213	1087.370
266.380	18.677	1433.429	1086.666
267.395	18.709	1432.659	1086.195
268.409	18.659	1431.651	1085.015
269.424	18.655	1430.166	1083.766
270.439	18.551	1429.091	1082.200
271.453	18.601	1428.065	1081.643
272.468	18.531	1427.174	1080.433
273.482	18.498	1426.284	1079.454
274.497	18.388	1425.776	1078.281
275.512	18.428	1424.697	1077.620
276.526	18.503	1423.423	1077.034
277.541	18.484	1422.973	1076.480
278.555	18.525	1421.946	1075.865
279.570	18.582	1421.053	1075.450
280.585	18.582	1420.535	1074.967
281.599	18.768	1419.258	1075.069
282.614	18.719	1418.736	1074.270
283.628	18.664	1417.749	1073.083
284.643	18.584	1416.459	1071.516
285.657	18.684	1414.761	1070.760
286.672	18.672	1414.164	1070.134
287.687	18.586	1413.365	1068.899
288.701	18.676	1412.190	1068.481
289.716	18.657	1411.761	1067.940
290.730	18.666	1410.588	1067.016
291.745	18.714	1409.599	1066.471
292.760	18.775	1408.633	1066.022
293.774	18.695	1407.786	1064.794
294.789	18.854	1406.551	1064.747
295.803	18.817	1406.029	1064.029
296.818	18.909	1405.066	1063.775
297.833	18.826	1403.781	1062.196
298.847	18.724	1403.053	1060.925
299.862	18.706	1402.205	1060.074
300.876	18.702	1401.003	1059.046
301.891	18.752	1400.123	1058.600
302.906	18.859	1399.595	1058.762
303.920	18.903	1398.941	1058.444
304.935	18.997	1397.894	1058.137
305.949	19.039	1397.476	1057.988
306.964	19.233	1396.528	1058.368
307.979	19.238	1395.503	1057.531
308.993	19.127	1394.423	1055.937
310.008	19.007	1393.937	1054.736
311.022	19.085	1392.886	1054.325
312.037	19.061	1392.176	1053.549
313.052	19.173	1390.893	1053.169
314.066	19.115	1389.595	1051.739
315.081	19.011	1388.668	1050.308
316.095	18.930	1387.259	1048.656
317.110	18.887	1386.361	1047.623
318.125	18.883	1385.358	1046.747
319.139	18.880	1384.090	1045.680
320.154	18.835	1383.503	1044.870
321.168	18.983	1382.449	1044.880
322.183	19.002	1381.204	1043.962
323.197	18.927	1380.384	1042.795
324.212	18.997	1379.606	1042.542
325.227	19.051	1378.796	1042.162
326.241	19.101	1378.028	1041.791
327.256	19.124	1377.203	1041.215
328.270	19.035	1376.493	1040.048
329.285	19.083	1375.104	1039.201
330.300	18.928	1374.475	1037.693
331.314	19.107	1373.077	1037.625
332.329	19.000	1372.352	1036.341
333.343	18.976	1371.510	1035.473
334.358	19.080	1370.792	1035.466
335.373	19.127	1370.262	1035.253
336.387	19.286	1368.918	1035.102
337.402	19.245	1369.098	1034.902
338.416	19.241	1368.023	1033.970
339.431	19.344	1367.012	1033.732
340.446	19.360	1366.547	1033.387
341.460	19.412	1365.530	1032.835
342.475	19.389	1364.975	1032.186
343.489	19.594	1363.654	1032.322
344.504	19.518	1363.303	1031.513
345.519	19.632	1361.775	1030.946
346.533	19.655	1361.025	1030.421
347.548	19.698	1360.175	1029.945
348.562	19.710	1359.491	1029.405
349.577	19.762	1359.107	1029.335
350.592	19.677	1357.655	1027.641
351.606	19.600	1356.669	1026.342
352.621	19.471	1355.636	1024.707
353.635	19.432	1354.284	1023.363
354.650	19.364	1353.707	1022.429
355.665	19.412	1352.436	1021.667
356.679	19.478	1351.254	1021.072
357.694	19.462	1350.515	1020.332
358.708	19.633	1349.536	1020.510
359.723	19.565	1348.085	1018.921
360.738	19.587	1347.250	1018.329
361.752	19.667	1346.491	1018.138
362.767	19.706	1345.533	1017.551
363.781	19.717	1344.435	1016.697
364.796	19.735	1343.608	1016.089
365.810	19.757	1343.043	1015.699
366.825	19.831	1342.300	1015.485
367.840	19.905	1341.940	1015.552
368.854	19.933	1341.215	1015.080
369.869	20.039	1340.641	1015.177
370.883	20.042	1340.141	1014.726
371.898	20.024	1339.057	1013.708
372.913	19.918	1338.457	1012.548
373.927	19.885	1337.294	1011.381
374.942	19.946	1336.643	1011.161
375.956	20.064	1336.041	1011.303
376.971	20.057	1335.114	1010.470
377.986	20.032	1333.845	1009.274
379.000	20.067	1333.132	1008.850
380.015	19.988	1333.161	1008.325
381.029	20.074	1332.418	1008.174
382.044	20.171	1331.442	1007.905
383.059	20.190	1330.395	1007.135
384.073	20.201	1330.161	1006.935
385.088	20.197	1329.440	1006.275
386.102	20.136	1328.550	1005.157
387.117	20.237	1327.704	1005.017
388.132	20.186	1326.786	1003.937
389.146	20.114	1325.820	1002.699
390.161	20.085	1324.700	1001.594
391.175	20.124	1323.811	1001.062
392.190	20.086	1323.125	1000.234
393.205	20.093	1322.459	999.682
394.219	20.254	1321.291	999.640
395.234	20.247	1320.355	998.806
396.248	20.215	1318.958	997.472
397.263	20.250	1317.328	996.355
398.278	20.116	1316.624	994.963
399.292	20.057	1315.501	993.690
400.307	19.996	1314.094	992.186
401.321	19.952	1312.835	990.900
402.336	20.007	1311.877	990.400
403.350	19.979	1310.669	989.242
404.365	20.053	1310.031	989.093
405.380	20.071	1308.968	988.312
406.394	20.177	1308.172	988.224
407.409	20.165	1307.895	987.861
408.423	20.232	1307.124	987.569
409.438	20.332	1306.493	987.577
410.453	20.446	1305.918	987.705
411.467	20.452	1305.147	987.064
412.482	20.565	1304.461	987.103
413.496	20.650	1303.803	986.997
414.511	20.621	1303.487	986.509
415.526	20.705	1302.027	985.789
416.540	20.663	1301.778	985.275
417.555	20.800	1300.945	985.332
418.569	20.879	1300.262	985.175
419.584	20.721	1299.903	983.924
420.599	20.706	1298.999	983.067
421.613	145.318	1435.559	1796.145
422.628	140.575	1455.398	1796.221
