DTS Sentinel unit serial number:	SN413079Multiplexer serial number:	ORYXHardware model number:	OX4-SRSoftware version number:	ORYX F/W v4.00 Oryx Data Collector v3.7.2.0data status	okinstallation	princeton_trtdifferential loss correction	single-endedforward channel	channel 4reverse channel	N/Adate	2019/09/15time	10:41:35forward acquisition time	60.00reverse acquisition time	0.00gamma	496.2192k internal	0.2299k external	0.2299temperature offset calibration	1.0015default loss term (dB/km)	0.3790temperature slope calibration	1.0000multiplexer offset coefficient	1.0000multiplexer slope coefficient	1.0000fibre end	0.00T internal ref (°C)	34.25T ext. ref 1 (°C)	5.03T ext. ref 2 (°C)	29.52length (m)	temperature (°C)	Stokes	anti-Stokes-747.200	153.097	0.247	0.345
-746.185	131.268	0.316	0.414
-745.171	-200.000	-0.017	-0.176
-744.156	800.000	0.067	0.270
-743.142	-200.000	0.010	-0.295
-742.127	-47.120	0.363	0.180
-741.112	189.551	0.141	0.216
-740.098	-200.000	0.155	0.771
-739.083	11.065	0.200	-0.156
-738.069	-200.000	0.022	0.158
-737.054	701.735	0.097	0.259
-736.039	132.504	-0.209	-0.275
-735.025	-200.000	0.112	-0.000
-734.010	800.000	-0.107	-0.369
-732.996	-42.994	-0.122	-0.063
-731.981	-200.000	-0.021	0.226
-730.966	-115.016	-0.261	-0.051
-729.952	415.796	0.050	-0.109
-728.937	-40.958	0.196	-0.103
-727.923	258.277	-0.162	-0.285
-726.908	-200.000	-0.038	-0.172
-725.894	222.556	0.055	0.090
-724.879	47.829	-0.118	-0.112
-723.864	800.000	-0.019	-0.060
-722.850	800.000	0.118	0.401
-721.835	157.105	0.159	0.224
-720.821	139.927	-0.203	-0.273
-719.806	122.279	-0.087	-0.110
-718.791	-200.000	0.005	0.057
-717.777	-180.916	-0.333	-0.007
-716.762	162.348	0.197	-0.281
-715.748	800.000	-0.040	-0.134
-714.733	94.870	0.061	0.071
-713.718	-200.000	0.004	-0.181
-712.704	-167.684	-0.291	0.012
-711.689	793.050	-0.064	-0.180
-710.675	161.820	0.092	-0.131
-709.660	21.146	-0.166	-0.137
-708.645	5.898	0.140	0.106
-707.631	-200.000	0.005	-0.023
-706.616	-136.682	0.237	-0.028
-705.602	526.070	-0.069	-0.165
-704.587	-152.557	-0.217	-0.016
-703.572	257.220	0.300	-0.526
-702.558	394.755	-0.127	-0.271
-701.543	-200.000	0.032	0.294
-700.529	800.000	0.030	-0.111
-699.514	-159.540	-0.399	-0.023
-698.499	800.000	0.080	-0.352
-697.485	-79.140	-0.257	0.089
-696.470	-128.923	-0.152	0.022
-695.456	-200.000	0.024	-0.126
-694.441	-200.000	0.005	0.135
-693.426	-12.772	0.049	0.033
-692.412	735.417	-0.084	0.230
-691.397	372.009	0.126	0.260
-690.383	-22.766	-0.165	0.102
-689.368	800.000	-0.054	-0.224
-688.354	800.000	-0.036	-0.148
-687.339	-128.368	0.134	-0.019
-686.324	-132.036	-0.084	-0.011
-685.310	49.137	-0.105	0.100
-684.295	-141.653	0.148	0.015
-683.281	-64.160	-0.311	0.129
-682.266	-43.989	-0.290	-0.149
-681.251	37.839	-0.135	0.122
-680.237	-78.060	-0.288	0.101
-679.222	-3.143	0.223	0.158
-678.208	60.093	-0.072	-0.073
-677.193	-127.464	0.129	-0.019
-676.178	800.000	-0.095	0.331
-675.164	-120.834	-0.174	0.030
-674.149	-159.308	-0.564	-0.032
-673.135	-23.959	-0.380	0.232
-672.120	215.885	0.199	0.322
-671.105	-69.340	0.202	-0.079
-670.091	-54.181	0.136	0.063
-669.076	698.496	0.058	-0.154
-668.062	-200.000	-0.006	0.137
-667.047	302.488	0.068	0.128
-666.032	800.000	0.073	0.292
-665.018	-151.337	0.080	0.006
-664.003	-75.323	0.118	0.043
-662.989	-41.700	0.112	0.059
-661.974	106.497	0.053	-0.064
-660.959	800.000	-0.028	0.090
-659.945	-61.819	0.022	-0.009
-658.930	800.000	0.092	-0.324
-657.916	800.000	-0.024	-0.077
-656.901	-135.872	-0.148	0.018
-655.886	-200.000	0.024	-0.197
-654.872	75.400	0.079	0.085
-653.857	568.130	-0.043	-0.107
-652.843	229.987	-0.175	0.292
-651.828	439.975	0.090	-0.200
-650.814	449.664	-0.137	-0.308
-649.799	-29.228	0.120	0.070
-648.784	-84.518	0.466	-0.149
-647.770	-86.082	0.121	0.038
-646.755	-200.000	0.035	0.359
-645.741	-112.548	0.307	-0.062
-644.726	-200.000	-0.015	0.407
-643.711	2.550	0.144	-0.106
-642.697	-200.000	0.049	-0.280
-641.682	-3.736	-0.202	0.142
-640.668	-200.000	-0.025	0.182
-639.653	-59.584	0.076	-0.033
-638.638	404.313	0.126	-0.271
-637.624	-8.369	0.312	0.213
-636.609	-200.000	0.008	0.299
-635.595	10.202	0.292	-0.225
-634.580	-97.261	-0.149	-0.040
-633.565	216.746	0.087	0.140
-632.551	-200.000	-0.007	0.053
-631.536	-200.000	-0.009	-0.142
-630.522	15.568	-0.134	-0.107
-629.507	-200.000	0.020	0.166
-628.492	74.463	-0.113	-0.121
-627.478	-98.654	-0.033	-0.009
-626.463	-69.467	0.161	0.063
-625.449	-200.000	-0.012	-0.069
-624.434	9.644	-0.202	-0.156
-623.419	283.022	0.024	-0.044
-622.405	117.829	-0.389	0.487
-621.390	115.402	-0.118	-0.146
-620.376	62.890	-0.104	0.106
-619.361	-131.276	0.154	-0.021
-618.346	3.270	0.329	0.243
-617.332	244.604	-0.155	-0.265
-616.317	-200.000	-0.024	-0.179
-615.303	-125.461	0.349	-0.054
-614.288	-29.818	0.082	-0.047
-613.273	35.475	-0.121	0.108
-612.259	71.737	0.087	-0.092
-611.244	-200.000	-0.002	-0.080
-610.230	-80.281	-0.491	0.167
-609.215	-113.797	-0.176	-0.035
-608.201	339.091	-0.063	-0.124
-607.186	70.814	-0.092	0.097
-606.171	76.847	0.076	-0.082
-605.157	-79.473	-0.062	0.021
-604.142	-200.000	-0.002	-0.178
-603.128	47.838	0.197	-0.187
-602.113	-62.715	-0.490	0.206
-601.098	436.624	-0.125	-0.277
-600.084	-105.956	0.279	-0.064
-599.069	-114.812	0.097	0.019
-598.055	18.271	-0.094	0.076
-597.040	-137.406	0.222	-0.025
-596.025	-50.554	0.386	-0.185
-595.011	800.000	-0.076	-0.268
-593.996	-163.788	0.031	0.001
-592.982	-23.860	-0.135	-0.082
-591.967	17.624	-0.101	-0.081
-590.952	101.661	0.112	-0.132
-589.938	251.829	-0.072	-0.124
-588.923	-147.166	-0.061	0.005
-587.909	-115.552	0.178	-0.034
-586.894	-200.000	-0.013	0.167
-585.879	98.270	0.145	-0.170
-584.865	51.984	-0.128	0.124
-583.850	41.823	-0.183	-0.168
-582.836	-74.369	0.115	-0.042
-581.821	-111.966	0.181	-0.037
-580.806	-200.000	0.033	-0.249
-579.792	-69.538	-0.193	0.075
-578.777	-200.000	-0.070	-0.392
-577.763	800.000	-0.026	0.076
-576.748	-76.420	-0.092	-0.033
-575.733	-139.732	0.261	0.028
-574.719	-200.000	-0.007	0.184
-573.704	-161.134	-0.626	-0.033
-572.690	-79.829	-0.292	-0.100
-571.675	140.634	0.144	-0.193
-570.661	-200.000	-0.024	-0.287
-569.646	-200.000	0.017	-0.092
-568.631	-101.843	0.300	0.074
-567.617	-1.390	-0.130	0.093
-566.602	800.000	0.048	-0.203
-565.588	-200.000	0.021	-0.126
-564.573	-78.373	-0.049	0.017
-563.558	708.899	0.054	-0.143
-562.544	-115.118	0.158	-0.030
-561.529	800.000	-0.051	-0.158
-560.515	149.492	-0.243	0.333
-559.500	-101.257	-0.107	0.027
-558.485	-15.041	-0.374	-0.243
-557.471	2.238	0.240	-0.176
-556.456	217.952	0.177	-0.286
-555.442	800.000	-0.100	-0.369
-554.427	800.000	-0.019	0.079
-553.412	-45.173	0.103	-0.052
-552.398	235.548	-0.093	-0.156
-551.383	-40.180	-0.258	-0.136
-550.369	-200.000	0.035	-0.353
-549.354	-0.840	0.247	-0.177
-548.339	4.928	-0.067	0.050
-547.325	86.475	0.156	-0.174
-546.310	-61.978	-0.279	-0.118
-545.296	-140.086	0.371	-0.040
-544.281	218.518	-0.086	0.139
-543.266	-99.480	0.134	-0.034
-542.252	-152.932	0.207	-0.015
-541.237	-184.103	0.069	0.001
-540.223	-164.430	-0.094	0.004
-539.208	116.106	0.100	-0.124
-538.193	70.399	-0.111	0.116
-537.179	0.217	-0.143	0.104
-536.164	-83.286	0.346	0.113
-535.150	-165.500	0.145	-0.006
-534.135	-167.424	-0.079	-0.003
-533.121	-200.000	0.029	-0.204
-532.106	-131.818	-0.046	0.006
-531.091	-200.000	0.024	0.166
-530.077	-8.839	-0.142	-0.096
-529.062	-200.000	-0.012	-0.202
-528.048	-133.284	-0.168	-0.021
-527.033	800.000	0.050	-0.195
-526.018	-200.000	-0.022	-0.270
-525.004	-126.188	-0.286	0.043
-523.989	-124.808	0.276	0.043
-522.975	186.901	-0.084	-0.126
-521.960	494.365	0.128	0.298
-520.945	163.217	0.044	-0.063
-519.931	-144.406	-0.292	-0.027
-518.916	7.004	-0.094	0.071
-517.902	764.601	0.091	-0.249
-516.887	-3.578	0.077	-0.054
-515.872	31.733	-0.239	0.208
-514.858	-200.000	0.058	-0.263
-513.843	155.852	-0.056	0.079
-512.829	35.789	-0.112	0.099
-511.814	313.268	-0.062	0.118
-510.799	-159.141	0.261	-0.015
-509.785	75.663	0.287	0.307
-508.770	-143.877	0.335	-0.032
-507.756	374.246	-0.096	0.197
-506.741	40.465	-0.181	-0.165
-505.726	-83.591	-0.317	-0.102
-504.712	-123.680	-0.072	-0.012
-503.697	-153.688	0.178	0.012
-502.683	-99.820	-0.234	-0.059
-501.668	-36.979	0.080	-0.043
-500.653	361.653	0.054	-0.110
-499.639	-200.000	0.029	0.154
-498.624	-28.579	0.236	-0.137
-497.610	-200.000	-0.014	-0.425
-496.595	-62.076	-0.222	0.094
-495.581	-93.669	-0.092	-0.026
-494.566	168.180	0.063	0.091
-493.551	-200.000	0.013	0.211
-492.537	-106.385	-0.293	-0.066
-491.522	324.571	-0.149	0.288
-490.508	46.195	-0.054	-0.050
-489.493	-123.748	-0.226	-0.036
-488.478	-72.275	0.438	-0.164
-487.464	800.000	0.094	0.389
-486.449	-200.000	0.030	0.178
-485.435	196.096	0.100	-0.154
-484.420	394.079	-0.035	-0.074
-483.405	-48.058	-0.160	-0.078
-482.391	-68.158	0.330	0.130
-481.376	53.903	0.106	0.103
-480.362	156.990	0.085	-0.118
-479.347	-127.261	-0.312	0.046
-478.332	-89.510	-0.155	-0.046
-477.318	157.202	-0.215	-0.300
-476.303	-70.378	0.237	0.091
-475.289	-200.000	-0.020	-0.127
-474.274	-45.831	0.129	-0.064
-473.259	-200.000	0.046	-0.323
-472.245	12.582	-0.143	-0.111
-471.230	-27.931	0.100	0.059
-470.216	126.057	0.131	0.167
-469.201	-76.389	-0.238	-0.085
-468.186	57.728	-0.392	0.387
-467.172	-200.000	0.008	0.080
-466.157	750.203	0.126	-0.343
-465.143	-119.311	0.285	0.050
-464.128	-69.353	0.169	-0.065
-463.113	-200.000	-0.005	-0.411
-462.099	314.114	0.055	-0.105
-461.084	-200.000	0.025	0.110
-460.070	-98.562	-0.393	-0.101
-459.055	-162.471	0.476	0.024
-458.040	-200.000	0.031	0.200
-457.026	-13.193	-0.145	0.095
-456.011	13.703	-0.194	-0.152
-454.997	347.951	-0.089	-0.177
-453.982	-200.000	0.024	-0.253
-452.968	800.000	-0.059	-0.209
-451.953	-37.546	0.363	-0.195
-450.938	702.884	-0.100	0.267
-449.924	-200.000	0.016	-0.221
-448.909	-15.933	0.173	0.111
-447.895	-200.000	-0.019	0.335
-446.880	-99.996	0.125	-0.031
-445.865	-146.982	-0.269	0.023
-444.851	-35.874	-0.110	0.060
-443.836	-200.000	-0.031	0.226
-442.822	-200.000	0.045	0.385
-441.807	11.840	-0.226	0.175
-440.792	187.112	0.083	0.125
-439.778	41.273	0.043	-0.039
-438.763	-200.000	0.033	-0.200
-437.749	-200.000	-0.014	-0.080
-436.734	-200.000	0.082	0.481
-435.719	-200.000	0.000	0.168
-434.705	-131.602	0.215	-0.028
-433.690	-200.000	-0.009	0.296
-432.676	800.000	-0.018	0.056
-431.661	-36.272	-0.245	-0.133
-430.646	800.000	-0.033	0.136
-429.632	800.000	-0.022	0.075
-428.617	-36.069	-0.157	-0.086
-427.603	-200.000	0.023	-0.117
-426.588	35.078	0.182	-0.161
-425.573	-131.732	0.129	-0.017
-424.559	389.869	-0.169	0.354
-423.544	-111.893	0.130	-0.026
-422.530	168.517	-0.217	-0.311
-421.515	-94.363	0.112	-0.031
-420.500	1.758	-0.241	0.175
-419.486	-176.722	-0.074	0.002
-418.471	-78.378	-0.155	0.053
-417.457	-200.000	0.014	-0.202
-416.442	800.000	0.061	-0.175
-415.428	123.764	-0.037	0.047
-414.413	128.041	-0.107	0.137
-413.398	121.531	-0.065	0.081
-412.384	-104.794	-0.325	-0.075
-411.369	-98.692	0.094	-0.024
-410.355	117.486	0.130	0.161
-409.340	229.451	0.146	0.241
-408.325	531.181	-0.110	-0.263
-407.311	-200.000	-0.029	0.247
-406.296	-99.247	-0.187	-0.048
-405.282	34.903	0.066	0.058
-404.267	-200.000	-0.027	-0.186
-403.252	-200.000	-0.038	-0.276
-402.238	26.859	-0.227	-0.192
-401.223	800.000	0.059	-0.194
-400.209	634.172	0.039	-0.100
-399.194	-200.000	0.002	-0.230
-398.179	-138.978	-0.169	0.018
-397.165	-153.877	-0.461	0.032
-396.150	24.003	0.171	-0.142
-395.136	2.333	-0.297	0.217
-394.121	-200.000	-0.001	-0.315
-393.106	-200.000	0.012	-0.374
-392.092	118.819	0.035	0.044
-391.077	-149.239	0.059	-0.005
-390.063	-12.031	-0.084	-0.055
-389.048	-200.000	-0.014	0.381
-388.033	138.231	-0.229	0.302
-387.019	-200.000	-0.049	0.250
-386.004	332.920	-0.098	-0.191
-384.990	-157.266	0.293	-0.018
-383.975	28.266	-0.153	-0.130
-382.960	-51.643	-0.038	-0.018
-381.946	388.348	0.116	-0.241
-380.931	-159.122	-0.348	-0.020
-379.917	-83.374	0.445	0.144
-378.902	800.000	-0.051	0.182
-377.888	795.366	0.125	-0.348
-376.873	160.663	0.238	0.335
-375.858	-200.000	-0.062	0.371
-374.844	7.591	0.127	-0.095
-373.829	-200.000	0.052	-0.287
-372.815	-200.000	-0.036	0.179
-371.800	-5.285	0.098	0.067
-370.785	106.510	-0.063	-0.075
-369.771	43.457	-0.175	0.161
-368.756	-200.000	-0.025	0.140
-367.742	-200.000	-0.028	0.143
-366.727	85.506	0.142	0.157
-365.712	-110.150	-0.086	0.018
-364.698	565.266	0.182	-0.444
-363.683	-200.000	0.008	-0.105
-362.669	370.098	-0.045	0.092
-361.654	47.901	0.110	0.103
-360.639	97.801	-0.038	0.044
-359.625	15.973	0.105	0.083
-358.610	-102.262	0.121	-0.029
-357.596	1.477	0.295	-0.213
-356.581	-200.000	0.037	-0.239
-355.566	-200.000	-0.011	-0.150
-354.552	430.798	0.096	0.208
-353.537	567.089	-0.111	-0.271
-352.523	-200.000	-0.003	-0.096
-351.508	85.100	0.217	0.239
-350.493	800.000	0.060	0.187
-349.479	-114.077	-0.056	0.011
-348.464	-60.069	0.158	0.068
-347.450	-5.594	0.255	0.176
-346.435	-69.055	-0.254	0.098
-345.420	1.217	0.067	0.048
-344.406	-100.028	-0.059	0.015
-343.391	36.336	0.129	0.114
-342.377	-94.537	-0.325	-0.089
-341.362	-200.000	0.007	-0.201
-340.348	-200.000	0.009	0.141
-339.333	-44.792	0.084	-0.042
-338.318	684.260	-0.074	-0.193
-337.304	-108.743	-0.303	-0.065
-336.289	-76.584	-0.255	0.090
-335.275	800.000	-0.026	0.101
-334.260	408.551	0.082	-0.174
-333.245	-200.000	-0.029	-0.380
-332.231	-132.291	-0.228	0.030
-331.216	119.428	0.136	-0.169
-330.202	99.214	0.069	0.081
-329.187	-88.580	-0.378	0.113
-328.172	-64.111	-0.231	0.095
-327.158	600.287	-0.071	0.176
-326.143	10.646	-0.198	-0.151
-325.129	356.826	0.114	0.228
-324.114	-86.035	0.182	0.057
-323.099	0.910	-0.101	-0.073
-322.085	141.623	-0.231	-0.307
-321.070	47.453	0.189	0.177
-320.056	800.000	0.038	0.129
-319.041	55.691	-0.100	0.097
-318.026	-35.432	0.154	0.084
-317.012	800.000	-0.039	-0.133
-315.997	-180.743	0.096	-0.002
-314.983	92.183	-0.106	0.120
-313.968	-72.702	-0.316	0.117
-312.953	22.021	0.227	-0.186
-311.939	-18.851	-0.227	-0.142
-310.924	27.338	0.181	-0.153
-309.910	-200.000	-0.047	-0.216
-308.895	380.692	0.080	-0.164
-307.880	732.128	-0.084	-0.225
-306.866	117.082	0.045	0.055
-305.851	800.000	0.021	-0.061
-304.837	800.000	-0.043	0.162
-303.822	269.918	0.044	-0.078
-302.807	133.686	0.065	-0.085
-301.793	-132.440	0.280	-0.036
-300.778	-128.954	-0.386	0.054
-299.764	-28.026	0.285	0.165
-298.749	800.000	-0.063	-0.256
-297.735	32.819	0.330	-0.286
-296.720	-79.729	0.198	-0.067
-295.705	-53.359	0.402	0.185
-294.691	776.050	-0.139	-0.381
-293.676	27.012	-0.176	0.148
-292.662	-164.999	0.227	0.010
-291.647	388.739	0.071	0.148
-290.632	-150.857	-0.312	-0.024
-289.618	-23.431	0.176	-0.106
-288.603	800.000	0.031	0.107
-287.589	-200.000	-0.077	-0.352
-286.574	-68.504	0.176	-0.068
-285.559	-95.125	-0.175	0.047
-284.545	-200.000	0.050	-0.497
-283.530	230.354	-0.029	0.048
-282.516	-200.000	0.124	-0.001
-281.501	800.000	0.074	0.245
-280.486	-42.451	0.244	-0.124
-279.472	-76.607	-0.028	-0.010
-278.457	-33.933	-0.241	0.133
-277.443	-200.000	-0.042	0.285
-276.428	345.415	0.025	0.048
-275.413	-200.000	0.009	-0.152
-274.399	-200.000	0.020	0.178
-273.384	-200.000	-0.003	0.270
-272.370	389.587	0.010	-0.021
-271.355	-200.000	0.065	0.317
-270.340	181.622	-0.217	-0.320
-269.326	-11.819	0.330	-0.217
-268.311	162.681	0.081	0.114
-267.297	-65.854	-0.161	-0.065
-266.282	-7.755	-0.152	0.103
-265.267	-14.857	-0.140	-0.090
-264.253	157.996	-0.115	0.160
-263.238	-67.224	0.166	-0.066
-262.224	-36.068	-0.082	-0.045
-261.209	114.336	0.168	0.205
-260.195	68.686	0.189	0.194
-259.180	-90.419	0.139	-0.040
-258.165	284.942	-0.063	-0.114
-257.151	-111.334	-0.181	0.037
-256.136	-21.193	0.305	0.187
-255.122	671.608	-0.043	0.112
-254.107	-114.547	0.398	0.076
-253.092	419.496	-0.048	-0.104
-252.078	137.731	-0.075	-0.098
-251.063	-22.220	-0.202	-0.122
-250.049	-65.610	0.277	0.111
-249.034	-144.760	-0.118	-0.011
-248.019	24.227	-0.245	0.203
-247.005	-200.000	-0.002	0.092
-245.990	800.000	-0.092	0.285
-244.976	-200.000	0.013	-0.110
-243.961	-5.467	0.156	-0.107
-242.946	-200.000	0.016	0.202
-241.932	30.293	-0.286	0.244
-240.917	-200.000	0.004	0.169
-239.903	-82.123	0.245	0.080
-238.888	24.209	0.211	-0.175
-237.873	776.928	0.140	0.383
-236.859	0.417	-0.378	0.270
-235.844	-200.000	-0.003	0.022
-234.830	-17.586	-0.240	0.151
-233.815	-152.299	-0.154	-0.011
-232.800	558.480	-0.067	0.161
-231.786	-47.995	-0.216	-0.104
-230.771	-200.000	-0.061	0.308
-229.757	56.935	-0.014	0.014
-228.742	-93.610	0.085	0.024
-227.727	37.264	-0.218	0.193
-226.713	82.943	0.219	-0.239
-225.698	-78.321	0.261	-0.089
-224.684	-5.717	-0.374	-0.257
-223.669	180.703	-0.121	-0.177
-222.655	124.790	-0.290	0.365
-221.640	192.192	-0.119	-0.180
-220.625	264.623	0.150	-0.261
-219.611	800.000	-0.045	0.149
-218.596	-168.215	-0.557	-0.022
-217.582	-200.000	-0.037	0.188
-216.567	143.352	-0.110	0.146
-215.552	100.400	0.039	0.045
-214.538	-94.955	0.215	0.058
-213.523	-27.583	0.176	0.102
-212.509	50.984	-0.246	-0.233
-211.494	-35.285	-0.164	-0.089
-210.479	-102.215	-0.313	-0.075
-209.465	256.412	0.063	-0.107
-208.450	-185.807	-0.197	0.003
-207.436	800.000	-0.046	0.164
-206.421	-200.000	0.006	0.028
-205.406	-107.402	0.303	-0.066
-204.392	149.106	0.251	0.339
-203.377	-38.667	-0.061	-0.032
-202.363	405.338	0.160	0.338
-201.348	800.000	0.052	0.186
-200.333	-51.334	0.146	-0.068
-199.319	47.972	0.216	0.202
-198.304	71.471	0.082	-0.085
-197.290	800.000	0.064	-0.253
-196.275	651.766	0.056	0.144
-195.260	-187.355	-0.102	0.001
-194.246	-97.649	0.113	-0.029
-193.231	-81.107	-0.321	-0.106
-192.217	-200.000	0.036	0.331
-191.202	-135.975	0.272	0.032
-190.187	29.310	-0.180	-0.153
-189.173	63.264	-0.146	-0.146
-188.158	99.788	-0.135	0.156
-187.144	-200.000	0.035	-0.259
-186.129	-62.078	0.144	0.060
-185.114	35.024	-0.066	-0.058
-184.100	424.714	0.084	-0.180
-183.085	-54.862	-0.283	0.128
-182.071	-109.267	0.298	0.063
-181.056	51.992	-0.327	0.311
-180.042	7.739	0.291	-0.218
-179.027	-200.000	0.014	0.237
-178.012	-200.000	0.006	0.044
-176.998	142.855	-0.106	0.140
-175.983	162.171	0.022	0.030
-174.969	-147.937	0.158	0.013
-173.954	800.000	0.068	-0.212
-172.939	-198.057	0.133	0.001
-171.925	71.386	-0.025	-0.025
-170.910	63.454	0.139	0.139
-169.896	124.882	0.086	0.108
-168.881	-102.928	0.248	-0.059
-167.866	-79.099	0.292	-0.099
-166.852	787.535	0.188	0.515
-165.837	157.822	0.097	0.134
-164.823	39.864	0.337	0.302
-163.808	800.000	0.020	-0.070
-162.793	555.566	0.057	0.137
-161.779	564.558	0.091	0.221
-160.764	800.000	0.147	0.428
-159.750	162.210	0.074	0.103
-158.735	-200.000	-0.001	0.306
-157.720	326.724	-0.165	0.315
-156.706	25.639	-0.112	0.093
-155.691	800.000	0.030	0.120
-154.677	-68.035	-0.216	0.084
-153.662	19.115	-0.160	0.128
-152.647	800.000	-0.041	-0.122
-151.633	-69.944	0.272	0.103
-150.618	-147.322	0.497	0.042
-149.604	-158.478	0.214	-0.012
-148.589	-200.000	-0.027	0.210
-147.574	-103.748	0.226	-0.053
-146.560	191.151	-0.072	-0.107
-145.545	-29.106	-0.200	0.114
-144.531	800.000	-0.079	0.248
-143.516	800.000	-0.079	-0.219
-142.502	-200.000	0.036	0.187
-141.487	-96.296	-0.163	0.043
-140.472	-36.315	0.267	0.143
-139.458	48.108	-0.195	0.182
-138.443	800.000	-0.156	0.552
-137.429	-5.167	0.140	0.096
-136.414	-20.818	0.120	-0.074
-135.399	-200.000	0.008	-0.104
-134.385	168.166	-0.112	0.159
-133.370	-49.271	0.286	0.136
-132.356	800.000	0.067	0.217
-131.341	-151.581	0.072	0.005
-130.326	96.082	-0.069	0.079
-129.312	-103.042	0.354	0.084
-128.297	-40.269	0.050	0.026
-127.283	130.129	0.204	-0.260
-126.268	582.544	-0.156	-0.380
-125.253	-11.154	0.228	-0.149
-124.239	284.034	0.158	-0.282
-123.224	-157.036	-0.125	-0.008
-122.210	139.986	0.105	0.138
-121.195	-120.487	0.060	0.010
-120.180	-200.000	-0.021	-0.155
-119.166	-200.000	-0.014	0.080
-118.151	-82.135	0.402	0.131
-117.137	-40.863	-0.263	0.136
-116.122	-120.568	0.167	0.028
-115.107	-12.067	-0.122	-0.080
-114.093	-129.685	0.248	0.034
-113.078	-68.988	-0.268	-0.103
-112.064	-107.625	0.249	-0.054
-111.049	-161.071	-0.378	0.020
-110.034	11.907	0.134	-0.102
-109.020	-200.000	-0.023	0.109
-108.005	-78.539	-0.232	0.079
-106.991	574.740	0.099	-0.239
-105.976	-200.000	0.019	-0.092
-104.962	206.325	0.151	0.234
-103.947	-49.342	0.213	-0.101
-102.932	-200.000	-0.015	0.178
-101.918	75.363	0.084	-0.089
-100.903	622.631	0.038	-0.096
-99.889	220.836	0.089	0.142
-98.874	-200.000	-0.056	-0.385
-97.859	-200.000	0.051	-0.345
-96.845	-200.000	-0.059	-0.288
-95.830	-27.474	-0.070	0.040
-94.816	-33.292	0.337	-0.186
-93.801	800.000	-0.027	-0.091
-92.786	-84.948	-0.169	-0.053
-91.772	-45.730	0.206	-0.101
-90.757	-121.032	-0.271	0.045
-89.743	491.445	-0.172	-0.392
-88.728	127.452	0.096	-0.122
-87.713	-129.060	0.246	0.034
-86.699	-122.492	-0.018	0.003
-85.684	-59.657	0.520	-0.222
-84.670	800.000	-0.013	-0.048
-83.655	4.045	0.208	0.151
-82.640	4.329	-0.223	-0.163
-81.626	-135.354	-0.099	0.012
-80.611	5.628	-0.155	0.114
-79.597	800.000	-0.018	-0.074
-78.582	-84.118	-0.205	-0.065
-77.567	-200.000	-0.122	0.537
-76.553	800.000	0.096	0.294
-75.538	-46.602	-0.107	-0.052
-74.524	241.008	-0.080	-0.133
-73.509	142.944	0.165	-0.219
-72.494	-62.058	0.350	-0.145
-71.480	80.914	-0.085	0.091
-70.465	10.832	-0.088	-0.067
-69.451	-157.882	0.132	0.008
-68.436	-80.770	-0.125	0.041
-67.422	-200.000	0.026	0.364
-66.407	100.318	-0.181	0.208
-65.392	46.609	0.312	0.288
-64.378	-130.012	0.224	-0.030
-63.363	-200.000	-0.017	-0.294
-62.349	-200.000	0.037	-0.330
-61.334	-71.472	-0.903	-0.336
-60.319	123.467	0.371	0.463
-59.305	800.000	-0.203	-0.870
-58.290	376.639	0.379	0.769
-57.276	398.026	0.876	1.821
-56.261	-200.000	96.758	572.028
-55.246	621.299	1401.435	3502.541
-54.232	183.056	2616.888	3838.213
-53.217	111.236	2341.265	2802.300
-52.203	40.961	2087.106	1871.367
-51.188	35.947	1999.991	1747.817
-50.173	34.351	1981.767	1717.453
-49.159	48.877	2033.318	1895.109
-48.144	51.744	2052.503	1939.098
-47.130	36.764	2010.474	1764.148
-46.115	34.340	1998.305	1731.414
-45.100	34.207	1995.400	1727.616
-44.086	34.135	1993.793	1725.507
-43.071	33.970	1991.301	1721.788
-42.057	33.977	1988.586	1719.437
-41.042	34.108	1986.464	1718.711
-40.027	34.089	1985.014	1717.216
-39.013	34.116	1982.440	1715.173
-37.998	34.111	1980.777	1713.618
-36.984	34.216	1978.877	1712.849
-35.969	34.156	1977.104	1710.706
-34.954	34.177	1974.874	1708.897
-33.940	34.244	1973.655	1708.376
-32.925	34.124	1972.633	1706.349
-31.911	34.180	1970.462	1704.909
-30.896	34.302	1968.130	1703.910
-29.881	34.200	1967.212	1702.135
-28.867	34.211	1965.895	1701.031
-27.852	34.331	1963.555	1700.005
-26.838	34.313	1961.628	1698.111
-25.823	34.359	1959.192	1696.345
-24.809	34.219	1958.110	1694.092
-23.794	34.309	1956.036	1693.035
-22.779	34.292	1954.395	1691.396
-21.765	34.212	1953.273	1689.647
-20.750	34.262	1951.587	1688.561
-19.736	34.231	1950.126	1686.958
-18.721	34.280	1948.337	1685.777
-17.706	34.235	1946.998	1684.151
-16.692	34.341	1945.310	1683.562
-15.677	34.306	1943.324	1681.469
-14.663	34.331	1942.121	1680.581
-13.648	34.344	1940.711	1679.411
-12.633	34.281	1939.851	1678.041
-11.619	34.270	1938.634	1676.830
-10.604	34.364	1936.881	1676.070
-9.590	34.201	1936.320	1674.084
-8.575	34.282	1934.038	1672.760
-7.560	34.347	1932.683	1672.093
-6.546	34.289	1931.585	1670.567
-5.531	34.322	1930.351	1669.720
-4.517	34.345	1929.584	1669.194
-3.502	34.270	1928.260	1667.329
-2.487	34.312	1926.944	1666.486
-1.473	34.334	1925.767	1665.592
-0.458	34.282	1921.873	1661.709
0.556	33.164	1901.429	1634.365
1.571	28.893	1882.102	1580.976
2.586	24.771	1904.670	1563.839
3.600	23.554	1941.094	1582.758
4.615	23.083	1936.086	1574.342
5.629	18.146	1835.431	1450.589
6.644	9.505	1716.867	1287.912
7.659	5.347	1679.636	1227.285
8.673	5.143	1676.124	1223.012
9.688	5.018	1675.336	1221.345
10.702	5.041	1673.356	1219.978
11.717	4.927	1670.043	1216.565
12.731	5.424	1670.410	1220.603
13.746	11.252	1684.099	1276.237
14.761	18.189	1698.615	1341.730
15.775	19.500	1698.918	1352.123
16.790	18.196	1694.985	1338.674
17.804	17.038	1691.574	1326.812
18.819	16.058	1687.882	1316.152
19.834	15.456	1685.696	1309.635
20.848	15.116	1684.239	1305.738
21.863	14.882	1682.504	1302.454
22.877	14.660	1680.879	1299.353
23.892	14.464	1679.429	1296.596
24.907	14.224	1678.646	1294.009
25.921	14.350	1677.264	1293.813
26.936	14.282	1676.396	1292.494
27.950	14.341	1675.772	1292.363
28.965	14.312	1675.346	1291.690
29.980	14.437	1674.412	1291.826
30.994	14.506	1672.732	1290.950
32.009	14.576	1672.170	1290.943
33.023	14.663	1670.778	1290.426
34.038	14.648	1669.947	1289.558
35.053	14.646	1668.519	1288.324
36.067	14.540	1667.767	1286.811
37.082	14.535	1666.503	1285.682
38.096	14.523	1665.439	1284.658
39.111	14.529	1664.561	1283.910
40.126	14.622	1663.664	1283.819
41.140	14.567	1662.890	1282.686
42.155	14.448	1661.452	1280.554
43.169	14.365	1659.783	1278.513
44.184	14.282	1658.626	1276.876
45.199	14.276	1657.201	1275.613
46.213	14.204	1656.944	1274.752
47.228	14.260	1655.537	1273.990
48.242	14.352	1654.348	1273.662
49.257	14.428	1653.266	1273.296
50.271	14.415	1652.127	1272.207
51.286	14.425	1650.580	1270.979
52.301	14.398	1649.484	1269.823
53.315	14.456	1647.961	1268.977
54.330	14.464	1645.906	1267.347
55.344	14.358	1644.521	1265.361
56.359	14.292	1643.068	1263.625
57.374	14.315	1642.230	1263.045
58.388	14.327	1641.215	1262.247
59.403	14.241	1639.721	1260.335
60.417	14.216	1638.612	1259.180
61.432	14.238	1636.989	1257.991
62.447	14.217	1636.048	1256.994
63.461	14.156	1635.276	1255.831
64.476	14.123	1633.859	1254.383
65.490	14.132	1632.715	1253.461
66.505	14.156	1631.589	1252.669
67.520	14.149	1630.908	1251.978
68.534	14.159	1629.868	1251.148
69.549	14.219	1628.138	1250.156
70.563	14.218	1627.059	1249.209
71.578	14.249	1625.822	1248.384
72.593	14.106	1625.262	1246.771
73.607	14.101	1624.295	1245.882
74.622	14.056	1622.935	1244.390
75.636	14.025	1622.070	1243.387
76.651	14.109	1621.005	1243.087
77.666	14.037	1620.704	1242.209
78.680	14.162	1619.679	1242.249
79.695	14.144	1618.698	1241.249
80.709	14.162	1617.861	1240.633
81.724	14.177	1616.998	1239.972
82.739	14.285	1615.784	1239.738
83.753	14.279	1615.142	1239.085
84.768	14.292	1614.408	1238.514
85.782	14.368	1613.508	1238.274
86.797	14.527	1612.610	1238.660
87.812	14.460	1611.798	1237.428
88.826	14.423	1609.915	1235.599
89.841	14.417	1608.863	1234.636
90.855	14.412	1607.982	1233.814
91.870	14.474	1606.991	1233.408
92.884	14.473	1605.739	1232.325
93.899	14.470	1604.985	1231.621
94.914	14.474	1603.915	1230.714
95.928	14.547	1602.699	1230.215
96.943	14.626	1601.214	1229.551
97.957	14.597	1600.014	1228.304
98.972	14.484	1598.676	1226.337
99.987	14.480	1596.915	1224.850
101.001	14.523	1595.423	1223.910
102.016	14.464	1593.876	1222.186
103.030	14.407	1592.889	1220.900
104.045	14.467	1591.318	1220.031
105.060	14.447	1590.261	1218.962
106.074	14.395	1589.022	1217.525
107.089	14.339	1587.524	1215.858
108.103	14.241	1585.364	1213.389
109.118	14.235	1583.929	1212.137
110.133	14.151	1582.642	1210.434
111.147	14.115	1581.529	1209.214
112.162	14.259	1579.893	1208.903
113.176	14.266	1578.282	1207.610
114.191	14.314	1576.960	1206.842
115.206	14.370	1575.889	1206.318
116.220	14.315	1574.737	1204.937
117.235	14.358	1573.113	1203.891
118.249	14.273	1571.972	1202.305
119.264	14.276	1570.661	1201.215
120.279	14.278	1569.293	1200.078
121.293	14.186	1567.818	1198.179
122.308	14.267	1566.197	1197.417
123.322	14.205	1564.828	1195.821
124.337	14.150	1563.555	1194.346
125.352	14.156	1562.294	1193.318
126.366	14.138	1560.997	1192.095
127.381	14.148	1560.124	1191.394
128.395	14.165	1559.265	1190.756
129.410	14.216	1557.566	1189.715
130.424	14.210	1555.828	1188.242
131.439	14.292	1554.813	1187.945
132.454	14.179	1553.943	1186.368
133.468	14.227	1552.609	1185.590
134.483	14.309	1550.940	1184.791
135.497	14.327	1549.398	1183.639
136.512	14.447	1547.535	1182.959
137.527	14.406	1546.752	1181.969
138.541	14.373	1545.410	1180.600
139.556	14.345	1544.562	1179.652
140.570	14.460	1542.738	1178.966
141.585	14.507	1541.803	1178.482
142.600	14.524	1540.657	1177.621
143.614	14.522	1539.663	1176.747
144.629	14.621	1538.259	1176.264
145.643	14.674	1536.684	1175.330
146.658	14.690	1535.479	1174.418
147.673	14.703	1534.246	1173.460
148.687	14.463	1532.681	1170.473
149.702	14.588	1530.563	1169.632
150.716	14.457	1529.277	1167.630
151.731	14.434	1528.318	1166.633
152.746	14.502	1526.902	1165.925
153.760	14.425	1525.296	1164.057
154.775	14.497	1524.492	1163.841
155.789	14.487	1522.875	1162.436
156.804	14.486	1521.927	1161.598
157.819	14.608	1520.550	1161.296
158.833	14.671	1519.087	1160.514
159.848	14.731	1518.246	1160.186
160.862	14.630	1517.517	1158.822
161.877	14.767	1515.754	1158.324
162.892	14.677	1514.976	1157.003
163.906	14.626	1512.939	1154.994
164.921	14.562	1511.543	1153.385
165.935	14.597	1510.879	1153.017
166.950	14.632	1510.063	1152.533
167.964	14.588	1508.815	1151.176
168.979	14.684	1507.648	1150.845
169.994	14.656	1506.984	1150.041
171.008	14.731	1505.463	1149.294
172.023	14.678	1504.673	1148.225
173.037	14.742	1503.710	1147.832
174.052	14.756	1502.797	1147.127
175.067	14.822	1501.413	1146.420
176.081	14.777	1500.583	1145.379
177.096	14.675	1498.391	1142.908
178.110	14.712	1497.027	1142.020
179.125	14.636	1496.284	1140.832
180.140	14.752	1495.061	1140.592
181.154	14.674	1494.183	1139.289
182.169	14.754	1493.133	1138.930
183.183	14.898	1491.966	1138.923
184.198	14.922	1490.678	1137.998
185.213	14.872	1490.036	1137.069
186.227	14.874	1488.954	1136.158
187.242	14.969	1487.625	1135.690
188.256	14.942	1486.457	1134.508
189.271	14.941	1485.404	1133.601
190.286	14.986	1484.516	1133.130
191.300	14.974	1483.598	1132.244
192.315	14.756	1481.991	1129.442
193.329	14.614	1480.958	1127.598
194.344	14.649	1479.751	1126.815
195.359	14.631	1478.636	1125.748
196.373	14.813	1477.450	1125.968
197.388	14.823	1476.724	1125.383
198.402	14.939	1475.576	1125.188
199.417	14.927	1474.843	1124.452
200.432	15.079	1473.521	1124.364
201.446	15.145	1472.819	1124.170
202.461	15.193	1471.735	1123.568
203.475	15.318	1470.114	1123.064
204.490	15.314	1469.332	1122.341
205.504	15.232	1468.725	1121.230
206.519	15.138	1467.368	1119.468
207.534	15.162	1465.812	1118.343
208.548	15.088	1465.100	1117.208
209.563	15.011	1464.261	1115.955
210.577	15.154	1463.010	1115.856
211.592	15.077	1462.466	1114.826
212.607	15.161	1461.392	1114.471
213.621	15.218	1461.095	1114.526
214.636	15.275	1459.875	1113.874
215.650	15.387	1458.521	1113.487
216.665	15.337	1458.105	1112.741
217.680	15.327	1456.801	1111.581
218.694	15.358	1456.138	1111.175
219.709	15.416	1455.475	1110.960
220.723	15.379	1454.497	1109.869
221.738	15.325	1453.623	1108.749
222.753	15.402	1452.456	1108.267
223.767	15.387	1451.579	1107.398
224.782	15.365	1450.788	1106.557
225.796	15.407	1450.007	1106.139
226.811	15.513	1449.066	1106.020
227.826	15.483	1448.530	1105.314
228.840	15.450	1447.669	1104.344
229.855	15.464	1446.220	1103.235
230.869	15.492	1445.135	1102.492
231.884	15.412	1444.096	1101.073
232.899	15.360	1443.249	1099.993
233.913	15.454	1441.627	1099.273
234.928	15.388	1440.574	1097.942
235.942	15.363	1439.485	1096.854
236.957	15.381	1438.164	1095.866
237.972	15.289	1437.345	1094.544
238.986	15.325	1436.294	1093.884
240.001	15.379	1435.219	1093.319
241.015	15.426	1434.228	1092.773
242.030	15.503	1432.600	1091.937
243.045	15.520	1432.315	1091.730
244.059	15.591	1430.931	1091.041
245.074	15.524	1430.514	1090.194
246.088	15.555	1429.842	1089.785
247.103	15.521	1429.274	1089.039
248.117	15.566	1428.168	1088.386
249.132	15.750	1426.959	1088.559
250.147	15.732	1426.730	1088.177
251.161	15.899	1426.074	1088.657
252.176	16.019	1425.281	1088.733
253.190	15.973	1424.660	1087.865
254.205	16.008	1423.978	1087.475
255.220	16.108	1422.891	1087.190
256.234	16.020	1422.421	1086.169
257.249	16.030	1421.493	1085.425
258.263	16.121	1420.466	1085.130
259.278	16.128	1419.175	1084.094
260.293	16.108	1418.291	1083.193
261.307	16.028	1418.071	1082.416
262.322	16.195	1417.138	1082.682
263.336	16.150	1416.592	1081.880
264.351	16.256	1414.948	1081.209
265.366	16.155	1414.091	1079.811
266.380	16.230	1413.196	1079.509
267.395	16.209	1412.370	1078.651
268.409	16.320	1411.356	1078.492
269.424	16.280	1410.411	1077.421
270.439	16.143	1409.650	1075.867
271.453	16.163	1408.620	1075.112
272.468	16.203	1407.308	1074.270
273.482	16.166	1406.992	1073.697
274.497	16.112	1405.770	1072.328
275.512	16.173	1405.231	1072.211
276.526	16.134	1404.408	1071.238
277.541	16.181	1403.086	1070.435
278.555	16.330	1401.809	1070.310
279.570	16.276	1401.382	1069.548
280.585	16.300	1400.247	1068.741
281.599	16.443	1399.395	1068.896
282.614	16.418	1398.753	1068.158
283.628	16.395	1397.446	1066.917
284.643	16.354	1396.292	1065.683
285.657	16.353	1395.414	1064.911
286.672	16.344	1394.818	1064.304
287.687	16.320	1393.531	1063.078
288.701	16.367	1392.436	1062.446
289.716	16.488	1391.654	1062.515
290.730	16.405	1391.094	1061.474
291.745	16.406	1389.888	1060.467
292.760	16.418	1389.004	1059.769
293.774	16.456	1388.091	1059.221
294.789	16.497	1386.902	1058.474
295.803	16.525	1386.601	1058.326
296.818	16.523	1385.814	1057.617
297.833	16.549	1384.562	1056.735
298.847	16.416	1383.669	1055.128
299.862	16.317	1383.002	1053.909
300.876	16.429	1382.041	1053.780
301.891	16.462	1380.853	1052.987
302.906	16.636	1379.835	1053.199
303.920	16.698	1378.795	1052.698
304.935	16.752	1378.428	1052.662
305.949	16.717	1377.865	1051.923
306.964	16.786	1376.810	1051.449
307.979	16.867	1375.934	1051.190
308.993	16.774	1374.753	1049.623
310.008	16.775	1374.512	1049.352
311.022	16.760	1373.042	1048.043
312.037	16.851	1372.217	1047.884
313.052	16.837	1371.098	1046.851
314.066	16.881	1369.875	1046.095
315.081	16.737	1369.151	1044.558
316.095	16.696	1368.104	1043.415
317.110	16.640	1367.230	1042.311
318.125	16.675	1366.022	1041.517
319.139	16.712	1365.364	1041.146
320.154	16.759	1364.370	1040.585
321.168	16.728	1362.945	1039.219
322.183	16.761	1362.075	1038.663
323.197	16.823	1361.067	1038.184
324.212	16.819	1360.451	1037.598
325.227	16.736	1359.614	1036.357
326.241	16.854	1358.803	1036.369
327.256	16.742	1358.141	1035.090
328.270	16.841	1356.805	1034.583
329.285	16.721	1356.440	1033.481
330.300	16.828	1355.440	1033.283
331.314	16.865	1354.311	1032.557
332.329	16.805	1353.631	1031.582
333.343	16.911	1352.545	1031.305
334.358	16.894	1351.802	1030.545
335.373	16.849	1351.323	1029.815
336.387	16.981	1350.240	1029.699
337.402	17.064	1349.262	1029.365
338.416	17.056	1348.799	1028.870
339.431	17.093	1347.819	1028.258
340.446	17.157	1347.127	1028.025
341.460	17.178	1346.449	1027.547
342.475	17.161	1345.308	1026.483
343.489	17.272	1344.484	1026.433
344.504	17.293	1343.249	1025.522
345.519	17.225	1342.760	1024.651
346.533	17.293	1341.670	1024.135
347.548	17.317	1341.027	1023.704
348.562	17.383	1340.429	1023.553
349.577	17.392	1339.207	1022.582
350.592	17.397	1338.565	1022.029
351.606	17.258	1337.701	1020.446
352.621	17.290	1336.116	1019.336
353.635	17.245	1335.005	1018.130
354.650	17.184	1334.623	1017.382
355.665	17.311	1332.822	1016.681
356.679	17.118	1332.392	1015.112
357.694	17.219	1331.187	1014.705
358.708	17.181	1330.135	1013.584
359.723	17.310	1329.556	1013.827
360.738	17.400	1327.814	1012.941
361.752	17.377	1327.066	1012.144
362.767	17.384	1326.147	1011.399
363.781	17.377	1325.598	1010.847
364.796	17.415	1324.180	1009.902
365.810	17.458	1323.633	1009.651
366.825	17.538	1322.785	1009.390
367.840	17.572	1322.578	1009.340
368.854	17.574	1322.093	1008.895
369.869	17.619	1321.710	1008.781
370.883	17.715	1320.584	1008.401
371.898	17.694	1319.858	1007.633
372.913	17.585	1319.396	1006.543
373.927	17.597	1317.868	1005.360
374.942	17.567	1317.434	1004.763
375.956	17.629	1316.696	1004.478
376.971	17.704	1315.685	1004.058
377.986	17.738	1315.067	1003.701
379.000	17.779	1313.734	1002.836
380.015	17.798	1312.811	1002.154
381.029	17.833	1312.354	1001.919
382.044	17.907	1311.808	1001.848
383.059	17.941	1311.034	1001.370
384.073	17.965	1309.838	1000.510
385.088	17.905	1309.599	999.887
386.102	17.964	1308.765	999.508
387.117	17.955	1308.038	998.812
388.132	17.994	1307.082	998.217
389.146	17.784	1306.716	996.621
390.161	17.899	1305.373	996.183
391.175	17.900	1305.161	995.940
392.190	17.794	1304.016	994.356
393.205	17.902	1303.053	994.163
394.219	17.935	1302.290	993.685
395.234	17.964	1301.211	992.945
396.248	17.993	1299.494	991.713
397.263	17.954	1298.400	990.565
398.278	17.928	1296.961	989.230
399.292	17.868	1295.901	987.989
400.307	17.876	1294.587	986.943
401.321	17.835	1293.625	985.889
402.336	17.837	1292.550	984.990
403.350	17.819	1292.075	984.437
404.365	17.920	1291.033	984.143
405.380	17.905	1290.110	983.262
406.394	17.931	1289.634	982.963
407.409	17.944	1288.677	982.220
408.423	17.899	1288.667	981.868
409.438	18.119	1287.131	981.871
410.453	18.183	1286.277	981.506
411.467	18.289	1285.575	981.488
412.482	18.245	1285.140	980.815
413.496	18.297	1284.636	980.642
414.511	18.297	1283.822	979.937
415.526	18.350	1282.922	979.462
416.540	18.372	1282.225	978.970
417.555	18.399	1281.860	978.760
418.569	18.365	1281.141	977.933
419.584	18.481	1280.534	978.040
420.599	18.347	1280.007	976.788
421.613	137.685	1431.232	1790.649
422.628	132.609	1453.221	1790.741
