DTS Sentinel unit serial number:	SN413079Multiplexer serial number:	ORYXHardware model number:	OX4-SRSoftware version number:	ORYX F/W v4.00 Oryx Data Collector v3.7.2.0data status	okinstallation	princeton_trtdifferential loss correction	single-endedforward channel	channel 4reverse channel	N/Adate	2019/09/13time	17:37:35forward acquisition time	60.00reverse acquisition time	0.00gamma	496.2192k internal	0.2295k external	0.2295temperature offset calibration	1.0215default loss term (dB/km)	0.3790temperature slope calibration	1.0000multiplexer offset coefficient	1.0000multiplexer slope coefficient	1.0000fibre end	0.00T internal ref (°C)	35.94T ext. ref 1 (°C)	5.39T ext. ref 2 (°C)	29.16length (m)	temperature (°C)	Stokes	anti-Stokes-747.200	118.990	-0.029	0.036
-746.185	584.602	0.050	0.125
-745.171	105.393	-0.144	0.174
-744.156	97.386	0.111	-0.130
-743.142	-109.375	-0.056	-0.012
-742.127	144.153	0.300	0.409
-741.112	57.540	-0.076	0.076
-740.098	-20.626	0.198	0.124
-739.083	-200.000	0.051	0.274
-738.069	-62.041	-0.241	0.103
-737.054	55.594	0.251	0.249
-736.039	119.671	-0.154	-0.194
-735.025	203.630	-0.100	0.157
-734.010	33.038	-0.117	-0.104
-732.996	-101.052	0.247	0.062
-731.981	97.505	0.113	0.133
-730.966	-84.163	-0.107	-0.035
-729.952	-46.760	-0.102	-0.051
-728.937	-16.547	-0.195	-0.126
-727.923	132.982	0.118	0.156
-726.908	12.768	0.156	0.123
-725.894	-69.105	0.081	-0.032
-724.879	17.059	-0.265	0.215
-723.864	4.816	-0.078	-0.058
-722.850	-39.566	-0.250	0.134
-721.835	38.371	0.112	0.102
-720.821	-165.044	-0.115	-0.005
-719.806	-115.954	0.401	0.076
-718.791	707.336	0.018	-0.048
-717.777	34.082	-0.162	-0.144
-716.762	800.000	-0.092	0.278
-715.748	162.563	-0.161	-0.231
-714.733	-105.969	-0.268	-0.062
-713.718	355.496	0.149	-0.302
-712.704	-200.000	-0.010	-0.616
-711.689	800.000	0.112	-0.449
-710.675	135.804	-0.092	0.123
-709.660	800.000	0.096	0.331
-708.645	-42.727	-0.148	0.077
-707.631	500.076	-0.058	-0.136
-706.616	-91.402	-0.238	0.069
-705.602	-131.643	0.303	-0.041
-704.587	98.277	-0.164	0.193
-703.572	53.486	0.166	-0.163
-702.558	60.075	0.181	0.182
-701.543	-115.417	0.338	-0.065
-700.529	31.385	-0.227	-0.199
-699.514	-60.630	-0.132	0.057
-698.499	314.377	-0.043	-0.083
-697.485	800.000	0.033	-0.145
-696.470	237.726	0.166	0.281
-695.456	488.033	0.165	0.385
-694.441	201.417	0.039	0.061
-693.426	80.780	-0.279	-0.307
-692.412	-101.619	0.096	0.024
-691.397	-12.350	0.121	-0.081
-690.383	130.895	-0.177	-0.231
-689.368	-2.664	0.061	0.043
-688.354	-30.904	0.165	-0.095
-687.339	593.030	-0.039	0.098
-686.324	123.271	-0.140	0.179
-685.310	-98.683	0.206	-0.053
-684.295	51.921	-0.333	-0.324
-683.281	-200.000	-0.004	-0.164
-682.266	-200.000	-0.199	-0.001
-681.251	-200.000	-0.001	0.092
-680.237	-200.000	0.019	0.381
-679.222	-88.054	0.408	-0.125
-678.208	128.006	-0.156	0.202
-677.193	-142.278	0.186	-0.019
-676.178	-99.470	-0.504	-0.129
-675.164	-200.000	0.009	-0.205
-674.149	-66.966	-0.050	0.020
-673.135	548.040	-0.056	0.136
-672.120	14.604	-0.084	0.067
-671.105	-55.914	-0.179	0.081
-670.091	296.102	0.097	-0.182
-669.076	-38.524	-0.573	-0.309
-668.062	-153.453	-0.153	0.011
-667.047	800.000	-0.053	0.219
-666.032	800.000	-0.045	-0.179
-665.018	767.720	-0.036	-0.100
-664.003	-200.000	0.033	-0.207
-662.989	381.707	-0.236	0.494
-661.974	51.741	-0.138	0.134
-660.959	-104.057	0.231	0.055
-659.945	-3.366	0.344	-0.244
-658.930	19.997	0.096	-0.079
-657.916	-200.000	0.017	0.182
-656.901	-138.907	0.273	-0.030
-655.886	-200.000	0.020	-0.104
-654.872	-14.911	0.175	0.114
-653.857	147.613	-0.207	-0.285
-652.843	-164.178	-0.373	0.018
-651.828	138.366	-0.088	-0.118
-650.814	204.467	0.111	-0.175
-649.799	800.000	0.018	-0.065
-648.784	265.822	0.012	-0.022
-647.770	-56.214	0.258	0.117
-646.755	-48.939	-0.250	0.122
-645.741	-94.824	-0.329	-0.091
-644.726	-72.305	-0.207	-0.078
-643.711	84.795	-0.112	0.125
-642.697	-116.878	-0.113	0.021
-641.682	-157.791	0.115	0.007
-640.668	9.561	-0.136	-0.105
-639.653	-1.912	-0.229	-0.164
-638.638	28.199	-0.106	0.091
-637.624	-74.296	0.224	-0.082
-636.609	177.901	-0.160	-0.237
-635.595	297.724	-0.147	-0.275
-634.580	-58.494	-0.286	0.126
-633.565	58.229	0.155	0.154
-632.551	-61.254	-0.204	-0.087
-631.536	-103.499	-0.236	-0.056
-630.522	800.000	-0.050	0.208
-629.507	73.074	-0.097	-0.103
-628.492	800.000	0.039	0.160
-627.478	-200.000	-0.044	0.214
-626.463	-98.858	-0.248	0.064
-625.449	-40.284	-0.203	0.107
-624.434	61.796	-0.104	-0.106
-623.419	-17.353	-0.091	-0.058
-622.405	372.240	0.102	-0.211
-621.390	-200.000	0.015	-0.077
-620.376	-37.182	0.248	0.135
-619.361	460.439	-0.192	0.434
-618.346	-70.745	-0.060	0.023
-617.332	29.458	0.157	0.136
-616.317	-150.662	0.179	-0.014
-615.303	-168.852	0.112	0.004
-614.288	-105.611	0.250	-0.058
-613.273	1.706	-0.117	-0.086
-612.259	358.777	0.194	-0.395
-611.244	-29.239	-0.163	-0.095
-610.230	-125.700	-0.112	0.017
-609.215	16.691	-0.299	-0.241
-608.201	-69.389	0.236	-0.092
-607.186	-14.549	-0.214	-0.140
-606.171	592.741	-0.146	-0.365
-605.157	-96.970	0.429	0.114
-604.142	-67.141	-0.200	-0.080
-603.128	-200.000	-0.000	0.135
-602.113	-122.014	0.381	-0.064
-601.098	-111.449	0.277	-0.057
-600.084	463.935	-0.185	-0.419
-599.069	26.534	0.116	-0.099
-598.055	95.613	0.124	0.144
-597.040	-96.511	0.087	-0.023
-596.025	-200.000	-0.027	0.465
-595.011	274.934	0.131	0.236
-593.996	-99.675	0.203	0.052
-592.982	-97.594	0.117	0.031
-591.967	179.823	0.021	0.031
-590.952	-41.186	0.176	0.092
-589.938	800.000	0.137	-0.396
-588.923	24.565	-0.222	-0.187
-587.909	-200.000	-0.001	-0.132
-586.894	335.881	-0.101	-0.199
-585.879	-71.131	-0.269	0.103
-584.865	766.369	-0.188	0.518
-583.850	93.174	0.202	-0.232
-582.836	-200.000	-0.017	-0.157
-581.821	-41.555	0.226	-0.118
-580.806	-200.000	-0.001	-0.210
-579.792	11.778	-0.077	0.060
-578.777	-78.885	-0.094	0.033
-577.763	800.000	-0.030	-0.094
-576.748	800.000	-0.067	-0.208
-575.733	-120.161	-0.191	-0.033
-574.719	-163.419	-0.377	0.018
-573.704	43.780	0.150	0.139
-572.690	800.000	-0.130	-0.391
-571.675	800.000	-0.043	-0.148
-570.661	93.679	0.273	-0.315
-569.646	-96.688	0.255	0.068
-568.631	-200.000	-0.004	0.101
-567.617	-0.196	0.100	0.073
-566.602	180.342	-0.097	-0.145
-565.588	51.369	-0.085	-0.082
-564.573	-200.000	0.008	0.173
-563.558	-141.488	0.284	0.029
-562.544	-126.295	0.250	-0.038
-561.529	75.114	-0.191	0.205
-560.515	-200.000	0.008	0.252
-559.500	-200.000	-0.007	-0.059
-558.485	287.157	-0.097	0.177
-557.471	-13.998	-0.310	-0.203
-556.456	-200.000	0.021	-0.146
-555.442	172.366	-0.106	-0.155
-554.427	-26.758	-0.225	-0.134
-553.412	45.145	0.128	0.120
-552.398	175.777	-0.085	-0.125
-551.383	-200.000	-0.060	-0.325
-550.369	-87.093	0.116	0.036
-549.354	496.967	0.119	-0.277
-548.339	263.357	0.170	0.300
-547.325	-59.038	0.198	-0.087
-546.310	-111.108	-0.255	0.053
-545.296	517.821	-0.023	-0.054
-544.281	85.704	-0.296	-0.331
-543.266	-56.112	-0.070	-0.032
-542.252	649.763	-0.062	-0.160
-541.237	-35.563	-0.214	-0.118
-540.223	-115.324	0.172	0.033
-539.208	79.340	0.095	0.103
-538.193	138.593	-0.061	0.082
-537.179	125.328	0.196	-0.250
-536.164	800.000	-0.020	-0.066
-535.150	123.305	-0.108	-0.137
-534.135	219.661	0.148	-0.241
-533.121	424.545	-0.093	0.203
-532.106	-26.401	-0.140	-0.083
-531.091	35.256	0.236	-0.209
-530.077	110.294	0.166	-0.202
-529.062	-188.096	-0.357	0.005
-528.048	-121.047	-0.089	-0.015
-527.033	-113.137	-0.172	0.034
-526.018	-16.609	0.521	-0.335
-525.004	-112.811	0.217	0.044
-523.989	-99.589	-0.361	-0.092
-522.975	-200.000	0.248	-0.000
-521.960	0.156	0.193	0.139
-520.945	555.689	0.069	-0.169
-519.931	-78.137	-0.286	0.100
-518.916	256.445	-0.042	-0.073
-517.902	-3.728	0.077	-0.054
-516.887	637.945	0.087	0.224
-515.872	-169.087	-0.142	-0.005
-514.858	-103.817	-0.030	-0.007
-513.843	-200.000	-0.007	-0.250
-512.829	-28.332	-0.174	0.102
-511.814	-200.000	0.038	-0.181
-510.799	-85.489	-0.248	-0.078
-509.785	527.320	0.046	-0.110
-508.770	-20.005	0.361	0.226
-507.756	-200.000	-0.007	0.161
-506.741	146.990	-0.189	-0.257
-505.726	-78.527	0.255	0.088
-504.712	-67.528	-0.119	-0.047
-503.697	800.000	-0.055	0.171
-502.683	47.272	-0.283	0.267
-501.668	-200.000	0.066	-0.297
-500.653	93.845	0.155	-0.178
-499.639	-37.219	-0.215	0.116
-498.624	-51.235	-0.217	-0.103
-497.610	-158.041	-0.132	-0.008
-496.595	-138.605	-0.103	0.011
-495.581	4.602	0.191	0.142
-494.566	78.581	-0.116	0.125
-493.551	426.802	-0.077	0.168
-492.537	-200.000	0.000	0.199
-491.522	800.000	0.021	0.061
-490.508	679.693	-0.086	-0.226
-489.493	18.339	0.407	0.329
-488.478	-57.246	0.161	-0.072
-487.464	29.265	-0.209	-0.180
-486.449	128.229	-0.124	-0.160
-485.435	-200.000	-0.058	-0.412
-484.420	48.469	0.131	0.124
-483.405	-18.115	0.292	-0.185
-482.391	192.663	0.083	0.126
-481.376	79.698	0.159	-0.173
-480.362	800.000	0.023	0.090
-479.347	-37.768	-0.213	0.115
-478.332	263.981	-0.131	-0.231
-477.318	-200.000	0.005	0.673
-476.303	-175.810	-0.168	-0.005
-475.289	-200.000	0.015	0.071
-474.274	800.000	0.023	0.084
-473.259	608.221	-0.133	-0.337
-472.245	800.000	-0.045	0.186
-471.230	-31.340	0.016	0.009
-470.216	-14.965	0.267	0.173
-469.201	800.000	-0.033	-0.127
-468.186	800.000	0.050	-0.194
-467.172	-53.730	0.211	-0.097
-466.157	800.000	0.114	0.347
-465.143	-148.644	-0.121	-0.010
-464.128	-200.000	-0.002	0.168
-463.113	-35.456	-0.134	0.074
-462.099	23.328	-0.146	0.122
-461.084	602.449	0.046	-0.116
-460.070	31.427	0.157	-0.136
-459.055	-87.017	0.175	-0.054
-458.040	-93.908	-0.191	0.053
-457.026	226.533	0.254	-0.417
-456.011	6.392	0.267	-0.201
-454.997	-74.774	-0.278	-0.101
-453.982	-38.743	0.170	0.091
-452.968	-136.955	-0.462	-0.054
-451.953	-82.467	-0.201	-0.066
-450.938	-200.000	0.030	0.224
-449.924	-83.638	-0.190	-0.061
-448.909	704.574	-0.058	0.156
-447.895	254.929	-0.062	0.108
-446.880	-200.000	0.153	-0.000
-445.865	-69.405	-0.168	0.065
-444.851	64.025	-0.320	-0.325
-443.836	800.000	-0.109	-0.368
-442.822	-86.403	-0.327	-0.101
-441.807	-200.000	0.044	0.220
-440.792	800.000	-0.084	-0.315
-439.778	-175.948	0.175	-0.005
-438.763	-81.091	0.205	0.069
-437.749	-8.994	0.145	-0.098
-436.734	-200.000	0.005	0.074
-435.719	38.548	-0.191	0.172
-434.705	-200.000	0.009	0.151
-433.690	117.807	0.062	-0.077
-432.676	-11.798	-0.143	-0.095
-431.661	-200.000	-0.030	-0.204
-430.646	-79.175	-0.170	0.058
-429.632	-200.000	-0.015	-0.358
-428.617	-200.000	-0.006	0.178
-427.603	800.000	-0.096	0.366
-426.588	82.270	0.327	0.358
-425.573	-1.056	-0.155	-0.111
-424.559	-200.000	-0.027	0.225
-423.544	800.000	-0.070	-0.217
-422.530	-7.801	-0.204	0.139
-421.515	-200.000	-0.019	-0.130
-420.500	-104.749	-0.324	0.075
-419.486	378.746	0.148	-0.306
-418.471	-200.000	-0.030	0.346
-417.457	48.895	-0.097	-0.092
-416.442	-116.295	0.311	0.058
-415.428	508.217	0.110	-0.258
-414.413	37.434	0.106	0.095
-413.398	800.000	0.033	0.121
-412.384	-23.063	0.183	-0.112
-411.369	-67.708	0.155	-0.061
-410.355	-103.586	-0.619	0.147
-409.340	11.738	-0.057	-0.044
-408.325	120.215	-0.226	-0.283
-407.311	208.936	0.175	0.277
-406.296	-200.000	-0.002	-0.136
-405.282	394.424	0.162	0.341
-404.267	-123.590	-0.169	-0.027
-403.252	-200.000	0.030	-0.143
-402.238	29.331	-0.195	-0.167
-401.223	159.676	-0.242	-0.340
-400.209	65.498	-0.076	-0.077
-399.194	123.266	0.144	0.182
-398.179	659.496	0.053	0.136
-397.165	-39.307	-0.246	-0.130
-396.150	800.000	0.032	0.128
-395.136	-137.177	-0.197	0.023
-394.121	101.822	-0.161	-0.190
-393.106	800.000	-0.066	-0.230
-392.092	-181.752	-0.259	0.005
-391.077	173.111	0.041	-0.060
-390.063	45.195	0.147	-0.137
-389.048	710.876	-0.025	0.067
-388.033	-48.627	0.239	-0.116
-387.019	-59.017	-0.121	-0.053
-386.004	145.175	-0.160	0.215
-384.990	-200.000	0.005	-0.204
-383.975	204.716	0.070	0.109
-382.960	221.021	-0.183	-0.296
-381.946	393.744	-0.091	-0.190
-380.931	76.018	-0.306	-0.326
-379.917	-200.000	0.003	-0.222
-378.902	-200.000	-0.006	-0.062
-377.888	582.490	-0.056	0.138
-376.873	707.418	-0.041	-0.108
-375.858	121.642	0.082	-0.103
-374.844	-200.000	-0.001	-0.154
-373.829	580.979	0.095	0.233
-372.815	256.649	0.143	0.247
-371.800	488.806	-0.027	-0.062
-370.785	800.000	0.038	0.126
-369.771	97.950	0.251	0.291
-368.756	-116.365	0.087	0.016
-367.742	-77.193	0.344	0.121
-366.727	-144.921	-0.309	-0.028
-365.712	-145.332	0.044	0.004
-364.698	800.000	0.025	-0.109
-363.683	-17.875	0.187	0.118
-362.669	-4.469	0.263	0.183
-361.654	260.352	-0.132	0.229
-360.639	-200.000	0.019	0.132
-359.625	80.842	-0.058	-0.063
-358.610	20.912	-0.070	-0.057
-357.596	800.000	-0.122	-0.478
-356.581	-177.196	0.156	0.004
-355.566	373.034	-0.149	0.305
-354.552	319.206	-0.098	0.187
-353.537	-74.791	0.076	0.027
-352.523	-200.000	0.070	0.407
-351.508	269.149	0.169	-0.299
-350.493	115.191	0.124	-0.153
-349.479	-200.000	0.001	-0.126
-348.464	-200.000	-0.296	-0.001
-347.450	-200.000	0.035	-0.158
-346.435	-42.105	0.256	0.132
-345.420	41.978	-0.293	0.267
-344.406	7.627	-0.316	0.238
-343.391	-18.760	0.195	0.122
-342.377	-46.163	0.079	0.039
-341.362	-106.940	-0.302	0.067
-340.348	-142.350	-0.355	-0.035
-339.333	-164.563	0.176	-0.008
-338.318	-27.375	0.182	0.107
-337.304	218.088	-0.073	0.118
-336.289	-37.853	0.303	0.162
-335.275	-113.185	-0.174	-0.034
-334.260	-86.983	0.184	0.057
-333.245	411.224	-0.162	-0.346
-332.231	721.445	0.029	0.076
-331.216	-71.830	0.182	-0.068
-330.202	-200.000	-0.005	-0.389
-329.187	-50.770	0.150	-0.071
-328.172	-45.153	0.005	0.002
-327.158	227.949	0.198	0.323
-326.143	-25.401	-0.211	0.125
-325.129	-176.616	-0.074	0.002
-324.114	-90.980	0.093	0.027
-323.099	800.000	-0.092	-0.269
-322.085	-86.042	0.220	-0.068
-321.070	-118.724	0.115	0.020
-320.056	408.676	-0.068	0.145
-319.041	216.640	0.226	-0.362
-318.026	-121.693	0.249	-0.041
-317.012	-200.000	0.006	-0.129
-315.997	107.887	-0.134	0.160
-314.983	577.750	-0.049	-0.119
-313.968	-126.183	-0.188	-0.028
-312.953	5.512	-0.025	0.018
-311.939	-200.000	0.013	0.137
-310.924	192.762	-0.044	-0.067
-309.910	-0.662	0.050	0.036
-308.895	479.713	0.095	-0.216
-307.880	73.721	-0.095	0.100
-306.866	-64.499	0.089	0.036
-305.851	39.262	0.239	0.215
-304.837	-108.374	0.030	0.007
-303.822	-29.281	-0.119	0.069
-302.807	1.032	0.241	0.174
-301.793	85.686	-0.219	0.242
-300.778	208.065	-0.201	-0.316
-299.764	-200.000	0.016	0.116
-298.749	-200.000	0.041	0.632
-297.735	-45.641	-0.215	0.107
-296.720	-200.000	-0.099	0.464
-295.705	-80.568	-0.229	-0.077
-294.691	-126.880	-0.197	-0.029
-293.676	-113.419	-0.106	0.021
-292.662	663.337	-0.102	-0.265
-291.647	-111.007	0.224	-0.046
-290.632	35.508	0.153	0.135
-289.618	5.475	0.150	0.111
-288.603	64.464	0.132	0.133
-287.589	9.291	-0.092	0.070
-286.574	-94.835	0.203	0.055
-285.559	-139.226	0.350	0.038
-284.545	80.589	-0.015	0.016
-283.530	407.032	-0.146	0.309
-282.516	166.732	0.305	0.434
-281.501	401.277	0.128	-0.270
-280.486	-25.137	-0.073	-0.044
-279.472	-111.082	0.126	0.026
-278.457	12.222	0.287	0.222
-277.443	285.432	-0.023	-0.041
-276.428	-25.087	-0.089	0.053
-275.413	-200.000	0.010	0.085
-274.399	621.827	0.105	-0.265
-273.384	24.506	-0.197	-0.164
-272.370	-124.767	0.239	0.037
-271.355	114.792	0.176	-0.215
-270.340	2.199	0.246	-0.178
-269.326	-5.471	-0.164	0.113
-268.311	72.534	0.069	0.072
-267.297	-200.000	-0.006	0.180
-266.282	74.152	-0.091	-0.096
-265.267	166.509	0.133	-0.189
-264.253	54.422	-0.223	0.215
-263.238	-80.652	0.376	0.125
-262.224	738.924	-0.032	-0.085
-261.209	-200.000	0.064	-0.317
-260.195	141.778	-0.042	0.056
-259.180	-124.233	-0.213	0.033
-258.165	262.077	-0.156	0.272
-257.151	-94.740	0.341	0.093
-256.136	122.206	-0.132	0.166
-255.122	-200.000	-0.075	-0.366
-254.107	308.069	0.103	-0.193
-253.092	32.407	0.229	0.199
-252.078	-78.578	-0.293	-0.101
-251.063	370.092	-0.026	0.053
-250.049	-129.311	0.090	0.013
-249.034	379.021	-0.117	0.240
-248.019	800.000	0.156	0.521
-247.005	261.112	0.094	0.163
-245.990	800.000	0.056	-0.156
-244.976	-200.000	-0.055	0.262
-243.961	151.033	0.115	0.157
-242.946	-63.411	0.229	0.094
-241.932	269.266	-0.202	-0.355
-240.917	41.054	0.182	0.164
-239.903	-200.000	0.012	-0.064
-238.888	-156.792	0.061	0.004
-237.873	29.768	0.108	0.092
-236.859	299.622	0.149	-0.275
-235.844	-200.000	0.036	0.197
-234.830	-40.561	0.227	-0.118
-233.815	-154.258	-0.230	0.016
-232.800	800.000	0.081	0.296
-231.786	-60.801	0.229	-0.097
-230.771	800.000	0.074	0.254
-229.757	68.080	-0.074	-0.076
-228.742	-27.409	-0.208	-0.121
-227.727	741.902	-0.037	0.101
-226.713	-71.137	0.212	-0.080
-225.698	16.007	-0.072	0.057
-224.684	271.006	-0.054	0.096
-223.669	-200.000	0.033	0.341
-222.655	-200.000	0.005	-0.061
-221.640	-8.062	-0.264	0.178
-220.625	800.000	0.123	0.393
-219.611	48.489	0.214	0.201
-218.596	-98.103	0.040	-0.010
-217.582	-110.307	0.058	-0.012
-216.567	53.413	0.297	0.285
-215.552	800.000	-0.034	-0.136
-214.538	-200.000	0.009	0.082
-213.523	305.209	-0.035	-0.065
-212.509	-34.021	-0.332	0.183
-211.494	-200.000	0.013	0.203
-210.479	-43.427	-0.104	0.053
-209.465	800.000	-0.061	0.213
-208.450	-200.000	-0.026	0.383
-207.436	-200.000	-0.012	0.287
-206.421	-18.479	0.149	-0.093
-205.406	800.000	0.024	0.093
-204.392	-114.392	-0.203	0.039
-203.377	-165.791	0.099	0.004
-202.363	-100.667	-0.266	0.066
-201.348	-75.732	-0.171	0.061
-200.333	800.000	-0.132	-0.432
-199.319	66.718	0.126	0.129
-198.304	-9.527	0.116	0.077
-197.290	-37.963	0.084	-0.045
-196.275	-49.017	-0.186	0.089
-195.260	254.342	0.054	-0.092
-194.246	-60.523	-0.276	0.117
-193.231	800.000	0.071	-0.275
-192.217	-123.958	0.164	0.026
-191.202	-200.000	0.007	-0.071
-190.187	35.115	0.219	-0.192
-189.173	800.000	0.062	0.258
-188.158	13.280	-0.139	0.108
-187.144	-200.000	0.057	0.317
-186.129	-200.000	0.054	0.524
-185.114	40.537	0.289	-0.260
-184.100	-200.000	-0.018	-0.083
-183.085	-163.161	-0.290	-0.014
-182.071	-72.937	0.215	0.079
-181.056	-64.872	0.103	0.042
-180.042	-129.306	0.173	0.024
-179.027	369.194	0.034	-0.068
-178.012	-60.303	0.227	-0.097
-176.998	-23.680	-0.185	0.111
-175.983	141.076	0.192	-0.253
-174.969	2.647	0.371	-0.269
-173.954	800.000	-0.095	-0.327
-172.939	3.126	0.052	0.038
-171.925	800.000	-0.065	0.215
-170.910	71.241	0.035	-0.036
-169.896	-132.702	0.394	-0.050
-168.881	-142.948	0.195	-0.019
-167.866	-200.000	-0.001	-0.473
-166.852	-200.000	-0.022	-0.183
-165.837	269.129	0.119	0.209
-164.823	-93.882	-0.118	0.032
-163.808	-71.324	0.138	0.052
-162.793	172.519	0.068	-0.098
-161.779	-36.326	-0.123	-0.066
-160.764	-200.000	0.003	0.030
-159.750	-163.588	-0.083	0.004
-158.735	-163.062	0.381	0.018
-157.720	128.727	-0.146	-0.186
-156.706	561.022	-0.022	0.052
-155.691	-81.156	-0.255	0.084
-154.677	-157.942	0.254	-0.015
-153.662	160.717	0.077	0.108
-152.647	336.674	0.146	-0.284
-151.633	81.365	-0.332	0.359
-150.618	-182.632	-0.194	0.004
-149.604	800.000	-0.120	-0.383
-148.589	-27.164	-0.272	-0.158
-147.574	-47.101	-0.207	-0.101
-146.560	-200.000	-0.004	0.028
-145.545	-200.000	-0.030	0.300
-144.531	145.403	-0.105	0.140
-143.516	-139.733	-0.232	0.025
-142.502	-200.000	0.004	-0.194
-141.487	-200.000	-0.061	-0.468
-140.472	164.722	-0.013	-0.019
-139.458	-9.561	-0.205	0.136
-138.443	-200.000	-0.001	0.061
-137.429	-64.358	-0.186	0.076
-136.414	111.305	0.146	0.176
-135.399	-83.212	0.184	0.059
-134.385	39.738	0.229	0.205
-133.370	-71.572	-0.459	-0.171
-132.356	53.588	-0.239	-0.229
-131.341	59.520	0.420	-0.413
-130.326	599.055	-0.123	0.305
-129.312	83.047	0.098	0.107
-128.297	-90.119	-0.131	0.038
-127.283	-200.000	0.003	0.147
-126.268	-25.635	0.116	0.068
-125.253	-174.123	-0.312	0.009
-124.239	-107.963	0.174	-0.038
-123.224	-200.000	0.063	0.313
-122.210	-166.454	-0.316	-0.013
-121.195	800.000	-0.117	-0.443
-120.180	-44.883	-0.237	-0.118
-119.166	-57.172	0.205	0.090
-118.151	410.970	0.044	0.092
-117.137	-200.000	-0.068	-0.302
-116.122	158.599	0.163	0.226
-115.107	-200.000	-0.005	0.184
-114.093	-59.156	0.170	-0.073
-113.078	-140.945	-0.236	0.024
-112.064	-200.000	0.031	-0.302
-111.049	-32.400	-0.290	0.162
-110.034	-200.000	-0.015	0.393
-109.020	-161.185	0.182	-0.009
-108.005	-200.000	-0.041	0.264
-106.991	580.983	0.128	-0.312
-105.976	160.964	-0.229	-0.319
-104.962	-200.000	0.112	-0.000
-103.947	307.064	0.191	0.355
-102.932	-200.000	0.009	0.050
-101.918	-113.508	0.086	0.017
-100.903	24.720	-0.214	-0.177
-99.889	-100.212	-0.332	-0.082
-98.874	-93.286	-0.138	0.038
-97.859	-89.704	0.189	-0.055
-96.845	237.500	-0.126	0.208
-95.830	38.943	0.201	-0.179
-94.816	-85.262	0.344	0.107
-93.801	168.718	0.187	-0.265
-92.786	-200.000	-0.059	0.395
-91.772	-60.494	-0.292	-0.124
-90.757	-119.801	0.448	-0.077
-89.743	51.102	-0.142	0.134
-88.728	-97.392	-0.280	-0.073
-87.713	185.267	0.065	0.095
-86.699	152.616	0.113	-0.154
-85.684	158.920	-0.142	-0.197
-84.670	572.888	-0.060	0.146
-83.655	91.674	0.073	0.082
-82.640	-46.966	-0.296	0.144
-81.626	152.922	0.069	0.095
-80.611	-90.365	-0.333	-0.096
-79.597	-58.012	-0.022	-0.010
-78.582	-200.000	-0.004	0.088
-77.567	198.958	0.035	-0.054
-76.553	136.221	0.171	-0.221
-75.538	-50.981	-0.073	0.034
-74.524	364.215	0.114	0.229
-73.509	800.000	-0.020	0.062
-72.494	-200.000	-0.009	0.170
-71.480	-200.000	-0.001	-0.016
-70.465	-106.454	-0.213	-0.047
-69.451	-75.463	-0.241	0.086
-68.436	-111.195	0.239	0.049
-67.422	-200.000	-0.022	0.133
-66.407	-171.264	-0.081	0.003
-65.392	-35.214	0.060	-0.032
-64.378	-75.531	0.034	0.012
-63.363	64.136	0.147	0.148
-62.349	-5.500	0.175	0.120
-61.334	25.131	-0.759	-0.627
-60.319	58.822	0.305	0.299
-59.305	-200.000	-0.208	-1.224
-58.290	179.912	0.511	0.745
-57.276	800.000	0.372	1.393
-56.261	-200.000	93.792	552.397
-55.246	609.887	1384.427	3440.684
-54.232	183.985	2604.490	3834.462
-53.217	113.348	2346.629	2833.026
-52.203	42.773	2093.930	1897.537
-51.188	37.828	2005.318	1772.344
-50.173	36.152	1986.844	1740.822
-49.159	50.179	2036.649	1913.007
-48.144	52.873	2056.237	1955.981
-47.130	38.483	2013.566	1785.329
-46.115	35.966	2002.540	1752.611
-45.100	35.927	1999.584	1749.600
-44.086	35.822	1996.495	1745.874
-43.071	35.841	1993.745	1743.570
-42.057	35.820	1991.597	1741.430
-41.042	35.806	1990.274	1740.081
-40.027	35.770	1988.430	1738.074
-39.013	35.868	1986.167	1736.913
-37.998	35.791	1984.861	1735.003
-36.984	35.917	1982.252	1733.785
-35.969	35.864	1980.705	1731.887
-34.954	35.884	1979.001	1730.512
-33.940	35.877	1977.396	1728.975
-32.925	35.949	1975.550	1727.936
-31.911	36.033	1973.797	1727.087
-30.896	35.960	1972.519	1725.252
-29.881	35.988	1970.390	1723.571
-28.867	36.052	1969.385	1723.199
-27.852	36.068	1967.540	1721.656
-26.838	36.004	1965.604	1719.326
-25.823	36.064	1963.365	1717.829
-24.809	36.039	1961.669	1716.059
-23.794	35.921	1960.321	1713.760
-22.779	35.932	1958.622	1712.305
-21.765	35.881	1957.266	1710.593
-20.750	35.902	1955.145	1708.860
-19.736	36.005	1953.627	1708.376
-18.721	36.004	1952.119	1706.983
-17.706	35.903	1950.869	1704.932
-16.692	35.916	1949.335	1703.632
-15.677	35.899	1947.877	1702.144
-14.663	35.985	1945.973	1701.171
-13.648	35.960	1944.496	1699.592
-12.633	35.933	1943.209	1698.161
-11.619	35.962	1942.030	1697.321
-10.604	35.931	1940.254	1695.430
-9.590	35.940	1939.131	1694.461
-8.575	35.904	1937.976	1693.065
-7.560	35.920	1936.350	1691.722
-6.546	35.895	1934.667	1689.958
-5.531	35.961	1933.809	1689.725
-4.517	35.930	1932.309	1688.078
-3.502	35.966	1931.356	1687.491
-2.487	35.981	1929.635	1686.047
-1.473	35.949	1929.685	1685.752
-0.458	36.007	1924.766	1681.889
0.556	38.256	1903.864	1650.051
1.571	32.784	1881.387	1584.613
2.586	27.452	1900.563	1555.226
3.600	25.602	1934.297	1566.598
4.615	23.941	1927.539	1546.557
5.629	18.056	1825.707	1416.110
6.644	9.538	1707.403	1257.950
7.659	5.688	1670.542	1201.218
8.673	5.329	1667.256	1195.996
9.688	5.347	1666.018	1195.145
10.702	5.435	1664.841	1194.861
11.717	5.470	1662.106	1193.060
12.731	5.692	1661.108	1193.933
13.746	10.630	1672.527	1239.836
14.761	18.582	1690.101	1313.909
15.775	22.365	1696.303	1347.642
16.790	22.280	1694.633	1345.548
17.804	21.348	1691.038	1335.454
18.819	20.227	1688.192	1324.537
19.834	19.653	1685.717	1318.096
20.848	19.426	1684.332	1315.169
21.863	19.237	1683.313	1312.820
22.877	19.179	1681.498	1310.847
23.892	19.003	1680.026	1308.238
24.907	18.898	1679.001	1306.532
25.921	18.813	1678.488	1305.369
26.936	18.819	1676.923	1304.081
27.950	18.842	1676.003	1303.427
28.965	18.900	1675.368	1303.255
29.980	18.973	1674.787	1303.243
30.994	19.074	1673.794	1303.122
32.009	19.188	1672.849	1303.133
33.023	19.282	1671.624	1302.772
34.038	19.266	1670.656	1301.780
35.053	19.219	1669.455	1300.372
36.067	19.056	1668.469	1298.263
37.082	19.096	1667.032	1297.333
38.096	19.066	1666.268	1296.398
39.111	19.083	1665.313	1295.662
40.126	19.130	1664.920	1295.598
41.140	19.144	1663.877	1294.781
42.155	18.998	1661.963	1292.077
43.169	18.723	1660.511	1288.772
44.184	18.639	1659.515	1287.254
45.199	18.582	1658.348	1285.805
46.213	18.566	1657.404	1284.841
47.228	18.600	1656.590	1284.350
48.242	18.919	1654.771	1285.213
49.257	18.999	1654.314	1285.343
50.271	19.021	1653.220	1284.545
51.286	18.968	1651.688	1282.841
52.301	19.007	1650.264	1281.915
53.315	18.906	1649.232	1280.246
54.330	18.858	1647.816	1278.676
55.344	18.838	1645.935	1276.959
56.359	18.717	1643.872	1274.345
57.374	18.709	1643.119	1273.586
58.388	18.733	1641.909	1272.716
59.403	18.656	1640.226	1270.725
60.417	18.524	1639.215	1268.852
61.432	18.526	1638.476	1268.184
62.447	18.641	1637.202	1267.941
63.461	18.506	1635.561	1265.557
64.476	18.435	1634.713	1264.264
65.490	18.429	1633.069	1262.842
66.505	18.394	1632.001	1261.642
67.520	18.519	1630.742	1261.480
68.534	18.403	1630.249	1260.130
69.549	18.522	1628.886	1259.843
70.563	18.490	1627.868	1258.709
71.578	18.448	1626.896	1257.534
72.593	18.329	1625.525	1255.495
73.607	18.282	1624.473	1254.222
74.622	18.222	1623.284	1252.758
75.636	18.232	1622.334	1251.988
76.651	18.335	1621.499	1251.982
77.666	18.197	1621.265	1250.685
78.680	18.271	1620.113	1250.221
79.695	18.482	1619.097	1250.866
80.709	18.459	1618.111	1249.827
81.724	18.460	1617.845	1249.521
82.739	18.600	1617.188	1249.923
83.753	18.715	1615.842	1249.610
84.768	18.758	1615.495	1249.539
85.782	18.941	1614.723	1250.166
86.797	19.053	1613.813	1250.163
87.812	19.092	1613.642	1250.206
88.826	19.106	1611.871	1248.825
89.841	18.880	1611.501	1246.786
90.855	19.011	1609.938	1246.420
91.870	18.949	1609.237	1245.316
92.884	19.044	1608.061	1244.981
93.899	19.109	1607.175	1244.654
94.914	19.230	1605.531	1244.150
95.928	19.246	1604.495	1243.348
96.943	19.209	1603.505	1242.204
97.957	19.197	1601.640	1240.567
98.972	19.077	1600.602	1238.786
99.987	19.012	1599.035	1236.996
101.001	19.117	1597.417	1236.387
102.016	19.074	1596.244	1235.062
103.030	19.015	1594.839	1233.447
104.045	19.052	1593.751	1232.763
105.060	19.078	1591.974	1231.463
106.074	18.975	1590.357	1229.364
107.089	18.832	1588.643	1226.912
108.103	18.575	1587.187	1223.843
109.118	18.484	1585.535	1221.812
110.133	18.491	1584.231	1220.751
111.147	18.388	1582.775	1218.790
112.162	18.426	1581.661	1218.090
113.176	18.504	1580.627	1217.745
114.191	18.516	1578.739	1216.264
115.206	18.619	1577.774	1216.143
116.220	18.669	1576.702	1215.563
117.235	18.588	1575.024	1213.593
118.249	18.549	1574.196	1212.566
119.264	18.507	1572.868	1211.144
120.279	18.474	1571.529	1209.769
121.293	18.525	1569.637	1208.567
122.308	18.466	1568.059	1206.831
123.322	18.405	1566.466	1205.071
124.337	18.363	1564.965	1203.513
125.352	18.324	1563.736	1202.187
126.366	18.353	1562.258	1201.144
127.381	18.254	1561.675	1199.898
128.395	18.296	1560.469	1199.163
129.410	18.287	1558.862	1197.753
130.424	18.240	1558.421	1196.980
131.439	18.487	1556.541	1197.154
132.454	18.474	1555.629	1196.260
133.468	18.577	1554.102	1195.700
134.483	18.549	1553.119	1194.642
135.497	18.609	1551.779	1193.921
136.512	18.647	1550.487	1193.086
137.527	18.752	1548.366	1192.078
138.541	18.787	1547.803	1191.782
139.556	18.696	1546.201	1189.813
140.570	18.796	1545.336	1189.734
141.585	18.911	1543.704	1189.171
142.600	18.941	1542.844	1188.607
143.614	19.043	1541.843	1188.436
144.629	19.112	1540.749	1187.966
145.643	19.052	1539.650	1186.596
146.658	19.163	1538.205	1186.143
147.673	19.094	1536.175	1183.998
148.687	18.916	1535.003	1181.769
149.702	18.870	1533.549	1180.225
150.716	18.881	1531.906	1178.931
151.731	18.733	1530.500	1176.734
152.746	18.728	1529.103	1175.523
153.760	18.721	1527.587	1174.205
154.775	18.745	1526.639	1173.532
155.789	18.816	1525.476	1173.019
156.804	18.933	1524.238	1172.765
157.819	18.949	1523.418	1172.138
158.833	18.990	1522.116	1171.310
159.848	19.048	1520.789	1170.582
160.862	19.189	1519.857	1170.719
161.877	19.294	1518.335	1170.156
162.892	19.103	1517.250	1167.920
163.906	18.833	1515.667	1164.767
164.921	18.796	1514.038	1163.161
165.935	18.737	1513.241	1162.050
166.950	18.850	1512.500	1162.140
167.964	18.859	1511.388	1161.247
168.979	18.849	1510.709	1160.551
169.994	18.910	1509.248	1159.739
171.008	18.865	1508.498	1158.756
172.023	18.917	1507.340	1158.116
173.037	18.982	1506.037	1157.448
174.052	19.079	1505.021	1157.215
175.067	19.119	1504.338	1156.858
176.081	18.998	1503.126	1155.011
177.096	18.892	1500.825	1152.432
178.110	18.792	1500.276	1151.236
179.125	18.791	1498.978	1150.133
180.140	18.927	1497.549	1149.843
181.154	18.887	1496.955	1149.022
182.169	19.039	1495.705	1148.972
183.183	19.113	1494.371	1148.342
184.198	19.079	1494.398	1148.033
185.213	19.237	1493.132	1148.014
186.227	19.238	1491.732	1146.844
187.242	19.233	1491.056	1146.188
188.256	19.391	1489.863	1146.220
189.271	19.436	1489.329	1146.002
190.286	19.412	1487.820	1144.583
191.300	19.404	1487.275	1144.008
192.315	19.078	1485.388	1140.295
193.329	18.832	1483.664	1137.243
194.344	18.725	1482.898	1135.852
195.359	18.812	1481.840	1135.515
196.373	18.874	1481.153	1135.298
197.388	19.035	1479.879	1135.281
198.402	19.129	1478.467	1134.719
199.417	19.284	1478.504	1135.665
200.432	19.438	1477.526	1135.830
201.446	19.507	1476.947	1135.740
202.461	19.599	1475.686	1135.271
203.475	19.672	1474.851	1135.009
204.490	19.735	1473.839	1134.544
205.504	19.580	1472.269	1132.219
206.519	19.460	1471.047	1130.389
207.534	19.295	1469.869	1128.308
208.548	19.319	1468.557	1127.360
209.563	19.298	1467.401	1126.235
210.577	19.347	1466.998	1126.140
211.592	19.396	1465.853	1125.481
212.607	19.448	1464.893	1124.987
213.621	19.452	1465.053	1125.038
214.636	19.576	1463.899	1124.855
215.650	19.624	1462.494	1123.990
216.665	19.628	1461.446	1123.111
217.680	19.682	1460.651	1122.750
218.694	19.741	1460.260	1122.737
219.709	19.775	1459.484	1122.258
220.723	19.851	1458.024	1121.534
221.738	19.835	1457.026	1120.561
222.753	19.714	1456.805	1119.511
223.767	19.692	1455.661	1118.389
224.782	19.783	1454.457	1117.952
225.796	19.799	1454.000	1117.608
226.811	19.801	1453.548	1117.171
227.826	19.976	1452.361	1117.293
228.840	19.820	1451.384	1115.433
229.855	19.741	1450.347	1114.030
230.869	19.553	1449.557	1112.111
231.884	19.661	1448.007	1111.519
232.899	19.694	1446.773	1110.686
233.913	19.592	1445.770	1109.161
234.928	19.541	1444.664	1107.886
235.942	19.416	1443.974	1106.462
236.957	19.452	1442.051	1105.118
237.972	19.413	1440.934	1103.917
238.986	19.426	1439.946	1103.142
240.001	19.398	1439.537	1102.557
241.015	19.493	1438.107	1101.966
242.030	19.542	1436.863	1101.233
243.045	19.631	1435.864	1100.933
244.059	19.654	1435.685	1100.848
245.074	19.738	1434.263	1100.192
246.088	19.741	1433.779	1099.743
247.103	19.806	1433.328	1099.712
248.117	19.900	1432.293	1099.417
249.132	19.894	1431.876	1098.963
250.147	20.096	1431.032	1099.503
251.161	20.277	1430.286	1099.979
252.176	20.446	1430.318	1100.979
253.190	20.471	1429.490	1100.402
254.205	20.484	1428.343	1099.500
255.220	20.581	1427.754	1099.567
256.234	20.662	1426.664	1099.142
257.249	20.539	1426.126	1097.852
258.263	20.566	1425.075	1097.118
259.278	20.581	1424.093	1096.354
260.293	20.541	1422.967	1095.141
261.307	20.513	1422.813	1094.748
262.322	20.606	1422.042	1094.644
263.336	20.713	1420.805	1094.267
264.351	20.744	1419.951	1093.706
265.366	20.742	1419.139	1092.977
266.380	20.688	1418.528	1092.066
267.395	20.752	1417.761	1091.784
268.409	20.844	1416.122	1090.999
269.424	20.580	1415.352	1088.655
270.439	20.521	1414.510	1087.547
271.453	20.564	1413.729	1087.114
272.468	20.587	1412.603	1086.299
273.482	20.388	1412.075	1084.553
274.497	20.382	1410.921	1083.532
275.512	20.350	1410.323	1082.779
276.526	20.419	1409.230	1082.275
277.541	20.519	1408.188	1082.001
278.555	20.513	1407.045	1080.987
279.570	20.509	1406.606	1080.529
280.585	20.631	1405.319	1080.203
281.599	20.845	1404.831	1081.060
282.614	20.875	1404.180	1080.650
283.628	20.708	1403.096	1078.686
284.643	20.627	1401.948	1077.206
285.657	20.532	1400.973	1075.774
286.672	20.522	1399.917	1074.808
287.687	20.533	1398.880	1073.982
288.701	20.654	1397.741	1073.763
289.716	20.670	1397.143	1073.305
290.730	20.676	1396.277	1072.582
291.745	20.684	1394.905	1071.485
292.760	20.594	1394.161	1070.265
293.774	20.740	1393.010	1070.179
294.789	20.729	1392.508	1069.631
295.803	20.885	1391.564	1069.771
296.818	20.886	1390.978	1069.231
297.833	20.733	1389.908	1067.376
298.847	20.732	1388.638	1066.299
299.862	20.693	1387.710	1065.255
300.876	20.739	1386.551	1064.554
301.891	20.740	1385.829	1063.909
302.906	20.761	1385.084	1063.370
303.920	20.976	1384.335	1064.014
304.935	20.950	1384.000	1063.507
305.949	21.020	1383.460	1063.424
306.964	21.211	1382.479	1063.740
307.979	21.271	1381.819	1063.499
308.993	21.142	1380.807	1061.847
310.008	21.075	1379.506	1060.345
311.022	21.069	1378.566	1059.491
312.037	21.097	1377.498	1058.748
313.052	21.217	1376.477	1058.596
314.066	20.990	1375.931	1056.705
315.081	20.867	1374.671	1054.898
316.095	20.897	1372.714	1053.483
317.110	20.783	1372.292	1052.380
318.125	20.711	1371.448	1051.206
319.139	20.860	1370.152	1051.018
320.154	20.899	1369.154	1050.393
321.168	20.811	1368.418	1049.204
322.183	20.940	1366.900	1048.726
323.197	20.888	1366.088	1047.695
324.212	20.880	1365.606	1047.185
325.227	20.891	1364.923	1046.634
326.241	21.029	1363.916	1046.603
327.256	21.053	1363.443	1046.289
328.270	20.973	1362.043	1044.645
329.285	20.808	1361.755	1043.340
330.300	20.954	1360.244	1042.963
331.314	20.894	1359.869	1042.224
332.329	20.934	1358.664	1041.448
333.343	20.870	1357.645	1040.196
334.358	20.890	1356.803	1039.575
335.373	20.998	1356.326	1039.764
336.387	21.095	1355.826	1039.862
337.402	21.224	1354.694	1039.672
338.416	21.132	1354.053	1038.539
339.431	21.275	1353.492	1038.866
340.446	21.326	1352.952	1038.666
341.460	21.381	1352.090	1038.238
342.475	21.518	1350.812	1037.977
343.489	21.632	1350.127	1038.034
344.504	21.557	1350.061	1037.446
345.519	21.699	1348.657	1037.120
346.533	21.745	1347.669	1036.542
347.548	21.761	1347.018	1036.042
348.562	21.706	1346.413	1035.162
349.577	21.836	1345.445	1035.093
350.592	21.683	1344.272	1033.192
351.606	21.594	1343.523	1032.001
352.621	21.360	1341.754	1029.174
353.635	21.361	1340.974	1028.494
354.650	21.275	1339.955	1027.111
355.665	21.196	1338.832	1025.698
356.679	21.316	1338.064	1025.724
357.694	21.409	1336.826	1025.229
358.708	21.481	1335.907	1024.855
359.723	21.524	1334.788	1024.158
360.738	21.639	1333.691	1023.899
361.752	21.600	1332.844	1022.926
362.767	21.666	1331.876	1022.482
363.781	21.637	1330.585	1021.231
364.796	21.637	1330.214	1020.857
365.810	21.617	1329.591	1020.170
366.825	21.674	1329.305	1020.190
367.840	21.911	1328.582	1020.926
368.854	22.022	1328.078	1021.093
369.869	22.028	1327.570	1020.651
370.883	22.154	1326.928	1020.798
371.898	22.115	1325.964	1019.736
372.913	22.088	1324.704	1018.520
373.927	21.910	1324.043	1016.893
374.942	21.929	1322.836	1015.984
375.956	21.967	1322.480	1015.842
376.971	22.101	1321.594	1015.847
377.986	22.003	1320.484	1014.336
379.000	21.890	1320.496	1013.602
380.015	22.123	1319.760	1014.295
381.029	22.164	1318.826	1013.721
382.044	22.284	1318.357	1013.964
383.059	22.334	1317.806	1013.738
384.073	22.322	1316.594	1012.647
385.088	22.191	1316.030	1011.371
386.102	22.221	1315.377	1010.952
387.117	22.305	1314.512	1010.680
388.132	22.212	1313.901	1009.586
389.146	21.998	1312.809	1007.434
390.161	21.946	1312.137	1006.530
391.175	22.011	1310.881	1005.849
392.190	21.900	1310.513	1004.843
393.205	22.054	1309.462	1004.828
394.219	22.045	1308.862	1004.227
395.234	22.235	1307.264	1004.000
396.248	22.255	1306.007	1003.058
397.263	22.081	1304.793	1001.042
398.278	22.109	1303.310	999.980
399.292	21.997	1301.980	998.234
400.307	21.922	1301.157	997.086
401.321	21.849	1299.936	995.649
402.336	21.839	1299.141	994.897
403.350	21.879	1298.353	994.428
404.365	21.889	1297.102	993.442
405.380	21.960	1296.330	993.161
406.394	21.968	1295.663	992.610
407.409	22.089	1295.151	992.815
408.423	22.085	1294.904	992.513
409.438	22.080	1294.116	991.792
410.453	22.400	1292.651	992.387
411.467	22.415	1292.430	992.217
412.482	22.496	1292.401	992.562
413.496	22.576	1291.508	992.238
414.511	22.551	1290.780	991.451
415.526	22.540	1289.893	990.617
416.540	22.726	1289.212	991.052
417.555	22.804	1288.656	990.975
418.569	22.814	1288.147	990.551
419.584	22.822	1287.166	989.756
420.599	22.586	1286.805	988.068
421.613	143.358	1430.650	1786.767
422.628	138.391	1451.593	1786.882
