DTS Sentinel unit serial number:	SN413079Multiplexer serial number:	ORYXHardware model number:	OX4-SRSoftware version number:	ORYX F/W v4.00 Oryx Data Collector v3.7.2.0data status	okinstallation	princeton_trtdifferential loss correction	single-endedforward channel	channel 4reverse channel	N/Adate	2019/09/13time	07:57:35forward acquisition time	60.00reverse acquisition time	0.00gamma	496.2192k internal	0.2320k external	0.2320temperature offset calibration	1.0194default loss term (dB/km)	0.3790temperature slope calibration	1.0000multiplexer offset coefficient	1.0000multiplexer slope coefficient	1.0000fibre end	0.00T internal ref (°C)	26.78T ext. ref 1 (°C)	4.23T ext. ref 2 (°C)	23.11length (m)	temperature (°C)	Stokes	anti-Stokes-747.200	58.934	0.037	-0.037
-746.185	-6.760	-0.428	0.295
-745.171	-112.907	0.284	-0.057
-744.156	-40.622	-0.200	0.105
-743.142	-148.399	0.296	-0.025
-742.127	183.874	-0.237	0.355
-741.112	-2.379	-0.198	-0.141
-740.098	3.595	-0.092	-0.068
-739.083	-133.380	-0.161	0.021
-738.069	-200.000	-0.020	-0.134
-737.054	-200.000	-0.011	-0.149
-736.039	155.345	-0.107	0.150
-735.025	-150.128	-0.188	-0.015
-734.010	-125.731	-0.156	-0.024
-732.996	-32.721	0.347	0.195
-731.981	-54.866	-0.460	-0.210
-730.966	50.536	-0.235	-0.225
-729.952	-200.000	0.032	0.168
-728.937	58.477	-0.175	0.173
-727.923	-115.947	-0.180	-0.034
-726.908	73.592	-0.135	-0.143
-725.894	9.984	0.066	-0.051
-724.879	-83.697	-0.211	0.068
-723.864	-200.000	0.026	-0.201
-722.850	-150.787	0.216	-0.017
-721.835	-80.457	-0.256	-0.086
-720.821	42.825	-0.091	0.084
-719.806	-139.765	-0.203	0.022
-718.791	113.370	0.128	-0.157
-717.777	63.270	-0.173	0.175
-716.762	157.994	-0.129	-0.180
-715.748	-200.000	0.006	0.108
-714.733	-200.000	0.001	-0.027
-713.718	-200.000	0.036	-0.196
-712.704	-93.397	-0.056	-0.016
-711.689	114.046	-0.059	-0.073
-710.675	317.949	0.130	-0.248
-709.660	430.446	-0.042	-0.091
-708.645	167.782	-0.063	0.090
-707.631	34.464	-0.022	-0.019
-706.616	144.902	0.016	0.022
-705.602	800.000	-0.046	-0.129
-704.587	-200.000	0.003	0.122
-703.572	-200.000	-0.004	0.152
-702.558	-16.072	0.079	0.051
-701.543	-129.053	-0.136	-0.019
-700.529	2.042	0.262	0.191
-699.514	-121.973	-0.434	-0.072
-698.499	-174.323	-0.226	-0.007
-697.485	-28.794	-0.120	-0.070
-696.470	-200.000	0.020	0.370
-695.456	-119.397	0.174	0.031
-694.441	800.000	0.008	-0.034
-693.426	-200.000	0.047	-0.280
-692.412	-200.000	-0.001	-0.142
-691.397	165.257	0.026	0.037
-690.383	-104.621	-0.130	0.030
-689.368	-7.804	-0.136	0.093
-688.354	374.222	-0.042	0.086
-687.339	-76.192	-0.321	0.114
-686.324	-94.160	0.330	0.091
-685.310	-61.229	-0.166	-0.071
-684.295	125.283	0.155	0.198
-683.281	-82.388	-0.306	-0.100
-682.266	731.018	-0.064	-0.172
-681.251	-69.792	0.310	0.119
-680.237	800.000	-0.035	0.132
-679.222	-0.470	-0.129	-0.092
-678.208	-10.930	0.148	0.099
-677.193	697.440	-0.148	-0.393
-676.178	-200.000	-0.000	0.140
-675.164	-67.698	0.110	0.044
-674.149	-65.669	0.347	-0.140
-673.135	48.897	-0.062	-0.059
-672.120	-200.000	0.006	-0.337
-671.105	31.650	-0.214	0.185
-670.091	-200.000	0.008	-0.377
-669.076	521.723	0.055	-0.130
-668.062	800.000	-0.101	0.379
-667.047	-12.391	0.223	0.147
-666.032	-34.526	-0.124	-0.068
-665.018	-200.000	-0.042	-0.225
-664.003	48.808	0.067	-0.063
-662.989	370.602	-0.083	-0.170
-661.974	-200.000	0.029	0.176
-660.959	-91.349	-0.035	0.010
-659.945	-7.847	0.102	0.069
-658.930	-20.883	0.229	-0.142
-657.916	-88.554	-0.188	-0.056
-656.901	-100.779	0.278	0.069
-655.886	-200.000	0.016	0.076
-654.872	496.905	0.150	-0.348
-653.857	399.133	0.044	0.092
-652.843	-200.000	-0.020	0.239
-651.828	-46.431	-0.231	0.114
-650.814	-81.036	-0.315	-0.105
-649.799	-23.622	-0.123	0.074
-648.784	70.676	0.251	0.262
-647.770	-200.000	-0.023	0.207
-646.755	181.064	0.265	-0.392
-645.741	364.643	-0.153	-0.310
-644.726	536.622	0.090	0.216
-643.711	800.000	0.046	0.143
-642.697	-105.242	-0.313	-0.072
-641.682	417.560	-0.115	0.247
-640.668	-200.000	-0.030	-0.178
-639.653	239.775	-0.076	-0.128
-638.638	-200.000	0.034	-0.213
-637.624	246.189	0.075	0.128
-636.609	-200.000	-0.054	0.318
-635.595	-57.619	0.257	0.113
-634.580	60.736	-0.108	-0.108
-633.565	-104.786	0.066	-0.015
-632.551	-82.593	0.228	-0.074
-631.536	-200.000	-0.085	-0.392
-630.522	-6.877	0.333	-0.228
-629.507	-93.427	-0.157	-0.044
-628.492	161.330	0.268	-0.377
-627.478	800.000	-0.087	0.249
-626.463	-200.000	0.077	-0.418
-625.449	-200.000	-0.027	0.132
-624.434	345.642	-0.130	0.258
-623.419	366.769	-0.208	-0.422
-622.405	-200.000	-0.012	0.172
-621.390	-125.680	-0.152	-0.023
-620.376	-200.000	-0.024	-0.202
-619.361	-12.404	-0.078	-0.051
-618.346	89.266	0.100	0.113
-617.332	-200.000	0.028	0.193
-616.317	-62.934	0.198	0.083
-615.303	-45.931	0.101	-0.050
-614.288	125.684	-0.308	-0.391
-613.273	300.829	-0.063	-0.117
-612.259	71.422	-0.393	-0.410
-611.244	-23.538	-0.240	0.145
-610.230	-137.859	0.359	-0.040
-609.215	60.595	-0.109	-0.109
-608.201	69.588	-0.171	0.178
-607.186	-15.352	0.320	0.206
-606.171	259.292	0.047	0.081
-605.157	800.000	0.003	-0.010
-604.142	-200.000	0.036	-0.161
-603.128	-82.806	0.109	-0.035
-602.113	-200.000	-0.026	0.285
-601.098	-130.811	-0.171	0.023
-600.084	800.000	-0.047	0.166
-599.069	-68.866	0.293	0.114
-598.055	155.684	0.166	-0.230
-597.040	108.035	-0.076	-0.092
-596.025	-32.697	-0.408	0.228
-595.011	383.724	0.110	0.227
-593.996	-200.000	0.053	-0.260
-592.982	103.517	0.174	0.206
-591.967	-4.687	0.210	-0.146
-590.952	389.971	-0.180	-0.376
-589.938	-200.000	-0.019	0.149
-588.923	211.685	0.183	-0.290
-587.909	204.411	-0.121	-0.189
-586.894	800.000	-0.056	0.228
-585.879	118.118	-0.197	0.244
-584.865	51.983	0.088	0.085
-583.850	-128.443	0.257	-0.037
-582.836	800.000	-0.090	0.274
-581.821	-45.511	0.261	0.130
-580.806	-130.437	-0.339	-0.046
-579.792	317.483	-0.082	0.157
-578.777	-77.506	0.262	0.091
-577.763	-120.002	0.119	-0.021
-576.748	800.000	-0.046	0.203
-575.733	6.242	-0.058	0.043
-574.719	-115.605	-0.255	-0.048
-573.704	-80.620	0.133	-0.045
-572.690	-185.506	-0.286	-0.004
-571.675	131.072	0.121	0.156
-570.661	46.767	-0.141	0.132
-569.646	-80.996	0.120	0.040
-568.631	57.070	-0.097	-0.095
-567.617	-115.922	0.126	-0.024
-566.602	-78.453	-0.135	0.046
-565.588	-162.042	-0.472	0.024
-564.573	394.638	0.066	0.139
-563.558	-82.908	-0.096	0.031
-562.544	3.748	0.122	-0.089
-561.529	-108.622	-0.029	0.006
-560.515	-200.000	0.034	-0.318
-559.500	207.230	0.063	0.098
-558.485	776.396	-0.096	0.263
-557.471	2.434	0.207	0.150
-556.456	-200.000	-0.004	0.035
-555.442	-132.901	0.101	-0.013
-554.427	-133.473	-0.409	0.052
-553.412	-164.208	0.307	-0.014
-552.398	-200.000	-0.014	-0.350
-551.383	-126.998	0.123	0.018
-550.369	800.000	-0.082	0.244
-549.354	800.000	0.059	-0.191
-548.339	-29.278	-0.218	0.125
-547.325	-39.493	-0.185	-0.097
-546.310	186.653	-0.111	0.166
-545.296	-114.223	-0.182	-0.035
-544.281	183.181	0.244	0.362
-543.266	-200.000	-0.028	-0.258
-542.252	99.970	0.072	-0.084
-541.237	-89.373	-0.116	0.034
-540.223	260.920	0.082	0.142
-539.208	800.000	0.143	-0.506
-538.193	-200.000	0.039	0.255
-537.179	257.183	-0.160	0.276
-536.164	176.859	-0.154	-0.225
-535.150	800.000	-0.093	-0.297
-534.135	-101.476	0.470	0.115
-533.121	-200.000	-0.003	0.032
-532.106	-69.948	0.124	-0.047
-531.091	78.245	0.074	0.079
-530.077	91.532	0.028	-0.031
-529.062	-96.818	-0.342	0.090
-528.048	-200.000	-0.027	-0.381
-527.033	-153.624	-0.165	-0.011
-526.018	800.000	-0.072	-0.241
-525.004	-0.559	0.248	-0.176
-523.989	118.146	0.064	0.079
-522.975	23.548	0.296	-0.244
-521.960	-200.000	-0.046	-0.366
-520.945	-26.706	-0.180	-0.106
-519.931	-174.995	0.124	0.003
-518.916	-200.000	0.005	-0.119
-517.902	-62.649	0.191	-0.079
-516.887	103.200	-0.333	-0.392
-515.872	-124.769	0.276	-0.043
-514.858	-54.469	0.282	0.128
-513.843	2.204	0.242	0.175
-512.829	8.202	-0.231	-0.174
-511.814	-49.092	0.212	-0.102
-510.799	800.000	-0.022	-0.086
-509.785	-94.044	-0.206	0.057
-508.770	-45.805	-0.194	0.096
-507.756	151.636	-0.089	-0.122
-506.741	-96.349	0.192	-0.051
-505.726	-30.775	0.012	-0.007
-504.712	-141.015	0.403	0.041
-503.697	217.398	0.128	-0.204
-502.683	107.292	-0.073	-0.087
-501.668	150.521	-0.167	-0.227
-500.653	-84.263	-0.248	-0.079
-499.639	-200.000	0.058	0.346
-498.624	654.563	-0.071	0.183
-497.610	4.663	-0.198	-0.145
-496.595	-200.000	-0.009	0.197
-495.581	35.998	0.057	0.050
-494.566	146.436	0.088	-0.119
-493.551	-22.074	-0.153	-0.093
-492.537	800.000	-0.031	0.109
-491.522	653.081	-0.114	-0.294
-490.508	-126.935	-0.195	0.029
-489.493	-179.717	-0.168	-0.004
-488.478	-141.809	-0.214	0.022
-487.464	-200.000	0.049	-0.250
-486.449	-49.977	0.268	-0.127
-485.435	-136.501	0.326	0.038
-484.420	-10.079	-0.285	-0.190
-483.405	492.130	-0.060	0.137
-482.391	800.000	-0.079	-0.281
-481.376	369.344	0.067	-0.135
-480.362	-200.000	0.027	-0.198
-479.347	-90.907	-0.124	0.036
-478.332	-48.989	-0.022	0.010
-477.318	-28.381	-0.111	0.064
-476.303	-60.351	0.374	0.159
-475.289	169.422	0.133	-0.190
-474.274	1.597	-0.199	0.144
-473.259	620.220	-0.046	-0.115
-472.245	-200.000	-0.017	-0.150
-471.230	-86.692	0.065	0.020
-470.216	-151.195	0.323	0.024
-469.201	-200.000	-0.003	-0.123
-468.186	-63.375	0.089	0.036
-467.172	-154.598	-0.248	-0.017
-466.157	800.000	0.033	0.144
-465.143	128.919	-0.062	-0.078
-464.128	-39.151	0.198	-0.104
-463.113	-58.463	0.267	-0.116
-462.099	-104.075	-0.262	0.061
-461.084	-200.000	-0.003	-0.091
-460.070	-67.592	-0.428	0.168
-459.055	-200.000	0.020	-0.150
-458.040	-200.000	-0.000	0.411
-457.026	-200.000	0.077	-0.355
-456.011	-11.549	-0.249	-0.164
-454.997	800.000	0.061	0.242
-453.982	800.000	-0.008	0.023
-452.968	-167.753	-0.250	-0.010
-451.953	-12.854	-0.289	0.188
-450.938	-4.156	0.206	-0.143
-449.924	-61.420	-0.065	0.027
-448.909	800.000	0.048	-0.162
-447.895	-19.056	-0.137	-0.085
-446.880	-146.009	0.138	-0.012
-445.865	353.358	-0.032	-0.063
-444.851	658.398	-0.066	-0.168
-443.836	111.579	0.126	0.151
-442.822	84.138	-0.094	0.103
-441.807	-47.845	0.255	-0.124
-440.792	800.000	0.047	0.201
-439.778	73.148	0.067	-0.070
-438.763	-184.747	-0.357	0.006
-437.749	103.632	-0.254	0.298
-436.734	359.989	0.148	0.296
-435.719	-146.487	0.235	0.020
-434.705	-200.000	0.040	0.320
-433.690	-71.672	0.276	0.103
-432.676	-90.876	0.151	-0.043
-431.661	-200.000	-0.019	0.180
-430.646	-0.042	0.146	-0.104
-429.632	-19.231	0.442	-0.274
-428.617	200.031	-0.114	-0.175
-427.603	77.826	-0.052	-0.056
-426.588	633.012	-0.058	0.148
-425.573	-5.286	-0.222	0.153
-424.559	101.002	-0.141	0.163
-423.544	-107.906	-0.281	-0.061
-422.530	437.344	-0.030	0.065
-421.515	-72.537	-0.486	0.179
-420.500	175.431	-0.168	-0.243
-419.486	-62.695	0.444	0.184
-418.471	-47.749	-0.410	0.199
-417.457	-89.752	0.201	0.059
-416.442	-82.227	0.291	0.095
-415.428	-200.000	0.025	0.133
-414.413	174.296	0.087	-0.125
-413.398	-79.142	-0.371	0.126
-412.384	-6.373	-0.418	-0.285
-411.369	461.345	-0.054	0.121
-410.355	66.010	-0.262	0.266
-409.340	-173.936	-0.177	0.005
-408.325	-57.032	-0.040	-0.017
-407.311	-62.765	-0.101	-0.042
-406.296	102.526	0.131	-0.153
-405.282	-200.000	0.010	-0.046
-404.267	594.722	-0.151	-0.374
-403.252	-58.875	-0.243	-0.105
-402.238	-37.692	0.210	-0.112
-401.223	-200.000	-0.020	-0.091
-400.209	404.998	0.017	0.035
-399.194	47.932	0.141	0.132
-398.179	723.898	-0.051	0.136
-397.165	-200.000	-0.039	-0.192
-396.150	-83.835	0.119	-0.038
-395.136	-20.258	0.244	-0.150
-394.121	800.000	-0.080	-0.274
-393.106	-159.912	-0.274	-0.015
-392.092	-191.871	0.009	0.000
-391.077	115.776	-0.049	-0.060
-390.063	140.662	0.145	0.190
-389.048	-200.000	-0.015	-0.103
-388.033	-112.998	0.071	0.014
-387.019	-200.000	-0.036	-0.174
-386.004	46.166	-0.254	0.235
-384.990	19.034	0.184	-0.147
-383.975	417.205	0.071	0.150
-382.960	-49.045	-0.219	0.104
-381.946	274.916	0.033	-0.058
-380.931	-83.460	-0.244	0.078
-379.917	102.163	0.068	0.079
-378.902	213.368	0.102	0.161
-377.888	-200.000	-0.037	-0.183
-376.873	5.369	-0.085	0.062
-375.858	-49.242	0.149	-0.071
-374.844	-88.437	0.100	0.030
-373.829	800.000	-0.013	-0.053
-372.815	73.089	-0.126	-0.132
-371.800	800.000	0.048	-0.180
-370.785	-25.560	-0.290	0.171
-369.771	34.313	-0.094	-0.081
-368.756	-144.438	0.489	-0.045
-367.742	9.765	0.022	-0.017
-366.727	-7.409	-0.072	0.049
-365.712	-200.000	0.032	0.184
-364.698	-112.473	-0.557	0.111
-363.683	-0.618	0.104	-0.074
-362.669	-33.616	-0.133	-0.073
-361.654	-39.283	-0.148	-0.077
-360.639	275.020	0.047	0.083
-359.625	-103.884	0.292	0.068
-358.610	763.767	-0.017	-0.046
-357.596	98.000	-0.118	0.135
-356.581	140.724	-0.275	0.362
-355.566	225.933	0.353	0.570
-354.552	-63.276	-0.217	-0.089
-353.537	95.720	-0.172	0.195
-352.523	37.939	-0.047	0.041
-351.508	6.139	-0.222	-0.164
-350.493	-93.721	0.299	-0.082
-349.479	61.472	-0.148	0.147
-348.464	166.465	-0.156	0.220
-347.450	-54.491	0.080	0.036
-346.435	-53.043	0.067	-0.031
-345.420	-200.000	0.004	0.202
-344.406	582.806	-0.095	0.233
-343.391	800.000	0.035	0.136
-342.377	-200.000	-0.057	0.387
-341.362	-200.000	0.010	0.244
-340.348	-200.000	0.015	-0.185
-339.333	731.191	0.083	0.222
-338.318	-171.728	-0.231	0.008
-337.304	-116.136	0.201	0.037
-336.289	49.845	0.278	0.261
-335.275	81.422	-0.157	0.169
-334.260	800.000	-0.058	-0.225
-333.245	335.272	0.099	-0.191
-332.231	-200.000	-0.039	-0.224
-331.216	800.000	0.091	-0.266
-330.202	379.410	0.079	-0.161
-329.187	63.557	0.058	0.058
-328.172	91.883	0.096	0.107
-327.158	152.574	0.232	-0.316
-326.143	-200.000	-0.001	-0.117
-325.129	-200.000	0.013	-0.212
-324.114	-142.541	0.329	-0.032
-323.099	334.362	-0.079	0.153
-322.085	-60.224	0.212	-0.090
-321.070	153.721	-0.122	-0.167
-320.056	800.000	-0.087	0.273
-319.041	580.522	0.135	0.329
-318.026	-200.000	0.028	0.141
-317.012	259.357	0.052	0.090
-315.997	-99.801	0.430	0.107
-314.983	-7.633	0.111	-0.075
-313.968	72.648	-0.232	-0.240
-312.953	219.492	0.060	-0.096
-311.939	408.475	-0.045	-0.095
-310.924	86.752	0.104	0.114
-309.910	-200.000	0.027	-0.150
-308.895	-200.000	-0.046	0.262
-307.880	105.125	0.081	0.096
-306.866	423.834	-0.138	-0.296
-305.851	800.000	0.048	0.164
-304.837	77.550	0.241	-0.255
-303.822	23.257	-0.182	-0.149
-302.807	101.409	-0.110	-0.128
-301.793	-21.458	-0.123	0.075
-300.778	-106.537	-0.210	-0.046
-299.764	-200.000	-0.007	-0.289
-298.749	-166.182	0.149	0.006
-297.735	387.152	-0.040	-0.082
-296.720	-80.677	0.441	0.146
-295.705	57.078	0.156	0.152
-294.691	757.194	-0.066	-0.178
-293.676	-67.799	0.209	-0.081
-292.662	108.258	-0.107	0.127
-291.647	-93.606	0.142	-0.039
-290.632	-161.933	0.249	-0.013
-289.618	-200.000	-0.030	-0.153
-288.603	270.994	-0.133	-0.233
-287.589	24.105	0.097	0.079
-286.574	122.440	-0.129	-0.160
-285.559	474.598	-0.057	-0.129
-284.545	800.000	-0.066	0.214
-283.530	-100.355	0.356	-0.088
-282.516	-200.000	-0.044	-0.235
-281.501	-22.980	-0.099	0.059
-280.486	479.397	0.022	0.050
-279.472	800.000	-0.005	0.016
-278.457	-200.000	-0.024	-0.283
-277.443	-33.987	-0.153	-0.083
-276.428	-113.401	0.058	-0.011
-275.413	411.033	-0.030	0.063
-274.399	327.205	0.193	0.367
-273.384	-1.445	-0.079	0.055
-272.370	281.829	0.086	0.152
-271.355	-200.000	0.007	0.312
-270.340	185.863	-0.174	-0.256
-269.326	-200.000	-0.026	-0.135
-268.311	-69.714	0.146	-0.055
-267.297	-94.899	0.461	-0.124
-266.282	800.000	0.080	0.229
-265.267	231.551	-0.060	-0.098
-264.253	800.000	0.020	-0.064
-263.238	-75.332	0.186	0.066
-262.224	208.840	0.077	-0.120
-261.209	-72.119	0.053	-0.020
-260.195	-72.461	-0.342	0.126
-259.180	-200.000	0.061	-0.319
-258.165	38.036	-0.059	0.052
-257.151	24.728	-0.184	0.151
-256.136	229.168	-0.144	0.233
-255.122	-96.297	0.340	0.089
-254.107	-200.000	0.036	0.368
-253.092	102.171	-0.141	-0.163
-252.078	-200.000	-0.074	-0.384
-251.063	-4.945	0.162	0.111
-250.049	-142.302	-0.262	0.026
-249.034	0.259	-0.051	-0.036
-248.019	110.319	-0.185	-0.220
-247.005	-75.638	-0.085	-0.030
-245.990	-83.566	-0.062	-0.020
-244.976	-89.609	-0.173	0.050
-243.961	-60.598	-0.338	0.142
-242.946	-200.000	0.014	0.131
-241.932	-200.000	-0.013	-0.147
-240.917	136.704	-0.133	-0.172
-239.903	309.541	0.110	0.204
-238.888	-200.000	0.017	0.286
-237.873	-200.000	-0.022	0.157
-236.859	13.866	0.160	0.124
-235.844	-200.000	0.060	-0.283
-234.830	380.427	-0.106	0.216
-233.815	-72.513	0.163	-0.060
-232.800	-200.000	0.040	0.340
-231.786	312.671	-0.156	0.291
-230.771	8.033	0.264	0.196
-229.757	-80.044	0.074	-0.025
-228.742	52.150	-0.191	0.180
-227.727	800.000	0.059	-0.204
-226.713	70.296	-0.166	-0.170
-225.698	-19.405	-0.191	-0.117
-224.684	509.602	-0.123	0.283
-223.669	-35.820	0.324	0.174
-222.655	414.140	0.045	0.096
-221.640	89.490	0.074	-0.082
-220.625	-200.000	-0.023	-0.206
-219.611	-200.000	-0.008	-0.152
-218.596	614.469	-0.041	0.101
-217.582	800.000	-0.062	0.254
-216.567	800.000	0.105	-0.378
-215.552	252.562	-0.071	0.120
-214.538	442.140	-0.073	0.159
-213.523	75.480	0.047	0.049
-212.509	-200.000	0.001	0.153
-211.494	301.334	-0.048	-0.088
-210.479	-46.195	-0.073	-0.036
-209.465	-89.472	0.244	-0.071
-208.450	28.074	-0.212	-0.177
-207.436	-116.504	0.094	0.017
-206.421	-200.000	0.013	-0.097
-205.406	140.557	0.146	-0.191
-204.392	-99.131	0.182	-0.045
-203.377	-200.000	0.008	0.087
-202.363	-120.282	-0.316	-0.053
-201.348	-135.877	-0.272	0.032
-200.333	800.000	0.030	0.109
-199.319	37.742	-0.154	0.136
-198.304	-179.662	-0.208	0.004
-197.290	412.797	-0.243	-0.511
-196.275	-78.684	0.296	0.100
-195.260	-200.000	-0.011	0.181
-194.246	-92.484	0.423	0.118
-193.231	-83.271	0.240	-0.076
-192.217	800.000	-0.114	0.322
-191.202	-88.092	0.144	-0.043
-190.187	37.859	0.189	0.166
-189.173	50.778	-0.164	-0.154
-188.158	-128.865	0.413	-0.058
-187.144	-93.026	-0.433	0.119
-186.129	800.000	0.038	0.138
-185.114	-78.153	0.239	-0.081
-184.100	-159.742	-0.242	0.013
-183.085	330.090	0.010	-0.019
-182.071	-76.914	0.107	-0.037
-181.056	11.623	0.311	0.236
-180.042	153.294	0.030	-0.041
-179.027	203.467	-0.175	0.268
-178.012	-108.998	0.174	-0.037
-176.998	-135.650	-0.082	-0.010
-175.983	800.000	-0.085	0.369
-174.969	26.425	0.242	-0.200
-173.954	539.378	-0.114	-0.268
-172.939	211.571	0.171	0.266
-171.925	177.471	-0.057	0.082
-170.910	90.157	-0.110	-0.122
-169.896	21.776	0.449	0.361
-168.881	-200.000	-0.005	0.119
-167.866	-45.924	-0.284	-0.138
-166.852	143.673	0.047	-0.061
-165.837	-55.557	-0.208	-0.092
-164.823	633.873	0.091	0.229
-163.808	-120.154	-0.248	0.042
-162.793	20.493	0.139	-0.111
-161.779	-87.516	-0.299	-0.089
-160.764	-114.509	0.141	0.027
-159.750	158.343	0.134	0.184
-158.735	119.620	0.121	0.148
-157.720	258.818	0.234	0.398
-156.706	651.187	0.106	-0.269
-155.691	800.000	0.099	-0.270
-154.677	196.307	0.126	0.189
-153.662	120.081	0.310	-0.380
-152.647	-200.000	0.046	0.285
-151.633	800.000	-0.064	-0.243
-150.618	24.821	0.178	-0.146
-149.604	-200.000	-0.008	0.329
-148.589	-60.098	-0.146	-0.062
-147.574	-146.674	0.045	-0.004
-146.560	348.799	0.118	-0.230
-145.545	800.000	0.030	0.085
-144.531	63.744	-0.068	-0.067
-143.516	-59.588	-0.019	-0.008
-142.502	-82.445	-0.082	0.026
-141.487	389.786	-0.096	0.196
-140.472	-101.008	0.148	-0.036
-139.458	-115.388	-0.127	0.024
-138.443	774.479	-0.119	0.320
-137.429	-60.849	-0.172	0.072
-136.414	163.254	-0.095	-0.132
-135.399	-178.599	-0.222	0.005
-134.385	-200.000	-0.074	0.505
-133.370	19.172	-0.122	-0.096
-132.356	41.012	0.051	0.046
-131.341	-156.831	0.474	0.029
-130.326	800.000	0.058	0.199
-129.312	9.040	0.202	0.151
-128.297	47.164	0.308	0.283
-127.283	-200.000	-0.006	-0.362
-126.268	95.287	-0.206	-0.232
-125.253	-28.555	-0.210	0.119
-124.239	312.932	0.118	0.219
-123.224	344.327	0.141	0.273
-122.210	-64.138	0.045	-0.018
-121.195	84.468	-0.252	0.273
-120.180	-195.075	0.406	-0.003
-119.166	6.125	0.156	-0.114
-118.151	-188.213	0.289	0.004
-117.137	103.936	0.162	0.188
-116.122	369.885	-0.059	-0.119
-115.107	663.087	-0.086	0.219
-114.093	205.117	-0.048	0.074
-113.078	-200.000	-0.012	0.304
-112.064	-138.356	-0.477	0.052
-111.049	10.138	0.078	0.059
-110.034	-108.541	0.072	0.015
-109.020	153.708	-0.128	0.173
-108.005	-80.643	0.231	0.076
-106.991	-104.984	-0.258	-0.058
-105.976	-85.793	0.394	0.121
-104.962	15.053	0.159	0.123
-103.947	-80.033	0.361	0.120
-102.932	481.232	-0.072	-0.161
-101.918	-29.035	0.229	0.130
-100.903	-48.374	-0.129	-0.062
-99.889	-23.251	0.060	0.035
-98.874	-20.106	0.104	-0.063
-97.859	566.996	-0.099	0.237
-96.845	-72.791	-0.192	-0.070
-95.830	800.000	-0.148	-0.446
-94.816	-200.000	0.043	-0.199
-93.801	-49.599	0.193	0.091
-92.786	-130.318	-0.202	0.027
-91.772	87.517	-0.192	0.210
-90.757	-149.203	0.192	0.015
-89.743	614.081	0.047	-0.115
-88.728	-98.745	0.162	0.041
-87.713	-200.000	-0.007	0.377
-86.699	172.060	0.141	0.200
-85.684	262.983	0.239	-0.409
-84.670	-137.859	0.098	0.011
-83.655	-200.000	0.019	0.093
-82.640	-200.000	-0.013	-0.295
-81.626	-6.494	-0.173	0.116
-80.611	-34.808	0.180	-0.097
-79.597	15.822	0.198	0.153
-78.582	320.843	0.158	-0.295
-77.567	800.000	-0.091	-0.255
-76.553	217.152	0.010	0.016
-75.538	421.901	0.035	0.073
-74.524	-58.671	0.127	0.054
-73.509	-200.000	-0.029	-0.373
-72.494	-79.340	0.207	-0.069
-71.480	296.080	0.051	0.091
-70.465	-89.872	0.126	0.036
-69.451	32.906	-0.251	-0.214
-68.436	8.358	0.147	-0.109
-67.422	155.925	0.142	0.192
-66.407	-200.000	-0.021	0.232
-65.392	142.825	0.085	-0.112
-64.378	-122.535	-0.136	0.022
-63.363	-200.000	-0.030	0.264
-62.349	-200.000	0.059	0.280
-61.334	17.550	-0.755	-0.591
-60.319	30.121	0.557	0.468
-59.305	800.000	-0.343	-1.279
-58.290	781.706	0.446	1.202
-57.276	401.449	0.741	1.532
-56.261	-200.000	115.085	655.279
-55.246	520.854	1534.928	3544.035
-54.232	171.750	2717.315	3842.007
-53.217	98.290	2336.635	2649.686
-52.203	33.426	2078.536	1776.601
-51.188	28.519	1993.289	1659.396
-50.173	27.179	1975.716	1632.679
-49.159	45.873	2035.865	1853.340
-48.144	44.431	2051.191	1854.077
-47.130	29.116	2009.210	1677.827
-46.115	26.809	1998.954	1648.257
-45.100	26.796	1995.328	1645.080
-44.086	26.753	1992.975	1642.685
-43.071	26.711	1990.754	1640.413
-42.057	26.661	1988.580	1638.106
-41.042	26.632	1987.016	1636.484
-40.027	26.639	1985.109	1634.918
-39.013	26.724	1982.577	1633.533
-37.998	26.705	1981.317	1632.254
-36.984	26.702	1979.317	1630.520
-35.969	26.740	1977.090	1628.961
-34.954	26.686	1975.899	1627.424
-33.940	26.691	1974.622	1626.356
-32.925	26.833	1972.555	1625.858
-31.911	26.834	1970.659	1624.247
-30.896	26.793	1968.948	1622.400
-29.881	26.829	1967.704	1621.635
-28.867	26.835	1965.928	1620.158
-27.852	26.792	1964.347	1618.408
-26.838	26.819	1962.475	1617.047
-25.823	26.781	1961.062	1615.479
-24.809	26.766	1959.435	1613.939
-23.794	26.819	1956.887	1612.246
-22.779	26.791	1955.456	1610.760
-21.765	26.905	1953.659	1610.221
-20.750	26.854	1952.153	1608.468
-19.736	26.821	1950.371	1606.643
-18.721	26.868	1949.314	1606.120
-17.706	26.797	1947.478	1603.918
-16.692	26.838	1945.771	1602.808
-15.677	26.764	1944.324	1600.904
-14.663	26.883	1942.400	1600.301
-13.648	26.894	1941.256	1599.391
-12.633	26.768	1940.380	1597.497
-11.619	26.818	1938.782	1596.562
-10.604	26.709	1938.048	1594.936
-9.590	26.735	1936.756	1594.036
-8.575	26.760	1934.928	1592.689
-7.560	26.707	1934.119	1591.491
-6.546	26.753	1932.263	1590.307
-5.531	26.782	1930.881	1589.364
-4.517	26.853	1929.661	1588.915
-3.502	26.802	1928.831	1587.720
-2.487	26.818	1927.633	1586.816
-1.473	26.780	1926.495	1585.484
-0.458	26.936	1921.256	1582.467
0.556	28.971	1902.473	1556.745
1.571	25.019	1884.684	1508.851
2.586	21.262	1908.527	1495.700
3.600	20.318	1943.768	1514.940
4.615	19.719	1937.365	1504.610
5.629	15.496	1836.749	1391.419
6.644	8.111	1721.939	1246.760
7.659	4.359	1688.088	1193.335
8.673	4.123	1685.116	1189.321
9.688	4.249	1683.989	1189.387
10.702	4.303	1682.784	1188.845
11.717	4.254	1679.046	1185.722
12.731	4.693	1677.949	1188.198
13.746	9.893	1690.131	1236.633
14.761	17.773	1707.283	1309.819
15.775	21.945	1714.897	1347.654
16.790	22.437	1714.362	1350.890
17.804	21.529	1711.929	1341.892
18.819	20.584	1709.075	1332.299
19.834	20.035	1706.464	1325.947
20.848	19.857	1705.360	1323.607
21.863	19.896	1704.254	1322.932
22.877	19.760	1702.804	1320.652
23.892	19.600	1701.510	1318.307
24.907	19.546	1700.283	1316.828
25.921	19.570	1699.086	1315.967
26.936	19.354	1698.543	1313.782
27.950	19.449	1697.053	1313.240
28.965	19.427	1696.725	1312.702
29.980	19.564	1696.113	1313.153
30.994	19.675	1694.935	1312.971
32.009	19.788	1694.351	1313.260
33.023	19.891	1693.055	1312.918
34.038	19.891	1692.386	1312.281
35.053	19.763	1691.580	1310.569
36.067	19.721	1689.979	1308.900
37.082	19.666	1688.694	1307.369
38.096	19.627	1688.030	1306.448
39.111	19.657	1687.246	1305.953
40.126	19.823	1686.536	1306.537
41.140	19.694	1685.570	1304.704
42.155	19.509	1683.913	1301.910
43.169	19.304	1681.920	1298.706
44.184	19.155	1680.793	1296.600
45.199	19.157	1679.051	1295.155
46.213	19.093	1678.556	1294.182
47.228	19.217	1677.332	1294.054
48.242	19.427	1676.558	1294.917
49.257	19.547	1676.054	1295.315
50.271	19.517	1674.718	1293.942
51.286	19.541	1673.035	1292.707
52.301	19.598	1671.764	1292.041
53.315	19.596	1670.224	1290.722
54.330	19.536	1669.004	1289.213
55.344	19.400	1667.010	1286.546
56.359	19.336	1665.692	1284.936
57.374	19.227	1664.619	1283.183
58.388	19.148	1663.663	1281.748
59.403	19.143	1661.990	1280.303
60.417	19.126	1660.104	1278.610
61.432	19.063	1660.053	1277.991
62.447	19.009	1658.535	1276.308
63.461	19.088	1656.888	1275.513
64.476	18.966	1656.152	1273.932
65.490	18.864	1655.107	1272.262
66.505	18.901	1653.323	1271.048
67.520	18.886	1652.787	1270.415
68.534	18.917	1651.497	1269.540
69.549	18.965	1650.464	1268.988
70.563	18.988	1648.891	1267.833
71.578	18.889	1648.067	1266.362
72.593	18.768	1646.612	1264.237
73.607	18.736	1645.541	1263.073
74.622	18.634	1644.472	1261.385
75.636	18.671	1644.057	1261.232
76.651	18.689	1643.319	1260.688
77.666	18.756	1642.405	1260.362
78.680	18.793	1641.688	1259.975
79.695	18.831	1640.876	1259.519
80.709	19.002	1639.679	1259.739
81.724	18.978	1639.260	1259.132
82.739	19.188	1638.768	1260.180
83.753	19.239	1637.903	1259.773
84.768	19.320	1637.348	1259.827
85.782	19.542	1636.139	1260.406
86.797	19.656	1635.843	1260.902
87.812	19.686	1635.434	1260.691
88.826	19.760	1633.637	1259.733
89.841	19.543	1632.987	1257.541
90.855	19.471	1632.246	1256.334
91.870	19.687	1630.715	1256.612
92.884	19.754	1629.883	1256.354
93.899	19.754	1628.993	1255.556
94.914	19.891	1627.548	1255.321
95.928	19.920	1626.092	1254.295
96.943	19.947	1625.076	1253.595
97.957	19.782	1623.764	1251.283
98.972	19.690	1622.387	1249.443
99.987	19.762	1620.398	1248.320
101.001	19.676	1619.260	1246.716
102.016	19.776	1617.518	1245.988
103.030	19.738	1616.209	1244.590
104.045	19.728	1615.297	1243.704
105.060	19.718	1613.990	1242.519
106.074	19.616	1612.210	1240.304
107.089	19.390	1610.753	1237.455
108.103	19.046	1608.416	1233.082
109.118	18.857	1606.801	1230.388
110.133	18.849	1605.222	1229.007
111.147	18.848	1603.981	1227.944
112.162	18.921	1603.079	1227.663
113.176	18.866	1602.026	1226.357
114.191	19.071	1600.028	1226.180
115.206	19.072	1599.088	1225.362
116.220	19.060	1597.837	1224.205
117.235	19.082	1597.165	1223.739
118.249	19.023	1595.429	1221.881
119.264	18.937	1594.067	1220.122
120.279	18.944	1592.302	1218.710
121.293	18.837	1590.870	1216.751
122.308	18.848	1588.926	1215.234
123.322	18.738	1587.436	1213.208
124.337	18.674	1585.305	1211.021
125.352	18.613	1584.980	1210.239
126.366	18.469	1583.849	1208.253
127.381	18.539	1582.622	1207.699
128.395	18.620	1581.131	1207.024
129.410	18.537	1580.211	1205.633
130.424	18.582	1578.649	1204.652
131.439	18.690	1577.616	1204.518
132.454	18.811	1575.880	1203.927
133.468	18.886	1575.253	1203.869
134.483	18.973	1573.825	1203.277
135.497	19.007	1572.042	1202.046
136.512	19.011	1570.809	1201.029
137.527	19.085	1569.658	1200.555
138.541	19.117	1568.906	1200.096
139.556	19.153	1567.262	1198.984
140.570	19.172	1566.444	1198.389
141.585	19.393	1564.684	1198.471
142.600	19.420	1563.774	1197.852
143.614	19.578	1562.893	1198.173
144.629	19.611	1561.801	1197.454
145.643	19.667	1560.852	1197.011
146.658	19.834	1558.874	1196.544
147.673	19.664	1557.854	1194.479
148.687	19.469	1556.171	1191.736
149.702	19.348	1554.367	1189.415
150.716	19.179	1552.955	1187.066
151.731	19.043	1551.917	1185.230
152.746	19.120	1550.172	1184.322
153.760	19.166	1548.274	1183.084
154.775	19.168	1547.380	1182.306
155.789	19.235	1546.681	1182.131
156.804	19.436	1545.236	1182.294
157.819	19.359	1544.346	1180.985
158.833	19.522	1543.012	1180.973
159.848	19.571	1542.014	1180.441
160.862	19.723	1541.024	1180.616
161.877	19.811	1539.749	1180.138
162.892	19.569	1538.388	1177.343
163.906	19.306	1536.395	1173.918
164.921	19.154	1535.294	1171.942
165.935	19.084	1534.797	1170.983
166.950	19.239	1533.118	1170.647
167.964	19.239	1532.294	1169.917
168.979	19.363	1531.274	1169.879
169.994	19.358	1530.393	1169.064
171.008	19.262	1529.373	1167.534
172.023	19.327	1527.994	1166.818
173.037	19.304	1526.963	1165.769
174.052	19.458	1526.080	1166.035
175.067	19.662	1525.568	1166.915
176.081	19.459	1524.113	1164.328
177.096	19.307	1521.705	1161.363
178.110	19.225	1520.560	1159.835
179.125	19.090	1519.834	1158.272
180.140	19.259	1518.496	1158.282
181.154	19.261	1517.949	1157.780
182.169	19.497	1516.506	1158.158
183.183	19.583	1515.944	1158.206
184.198	19.594	1515.119	1157.546
185.213	19.675	1514.161	1157.252
186.227	19.689	1513.211	1156.517
187.242	19.690	1511.937	1155.448
188.256	19.768	1511.122	1155.243
189.271	19.936	1510.391	1155.705
190.286	20.011	1508.916	1154.979
191.300	19.884	1508.472	1153.684
192.315	19.566	1506.281	1149.792
193.329	19.249	1504.328	1146.094
194.344	19.120	1503.664	1144.626
195.359	19.246	1502.960	1144.824
196.373	19.398	1502.122	1145.096
197.388	19.397	1501.081	1144.195
198.402	19.409	1500.144	1143.457
199.417	19.701	1498.897	1144.340
200.432	19.852	1498.626	1145.033
201.446	20.031	1498.082	1145.697
202.461	20.135	1497.019	1145.469
203.475	20.243	1496.046	1145.339
204.490	20.309	1495.010	1144.882
205.504	20.170	1493.717	1142.872
206.519	19.880	1492.169	1139.677
207.534	19.742	1490.746	1137.585
208.548	19.684	1489.660	1136.272
209.563	19.645	1489.159	1135.535
210.577	19.738	1488.069	1135.214
211.592	19.727	1486.986	1134.213
212.607	19.824	1486.431	1134.326
213.621	19.917	1485.942	1134.460
214.636	20.068	1484.930	1134.577
215.650	20.015	1484.012	1133.429
216.665	19.947	1483.275	1132.323
217.680	20.026	1482.261	1131.965
218.694	20.157	1481.766	1132.338
219.709	20.375	1480.778	1132.908
220.723	20.309	1479.595	1131.474
221.738	20.201	1478.967	1130.184
222.753	20.161	1477.764	1128.907
223.767	20.146	1476.910	1128.060
224.782	20.048	1476.024	1126.644
225.796	20.167	1475.123	1126.631
226.811	20.317	1474.711	1127.188
227.826	20.314	1474.383	1126.820
228.840	20.243	1472.761	1125.022
229.855	20.047	1472.179	1123.206
230.869	19.978	1470.949	1121.719
231.884	20.118	1469.403	1121.349
232.899	20.041	1468.441	1120.017
233.913	19.882	1467.100	1117.868
234.928	19.862	1465.346	1116.305
235.942	19.896	1464.325	1115.647
236.957	19.672	1463.477	1113.457
237.972	19.703	1462.141	1112.541
238.986	19.737	1461.185	1111.933
240.001	19.766	1460.205	1111.278
241.015	19.749	1459.177	1110.285
242.030	19.735	1457.974	1109.181
243.045	19.863	1456.997	1109.162
244.059	19.912	1456.486	1108.993
245.074	20.057	1455.422	1109.013
246.088	20.142	1454.695	1108.903
247.103	20.118	1454.684	1108.642
248.117	20.284	1453.286	1108.539
249.132	20.245	1453.184	1108.112
250.147	20.382	1453.036	1108.777
251.161	20.610	1452.686	1109.868
252.176	20.968	1451.858	1111.418
253.190	20.933	1451.269	1110.649
254.205	21.101	1450.268	1110.852
255.220	21.051	1449.412	1109.778
256.234	21.160	1449.016	1110.072
257.249	21.124	1447.682	1108.726
258.263	21.094	1447.140	1108.019
259.278	21.075	1446.042	1106.959
260.293	21.113	1444.770	1106.129
261.307	21.001	1444.079	1104.792
262.322	21.103	1443.698	1105.050
263.336	21.140	1443.492	1105.027
264.351	21.229	1441.807	1104.204
265.366	21.236	1440.614	1103.236
266.380	21.225	1440.421	1102.920
267.395	21.250	1439.081	1101.957
268.409	21.231	1438.667	1101.420
269.424	21.174	1436.900	1099.610
270.439	21.023	1435.426	1097.439
271.453	21.030	1434.322	1096.542
272.468	21.091	1433.584	1096.262
273.482	20.890	1433.026	1094.473
274.497	20.797	1431.976	1092.997
275.512	20.733	1431.212	1091.912
276.526	20.698	1430.643	1091.163
277.541	20.779	1429.433	1090.653
278.555	20.701	1429.192	1089.880
279.570	20.831	1427.166	1089.055
280.585	20.875	1426.959	1089.072
281.599	21.241	1425.957	1090.500
282.614	21.253	1425.726	1090.299
283.628	21.229	1424.006	1088.736
284.643	20.879	1423.201	1085.849
285.657	20.926	1421.633	1084.845
286.672	20.863	1421.143	1083.983
287.687	20.953	1419.707	1083.353
288.701	20.881	1418.934	1082.221
289.716	21.029	1417.923	1082.272
290.730	21.117	1416.948	1081.976
291.745	20.990	1416.182	1080.507
292.760	20.941	1415.404	1079.517
293.774	21.032	1414.579	1079.357
294.789	21.064	1413.560	1078.679
295.803	21.223	1412.899	1079.062
296.818	21.255	1412.253	1078.672
297.833	21.130	1410.925	1076.789
298.847	21.057	1409.858	1075.430
299.862	21.051	1408.927	1074.586
300.876	21.123	1407.714	1074.012
301.891	21.091	1407.312	1073.411
302.906	21.170	1406.725	1073.354
303.920	21.200	1406.327	1073.138
304.935	21.370	1405.702	1073.613
305.949	21.515	1404.347	1073.376
306.964	21.603	1403.797	1073.397
307.979	21.772	1402.982	1073.714
308.993	21.523	1401.694	1071.108
310.008	21.417	1400.747	1069.641
311.022	21.577	1399.228	1069.368
312.037	21.601	1398.858	1069.132
313.052	21.726	1397.589	1068.832
314.066	21.535	1396.973	1067.104
315.081	21.341	1395.664	1064.826
316.095	21.139	1394.244	1062.421
317.110	20.930	1393.330	1060.355
318.125	20.991	1392.088	1059.689
319.139	21.192	1391.215	1060.152
320.154	21.114	1390.077	1058.715
321.168	21.132	1389.346	1058.176
322.183	21.085	1388.326	1057.020
323.197	21.064	1387.635	1056.275
324.212	21.128	1386.648	1055.815
325.227	21.109	1386.356	1055.384
326.241	21.293	1385.311	1055.609
327.256	21.255	1383.971	1054.264
328.270	21.203	1383.421	1053.439
329.285	21.180	1382.355	1052.395
330.300	21.236	1381.294	1051.833
331.314	21.121	1381.081	1050.882
332.329	21.190	1379.548	1050.040
333.343	21.186	1378.691	1049.272
334.358	21.144	1378.047	1048.436
335.373	21.404	1377.342	1049.369
336.387	21.536	1376.691	1049.570
337.402	21.506	1376.440	1049.108
338.416	21.625	1375.321	1048.873
339.431	21.602	1375.017	1048.408
340.446	21.684	1374.431	1048.359
341.460	21.840	1373.431	1048.440
342.475	21.908	1372.613	1048.127
343.489	21.952	1371.664	1047.571
344.504	22.046	1370.931	1047.480
345.519	22.060	1370.334	1047.013
346.533	22.158	1369.109	1046.568
347.548	22.116	1368.179	1045.520
348.562	22.254	1367.799	1045.957
349.577	22.369	1366.839	1045.812
350.592	22.053	1365.903	1043.129
351.606	21.747	1365.156	1040.645
352.621	21.734	1363.227	1039.006
353.635	21.637	1361.827	1037.272
354.650	21.558	1360.827	1035.955
355.665	21.505	1360.034	1034.944
356.679	21.523	1358.984	1034.162
357.694	21.626	1358.233	1034.104
358.708	21.764	1356.884	1033.798
359.723	21.792	1356.278	1033.411
360.738	21.890	1355.236	1033.104
361.752	21.942	1354.089	1032.443
362.767	21.870	1353.029	1031.120
363.781	21.802	1352.054	1029.886
364.796	21.921	1351.112	1029.777
365.810	22.096	1350.264	1030.064
366.825	22.131	1350.198	1030.131
367.840	22.181	1349.930	1030.127
368.854	22.380	1349.291	1030.715
369.869	22.576	1348.699	1031.317
370.883	22.435	1348.252	1030.063
371.898	22.440	1347.295	1029.267
372.913	22.285	1346.220	1027.447
373.927	22.215	1344.854	1025.910
374.942	22.187	1344.605	1025.461
375.956	22.349	1344.160	1025.976
376.971	22.428	1342.999	1025.459
377.986	22.374	1341.762	1024.111
379.000	22.411	1341.049	1023.693
380.015	22.438	1340.928	1023.668
381.029	22.512	1340.401	1023.602
382.044	22.696	1339.663	1024.016
383.059	22.725	1338.514	1023.216
384.073	22.609	1337.830	1021.933
385.088	22.658	1337.199	1021.643
386.102	22.656	1336.359	1020.896
387.117	22.611	1335.852	1020.159
388.132	22.521	1335.109	1018.980
389.146	22.341	1333.432	1016.574
390.161	22.242	1332.569	1015.255
391.175	22.171	1332.177	1014.455
392.190	22.222	1330.782	1013.599
393.205	22.234	1330.585	1013.425
394.219	22.479	1329.504	1013.922
395.234	22.592	1328.284	1013.551
396.248	22.431	1327.160	1011.679
397.263	22.422	1325.202	1010.050
398.278	22.357	1324.083	1008.730
399.292	22.294	1322.926	1007.403
400.307	22.111	1322.008	1005.564
401.321	22.047	1320.769	1004.167
402.336	21.897	1320.037	1002.668
403.350	22.042	1318.477	1002.219
404.365	22.025	1317.774	1001.499
405.380	22.121	1316.942	1001.328
406.394	22.203	1316.235	1001.166
407.409	22.233	1315.908	1000.998
408.423	22.338	1315.016	1000.828
409.438	22.632	1314.561	1002.069
410.453	22.614	1314.036	1001.477
411.467	22.705	1313.207	1001.269
412.482	22.896	1312.573	1001.782
413.496	22.862	1312.276	1001.276
414.511	22.930	1311.363	1000.874
415.526	23.038	1310.792	1000.960
416.540	23.037	1310.510	1000.652
417.555	23.084	1309.516	1000.070
418.569	23.273	1308.853	1000.543
419.584	23.065	1308.319	998.872
420.599	22.969	1307.401	997.543
421.613	147.140	1434.610	1795.683
422.628	142.684	1453.077	1795.773
