DTS Sentinel unit serial number:	SN413079Multiplexer serial number:	ORYXHardware model number:	OX4-SRSoftware version number:	ORYX F/W v4.00 Oryx Data Collector v3.7.2.0data status	okinstallation	princeton_trtdifferential loss correction	single-endedforward channel	channel 4reverse channel	N/Adate	2019/09/17time	05:13:35forward acquisition time	60.00reverse acquisition time	0.00gamma	496.2192k internal	0.2312k external	0.2312temperature offset calibration	0.9979default loss term (dB/km)	0.3790temperature slope calibration	1.0000multiplexer offset coefficient	1.0000multiplexer slope coefficient	1.0000fibre end	0.00T internal ref (°C)	29.39T ext. ref 1 (°C)	0.14T ext. ref 2 (°C)	23.83length (m)	temperature (°C)	Stokes	anti-Stokes-747.200	90.830	0.081	-0.092
-746.185	800.000	-0.076	0.245
-745.171	153.062	-0.102	0.142
-744.156	-200.000	0.060	0.587
-743.142	24.599	-0.082	-0.069
-742.127	771.190	-0.014	-0.039
-741.112	-39.158	0.235	0.125
-740.098	121.809	-0.171	0.217
-739.083	-64.945	0.183	0.075
-738.069	-200.000	-0.045	0.385
-737.054	221.254	-0.164	0.267
-736.039	-200.000	-0.025	0.124
-735.025	54.426	0.193	0.189
-734.010	46.051	0.157	0.148
-732.996	31.882	-0.265	-0.231
-731.981	252.266	-0.022	0.037
-730.966	140.814	-0.086	0.115
-729.952	-192.214	-0.243	0.002
-728.937	-200.000	0.010	0.158
-727.923	-200.000	-0.043	0.193
-726.908	-200.000	-0.012	-0.172
-725.894	-200.000	-0.001	-0.060
-724.879	-200.000	-0.008	0.206
-723.864	37.938	-0.378	-0.341
-722.850	-95.608	-0.260	-0.071
-721.835	-91.903	0.049	-0.014
-720.821	-200.000	0.067	0.430
-719.806	449.661	-0.106	-0.237
-718.791	22.426	-0.073	-0.061
-717.777	336.880	0.129	-0.254
-716.762	243.320	-0.085	0.145
-715.748	368.914	-0.190	0.389
-714.733	-75.045	-0.178	-0.064
-713.718	425.754	-0.178	-0.388
-712.704	10.516	-0.205	-0.158
-711.689	800.000	0.024	0.100
-710.675	30.062	-0.044	0.038
-709.660	203.077	-0.022	0.035
-708.645	-89.937	-0.251	0.074
-707.631	-109.813	0.149	-0.032
-706.616	-200.000	-0.011	-0.497
-705.602	481.207	0.123	-0.283
-704.587	-130.077	0.263	0.036
-703.572	-175.717	-0.115	-0.003
-702.558	51.195	-0.255	-0.245
-701.543	800.000	-0.085	0.358
-700.529	-25.867	-0.264	0.157
-699.514	778.925	0.085	-0.234
-698.499	-11.021	-0.057	-0.038
-697.485	800.000	-0.025	-0.101
-696.470	256.676	0.236	0.410
-695.456	-99.070	0.120	-0.031
-694.441	-104.190	0.536	-0.126
-693.426	-200.000	-0.038	-0.183
-692.412	120.960	-0.200	-0.252
-691.397	169.832	0.135	0.196
-690.383	-200.000	0.009	0.196
-689.368	-200.000	-0.024	0.299
-688.354	-29.389	-0.153	-0.089
-687.339	800.000	0.041	-0.174
-686.324	-3.258	-0.346	-0.244
-685.310	-101.917	0.489	-0.120
-684.295	-91.870	-0.190	0.054
-683.281	-127.407	0.213	-0.031
-682.266	362.037	-0.125	0.254
-681.251	-75.016	0.243	-0.088
-680.237	800.000	-0.078	0.274
-679.222	-33.579	0.153	-0.086
-678.208	-40.636	0.112	-0.059
-677.193	-157.450	0.031	0.002
-676.178	68.703	-0.152	0.158
-675.164	800.000	-0.076	-0.285
-674.149	81.675	0.250	0.274
-673.135	137.462	-0.057	0.075
-672.120	-200.000	0.036	0.233
-671.105	47.226	-0.147	0.138
-670.091	105.325	-0.169	-0.202
-669.076	-127.389	0.113	-0.017
-668.062	230.509	0.053	-0.087
-667.047	-154.506	0.057	0.004
-666.032	494.642	0.027	-0.063
-665.018	91.992	0.078	0.089
-664.003	-108.949	-0.284	-0.061
-662.989	104.121	0.222	0.265
-661.974	-200.000	0.057	0.266
-660.959	-200.000	0.025	0.199
-659.945	665.909	-0.037	0.096
-658.930	-60.815	0.187	0.080
-657.916	75.718	-0.168	0.179
-656.901	126.387	-0.151	-0.193
-655.886	-103.119	-0.326	0.078
-654.872	2.619	-0.108	0.079
-653.857	-39.109	-0.129	-0.068
-652.843	-155.748	-0.263	0.017
-651.828	800.000	0.067	0.284
-650.814	-110.005	0.448	0.095
-649.799	-20.862	0.078	0.048
-648.784	-2.206	-0.169	0.120
-647.770	35.826	0.149	0.133
-646.755	-200.000	0.023	-0.334
-645.741	800.000	-0.095	-0.283
-644.726	-160.662	0.068	0.004
-643.711	-169.303	0.184	0.007
-642.697	87.466	0.100	-0.111
-641.682	800.000	0.038	-0.127
-640.668	375.662	0.207	-0.428
-639.653	-200.000	-0.014	-0.244
-638.638	13.935	0.159	0.125
-637.624	214.017	0.019	0.031
-636.609	-49.036	-0.130	0.063
-635.595	-195.923	0.211	0.002
-634.580	-68.842	-0.372	-0.145
-633.565	800.000	0.067	-0.206
-632.551	726.800	-0.083	-0.225
-631.536	-23.042	0.159	0.097
-630.522	258.514	0.073	-0.127
-629.507	-200.000	0.025	0.339
-628.492	38.082	0.206	0.185
-627.478	314.714	-0.154	0.293
-626.463	77.596	-0.307	0.330
-625.449	-62.800	0.146	0.061
-624.434	800.000	0.069	0.252
-623.419	-145.298	-0.125	-0.011
-622.405	-158.658	-0.232	0.013
-621.390	140.714	0.062	0.082
-620.376	-200.000	0.056	-0.317
-619.361	-200.000	-0.008	0.193
-618.346	-200.000	0.151	0.000
-617.332	-104.886	-0.346	-0.080
-616.317	-169.627	-0.242	0.009
-615.303	-58.287	0.081	-0.036
-614.288	-200.000	-0.079	-0.435
-613.273	0.305	0.303	0.219
-612.259	-32.280	0.227	0.128
-611.244	-200.000	0.020	0.151
-610.230	-146.976	-0.054	0.005
-609.215	619.870	0.055	-0.140
-608.201	-139.107	0.274	0.030
-607.186	-124.888	0.103	0.016
-606.171	800.000	0.019	0.076
-605.157	-157.066	0.261	0.016
-604.142	-26.188	-0.197	-0.117
-603.128	158.632	-0.086	0.120
-602.113	800.000	0.062	0.187
-601.098	-108.769	0.313	-0.068
-600.084	-200.000	0.018	0.279
-599.069	-200.000	-0.169	0.000
-598.055	-200.000	0.065	-0.321
-597.040	800.000	0.047	0.187
-596.025	-200.000	-0.007	0.060
-595.011	800.000	0.079	0.286
-593.996	-146.945	-0.093	-0.008
-592.982	-111.609	-0.132	-0.027
-591.967	353.914	0.042	-0.084
-590.952	-200.000	0.039	-0.224
-589.938	-134.280	0.450	-0.056
-588.923	-200.000	0.061	-0.340
-587.909	26.691	-0.295	-0.249
-586.894	-39.497	-0.240	-0.127
-585.879	-114.575	-0.112	-0.022
-584.865	38.694	-0.171	-0.154
-583.850	69.612	-0.184	-0.191
-582.836	211.678	0.068	0.107
-581.821	-95.536	-0.330	-0.089
-580.806	-96.555	-0.052	-0.014
-579.792	204.195	0.017	0.027
-578.777	-200.000	-0.025	0.217
-577.763	-71.271	-0.172	0.065
-576.748	-127.458	0.087	0.013
-575.733	197.857	-0.347	0.534
-574.719	-137.718	0.194	0.022
-573.704	61.274	0.121	0.121
-572.690	49.864	0.188	0.178
-571.675	347.061	0.066	-0.131
-570.661	-82.928	-0.386	0.126
-569.646	-76.485	0.164	-0.058
-568.631	800.000	-0.078	-0.299
-567.617	800.000	0.020	-0.079
-566.602	89.357	-0.270	-0.303
-565.588	345.161	0.011	0.021
-564.573	-200.000	0.011	-0.087
-563.558	-155.193	-0.027	-0.002
-562.544	463.740	-0.032	0.073
-561.529	51.452	-0.074	0.071
-560.515	-172.890	0.086	0.003
-559.500	800.000	-0.051	-0.163
-558.485	-161.490	-0.421	0.022
-557.471	193.234	-0.070	0.107
-556.456	-89.790	0.204	0.060
-555.442	206.125	0.117	0.183
-554.427	800.000	-0.068	-0.216
-553.412	-160.881	-0.301	0.016
-552.398	800.000	-0.061	-0.229
-551.383	254.814	0.089	0.154
-550.369	684.148	0.048	-0.126
-549.354	-34.068	0.125	-0.069
-548.339	-173.555	0.112	-0.003
-547.325	-200.000	0.040	0.215
-546.310	800.000	-0.030	0.106
-545.296	291.216	-0.036	0.065
-544.281	-200.000	0.027	0.243
-543.266	277.910	-0.041	0.074
-542.252	800.000	0.046	0.140
-541.237	-76.452	0.139	0.049
-540.223	-20.817	-0.190	0.117
-539.208	164.535	-0.092	-0.131
-538.193	80.071	0.092	0.099
-537.179	-171.707	0.205	0.007
-536.164	353.572	-0.022	0.043
-535.150	181.951	0.163	-0.241
-534.135	60.860	0.326	-0.325
-533.121	-72.371	-0.024	-0.009
-532.106	-200.000	0.015	0.174
-531.091	-61.922	0.080	0.033
-530.077	88.130	-0.073	-0.081
-529.062	-10.886	0.231	-0.153
-528.048	99.651	-0.099	-0.115
-527.033	106.397	0.207	0.246
-526.018	714.200	0.062	0.164
-525.004	-118.020	0.225	-0.040
-523.989	-200.000	-0.027	-0.156
-522.975	800.000	0.105	-0.430
-521.960	290.775	0.127	0.232
-520.945	688.799	-0.074	0.195
-519.931	394.220	0.075	-0.158
-518.916	-200.000	-0.059	-0.264
-517.902	67.751	0.051	-0.053
-516.887	-82.044	-0.256	-0.084
-515.872	-119.856	-0.067	0.012
-514.858	-114.501	0.097	-0.019
-513.843	-92.329	-0.334	-0.095
-512.829	207.176	0.120	-0.189
-511.814	-29.821	-0.075	0.043
-510.799	-150.615	0.479	-0.037
-509.785	46.290	-0.187	-0.174
-508.770	113.737	-0.145	-0.177
-507.756	98.734	0.132	0.153
-506.741	-200.000	0.032	0.147
-505.726	800.000	0.044	-0.148
-504.712	-200.000	-0.014	0.063
-503.697	21.307	0.119	-0.097
-502.683	-76.157	0.282	-0.100
-501.668	-135.039	-0.224	0.027
-500.653	800.000	-0.034	-0.096
-499.639	800.000	-0.025	-0.106
-498.624	129.040	-0.066	-0.085
-497.610	493.889	0.099	0.229
-496.595	-91.239	0.325	0.094
-495.581	-110.155	0.374	-0.078
-494.566	272.145	0.095	0.169
-493.551	-200.000	0.039	0.176
-492.537	230.710	0.068	-0.111
-491.522	-200.000	-0.082	0.395
-490.508	-200.000	-0.009	-0.131
-489.493	-200.000	-0.001	0.163
-488.478	757.495	-0.082	-0.222
-487.464	-200.000	-0.045	-0.316
-486.449	-85.857	-0.260	0.081
-485.435	800.000	0.060	0.249
-484.420	248.082	0.033	0.056
-483.405	-60.626	0.100	-0.043
-482.391	701.419	-0.084	-0.222
-481.376	7.095	-0.211	-0.158
-480.362	-38.091	-0.249	0.133
-479.347	316.444	-0.084	-0.159
-478.332	-47.634	-0.120	0.059
-477.318	-146.512	-0.378	-0.033
-476.303	65.692	0.222	-0.225
-475.289	-135.594	-0.203	0.024
-474.274	800.000	-0.059	-0.231
-473.259	61.689	0.086	-0.086
-472.245	-47.871	-0.216	0.105
-471.230	800.000	0.078	0.278
-470.216	-155.532	-0.329	0.021
-469.201	-200.000	0.009	0.062
-468.186	-200.000	-0.063	-0.353
-467.172	-45.216	-0.124	0.062
-466.157	-200.000	0.009	-0.111
-465.143	53.226	-0.222	-0.213
-464.128	800.000	0.044	-0.166
-463.113	-124.608	0.215	-0.033
-462.099	37.955	-0.134	0.119
-461.084	-38.567	-0.344	-0.182
-460.070	-81.219	0.055	0.018
-459.055	240.146	-0.185	-0.309
-458.040	-97.571	0.390	0.102
-457.026	-77.202	0.054	0.019
-456.011	38.228	-0.257	0.230
-454.997	-39.382	0.182	0.096
-453.982	-200.000	0.001	0.289
-452.968	-200.000	-0.024	0.217
-451.953	4.705	0.133	-0.098
-450.938	292.454	-0.137	0.251
-449.924	-200.000	0.023	-0.118
-448.909	93.313	0.300	-0.341
-447.895	-200.000	0.040	0.242
-446.880	11.496	0.120	-0.092
-445.865	800.000	0.024	-0.102
-444.851	70.186	0.228	-0.236
-443.836	-81.162	-0.145	-0.048
-442.822	-200.000	0.006	-0.245
-441.807	5.438	-0.071	-0.052
-440.792	-23.065	-0.065	-0.040
-439.778	433.431	0.056	0.122
-438.763	-16.597	0.107	0.068
-437.749	156.659	-0.216	0.300
-436.734	452.301	-0.146	-0.323
-435.719	161.771	0.118	0.166
-434.705	-200.000	-0.005	-0.259
-433.690	-200.000	-0.001	0.479
-432.676	800.000	-0.088	0.304
-431.661	166.089	0.129	-0.182
-430.646	-56.015	-0.324	0.145
-429.632	-144.760	0.286	0.026
-428.617	-36.556	-0.093	-0.050
-427.603	-32.576	0.076	0.043
-426.588	-87.045	0.020	0.006
-425.573	-200.000	0.041	0.213
-424.559	30.081	0.110	0.094
-423.544	-85.198	-0.275	0.086
-422.530	182.261	-0.126	0.186
-421.515	-200.000	-0.005	-0.092
-420.500	24.907	-0.150	-0.125
-419.486	775.238	-0.042	0.116
-418.471	-200.000	-0.030	-0.338
-417.457	122.393	-0.046	-0.058
-416.442	-200.000	-0.067	-0.498
-415.428	12.161	0.144	0.111
-414.413	-117.186	-0.125	0.023
-413.398	800.000	0.077	0.226
-412.384	-200.000	0.031	0.469
-411.369	-200.000	0.031	-0.195
-410.355	-97.154	0.149	-0.039
-409.340	-182.002	-0.220	-0.004
-408.325	800.000	0.076	-0.238
-407.311	-200.000	0.006	-0.259
-406.296	-91.840	0.165	0.047
-405.282	-200.000	-0.036	-0.291
-404.267	-34.707	-0.339	0.185
-403.252	-66.818	0.178	0.071
-402.238	35.098	-0.136	0.119
-401.223	-111.839	-0.526	0.106
-400.209	-132.059	0.239	0.031
-399.194	402.437	-0.124	0.261
-398.179	-122.135	-0.365	0.060
-397.165	-10.357	-0.083	-0.055
-396.150	-35.713	-0.146	0.079
-395.136	800.000	-0.044	-0.128
-394.121	-72.121	0.117	-0.043
-393.106	158.496	0.232	0.322
-392.092	209.541	0.117	-0.183
-391.077	-15.147	-0.226	-0.145
-390.063	83.095	0.241	-0.263
-389.048	800.000	0.037	0.133
-388.033	-200.000	0.046	0.245
-387.019	-138.322	0.347	0.038
-386.004	-200.000	0.034	0.272
-384.990	-121.636	-0.361	0.060
-383.975	-12.845	-0.159	-0.104
-382.960	-22.968	0.288	-0.174
-381.946	-200.000	-0.009	-0.091
-380.931	1.824	-0.403	-0.291
-379.917	329.047	-0.066	0.126
-378.902	196.156	-0.119	0.181
-377.888	-11.038	-0.183	0.121
-376.873	-11.093	0.125	-0.083
-375.858	-16.605	-0.187	0.118
-374.844	640.676	0.047	-0.120
-373.829	635.377	-0.094	0.238
-372.815	-117.641	0.079	0.014
-371.800	-35.190	0.136	-0.074
-370.785	-148.711	-0.048	-0.004
-369.771	-92.363	-0.614	-0.173
-368.756	800.000	-0.038	-0.146
-367.742	-89.982	-0.130	0.038
-366.727	-56.718	0.294	0.130
-365.712	-200.000	-0.048	0.293
-364.698	164.926	0.049	-0.069
-363.683	114.709	0.126	0.154
-362.669	-169.509	0.106	-0.004
-361.654	80.272	-0.185	-0.198
-360.639	28.466	0.136	-0.115
-359.625	-135.352	0.026	0.003
-358.610	478.651	-0.153	-0.346
-357.596	599.633	-0.034	-0.084
-356.581	-79.785	0.226	-0.076
-355.566	-200.000	-0.013	0.366
-354.552	-200.000	0.004	0.173
-353.537	132.343	0.116	-0.150
-352.523	649.053	-0.046	0.119
-351.508	134.788	-0.084	-0.109
-350.493	-63.866	-0.271	-0.111
-349.479	253.309	0.082	-0.140
-348.464	-114.433	-0.153	0.029
-347.450	800.000	0.054	-0.198
-346.435	-72.123	-0.213	0.079
-345.420	-200.000	0.008	0.251
-344.406	-30.455	-0.197	0.111
-343.391	11.491	0.244	-0.187
-342.377	490.778	0.062	-0.142
-341.362	-146.296	0.141	0.012
-340.348	9.103	0.128	-0.096
-339.333	-3.874	0.145	0.100
-338.318	-200.000	-0.027	0.414
-337.304	-162.565	0.210	-0.010
-336.289	145.589	-0.015	-0.020
-335.275	-6.393	0.143	0.097
-334.260	-5.797	0.174	0.119
-333.245	-114.125	0.224	0.043
-332.231	-14.899	0.109	-0.070
-331.216	135.184	-0.103	0.133
-330.202	13.142	-0.153	-0.119
-329.187	14.011	0.427	0.331
-328.172	61.089	0.173	-0.171
-327.158	-144.122	-0.065	-0.006
-326.143	69.941	0.048	-0.049
-325.129	85.331	-0.166	-0.182
-324.114	-200.000	-0.037	-0.188
-323.099	-21.505	-0.294	0.179
-322.085	-147.470	0.124	0.010
-321.070	140.461	-0.196	-0.258
-320.056	-24.040	0.303	0.181
-319.041	5.957	-0.073	-0.054
-318.026	9.024	0.203	-0.153
-317.012	800.000	0.056	0.181
-315.997	98.989	0.164	0.189
-314.983	-139.746	0.089	-0.009
-313.968	-200.000	0.031	-0.362
-312.953	-118.425	-0.191	-0.034
-311.939	-140.939	-0.228	0.023
-310.924	645.328	-0.172	0.438
-309.910	-200.000	0.019	0.166
-308.895	-149.666	0.166	0.013
-307.880	-16.715	-0.133	-0.084
-306.866	-161.888	-0.175	-0.009
-305.851	78.069	-0.197	-0.210
-304.837	668.990	0.126	-0.324
-303.822	-35.106	0.085	0.046
-302.807	-122.942	-0.495	-0.079
-301.793	-130.435	0.263	-0.035
-300.778	800.000	-0.097	-0.317
-299.764	210.648	-0.188	0.295
-298.749	-8.473	-0.159	-0.107
-297.735	800.000	-0.091	-0.318
-296.720	176.259	-0.036	0.051
-295.705	719.151	0.084	-0.224
-294.691	350.009	0.052	-0.103
-293.676	58.552	-0.097	-0.095
-292.662	166.517	-0.161	0.228
-291.647	-159.309	-0.379	0.021
-290.632	303.788	0.192	-0.354
-289.618	-50.776	-0.121	0.057
-288.603	-33.990	0.290	-0.159
-287.589	-83.742	-0.523	-0.166
-286.574	14.237	0.201	-0.156
-285.559	19.443	0.278	0.222
-284.545	-110.245	-0.153	0.032
-283.530	-21.309	0.147	-0.090
-282.516	-128.582	0.058	0.008
-281.501	-17.030	0.151	0.095
-280.486	800.000	0.150	-0.430
-279.472	123.226	0.112	0.140
-278.457	-53.106	-0.187	0.085
-277.443	-10.651	0.282	-0.186
-276.428	-171.390	-0.117	0.004
-275.413	-200.000	-0.017	-0.271
-274.399	10.689	0.065	0.049
-273.384	-85.659	0.174	-0.054
-272.370	-200.000	0.028	-0.124
-271.355	-110.591	0.050	0.010
-270.340	-48.618	0.010	0.005
-269.326	273.889	0.059	0.105
-268.311	-66.222	-0.074	-0.029
-267.297	800.000	-0.119	0.389
-266.282	-8.092	0.183	0.123
-265.267	75.093	-0.045	-0.047
-264.253	335.670	-0.048	0.093
-263.238	394.636	-0.041	-0.084
-262.224	-85.437	0.142	0.044
-261.209	-46.296	0.296	0.145
-260.195	30.566	0.193	-0.164
-259.180	-96.513	-0.108	-0.028
-258.165	131.036	-0.043	-0.055
-257.151	-5.863	0.088	0.060
-256.136	-20.870	-0.132	-0.080
-255.122	-33.880	-0.120	-0.066
-254.107	58.715	-0.117	0.114
-253.092	25.185	0.134	0.111
-252.078	138.532	0.090	0.118
-251.063	159.475	-0.051	-0.071
-250.049	800.000	0.045	0.147
-249.034	88.099	-0.223	0.246
-248.019	386.528	-0.026	0.054
-247.005	358.114	-0.168	-0.334
-245.990	-200.000	-0.000	-0.069
-244.976	-62.917	0.291	-0.120
-243.961	57.111	-0.107	0.104
-242.946	-169.780	-0.169	0.006
-241.932	-137.706	0.113	0.013
-240.917	289.988	0.087	0.157
-239.903	289.306	0.038	0.069
-238.888	-200.000	-0.018	-0.115
-237.873	341.324	0.201	-0.391
-236.859	533.658	0.176	0.414
-235.844	166.719	-0.207	0.293
-234.830	84.677	-0.165	-0.180
-233.815	-200.000	0.007	-0.056
-232.800	141.892	0.056	0.074
-231.786	-74.140	0.386	-0.139
-230.771	533.948	0.135	0.317
-229.757	657.863	0.042	-0.108
-228.742	-200.000	0.023	0.410
-227.727	-154.428	0.422	-0.028
-226.713	142.152	-0.132	-0.174
-225.698	-134.208	-0.156	0.019
-224.684	-200.000	0.004	-0.256
-223.669	115.573	0.050	-0.061
-222.655	99.385	-0.054	0.062
-221.640	434.941	0.054	-0.116
-220.625	800.000	-0.062	0.218
-219.611	16.707	-0.129	0.101
-218.596	-200.000	0.030	0.210
-217.582	503.832	-0.071	-0.163
-216.567	270.232	-0.084	-0.147
-215.552	-200.000	-0.001	0.142
-214.538	-130.578	0.298	-0.040
-213.523	480.432	-0.087	0.196
-212.509	-63.920	0.359	-0.146
-211.494	-164.287	-0.201	-0.009
-210.479	20.423	-0.267	-0.215
-209.465	-200.000	0.026	0.274
-208.450	199.938	-0.085	0.130
-207.436	-200.000	-0.031	-0.143
-206.421	-57.547	-0.137	-0.060
-205.406	109.632	-0.159	0.189
-204.392	-200.000	0.023	0.232
-203.377	32.753	-0.212	-0.182
-202.363	800.000	0.030	0.086
-201.348	-129.080	0.254	0.035
-200.333	-172.263	-0.145	-0.005
-199.319	85.261	-0.091	-0.099
-198.304	-30.339	0.266	-0.150
-197.290	-200.000	0.001	0.060
-196.275	-54.843	-0.029	-0.013
-195.260	-119.967	0.159	-0.027
-194.246	-200.000	0.043	0.261
-193.231	22.279	-0.158	-0.128
-192.217	114.746	0.227	0.275
-191.202	95.665	-0.215	-0.244
-190.187	800.000	-0.096	-0.364
-189.173	800.000	0.043	-0.187
-188.158	296.738	0.103	0.188
-187.144	-15.339	-0.199	0.126
-186.129	-64.651	-0.320	0.129
-185.114	-81.580	0.405	0.132
-184.100	48.652	-0.042	0.039
-183.085	-28.363	0.319	0.183
-182.071	-73.407	-0.081	-0.030
-181.056	573.593	0.092	-0.223
-180.042	473.321	0.029	-0.066
-179.027	-114.660	0.236	-0.045
-178.012	-108.714	0.239	-0.051
-176.998	-78.326	0.126	-0.043
-175.983	-200.000	0.039	0.368
-174.969	-4.734	-0.141	-0.097
-173.954	-200.000	0.025	-0.159
-172.939	-200.000	-0.015	0.117
-171.925	800.000	0.089	0.258
-170.910	-13.157	0.355	0.229
-169.896	100.818	-0.208	-0.240
-168.881	-99.102	0.436	0.109
-167.866	-200.000	0.011	0.086
-166.852	-46.678	0.324	0.158
-165.837	-66.575	-0.110	0.043
-164.823	-113.599	-0.171	0.033
-163.808	57.753	-0.279	0.271
-162.793	800.000	0.049	0.198
-161.779	-38.964	0.267	-0.139
-160.764	-74.941	-0.422	-0.150
-159.750	-200.000	-0.010	0.160
-158.735	138.254	-0.033	-0.042
-157.720	54.851	-0.233	0.223
-156.706	-200.000	0.085	0.371
-155.691	-55.325	-0.135	0.060
-154.677	-200.000	0.047	0.206
-153.662	-18.038	0.234	-0.145
-152.647	196.737	-0.083	0.125
-151.633	-34.748	-0.160	0.087
-150.618	130.049	0.076	-0.096
-149.604	151.736	0.146	0.198
-148.589	11.149	-0.061	0.046
-147.574	26.735	-0.103	-0.086
-146.560	-136.889	0.289	0.033
-145.545	306.558	0.095	-0.175
-144.531	-153.669	0.261	0.018
-143.516	-14.133	0.182	0.116
-142.502	91.417	-0.065	0.072
-141.487	389.027	-0.041	-0.085
-140.472	373.897	0.142	0.286
-139.458	33.335	-0.142	0.122
-138.443	151.424	-0.055	0.074
-137.429	-200.000	0.018	0.235
-136.414	-13.847	-0.194	0.124
-135.399	-61.676	-0.107	0.044
-134.385	56.399	-0.196	-0.189
-133.370	-104.224	0.165	-0.038
-132.356	-87.140	-0.136	0.041
-131.341	35.705	0.131	-0.114
-130.326	60.653	0.131	-0.129
-129.312	-169.881	-0.099	0.004
-128.297	-200.000	-0.031	-0.221
-127.283	-178.408	0.198	0.005
-126.268	47.666	-0.015	0.014
-125.253	20.099	0.077	-0.062
-124.239	800.000	-0.040	-0.116
-123.224	800.000	0.065	0.253
-122.210	-200.000	0.009	0.047
-121.195	-1.238	-0.117	-0.082
-120.180	-200.000	0.007	-0.128
-119.166	-35.507	-0.227	-0.122
-118.151	561.877	0.118	-0.283
-117.137	19.245	-0.158	0.125
-116.122	-27.087	0.120	0.069
-115.107	192.241	-0.050	-0.075
-114.093	800.000	0.032	-0.122
-113.078	-102.485	0.063	0.015
-112.064	255.705	0.110	-0.186
-111.049	-141.628	0.345	0.034
-110.034	517.601	0.090	-0.209
-109.020	36.659	-0.102	0.089
-108.005	335.936	0.115	0.221
-106.991	-127.658	0.407	0.058
-105.976	-200.000	0.011	-0.200
-104.962	-135.410	-0.146	-0.017
-103.947	8.971	-0.107	0.080
-102.932	-43.688	0.244	-0.122
-101.918	-200.000	0.014	0.117
-100.903	286.161	-0.089	-0.159
-99.889	-63.297	-0.199	-0.081
-98.874	-48.842	0.273	0.129
-97.859	-200.000	-0.046	0.381
-96.845	401.201	0.182	-0.378
-95.830	-2.039	-0.282	-0.196
-94.816	800.000	-0.041	0.137
-93.801	-31.561	0.323	-0.179
-92.786	-71.381	-0.447	-0.166
-91.772	-94.116	0.301	-0.081
-90.757	-169.295	0.138	0.005
-89.743	800.000	0.150	0.460
-88.728	-2.292	0.149	-0.103
-87.713	139.303	-0.095	0.124
-86.699	-42.285	-0.124	0.063
-85.684	112.502	-0.115	0.138
-84.670	-36.412	0.225	0.120
-83.655	439.963	-0.132	-0.285
-82.640	164.685	0.049	-0.068
-81.626	-200.000	0.075	0.359
-80.611	800.000	-0.059	-0.208
-79.597	-29.875	-0.126	-0.071
-78.582	14.716	0.097	0.075
-77.567	800.000	-0.013	0.052
-76.553	-182.954	0.141	0.002
-75.538	188.816	-0.102	-0.151
-74.524	118.690	0.231	0.282
-73.509	-111.468	-0.432	-0.087
-72.494	484.046	-0.082	0.184
-71.480	-200.000	-0.026	0.156
-70.465	1.105	0.085	-0.061
-69.451	-200.000	-0.016	-0.111
-68.436	-200.000	0.037	-0.244
-67.422	-36.941	0.501	0.266
-66.407	287.827	-0.124	0.222
-65.392	-83.769	0.251	0.079
-64.378	86.278	-0.204	0.222
-63.363	-73.510	-0.238	0.086
-62.349	-150.047	-0.172	-0.013
-61.334	81.085	-0.962	-1.026
-60.319	90.535	0.498	0.551
-59.305	800.000	-0.400	-1.191
-58.290	231.426	0.761	1.231
-57.276	156.807	0.886	1.209
-56.261	-200.000	109.061	599.821
-55.246	440.218	1492.636	3221.444
-54.232	142.432	2685.147	3520.302
-53.217	96.325	2327.773	2629.197
-52.203	35.747	2077.900	1803.449
-51.188	31.189	1994.474	1689.829
-50.173	29.700	1978.383	1662.746
-49.159	45.919	2035.416	1859.187
-48.144	45.967	2052.813	1875.442
-47.130	31.686	2010.204	1707.417
-46.115	29.419	1999.817	1677.936
-45.100	29.318	1996.725	1674.361
-44.086	29.324	1993.926	1671.996
-43.071	29.238	1991.785	1669.360
-42.057	29.249	1989.660	1667.610
-41.042	29.176	1987.821	1665.343
-40.027	29.219	1986.147	1664.267
-39.013	29.265	1983.893	1662.726
-37.998	29.312	1981.528	1661.102
-36.984	29.329	1980.531	1660.349
-35.969	29.364	1977.606	1658.145
-34.954	29.347	1976.503	1657.000
-33.940	29.378	1974.920	1655.886
-32.925	29.407	1972.717	1654.238
-31.911	29.408	1971.431	1653.103
-30.896	29.480	1969.637	1652.175
-29.881	29.396	1968.323	1650.252
-28.867	29.475	1966.233	1649.147
-27.852	29.419	1964.979	1647.523
-26.838	29.487	1963.066	1646.460
-25.823	29.492	1961.143	1644.828
-24.809	29.419	1959.782	1642.973
-23.794	29.416	1957.752	1641.178
-22.779	29.395	1955.977	1639.443
-21.765	29.348	1954.769	1637.945
-20.750	29.347	1953.189	1636.552
-19.736	29.406	1951.510	1635.596
-18.721	29.365	1950.077	1633.972
-17.706	29.525	1947.656	1633.295
-16.692	29.360	1946.177	1630.533
-15.677	29.370	1945.299	1629.820
-14.663	29.454	1942.899	1628.481
-13.648	29.380	1941.904	1626.931
-12.633	29.400	1940.480	1625.848
-11.619	29.418	1939.369	1625.017
-10.604	29.421	1937.676	1623.553
-9.590	29.305	1936.828	1621.763
-8.575	29.442	1935.355	1621.671
-7.560	29.394	1933.833	1619.906
-6.546	29.461	1932.358	1619.192
-5.531	29.336	1931.554	1617.359
-4.517	29.403	1930.107	1616.667
-3.502	29.427	1928.578	1615.533
-2.487	29.418	1927.654	1614.622
-1.473	29.425	1926.977	1614.050
-0.458	29.428	1921.887	1609.751
0.556	27.434	1901.576	1581.200
1.571	23.210	1882.267	1528.615
2.586	19.245	1905.651	1512.731
3.600	18.241	1939.842	1530.756
4.615	18.081	1935.229	1525.548
5.629	14.216	1834.203	1413.026
6.644	5.672	1714.448	1252.591
7.659	0.735	1676.553	1186.129
8.673	0.207	1673.425	1179.678
9.688	0.202	1672.277	1178.724
10.702	0.176	1670.610	1177.239
11.717	-0.035	1667.355	1173.190
12.731	0.538	1667.080	1177.369
13.746	6.924	1680.739	1237.004
14.761	15.031	1696.674	1312.430
15.775	17.587	1699.726	1334.730
16.790	17.054	1697.259	1328.503
17.804	15.888	1694.042	1316.755
18.819	14.907	1690.667	1306.356
19.834	14.399	1688.426	1300.547
20.848	14.055	1686.530	1296.285
21.863	13.832	1684.976	1293.238
22.877	13.621	1683.299	1290.193
23.892	13.359	1681.975	1287.024
24.907	13.221	1680.781	1284.924
25.921	13.302	1679.629	1284.562
26.936	13.212	1679.113	1283.356
27.950	13.271	1677.919	1282.787
28.965	13.313	1677.225	1282.467
29.980	13.367	1676.630	1282.316
30.994	13.369	1675.798	1281.585
32.009	13.438	1674.986	1281.381
33.023	13.468	1674.118	1280.837
34.038	13.549	1673.272	1280.701
35.053	13.470	1671.965	1278.980
36.067	13.561	1670.810	1278.689
37.082	13.402	1670.184	1276.868
38.096	13.388	1669.120	1275.830
39.111	13.374	1669.147	1275.630
40.126	13.467	1667.731	1275.156
41.140	13.486	1666.558	1274.286
42.155	13.314	1665.130	1271.761
43.169	13.322	1663.929	1270.797
44.184	13.281	1663.079	1269.722
45.199	13.149	1662.157	1267.889
46.213	13.191	1660.593	1266.909
47.228	13.173	1659.503	1265.825
48.242	13.217	1658.479	1265.271
49.257	13.278	1656.989	1264.488
50.271	13.247	1655.617	1263.091
51.286	13.372	1653.822	1262.566
52.301	13.349	1653.017	1261.660
53.315	13.427	1651.348	1260.873
54.330	13.362	1649.636	1258.954
55.344	13.389	1648.775	1258.395
56.359	13.226	1647.389	1255.985
57.374	13.343	1645.587	1255.390
58.388	13.242	1644.725	1253.852
59.403	13.210	1643.459	1252.536
60.417	13.239	1641.839	1251.407
61.432	13.185	1641.170	1250.378
62.447	13.201	1639.731	1249.292
63.461	13.178	1638.569	1248.125
64.476	13.194	1637.529	1247.343
65.490	13.115	1636.485	1245.844
66.505	13.198	1634.657	1244.964
67.520	13.192	1633.832	1244.184
68.534	13.204	1633.261	1243.726
69.549	13.244	1632.119	1243.048
70.563	13.185	1631.053	1241.680
71.578	13.300	1629.564	1241.302
72.593	13.100	1628.785	1239.096
73.607	13.154	1627.338	1238.294
74.622	13.139	1626.415	1237.371
75.636	13.072	1625.774	1236.273
76.651	13.086	1625.123	1235.767
77.666	13.037	1624.266	1234.644
78.680	13.149	1622.844	1234.291
79.695	13.154	1622.129	1233.672
80.709	13.077	1621.141	1232.240
81.724	13.105	1620.696	1231.997
82.739	13.264	1619.191	1231.933
83.753	13.243	1618.419	1231.080
84.768	13.287	1617.516	1230.612
85.782	13.317	1616.723	1230.120
86.797	13.371	1615.657	1229.601
87.812	13.394	1614.932	1229.116
88.826	13.331	1613.822	1227.692
89.841	13.361	1612.073	1226.479
90.855	13.362	1611.325	1225.808
91.870	13.367	1610.322	1224.968
92.884	13.381	1609.112	1224.043
93.899	13.357	1608.391	1223.210
94.914	13.464	1606.905	1222.767
95.928	13.490	1605.729	1221.953
96.943	13.509	1604.363	1220.943
97.957	13.405	1603.362	1219.306
98.972	13.399	1601.563	1217.791
99.987	13.393	1600.054	1216.486
101.001	13.371	1598.841	1215.295
102.016	13.366	1597.036	1213.783
103.030	13.357	1595.554	1212.480
104.045	13.401	1594.441	1211.847
105.060	13.391	1592.906	1210.506
106.074	13.389	1591.372	1209.220
107.089	13.344	1590.125	1207.836
108.103	13.299	1588.533	1206.191
109.118	13.217	1587.409	1204.632
110.133	13.216	1586.216	1203.609
111.147	13.280	1584.657	1202.790
112.162	13.234	1583.607	1201.553
113.176	13.159	1582.346	1199.943
114.191	13.326	1580.646	1199.761
115.206	13.333	1579.803	1199.063
116.220	13.242	1578.738	1197.489
117.235	13.284	1577.130	1196.465
118.249	13.292	1576.199	1195.717
119.264	13.257	1574.740	1194.250
120.279	13.271	1573.071	1192.978
121.293	13.307	1571.592	1192.011
122.308	13.275	1570.404	1190.777
123.322	13.222	1568.583	1188.908
124.337	13.247	1567.613	1188.244
125.352	13.189	1566.377	1186.786
126.366	13.215	1565.303	1186.052
127.381	13.210	1564.004	1184.931
128.395	13.278	1562.623	1184.263
129.410	13.184	1561.668	1182.768
130.424	13.149	1560.456	1181.488
131.439	13.255	1559.274	1181.253
132.454	13.270	1557.585	1179.975
133.468	13.374	1556.202	1179.561
134.483	13.328	1555.030	1178.241
135.497	13.366	1553.213	1177.031
136.512	13.334	1552.299	1176.006
137.527	13.367	1550.672	1174.906
138.541	13.378	1549.706	1174.145
139.556	13.342	1548.271	1172.698
140.570	13.341	1546.775	1171.456
141.585	13.419	1545.633	1171.041
142.600	13.455	1543.809	1169.806
143.614	13.503	1542.481	1169.035
144.629	13.510	1541.578	1168.298
145.643	13.546	1540.865	1167.909
146.658	13.601	1539.287	1166.999
147.673	13.512	1537.383	1164.824
148.687	13.502	1535.847	1163.489
149.702	13.482	1534.662	1162.350
150.716	13.552	1532.789	1161.315
151.731	13.449	1531.796	1159.741
152.746	13.454	1530.257	1158.509
153.760	13.496	1528.788	1157.584
154.775	13.544	1527.588	1156.909
155.789	13.630	1526.120	1156.292
156.804	13.646	1525.033	1155.482
157.819	13.538	1524.092	1153.915
158.833	13.642	1522.839	1153.583
159.848	13.609	1521.773	1152.445
160.862	13.646	1520.837	1151.893
161.877	13.623	1519.408	1150.549
162.892	13.690	1518.005	1149.852
163.906	13.566	1517.033	1148.152
164.921	13.592	1515.544	1147.105
165.935	13.585	1514.574	1146.218
166.950	13.627	1513.665	1145.719
167.964	13.573	1512.715	1144.531
168.979	13.668	1511.251	1143.974
169.994	13.646	1510.041	1142.808
171.008	13.698	1509.285	1142.491
172.023	13.658	1507.923	1141.085
173.037	13.735	1506.708	1140.594
174.052	13.706	1506.053	1139.798
175.067	13.792	1504.893	1139.407
176.081	13.750	1503.635	1138.067
177.096	13.668	1502.122	1136.257
178.110	13.661	1500.791	1135.103
179.125	13.626	1499.932	1134.113
180.140	13.730	1498.604	1133.723
181.154	13.690	1497.857	1132.781
182.169	13.842	1496.195	1132.465
183.183	13.760	1495.154	1131.013
184.198	13.856	1494.208	1130.853
185.213	13.906	1493.026	1130.197
186.227	13.965	1491.609	1129.431
187.242	13.925	1490.822	1128.460
188.256	13.954	1489.624	1127.649
189.271	13.982	1488.939	1127.225
190.286	13.978	1487.973	1126.364
191.300	13.861	1487.266	1124.934
192.315	13.791	1485.254	1122.841
193.329	13.726	1483.964	1121.330
194.344	13.734	1483.110	1120.638
195.359	13.798	1481.874	1120.038
196.373	13.856	1481.325	1119.911
197.388	13.871	1480.520	1119.306
198.402	13.984	1479.053	1118.860
199.417	13.989	1478.004	1118.002
200.432	14.067	1476.963	1117.638
201.446	14.113	1475.657	1116.858
202.461	14.180	1474.537	1116.361
203.475	14.118	1473.623	1115.158
204.490	14.245	1472.003	1114.682
205.504	14.194	1472.010	1114.249
206.519	14.190	1470.112	1112.689
207.534	14.185	1469.108	1111.796
208.548	14.054	1467.817	1109.845
209.563	14.084	1466.690	1109.093
210.577	14.096	1466.006	1108.556
211.592	14.116	1465.097	1107.907
212.607	14.218	1464.125	1107.754
213.621	14.265	1463.790	1107.714
214.636	14.254	1462.815	1106.803
215.650	14.257	1461.632	1105.829
216.665	14.234	1460.976	1105.085
217.680	14.302	1459.801	1104.552
218.694	14.349	1459.158	1104.276
219.709	14.393	1458.071	1103.648
220.723	14.363	1457.167	1102.668
221.738	14.348	1456.486	1101.957
222.753	14.388	1455.592	1101.445
223.767	14.380	1454.351	1100.357
224.782	14.387	1453.389	1099.579
225.796	14.397	1452.433	1098.824
226.811	14.494	1451.615	1098.749
227.826	14.378	1451.229	1097.594
228.840	14.536	1449.982	1097.589
229.855	14.522	1449.178	1096.795
230.869	14.413	1448.601	1095.540
231.884	14.416	1447.360	1094.529
232.899	14.440	1446.043	1093.595
233.913	14.410	1444.752	1092.322
234.928	14.452	1444.090	1091.998
235.942	14.415	1442.923	1090.778
236.957	14.414	1441.573	1089.655
237.972	14.387	1440.286	1088.412
238.986	14.462	1438.974	1087.813
240.001	14.503	1438.147	1087.357
241.015	14.462	1437.199	1086.281
242.030	14.405	1435.934	1084.855
243.045	14.485	1435.087	1084.640
244.059	14.557	1434.019	1084.202
245.074	14.567	1433.361	1083.673
246.088	14.569	1432.757	1083.138
247.103	14.627	1431.990	1082.833
248.117	14.712	1431.098	1082.615
249.132	14.668	1430.005	1081.408
250.147	14.753	1429.460	1081.454
251.161	14.829	1428.669	1081.248
252.176	14.921	1428.145	1081.352
253.190	14.913	1427.123	1080.431
254.205	14.889	1426.339	1079.587
255.220	14.977	1425.528	1079.446
256.234	15.061	1424.559	1079.158
257.249	14.979	1424.156	1078.225
258.263	14.963	1423.175	1077.289
259.278	14.998	1422.227	1076.702
260.293	14.997	1421.486	1076.037
261.307	15.023	1420.107	1075.065
262.322	15.065	1419.767	1074.983
263.336	15.140	1418.991	1074.777
264.351	15.137	1418.031	1073.940
265.366	15.133	1416.812	1072.896
266.380	15.189	1415.755	1072.360
267.395	15.165	1415.211	1071.699
268.409	15.257	1413.772	1071.103
269.424	15.199	1413.106	1070.131
270.439	15.145	1412.344	1069.115
271.453	15.125	1410.926	1067.821
272.468	15.154	1410.546	1067.621
273.482	15.033	1410.189	1066.489
274.497	15.121	1408.769	1065.878
275.512	15.122	1407.942	1065.163
276.526	15.099	1407.198	1064.364
277.541	15.144	1406.167	1063.771
278.555	15.216	1405.024	1063.274
279.570	15.150	1404.700	1062.516
280.585	15.209	1403.230	1061.681
281.599	15.390	1402.275	1062.008
282.614	15.326	1401.596	1060.996
283.628	15.287	1400.574	1059.887
284.643	15.189	1399.662	1058.484
285.657	15.340	1398.162	1058.203
286.672	15.304	1397.412	1057.319
287.687	15.319	1396.571	1056.679
288.701	15.398	1395.469	1056.249
289.716	15.390	1395.143	1055.864
290.730	15.392	1394.099	1054.991
291.745	15.391	1393.070	1054.110
292.760	15.418	1392.312	1053.618
293.774	15.525	1390.847	1053.082
294.789	15.448	1389.985	1051.858
295.803	15.485	1389.301	1051.478
296.818	15.491	1388.462	1050.789
297.833	15.522	1387.393	1050.079
298.847	15.448	1386.901	1049.153
299.862	15.481	1385.443	1048.161
300.876	15.516	1384.697	1047.723
301.891	15.510	1383.810	1046.918
302.906	15.619	1382.879	1046.805
303.920	15.526	1382.175	1045.595
304.935	15.633	1381.464	1045.636
305.949	15.731	1380.712	1045.579
306.964	15.691	1380.359	1044.971
307.979	15.699	1379.135	1044.001
308.993	15.709	1377.984	1043.104
310.008	15.759	1377.098	1042.647
311.022	15.718	1376.293	1041.695
312.037	15.711	1375.561	1041.000
313.052	15.843	1374.330	1040.798
314.066	15.761	1373.315	1039.426
315.081	15.771	1372.126	1038.496
316.095	15.739	1371.094	1037.428
317.110	15.704	1370.119	1036.384
318.125	15.741	1369.214	1035.836
319.139	15.775	1368.393	1035.333
320.154	15.783	1367.481	1034.601
321.168	15.728	1366.628	1033.521
322.183	15.787	1365.140	1032.666
323.197	15.753	1364.419	1031.824
324.212	15.790	1363.781	1031.474
325.227	15.860	1363.271	1031.427
326.241	15.890	1361.752	1030.371
327.256	15.896	1361.381	1030.038
328.270	15.886	1360.312	1029.076
329.285	15.865	1359.538	1028.269
330.300	15.897	1358.644	1027.696
331.314	15.896	1357.788	1026.956
332.329	15.960	1356.704	1026.432
333.343	15.942	1356.047	1025.734
334.358	15.975	1355.076	1025.113
335.373	15.932	1354.178	1024.082
336.387	15.881	1353.612	1023.249
337.402	16.060	1352.566	1023.455
338.416	16.063	1351.715	1022.744
339.431	16.099	1351.178	1022.460
340.446	16.169	1350.408	1022.212
341.460	16.097	1349.628	1021.096
342.475	16.159	1348.592	1020.596
343.489	16.242	1347.734	1020.358
344.504	16.332	1346.754	1020.071
345.519	16.271	1345.856	1018.932
346.533	16.258	1344.770	1017.943
347.548	16.301	1344.024	1017.544
348.562	16.310	1343.122	1016.829
349.577	16.459	1341.873	1016.687
350.592	16.414	1341.704	1016.197
351.606	16.204	1340.908	1014.242
352.621	16.343	1339.459	1013.892
353.635	16.343	1338.665	1013.200
354.650	16.289	1337.752	1012.100
355.665	16.210	1337.184	1011.107
356.679	16.294	1335.781	1010.456
357.694	16.230	1334.786	1009.234
358.708	16.288	1333.950	1008.861
359.723	16.428	1332.471	1008.484
360.738	16.368	1331.461	1007.276
361.752	16.440	1330.465	1006.859
362.767	16.487	1329.055	1005.987
363.781	16.442	1328.413	1005.143
364.796	16.523	1327.673	1004.973
365.810	16.434	1327.370	1004.126
366.825	16.425	1326.565	1003.374
367.840	16.551	1325.759	1003.426
368.854	16.604	1324.906	1003.006
369.869	16.589	1325.011	1002.904
370.883	16.648	1323.840	1002.283
371.898	16.709	1322.923	1001.856
372.913	16.652	1322.151	1000.847
373.927	16.554	1321.503	999.689
374.942	16.773	1320.261	999.957
375.956	16.784	1319.356	999.248
376.971	16.742	1318.718	998.428
377.986	16.698	1317.688	997.297
379.000	16.680	1317.352	996.853
380.015	16.722	1316.792	996.586
381.029	16.814	1316.038	996.470
382.044	16.845	1314.973	995.756
383.059	16.834	1314.169	994.993
384.073	16.860	1313.602	994.629
385.088	16.891	1313.167	994.398
386.102	16.953	1311.889	993.701
387.117	16.980	1311.539	993.507
388.132	16.936	1310.703	992.530
389.146	16.852	1309.898	991.342
390.161	16.875	1309.212	990.867
391.175	16.911	1308.514	990.464
392.190	16.898	1307.703	989.685
393.205	16.915	1306.566	988.834
394.219	16.920	1305.927	988.292
395.234	17.061	1304.311	987.806
396.248	16.929	1303.260	986.155
397.263	16.927	1301.827	984.971
398.278	17.009	1300.453	984.317
399.292	16.848	1299.672	982.708
400.307	16.848	1298.683	981.872
401.321	16.930	1297.336	981.240
402.336	16.865	1296.754	980.339
403.350	17.048	1295.076	980.043
404.365	16.955	1294.651	979.096
405.380	16.938	1293.932	978.364
406.394	16.985	1292.932	977.793
407.409	17.159	1292.214	978.166
408.423	17.112	1291.813	977.507
409.438	17.127	1291.002	976.891
410.453	17.188	1290.154	976.518
411.467	17.250	1289.466	976.267
412.482	17.161	1289.093	975.385
413.496	17.293	1288.243	975.415
414.511	17.367	1287.718	975.354
415.526	17.332	1286.776	974.353
416.540	17.372	1285.877	973.815
417.555	17.403	1285.007	973.247
418.569	17.521	1284.375	973.356
419.584	17.393	1283.964	972.230
420.599	17.367	1283.539	971.671
421.613	95.385	1354.895	1472.361
422.628	93.351	1365.273	1472.462
