DTS Sentinel unit serial number:	SN413079Multiplexer serial number:	ORYXHardware model number:	OX4-SRSoftware version number:	ORYX F/W v4.00 Oryx Data Collector v3.7.2.0data status	okinstallation	princeton_trtdifferential loss correction	single-endedforward channel	channel 4reverse channel	N/Adate	2019/09/17time	08:53:35forward acquisition time	60.00reverse acquisition time	0.00gamma	496.2192k internal	0.2316k external	0.2316temperature offset calibration	0.9978default loss term (dB/km)	0.3790temperature slope calibration	1.0000multiplexer offset coefficient	1.0000multiplexer slope coefficient	1.0000fibre end	0.00T internal ref (°C)	27.92T ext. ref 1 (°C)	0.14T ext. ref 2 (°C)	23.65length (m)	temperature (°C)	Stokes	anti-Stokes-747.200	168.860	-0.165	-0.238
-746.185	-52.465	-0.260	0.122
-745.171	-200.000	0.015	0.264
-744.156	-34.066	0.196	0.109
-743.142	-60.508	-0.131	0.056
-742.127	165.161	-0.105	-0.150
-741.112	12.579	-0.233	0.182
-740.098	46.430	0.402	0.377
-739.083	-100.763	0.243	0.061
-738.069	-175.918	-0.349	0.009
-737.054	95.184	-0.251	0.290
-736.039	414.475	-0.153	0.330
-735.025	34.338	0.257	0.227
-734.010	710.500	-0.069	-0.186
-732.996	64.749	0.271	-0.277
-731.981	-120.718	-0.261	0.045
-730.966	-200.000	0.048	-0.357
-729.952	-200.000	-0.011	-0.235
-728.937	-200.000	-0.014	-0.139
-727.923	74.211	-0.259	-0.275
-726.908	-64.545	-0.054	-0.022
-725.894	-200.000	-0.055	0.282
-724.879	694.652	-0.049	0.130
-723.864	-52.313	0.039	-0.018
-722.850	-200.000	-0.009	-0.253
-721.835	-155.847	-0.093	0.006
-720.821	165.850	0.196	-0.280
-719.806	53.924	0.285	-0.277
-718.791	15.437	-0.213	-0.169
-717.777	-10.718	0.092	-0.061
-716.762	113.270	-0.088	0.108
-715.748	182.758	-0.105	-0.156
-714.733	213.559	0.130	-0.208
-713.718	800.000	-0.113	-0.379
-712.704	454.775	0.072	-0.160
-711.689	582.594	0.097	0.240
-710.675	129.765	-0.253	-0.328
-709.660	180.580	-0.068	-0.102
-708.645	800.000	0.050	0.166
-707.631	29.458	0.287	-0.247
-706.616	-200.000	-0.019	-0.128
-705.602	-123.224	0.108	0.017
-704.587	-93.923	0.139	0.039
-703.572	-26.854	0.168	-0.100
-702.558	20.776	0.293	-0.240
-701.543	-88.225	-0.089	0.027
-700.529	-108.588	-0.187	-0.041
-699.514	-200.000	0.005	-0.169
-698.499	-52.669	-0.202	0.094
-697.485	800.000	-0.115	-0.443
-696.470	-21.342	0.171	-0.106
-695.456	174.140	0.037	0.055
-694.441	-200.000	0.012	0.067
-693.426	-111.059	-0.195	-0.040
-692.412	800.000	-0.066	-0.260
-691.397	96.154	-0.178	-0.206
-690.383	-169.936	-0.173	0.006
-689.368	-136.455	-0.142	-0.017
-688.354	800.000	0.120	-0.406
-687.339	133.968	-0.105	-0.138
-686.324	-39.673	0.274	-0.145
-685.310	14.888	-0.145	-0.114
-684.295	-73.494	-0.203	-0.075
-683.281	-88.974	0.030	-0.009
-682.266	346.175	-0.109	0.216
-681.251	245.112	-0.145	-0.246
-680.237	-200.000	-0.023	0.129
-679.222	38.980	0.064	-0.058
-678.208	-126.258	-0.128	0.019
-677.193	15.000	-0.298	0.236
-676.178	-43.053	0.115	-0.059
-675.164	56.941	-0.201	-0.198
-674.149	755.238	-0.061	0.166
-673.135	800.000	0.058	0.231
-672.120	-132.076	-0.136	0.018
-671.105	-122.018	0.104	0.017
-670.091	-144.101	-0.120	-0.011
-669.076	23.709	0.108	0.090
-668.062	416.473	0.034	-0.074
-667.047	-200.000	-0.022	-0.244
-666.032	-16.541	0.089	0.057
-665.018	196.656	0.029	-0.044
-664.003	-200.000	-0.005	0.114
-662.989	800.000	0.070	-0.297
-661.974	-200.000	-0.002	0.056
-660.959	94.172	-0.221	-0.253
-659.945	-91.609	0.147	0.042
-658.930	-200.000	0.008	0.242
-657.916	156.278	0.158	0.221
-656.901	-200.000	-0.007	-0.121
-655.886	290.729	0.036	-0.066
-654.872	800.000	0.024	0.084
-653.857	-200.000	-0.104	-0.664
-652.843	30.420	-0.096	-0.083
-651.828	-200.000	0.005	-0.153
-650.814	346.667	0.022	0.043
-649.799	-125.818	-0.199	0.030
-648.784	35.065	0.118	-0.105
-647.770	315.464	-0.159	-0.303
-646.755	147.552	-0.179	-0.243
-645.741	-2.546	-0.157	0.111
-644.726	41.365	0.061	0.055
-643.711	-99.035	0.333	0.085
-642.697	600.719	-0.024	0.061
-641.682	-133.567	-0.366	0.046
-640.668	1.422	0.150	0.109
-639.653	684.568	0.138	-0.363
-638.638	118.928	-0.200	0.249
-637.624	-200.000	0.005	-0.047
-636.609	241.769	-0.105	-0.177
-635.595	-125.003	-0.295	0.046
-634.580	681.868	0.062	-0.163
-633.565	11.330	0.179	0.138
-632.551	-200.000	-0.027	0.146
-631.536	-52.331	-0.092	0.043
-630.522	-80.257	-0.286	0.096
-629.507	-83.152	0.149	-0.048
-628.492	-59.447	-0.376	0.163
-627.478	-64.756	0.039	0.016
-626.463	37.312	0.137	0.123
-625.449	-200.000	-0.039	0.190
-624.434	-7.582	-0.176	-0.120
-623.419	-35.392	-0.059	0.032
-622.405	-73.866	0.371	-0.136
-621.390	-34.456	0.175	0.097
-620.376	-107.541	-0.014	0.003
-619.361	-134.094	-0.208	-0.026
-618.346	61.078	-0.220	0.220
-617.332	103.728	-0.133	-0.158
-616.317	137.864	0.132	0.174
-615.303	800.000	-0.111	-0.339
-614.288	413.905	0.113	-0.242
-613.273	-200.000	0.021	-0.147
-612.259	216.895	-0.148	0.237
-611.244	50.085	0.077	0.073
-610.230	-63.713	-0.220	0.091
-609.215	-27.747	-0.197	-0.115
-608.201	-113.653	0.351	0.069
-607.186	4.016	0.131	0.096
-606.171	-96.361	0.318	-0.085
-605.157	53.022	0.102	-0.099
-604.142	-148.317	-0.164	0.014
-603.128	245.372	0.135	-0.229
-602.113	-125.930	0.215	-0.033
-601.098	-87.994	0.239	0.072
-600.084	-200.000	0.003	-0.183
-599.069	-67.869	0.141	0.055
-598.055	413.668	0.045	-0.095
-597.040	-97.654	0.260	0.068
-596.025	-117.042	0.277	-0.051
-595.011	122.048	0.138	0.174
-593.996	-200.000	-0.015	-0.089
-592.982	31.701	-0.138	0.119
-591.967	-131.941	0.365	-0.048
-590.952	126.560	-0.156	-0.198
-589.938	-200.000	0.030	-0.292
-588.923	115.166	-0.094	0.116
-587.909	-106.141	0.192	-0.043
-586.894	133.916	0.114	-0.148
-585.879	800.000	0.029	-0.113
-584.865	-21.475	-0.274	-0.168
-583.850	35.820	0.191	0.169
-582.836	177.261	0.045	-0.066
-581.821	306.174	0.085	0.159
-580.806	-10.125	0.034	-0.023
-579.792	800.000	-0.014	0.056
-578.777	-106.982	0.283	-0.063
-577.763	276.260	-0.081	-0.145
-576.748	-52.749	-0.243	0.113
-575.733	-60.137	-0.284	0.122
-574.719	-200.000	-0.005	-0.195
-573.704	-16.505	-0.234	0.149
-572.690	53.053	0.190	0.183
-571.675	-85.902	-0.037	-0.011
-570.661	15.025	-0.232	0.183
-569.646	-111.999	0.146	0.030
-568.631	-21.573	0.044	0.027
-567.617	197.443	-0.257	-0.394
-566.602	-200.000	0.034	0.306
-565.588	26.197	0.331	-0.278
-564.573	204.062	0.157	0.245
-563.558	-34.460	0.255	-0.140
-562.544	-78.805	-0.262	-0.090
-561.529	-103.166	0.271	0.065
-560.515	528.083	0.206	0.489
-559.500	346.892	-0.091	0.180
-558.485	-19.795	0.194	0.121
-557.471	800.000	0.043	-0.122
-556.456	-195.933	-0.224	-0.002
-555.442	-162.517	-0.306	-0.015
-554.427	800.000	-0.066	0.272
-553.412	-55.501	0.074	-0.033
-552.398	800.000	-0.151	-0.431
-551.383	233.699	0.038	-0.063
-550.369	-33.581	0.155	0.086
-549.354	-200.000	0.008	0.149
-548.339	-200.000	0.023	-0.308
-547.325	488.069	0.087	-0.199
-546.310	422.844	-0.025	-0.054
-545.296	-24.024	-0.219	-0.132
-544.281	356.072	-0.041	0.082
-543.266	800.000	0.083	0.249
-542.252	29.707	0.292	-0.250
-541.237	-54.884	0.264	0.120
-540.223	-66.722	0.059	-0.023
-539.208	-72.259	0.025	0.009
-538.193	-125.255	0.349	-0.054
-537.179	109.176	-0.115	0.138
-536.164	-6.686	-0.271	0.186
-535.150	-200.000	0.046	0.335
-534.135	-200.000	0.042	0.219
-533.121	-126.729	-0.289	0.043
-532.106	-200.000	-0.049	-0.382
-531.091	-29.954	-0.288	0.164
-530.077	66.788	-0.148	-0.152
-529.062	-200.000	0.063	-0.316
-528.048	425.564	-0.135	0.292
-527.033	82.731	0.229	0.250
-526.018	-51.168	-0.466	-0.219
-525.004	77.956	0.116	0.124
-523.989	365.081	0.115	0.233
-522.975	-17.498	0.313	0.198
-521.960	-89.176	-0.095	-0.028
-520.945	-65.177	0.223	-0.090
-519.931	113.655	-0.088	0.108
-518.916	800.000	0.013	-0.039
-517.902	-200.000	0.012	0.122
-516.887	-26.515	-0.113	-0.066
-515.872	-13.812	-0.286	-0.186
-514.858	-175.842	-0.224	0.006
-513.843	-200.000	0.005	-0.047
-512.829	-45.981	0.169	-0.084
-511.814	-200.000	0.006	-0.075
-510.799	-149.433	-0.112	-0.009
-509.785	339.308	0.043	0.085
-508.770	-23.384	-0.109	-0.066
-507.756	-200.000	0.062	0.325
-506.741	-200.000	0.029	-0.204
-505.726	-13.709	0.190	0.123
-504.712	41.666	0.172	0.157
-503.697	-100.416	-0.119	0.030
-502.683	-99.652	0.201	-0.051
-501.668	-200.000	-0.019	0.196
-500.653	-200.000	0.009	-0.341
-499.639	241.983	-0.061	0.102
-498.624	800.000	0.076	0.261
-497.610	-82.192	-0.178	-0.058
-496.595	246.113	-0.154	0.259
-495.581	160.874	0.069	0.097
-494.566	-200.000	0.018	0.186
-493.551	-124.393	0.296	-0.046
-492.537	-140.818	-0.312	0.032
-491.522	800.000	0.041	-0.163
-490.508	-63.932	0.285	-0.117
-489.493	-71.549	-0.081	0.030
-488.478	233.575	0.147	0.243
-487.464	-45.683	-0.399	0.198
-486.449	484.416	-0.144	-0.329
-485.435	121.105	-0.281	-0.350
-484.420	540.676	0.158	0.377
-483.405	5.247	0.201	-0.148
-482.391	93.624	-0.241	-0.273
-481.376	800.000	-0.114	0.337
-480.362	192.558	0.110	-0.167
-479.347	256.214	0.110	-0.190
-478.332	-102.403	-0.101	-0.024
-477.318	18.544	-0.174	-0.139
-476.303	-13.928	0.318	0.206
-475.289	800.000	-0.059	0.204
-474.274	-98.979	-0.245	-0.062
-473.259	300.887	-0.118	0.219
-472.245	-46.740	0.120	0.059
-471.230	-200.000	-0.014	-0.239
-470.216	35.486	-0.197	0.173
-469.201	-75.757	-0.414	0.147
-468.186	166.981	0.186	-0.264
-467.172	26.063	0.087	0.073
-466.157	-30.651	-0.332	-0.188
-465.143	-200.000	-0.001	0.076
-464.128	12.250	0.079	-0.061
-463.113	-199.675	-0.109	-0.001
-462.099	800.000	0.039	0.129
-461.084	269.953	-0.108	0.190
-460.070	50.179	-0.020	-0.019
-459.055	800.000	-0.013	-0.047
-458.040	-45.405	0.138	0.068
-457.026	20.159	-0.144	-0.116
-456.011	-200.000	-0.037	-0.267
-454.997	-30.727	0.096	0.054
-453.982	134.500	-0.091	-0.118
-452.968	800.000	-0.035	-0.148
-451.953	-86.642	0.211	0.065
-450.938	97.674	-0.163	0.187
-449.924	-35.409	-0.091	0.050
-448.909	122.033	0.109	-0.137
-447.895	49.190	-0.146	-0.138
-446.880	-200.000	0.052	-0.260
-445.865	-8.089	0.137	0.092
-444.851	800.000	-0.048	0.164
-443.836	-76.253	0.352	-0.124
-442.822	-69.424	-0.169	0.065
-441.807	389.753	-0.018	-0.037
-440.792	142.482	0.044	-0.059
-439.778	-94.901	-0.283	0.077
-438.763	-27.812	-0.101	0.058
-437.749	246.378	-0.007	-0.012
-436.734	-92.568	-0.147	0.041
-435.719	-56.195	0.396	0.176
-434.705	-19.898	0.117	-0.073
-433.690	-200.000	-0.007	0.033
-432.676	-102.876	-0.177	-0.042
-431.661	29.063	-0.028	-0.023
-430.646	-176.384	-0.261	-0.007
-429.632	557.883	-0.085	0.206
-428.617	28.600	-0.255	0.216
-427.603	-99.835	-0.615	-0.154
-426.588	800.000	0.069	0.246
-425.573	-200.000	-0.024	-0.234
-424.559	-12.620	0.222	-0.145
-423.544	438.914	0.032	-0.070
-422.530	318.778	0.144	0.273
-421.515	94.361	-0.160	-0.182
-420.500	417.276	0.085	0.182
-419.486	800.000	0.054	-0.158
-418.471	-16.969	-0.145	0.092
-417.457	458.831	0.133	0.295
-416.442	398.213	-0.133	-0.279
-415.428	800.000	-0.056	0.170
-414.413	800.000	0.084	0.266
-413.398	119.786	-0.167	0.207
-412.384	-200.000	0.005	-0.246
-411.369	-113.627	-0.068	0.013
-410.355	-155.576	0.119	-0.008
-409.340	-61.101	0.215	-0.091
-408.325	128.623	-0.187	-0.238
-407.311	0.551	-0.093	0.066
-406.296	800.000	-0.023	0.079
-405.282	42.079	0.078	0.071
-404.267	-200.000	-0.018	0.092
-403.252	-200.000	-0.008	0.267
-402.238	-200.000	-0.013	0.243
-401.223	22.092	0.295	0.241
-400.209	-35.771	-0.267	0.145
-399.194	-180.937	0.247	0.005
-398.179	800.000	-0.156	-0.447
-397.165	800.000	0.034	-0.150
-396.150	-76.811	-0.057	-0.020
-395.136	-126.015	0.234	0.035
-394.121	108.615	-0.171	-0.203
-393.106	-37.937	-0.221	-0.117
-392.092	541.836	-0.070	-0.166
-391.077	-200.000	0.005	0.273
-390.063	-200.000	-0.029	0.144
-389.048	-61.855	0.225	0.094
-388.033	449.453	-0.139	0.307
-387.019	250.385	0.222	-0.377
-386.004	-200.000	0.045	-0.218
-384.990	-95.748	-0.384	0.102
-383.975	-81.183	-0.191	-0.063
-382.960	800.000	-0.036	-0.107
-381.946	553.373	0.089	-0.213
-380.931	273.614	-0.093	-0.165
-379.917	177.422	-0.226	0.329
-378.902	-200.000	0.005	-0.180
-377.888	-47.209	-0.011	0.005
-376.873	160.693	-0.163	0.227
-375.858	-102.048	-0.026	0.006
-374.844	800.000	-0.081	-0.235
-373.829	150.815	0.182	-0.247
-372.815	-24.767	-0.127	-0.075
-371.800	-4.498	0.310	0.214
-370.785	-200.000	-0.045	-0.240
-369.771	-32.398	-0.279	-0.156
-368.756	246.533	-0.115	0.194
-367.742	-139.870	-0.110	0.012
-366.727	-135.002	-0.277	-0.033
-365.712	94.965	0.308	-0.350
-364.698	-74.266	-0.349	-0.126
-363.683	-200.000	-0.036	0.234
-362.669	89.062	0.241	0.267
-361.654	800.000	0.036	0.115
-360.639	385.529	-0.072	0.148
-359.625	-37.114	0.191	0.102
-358.610	-114.764	0.107	-0.020
-357.596	-200.000	0.017	0.203
-356.581	800.000	-0.071	0.215
-355.566	160.047	0.174	-0.241
-354.552	-200.000	-0.026	-0.136
-353.537	-66.153	0.151	-0.060
-352.523	147.852	0.152	-0.204
-351.508	-200.000	-0.005	0.124
-350.493	735.119	-0.091	-0.244
-349.479	800.000	-0.086	-0.316
-348.464	19.775	-0.072	-0.058
-347.450	-119.036	0.338	0.059
-346.435	12.902	-0.045	-0.035
-345.420	48.516	-0.188	-0.176
-344.406	-103.613	-0.152	0.036
-343.391	-53.560	0.155	-0.071
-342.377	-57.806	-0.266	0.116
-341.362	162.609	-0.133	0.187
-340.348	142.683	-0.186	0.246
-339.333	443.864	0.097	-0.211
-338.318	-200.000	0.030	0.267
-337.304	-121.429	0.072	0.012
-336.289	179.726	-0.089	-0.131
-335.275	20.658	-0.286	-0.231
-334.260	-158.828	0.126	-0.007
-333.245	-200.000	-0.053	-0.287
-332.231	-76.741	-0.115	-0.040
-331.216	-134.443	0.317	0.039
-330.202	-200.000	-0.011	0.249
-329.187	-160.908	0.018	0.001
-328.172	-200.000	-0.000	-0.066
-327.158	-82.634	-0.055	0.018
-326.143	137.684	0.264	-0.345
-325.129	-200.000	0.006	0.142
-324.114	62.550	0.063	-0.063
-323.099	-77.383	-0.434	0.150
-322.085	-200.000	0.023	-0.113
-321.070	19.362	-0.034	0.027
-320.056	-76.469	0.123	-0.043
-319.041	139.169	0.027	0.035
-318.026	-30.170	0.116	0.066
-317.012	-76.663	0.376	0.131
-315.997	110.368	0.168	-0.201
-314.983	-200.000	-0.002	0.032
-313.968	224.664	-0.135	-0.217
-312.953	800.000	-0.061	-0.231
-311.939	-25.792	0.121	0.071
-310.924	800.000	-0.044	0.135
-309.910	-118.013	-0.349	0.062
-308.895	-85.046	0.439	0.137
-307.880	32.835	0.262	0.226
-306.866	-52.126	0.291	-0.135
-305.851	180.094	-0.032	-0.046
-304.837	-134.658	-0.168	-0.020
-303.822	-4.800	0.185	0.127
-302.807	-30.651	0.260	0.146
-301.793	93.084	0.259	-0.292
-300.778	-57.967	0.187	-0.081
-299.764	47.522	-0.056	-0.052
-298.749	-200.000	-0.011	0.118
-297.735	119.224	-0.186	0.230
-296.720	-27.586	0.243	-0.140
-295.705	-38.297	-0.099	-0.052
-294.691	-89.891	0.235	-0.068
-293.676	70.539	0.112	-0.116
-292.662	-104.491	0.114	-0.026
-291.647	-15.861	-0.111	-0.070
-290.632	800.000	-0.088	0.328
-289.618	115.584	-0.066	0.081
-288.603	-54.067	0.309	0.140
-287.589	50.063	-0.185	0.174
-286.574	-131.368	0.356	-0.047
-285.559	800.000	0.051	0.151
-284.545	-147.417	-0.495	0.042
-283.530	-56.953	0.204	-0.089
-282.516	69.188	0.163	-0.167
-281.501	-141.877	-0.282	-0.028
-280.486	-136.069	-0.236	-0.028
-279.472	-20.120	0.169	-0.104
-278.457	-97.920	-0.208	-0.053
-277.443	36.245	0.081	0.071
-276.428	-52.070	-0.289	-0.133
-275.413	-27.827	-0.293	-0.169
-274.399	-74.642	0.390	-0.140
-273.384	45.423	-0.152	-0.139
-272.370	-5.482	-0.177	-0.121
-271.355	161.431	0.088	0.123
-270.340	-88.846	-0.352	-0.104
-269.326	510.502	-0.197	-0.455
-268.311	-200.000	-0.006	0.112
-267.297	800.000	-0.037	-0.130
-266.282	-69.999	-0.136	-0.052
-265.267	139.789	0.045	0.059
-264.253	-160.660	-0.250	0.013
-263.238	-32.914	-0.164	0.091
-262.224	-200.000	-0.050	0.408
-261.209	-164.923	-0.515	-0.023
-260.195	21.531	0.158	0.128
-259.180	-164.468	-0.123	-0.006
-258.165	-200.000	0.036	-0.196
-257.151	357.594	-0.075	0.149
-256.136	-200.000	0.022	-0.279
-255.122	-200.000	0.046	-0.398
-254.107	-200.000	0.025	-0.112
-253.092	-143.754	-0.404	-0.038
-252.078	-17.760	-0.087	-0.054
-251.063	-64.981	-0.276	-0.111
-250.049	-7.416	-0.218	-0.146
-249.034	800.000	0.028	-0.089
-248.019	201.478	0.150	0.230
-247.005	298.916	-0.052	-0.094
-245.990	-96.619	0.181	-0.047
-244.976	-200.000	-0.036	0.342
-243.961	193.195	-0.101	-0.151
-242.946	800.000	-0.140	0.401
-241.932	-200.000	-0.021	0.375
-240.917	-131.448	-0.430	-0.056
-239.903	800.000	0.020	0.062
-238.888	-89.306	0.445	0.130
-237.873	-21.752	-0.097	-0.059
-236.859	23.130	0.296	0.242
-235.844	516.694	-0.079	0.183
-234.830	408.853	-0.148	-0.310
-233.815	800.000	0.059	-0.241
-232.800	-200.000	-0.021	0.351
-231.786	-66.842	0.124	-0.049
-230.771	800.000	0.032	-0.099
-229.757	604.389	0.123	0.304
-228.742	-97.353	0.288	-0.074
-227.727	800.000	0.068	0.276
-226.713	-96.648	-0.247	0.065
-225.698	19.651	0.227	-0.181
-224.684	7.264	0.236	-0.175
-223.669	-200.000	0.015	-0.081
-222.655	58.255	0.005	-0.005
-221.640	-177.623	-0.137	0.003
-220.625	800.000	-0.039	0.138
-219.611	170.187	-0.064	0.090
-218.596	76.014	-0.107	0.112
-217.582	68.442	0.145	0.147
-216.567	800.000	0.082	0.303
-215.552	-111.925	0.466	0.093
-214.538	-200.000	0.010	0.058
-213.523	-200.000	0.028	-0.287
-212.509	-70.923	0.311	-0.116
-211.494	-51.089	-0.356	-0.165
-210.479	82.962	0.059	0.063
-209.465	-200.000	-0.053	-0.234
-208.450	-9.996	-0.055	-0.036
-207.436	100.104	0.051	-0.058
-206.421	10.138	-0.112	-0.084
-205.406	111.475	0.033	-0.039
-204.392	-112.976	0.116	-0.023
-203.377	-200.000	-0.023	-0.349
-202.363	568.331	-0.021	0.052
-201.348	-200.000	-0.007	-0.039
-200.333	249.493	0.103	0.173
-199.319	643.714	-0.086	0.218
-198.304	800.000	-0.014	-0.042
-197.290	-13.637	0.240	0.154
-196.275	134.791	0.083	-0.107
-195.260	-21.950	0.301	-0.181
-194.246	328.465	0.119	0.226
-193.231	-200.000	-0.030	0.160
-192.217	270.975	-0.071	-0.124
-191.202	-119.648	-0.179	0.031
-190.187	-35.895	0.099	-0.053
-189.173	-200.000	0.030	0.223
-188.158	-141.273	0.359	-0.036
-187.144	-168.390	0.093	-0.004
-186.129	-200.000	-0.014	-0.125
-185.114	-120.862	-0.262	0.044
-184.100	-200.000	0.044	0.274
-183.085	238.561	-0.014	-0.024
-182.071	169.345	-0.167	-0.236
-181.056	42.594	0.161	-0.145
-180.042	77.471	0.071	-0.075
-179.027	-200.000	0.004	-0.033
-178.012	-95.417	-0.207	-0.055
-176.998	69.383	-0.105	0.107
-175.983	800.000	0.103	-0.313
-174.969	-103.766	0.246	-0.057
-173.954	-78.284	0.308	-0.105
-172.939	513.660	-0.079	0.182
-171.925	-200.000	0.009	-0.105
-170.910	-76.503	0.293	-0.102
-169.896	-11.786	0.042	-0.027
-168.881	-86.969	0.239	-0.072
-167.866	-200.000	-0.016	0.175
-166.852	-68.678	0.358	0.137
-165.837	139.372	0.255	0.332
-164.823	800.000	-0.106	0.459
-163.808	-60.460	0.156	0.065
-162.793	154.702	0.129	-0.175
-161.779	-65.428	0.063	-0.025
-160.764	-200.000	-0.021	0.229
-159.750	233.272	-0.184	0.300
-158.735	800.000	0.068	-0.206
-157.720	-57.643	-0.206	-0.089
-156.706	134.464	0.204	-0.262
-155.691	37.021	-0.091	0.080
-154.677	88.016	0.186	-0.204
-153.662	349.192	-0.061	-0.118
-152.647	-52.974	0.249	-0.113
-151.633	208.614	0.155	0.239
-150.618	-32.083	0.208	-0.115
-149.604	-34.557	0.114	-0.062
-148.589	800.000	0.058	-0.201
-147.574	-149.931	0.204	-0.016
-146.560	266.709	0.050	0.086
-145.545	449.500	0.172	-0.375
-144.531	-26.503	0.270	0.157
-143.516	23.022	0.102	-0.083
-142.502	371.879	0.178	0.358
-141.487	800.000	0.090	0.283
-140.472	-18.142	-0.121	-0.075
-139.458	110.885	-0.175	-0.208
-138.443	533.945	-0.114	0.267
-137.429	242.341	-0.211	0.350
-136.414	800.000	0.042	0.129
-135.399	125.209	0.168	-0.210
-134.385	-131.526	-0.300	-0.039
-133.370	69.475	-0.072	-0.073
-132.356	-23.364	-0.314	0.187
-131.341	636.671	0.174	0.437
-130.326	800.000	0.090	0.308
-129.312	129.322	0.075	0.095
-128.297	-200.000	0.052	-0.554
-127.283	-200.000	-0.011	0.201
-126.268	-67.520	0.085	0.033
-125.253	-30.883	-0.132	-0.074
-124.239	455.682	-0.047	0.103
-123.224	-60.944	-0.223	0.093
-122.210	-28.017	0.231	0.132
-121.195	-5.401	0.160	0.108
-120.180	123.260	0.074	0.092
-119.166	-105.601	0.121	-0.027
-118.151	-200.000	0.066	0.380
-117.137	286.120	-0.141	0.252
-116.122	742.361	0.063	-0.167
-115.107	-52.756	0.168	-0.077
-114.093	-200.000	-0.037	0.218
-113.078	-2.871	0.205	-0.142
-112.064	-200.000	0.011	0.056
-111.049	-200.000	0.058	0.433
-110.034	800.000	-0.050	-0.162
-109.020	-48.452	0.211	-0.101
-108.005	-200.000	0.047	-0.365
-106.991	450.951	-0.191	0.416
-105.976	-200.000	0.176	0.000
-104.962	-118.446	-0.105	-0.018
-103.947	763.946	-0.056	-0.151
-102.932	-17.240	-0.240	-0.149
-101.918	204.744	-0.026	0.039
-100.903	212.450	-0.085	-0.132
-99.889	-33.947	-0.156	0.085
-98.874	-139.297	0.179	0.019
-97.859	-123.107	0.141	-0.022
-96.845	-200.000	-0.004	0.107
-95.830	52.055	0.369	0.347
-94.816	800.000	0.172	0.546
-93.801	436.402	0.058	0.126
-92.786	-200.000	-0.256	0.000
-91.772	-200.000	0.013	0.188
-90.757	800.000	0.049	0.161
-89.743	-117.212	-0.165	0.030
-88.728	573.068	-0.100	0.241
-87.713	-175.243	0.284	0.008
-86.699	491.074	0.056	0.126
-85.684	167.153	0.089	-0.125
-84.670	75.924	-0.020	-0.020
-83.655	272.644	0.114	0.199
-82.640	-200.000	-0.398	-0.000
-81.626	-27.807	-0.106	0.061
-80.611	69.775	0.156	0.159
-79.597	-131.648	0.050	-0.006
-78.582	5.998	0.198	-0.145
-77.567	-16.974	0.168	-0.105
-76.553	-105.624	-0.299	0.067
-75.538	-145.048	0.153	-0.014
-74.524	-200.000	0.010	-0.278
-73.509	-56.923	-0.033	-0.014
-72.494	-200.000	-0.044	-0.210
-71.480	-200.000	0.073	-0.369
-70.465	144.140	-0.061	-0.081
-69.451	-81.075	-0.105	0.034
-68.436	150.148	0.039	-0.053
-67.422	-170.353	0.076	-0.003
-66.407	800.000	-0.063	0.243
-65.392	280.936	-0.162	0.286
-64.378	-22.530	0.126	0.075
-63.363	800.000	0.155	0.461
-62.349	-102.851	0.238	-0.056
-61.334	70.370	-0.956	-0.974
-60.319	213.307	0.504	0.786
-59.305	-200.000	-0.231	-1.350
-58.290	130.110	0.663	0.837
-57.276	800.000	0.480	1.516
-56.261	-200.000	111.181	618.272
-55.246	449.309	1506.759	3275.064
-54.232	143.491	2684.606	3524.434
-53.217	94.200	2328.737	2605.600
-52.203	34.345	2077.165	1786.684
-51.188	29.738	1991.792	1671.645
-50.173	28.242	1975.401	1644.398
-49.159	45.140	2032.343	1846.252
-48.144	44.982	2048.480	1859.402
-47.130	30.219	2008.126	1689.467
-46.115	27.900	1997.337	1659.284
-45.100	27.760	1994.809	1655.847
-44.086	27.810	1992.070	1653.960
-43.071	27.825	1989.265	1651.700
-42.057	27.771	1987.313	1649.524
-41.042	27.771	1985.847	1648.245
-40.027	27.772	1984.289	1646.898
-39.013	27.854	1982.337	1645.954
-37.998	27.849	1980.448	1644.271
-36.984	27.821	1978.602	1642.420
-35.969	27.900	1976.075	1640.964
-34.954	27.809	1975.216	1639.373
-33.940	27.872	1973.534	1638.476
-32.925	27.915	1971.505	1637.115
-31.911	27.923	1969.689	1635.611
-30.896	27.970	1968.372	1634.870
-29.881	27.926	1966.906	1633.194
-28.867	27.972	1965.630	1632.486
-27.852	28.003	1964.018	1631.360
-26.838	27.891	1962.306	1628.873
-25.823	27.981	1960.633	1628.223
-24.809	28.010	1958.440	1626.593
-23.794	27.913	1956.302	1623.892
-22.779	27.942	1954.974	1622.985
-21.765	27.912	1953.125	1621.116
-20.750	27.895	1950.890	1619.042
-19.736	27.984	1949.735	1618.809
-18.721	27.981	1948.003	1617.281
-17.706	27.894	1946.718	1615.382
-16.692	27.910	1945.182	1614.182
-15.677	27.991	1943.338	1613.305
-14.663	27.926	1941.772	1611.364
-13.648	27.919	1940.987	1610.591
-12.633	27.869	1940.052	1609.309
-11.619	27.910	1938.422	1608.255
-10.604	28.017	1937.003	1607.955
-9.590	27.968	1935.874	1606.527
-8.575	27.960	1934.348	1605.120
-7.560	28.007	1932.566	1603.995
-6.546	27.918	1931.812	1602.524
-5.531	27.964	1930.466	1601.747
-4.517	27.896	1929.013	1599.885
-3.502	27.867	1928.395	1599.051
-2.487	27.998	1926.454	1598.523
-1.473	27.953	1925.916	1597.623
-0.458	28.107	1920.728	1594.601
0.556	26.127	1901.769	1567.611
1.571	22.200	1883.440	1518.516
2.586	18.514	1906.546	1504.723
3.600	17.489	1942.245	1523.593
4.615	17.236	1936.437	1516.642
5.629	13.446	1835.300	1405.186
6.644	5.278	1716.490	1249.021
7.659	0.613	1680.011	1185.809
8.673	0.234	1676.488	1180.248
9.688	0.129	1675.846	1178.865
10.702	0.174	1673.835	1177.697
11.717	0.014	1670.415	1173.939
12.731	0.617	1669.668	1178.016
13.746	6.634	1682.974	1234.493
14.761	14.420	1698.765	1307.255
15.775	17.274	1702.242	1332.216
16.790	16.880	1700.154	1327.382
17.804	15.892	1696.409	1316.617
18.819	14.939	1693.530	1306.828
19.834	14.408	1691.410	1300.929
20.848	14.092	1689.597	1296.955
21.863	13.812	1687.845	1293.311
22.877	13.524	1686.971	1290.289
23.892	13.340	1685.220	1287.400
24.907	13.148	1684.288	1285.078
25.921	13.157	1683.224	1284.227
26.936	13.230	1681.912	1283.676
27.950	13.224	1681.436	1283.152
28.965	13.331	1680.781	1283.369
29.980	13.309	1680.354	1282.763
30.994	13.392	1678.845	1282.137
32.009	13.458	1678.341	1282.148
33.023	13.537	1677.287	1281.841
34.038	13.474	1676.600	1280.721
35.053	13.412	1675.971	1279.641
36.067	13.409	1674.316	1278.245
37.082	13.405	1673.248	1277.288
38.096	13.440	1672.320	1276.733
39.111	13.406	1671.542	1275.768
40.126	13.503	1670.506	1275.610
41.140	13.409	1669.770	1274.211
42.155	13.330	1668.608	1272.601
43.169	13.169	1667.743	1270.595
44.184	13.223	1666.039	1269.593
45.199	13.159	1664.915	1268.133
46.213	13.284	1663.758	1268.105
47.228	13.263	1662.158	1266.607
48.242	13.266	1660.751	1265.446
49.257	13.367	1659.527	1265.176
50.271	13.386	1658.258	1264.240
51.286	13.358	1657.311	1263.195
52.301	13.304	1655.858	1261.560
53.315	13.318	1654.432	1260.469
54.330	13.358	1652.781	1259.406
55.344	13.234	1651.527	1257.399
56.359	13.212	1650.441	1256.289
57.374	13.289	1648.914	1255.605
58.388	13.197	1647.996	1254.097
59.403	13.244	1646.182	1252.955
60.417	13.275	1644.575	1251.862
61.432	13.185	1643.846	1250.515
62.447	13.203	1642.704	1249.666
63.461	13.259	1641.439	1249.016
64.476	13.077	1640.605	1246.900
65.490	13.093	1639.305	1245.921
66.505	13.040	1637.848	1244.308
67.520	13.212	1637.102	1244.925
68.534	13.172	1636.030	1243.701
69.549	13.146	1634.820	1242.476
70.563	13.198	1633.077	1241.431
71.578	13.215	1632.136	1240.733
72.593	13.116	1631.033	1239.038
73.607	13.108	1629.941	1238.041
74.622	13.077	1628.375	1236.508
75.636	13.091	1627.902	1236.144
76.651	13.073	1627.089	1235.283
77.666	13.029	1625.458	1233.611
78.680	13.048	1624.800	1233.141
79.695	13.046	1623.902	1232.335
80.709	13.041	1623.472	1231.864
81.724	13.156	1622.233	1231.673
82.739	13.150	1621.141	1230.688
83.753	13.169	1620.104	1229.934
84.768	13.189	1619.418	1229.456
85.782	13.308	1618.417	1229.466
86.797	13.350	1617.480	1228.963
87.812	13.399	1616.667	1228.595
88.826	13.310	1615.233	1226.738
89.841	13.175	1614.032	1224.717
90.855	13.313	1612.761	1224.669
91.870	13.366	1611.261	1223.814
92.884	13.300	1611.107	1223.100
93.899	13.307	1610.093	1222.275
94.914	13.287	1608.746	1220.997
95.928	13.408	1607.511	1220.843
96.943	13.380	1606.002	1219.379
97.957	13.356	1604.409	1217.890
98.972	13.412	1603.152	1217.239
99.987	13.330	1601.627	1215.373
101.001	13.393	1600.031	1214.510
102.016	13.312	1598.656	1212.768
103.030	13.338	1597.213	1211.755
104.045	13.337	1596.127	1210.815
105.060	13.416	1594.173	1209.806
106.074	13.429	1593.096	1208.980
107.089	13.361	1591.548	1207.198
108.103	13.141	1590.383	1204.606
109.118	13.156	1588.697	1203.332
110.133	13.192	1587.574	1202.631
111.147	13.209	1585.553	1201.120
112.162	13.223	1584.923	1200.638
113.176	13.168	1583.859	1199.330
114.191	13.220	1582.020	1198.204
115.206	13.244	1580.985	1197.491
116.220	13.287	1579.697	1196.716
117.235	13.206	1578.521	1195.136
118.249	13.284	1576.667	1194.188
119.264	13.236	1575.598	1192.931
120.279	13.191	1574.632	1191.769
121.293	13.248	1573.011	1190.844
122.308	13.181	1571.535	1189.143
123.322	13.217	1569.915	1188.071
124.337	13.198	1568.455	1186.726
125.352	13.169	1567.190	1185.451
126.366	13.180	1566.482	1184.889
127.381	13.200	1564.881	1183.721
128.395	13.221	1563.436	1182.671
129.410	13.204	1562.323	1181.606
130.424	13.194	1560.971	1180.405
131.439	13.122	1559.797	1178.898
132.454	13.208	1558.891	1178.722
133.468	13.271	1557.443	1177.971
134.483	13.290	1555.462	1176.504
135.497	13.248	1554.565	1175.421
136.512	13.327	1553.092	1174.764
137.527	13.276	1551.912	1173.407
138.541	13.309	1550.685	1172.608
139.556	13.215	1549.398	1170.870
140.570	13.331	1547.606	1170.232
141.585	13.415	1546.114	1169.593
142.600	13.427	1545.046	1168.765
143.614	13.480	1543.664	1167.989
144.629	13.417	1542.890	1166.859
145.643	13.487	1541.327	1166.069
146.658	13.498	1540.242	1165.219
147.673	13.471	1538.328	1163.476
148.687	13.442	1536.690	1161.932
149.702	13.464	1535.103	1160.782
150.716	13.499	1533.337	1159.590
151.731	13.426	1532.384	1158.257
152.746	13.444	1530.679	1156.994
153.760	13.379	1529.296	1155.388
154.775	13.405	1528.000	1154.492
155.789	13.492	1526.740	1154.041
156.804	13.512	1525.393	1153.065
157.819	13.504	1524.235	1152.029
158.833	13.513	1523.376	1151.342
159.848	13.622	1521.671	1150.705
160.862	13.624	1520.956	1150.076
161.877	13.703	1519.278	1149.257
162.892	13.602	1518.059	1147.534
163.906	13.569	1516.717	1146.189
164.921	13.540	1515.718	1145.129
165.935	13.534	1514.639	1144.173
166.950	13.601	1513.655	1143.791
167.964	13.586	1512.641	1142.822
168.979	13.573	1511.544	1141.799
169.994	13.610	1510.283	1141.005
171.008	13.669	1509.400	1140.637
172.023	13.643	1508.176	1139.437
173.037	13.753	1506.666	1138.950
174.052	13.707	1505.673	1137.779
175.067	13.725	1504.556	1136.958
176.081	13.733	1503.520	1136.133
177.096	13.580	1502.136	1133.940
178.110	13.621	1501.178	1133.392
179.125	13.637	1499.849	1132.402
180.140	13.626	1498.744	1131.391
181.154	13.626	1497.811	1130.586
182.169	13.688	1496.436	1129.873
183.183	13.737	1495.011	1129.028
184.198	13.767	1493.719	1128.159
185.213	13.778	1493.070	1127.641
186.227	13.758	1491.995	1126.592
187.242	13.780	1490.919	1125.831
188.256	13.839	1489.661	1125.182
189.271	13.946	1488.399	1124.853
190.286	13.913	1487.467	1123.828
191.300	13.816	1486.574	1122.400
192.315	13.768	1485.554	1121.206
193.329	13.772	1483.925	1119.904
194.344	13.730	1482.578	1118.502
195.359	13.665	1482.035	1117.555
196.373	13.783	1480.876	1117.381
197.388	13.813	1480.001	1116.820
198.402	13.932	1478.449	1116.353
199.417	13.909	1477.800	1115.610
200.432	14.000	1476.573	1115.191
201.446	14.116	1475.729	1115.237
202.461	14.064	1474.598	1113.936
203.475	14.170	1473.004	1113.339
204.490	14.095	1472.233	1112.158
205.504	14.133	1471.040	1111.413
206.519	14.127	1469.808	1110.345
207.534	14.078	1468.853	1109.198
208.548	13.983	1467.746	1107.625
209.563	14.077	1466.867	1107.496
210.577	14.008	1466.347	1106.540
211.592	14.126	1464.883	1106.123
212.607	14.151	1463.890	1105.447
213.621	14.126	1463.639	1104.987
214.636	14.254	1462.653	1104.995
215.650	14.279	1461.497	1104.193
216.665	14.185	1460.511	1102.725
217.680	14.237	1459.669	1102.335
218.694	14.249	1458.942	1101.772
219.709	14.331	1457.968	1101.481
220.723	14.334	1457.071	1100.725
221.738	14.291	1456.435	1099.864
222.753	14.285	1455.579	1099.081
223.767	14.228	1454.689	1097.934
224.782	14.236	1453.412	1096.928
225.796	14.414	1451.914	1096.869
226.811	14.416	1451.577	1096.531
227.826	14.454	1451.110	1096.329
228.840	14.376	1450.267	1095.088
229.855	14.355	1449.105	1093.970
230.869	14.303	1448.301	1092.928
231.884	14.389	1446.727	1092.208
232.899	14.407	1445.864	1091.574
233.913	14.253	1444.851	1089.710
234.928	14.402	1443.520	1089.580
235.942	14.421	1442.355	1088.727
236.957	14.359	1441.384	1087.498
237.972	14.308	1440.249	1086.211
238.986	14.408	1438.640	1085.552
240.001	14.404	1438.152	1085.060
241.015	14.463	1436.838	1084.360
242.030	14.410	1435.977	1083.266
243.045	14.423	1434.619	1082.233
244.059	14.491	1433.991	1082.107
245.074	14.477	1433.333	1081.422
246.088	14.542	1432.703	1081.274
247.103	14.570	1431.097	1080.142
248.117	14.610	1430.436	1079.807
249.132	14.618	1430.083	1079.497
250.147	14.708	1429.257	1079.364
251.161	14.785	1428.327	1079.060
252.176	14.842	1427.920	1079.026
253.190	14.845	1427.008	1078.264
254.205	14.922	1425.828	1077.773
255.220	14.840	1425.436	1076.851
256.234	14.876	1424.890	1076.572
257.249	14.948	1423.569	1075.947
258.263	14.866	1423.120	1074.984
259.278	14.968	1422.113	1074.782
260.293	14.907	1421.099	1073.527
261.307	14.927	1420.501	1073.108
262.322	15.010	1419.694	1072.941
263.336	15.004	1419.079	1072.337
264.351	15.087	1417.616	1071.674
265.366	15.115	1417.006	1071.296
266.380	15.073	1416.276	1070.378
267.395	15.158	1414.870	1069.761
268.409	15.133	1414.116	1068.940
269.424	15.053	1413.492	1067.864
270.439	15.133	1412.005	1067.156
271.453	15.148	1410.909	1066.330
272.468	15.082	1409.981	1065.110
273.482	15.098	1409.467	1064.731
274.497	15.122	1408.364	1063.960
275.512	15.128	1407.546	1063.281
276.526	15.134	1406.549	1062.477
277.541	15.150	1405.906	1061.994
278.555	15.181	1404.751	1061.227
279.570	15.268	1403.985	1061.105
280.585	15.151	1403.162	1059.644
281.599	15.169	1402.667	1059.294
282.614	15.252	1401.476	1058.822
283.628	15.281	1399.973	1057.779
284.643	15.175	1399.229	1056.451
285.657	15.242	1398.004	1055.855
286.672	15.171	1397.146	1054.667
287.687	15.258	1396.001	1054.262
288.701	15.257	1395.015	1053.415
289.716	15.257	1394.689	1053.078
290.730	15.339	1393.842	1052.857
291.745	15.366	1392.578	1051.982
292.760	15.312	1391.780	1050.942
293.774	15.403	1390.450	1050.415
294.789	15.340	1389.788	1049.432
295.803	15.504	1389.241	1049.948
296.818	15.449	1388.075	1048.634
297.833	15.472	1387.000	1047.873
298.847	15.384	1386.461	1046.821
299.862	15.368	1385.015	1045.540
300.876	15.478	1383.938	1045.316
301.891	15.467	1383.243	1044.628
302.906	15.488	1382.411	1044.041
303.920	15.509	1381.759	1043.586
304.935	15.599	1380.932	1043.430
305.949	15.635	1380.311	1043.093
306.964	15.644	1379.345	1042.322
307.979	15.798	1378.096	1042.241
308.993	15.600	1377.256	1040.290
310.008	15.685	1376.230	1039.945
311.022	15.619	1375.665	1039.021
312.037	15.723	1374.544	1038.724
313.052	15.747	1373.168	1037.743
314.066	15.768	1372.339	1037.154
315.081	15.621	1371.541	1035.553
316.095	15.777	1370.068	1035.304
317.110	15.604	1369.078	1033.406
318.125	15.615	1368.689	1033.085
319.139	15.649	1367.152	1032.041
320.154	15.753	1366.316	1031.958
321.168	15.632	1365.641	1030.613
322.183	15.746	1364.217	1030.148
323.197	15.736	1363.563	1029.501
324.212	15.762	1362.727	1028.938
325.227	15.787	1361.770	1028.278
326.241	15.756	1360.926	1027.360
327.256	15.792	1359.922	1026.729
328.270	15.729	1359.454	1025.905
329.285	15.823	1358.028	1025.311
330.300	15.779	1357.271	1024.379
331.314	15.881	1356.621	1024.417
332.329	15.879	1355.354	1023.358
333.343	15.820	1354.481	1022.251
334.358	15.842	1354.151	1022.048
335.373	15.928	1353.046	1021.640
336.387	15.878	1352.504	1020.838
337.402	15.932	1351.333	1020.190
338.416	16.020	1350.669	1020.136
339.431	15.964	1350.179	1019.337
340.446	16.088	1349.363	1019.375
341.460	16.039	1348.912	1018.648
342.475	16.022	1347.546	1017.428
343.489	16.145	1346.562	1017.338
344.504	16.175	1345.593	1016.696
345.519	16.130	1345.055	1015.924
346.533	16.265	1343.664	1015.596
347.548	16.230	1343.023	1014.817
348.562	16.305	1341.849	1014.287
349.577	16.166	1341.799	1013.326
350.592	16.188	1340.772	1012.594
351.606	16.254	1339.718	1012.098
352.621	16.130	1338.775	1010.556
353.635	16.236	1337.712	1010.301
354.650	16.084	1336.860	1008.659
355.665	16.113	1336.111	1008.175
356.679	16.146	1334.907	1007.374
357.694	16.232	1333.801	1006.968
358.708	16.242	1332.539	1005.980
359.723	16.330	1331.712	1005.792
360.738	16.261	1330.935	1004.707
361.752	16.249	1329.777	1003.672
362.767	16.275	1328.763	1002.972
363.781	16.393	1327.487	1002.622
364.796	16.325	1327.127	1001.858
365.810	16.363	1326.524	1001.537
366.825	16.415	1325.804	1001.218
367.840	16.409	1324.961	1000.454
368.854	16.474	1324.420	1000.342
369.869	16.500	1323.936	1000.042
370.883	16.481	1323.530	999.531
371.898	16.509	1322.549	998.872
372.913	16.678	1321.093	998.682
373.927	16.597	1320.528	997.689
374.942	16.558	1319.612	996.674
375.956	16.693	1318.805	996.774
376.971	16.635	1317.843	995.614
377.986	16.600	1317.161	994.807
379.000	16.654	1316.593	994.611
380.015	16.675	1316.020	994.210
381.029	16.734	1314.947	993.657
382.044	16.784	1314.240	993.329
383.059	16.755	1313.659	992.630
384.073	16.667	1312.988	991.520
385.088	16.710	1312.569	991.369
386.102	16.872	1311.464	991.393
387.117	16.878	1310.852	990.876
388.132	16.844	1309.788	989.789
389.146	16.784	1308.970	988.735
390.161	16.910	1308.001	988.645
391.175	16.865	1307.244	987.726
392.190	16.863	1306.558	987.109
393.205	16.697	1306.006	985.640
394.219	16.929	1304.861	986.038
395.234	16.909	1303.947	985.143
396.248	16.939	1302.221	983.924
397.263	17.021	1301.069	983.440
398.278	17.053	1299.446	982.316
399.292	16.976	1298.651	981.182
400.307	16.895	1297.674	979.889
401.321	16.842	1296.766	978.810
402.336	16.854	1296.089	978.280
403.350	16.884	1295.177	977.677
404.365	16.932	1294.249	977.166
405.380	16.969	1292.887	976.264
406.394	16.956	1292.507	975.817
407.409	17.146	1291.212	975.846
408.423	17.061	1290.344	974.615
409.438	17.132	1290.271	974.883
410.453	17.122	1289.431	974.103
411.467	17.096	1289.030	973.564
412.482	17.082	1288.322	972.865
413.496	17.242	1287.403	973.000
414.511	17.246	1286.856	972.526
415.526	17.256	1285.689	971.611
416.540	17.262	1285.217	971.205
417.555	17.290	1284.897	971.038
418.569	17.284	1283.932	970.190
419.584	17.388	1283.419	970.308
420.599	17.383	1282.276	969.330
421.613	96.579	1354.991	1476.635
422.628	94.493	1365.567	1476.736
