DTS Sentinel unit serial number:	SN413079Multiplexer serial number:	ORYXHardware model number:	OX4-SRSoftware version number:	ORYX F/W v4.00 Oryx Data Collector v3.7.2.0data status	okinstallation	princeton_trtdifferential loss correction	single-endedforward channel	channel 4reverse channel	N/Adate	2019/09/16time	15:33:34forward acquisition time	60.00reverse acquisition time	0.00gamma	496.2192k internal	0.2288k external	0.2288temperature offset calibration	0.9938default loss term (dB/km)	0.3790temperature slope calibration	1.0000multiplexer offset coefficient	1.0000multiplexer slope coefficient	1.0000fibre end	0.00T internal ref (°C)	41.16T ext. ref 1 (°C)	14.70T ext. ref 2 (°C)	36.96length (m)	temperature (°C)	Stokes	anti-Stokes-747.200	141.205	0.181	-0.246
-746.185	-122.699	-0.100	-0.017
-745.171	315.804	-0.025	-0.049
-744.156	66.334	-0.324	0.338
-743.142	-200.000	0.026	-0.158
-742.127	-179.647	0.510	0.011
-741.112	64.719	-0.267	0.276
-740.098	34.866	-0.090	0.081
-739.083	-3.273	0.372	0.266
-738.069	-155.927	0.203	-0.013
-737.054	-190.100	-0.432	-0.005
-736.039	800.000	-0.102	0.296
-735.025	-65.996	-0.253	-0.104
-734.010	-11.576	-0.137	0.092
-732.996	-165.192	-0.227	-0.010
-731.981	151.530	0.058	-0.081
-730.966	79.613	0.112	-0.124
-729.952	65.439	-0.168	-0.174
-728.937	-179.688	-0.445	0.010
-727.923	-82.146	-0.202	-0.067
-726.908	-200.000	0.030	0.172
-725.894	-25.364	0.344	0.208
-724.879	-2.710	0.442	-0.317
-723.864	-200.000	-0.055	0.395
-722.850	-43.033	0.132	0.069
-721.835	-200.000	0.020	-0.213
-720.821	-200.000	-0.002	-0.142
-719.806	-200.000	0.024	0.273
-718.791	56.510	-0.165	0.164
-717.777	648.981	0.069	-0.181
-716.762	286.659	0.157	-0.291
-715.748	114.067	-0.151	-0.188
-714.733	800.000	0.026	0.100
-713.718	320.028	-0.055	0.107
-712.704	137.899	0.021	0.028
-711.689	-37.391	-0.027	-0.015
-710.675	800.000	0.039	0.131
-709.660	-130.924	-0.273	-0.037
-708.645	20.906	-0.391	-0.325
-707.631	175.620	0.099	-0.148
-706.616	-200.000	-0.035	-0.354
-705.602	800.000	0.024	0.096
-704.587	140.542	-0.093	0.126
-703.572	-127.628	0.059	-0.009
-702.558	800.000	0.052	-0.228
-701.543	800.000	0.089	0.267
-700.529	-172.491	-0.367	-0.012
-699.514	-200.000	0.005	-0.075
-698.499	-153.352	0.116	0.008
-697.485	9.387	-0.100	-0.078
-696.470	-75.888	-0.109	-0.039
-695.456	-139.232	-0.194	-0.021
-694.441	25.404	0.166	0.141
-693.426	-200.000	-0.015	-0.277
-692.412	-134.979	-0.399	0.049
-691.397	-119.608	-0.143	0.025
-690.383	-200.000	-0.043	-0.237
-689.368	-42.901	0.259	-0.135
-688.354	-139.932	-0.486	-0.053
-687.339	-173.673	-0.454	0.014
-686.324	-21.179	-0.118	-0.074
-685.310	176.797	0.188	0.279
-684.295	50.430	0.139	0.135
-683.281	-105.717	-0.204	-0.047
-682.266	61.367	-0.163	-0.165
-681.251	23.582	-0.250	-0.211
-680.237	-122.978	0.186	-0.031
-679.222	119.526	-0.198	-0.251
-678.208	-86.962	0.180	0.056
-677.193	-100.911	-0.407	0.102
-676.178	-104.525	-0.248	0.059
-675.164	800.000	0.110	-0.333
-674.149	137.553	-0.105	0.141
-673.135	-7.888	0.387	0.267
-672.120	21.523	0.108	0.090
-671.105	-119.422	0.067	0.012
-670.091	-200.000	0.011	-0.184
-669.076	800.000	0.063	-0.202
-668.062	-3.394	-0.063	-0.045
-667.047	-39.969	0.374	0.199
-666.032	-200.000	0.033	-0.220
-665.018	-200.000	-0.058	0.360
-664.003	58.564	0.302	0.303
-662.989	-200.000	0.015	0.269
-661.974	-200.000	0.044	-0.439
-660.959	-200.000	-0.001	-0.227
-659.945	-200.000	-0.001	-0.077
-658.930	-200.000	0.001	0.287
-657.916	-133.767	0.285	-0.036
-656.901	2.891	-0.225	-0.167
-655.886	-180.101	-0.125	-0.003
-654.872	-200.000	0.002	0.227
-653.857	-155.966	-0.299	0.019
-652.843	78.234	-0.109	0.119
-651.828	800.000	0.103	-0.316
-650.814	181.724	-0.111	0.167
-649.799	445.216	0.123	0.275
-648.784	-148.733	0.345	-0.029
-647.770	85.109	0.093	-0.105
-646.755	166.082	-0.077	-0.112
-645.741	41.365	-0.133	-0.123
-644.726	681.202	-0.010	0.028
-643.711	218.971	-0.025	0.041
-642.697	3.450	-0.238	0.177
-641.682	-127.669	0.246	-0.036
-640.668	800.000	0.128	-0.384
-639.653	-47.106	-0.044	-0.022
-638.638	242.106	-0.193	0.329
-637.624	800.000	-0.025	0.077
-636.609	108.596	-0.073	-0.089
-635.595	800.000	0.035	-0.109
-634.580	-117.872	-0.255	0.047
-633.565	-29.688	-0.122	-0.071
-632.551	-159.639	-0.273	-0.015
-631.536	-87.782	0.288	-0.089
-630.522	76.690	0.119	-0.128
-629.507	515.167	0.164	-0.391
-628.492	-176.098	-0.420	-0.011
-627.478	149.279	-0.131	-0.181
-626.463	-146.150	-0.358	-0.032
-625.449	-200.000	-0.016	-0.151
-624.434	800.000	0.153	0.437
-623.419	-126.886	0.156	0.024
-622.405	348.276	-0.071	-0.142
-621.390	-96.511	0.039	0.010
-620.376	800.000	0.043	0.144
-619.361	-157.522	0.222	0.014
-618.346	41.526	-0.180	0.166
-617.332	-200.000	0.025	-0.224
-616.317	16.922	0.067	0.054
-615.303	403.077	-0.218	0.468
-614.288	713.547	-0.030	0.082
-613.273	226.033	0.015	-0.025
-612.259	-34.970	0.208	0.116
-611.244	-0.566	-0.143	0.103
-610.230	-33.246	0.312	0.176
-609.215	31.699	-0.227	0.199
-608.201	-0.025	0.067	0.049
-607.186	-72.633	-0.208	-0.078
-606.171	97.700	0.144	0.169
-605.157	800.000	0.035	0.129
-604.142	-200.000	-0.014	-0.382
-603.128	357.812	0.141	-0.287
-602.113	-200.000	0.065	-0.449
-601.098	-76.699	0.229	0.082
-600.084	-145.760	0.318	-0.029
-599.069	-200.000	0.045	-0.337
-598.055	249.859	-0.091	-0.158
-597.040	36.438	0.140	-0.126
-596.025	615.403	-0.133	0.341
-595.011	280.605	0.107	-0.195
-593.996	-37.996	-0.218	0.118
-592.982	58.388	-0.146	0.146
-591.967	89.131	0.147	-0.167
-590.952	172.182	-0.183	0.269
-589.938	748.396	-0.053	0.147
-588.923	742.817	-0.045	0.124
-587.909	-77.879	0.422	-0.149
-586.894	-200.000	-0.009	-0.160
-585.879	-115.832	-0.287	0.055
-584.865	579.346	-0.102	-0.255
-583.850	150.481	0.181	-0.251
-582.836	165.113	0.071	-0.102
-581.821	181.755	0.094	-0.141
-580.806	-169.569	-0.191	0.007
-579.792	-200.000	0.014	0.100
-578.777	696.960	0.054	-0.145
-577.763	-200.000	-0.029	-0.334
-576.748	302.395	-0.034	0.065
-575.733	42.446	0.207	-0.192
-574.719	263.460	0.122	-0.217
-573.704	21.692	-0.307	0.255
-572.690	-81.147	0.331	0.111
-571.675	44.523	0.130	0.122
-570.661	-63.940	-0.283	0.118
-569.646	800.000	0.113	0.480
-568.631	-92.348	-0.397	0.114
-567.617	-179.557	-0.111	0.002
-566.602	-36.216	-0.290	-0.159
-565.588	-61.475	-0.291	-0.125
-564.573	44.676	0.124	-0.116
-563.558	-164.737	-0.167	0.008
-562.544	70.332	-0.128	0.135
-561.529	800.000	-0.038	-0.132
-560.515	-200.000	0.002	-0.226
-559.500	-72.025	-0.333	0.126
-558.485	-200.000	-0.079	-0.369
-557.471	472.745	-0.102	0.233
-556.456	-28.451	-0.084	0.049
-555.442	-31.103	-0.079	-0.046
-554.427	-64.179	0.065	0.027
-553.412	83.679	-0.132	-0.146
-552.398	207.669	0.068	-0.108
-551.383	-79.786	-0.473	0.162
-550.369	-73.851	0.088	0.032
-549.354	293.346	-0.213	0.396
-548.339	800.000	0.134	0.563
-547.325	422.109	-0.098	0.213
-546.310	121.525	-0.108	-0.136
-545.296	-185.236	0.266	-0.004
-544.281	800.000	-0.016	0.052
-543.266	-127.025	0.427	-0.064
-542.252	19.752	0.251	0.206
-541.237	11.040	-0.253	0.197
-540.223	83.502	-0.132	-0.146
-539.208	-90.013	0.121	-0.036
-538.193	-127.958	-0.042	-0.006
-537.179	220.166	0.176	0.287
-536.164	156.489	0.125	-0.175
-535.150	-92.642	0.406	-0.116
-534.135	-188.512	-0.359	0.005
-533.121	549.694	-0.074	0.180
-532.106	132.303	0.040	0.052
-531.091	-200.000	-0.021	-0.273
-530.077	-200.000	0.001	0.102
-529.062	1.462	0.224	-0.164
-528.048	-200.000	-0.045	0.309
-527.033	96.241	-0.124	-0.144
-526.018	317.303	-0.103	0.198
-525.004	104.900	0.133	0.160
-523.989	23.884	0.185	-0.155
-522.975	-86.011	-0.099	-0.031
-521.960	-140.688	0.062	-0.007
-520.945	-158.218	-0.216	0.013
-519.931	-200.000	-0.013	0.256
-518.916	161.029	-0.137	-0.194
-517.902	122.007	-0.310	-0.393
-516.887	-29.774	0.431	-0.250
-515.872	366.735	-0.082	-0.167
-514.858	-145.057	0.101	-0.009
-513.843	144.110	-0.152	0.207
-512.829	113.703	-0.156	0.192
-511.814	-87.155	-0.331	-0.102
-510.799	34.067	0.196	-0.174
-509.785	-200.000	-0.033	-0.517
-508.770	207.939	-0.146	-0.232
-507.756	412.424	0.100	-0.217
-506.741	-157.306	-0.048	0.003
-505.726	-108.954	0.288	-0.062
-504.712	-25.070	-0.291	-0.175
-503.697	800.000	-0.022	-0.086
-502.683	-56.154	-0.179	-0.081
-501.668	-129.101	0.082	-0.012
-500.653	-200.000	-0.007	0.160
-499.639	201.299	0.075	-0.117
-498.624	35.383	-0.060	0.054
-497.610	-182.005	0.149	-0.003
-496.595	188.094	0.139	-0.211
-495.581	-41.017	-0.242	-0.127
-494.566	800.000	0.072	-0.266
-493.551	800.000	0.033	-0.096
-492.537	-53.814	0.261	0.121
-491.522	-60.077	-0.148	0.064
-490.508	73.932	-0.207	-0.221
-489.493	-61.593	-0.309	-0.132
-488.478	-200.000	0.014	-0.184
-487.464	800.000	0.095	-0.274
-486.449	-91.999	0.222	-0.064
-485.435	293.454	0.108	0.200
-484.420	-104.305	0.360	0.085
-483.405	-43.309	-0.197	-0.101
-482.391	90.839	0.147	-0.167
-481.376	800.000	0.041	-0.169
-480.362	-89.276	0.181	-0.054
-479.347	16.928	-0.200	-0.161
-478.332	30.282	-0.191	-0.166
-477.318	-105.958	-0.327	0.075
-476.303	-170.797	0.300	0.010
-475.289	-70.279	0.274	-0.105
-474.274	-149.093	-0.228	-0.019
-473.259	-200.000	0.255	-0.001
-472.245	417.610	0.111	0.240
-471.230	-16.976	-0.243	-0.156
-470.216	106.773	-0.257	0.310
-469.201	-77.258	0.187	0.066
-468.186	-149.973	0.256	0.020
-467.172	-130.637	-0.404	0.055
-466.157	16.025	-0.254	-0.203
-465.143	-93.939	-0.262	-0.073
-464.128	-200.000	0.024	-0.256
-463.113	-23.768	-0.215	0.130
-462.099	800.000	0.069	-0.212
-461.084	-174.339	0.186	0.005
-460.070	-168.560	-0.302	0.012
-459.055	429.249	0.084	0.184
-458.040	-23.012	-0.103	-0.063
-457.026	4.853	0.121	0.090
-456.011	44.443	-0.103	-0.096
-454.997	468.003	-0.028	0.064
-453.982	-115.604	-0.120	0.023
-452.968	-200.000	0.029	0.355
-451.953	-200.000	0.034	0.194
-450.938	-200.000	0.005	0.125
-449.924	-79.262	0.169	0.058
-448.909	-90.981	0.205	-0.060
-447.895	152.613	-0.191	-0.265
-446.880	800.000	0.097	-0.277
-445.865	118.555	-0.357	-0.447
-444.851	772.210	0.114	-0.315
-443.836	77.992	-0.116	0.126
-442.822	-165.499	-0.280	0.012
-441.807	87.247	-0.255	-0.286
-440.792	-49.463	0.083	0.040
-439.778	-200.000	0.014	0.112
-438.763	-25.212	-0.154	0.092
-437.749	-115.107	0.067	-0.013
-436.734	-143.494	-0.070	0.007
-435.719	23.566	0.063	0.053
-434.705	0.644	-0.295	-0.214
-433.690	-200.000	-0.037	0.280
-432.676	-138.284	0.380	-0.043
-431.661	-200.000	-0.050	-0.228
-430.646	356.407	0.128	-0.258
-429.632	-200.000	0.040	0.273
-428.617	-99.069	0.397	-0.102
-427.603	381.079	0.146	-0.303
-426.588	-57.896	0.209	0.093
-425.573	743.322	-0.065	0.176
-424.559	-102.158	-0.422	0.103
-423.544	475.276	0.149	0.340
-422.530	-22.918	0.064	0.039
-421.515	-134.464	-0.425	0.053
-420.500	198.618	0.088	0.137
-419.486	-200.000	-0.018	-0.111
-418.471	121.793	-0.038	0.048
-417.457	16.590	-0.095	0.076
-416.442	279.424	0.104	-0.188
-415.428	-83.547	-0.504	-0.163
-414.413	-47.502	0.110	0.054
-413.398	-109.484	0.018	-0.004
-412.384	800.000	-0.034	-0.113
-411.369	93.302	0.255	0.292
-410.355	-200.000	0.082	0.393
-409.340	35.276	-0.298	0.265
-408.325	-67.118	0.230	0.092
-407.311	800.000	0.085	-0.279
-406.296	-200.000	-0.011	-0.335
-405.282	-200.000	-0.006	0.250
-404.267	-183.939	0.133	-0.002
-403.252	76.177	0.135	0.145
-402.238	-200.000	0.009	0.163
-401.223	191.022	-0.173	0.263
-400.209	-123.158	-0.273	-0.044
-399.194	151.006	-0.108	-0.148
-398.179	71.440	-0.173	-0.181
-397.165	-157.145	-0.063	-0.004
-396.150	9.723	0.324	-0.248
-395.136	-200.000	0.095	0.458
-394.121	-134.066	0.501	0.063
-393.106	-200.000	-0.003	0.087
-392.092	188.829	0.030	-0.045
-391.077	-133.884	0.239	-0.030
-390.063	800.000	-0.135	0.402
-389.048	800.000	-0.083	-0.282
-388.033	73.690	-0.041	-0.044
-387.019	508.866	0.148	-0.347
-386.004	-200.000	0.010	-0.060
-384.990	272.508	-0.070	-0.124
-383.975	110.082	-0.163	-0.197
-382.960	251.970	-0.005	-0.009
-381.946	-200.000	-0.018	0.096
-380.931	8.839	0.067	0.051
-379.917	-8.844	0.136	0.092
-378.902	-200.000	0.029	-0.211
-377.888	-82.509	-0.099	0.033
-376.873	-103.546	0.199	0.047
-375.858	-22.351	-0.070	-0.043
-374.844	209.964	0.054	0.086
-373.829	79.940	0.201	0.219
-372.815	-41.491	0.010	-0.005
-371.800	-200.000	-0.038	0.175
-370.785	-115.796	-0.197	0.037
-369.771	138.510	0.207	-0.275
-368.756	-136.714	0.185	0.022
-367.742	282.718	-0.056	0.102
-366.727	-200.000	0.035	-0.186
-365.712	-50.149	-0.186	0.089
-364.698	8.034	0.053	-0.040
-363.683	7.532	-0.038	0.028
-362.669	800.000	0.014	-0.055
-361.654	800.000	0.081	-0.237
-360.639	-200.000	0.004	0.043
-359.625	65.719	-0.113	0.116
-358.610	390.154	0.061	0.128
-357.596	-31.730	0.059	-0.034
-356.581	27.396	0.155	0.132
-355.566	-77.263	0.360	0.126
-354.552	39.217	0.044	-0.040
-353.537	56.283	-0.216	-0.212
-352.523	122.847	0.090	-0.114
-351.508	800.000	-0.024	-0.081
-350.493	544.917	-0.115	-0.276
-349.479	48.141	0.249	0.236
-348.464	-29.010	0.345	0.200
-347.450	-77.832	0.194	-0.068
-346.435	-200.000	0.011	0.088
-345.420	-102.738	0.138	-0.033
-344.406	40.444	0.126	-0.115
-343.391	800.000	-0.055	-0.181
-342.377	538.658	0.091	0.219
-341.362	367.650	-0.119	0.242
-340.348	-61.760	0.231	-0.098
-339.333	-110.575	-0.346	-0.072
-338.318	86.529	0.141	0.157
-337.304	-113.161	0.049	-0.010
-336.289	-200.000	0.018	-0.084
-335.275	800.000	-0.026	-0.098
-334.260	-139.259	-0.146	0.016
-333.245	-49.602	-0.416	-0.200
-332.231	-200.000	-0.012	-0.367
-331.216	340.367	-0.126	-0.247
-330.202	296.558	0.098	0.181
-329.187	800.000	-0.084	-0.274
-328.172	-200.000	-0.067	0.453
-327.158	-153.923	-0.372	0.026
-326.143	-57.952	-0.250	-0.110
-325.129	64.068	0.063	0.064
-324.114	-49.031	0.066	-0.032
-323.099	-176.604	-0.164	0.004
-322.085	-113.693	-0.217	-0.043
-321.070	-50.860	-0.247	0.117
-320.056	-92.565	-0.085	0.024
-319.041	-200.000	0.071	0.425
-318.026	800.000	0.055	0.169
-317.012	-200.000	-0.020	0.150
-315.997	78.985	0.040	-0.043
-314.983	-8.747	-0.149	-0.101
-313.968	-116.000	0.160	0.030
-312.953	757.940	0.135	-0.368
-311.939	378.107	-0.074	-0.152
-310.924	-20.940	-0.331	0.204
-309.910	613.922	0.066	0.166
-308.895	494.677	-0.095	0.220
-307.880	103.858	-0.024	0.028
-306.866	92.489	0.170	0.193
-305.851	133.163	0.237	-0.309
-304.837	-200.000	0.006	0.033
-303.822	-150.511	0.133	-0.010
-302.807	-200.000	0.017	0.143
-301.793	131.178	0.117	-0.152
-300.778	-200.000	0.046	-0.384
-299.764	-127.516	0.191	-0.028
-298.749	-47.055	0.292	0.144
-297.735	55.073	-0.121	0.118
-296.720	-56.743	-0.134	-0.060
-295.705	-41.461	-0.320	0.166
-294.691	-157.973	-0.143	-0.008
-293.676	-200.000	0.024	0.268
-292.662	28.204	0.135	-0.115
-291.647	-200.000	0.031	-0.266
-290.632	397.298	0.039	0.082
-289.618	117.086	-0.201	-0.249
-288.603	-102.285	0.338	-0.082
-287.589	800.000	0.080	0.346
-286.574	-105.105	0.274	0.063
-285.559	-87.475	-0.042	0.013
-284.545	91.876	-0.091	0.103
-283.530	-55.780	0.162	-0.073
-282.516	-200.000	0.045	-0.211
-281.501	42.895	-0.256	0.235
-280.486	135.730	-0.253	0.332
-279.472	85.151	0.306	-0.338
-278.457	3.811	0.159	0.117
-277.443	469.656	0.164	0.372
-276.428	-117.995	0.206	-0.037
-275.413	187.966	0.071	0.107
-274.399	-96.377	0.209	0.056
-273.384	18.353	-0.108	0.087
-272.370	-51.208	0.214	0.101
-271.355	-66.525	-0.115	0.046
-270.340	-200.000	-0.114	0.001
-269.326	701.089	0.115	-0.306
-268.311	-126.274	0.217	0.033
-267.297	800.000	0.098	0.352
-266.282	-165.981	-0.385	0.017
-265.267	-95.689	-0.181	-0.049
-264.253	-31.067	-0.111	0.063
-263.238	-200.000	0.011	0.048
-262.224	-23.428	0.102	-0.061
-261.209	-83.096	0.088	0.028
-260.195	-200.000	0.033	-0.515
-259.180	-200.000	0.012	-0.313
-258.165	-128.652	0.430	-0.061
-257.151	-117.056	-0.170	0.031
-256.136	425.329	0.049	0.106
-255.122	-121.390	-0.139	0.023
-254.107	143.400	-0.166	0.223
-253.092	-168.363	0.121	0.005
-252.078	47.186	-0.131	-0.123
-251.063	565.935	0.113	0.276
-250.049	800.000	0.070	0.287
-249.034	45.131	0.284	0.264
-248.019	-125.864	-0.082	0.012
-247.005	193.595	0.044	-0.067
-245.990	-85.539	-0.079	0.025
-244.976	400.857	-0.088	-0.187
-243.961	-12.981	-0.037	-0.024
-242.946	-115.118	0.072	-0.014
-241.932	-112.126	-0.340	-0.069
-240.917	-67.716	0.060	0.024
-239.903	-114.365	0.298	-0.058
-238.888	800.000	0.074	-0.293
-237.873	-200.000	0.013	0.081
-236.859	0.243	-0.155	-0.111
-235.844	299.344	0.238	0.442
-234.830	-58.546	-0.219	0.096
-233.815	203.598	0.118	-0.184
-232.800	-188.126	-0.349	-0.004
-231.786	-101.735	-0.312	0.076
-230.771	87.603	0.132	0.147
-229.757	64.872	0.263	-0.267
-228.742	185.096	0.152	-0.227
-227.727	-200.000	0.058	0.375
-226.713	-200.000	0.009	-0.137
-225.698	-5.774	0.256	-0.176
-224.684	-163.905	0.249	0.012
-223.669	800.000	-0.121	0.383
-222.655	133.266	0.117	-0.152
-221.640	141.009	-0.119	0.158
-220.625	800.000	0.073	-0.241
-219.611	800.000	-0.033	0.131
-218.596	-73.626	0.319	0.117
-217.582	-27.421	0.277	0.162
-216.567	-24.693	0.169	0.101
-215.552	-148.466	0.110	-0.009
-214.538	-115.987	0.100	0.019
-213.523	-129.696	0.280	-0.039
-212.509	-51.225	-0.104	0.049
-211.494	-200.000	0.036	0.175
-210.479	-200.000	-0.038	-0.207
-209.465	69.282	-0.150	-0.155
-208.450	402.719	0.183	-0.385
-207.436	76.706	-0.181	0.193
-206.421	241.214	-0.124	0.207
-205.406	-123.088	0.159	0.026
-204.392	-200.000	-0.029	-0.220
-203.377	16.465	-0.265	0.210
-202.363	-200.000	0.054	0.401
-201.348	96.853	-0.299	0.344
-200.333	-42.734	-0.164	-0.084
-199.319	28.845	0.098	0.083
-198.304	-122.751	0.275	-0.045
-197.290	18.339	0.183	0.147
-196.275	-123.903	0.183	0.029
-195.260	800.000	0.033	0.130
-194.246	62.191	0.201	0.201
-193.231	310.608	-0.119	-0.224
-192.217	-184.938	-0.343	0.005
-191.202	265.616	-0.293	0.513
-190.187	-23.498	-0.094	-0.056
-189.173	108.038	-0.239	0.286
-188.158	174.648	0.065	0.094
-187.144	-21.454	-0.120	-0.074
-186.129	-200.000	-0.011	-0.181
-185.114	-53.711	0.263	-0.121
-184.100	800.000	-0.092	-0.276
-183.085	-68.717	-0.248	-0.096
-182.071	526.105	0.054	-0.127
-181.056	-200.000	0.047	0.370
-180.042	-200.000	-0.016	0.228
-179.027	-119.711	0.264	-0.046
-178.012	89.981	0.243	0.272
-176.998	-144.762	-0.252	0.023
-175.983	472.593	-0.046	0.104
-174.969	135.882	0.216	0.283
-173.954	-122.201	0.191	0.031
-172.939	-131.130	0.125	-0.017
-171.925	-89.447	-0.114	-0.034
-170.910	800.000	0.020	-0.083
-169.896	-17.337	-0.246	0.156
-168.881	-116.151	-0.167	0.031
-167.866	754.838	-0.022	-0.059
-166.852	800.000	-0.122	-0.361
-165.837	-33.395	-0.131	-0.073
-164.823	-24.755	0.522	0.311
-163.808	62.677	0.119	0.120
-162.793	-200.000	0.063	-0.486
-161.779	103.031	-0.055	0.064
-160.764	800.000	0.059	0.168
-159.750	-12.333	-0.277	0.181
-158.735	-200.000	-0.070	-0.502
-157.720	-200.000	0.010	0.160
-156.706	164.779	0.077	0.109
-155.691	304.607	-0.173	0.321
-154.677	800.000	-0.025	0.073
-153.662	409.908	0.189	-0.401
-152.647	-200.000	-0.020	0.109
-151.633	-90.015	-0.141	-0.041
-150.618	-76.206	0.302	0.107
-149.604	84.567	-0.154	0.169
-148.589	-9.542	-0.019	-0.013
-147.574	-81.877	0.201	-0.066
-146.560	-200.000	0.027	-0.255
-145.545	-106.962	0.177	-0.039
-144.531	800.000	0.068	0.288
-143.516	-27.078	0.024	0.014
-142.502	-68.754	-0.419	0.162
-141.487	59.903	0.241	-0.239
-140.472	-200.000	-0.030	0.389
-139.458	253.060	-0.036	0.062
-138.443	-115.783	0.150	-0.028
-137.429	-16.416	-0.245	0.155
-136.414	-107.510	0.329	0.072
-135.399	800.000	-0.065	0.262
-134.385	268.484	0.163	0.287
-133.370	-12.631	0.437	-0.286
-132.356	800.000	-0.036	-0.140
-131.341	-93.527	0.192	0.053
-130.326	-32.384	0.066	-0.037
-129.312	88.853	0.222	0.248
-128.297	-200.000	-0.011	0.208
-127.283	-13.427	-0.095	-0.061
-126.268	-83.946	0.281	-0.089
-125.253	185.685	-0.180	-0.268
-124.239	275.338	-0.124	0.220
-123.224	-200.000	0.010	0.105
-122.210	-200.000	0.011	0.217
-121.195	44.939	-0.098	-0.090
-120.180	247.675	-0.214	-0.362
-119.166	-139.926	-0.091	-0.010
-118.151	73.249	-0.240	-0.251
-117.137	18.886	-0.159	0.127
-116.122	210.236	0.056	0.088
-115.107	-200.000	-0.048	-0.286
-114.093	381.468	0.089	-0.183
-113.078	-71.478	0.094	-0.035
-112.064	800.000	-0.044	0.159
-111.049	-200.000	-0.027	0.296
-110.034	-42.971	0.100	-0.051
-109.020	-166.141	-0.292	0.012
-108.005	-19.621	0.167	-0.103
-106.991	800.000	0.027	-0.081
-105.976	-73.756	-0.275	-0.100
-104.962	133.865	-0.050	0.064
-103.947	-156.955	0.274	-0.017
-102.932	294.530	0.223	-0.408
-101.918	-81.336	0.224	0.074
-100.903	14.299	-0.171	-0.134
-99.889	-79.636	0.159	0.054
-98.874	-151.980	-0.117	0.009
-97.859	800.000	-0.014	-0.044
-96.845	-200.000	0.024	-0.200
-95.830	260.731	0.086	0.149
-94.816	-125.536	0.150	0.023
-93.801	-40.643	0.247	-0.128
-92.786	-111.164	0.238	0.049
-91.772	-157.434	0.268	0.016
-90.757	-33.382	0.049	-0.027
-89.743	219.285	0.094	0.150
-88.728	-200.000	-0.001	0.271
-87.713	99.063	-0.086	-0.099
-86.699	257.828	-0.051	-0.087
-85.684	-200.000	-0.081	-0.366
-84.670	378.563	0.086	0.175
-83.655	209.892	0.151	-0.237
-82.640	189.439	-0.178	0.267
-81.626	-24.535	0.122	0.072
-80.611	-200.000	-0.024	0.422
-79.597	25.498	0.216	-0.179
-78.582	-58.066	-0.127	-0.055
-77.567	800.000	-0.076	-0.259
-76.553	800.000	-0.065	-0.185
-75.538	800.000	0.090	-0.383
-74.524	1.925	-0.188	-0.135
-73.509	134.167	-0.080	-0.103
-72.494	-200.000	0.045	-0.205
-71.480	800.000	-0.120	0.487
-70.465	88.401	-0.222	-0.247
-69.451	-136.946	0.311	-0.036
-68.436	166.462	-0.227	-0.321
-67.422	-28.038	0.152	-0.088
-66.407	59.798	-0.266	0.263
-65.392	-94.213	-0.388	-0.106
-64.378	3.870	-0.279	-0.203
-63.363	50.801	0.049	-0.047
-62.349	82.172	-0.046	0.050
-61.334	21.449	-0.816	-0.663
-60.319	53.434	0.425	0.407
-59.305	800.000	-0.216	-0.912
-58.290	800.000	0.150	0.605
-57.276	297.237	0.834	1.528
-56.261	-200.000	75.989	519.677
-55.246	534.453	1314.229	3109.646
-54.232	146.513	2547.360	3415.374
-53.217	109.867	2373.456	2841.715
-52.203	48.119	2112.231	1971.426
-51.188	42.943	2017.702	1836.096
-50.173	41.225	1998.726	1803.221
-49.159	53.640	2036.143	1950.421
-48.144	58.223	2056.653	2011.803
-47.130	43.915	2021.498	1848.128
-46.115	41.145	2010.129	1812.493
-45.100	41.042	2006.941	1808.604
-44.086	40.969	2004.916	1806.043
-43.071	41.030	2001.871	1803.786
-42.057	40.942	1999.689	1800.955
-41.042	40.989	1997.624	1799.442
-40.027	40.962	1996.112	1797.767
-39.013	41.075	1993.817	1796.648
-37.998	41.053	1992.253	1794.975
-36.984	41.027	1990.729	1793.289
-35.969	41.066	1988.513	1791.573
-34.954	41.077	1987.362	1790.567
-33.940	41.085	1985.299	1788.706
-32.925	41.246	1983.141	1788.144
-31.911	41.189	1981.728	1786.284
-30.896	41.158	1979.549	1783.970
-29.881	41.232	1978.316	1783.450
-28.867	41.220	1976.864	1781.966
-27.852	41.246	1975.060	1780.496
-26.838	41.293	1972.366	1778.418
-25.823	41.137	1971.613	1776.282
-24.809	41.241	1969.150	1774.916
-23.794	41.199	1968.001	1773.438
-22.779	41.222	1966.173	1771.925
-21.765	41.204	1964.225	1769.933
-20.750	41.184	1962.538	1768.172
-19.736	41.134	1961.260	1766.502
-18.721	41.153	1959.669	1765.165
-17.706	41.162	1957.955	1763.639
-16.692	41.141	1955.928	1761.552
-15.677	41.185	1954.469	1760.558
-14.663	41.191	1952.983	1759.203
-13.648	41.079	1952.127	1757.370
-12.633	41.246	1950.166	1757.008
-11.619	41.127	1949.369	1755.177
-10.604	41.110	1948.265	1753.965
-9.590	41.189	1946.592	1753.084
-8.575	41.193	1945.144	1751.739
-7.560	41.132	1943.674	1749.813
-6.546	41.180	1942.059	1748.712
-5.531	41.194	1941.084	1747.885
-4.517	41.145	1939.895	1746.313
-3.502	41.138	1939.169	1745.535
-2.487	41.196	1937.355	1744.338
-1.473	41.099	1936.775	1742.901
-0.458	41.180	1932.671	1739.847
0.556	38.715	1912.453	1713.541
1.571	34.354	1891.134	1656.482
2.586	29.633	1911.906	1632.926
3.600	27.872	1947.645	1647.426
4.615	26.852	1944.334	1635.294
5.629	23.623	1850.195	1528.227
6.644	18.274	1736.684	1390.988
7.659	15.067	1699.027	1335.170
8.673	14.718	1695.405	1329.425
9.688	14.783	1693.813	1328.577
10.702	14.749	1692.075	1326.827
11.717	14.541	1689.336	1322.910
12.731	14.865	1688.578	1324.769
13.746	18.340	1696.524	1358.501
14.761	20.900	1700.862	1382.189
15.775	19.232	1693.599	1362.981
16.790	17.081	1688.446	1341.730
17.804	15.826	1684.759	1328.782
18.819	14.830	1681.479	1318.221
19.834	14.201	1678.197	1310.579
20.848	13.748	1676.571	1305.633
21.863	13.375	1674.999	1301.359
22.877	13.124	1673.499	1298.103
23.892	12.963	1671.896	1295.481
24.907	12.759	1671.136	1293.176
25.921	12.789	1669.874	1292.321
26.936	12.737	1669.008	1291.126
27.950	12.844	1668.185	1291.215
28.965	12.811	1667.738	1290.496
29.980	12.938	1666.804	1290.655
30.994	12.936	1665.851	1289.789
32.009	12.953	1664.821	1289.011
33.023	13.097	1663.536	1289.022
34.038	13.146	1662.643	1288.603
35.053	13.078	1661.839	1287.331
36.067	13.059	1660.170	1285.781
37.082	13.004	1659.029	1284.350
38.096	12.976	1658.334	1283.481
39.111	13.052	1657.263	1283.133
40.126	13.104	1656.262	1282.650
41.140	13.006	1655.729	1281.359
42.155	12.853	1654.715	1279.274
43.169	12.886	1653.014	1278.098
44.184	12.812	1651.498	1276.241
45.199	12.784	1650.637	1275.247
46.213	12.709	1650.056	1274.106
47.228	12.789	1648.771	1273.617
48.242	12.871	1647.425	1273.102
49.257	12.937	1646.398	1272.701
50.271	12.887	1645.168	1271.258
51.286	12.818	1644.328	1269.959
52.301	12.897	1642.775	1269.254
53.315	12.990	1641.313	1268.734
54.330	12.847	1639.938	1266.458
55.344	12.850	1638.201	1265.030
56.359	12.769	1637.233	1263.550
57.374	12.809	1635.574	1262.461
58.388	12.841	1634.382	1261.676
59.403	12.776	1633.051	1260.035
60.417	12.763	1631.952	1258.977
61.432	12.668	1630.953	1257.373
62.447	12.676	1630.078	1256.646
63.461	12.765	1628.085	1255.676
64.476	12.719	1627.354	1254.649
65.490	12.704	1626.317	1253.627
66.505	12.683	1625.254	1252.537
67.520	12.708	1624.218	1251.815
68.534	12.758	1623.159	1251.271
69.549	12.757	1621.628	1249.976
70.563	12.720	1620.683	1248.850
71.578	12.745	1619.640	1248.131
72.593	12.701	1618.620	1246.899
73.607	12.718	1617.334	1245.927
74.622	12.719	1616.118	1244.885
75.636	12.586	1615.663	1243.422
76.651	12.617	1614.605	1242.729
77.666	12.618	1614.058	1242.207
78.680	12.747	1612.463	1241.844
79.695	12.623	1611.878	1240.348
80.709	12.692	1611.050	1240.119
81.724	12.718	1610.292	1239.624
82.739	12.768	1609.590	1239.351
83.753	12.766	1608.708	1238.549
84.768	12.865	1607.516	1238.265
85.782	12.894	1606.437	1237.539
86.797	12.853	1606.232	1236.964
87.812	12.951	1604.715	1236.417
88.826	12.887	1604.027	1235.300
89.841	12.771	1602.838	1233.409
90.855	12.859	1601.659	1233.047
91.870	12.888	1600.272	1232.089
92.884	12.999	1598.948	1231.793
93.899	13.005	1598.533	1231.403
94.914	12.994	1597.395	1230.340
95.928	13.009	1595.941	1229.223
96.943	13.070	1594.391	1228.375
97.957	13.092	1592.923	1227.297
98.972	13.037	1591.520	1225.697
99.987	12.963	1590.498	1224.253
101.001	12.980	1588.940	1223.071
102.016	12.913	1587.229	1221.153
103.030	12.962	1586.078	1220.517
104.045	12.932	1585.068	1219.416
105.060	13.081	1583.448	1219.155
106.074	12.983	1582.001	1217.213
107.089	12.919	1580.119	1215.187
108.103	12.762	1578.999	1213.061
109.118	12.705	1577.423	1211.326
110.133	12.703	1576.002	1210.114
111.147	12.858	1575.107	1210.458
112.162	12.790	1573.582	1208.680
113.176	12.788	1572.457	1207.694
114.191	12.844	1570.405	1206.423
115.206	12.821	1569.884	1205.742
116.220	12.908	1567.932	1204.773
117.235	12.843	1566.970	1203.451
118.249	12.781	1566.090	1202.217
119.264	12.836	1564.590	1201.364
120.279	12.761	1563.008	1199.492
121.293	12.822	1561.208	1198.448
122.308	12.689	1560.312	1196.689
123.322	12.749	1558.554	1195.672
124.337	12.692	1557.282	1194.176
125.352	12.727	1555.568	1193.008
126.366	12.790	1554.259	1192.358
127.381	12.762	1553.685	1191.608
128.395	12.700	1552.581	1190.207
129.410	12.864	1550.766	1189.897
130.424	12.736	1549.726	1188.073
131.439	12.742	1548.316	1186.928
132.454	12.853	1547.196	1186.764
133.468	12.837	1545.979	1185.611
134.483	12.933	1544.273	1184.882
135.497	12.914	1542.993	1183.664
136.512	12.981	1541.504	1182.893
137.527	12.952	1540.330	1181.684
138.541	12.967	1538.846	1180.548
139.556	13.013	1537.817	1179.982
140.570	12.971	1536.399	1178.488
141.585	13.057	1534.900	1177.851
142.600	13.035	1533.637	1176.617
143.614	13.137	1532.216	1176.152
144.629	13.095	1530.761	1174.632
145.643	13.061	1529.847	1173.585
146.658	13.159	1528.339	1173.019
147.673	13.130	1526.868	1171.578
148.687	13.060	1525.490	1169.922
149.702	13.085	1523.638	1168.574
150.716	12.984	1522.668	1167.016
151.731	13.007	1521.302	1166.026
152.746	13.002	1520.076	1164.950
153.760	13.058	1518.124	1163.745
154.775	13.070	1516.798	1162.709
155.789	13.061	1516.431	1162.259
156.804	13.077	1514.943	1161.129
157.819	13.156	1513.752	1160.668
158.833	13.236	1511.987	1159.776
159.848	13.187	1511.410	1158.884
160.862	13.221	1509.961	1157.913
161.877	13.178	1509.163	1156.895
162.892	13.235	1507.635	1156.021
163.906	13.176	1506.530	1154.659
164.921	13.083	1505.594	1153.187
165.935	13.083	1504.058	1151.912
166.950	13.144	1503.053	1151.465
167.964	13.233	1501.508	1150.803
168.979	13.259	1500.734	1150.283
169.994	13.278	1499.992	1149.751
171.008	13.083	1499.366	1147.809
172.023	13.236	1497.500	1147.340
173.037	13.300	1496.376	1146.820
174.052	13.300	1495.178	1145.805
175.067	13.355	1494.415	1145.501
176.081	13.259	1493.680	1144.171
177.096	13.214	1491.772	1142.299
178.110	13.203	1490.558	1141.186
179.125	13.282	1489.030	1140.466
180.140	13.276	1488.144	1139.641
181.154	13.332	1487.220	1139.220
182.169	13.244	1486.268	1137.783
183.183	13.334	1485.207	1137.493
184.198	13.318	1484.032	1136.382
185.213	13.443	1482.484	1135.952
186.227	13.348	1482.211	1134.990
187.242	13.452	1481.065	1134.723
188.256	13.540	1479.600	1134.104
189.271	13.594	1478.503	1133.530
190.286	13.538	1477.704	1132.440
191.300	13.509	1476.767	1131.421
192.315	13.250	1475.747	1128.771
193.329	13.243	1474.271	1127.491
194.344	13.306	1472.976	1126.835
195.359	13.175	1471.844	1124.979
196.373	13.333	1471.064	1125.356
197.388	13.383	1470.158	1124.900
198.402	13.507	1468.733	1124.553
199.417	13.490	1467.814	1123.633
200.432	13.557	1466.545	1123.021
201.446	13.620	1465.908	1122.861
202.461	13.736	1464.785	1122.684
203.475	13.703	1464.021	1121.775
204.490	13.743	1462.593	1120.856
205.504	13.710	1461.337	1119.568
206.519	13.684	1460.258	1118.470
207.534	13.642	1459.536	1117.535
208.548	13.636	1458.147	1116.327
209.563	13.715	1456.959	1115.854
210.577	13.715	1455.942	1114.977
211.592	13.705	1455.265	1114.290
212.607	13.716	1454.419	1113.620
213.621	13.758	1453.847	1113.367
214.636	13.847	1453.059	1113.258
215.650	13.777	1452.511	1112.271
216.665	13.732	1451.382	1111.007
217.680	13.808	1450.408	1110.672
218.694	13.842	1449.656	1110.223
219.709	13.956	1448.648	1110.116
220.723	13.901	1447.903	1109.084
221.738	13.916	1446.954	1108.358
222.753	14.032	1445.762	1108.116
223.767	13.925	1444.704	1106.498
224.782	13.882	1443.975	1105.554
225.796	13.857	1443.488	1104.918
226.811	13.947	1442.368	1104.562
227.826	14.036	1441.302	1104.234
228.840	14.010	1440.324	1103.216
229.855	14.039	1439.382	1102.589
230.869	13.977	1438.628	1101.502
231.884	14.014	1437.543	1100.822
232.899	13.988	1436.428	1099.696
233.913	13.961	1435.415	1098.650
234.928	13.928	1433.962	1097.217
235.942	14.023	1432.508	1096.635
236.957	13.965	1431.640	1095.490
237.972	13.954	1430.595	1094.525
238.986	14.001	1429.525	1093.918
240.001	14.032	1428.332	1093.114
241.015	14.007	1427.417	1092.149
242.030	13.977	1426.297	1091.000
243.045	14.047	1425.319	1090.613
244.059	14.106	1424.495	1090.272
245.074	14.174	1423.436	1089.813
246.088	14.107	1423.016	1088.954
247.103	14.173	1422.126	1088.611
248.117	14.198	1421.209	1087.973
249.132	14.276	1420.442	1087.805
250.147	14.233	1419.856	1086.979
251.161	14.299	1419.287	1086.877
252.176	14.405	1418.768	1087.071
253.190	14.469	1417.880	1086.712
254.205	14.457	1417.158	1085.984
255.220	14.468	1416.627	1085.555
256.234	14.523	1415.413	1084.887
257.249	14.555	1414.555	1084.343
258.263	14.576	1413.465	1083.545
259.278	14.475	1412.886	1082.353
260.293	14.537	1411.812	1081.831
261.307	14.543	1410.977	1081.136
262.322	14.543	1410.753	1080.870
263.336	14.625	1409.318	1080.203
264.351	14.807	1408.268	1080.486
265.366	14.676	1407.775	1079.161
266.380	14.771	1406.183	1078.460
267.395	14.624	1405.567	1076.943
268.409	14.700	1404.790	1076.740
269.424	14.710	1403.569	1075.775
270.439	14.726	1402.457	1074.933
271.453	14.702	1401.573	1074.007
272.468	14.762	1400.757	1073.667
273.482	14.705	1400.105	1072.706
274.497	14.623	1399.708	1071.782
275.512	14.760	1398.136	1071.364
276.526	14.651	1397.683	1070.222
277.541	14.749	1396.534	1069.875
278.555	14.670	1395.683	1068.626
279.570	14.887	1394.504	1069.013
280.585	14.754	1394.335	1067.939
281.599	14.853	1392.973	1067.431
282.614	14.812	1392.601	1066.790
283.628	14.903	1390.828	1065.921
284.643	14.807	1389.934	1064.530
285.657	14.833	1389.093	1063.957
286.672	14.862	1387.941	1063.163
287.687	14.907	1387.103	1062.711
288.701	14.832	1386.377	1061.589
289.716	14.865	1385.683	1061.173
290.730	14.913	1384.712	1060.638
291.745	14.961	1383.620	1060.015
292.760	14.978	1383.060	1059.594
293.774	15.051	1381.235	1058.565
294.789	15.016	1380.504	1057.692
295.803	14.989	1379.913	1056.978
296.818	15.130	1378.603	1056.769
297.833	15.072	1377.985	1055.835
298.847	15.084	1376.869	1054.962
299.862	15.147	1375.713	1054.380
300.876	14.977	1375.406	1052.983
301.891	15.099	1374.150	1052.693
302.906	15.123	1373.094	1051.944
303.920	15.151	1372.425	1051.512
304.935	15.156	1371.837	1051.000
305.949	15.206	1371.317	1050.821
306.964	15.277	1370.418	1050.484
307.979	15.308	1369.266	1049.700
308.993	15.331	1368.073	1048.838
310.008	15.260	1367.593	1047.937
311.022	15.326	1366.380	1047.325
312.037	15.442	1365.248	1047.087
313.052	15.330	1364.565	1045.773
314.066	15.273	1363.591	1044.576
315.081	15.361	1362.314	1044.059
316.095	15.363	1361.112	1043.056
317.110	15.276	1360.380	1041.860
318.125	15.323	1359.166	1041.131
319.139	15.261	1358.461	1040.113
320.154	15.278	1357.867	1039.673
321.168	15.214	1357.194	1038.667
322.183	15.231	1355.665	1037.515
323.197	15.230	1354.891	1036.820
324.212	15.353	1353.295	1036.269
325.227	15.409	1352.926	1036.240
326.241	15.426	1352.116	1035.634
327.256	15.318	1351.793	1034.628
328.270	15.389	1350.895	1034.285
329.285	15.497	1349.466	1033.764
330.300	15.484	1348.224	1032.646
331.314	15.492	1347.173	1031.795
332.329	15.450	1346.839	1031.189
333.343	15.447	1345.730	1030.232
334.358	15.513	1344.940	1029.942
335.373	15.424	1344.514	1028.981
336.387	15.537	1343.325	1028.672
337.402	15.547	1342.527	1028.026
338.416	15.477	1342.098	1027.182
339.431	15.634	1341.163	1027.334
340.446	15.627	1340.767	1026.896
341.460	15.538	1339.992	1025.670
342.475	15.643	1338.843	1025.338
343.489	15.684	1338.067	1024.902
344.504	15.760	1337.065	1024.509
345.519	15.756	1336.078	1023.638
346.533	15.828	1335.154	1023.274
347.548	15.841	1334.286	1022.599
348.562	15.727	1333.387	1021.128
349.577	15.928	1332.607	1021.660
350.592	15.890	1331.755	1020.688
351.606	15.813	1331.251	1019.741
352.621	15.734	1330.083	1018.280
353.635	15.737	1328.854	1017.266
354.650	15.781	1327.709	1016.565
355.665	15.789	1326.939	1015.932
356.679	15.759	1326.346	1015.209
357.694	15.859	1325.158	1014.814
358.708	15.825	1323.971	1013.612
359.723	15.896	1322.921	1013.141
360.738	15.962	1321.705	1012.522
361.752	15.935	1320.738	1011.526
362.767	15.963	1319.848	1010.924
363.781	15.936	1319.101	1010.100
364.796	15.989	1318.014	1009.494
365.810	15.928	1317.638	1008.752
366.825	16.039	1316.800	1008.688
367.840	15.991	1316.339	1007.956
368.854	16.116	1315.507	1007.981
369.869	16.101	1315.006	1007.414
370.883	16.255	1314.026	1007.493
371.898	16.188	1313.437	1006.558
372.913	16.202	1312.305	1005.679
373.927	16.140	1311.710	1004.771
374.942	16.141	1311.170	1004.273
375.956	16.281	1310.407	1004.429
376.971	16.240	1309.740	1003.589
377.986	16.280	1308.882	1003.077
379.000	16.246	1307.645	1001.839
380.015	16.224	1307.058	1001.171
381.029	16.352	1306.343	1001.297
382.044	16.371	1305.466	1000.643
383.059	16.351	1305.045	1000.115
384.073	16.410	1304.206	999.733
385.088	16.415	1303.358	999.027
386.102	16.318	1303.091	998.159
387.117	16.529	1302.024	998.498
388.132	16.431	1300.946	997.005
389.146	16.416	1300.346	996.371
390.161	16.393	1299.590	995.563
391.175	16.382	1298.284	994.414
392.190	16.409	1297.823	994.133
393.205	16.410	1296.958	993.386
394.219	16.415	1295.969	992.568
395.234	16.499	1294.921	992.173
396.248	16.580	1293.611	991.556
397.263	16.491	1292.189	989.858
398.278	16.510	1291.171	989.102
399.292	16.541	1289.597	987.986
400.307	16.461	1289.055	987.018
401.321	16.490	1287.781	986.127
402.336	16.463	1286.877	985.189
403.350	16.442	1286.077	984.367
404.365	16.494	1285.110	983.840
405.380	16.462	1284.402	983.025
406.394	16.496	1283.202	982.218
407.409	16.616	1282.678	982.429
408.423	16.514	1282.121	981.324
409.438	16.686	1281.227	981.550
410.453	16.725	1280.375	981.036
411.467	16.740	1279.707	980.522
412.482	16.824	1279.155	980.498
413.496	16.827	1278.655	980.047
414.511	16.784	1277.994	979.202
415.526	16.857	1277.125	978.876
416.540	16.935	1276.218	978.541
417.555	16.961	1275.570	978.109
418.569	16.906	1275.182	977.404
419.584	16.932	1274.920	977.270
420.599	17.019	1273.853	976.865
421.613	78.326	1323.241	1367.294
422.628	77.027	1330.437	1367.423
