DTS Sentinel unit serial number:	SN413079Multiplexer serial number:	ORYXHardware model number:	OX4-SRSoftware version number:	ORYX F/W v4.00 Oryx Data Collector v3.7.2.0data status	okinstallation	princeton_trtdifferential loss correction	single-endedforward channel	channel 4reverse channel	N/Adate	2019/09/18time	05:05:35forward acquisition time	60.00reverse acquisition time	0.00gamma	496.2192k internal	0.2331k external	0.2331temperature offset calibration	0.9994default loss term (dB/km)	0.3790temperature slope calibration	1.0000multiplexer offset coefficient	1.0000multiplexer slope coefficient	1.0000fibre end	0.00T internal ref (°C)	23.50T ext. ref 1 (°C)	0.19T ext. ref 2 (°C)	17.68length (m)	temperature (°C)	Stokes	anti-Stokes-747.200	-52.820	0.213	0.099
-746.185	-72.399	-0.178	0.066
-745.171	619.814	-0.140	0.355
-744.156	-200.000	0.014	0.428
-743.142	120.505	0.082	0.102
-742.127	-192.747	-0.228	-0.002
-741.112	-16.660	-0.194	-0.124
-740.098	-135.889	-0.438	0.052
-739.083	-200.000	0.004	-0.058
-738.069	97.994	-0.087	0.101
-737.054	-60.090	-0.310	0.133
-736.039	-174.713	-0.276	-0.008
-735.025	-23.889	0.077	0.046
-734.010	-152.723	-0.097	0.007
-732.996	-75.839	-0.189	0.067
-731.981	193.675	0.175	-0.267
-730.966	-200.000	-0.004	0.106
-729.952	48.831	-0.245	0.231
-728.937	-81.475	0.054	-0.018
-727.923	-87.274	-0.106	-0.032
-726.908	41.054	-0.205	-0.187
-725.894	-132.849	-0.444	0.057
-724.879	-200.000	-0.023	-0.330
-723.864	85.456	-0.212	-0.234
-722.850	34.215	-0.206	0.181
-721.835	-108.139	-0.114	0.025
-720.821	92.263	-0.321	-0.363
-719.806	176.467	0.083	-0.122
-718.791	-59.288	0.309	-0.134
-717.777	149.970	-0.048	-0.066
-716.762	131.871	-0.154	0.200
-715.748	200.485	-0.102	-0.158
-714.733	-21.856	-0.332	0.203
-713.718	156.806	-0.031	-0.043
-712.704	105.431	0.147	0.175
-711.689	444.540	0.043	-0.095
-710.675	-169.228	0.233	0.009
-709.660	97.004	0.127	0.146
-708.645	-200.000	-0.026	-0.270
-707.631	708.176	-0.194	-0.516
-706.616	282.058	-0.049	0.089
-705.602	-200.000	0.025	-0.125
-704.587	-59.470	-0.299	-0.129
-703.572	-134.504	-0.377	-0.046
-702.558	800.000	0.047	-0.133
-701.543	79.597	-0.078	0.084
-700.529	-200.000	-0.016	0.112
-699.514	-200.000	0.020	-0.109
-698.499	47.327	-0.307	-0.288
-697.485	-90.773	0.224	0.065
-696.470	13.833	-0.218	-0.170
-695.456	-85.410	-0.216	-0.068
-694.441	-17.880	-0.218	-0.137
-693.426	-55.778	0.342	0.153
-692.412	87.036	0.135	0.150
-691.397	82.508	0.170	0.185
-690.383	-48.742	-0.222	-0.107
-689.368	-150.353	-0.157	-0.012
-688.354	-41.313	-0.212	0.110
-687.339	145.071	-0.235	-0.316
-686.324	-16.722	0.193	-0.122
-685.310	717.525	-0.049	-0.130
-684.295	-109.694	-0.455	0.096
-683.281	790.383	0.096	-0.264
-682.266	106.701	0.200	-0.238
-681.251	-0.883	0.340	-0.242
-680.237	46.642	0.225	0.210
-679.222	40.024	0.427	0.385
-678.208	768.493	-0.097	0.265
-677.193	-8.954	-0.097	0.065
-676.178	-200.000	-0.034	-0.266
-675.164	800.000	0.037	0.151
-674.149	-31.757	0.178	0.100
-673.135	-149.831	0.242	-0.019
-672.120	57.365	0.234	-0.230
-671.105	270.527	-0.118	-0.208
-670.091	74.459	0.195	-0.206
-669.076	-200.000	-0.065	0.356
-668.062	-200.000	0.018	0.212
-667.047	-67.175	0.294	0.116
-666.032	16.102	-0.101	0.080
-665.018	800.000	-0.031	-0.120
-664.003	-132.986	-0.460	0.059
-662.989	34.254	0.080	0.070
-661.974	-93.634	-0.094	0.026
-660.959	-124.458	0.265	0.041
-659.945	244.398	-0.213	-0.358
-658.930	-200.000	0.003	-0.062
-657.916	-124.939	0.375	-0.058
-656.901	-11.421	0.126	0.083
-655.886	-64.526	-0.116	0.047
-654.872	-21.618	-0.112	0.068
-653.857	107.137	-0.042	0.050
-652.843	-200.000	0.024	-0.284
-651.828	213.740	0.082	0.131
-650.814	7.254	0.091	-0.069
-649.799	-200.000	-0.018	0.151
-648.784	629.313	-0.085	-0.217
-647.770	-59.853	-0.342	-0.147
-646.755	236.055	0.022	-0.037
-645.741	486.615	0.035	-0.079
-644.726	-40.543	0.073	-0.038
-643.711	-62.617	-0.254	-0.105
-642.697	800.000	-0.050	0.170
-641.682	-87.935	0.468	0.141
-640.668	22.829	0.162	0.133
-639.653	-200.000	-0.027	-0.158
-638.638	800.000	-0.022	-0.080
-637.624	303.538	-0.048	-0.090
-636.609	-153.477	-0.237	0.016
-635.595	-101.493	0.114	0.028
-634.580	156.932	-0.111	0.154
-633.565	541.186	0.056	-0.133
-632.551	-8.563	-0.178	-0.120
-631.536	-200.000	-0.007	0.181
-630.522	-122.698	-0.359	0.058
-629.507	-55.409	0.220	-0.099
-628.492	-200.000	0.021	0.289
-627.478	-200.000	-0.028	-0.189
-626.463	-200.000	-0.001	0.022
-625.449	800.000	0.131	-0.423
-624.434	36.447	-0.303	0.268
-623.419	-200.000	-0.069	-0.384
-622.405	-79.674	-0.087	-0.030
-621.390	23.127	0.263	0.217
-620.376	549.482	0.087	-0.208
-619.361	-200.000	-0.016	-0.170
-618.346	-95.449	0.183	-0.049
-617.332	142.065	-0.187	-0.248
-616.317	-76.599	-0.212	-0.075
-615.303	-99.778	-0.349	-0.087
-614.288	800.000	-0.072	0.209
-613.273	11.490	-0.152	-0.116
-612.259	22.840	0.136	-0.112
-611.244	139.917	-0.069	0.092
-610.230	-99.488	-0.251	-0.063
-609.215	4.415	-0.261	-0.191
-608.201	-128.737	-0.202	-0.028
-607.186	-200.000	-0.034	0.179
-606.171	-130.083	0.083	0.011
-605.157	-80.667	-0.263	-0.088
-604.142	233.231	0.082	-0.135
-603.128	-1.347	-0.059	-0.042
-602.113	160.236	0.132	0.184
-601.098	-170.598	-0.108	0.004
-600.084	-173.445	-0.221	-0.007
-599.069	694.991	-0.048	-0.125
-598.055	-121.561	0.228	-0.038
-597.040	154.121	-0.011	-0.015
-596.025	283.102	-0.137	-0.245
-595.011	25.823	0.104	0.086
-593.996	-56.192	-0.218	-0.097
-592.982	800.000	0.123	-0.401
-591.967	-135.469	-0.155	0.019
-590.952	348.380	0.181	-0.358
-589.938	13.398	0.261	-0.203
-588.923	190.787	-0.251	0.378
-587.909	34.082	-0.200	0.174
-586.894	-9.682	0.292	-0.195
-585.879	-82.804	-0.251	0.081
-584.865	119.172	0.082	0.102
-583.850	-200.000	0.031	0.159
-582.836	-200.000	-0.034	0.336
-581.821	-200.000	-0.002	-0.390
-580.806	-179.710	0.187	0.004
-579.792	-200.000	0.002	-0.138
-578.777	-83.193	0.251	0.081
-577.763	-44.554	-0.295	-0.148
-576.748	-109.174	-0.253	-0.054
-575.733	-10.191	0.191	-0.127
-574.719	-131.832	0.348	-0.045
-573.704	110.889	-0.071	0.085
-572.690	214.655	-0.068	0.108
-571.675	-66.164	0.110	-0.044
-570.661	159.256	0.162	0.225
-569.646	-200.000	0.048	-0.402
-568.631	800.000	-0.076	0.231
-567.617	-200.000	0.067	-0.344
-566.602	44.129	-0.201	-0.184
-565.588	172.402	-0.077	0.111
-564.573	800.000	0.047	-0.204
-563.558	-200.000	-0.006	-0.095
-562.544	-200.000	0.005	0.152
-561.529	-200.000	0.000	0.051
-560.515	221.901	-0.062	-0.100
-559.500	531.420	-0.099	0.235
-558.485	-200.000	-0.007	-0.035
-557.471	533.876	-0.117	-0.278
-556.456	-13.140	0.178	0.116
-555.442	165.865	-0.331	-0.468
-554.427	177.147	-0.095	-0.138
-553.412	242.849	-0.142	-0.238
-552.398	-109.267	0.226	-0.048
-551.383	-18.461	0.199	0.124
-550.369	-6.569	0.051	0.035
-549.354	0.733	-0.269	0.193
-548.339	-43.278	-0.079	-0.040
-547.325	-70.908	0.219	0.082
-546.310	-159.865	0.193	0.011
-545.296	-52.518	0.333	0.154
-544.281	-76.506	0.335	0.117
-543.266	50.875	0.099	-0.094
-542.252	-155.810	-0.233	0.015
-541.237	24.316	-0.111	-0.091
-540.223	312.104	-0.145	-0.272
-539.208	-64.759	0.136	-0.055
-538.193	-169.384	-0.337	0.012
-537.179	-139.754	0.286	0.030
-536.164	-200.000	0.017	0.205
-535.150	800.000	0.020	-0.056
-534.135	-200.000	0.008	-0.311
-533.121	-200.000	-0.028	-0.134
-532.106	-2.191	-0.318	0.223
-531.091	800.000	0.125	0.366
-530.077	172.751	-0.064	0.092
-529.062	600.405	0.046	0.113
-528.048	424.453	-0.060	0.128
-527.033	-200.000	0.053	0.330
-526.018	388.345	-0.080	0.165
-525.004	109.143	-0.202	0.241
-523.989	-20.164	-0.308	-0.189
-522.975	444.406	-0.069	-0.150
-521.960	-200.000	0.072	0.430
-520.945	-106.368	0.350	-0.078
-519.931	98.527	-0.111	-0.127
-518.916	26.091	0.107	0.089
-517.902	-120.027	-0.368	0.063
-516.887	-118.062	-0.392	0.070
-515.872	800.000	0.075	0.236
-514.858	-62.802	-0.118	0.049
-513.843	22.949	-0.112	0.091
-512.829	-112.924	0.147	-0.029
-511.814	-200.000	-0.006	0.115
-510.799	-36.752	-0.157	-0.084
-509.785	-90.239	-0.285	0.083
-508.770	402.083	0.030	-0.064
-507.756	155.850	0.166	-0.228
-506.741	120.903	-0.293	-0.363
-505.726	-75.727	-0.297	-0.105
-504.712	800.000	0.075	-0.268
-503.697	800.000	0.040	0.153
-502.683	64.471	0.218	-0.219
-501.668	800.000	0.073	-0.213
-500.653	-154.016	0.007	-0.000
-499.639	-15.064	0.065	-0.042
-498.624	443.347	-0.085	-0.185
-497.610	-145.441	0.093	0.008
-496.595	-119.941	-0.243	-0.042
-495.581	-153.922	0.182	0.012
-494.566	-167.343	0.152	-0.006
-493.551	-114.063	0.345	0.067
-492.537	-8.212	-0.047	0.031
-491.522	75.607	0.122	-0.128
-490.508	-3.389	0.198	-0.137
-489.493	230.590	0.033	0.053
-488.478	785.933	-0.089	0.245
-487.464	-130.124	-0.184	-0.025
-486.449	-200.000	-0.010	0.133
-485.435	-105.154	-0.373	-0.085
-484.420	107.860	-0.075	0.089
-483.405	-200.000	-0.032	0.337
-482.391	772.458	0.103	0.280
-481.376	497.241	-0.137	0.313
-480.362	228.164	0.104	-0.169
-479.347	21.918	-0.251	-0.204
-478.332	383.499	0.114	0.233
-477.318	-10.978	-0.136	-0.090
-476.303	-149.293	0.041	0.003
-475.289	-200.000	0.001	0.004
-474.274	-123.909	0.172	-0.027
-473.259	227.591	-0.052	-0.084
-472.245	800.000	0.108	0.315
-471.230	-71.320	0.414	0.155
-470.216	-16.361	-0.218	-0.138
-469.201	-69.530	-0.241	-0.092
-468.186	239.364	0.094	0.155
-467.172	18.749	-0.070	-0.056
-466.157	271.816	0.079	0.139
-465.143	139.503	-0.063	0.083
-464.128	-200.000	0.028	-0.168
-463.113	315.170	-0.149	0.279
-462.099	48.170	-0.311	-0.289
-461.084	-118.279	0.172	-0.030
-460.070	-73.605	-0.191	-0.069
-459.055	-82.090	0.118	0.038
-458.040	-81.765	-0.140	0.046
-457.026	-200.000	0.011	-0.094
-456.011	489.456	-0.118	0.268
-454.997	-200.000	0.034	-0.263
-453.982	69.709	0.086	-0.089
-452.968	-67.196	0.283	0.111
-451.953	-200.000	0.016	-0.565
-450.938	155.202	-0.190	-0.260
-449.924	221.743	-0.140	0.224
-448.909	154.323	0.176	0.240
-447.895	-164.196	-0.204	-0.009
-446.880	-200.000	-0.074	0.330
-445.865	-200.000	-0.026	-0.126
-444.851	-24.755	0.056	0.033
-443.836	116.869	-0.115	0.140
-442.822	116.076	0.098	0.119
-441.807	-123.205	-0.286	-0.046
-440.792	-118.861	0.397	-0.069
-439.778	-200.000	-0.060	0.278
-438.763	-59.482	-0.269	0.115
-437.749	-29.522	0.239	0.136
-436.734	-200.000	-0.051	0.324
-435.719	800.000	0.070	0.230
-434.705	-39.278	0.260	0.136
-433.690	-18.918	-0.178	-0.110
-432.676	-200.000	0.001	0.263
-431.661	50.588	-0.076	-0.072
-430.646	396.848	-0.097	-0.202
-429.632	-200.000	-0.019	0.305
-428.617	-200.000	-0.052	0.266
-427.603	-200.000	-0.003	0.127
-426.588	1.469	0.102	-0.073
-425.573	382.976	0.202	-0.413
-424.559	229.037	0.153	-0.248
-423.544	-162.959	0.148	-0.007
-422.530	116.361	0.189	-0.230
-421.515	-93.618	-0.160	0.044
-420.500	-61.305	-0.273	-0.114
-419.486	800.000	0.136	0.403
-418.471	800.000	-0.072	-0.206
-417.457	386.876	-0.136	0.278
-416.442	800.000	-0.034	0.132
-415.428	-71.659	-0.088	0.033
-414.413	-200.000	0.010	-0.114
-413.398	-150.974	0.053	0.004
-412.384	-70.441	-0.290	0.109
-411.369	-18.298	0.269	0.167
-410.355	800.000	0.017	-0.061
-409.340	800.000	-0.104	-0.318
-408.325	-1.684	0.143	-0.100
-407.311	78.775	-0.086	0.091
-406.296	63.683	-0.172	-0.171
-405.282	-9.351	-0.192	0.127
-404.267	-102.774	-0.088	0.021
-403.252	-70.315	-0.217	0.082
-402.238	114.789	0.113	-0.137
-401.223	-16.798	0.079	-0.050
-400.209	-111.145	-0.433	-0.088
-399.194	-200.000	0.089	-0.408
-398.179	93.349	-0.157	0.176
-397.165	-200.000	0.021	0.401
-396.150	-200.000	-0.032	-0.220
-395.136	10.437	0.198	0.150
-394.121	-25.768	-0.285	0.167
-393.106	59.664	-0.128	0.126
-392.092	90.283	-0.050	-0.055
-391.077	198.803	-0.054	0.082
-390.063	-59.902	0.174	-0.074
-389.048	99.199	0.147	0.168
-388.033	-95.177	0.230	0.061
-387.019	-200.000	0.073	0.395
-386.004	800.000	-0.051	0.181
-384.990	234.309	0.212	-0.347
-383.975	99.078	-0.123	-0.140
-382.960	-74.644	-0.110	0.039
-381.946	-200.000	0.030	0.176
-380.931	462.048	0.072	0.159
-379.917	-131.348	-0.033	-0.004
-378.902	-200.000	-0.051	-0.231
-377.888	694.300	-0.181	-0.471
-376.873	-37.926	0.230	0.121
-375.858	-119.771	0.363	-0.062
-374.844	-59.657	0.175	0.075
-373.829	478.721	-0.148	0.333
-372.815	-117.560	-0.413	0.074
-371.800	-70.701	-0.042	0.016
-370.785	-51.558	0.350	-0.162
-369.771	-58.210	0.077	0.033
-368.756	-179.628	0.145	-0.003
-367.742	-105.845	0.212	-0.048
-366.727	-200.000	-0.031	-0.370
-365.712	-16.945	-0.171	0.107
-364.698	22.088	0.301	0.244
-363.683	-92.597	-0.199	0.055
-362.669	-200.000	-0.007	0.075
-361.654	-64.384	0.146	-0.059
-360.639	-166.214	0.315	-0.013
-359.625	-89.690	0.178	0.052
-358.610	67.303	-0.215	-0.217
-357.596	-200.000	0.021	0.108
-356.581	31.561	0.100	-0.085
-355.566	-89.040	-0.272	0.080
-354.552	-166.915	-0.371	0.015
-353.537	668.543	0.105	0.269
-352.523	470.227	0.047	-0.104
-351.508	277.848	0.088	0.155
-350.493	678.367	0.099	0.256
-349.479	-168.576	-0.041	0.002
-348.464	-76.847	-0.058	-0.020
-347.450	144.120	-0.067	-0.089
-346.435	217.238	-0.134	0.211
-345.420	-145.543	0.169	-0.015
-344.406	142.299	0.023	0.030
-343.391	-161.660	-0.177	0.009
-342.377	197.834	0.097	0.147
-341.362	104.228	0.038	0.044
-340.348	-11.887	-0.163	-0.106
-339.333	800.000	-0.032	0.105
-338.318	-35.543	0.079	-0.042
-337.304	202.624	0.065	-0.100
-336.289	-32.558	-0.183	0.101
-335.275	70.913	0.331	0.340
-334.260	315.823	0.112	0.208
-333.245	-169.820	-0.022	0.001
-332.231	-66.863	-0.070	0.028
-331.216	114.589	0.234	0.283
-330.202	-151.501	0.194	-0.014
-329.187	154.844	0.078	0.106
-328.172	-46.013	0.292	0.142
-327.158	800.000	0.086	0.352
-326.143	333.046	-0.090	-0.172
-325.129	145.606	0.054	0.072
-324.114	97.736	-0.142	-0.162
-323.099	-69.755	-0.140	-0.053
-322.085	31.504	-0.093	-0.079
-321.070	800.000	0.019	-0.081
-320.056	-71.016	0.262	0.098
-319.041	-89.302	-0.218	-0.064
-318.026	-98.612	0.075	-0.019
-317.012	162.560	0.174	0.242
-315.997	-120.673	0.261	0.044
-314.983	-200.000	0.040	0.240
-313.968	89.783	0.312	0.344
-312.953	-52.243	0.244	-0.112
-311.939	800.000	-0.084	-0.249
-310.924	297.012	0.098	-0.177
-309.910	458.899	-0.088	-0.194
-308.895	-200.000	-0.020	0.157
-307.880	-12.647	0.199	0.128
-306.866	690.173	-0.066	-0.171
-305.851	-159.393	0.260	-0.014
-304.837	-200.000	-0.008	-0.132
-303.822	19.922	-0.138	0.110
-302.807	800.000	0.082	-0.290
-301.793	-123.585	0.186	-0.029
-300.778	800.000	0.064	-0.242
-299.764	-100.820	0.151	0.037
-298.749	560.988	0.085	-0.202
-297.735	301.685	0.150	-0.275
-296.720	-127.104	-0.181	0.026
-295.705	55.734	0.205	0.196
-294.691	-4.790	-0.275	0.187
-293.676	800.000	0.033	0.114
-292.662	-92.313	-0.176	-0.049
-291.647	-88.713	0.268	0.079
-290.632	-70.980	0.180	0.067
-289.618	-167.587	-0.667	-0.026
-288.603	-5.101	0.015	-0.010
-287.589	21.428	-0.293	-0.236
-286.574	-34.730	-0.282	0.153
-285.559	228.295	0.030	0.048
-284.545	800.000	0.041	-0.114
-283.530	-200.000	-0.066	-0.400
-282.516	-200.000	0.086	0.400
-281.501	-178.332	-0.296	-0.007
-280.486	-54.291	0.225	-0.101
-279.472	-29.499	0.132	-0.075
-278.457	-31.355	-0.168	-0.094
-277.443	-104.379	0.306	-0.070
-276.428	-112.865	0.196	-0.038
-275.413	250.036	0.110	0.185
-274.399	361.271	0.145	-0.288
-273.384	-85.599	-0.081	0.025
-272.370	2.755	0.128	0.092
-271.355	64.950	0.283	0.283
-270.340	-36.115	0.161	-0.086
-269.326	-200.000	-0.019	0.327
-268.311	311.405	0.089	0.164
-267.297	108.520	0.092	-0.109
-266.282	97.066	0.064	0.072
-265.267	-200.000	-0.131	-0.599
-264.253	70.931	0.404	-0.414
-263.238	-33.430	-0.567	-0.310
-262.224	-200.000	-0.002	-0.013
-261.209	31.810	-0.078	0.066
-260.195	-164.529	-0.127	0.006
-259.180	800.000	-0.059	-0.161
-258.165	800.000	0.053	0.152
-257.151	-183.785	0.231	-0.004
-256.136	-83.405	-0.245	0.078
-255.122	800.000	0.048	-0.201
-254.107	-200.000	0.013	0.366
-253.092	-174.174	-0.346	-0.010
-252.078	-67.017	0.327	0.128
-251.063	83.321	-0.117	-0.126
-250.049	-12.210	-0.209	0.135
-249.034	-77.569	-0.230	0.079
-248.019	9.798	0.146	0.110
-247.005	104.472	-0.144	0.168
-245.990	78.745	0.118	-0.124
-244.976	-124.032	-0.286	0.044
-243.961	10.509	-0.126	0.095
-242.946	800.000	0.031	0.103
-241.932	800.000	0.057	-0.191
-240.917	-200.000	0.006	-0.122
-239.903	-118.290	0.338	0.059
-238.888	141.101	0.045	0.058
-237.873	571.062	-0.075	0.180
-236.859	-111.254	0.218	-0.044
-235.844	-59.646	-0.128	0.054
-234.830	419.038	0.158	0.334
-233.815	800.000	-0.042	-0.180
-232.800	-66.023	-0.144	0.057
-231.786	218.576	0.169	-0.267
-230.771	-92.248	-0.228	0.063
-229.757	194.513	-0.168	-0.251
-228.742	-70.942	0.318	-0.118
-227.727	-200.000	-0.014	0.126
-226.713	1.480	-0.038	-0.027
-225.698	-151.957	0.085	0.006
-224.684	9.805	-0.271	-0.203
-223.669	488.228	0.054	0.123
-222.655	13.436	0.298	0.228
-221.640	-110.970	0.206	0.042
-220.625	-12.106	-0.273	-0.176
-219.611	403.601	0.104	-0.216
-218.596	-116.884	-0.110	0.020
-217.582	30.657	0.238	-0.201
-216.567	-24.919	-0.209	-0.122
-215.552	199.371	0.101	0.152
-214.538	170.079	0.079	-0.112
-213.523	-108.956	0.311	0.065
-212.509	339.674	0.185	0.356
-211.494	1.539	-0.121	-0.086
-210.479	-75.334	-0.263	-0.092
-209.465	-33.451	0.123	0.067
-208.450	-30.028	0.336	-0.188
-207.436	-116.323	-0.187	-0.034
-206.421	-200.000	-0.008	0.086
-205.406	24.563	0.073	0.060
-204.392	-66.886	-0.298	0.116
-203.377	-15.295	-0.239	0.150
-202.363	195.799	0.160	0.240
-201.348	-200.000	0.019	-0.422
-200.333	-21.095	0.218	-0.132
-199.319	40.124	-0.061	-0.054
-198.304	-21.653	-0.094	-0.057
-197.290	-200.000	0.013	0.132
-196.275	-104.209	0.050	0.012
-195.260	25.493	0.115	0.094
-194.246	-200.000	0.005	0.274
-193.231	-51.008	-0.395	0.183
-192.217	800.000	0.023	-0.068
-191.202	-21.650	-0.311	0.186
-190.187	-200.000	0.007	0.066
-189.173	8.122	-0.101	-0.075
-188.158	11.547	0.200	-0.151
-187.144	-11.070	-0.154	0.100
-186.129	-50.283	0.142	-0.066
-185.114	-200.000	-0.097	-0.479
-184.100	-88.636	0.154	0.045
-183.085	800.000	-0.049	-0.147
-182.071	-161.346	0.258	0.013
-181.056	432.247	0.117	-0.251
-180.042	-172.279	-0.067	-0.002
-179.027	12.105	0.111	-0.084
-178.012	26.556	0.110	0.091
-176.998	135.930	-0.308	0.395
-175.983	75.326	0.195	0.203
-174.969	-200.000	-0.021	-0.382
-173.954	-200.000	0.037	-0.327
-172.939	-145.684	0.038	0.003
-171.925	-189.278	0.359	-0.004
-170.910	-200.000	-0.011	-0.099
-169.896	25.905	-0.160	0.131
-168.881	174.613	0.221	-0.314
-167.866	800.000	-0.095	-0.354
-166.852	351.584	-0.059	-0.115
-165.837	-197.398	-0.261	0.002
-164.823	-63.533	-0.084	0.034
-163.808	-200.000	-0.013	0.141
-162.793	53.929	0.422	0.399
-161.779	45.193	0.314	-0.285
-160.764	-119.886	0.066	0.011
-159.750	81.008	0.132	-0.140
-158.735	-200.000	0.003	-0.051
-157.720	306.915	-0.116	0.213
-156.706	-53.633	-0.248	0.111
-155.691	35.966	0.039	0.034
-154.677	-55.751	0.138	-0.061
-153.662	5.665	0.336	0.244
-152.647	194.641	0.094	0.141
-151.633	-147.757	0.160	-0.013
-150.618	-148.785	0.034	0.003
-149.604	448.159	-0.176	0.381
-148.589	417.642	-0.051	-0.107
-147.574	-200.000	-0.029	0.131
-146.560	-115.000	-0.355	0.066
-145.545	70.280	0.065	-0.066
-144.531	-73.531	-0.136	0.049
-143.516	36.909	-0.010	-0.008
-142.502	477.493	0.148	0.329
-141.487	39.497	0.074	-0.065
-140.472	-33.309	0.072	-0.039
-139.458	56.399	-0.166	0.159
-138.443	-200.000	0.019	-0.202
-137.429	-81.268	0.301	0.098
-136.414	-169.989	-0.128	0.005
-135.399	87.364	-0.067	0.072
-134.385	76.918	-0.184	0.192
-133.370	-54.847	0.397	0.176
-132.356	98.572	0.246	0.279
-131.341	71.479	-0.135	-0.138
-130.326	-83.748	0.068	-0.021
-129.312	-62.229	0.258	0.106
-128.297	-93.819	0.175	-0.047
-127.283	-64.422	0.047	-0.019
-126.268	550.346	-0.032	-0.075
-125.253	392.206	0.125	0.256
-124.239	746.581	0.081	0.215
-123.224	304.562	-0.093	0.169
-122.210	-200.000	0.047	0.291
-121.195	-200.000	0.010	0.426
-120.180	-133.293	0.379	-0.047
-119.166	-200.000	0.009	-0.149
-118.151	-200.000	0.017	0.227
-117.137	-92.977	0.327	-0.090
-116.122	-17.540	-0.218	0.135
-115.107	29.483	0.305	-0.254
-114.093	28.097	-0.163	-0.135
-113.078	-65.187	-0.211	0.084
-112.064	-32.128	-0.483	0.265
-111.049	223.491	0.145	-0.230
-110.034	45.149	-0.351	-0.317
-109.020	-42.114	-0.053	-0.026
-108.005	57.191	0.102	0.098
-106.991	214.048	0.157	0.244
-105.976	59.948	0.113	0.109
-104.962	-130.474	0.062	-0.008
-103.947	-115.980	0.223	-0.041
-102.932	-82.593	-0.322	0.103
-101.918	-43.647	0.321	-0.159
-100.903	-11.591	-0.217	-0.140
-99.889	-200.000	-0.048	0.296
-98.874	-70.439	0.180	-0.067
-97.859	800.000	0.060	0.253
-96.845	-34.636	0.093	0.050
-95.830	-78.848	0.259	0.087
-94.816	-175.494	-0.360	0.010
-93.801	800.000	-0.058	-0.165
-92.786	35.867	0.162	-0.140
-91.772	-153.467	0.116	0.008
-90.757	800.000	0.028	-0.099
-89.743	14.816	-0.264	-0.202
-88.728	-200.000	-0.007	-0.109
-87.713	-34.183	-0.111	0.060
-86.699	-200.000	-0.006	0.240
-85.684	144.045	-0.060	0.078
-84.670	387.967	-0.007	0.015
-83.655	-91.000	-0.197	0.056
-82.640	-120.002	0.301	-0.051
-81.626	24.243	0.059	0.048
-80.611	-200.000	-0.031	0.212
-79.597	-200.000	-0.010	-0.068
-78.582	131.554	-0.131	-0.165
-77.567	131.100	-0.052	0.065
-76.553	189.743	0.063	0.093
-75.538	-119.912	-0.139	0.023
-74.524	95.205	0.017	0.019
-73.509	168.902	-0.172	0.240
-72.494	-47.239	0.012	0.006
-71.480	517.792	-0.032	0.074
-70.465	433.205	-0.012	-0.026
-69.451	116.165	0.168	-0.202
-68.436	-48.869	0.197	-0.093
-67.422	-5.431	-0.063	0.042
-66.407	647.646	-0.084	0.210
-65.392	7.700	-0.224	-0.165
-64.378	-72.431	-0.071	-0.026
-63.363	-24.279	0.167	0.098
-62.349	-88.983	-0.045	-0.013
-61.334	56.492	-1.068	-1.018
-60.319	97.636	0.665	0.748
-59.305	-200.000	-0.097	-1.181
-58.290	774.164	0.483	1.292
-57.276	790.972	0.596	1.605
-56.261	-200.000	123.386	638.165
-55.246	412.284	1558.088	3242.720
-54.232	140.807	2729.981	3534.015
-53.217	87.183	2342.669	2537.044
-52.203	30.015	2089.146	1744.981
-51.188	25.264	2003.917	1630.668
-50.173	24.065	1987.542	1606.473
-49.159	41.416	2059.489	1825.128
-48.144	40.036	2072.494	1823.855
-47.130	25.619	2024.814	1650.669
-46.115	23.603	2013.450	1622.928
-45.100	23.421	2010.302	1618.664
-44.086	23.457	2008.175	1617.214
-43.071	23.438	2005.436	1614.775
-42.057	23.382	2003.801	1612.881
-41.042	23.390	2002.169	1611.579
-40.027	23.363	2000.001	1609.519
-39.013	23.461	1997.969	1608.711
-37.998	23.392	1996.387	1606.754
-36.984	23.374	1994.943	1605.357
-35.969	23.337	1992.993	1603.393
-34.954	23.303	1990.880	1601.323
-33.940	23.378	1990.024	1601.251
-32.925	23.502	1987.470	1600.248
-31.911	23.504	1986.305	1599.263
-30.896	23.452	1985.158	1597.812
-29.881	23.430	1984.224	1596.792
-28.867	23.538	1982.049	1595.949
-27.852	23.598	1980.223	1594.956
-26.838	23.582	1977.841	1592.829
-25.823	23.560	1976.193	1591.250
-24.809	23.567	1974.396	1589.803
-23.794	23.568	1972.609	1588.307
-22.779	23.597	1970.909	1587.130
-21.765	23.589	1969.472	1585.842
-20.750	23.565	1968.409	1584.708
-19.736	23.560	1966.143	1582.774
-18.721	23.569	1964.834	1581.744
-17.706	23.579	1963.295	1580.531
-16.692	23.493	1961.947	1578.612
-15.677	23.539	1960.232	1577.581
-14.663	23.561	1958.464	1576.293
-13.648	23.553	1957.376	1575.286
-12.633	23.484	1956.904	1574.231
-11.619	23.493	1954.530	1572.334
-10.604	23.512	1953.554	1571.653
-9.590	23.498	1952.211	1570.391
-8.575	23.525	1950.265	1568.997
-7.560	23.547	1949.019	1568.125
-6.546	23.513	1948.192	1567.101
-5.531	23.517	1946.645	1565.829
-4.517	23.588	1945.084	1565.137
-3.502	23.503	1944.413	1563.791
-2.487	23.474	1943.494	1562.731
-1.473	23.526	1942.542	1562.362
-0.458	23.590	1937.169	1558.543
0.556	21.809	1916.592	1529.773
1.571	17.621	1898.368	1478.823
2.586	13.839	1922.322	1464.048
3.600	12.975	1958.405	1483.636
4.615	13.083	1951.410	1479.174
5.629	10.230	1850.498	1378.287
6.644	3.949	1736.748	1243.117
7.659	0.501	1703.747	1192.180
8.673	0.211	1700.858	1187.766
9.688	0.267	1699.347	1187.048
10.702	0.167	1698.509	1185.569
11.717	0.116	1693.542	1181.600
12.731	0.453	1693.046	1183.792
13.746	5.296	1703.409	1229.105
14.761	12.429	1718.052	1295.979
15.775	16.148	1724.341	1329.982
16.790	16.693	1723.797	1333.743
17.804	15.837	1720.476	1324.323
18.819	14.874	1717.481	1314.334
19.834	14.297	1715.080	1307.850
20.848	14.098	1712.999	1304.583
21.863	13.873	1711.068	1301.236
22.877	13.537	1710.505	1298.059
23.892	13.331	1709.034	1295.212
24.907	13.304	1707.548	1293.760
25.921	13.191	1707.051	1292.391
26.936	13.257	1705.287	1291.455
27.950	13.283	1704.858	1291.221
28.965	13.301	1704.349	1290.858
29.980	13.362	1703.557	1290.622
30.994	13.433	1702.747	1290.447
32.009	13.501	1700.997	1289.536
33.023	13.483	1700.695	1289.050
34.038	13.509	1700.256	1288.807
35.053	13.453	1698.983	1287.293
36.067	13.393	1697.785	1285.807
37.082	13.317	1696.787	1284.344
38.096	13.412	1695.591	1284.063
39.111	13.437	1694.717	1283.481
40.126	13.429	1694.052	1282.802
41.140	13.389	1693.272	1281.792
42.155	13.393	1691.246	1280.170
43.169	13.276	1690.210	1278.370
44.184	13.348	1688.699	1277.671
45.199	13.296	1687.671	1276.381
46.213	13.175	1686.558	1274.492
47.228	13.221	1685.365	1273.827
48.242	13.297	1683.719	1273.060
49.257	13.338	1682.795	1272.566
50.271	13.339	1681.469	1271.453
51.286	13.287	1680.729	1270.386
52.301	13.288	1679.228	1269.145
53.315	13.385	1676.976	1268.073
54.330	13.365	1676.075	1267.124
55.344	13.290	1674.330	1265.126
56.359	13.259	1673.099	1263.841
57.374	13.293	1671.506	1262.786
58.388	13.350	1670.274	1262.180
59.403	13.300	1669.445	1261.061
60.417	13.227	1667.807	1259.157
61.432	13.182	1666.522	1257.731
62.447	13.221	1665.151	1256.883
63.461	13.113	1664.253	1255.273
64.476	13.117	1663.278	1254.461
65.490	13.120	1661.819	1253.266
66.505	13.168	1660.378	1252.437
67.520	13.129	1659.526	1251.386
68.534	13.246	1658.122	1251.103
69.549	13.219	1657.071	1249.995
70.563	13.249	1655.690	1249.068
71.578	13.199	1654.524	1247.698
72.593	13.193	1653.014	1246.407
73.607	13.156	1652.218	1245.417
74.622	13.088	1651.172	1244.004
75.636	13.062	1650.404	1243.122
76.651	13.079	1649.565	1242.507
77.666	13.140	1648.282	1241.887
78.680	13.139	1647.754	1241.376
79.695	13.101	1646.882	1240.323
80.709	13.123	1645.697	1239.484
81.724	13.131	1644.961	1238.884
82.739	13.164	1644.300	1238.521
83.753	13.213	1642.447	1237.384
84.768	13.261	1641.768	1237.124
85.782	13.264	1641.117	1236.542
86.797	13.379	1640.087	1236.518
87.812	13.363	1639.013	1235.475
88.826	13.371	1637.436	1234.239
89.841	13.244	1636.909	1232.790
90.855	13.201	1635.954	1231.637
91.870	13.314	1634.706	1231.431
92.884	13.411	1633.565	1231.186
93.899	13.404	1632.941	1230.549
94.914	13.354	1631.640	1229.089
95.928	13.421	1630.365	1228.522
96.943	13.438	1628.834	1227.385
97.957	13.429	1627.528	1226.227
98.972	13.307	1625.813	1223.919
99.987	13.341	1624.542	1223.104
101.001	13.385	1622.492	1221.781
102.016	13.349	1621.387	1220.574
103.030	13.241	1620.238	1218.808
104.045	13.331	1618.497	1218.047
105.060	13.417	1617.097	1217.521
106.074	13.341	1616.088	1216.099
107.089	13.258	1614.268	1214.009
108.103	13.303	1612.973	1213.256
109.118	13.337	1611.260	1212.112
110.133	13.163	1610.416	1210.096
111.147	13.217	1608.148	1208.677
112.162	13.145	1607.602	1207.632
113.176	13.265	1605.437	1206.776
114.191	13.238	1603.995	1205.387
115.206	13.251	1602.955	1204.600
116.220	13.233	1602.198	1203.789
117.235	13.256	1600.412	1202.512
118.249	13.347	1598.721	1201.793
119.264	13.214	1597.722	1199.969
120.279	13.249	1596.382	1199.113
121.293	13.224	1594.882	1197.695
122.308	13.256	1593.510	1196.791
123.322	13.234	1592.069	1195.449
124.337	13.280	1589.859	1194.015
125.352	13.294	1589.003	1193.365
126.366	13.325	1587.602	1192.429
127.381	13.155	1586.710	1190.431
128.395	13.208	1585.593	1189.866
129.410	13.285	1583.561	1188.797
130.424	13.235	1582.607	1187.615
131.439	13.170	1581.055	1185.875
132.454	13.320	1579.696	1185.827
133.468	13.311	1578.231	1184.562
134.483	13.315	1576.729	1183.357
135.497	13.232	1575.934	1182.060
136.512	13.342	1573.998	1181.288
137.527	13.346	1572.468	1180.067
138.541	13.354	1571.486	1179.280
139.556	13.392	1569.814	1178.194
140.570	13.350	1568.635	1176.902
141.585	13.448	1567.053	1176.306
142.600	13.410	1566.080	1175.202
143.614	13.416	1564.943	1174.288
144.629	13.558	1563.093	1173.802
145.643	13.531	1561.923	1172.634
146.658	13.581	1560.325	1171.680
147.673	13.541	1558.752	1170.111
148.687	13.442	1557.943	1168.701
149.702	13.449	1556.068	1167.241
150.716	13.497	1554.417	1166.239
151.731	13.405	1552.889	1164.345
152.746	13.428	1552.010	1163.744
153.760	13.458	1550.415	1162.653
154.775	13.513	1548.771	1161.703
155.789	13.577	1547.743	1161.282
156.804	13.565	1546.377	1160.069
157.819	13.553	1545.499	1159.222
158.833	13.633	1544.017	1158.568
159.848	13.662	1542.705	1157.680
160.862	13.656	1541.813	1156.872
161.877	13.656	1540.302	1155.632
162.892	13.667	1538.860	1154.523
163.906	13.575	1537.777	1152.971
164.921	13.600	1536.740	1152.267
165.935	13.562	1535.484	1150.960
166.950	13.591	1534.540	1150.347
167.964	13.602	1533.047	1149.202
168.979	13.510	1532.566	1148.105
169.994	13.519	1531.484	1147.254
171.008	13.637	1530.467	1147.208
172.023	13.594	1529.346	1145.969
173.037	13.665	1527.972	1145.326
174.052	13.754	1526.834	1144.991
175.067	13.743	1525.550	1143.852
176.081	13.686	1524.673	1142.696
177.096	13.657	1523.215	1141.300
178.110	13.717	1521.668	1140.453
179.125	13.694	1520.669	1139.451
180.140	13.710	1519.509	1138.588
181.154	13.726	1518.231	1137.636
182.169	13.766	1517.217	1137.054
183.183	13.734	1515.974	1135.805
184.198	13.779	1515.075	1135.337
185.213	13.850	1513.861	1134.809
186.227	13.883	1512.858	1134.186
187.242	13.850	1511.741	1133.020
188.256	13.940	1510.469	1132.579
189.271	14.015	1509.499	1132.265
190.286	13.993	1508.399	1131.190
191.300	13.905	1507.368	1129.718
192.315	13.883	1505.720	1128.236
193.329	13.780	1504.855	1126.785
194.344	13.846	1502.897	1125.669
195.359	13.796	1502.785	1125.149
196.373	13.972	1500.853	1124.793
197.388	13.897	1500.633	1124.018
198.402	13.991	1499.078	1123.393
199.417	13.971	1498.459	1122.694
200.432	13.979	1497.215	1121.718
201.446	14.128	1495.869	1121.610
202.461	14.111	1494.824	1120.617
203.475	14.059	1493.817	1119.410
204.490	14.066	1492.753	1118.563
205.504	14.094	1491.330	1117.587
206.519	14.068	1490.361	1116.582
207.534	14.094	1488.626	1115.357
208.548	14.073	1487.690	1114.421
209.563	14.081	1487.133	1113.956
210.577	14.073	1486.131	1113.057
211.592	14.146	1485.325	1112.842
212.607	14.137	1484.403	1111.994
213.621	14.239	1483.591	1111.964
214.636	14.283	1482.842	1111.597
215.650	14.187	1482.113	1110.312
216.665	14.264	1480.753	1109.711
217.680	14.282	1479.982	1109.156
218.694	14.286	1479.339	1108.603
219.709	14.304	1478.134	1107.720
220.723	14.447	1476.647	1107.457
221.738	14.395	1476.212	1106.691
222.753	14.277	1475.803	1105.500
223.767	14.395	1474.176	1104.967
224.782	14.301	1473.572	1103.794
225.796	14.365	1472.598	1103.386
226.811	14.394	1471.513	1102.673
227.826	14.426	1470.700	1102.174
228.840	14.420	1470.124	1101.608
229.855	14.486	1469.003	1101.103
230.869	14.407	1467.979	1099.717
231.884	14.420	1467.050	1099.008
232.899	14.450	1465.709	1098.109
233.913	14.473	1464.220	1097.046
234.928	14.399	1463.487	1095.915
235.942	14.414	1462.260	1094.994
236.957	14.390	1461.162	1093.918
237.972	14.479	1460.037	1093.563
238.986	14.494	1458.823	1092.655
240.001	14.448	1458.134	1091.738
241.015	14.442	1457.028	1090.777
242.030	14.441	1455.868	1089.807
243.045	14.501	1454.903	1089.382
244.059	14.574	1453.696	1088.858
245.074	14.668	1452.833	1088.727
246.088	14.621	1452.177	1087.829
247.103	14.627	1451.412	1087.202
248.117	14.700	1450.524	1086.914
249.132	14.661	1449.940	1086.125
250.147	14.751	1448.739	1085.716
251.161	14.783	1448.280	1085.486
252.176	14.920	1447.456	1085.659
253.190	14.904	1447.149	1085.234
254.205	14.923	1445.733	1084.196
255.220	14.979	1444.774	1083.744
256.234	14.961	1444.045	1082.984
257.249	14.934	1443.460	1082.276
258.263	14.890	1442.528	1081.199
259.278	14.892	1441.691	1080.483
260.293	15.030	1440.882	1080.675
261.307	14.984	1439.871	1079.524
262.322	15.046	1438.967	1079.148
263.336	15.066	1438.369	1078.734
264.351	15.156	1436.781	1078.029
265.366	15.101	1436.401	1077.293
266.380	15.226	1435.138	1077.053
267.395	15.100	1434.480	1075.658
268.409	15.119	1433.886	1075.241
269.424	15.233	1432.265	1074.659
270.439	15.097	1431.624	1073.213
271.453	15.187	1430.621	1072.939
272.468	15.079	1429.734	1071.487
273.482	15.177	1428.985	1071.457
274.497	15.197	1427.832	1070.631
275.512	15.173	1426.815	1069.618
276.526	15.100	1426.235	1068.621
277.541	15.101	1425.666	1068.110
278.555	15.037	1425.087	1067.171
279.570	15.242	1423.587	1067.256
280.585	15.234	1422.556	1066.341
281.599	15.388	1421.502	1066.434
282.614	15.394	1420.752	1065.819
283.628	15.249	1419.605	1063.942
284.643	15.355	1418.222	1063.483
285.657	15.292	1417.411	1062.381
286.672	15.337	1416.946	1062.222
287.687	15.349	1415.865	1061.395
288.701	15.366	1414.464	1060.360
289.716	15.404	1413.599	1059.858
290.730	15.426	1412.501	1059.075
291.745	15.406	1411.773	1058.312
292.760	15.383	1410.877	1057.405
293.774	15.380	1409.896	1056.557
294.789	15.486	1408.858	1056.348
295.803	15.556	1407.955	1056.017
296.818	15.564	1407.190	1055.403
297.833	15.653	1405.585	1054.666
298.847	15.455	1405.293	1053.111
299.862	15.587	1404.094	1052.946
300.876	15.536	1403.129	1051.806
301.891	15.590	1402.580	1051.641
302.906	15.519	1401.919	1050.610
303.920	15.660	1400.671	1050.460
304.935	15.704	1399.989	1050.134
305.949	15.691	1399.068	1049.271
306.964	15.634	1398.693	1048.541
307.979	15.839	1396.967	1048.431
308.993	15.770	1396.595	1047.628
310.008	15.854	1395.425	1047.180
311.022	15.728	1394.683	1045.750
312.037	15.707	1394.287	1045.225
313.052	15.730	1392.975	1044.296
314.066	15.837	1391.758	1043.954
315.081	15.879	1390.575	1043.235
316.095	15.864	1389.407	1042.172
317.110	15.739	1388.934	1040.951
318.125	15.801	1387.524	1040.183
319.139	15.731	1386.698	1039.043
320.154	15.732	1385.984	1038.423
321.168	15.852	1384.702	1038.107
322.183	15.684	1384.095	1036.525
323.197	15.827	1382.856	1036.387
324.212	15.765	1381.843	1035.156
325.227	15.820	1381.557	1035.187
326.241	15.866	1380.424	1034.531
327.256	15.875	1379.807	1034.031
328.270	15.930	1378.695	1033.445
329.285	15.842	1377.812	1032.151
330.300	15.936	1376.591	1031.720
331.314	15.881	1376.327	1031.093
332.329	15.889	1375.062	1030.104
333.343	15.945	1374.350	1029.824
334.358	15.999	1373.269	1029.254
335.373	15.925	1372.751	1028.318
336.387	16.040	1371.573	1028.049
337.402	15.945	1370.736	1026.753
338.416	16.033	1370.630	1027.115
339.431	16.086	1369.522	1026.517
340.446	16.130	1368.515	1025.938
341.460	16.123	1368.117	1025.507
342.475	16.139	1366.784	1024.517
343.489	16.235	1366.095	1024.493
344.504	16.254	1364.972	1023.674
345.519	16.227	1363.921	1022.632
346.533	16.299	1362.572	1021.963
347.548	16.360	1362.037	1021.844
348.562	16.326	1360.988	1020.759
349.577	16.418	1360.202	1020.635
350.592	16.371	1359.824	1019.981
351.606	16.349	1358.802	1018.991
352.621	16.236	1357.807	1017.469
353.635	16.196	1356.849	1016.421
354.650	16.303	1356.048	1016.375
355.665	16.243	1355.089	1015.205
356.679	16.295	1353.529	1014.260
357.694	16.278	1352.570	1013.353
358.708	16.410	1351.250	1013.061
359.723	16.422	1350.162	1012.228
360.738	16.501	1349.358	1012.008
361.752	16.406	1348.511	1010.715
362.767	16.492	1346.966	1009.985
363.781	16.396	1346.457	1008.940
364.796	16.544	1345.887	1009.307
365.810	16.448	1345.461	1008.322
366.825	16.503	1344.502	1007.841
367.840	16.553	1343.774	1007.506
368.854	16.605	1342.574	1006.830
369.869	16.671	1342.215	1006.860
370.883	16.680	1341.642	1006.398
371.898	16.589	1340.973	1005.267
372.913	16.582	1340.246	1004.591
373.927	16.607	1339.145	1003.824
374.942	16.625	1337.907	1002.914
375.956	16.651	1338.118	1003.140
376.971	16.717	1336.421	1002.169
377.986	16.758	1335.773	1001.834
379.000	16.743	1335.336	1001.332
380.015	16.718	1334.684	1000.602
381.029	16.882	1333.108	1000.303
382.044	16.922	1332.615	1000.083
383.059	16.883	1331.819	999.162
384.073	16.871	1331.465	998.737
385.088	16.831	1330.880	997.976
386.102	16.937	1329.887	997.769
387.117	16.960	1328.989	997.141
388.132	16.859	1328.478	996.075
389.146	16.817	1327.588	995.076
390.161	16.881	1327.076	994.980
391.175	16.955	1325.917	994.452
392.190	16.923	1324.935	993.441
393.205	16.963	1324.208	993.042
394.219	17.004	1323.028	992.313
395.234	17.025	1321.806	991.429
396.248	17.069	1320.352	990.504
397.263	16.960	1319.199	988.917
398.278	16.979	1317.962	988.016
399.292	16.989	1317.023	987.283
400.307	17.070	1315.799	986.749
401.321	17.007	1314.618	985.406
402.336	16.982	1313.825	984.581
403.350	17.050	1312.858	984.165
404.365	17.035	1311.920	983.288
405.380	16.994	1310.956	982.239
406.394	17.014	1310.263	981.749
407.409	17.055	1309.557	981.370
408.423	17.094	1308.821	980.957
409.438	17.110	1308.049	980.384
410.453	17.173	1307.512	980.263
411.467	17.184	1306.785	979.691
412.482	17.230	1306.543	979.688
413.496	17.334	1305.771	979.623
414.511	17.279	1304.356	978.160
415.526	17.301	1303.809	977.790
416.540	17.414	1302.825	977.615
417.555	17.491	1302.398	977.648
418.569	17.447	1301.848	976.896
419.584	17.474	1301.444	976.662
420.599	17.392	1300.864	975.671
421.613	99.336	1361.479	1486.683
422.628	97.588	1370.260	1486.771
