DTS Sentinel unit serial number:	SN413079Multiplexer serial number:	ORYXHardware model number:	OX4-SRSoftware version number:	ORYX F/W v4.00 Oryx Data Collector v3.7.2.0data status	okinstallation	princeton_trtdifferential loss correction	single-endedforward channel	channel 4reverse channel	N/Adate	2019/09/15time	14:17:35forward acquisition time	60.00reverse acquisition time	0.00gamma	496.2192k internal	0.2288k external	0.2288temperature offset calibration	0.9989default loss term (dB/km)	0.3790temperature slope calibration	1.0000multiplexer offset coefficient	1.0000multiplexer slope coefficient	1.0000fibre end	0.00T internal ref (°C)	38.98T ext. ref 1 (°C)	4.95T ext. ref 2 (°C)	35.99length (m)	temperature (°C)	Stokes	anti-Stokes-747.200	-8.359	-0.022	-0.015
-746.185	324.093	-0.343	0.671
-745.171	-169.715	-0.172	-0.006
-744.156	14.661	-0.149	-0.119
-743.142	239.659	0.088	-0.151
-742.127	-106.011	-0.177	0.041
-741.112	89.203	-0.105	0.120
-740.098	86.874	0.180	0.204
-739.083	-38.950	0.102	0.055
-738.069	-67.966	0.263	-0.105
-737.054	249.539	-0.067	-0.116
-736.039	-110.158	-0.376	-0.080
-735.025	-73.974	0.228	0.085
-734.010	-66.421	-0.264	0.108
-732.996	306.583	-0.069	0.131
-731.981	-46.927	-0.560	0.280
-730.966	-48.816	-0.441	0.217
-729.952	-200.000	0.003	-0.128
-728.937	-200.000	-0.042	-0.268
-727.923	800.000	0.080	-0.350
-726.908	-200.000	-0.007	0.151
-725.894	800.000	0.087	0.315
-724.879	-31.219	-0.055	-0.032
-723.864	-112.573	-0.450	0.092
-722.850	2.069	-0.096	0.071
-721.835	-200.000	0.024	-0.121
-720.821	-9.365	-0.357	0.244
-719.806	-200.000	0.052	-0.246
-718.791	11.073	-0.119	0.093
-717.777	-139.081	0.032	0.004
-716.762	-81.084	-0.207	0.070
-715.748	-75.016	-0.161	0.059
-714.733	-82.433	0.201	-0.067
-713.718	800.000	0.073	-0.252
-712.704	291.119	-0.090	0.167
-711.689	800.000	-0.076	0.242
-710.675	25.880	-0.189	-0.161
-709.660	193.457	-0.036	-0.056
-708.645	-200.000	0.166	0.000
-707.631	-200.000	0.047	-0.277
-706.616	800.000	0.080	-0.246
-705.602	-200.000	-0.002	-0.192
-704.587	-200.000	-0.041	-0.304
-703.572	-92.138	0.035	-0.010
-702.558	-50.700	-0.132	0.064
-701.543	-67.891	-0.229	-0.092
-700.529	-4.337	0.157	0.111
-699.514	800.000	-0.085	-0.306
-698.499	-200.000	0.029	0.483
-697.485	-99.024	-0.368	0.096
-696.470	-35.798	0.069	0.038
-695.456	-157.262	-0.275	0.017
-694.441	-200.000	0.016	0.072
-693.426	-103.308	-0.049	0.012
-692.412	-53.855	0.145	0.068
-691.397	526.234	0.055	-0.132
-690.383	800.000	0.021	0.086
-689.368	122.150	-0.086	-0.110
-688.354	-139.888	-0.330	0.036
-687.339	365.045	-0.058	0.119
-686.324	-174.875	-0.299	-0.009
-685.310	800.000	0.016	-0.071
-684.295	-200.000	0.013	0.256
-683.281	-200.000	-0.041	0.187
-682.266	-49.175	0.045	-0.022
-681.251	96.946	0.043	-0.050
-680.237	800.000	0.045	0.182
-679.222	386.962	-0.058	0.123
-678.208	800.000	0.105	0.437
-677.193	32.955	-0.125	-0.111
-676.178	800.000	0.111	-0.326
-675.164	91.955	0.189	-0.218
-674.149	-5.893	-0.098	-0.068
-673.135	-91.124	0.234	-0.069
-672.120	-121.252	-0.337	-0.058
-671.105	127.387	-0.180	-0.233
-670.091	-6.927	-0.065	0.045
-669.076	483.090	-0.025	-0.059
-668.062	199.532	0.097	-0.151
-667.047	-163.703	0.318	0.015
-666.032	-200.000	0.018	0.168
-665.018	132.234	0.129	-0.170
-664.003	-164.267	-0.240	0.011
-662.989	-134.867	-0.248	-0.031
-661.974	-111.969	0.220	-0.045
-660.959	-42.566	-0.255	0.133
-659.945	-138.659	-0.158	-0.018
-658.930	150.355	0.197	-0.273
-657.916	-167.922	-0.367	0.015
-656.901	456.439	0.058	0.132
-655.886	75.282	0.158	0.170
-654.872	-126.822	0.198	0.030
-653.857	112.845	-0.047	0.058
-652.843	162.687	0.085	-0.121
-651.828	-98.167	0.140	0.037
-650.814	800.000	0.022	-0.091
-649.799	382.343	0.170	-0.356
-648.784	120.302	0.164	0.207
-647.770	736.973	-0.054	-0.148
-646.755	38.596	-0.114	-0.104
-645.741	278.484	-0.100	0.183
-644.726	55.080	-0.138	-0.137
-643.711	-47.478	0.214	0.106
-642.697	208.205	0.115	-0.183
-641.682	183.732	-0.139	0.211
-640.668	429.835	0.053	-0.117
-639.653	800.000	0.011	-0.043
-638.638	35.940	-0.199	-0.179
-637.624	-200.000	0.036	-0.260
-636.609	141.844	0.169	-0.229
-635.595	120.456	0.183	-0.233
-634.580	153.719	-0.043	-0.061
-633.565	245.119	-0.082	0.141
-632.551	8.961	-0.250	0.193
-631.536	313.439	0.146	0.279
-630.522	168.502	-0.158	0.230
-629.507	-39.678	0.230	-0.123
-628.492	-89.300	0.077	0.023
-627.478	-127.191	0.098	0.015
-626.463	-200.000	-0.007	-0.128
-625.449	-131.151	0.272	-0.037
-624.434	800.000	0.111	-0.318
-623.419	28.405	-0.308	-0.266
-622.405	70.087	0.071	0.075
-621.390	-200.000	0.009	-0.182
-620.376	70.539	-0.168	-0.178
-619.361	71.251	-0.172	-0.182
-618.346	-200.000	0.002	0.047
-617.332	105.403	0.115	0.138
-616.317	-200.000	0.029	-0.408
-615.303	-11.893	-0.142	0.095
-614.288	800.000	0.094	0.375
-613.273	-167.770	0.302	-0.012
-612.259	130.073	-0.090	0.117
-611.244	90.925	-0.141	-0.161
-610.230	-115.776	-0.246	-0.047
-609.215	29.859	-0.171	0.149
-608.201	-131.732	-0.152	0.020
-607.186	800.000	0.026	0.106
-606.171	-110.429	-0.369	0.078
-605.157	800.000	-0.026	-0.075
-604.142	45.710	0.156	0.147
-603.128	21.516	0.133	0.110
-602.113	-75.409	-0.295	-0.107
-601.098	-200.000	0.036	-0.189
-600.084	-200.000	-0.002	-0.027
-599.069	206.616	-0.220	0.349
-598.055	48.864	-0.118	-0.112
-597.040	-146.450	0.197	0.018
-596.025	-10.406	0.208	-0.141
-595.011	764.874	-0.167	-0.462
-593.996	380.867	0.208	0.435
-592.982	-88.335	-0.392	-0.120
-591.967	-141.791	-0.128	-0.013
-590.952	109.872	-0.191	-0.233
-589.938	-200.000	-0.007	0.157
-588.923	-200.000	0.182	0.000
-587.909	-4.296	-0.250	0.176
-586.894	-122.976	0.349	0.057
-585.879	115.365	0.168	-0.209
-584.865	-31.257	0.379	0.217
-583.850	-159.802	0.352	0.020
-582.836	-88.054	-0.049	-0.015
-581.821	-151.471	0.153	-0.012
-580.806	-42.451	-0.158	-0.082
-579.792	235.857	-0.142	-0.239
-578.777	41.852	0.114	-0.105
-577.763	1.768	0.062	-0.046
-576.748	518.412	0.087	0.208
-575.733	800.000	-0.050	-0.207
-574.719	658.638	0.036	-0.095
-573.704	800.000	0.053	0.198
-572.690	418.139	-0.046	0.101
-571.675	800.000	-0.055	0.204
-570.661	-200.000	-0.074	-0.395
-569.646	-200.000	-0.053	0.243
-568.631	800.000	0.018	-0.078
-567.617	115.639	-0.205	-0.255
-566.602	-0.858	0.154	-0.111
-565.588	800.000	-0.105	0.335
-564.573	-126.251	0.250	0.038
-563.558	40.678	-0.069	0.063
-562.544	-2.756	0.167	-0.119
-561.529	-200.000	0.004	-0.118
-560.515	144.780	-0.017	-0.023
-559.500	126.649	-0.205	-0.264
-558.485	6.492	-0.085	0.064
-557.471	-66.534	-0.131	-0.053
-556.456	159.896	0.184	-0.261
-555.442	145.206	0.043	-0.058
-554.427	-88.911	-0.244	-0.074
-553.412	-128.802	-0.172	0.025
-552.398	-89.920	-0.205	-0.061
-551.383	-126.692	-0.194	-0.029
-550.369	278.442	-0.224	0.407
-549.354	-200.000	0.015	0.140
-548.339	-200.000	0.050	-0.388
-547.325	-37.110	-0.267	0.145
-546.310	-130.896	-0.177	-0.024
-545.296	-134.325	0.188	-0.023
-544.281	800.000	0.076	-0.282
-543.266	112.380	0.136	0.167
-542.252	101.313	-0.226	-0.267
-541.237	110.250	0.083	-0.102
-540.223	122.971	-0.278	-0.354
-539.208	-200.000	-0.004	0.051
-538.193	-132.468	-0.094	0.012
-537.179	-104.437	0.178	-0.042
-536.164	800.000	-0.118	-0.387
-535.150	25.487	0.078	0.066
-534.135	-126.688	0.130	0.020
-533.121	83.346	-0.193	0.213
-532.106	259.015	-0.150	0.263
-531.091	110.305	-0.165	-0.202
-530.077	31.284	-0.118	0.103
-529.062	-96.023	0.082	-0.022
-528.048	-19.204	-0.312	-0.197
-527.033	741.788	-0.080	-0.218
-526.018	-200.000	-0.007	0.044
-525.004	-82.777	-0.141	-0.046
-523.989	-133.235	-0.089	-0.011
-522.975	-200.000	0.053	-0.236
-521.960	-50.048	-0.127	-0.061
-520.945	-15.955	-0.074	-0.048
-519.931	251.834	-0.134	-0.231
-518.916	173.112	0.037	0.054
-517.902	-63.671	0.174	0.073
-516.887	14.683	0.102	-0.081
-515.872	-200.000	0.003	-0.025
-514.858	800.000	0.087	0.330
-513.843	17.507	-0.132	0.107
-512.829	-58.605	0.096	-0.042
-511.814	328.570	-0.103	0.200
-510.799	25.193	-0.034	-0.028
-509.785	800.000	-0.055	-0.229
-508.770	-200.000	0.013	0.197
-507.756	-84.000	-0.148	0.048
-506.741	-132.743	0.195	0.025
-505.726	262.631	-0.147	-0.260
-504.712	243.035	-0.062	-0.106
-503.697	-64.159	0.136	0.056
-502.683	301.868	-0.060	0.113
-501.668	-193.586	-0.018	0.000
-500.653	319.447	0.169	0.325
-499.639	346.924	0.150	-0.300
-498.624	646.232	0.115	-0.299
-497.610	54.693	-0.053	-0.052
-496.595	-40.147	0.145	-0.077
-495.581	-161.056	-0.223	-0.012
-494.566	-43.469	-0.085	0.043
-493.551	-35.949	-0.202	0.111
-492.537	-55.861	0.193	0.088
-491.522	800.000	0.075	0.270
-490.508	79.304	-0.117	-0.127
-489.493	310.428	-0.166	0.316
-488.478	269.416	0.073	0.130
-487.464	192.474	0.049	0.075
-486.449	593.104	-0.076	-0.191
-485.435	-13.368	0.066	0.044
-484.420	29.706	0.134	0.115
-483.405	162.241	0.038	0.054
-482.391	800.000	0.028	0.093
-481.376	-146.735	0.100	-0.009
-480.362	353.471	0.083	0.168
-479.347	-99.548	-0.273	0.070
-478.332	-200.000	-0.046	0.426
-477.318	12.476	0.158	-0.124
-476.303	-200.000	0.034	-0.207
-475.289	7.084	-0.032	-0.024
-474.274	80.862	0.122	-0.133
-473.259	800.000	0.034	0.123
-472.245	-83.877	-0.174	0.056
-471.230	192.709	-0.125	-0.192
-470.216	800.000	-0.013	0.047
-469.201	244.328	-0.167	-0.284
-468.186	52.047	0.156	0.151
-467.172	-120.812	0.253	0.043
-466.157	-200.000	0.009	0.146
-465.143	139.933	-0.163	0.218
-464.128	151.483	0.048	-0.067
-463.113	-84.602	-0.237	-0.076
-462.099	399.862	0.093	-0.198
-461.084	800.000	0.028	-0.091
-460.070	-129.322	-0.246	0.035
-459.055	106.878	-0.188	-0.227
-458.040	-130.298	-0.303	-0.042
-457.026	-200.000	0.012	-0.112
-456.011	25.002	0.216	0.182
-454.997	683.707	-0.013	0.033
-453.982	715.076	0.061	0.163
-452.968	800.000	0.039	-0.123
-451.953	3.077	0.145	0.107
-450.938	-44.342	0.169	0.086
-449.924	-14.181	0.076	0.050
-448.909	-89.800	0.189	0.056
-447.895	-200.000	0.014	0.271
-446.880	-25.117	0.079	0.047
-445.865	-147.513	0.432	0.037
-444.851	-127.206	0.103	0.015
-443.836	75.354	-0.285	-0.305
-442.822	-72.530	-0.227	0.085
-441.807	136.371	-0.061	-0.081
-440.792	109.653	0.140	0.170
-439.778	-45.010	0.251	0.127
-438.763	-58.695	-0.190	-0.083
-437.749	92.871	0.195	-0.223
-436.734	-200.000	0.014	-0.354
-435.719	-185.105	-0.197	-0.003
-434.705	-179.712	-0.156	0.003
-433.690	-45.893	-0.281	0.141
-432.676	83.347	-0.114	-0.126
-431.661	-53.343	-0.080	0.037
-430.646	-112.996	0.416	-0.083
-429.632	240.673	0.044	0.074
-428.617	-94.460	0.083	0.023
-427.603	-108.529	-0.213	-0.046
-426.588	800.000	0.186	-0.576
-425.573	84.321	-0.159	-0.176
-424.559	-200.000	0.025	-0.137
-423.544	800.000	-0.070	0.248
-422.530	-141.849	-0.158	-0.016
-421.515	-105.154	0.223	-0.052
-420.500	-200.000	-0.048	-0.268
-419.486	25.569	-0.077	0.065
-418.471	-87.251	0.186	-0.057
-417.457	451.732	0.128	0.287
-416.442	211.686	0.022	0.036
-415.428	-129.193	0.187	-0.026
-414.413	-200.000	-0.022	0.139
-413.398	-1.371	0.088	-0.063
-412.384	-200.000	0.045	0.268
-411.369	800.000	-0.023	0.075
-410.355	451.299	-0.107	0.239
-409.340	228.895	0.080	-0.132
-408.325	-200.000	0.020	-0.097
-407.311	169.310	-0.148	-0.214
-406.296	71.628	0.187	0.197
-405.282	26.583	-0.084	-0.071
-404.267	-136.822	-0.135	0.016
-403.252	-5.454	0.075	-0.052
-402.238	-200.000	0.017	0.079
-401.223	-96.048	0.108	0.029
-400.209	-24.261	0.264	-0.159
-399.194	20.763	0.351	-0.288
-398.179	-84.035	0.200	0.064
-397.165	800.000	-0.024	0.072
-396.150	-125.381	-0.413	-0.064
-395.136	-45.650	-0.143	-0.072
-394.121	-173.354	-0.194	0.006
-393.106	-2.856	-0.122	0.086
-392.092	-162.523	0.158	0.008
-391.077	-200.000	0.006	0.109
-390.063	116.630	0.326	0.404
-389.048	-36.931	-0.309	-0.168
-388.033	-116.317	0.448	0.084
-387.019	50.155	-0.197	-0.188
-386.004	64.747	0.263	-0.268
-384.990	-62.900	-0.306	-0.128
-383.975	100.808	0.131	-0.154
-382.960	-75.258	0.242	-0.087
-381.946	50.301	-0.318	-0.304
-380.931	45.205	0.304	0.283
-379.917	-150.876	0.240	-0.018
-378.902	-48.600	0.171	-0.083
-377.888	-97.729	0.395	-0.103
-376.873	-45.453	-0.132	0.066
-375.858	-34.671	-0.486	0.269
-374.844	-193.509	-0.187	0.002
-373.829	-129.753	0.360	-0.050
-372.815	421.328	-0.122	0.264
-371.800	-49.069	-0.253	0.122
-370.785	-200.000	-0.017	-0.093
-369.771	365.776	-0.088	0.179
-368.756	-112.835	-0.215	-0.043
-367.742	288.722	0.115	0.211
-366.727	-156.654	-0.391	-0.024
-365.712	-20.356	0.326	-0.203
-364.698	336.298	-0.090	0.176
-363.683	-99.452	-0.169	-0.043
-362.669	44.034	0.091	-0.084
-361.654	-31.482	0.170	-0.096
-360.639	-132.500	-0.220	-0.029
-359.625	-152.626	0.214	0.015
-358.610	-89.906	0.276	-0.081
-357.596	800.000	0.052	0.168
-356.581	-200.000	-0.028	0.125
-355.566	-26.825	-0.221	-0.130
-354.552	21.800	-0.170	-0.140
-353.537	-200.000	0.008	-0.094
-352.523	-40.777	-0.268	0.140
-351.508	267.280	-0.080	0.142
-350.493	187.948	0.283	0.427
-349.479	-200.000	0.040	0.323
-348.464	150.063	-0.038	-0.051
-347.450	800.000	-0.082	0.236
-346.435	-103.405	0.377	0.090
-345.420	115.384	-0.074	0.091
-344.406	38.322	-0.261	-0.234
-343.391	-3.622	-0.144	0.101
-342.377	-64.632	0.243	-0.100
-341.362	74.682	0.188	0.200
-340.348	-200.000	0.079	0.353
-339.333	92.810	-0.212	0.242
-338.318	-200.000	0.003	-0.104
-337.304	159.127	0.275	0.385
-336.289	67.766	-0.088	-0.091
-335.275	208.731	-0.164	-0.259
-334.260	19.409	0.290	0.235
-333.245	-52.246	-0.212	-0.099
-332.231	8.026	0.246	-0.186
-331.216	-200.000	0.010	0.218
-330.202	628.653	-0.108	-0.275
-329.187	221.737	0.234	0.380
-328.172	-55.755	-0.137	0.062
-327.158	483.434	0.065	0.149
-326.143	-121.062	0.407	0.069
-325.129	17.633	-0.250	-0.200
-324.114	0.966	-0.437	0.316
-323.099	800.000	-0.023	0.069
-322.085	323.821	-0.166	-0.320
-321.070	-158.114	0.095	0.006
-320.056	-73.802	0.308	0.113
-319.041	123.770	0.151	0.190
-318.026	-96.820	0.206	0.054
-317.012	-200.000	-0.045	0.305
-315.997	-158.885	0.041	-0.002
-314.983	-200.000	0.034	0.413
-313.968	406.067	-0.070	0.149
-312.953	82.800	-0.151	0.166
-311.939	5.783	-0.203	0.151
-310.924	60.883	0.454	0.454
-309.910	75.342	0.022	-0.023
-308.895	-26.052	0.291	0.172
-307.880	-164.203	0.166	-0.008
-306.866	478.917	-0.160	0.364
-305.851	-200.000	-0.024	0.158
-304.837	630.687	-0.035	0.088
-303.822	700.600	0.152	0.403
-302.807	-114.627	-0.422	0.081
-301.793	-9.182	0.291	-0.196
-300.778	-32.714	-0.330	-0.185
-299.764	213.940	0.105	0.168
-298.749	-85.972	-0.311	0.097
-297.735	-132.063	-0.137	0.018
-296.720	-200.000	-0.016	-0.094
-295.705	208.961	-0.040	-0.063
-294.691	-48.407	-0.086	0.042
-293.676	-200.000	-0.020	0.185
-292.662	40.829	0.178	0.162
-291.647	146.812	-0.128	-0.173
-290.632	-200.000	-0.019	0.135
-289.618	38.099	0.084	-0.075
-288.603	699.271	0.050	0.133
-287.589	-200.000	-0.029	-0.154
-286.574	147.582	-0.133	0.181
-285.559	-133.665	0.057	-0.007
-284.545	-200.000	-0.044	-0.566
-283.530	223.208	-0.088	-0.143
-282.516	-113.418	-0.158	-0.031
-281.501	800.000	0.005	0.013
-280.486	-42.522	-0.084	0.043
-279.472	-123.678	0.278	-0.044
-278.457	131.496	-0.120	-0.156
-277.443	537.106	0.090	-0.216
-276.428	532.772	-0.101	-0.241
-275.413	75.409	0.089	0.095
-274.399	800.000	0.213	0.619
-273.384	-200.000	-0.016	-0.154
-272.370	-44.992	0.370	-0.186
-271.355	-81.741	0.217	0.071
-270.340	17.406	-0.165	0.132
-269.326	-200.000	0.009	-0.052
-268.311	22.365	0.142	0.117
-267.297	-148.026	-0.195	-0.016
-266.282	-200.000	-0.090	0.398
-265.267	-133.022	0.211	0.027
-264.253	646.304	0.093	0.240
-263.238	81.211	0.209	0.228
-262.224	609.998	0.061	0.154
-261.209	-54.083	-0.277	0.127
-260.195	252.983	0.098	0.169
-259.180	-108.692	0.177	0.038
-258.165	-200.000	-0.010	0.100
-257.151	64.362	0.084	0.085
-256.136	-200.000	0.041	-0.227
-255.122	-2.577	0.190	0.134
-254.107	-200.000	0.057	-0.261
-253.092	-108.860	0.302	-0.065
-252.078	-38.374	0.184	-0.098
-251.063	-26.803	0.195	0.114
-250.049	-200.000	0.042	-0.282
-249.034	136.929	-0.312	-0.410
-248.019	-147.089	0.247	0.021
-247.005	-117.391	-0.467	0.085
-245.990	-174.792	-0.262	0.007
-244.976	-104.106	0.242	0.057
-243.961	800.000	-0.081	-0.247
-242.946	29.524	-0.147	-0.125
-241.932	800.000	-0.078	-0.316
-240.917	91.280	0.184	-0.208
-239.903	-200.000	-0.003	-0.064
-238.888	40.355	0.248	-0.224
-237.873	-108.300	-0.307	-0.067
-236.859	-112.597	0.050	-0.010
-235.844	-198.014	-0.250	0.001
-234.830	800.000	0.103	-0.322
-233.815	-200.000	0.005	-0.077
-232.800	800.000	-0.093	-0.279
-231.786	342.446	0.014	0.028
-230.771	800.000	0.114	-0.354
-229.757	-200.000	-0.018	0.220
-228.742	-200.000	0.121	0.000
-227.727	-200.000	-0.017	-0.107
-226.713	-23.286	-0.155	-0.094
-225.698	-68.409	0.080	0.031
-224.684	-85.343	0.091	0.028
-223.669	-72.710	-0.107	-0.039
-222.655	-104.687	-0.347	-0.080
-221.640	15.146	0.238	0.187
-220.625	-187.381	0.187	0.003
-219.611	63.203	0.283	0.285
-218.596	-152.020	0.105	-0.008
-217.582	-41.454	-0.153	0.079
-216.567	-103.621	-0.130	-0.031
-215.552	650.962	0.083	0.215
-214.538	800.000	-0.073	-0.244
-213.523	-157.906	0.450	-0.027
-212.509	-5.156	-0.192	-0.133
-211.494	41.500	0.300	0.273
-210.479	-181.470	0.280	-0.005
-209.465	-111.648	-0.088	0.018
-208.450	53.913	-0.107	0.103
-207.436	8.924	-0.169	-0.128
-206.421	-56.138	-0.254	-0.113
-205.406	9.480	-0.055	-0.042
-204.392	-200.000	-0.013	0.218
-203.377	402.160	-0.030	-0.064
-202.363	-53.098	-0.085	-0.039
-201.348	-135.372	0.107	-0.013
-200.333	243.354	0.212	0.357
-199.319	-200.000	-0.015	-0.164
-198.304	-200.000	0.007	-0.104
-197.290	-200.000	-0.006	0.071
-196.275	33.538	-0.253	-0.220
-195.260	68.663	-0.088	-0.091
-194.246	800.000	0.139	0.388
-193.231	-26.305	0.019	-0.011
-192.217	51.551	0.031	0.029
-191.202	-141.441	0.337	0.034
-190.187	-169.344	-0.330	-0.012
-189.173	-200.000	-0.021	0.161
-188.158	233.147	-0.187	-0.308
-187.144	-42.421	0.257	-0.131
-186.129	800.000	-0.101	-0.424
-185.114	-200.000	-0.158	-0.000
-184.100	63.255	0.401	-0.403
-183.085	-46.962	-0.313	-0.153
-182.071	-98.702	-0.157	0.040
-181.056	-27.311	-0.259	-0.151
-180.042	-21.490	0.125	0.077
-179.027	-200.000	-0.017	0.097
-178.012	-200.000	0.018	0.253
-176.998	-4.243	-0.150	-0.104
-175.983	206.827	-0.130	-0.204
-174.969	-200.000	0.011	-0.188
-173.954	10.581	-0.232	0.177
-172.939	54.641	0.283	0.274
-171.925	-169.106	0.147	0.005
-170.910	-63.275	0.230	0.095
-169.896	-200.000	-0.015	0.251
-168.881	0.868	0.162	-0.116
-167.866	800.000	-0.077	0.319
-166.852	34.333	-0.225	-0.197
-165.837	-200.000	0.042	0.307
-164.823	440.071	0.054	-0.119
-163.808	47.747	-0.228	0.214
-162.793	31.778	0.045	0.039
-161.779	-169.506	-0.089	-0.003
-160.764	421.431	-0.068	0.146
-159.750	36.043	-0.073	0.065
-158.735	-72.123	-0.306	0.114
-157.720	-168.221	0.184	-0.007
-156.706	210.042	-0.056	0.088
-155.691	-44.652	0.079	-0.040
-154.677	91.956	0.272	-0.307
-153.662	44.831	0.077	-0.071
-152.647	259.390	-0.062	-0.108
-151.633	-73.301	0.184	-0.067
-150.618	-85.801	-0.054	0.017
-149.604	-86.933	0.261	-0.080
-148.589	264.478	-0.161	0.280
-147.574	-42.694	0.213	-0.109
-146.560	-5.633	-0.051	0.035
-145.545	-102.214	0.190	0.046
-144.531	-200.000	-0.019	0.311
-143.516	-83.497	-0.257	-0.082
-142.502	94.852	0.138	0.157
-141.487	-197.968	0.025	-0.000
-140.472	-200.000	0.016	-0.216
-139.458	-200.000	-0.032	-0.246
-138.443	-200.000	0.040	-0.196
-137.429	-200.000	-0.010	-0.102
-136.414	244.124	0.113	0.189
-135.399	-68.287	0.313	-0.122
-134.385	33.983	0.173	-0.151
-133.370	-167.778	0.158	0.006
-132.356	687.755	0.056	0.148
-131.341	10.247	0.330	0.252
-130.326	164.029	0.259	0.365
-129.312	3.662	0.142	-0.104
-128.297	-200.000	0.017	0.153
-127.283	-200.000	0.056	0.303
-126.268	211.655	-0.117	0.184
-125.253	144.531	0.088	0.118
-124.239	-200.000	-0.008	0.166
-123.224	-123.318	0.279	0.045
-122.210	55.342	-0.196	-0.190
-121.195	422.168	-0.134	0.288
-120.180	97.963	-0.121	0.140
-119.166	-102.603	-0.212	-0.051
-118.151	-32.105	0.103	-0.057
-117.137	19.736	-0.179	-0.144
-116.122	-56.254	0.215	-0.096
-115.107	-65.466	0.455	0.183
-114.093	78.917	-0.228	-0.244
-113.078	-0.464	-0.242	-0.172
-112.064	-200.000	0.013	-0.351
-111.049	-68.799	-0.111	-0.043
-110.034	746.816	-0.061	0.163
-109.020	208.665	0.133	0.207
-108.005	800.000	-0.025	-0.100
-106.991	-101.502	0.290	-0.071
-105.976	117.002	-0.268	0.330
-104.962	-200.000	0.001	-0.004
-103.947	98.633	0.175	0.201
-102.932	93.116	0.038	0.043
-101.918	83.802	0.376	0.410
-100.903	-200.000	-0.027	0.206
-99.889	13.723	0.014	0.011
-98.874	52.586	-0.198	0.189
-97.859	-45.914	0.116	0.057
-96.845	-63.754	0.221	-0.090
-95.830	631.342	0.056	-0.141
-94.816	-2.681	-0.094	-0.066
-93.801	42.965	0.122	-0.111
-92.786	-200.000	0.015	0.180
-91.772	756.327	-0.075	-0.203
-90.757	423.325	0.164	0.352
-89.743	725.784	0.070	-0.186
-88.728	800.000	0.133	-0.422
-87.713	-200.000	-0.070	0.503
-86.699	190.381	-0.149	-0.223
-85.684	361.014	0.135	-0.270
-84.670	-200.000	-0.017	-0.264
-83.655	169.586	-0.160	-0.228
-82.640	-92.252	0.221	0.062
-81.626	68.516	0.064	0.065
-80.611	464.914	-0.049	-0.111
-79.597	-200.000	0.003	0.061
-78.582	-46.516	0.071	-0.035
-77.567	-200.000	-0.037	0.415
-76.553	-200.000	0.000	-0.075
-75.538	15.128	0.135	0.105
-74.524	-170.253	0.143	-0.005
-73.509	-76.750	0.252	0.088
-72.494	800.000	-0.042	0.182
-71.480	-155.925	-0.091	-0.006
-70.465	-130.854	0.264	-0.035
-69.451	206.742	0.105	-0.164
-68.436	28.397	-0.210	-0.178
-67.422	473.178	-0.085	0.191
-66.407	-200.000	0.003	-0.221
-65.392	-13.487	0.266	-0.172
-64.378	-54.470	0.243	-0.110
-63.363	-124.362	0.136	-0.021
-62.349	-95.415	0.099	-0.027
-61.334	64.547	-0.950	-0.956
-60.319	-200.000	-0.013	0.316
-59.305	800.000	-0.275	-0.848
-58.290	196.507	0.454	0.690
-57.276	800.000	0.498	1.377
-56.261	-200.000	79.905	509.526
-55.246	549.263	1371.721	3280.641
-54.232	178.953	2609.758	3807.525
-53.217	113.130	2394.428	2897.354
-52.203	45.494	2129.506	1961.737
-51.188	40.663	2036.422	1831.473
-50.173	39.114	2016.090	1798.943
-49.159	51.331	2056.645	1948.203
-48.144	55.149	2076.732	2002.452
-47.130	41.701	2040.239	1844.199
-46.115	39.030	2029.352	1809.718
-45.100	38.865	2026.621	1805.690
-44.086	38.910	2024.093	1803.787
-43.071	38.866	2021.618	1801.099
-42.057	38.879	2019.556	1799.317
-41.042	38.921	2017.429	1797.728
-40.027	38.903	2015.195	1795.503
-39.013	38.908	2013.365	1793.853
-37.998	38.882	2012.356	1792.645
-36.984	38.988	2009.744	1791.213
-35.969	38.949	2007.424	1788.717
-34.954	38.959	2005.805	1787.292
-33.940	38.982	2004.359	1786.141
-32.925	38.986	2002.765	1784.690
-31.911	39.009	2001.342	1783.555
-30.896	39.015	1999.156	1781.594
-29.881	38.991	1997.938	1780.225
-28.867	38.986	1996.463	1778.794
-27.852	39.022	1994.713	1777.483
-26.838	39.064	1992.238	1775.587
-25.823	39.022	1990.538	1773.629
-24.809	39.024	1989.057	1772.253
-23.794	39.013	1987.055	1770.301
-22.779	38.937	1985.516	1768.175
-21.765	39.009	1982.904	1766.427
-20.750	38.939	1981.919	1764.850
-19.736	39.019	1979.891	1763.695
-18.721	38.959	1978.685	1762.006
-17.706	38.958	1977.031	1760.459
-16.692	38.946	1975.657	1759.058
-15.677	38.999	1974.043	1758.026
-14.663	39.040	1972.330	1756.796
-13.648	39.030	1970.935	1755.394
-12.633	39.051	1969.568	1754.293
-11.619	39.059	1968.325	1753.184
-10.604	39.072	1966.483	1751.594
-9.590	38.929	1965.571	1749.439
-8.575	39.014	1964.179	1748.885
-7.560	39.014	1962.600	1747.408
-6.546	38.965	1961.384	1745.824
-5.531	38.983	1959.986	1744.666
-4.517	38.966	1959.241	1743.785
-3.502	38.986	1957.114	1741.999
-2.487	39.008	1955.958	1741.095
-1.473	38.990	1955.527	1740.486
-0.458	39.130	1951.300	1737.893
0.556	37.901	1932.011	1714.376
1.571	33.958	1912.200	1662.251
2.586	29.586	1933.320	1641.699
3.600	28.003	1970.681	1658.919
4.615	27.099	1966.525	1647.084
5.629	21.060	1862.893	1508.109
6.644	10.679	1737.131	1322.050
7.659	5.481	1695.711	1249.008
8.673	5.053	1691.979	1242.736
9.688	4.981	1690.399	1240.895
10.702	4.915	1688.497	1238.866
11.717	4.871	1685.689	1236.347
12.731	5.471	1686.147	1241.338
13.746	12.166	1702.852	1307.018
14.761	19.383	1718.059	1376.384
15.775	19.733	1715.519	1377.008
16.790	17.816	1710.104	1357.304
17.804	16.676	1706.652	1345.391
18.819	15.670	1703.346	1334.687
19.834	15.046	1700.827	1327.649
20.848	14.695	1699.154	1323.436
21.863	14.396	1697.643	1319.776
22.877	14.139	1696.360	1316.629
23.892	14.006	1694.478	1314.002
24.907	13.869	1693.484	1312.031
25.921	13.788	1692.736	1310.692
26.936	13.874	1691.347	1310.185
27.950	13.892	1690.868	1309.834
28.965	13.986	1689.802	1309.636
29.980	13.912	1689.444	1308.664
30.994	14.028	1688.440	1308.680
32.009	14.050	1687.315	1307.863
33.023	14.204	1686.021	1307.958
34.038	14.135	1685.762	1307.101
35.053	14.147	1684.227	1305.890
36.067	14.065	1683.071	1304.230
37.082	14.064	1681.373	1302.794
38.096	14.033	1680.816	1302.000
39.111	14.083	1679.912	1301.582
40.126	14.124	1679.361	1301.358
41.140	14.116	1678.307	1300.366
42.155	13.918	1676.964	1297.660
43.169	13.841	1675.501	1295.815
44.184	13.860	1674.187	1294.830
45.199	13.830	1672.655	1293.298
46.213	13.806	1671.808	1292.339
47.228	13.784	1670.900	1291.357
48.242	13.924	1669.643	1291.359
49.257	14.037	1668.350	1291.119
50.271	14.028	1666.800	1289.738
51.286	14.016	1665.536	1288.549
52.301	14.035	1664.060	1287.446
53.315	14.006	1663.127	1286.381
54.330	14.004	1661.294	1284.831
55.344	13.867	1660.120	1282.755
56.359	13.920	1658.082	1281.475
57.374	13.954	1656.964	1280.761
58.388	13.957	1655.815	1279.783
59.403	13.790	1654.670	1277.494
60.417	13.781	1653.489	1276.402
61.432	13.741	1652.190	1274.979
62.447	13.752	1651.583	1274.483
63.461	13.743	1650.207	1273.238
64.476	13.754	1649.232	1272.460
65.490	13.678	1647.565	1270.478
66.505	13.757	1646.495	1270.148
67.520	13.660	1645.530	1268.544
68.534	13.808	1644.451	1268.735
69.549	13.794	1643.457	1267.749
70.563	13.802	1642.001	1266.573
71.578	13.682	1641.601	1265.239
72.593	13.753	1640.115	1264.522
73.607	13.689	1638.567	1262.730
74.622	13.560	1637.916	1261.137
75.636	13.670	1636.701	1260.927
76.651	13.585	1636.414	1259.946
77.666	13.627	1635.344	1259.327
78.680	13.653	1633.964	1258.350
79.695	13.681	1633.421	1258.038
80.709	13.643	1632.872	1257.210
81.724	13.765	1632.004	1257.356
82.739	13.782	1630.737	1256.401
83.753	13.779	1629.505	1255.316
84.768	13.905	1628.897	1255.689
85.782	14.012	1627.831	1255.560
86.797	13.997	1627.521	1255.098
87.812	13.930	1626.982	1254.067
88.826	14.023	1625.005	1253.134
89.841	13.864	1623.947	1251.014
90.855	14.031	1622.610	1251.129
91.870	13.982	1621.825	1250.044
92.884	13.943	1621.300	1249.236
93.899	13.991	1620.360	1248.760
94.914	14.039	1618.404	1247.504
95.928	14.100	1617.380	1247.058
96.943	14.191	1615.695	1246.329
97.957	14.045	1614.819	1244.451
98.972	14.066	1612.838	1242.975
99.987	14.059	1611.565	1241.828
101.001	14.116	1609.862	1240.834
102.016	14.010	1608.373	1238.788
103.030	14.025	1607.021	1237.743
104.045	14.006	1606.178	1236.844
105.060	13.999	1604.581	1235.453
106.074	14.013	1602.727	1234.020
107.089	13.904	1601.476	1232.139
108.103	13.806	1599.707	1229.945
109.118	13.755	1598.080	1228.204
110.133	13.708	1597.206	1227.079
111.147	13.782	1595.257	1226.019
112.162	13.838	1593.929	1225.304
113.176	13.840	1592.646	1224.221
114.191	13.863	1591.366	1223.303
115.206	13.832	1590.220	1222.083
116.220	13.849	1588.955	1221.126
117.235	13.859	1587.441	1219.928
118.249	13.865	1585.942	1218.713
119.264	13.760	1585.002	1217.113
120.279	13.805	1583.519	1216.198
121.293	13.742	1582.457	1214.811
122.308	13.800	1580.857	1213.905
123.322	13.761	1579.037	1212.115
124.337	13.702	1577.440	1210.346
125.352	13.763	1576.025	1209.597
126.366	13.725	1575.362	1208.710
127.381	13.643	1573.987	1206.951
128.395	13.730	1572.783	1206.551
129.410	13.804	1571.351	1205.881
130.424	13.770	1570.265	1204.699
131.439	13.813	1568.733	1203.725
132.454	13.752	1567.771	1202.438
133.468	13.935	1566.027	1202.320
134.483	13.865	1564.853	1200.808
135.497	13.950	1563.707	1200.432
136.512	13.823	1562.411	1198.415
137.527	13.922	1560.699	1197.710
138.541	13.900	1559.730	1196.706
139.556	13.936	1558.478	1195.894
140.570	13.836	1557.270	1194.142
141.585	13.940	1556.029	1193.832
142.600	14.057	1555.012	1193.791
143.614	14.148	1553.390	1193.092
144.629	14.210	1552.246	1192.549
145.643	14.140	1550.943	1190.944
146.658	14.214	1549.505	1190.262
147.673	14.154	1547.940	1188.528
148.687	14.071	1546.521	1186.740
149.702	14.098	1544.610	1185.363
150.716	14.094	1543.016	1184.008
151.731	14.067	1541.915	1182.863
152.746	13.924	1541.242	1181.224
153.760	14.065	1539.152	1180.519
154.775	14.137	1537.698	1179.810
155.789	14.022	1537.011	1178.365
156.804	14.199	1535.606	1178.433
157.819	14.229	1534.535	1177.724
158.833	14.151	1533.352	1176.161
159.848	14.204	1532.482	1175.765
160.862	14.257	1531.255	1175.089
161.877	14.305	1530.355	1174.637
162.892	14.223	1529.002	1172.914
163.906	14.090	1527.973	1171.087
164.921	14.025	1526.624	1169.486
165.935	14.070	1525.429	1168.785
166.950	14.126	1524.114	1168.068
167.964	14.155	1522.917	1167.252
168.979	14.126	1522.114	1166.331
169.994	14.225	1520.935	1166.016
171.008	14.186	1520.241	1165.109
172.023	14.174	1519.004	1163.973
173.037	14.250	1517.808	1163.485
174.052	14.214	1516.599	1162.204
175.067	14.301	1515.082	1161.546
176.081	14.401	1514.225	1161.481
177.096	14.276	1512.612	1159.270
178.110	14.114	1511.471	1157.168
179.125	14.187	1510.289	1156.671
180.140	14.219	1509.494	1156.180
181.154	14.309	1508.388	1155.856
182.169	14.396	1506.889	1155.208
183.183	14.216	1506.366	1153.460
184.198	14.397	1505.050	1153.603
185.213	14.512	1504.065	1153.538
186.227	14.503	1502.795	1152.399
187.242	14.511	1501.693	1151.508
188.256	14.445	1501.241	1150.602
189.271	14.642	1499.581	1150.587
190.286	14.514	1499.190	1149.307
191.300	14.520	1498.140	1148.441
192.315	14.326	1496.662	1145.871
193.329	14.227	1495.214	1143.980
194.344	14.228	1493.869	1142.855
195.359	14.177	1493.062	1141.788
196.373	14.255	1492.256	1141.603
197.388	14.357	1491.388	1141.540
198.402	14.422	1490.274	1141.034
199.417	14.586	1489.206	1141.234
200.432	14.761	1487.721	1141.188
201.446	14.728	1487.254	1140.504
202.461	14.725	1485.876	1139.325
203.475	14.811	1484.473	1138.740
204.490	14.707	1483.706	1137.337
205.504	14.853	1482.272	1137.136
206.519	14.731	1481.404	1135.537
207.534	14.615	1480.245	1133.764
208.548	14.625	1479.086	1132.839
209.563	14.654	1478.218	1132.269
210.577	14.670	1476.742	1131.147
211.592	14.705	1476.051	1130.758
212.607	14.655	1475.857	1130.168
213.621	14.749	1474.573	1129.720
214.636	14.863	1474.145	1130.066
215.650	14.820	1472.703	1128.569
216.665	14.735	1471.994	1127.351
217.680	14.852	1470.811	1127.135
218.694	14.894	1470.417	1127.016
219.709	14.942	1469.537	1126.566
220.723	14.902	1468.629	1125.505
221.738	15.014	1467.480	1125.275
222.753	14.934	1466.460	1123.858
223.767	14.825	1465.656	1122.411
224.782	14.874	1464.615	1121.840
225.796	14.863	1463.901	1121.120
226.811	15.001	1463.096	1121.330
227.826	15.052	1461.923	1120.675
228.840	14.980	1461.318	1119.625
229.855	14.913	1460.381	1118.365
230.869	15.029	1458.941	1117.939
231.884	15.008	1458.074	1117.034
232.899	14.985	1456.847	1115.838
233.913	15.015	1455.546	1114.946
234.928	14.933	1454.193	1113.266
235.942	14.953	1453.174	1112.518
236.957	14.830	1452.047	1110.743
237.972	14.849	1450.843	1109.844
238.986	14.914	1449.853	1109.422
240.001	14.986	1448.610	1108.847
241.015	14.996	1447.807	1108.202
242.030	15.014	1446.259	1107.040
243.045	15.036	1445.613	1106.593
244.059	15.038	1444.919	1105.976
245.074	15.070	1443.952	1105.350
246.088	15.117	1443.308	1105.068
247.103	15.109	1442.525	1104.323
248.117	15.145	1441.670	1103.802
249.132	15.228	1440.830	1103.611
250.147	15.322	1440.085	1103.562
251.161	15.372	1439.642	1103.455
252.176	15.475	1438.686	1103.298
253.190	15.528	1437.997	1103.019
254.205	15.494	1437.410	1102.253
255.220	15.582	1436.442	1101.988
256.234	15.588	1435.424	1101.149
257.249	15.569	1434.824	1100.468
258.263	15.658	1433.428	1099.884
259.278	15.600	1432.744	1098.882
260.293	15.509	1432.261	1097.819
261.307	15.621	1431.052	1097.524
262.322	15.617	1430.574	1097.036
263.336	15.649	1429.450	1096.284
264.351	15.752	1428.055	1095.789
265.366	15.769	1427.285	1095.209
266.380	15.730	1426.972	1094.621
267.395	15.731	1425.816	1093.641
268.409	15.688	1425.285	1092.863
269.424	15.730	1423.802	1091.901
270.439	15.665	1422.940	1090.717
271.453	15.715	1421.469	1089.817
272.468	15.707	1420.479	1088.909
273.482	15.674	1420.019	1088.249
274.497	15.669	1419.364	1087.620
275.512	15.714	1418.466	1087.127
276.526	15.632	1417.600	1085.838
277.541	15.732	1416.504	1085.548
278.555	15.723	1415.339	1084.500
279.570	15.802	1414.641	1084.379
280.585	15.776	1413.757	1083.436
281.599	15.801	1412.988	1082.913
282.614	15.972	1412.341	1083.417
283.628	15.887	1411.138	1081.853
284.643	15.870	1409.698	1080.544
285.657	15.735	1409.012	1079.061
286.672	15.803	1408.196	1078.772
287.687	15.874	1406.754	1078.029
288.701	15.899	1405.756	1077.331
289.716	15.851	1405.076	1076.404
290.730	15.919	1404.513	1076.315
291.745	15.850	1403.096	1074.694
292.760	16.002	1401.993	1074.723
293.774	16.034	1401.227	1074.242
294.789	16.052	1400.212	1073.487
295.803	16.060	1399.986	1073.267
296.818	16.096	1398.509	1072.272
297.833	16.082	1397.561	1071.361
298.847	16.021	1396.757	1070.261
299.862	16.020	1395.601	1069.273
300.876	16.080	1394.817	1068.961
301.891	15.967	1394.161	1067.644
302.906	16.101	1393.616	1067.984
303.920	16.122	1392.408	1067.096
304.935	16.193	1391.773	1066.964
305.949	16.210	1390.884	1066.294
306.964	16.368	1389.976	1066.500
307.979	16.365	1389.338	1065.897
308.993	16.265	1388.293	1064.374
310.008	16.300	1386.921	1063.443
311.022	16.296	1385.998	1062.621
312.037	16.401	1384.990	1062.410
313.052	16.434	1383.991	1061.757
314.066	16.353	1383.007	1060.401
315.081	16.374	1382.074	1059.722
316.095	16.220	1380.990	1057.835
317.110	16.187	1379.971	1056.752
318.125	16.224	1378.922	1056.087
319.139	16.175	1378.289	1055.202
320.154	16.292	1377.338	1055.111
321.168	16.321	1375.988	1054.168
322.183	16.335	1374.883	1053.316
323.197	16.257	1373.968	1052.036
324.212	16.440	1373.181	1052.480
325.227	16.335	1372.553	1051.247
326.241	16.348	1371.465	1050.406
327.256	16.411	1370.239	1049.763
328.270	16.421	1369.762	1049.369
329.285	16.426	1369.096	1048.794
330.300	16.408	1367.965	1047.726
331.314	16.331	1367.010	1046.426
332.329	16.302	1366.321	1045.623
333.343	16.414	1365.293	1045.438
334.358	16.418	1364.413	1044.694
335.373	16.494	1363.581	1044.438
336.387	16.456	1363.240	1043.850
337.402	16.523	1362.343	1043.481
338.416	16.536	1361.981	1043.192
339.431	16.525	1361.174	1042.416
340.446	16.578	1360.390	1042.048
341.460	16.677	1359.204	1041.655
342.475	16.703	1358.272	1041.011
343.489	16.706	1357.406	1040.273
344.504	16.726	1356.802	1039.842
345.519	16.863	1355.195	1039.360
346.533	16.887	1354.407	1038.807
347.548	16.889	1353.827	1038.287
348.562	16.966	1352.831	1037.902
349.577	16.947	1352.233	1037.231
350.592	16.925	1351.573	1036.499
351.606	16.907	1350.034	1035.119
352.621	16.740	1349.182	1033.356
353.635	16.683	1348.066	1032.063
354.650	16.694	1347.183	1031.362
355.665	16.774	1346.137	1030.953
356.679	16.831	1344.958	1030.310
357.694	16.836	1344.076	1029.571
358.708	16.869	1342.840	1028.732
359.723	16.926	1341.769	1028.166
360.738	16.887	1340.968	1027.227
361.752	16.948	1340.367	1027.043
362.767	16.954	1338.958	1025.911
363.781	16.906	1337.957	1024.763
364.796	16.927	1337.670	1024.577
365.810	16.900	1336.901	1023.736
366.825	16.980	1336.512	1023.832
367.840	17.189	1335.256	1024.039
368.854	17.153	1334.812	1023.391
369.869	17.117	1334.458	1022.812
370.883	17.322	1333.269	1023.043
371.898	17.160	1332.630	1021.486
372.913	17.157	1331.638	1020.621
373.927	17.129	1330.738	1019.669
374.942	17.190	1329.779	1019.209
375.956	17.278	1329.484	1019.423
376.971	17.302	1328.366	1018.621
377.986	17.285	1327.453	1017.726
379.000	17.282	1326.839	1017.147
380.015	17.229	1326.016	1016.110
381.029	17.276	1325.587	1015.972
382.044	17.314	1324.828	1015.531
383.059	17.373	1324.257	1015.355
384.073	17.354	1323.624	1014.666
385.088	17.405	1322.400	1013.938
386.102	17.455	1321.833	1013.716
387.117	17.501	1321.158	1013.380
388.132	17.428	1320.345	1012.231
389.146	17.413	1319.414	1011.343
390.161	17.384	1318.589	1010.446
391.175	17.412	1318.286	1010.289
392.190	17.387	1317.198	1009.219
393.205	17.360	1316.584	1008.501
394.219	17.423	1315.153	1007.685
395.234	17.551	1313.761	1007.288
396.248	17.568	1312.615	1006.423
397.263	17.412	1311.122	1004.264
398.278	17.373	1309.865	1002.985
399.292	17.470	1309.047	1002.840
400.307	17.368	1308.097	1001.424
401.321	17.434	1306.620	1000.591
402.336	17.373	1305.982	999.658
403.350	17.370	1305.011	998.808
404.365	17.445	1304.044	998.421
405.380	17.498	1302.979	997.828
406.394	17.505	1302.049	997.069
407.409	17.454	1301.742	996.444
408.423	17.566	1300.626	996.157
409.438	17.600	1300.333	996.044
410.453	17.531	1299.524	994.935
411.467	17.779	1298.603	995.591
412.482	17.881	1298.325	995.884
413.496	17.836	1297.569	994.953
414.511	17.832	1296.594	994.092
415.526	17.914	1296.007	994.033
416.540	17.913	1295.470	993.529
417.555	17.928	1294.586	992.848
418.569	18.001	1293.812	992.588
419.584	17.937	1293.401	991.817
420.599	17.992	1292.591	991.428
421.613	131.136	1424.124	1759.805
422.628	126.832	1443.266	1759.903
