DTS Sentinel unit serial number:	SN413079Multiplexer serial number:	ORYXHardware model number:	OX4-SRSoftware version number:	ORYX F/W v4.00 Oryx Data Collector v3.7.2.0data status	okinstallation	princeton_trtdifferential loss correction	single-endedforward channel	channel 4reverse channel	N/Adate	2019/09/14time	15:49:35forward acquisition time	60.00reverse acquisition time	0.00gamma	496.2192k internal	0.2292k external	0.2292temperature offset calibration	1.0135default loss term (dB/km)	0.3790temperature slope calibration	1.0000multiplexer offset coefficient	1.0000multiplexer slope coefficient	1.0000fibre end	0.00T internal ref (°C)	38.75T ext. ref 1 (°C)	5.11T ext. ref 2 (°C)	33.92length (m)	temperature (°C)	Stokes	anti-Stokes-747.200	-200.000	-0.027	-0.186
-746.185	-132.354	-0.113	0.015
-745.171	-3.013	0.007	0.005
-744.156	-15.024	-0.144	0.095
-743.142	-122.914	0.253	-0.042
-742.127	-71.659	0.137	-0.052
-741.112	1.899	0.023	-0.017
-740.098	259.895	-0.192	0.339
-739.083	800.000	-0.051	0.163
-738.069	-45.682	0.091	0.046
-737.054	800.000	-0.035	-0.117
-736.039	-200.000	0.027	-0.223
-735.025	72.430	0.040	-0.043
-734.010	13.705	-0.233	-0.186
-732.996	-75.304	0.257	0.094
-731.981	711.675	-0.118	-0.321
-730.966	-44.521	0.223	0.114
-729.952	-53.983	-0.190	0.088
-728.937	-10.087	-0.138	0.094
-727.923	-95.216	-0.177	-0.049
-726.908	-63.009	-0.430	-0.182
-725.894	-200.000	-0.001	-0.165
-724.879	-25.517	-0.065	0.040
-723.864	-26.583	0.140	0.084
-722.850	-114.117	-0.273	0.054
-721.835	-200.000	0.050	-0.376
-720.821	107.537	-0.092	0.112
-719.806	298.504	0.114	-0.214
-718.791	342.895	0.125	-0.250
-717.777	232.544	-0.110	-0.185
-716.762	602.031	-0.138	0.350
-715.748	-52.472	-0.034	-0.016
-714.733	-167.779	0.143	-0.006
-713.718	1.134	-0.180	0.132
-712.704	37.710	-0.188	0.170
-711.689	55.107	0.049	-0.049
-710.675	-200.000	0.050	-0.342
-709.660	-103.441	-0.290	-0.070
-708.645	-39.541	0.327	-0.175
-707.631	291.450	-0.142	-0.264
-706.616	237.036	0.062	0.105
-705.602	-138.220	0.391	0.044
-704.587	-161.336	-0.154	-0.008
-703.572	-170.564	-0.182	0.006
-702.558	-126.594	-0.036	0.005
-701.543	-200.000	0.052	0.277
-700.529	800.000	-0.044	-0.139
-699.514	626.176	-0.053	-0.136
-698.499	-15.115	-0.162	-0.106
-697.485	171.893	0.073	0.107
-696.470	-200.000	0.059	-0.391
-695.456	-38.963	0.265	-0.143
-694.441	125.732	0.020	-0.026
-693.426	800.000	-0.061	0.229
-692.412	-200.000	-0.040	0.398
-691.397	-200.000	-0.051	-0.317
-690.383	-200.000	-0.002	0.076
-689.368	-200.000	0.034	0.370
-688.354	48.085	0.197	0.189
-687.339	570.742	-0.062	0.155
-686.324	800.000	0.010	0.038
-685.310	-115.309	-0.059	-0.011
-684.295	234.316	0.129	0.217
-683.281	800.000	-0.076	-0.302
-682.266	-200.000	-0.027	0.150
-681.251	-149.293	-0.210	-0.017
-680.237	436.329	-0.111	-0.247
-679.222	102.382	-0.233	-0.278
-678.208	800.000	-0.050	-0.164
-677.193	1.986	-0.234	-0.172
-676.178	-200.000	-0.039	-0.237
-675.164	194.543	0.121	0.187
-674.149	49.772	-0.164	0.157
-673.135	-64.324	-0.139	-0.058
-672.120	250.951	-0.045	-0.077
-671.105	-79.300	0.040	0.014
-670.091	-200.000	-0.019	-0.102
-669.076	-200.000	-0.047	-0.333
-668.062	20.921	0.159	-0.131
-667.047	-8.576	-0.455	-0.312
-666.032	-135.356	-0.115	-0.014
-665.018	-83.043	0.341	0.112
-664.003	-200.000	-0.007	0.086
-662.989	-200.000	-0.018	-0.239
-661.974	264.062	-0.124	0.221
-660.959	800.000	-0.066	-0.254
-659.945	-7.755	-0.144	-0.099
-658.930	-37.138	-0.151	0.082
-657.916	67.856	0.244	-0.255
-656.901	2.000	-0.160	-0.118
-655.886	150.894	0.098	-0.137
-654.872	800.000	-0.066	-0.219
-653.857	71.061	-0.096	-0.102
-652.843	-69.825	-0.123	0.048
-651.828	-102.500	0.253	0.062
-650.814	-62.458	0.133	0.056
-649.799	-200.000	0.020	-0.166
-648.784	10.146	0.436	0.338
-647.770	-200.000	0.031	0.234
-646.755	41.239	-0.146	-0.134
-645.741	-63.535	-0.213	0.089
-644.726	119.573	0.149	0.189
-643.711	-46.014	-0.374	-0.188
-642.697	77.922	0.116	0.126
-641.682	-112.402	-0.283	0.058
-640.668	-200.000	-0.030	0.193
-639.653	-46.069	0.292	-0.146
-638.638	-128.838	0.263	0.038
-637.624	800.000	-0.056	0.166
-636.609	-126.710	0.493	0.074
-635.595	20.044	-0.261	0.214
-634.580	-144.168	0.144	-0.014
-633.565	-136.579	0.256	-0.030
-632.551	415.926	-0.171	-0.371
-631.536	18.478	-0.245	0.200
-630.522	60.164	-0.198	-0.199
-629.507	17.187	-0.210	0.170
-628.492	34.487	-0.177	0.158
-627.478	-70.150	-0.148	0.057
-626.463	474.866	-0.036	0.083
-625.449	-160.522	-0.275	0.015
-624.434	168.278	-0.029	-0.042
-623.419	-134.332	-0.084	-0.011
-622.405	37.739	-0.204	-0.184
-621.390	-200.000	0.037	0.193
-620.376	-13.887	-0.203	-0.134
-619.361	-200.000	-0.004	0.222
-618.346	-200.000	0.012	0.199
-617.332	106.226	-0.177	-0.214
-616.317	-70.599	0.123	-0.047
-615.303	-32.237	-0.271	0.154
-614.288	-101.958	-0.075	0.018
-613.273	-68.502	-0.318	0.126
-612.259	-200.000	-0.046	-0.230
-611.244	-86.300	-0.141	0.044
-610.230	800.000	0.057	-0.186
-609.215	59.463	0.077	0.077
-608.201	-25.195	0.108	-0.065
-607.186	800.000	-0.062	-0.198
-606.171	12.720	0.275	-0.216
-605.157	-29.168	0.135	0.079
-604.142	-42.833	0.256	0.132
-603.128	-61.522	0.153	-0.065
-602.113	-200.000	-0.011	-0.136
-601.098	-200.000	0.034	0.181
-600.084	13.014	0.280	0.220
-599.069	719.342	-0.101	-0.274
-598.055	355.458	-0.087	0.175
-597.040	168.953	-0.096	0.139
-596.025	166.176	-0.148	0.213
-595.011	-54.536	0.113	-0.052
-593.996	173.781	0.071	-0.104
-592.982	800.000	-0.067	-0.293
-591.967	-200.000	0.031	0.147
-590.952	-47.016	0.252	-0.125
-589.938	18.579	-0.274	-0.223
-588.923	-81.902	0.132	0.044
-587.909	-99.581	0.157	0.040
-586.894	1.299	-0.085	0.062
-585.879	-200.000	-0.039	-0.332
-584.865	-200.000	-0.002	0.235
-583.850	800.000	0.063	-0.181
-582.836	-200.000	0.004	-0.120
-581.821	-82.626	-0.168	-0.055
-580.806	126.217	-0.122	-0.157
-579.792	-200.000	0.008	0.216
-578.777	-200.000	0.018	-0.212
-577.763	-54.297	0.173	-0.080
-576.748	-180.896	-0.252	0.005
-575.733	309.923	0.139	-0.264
-574.719	289.786	-0.062	-0.114
-573.704	-50.461	-0.178	0.085
-572.690	34.175	0.236	-0.209
-571.675	-101.662	-0.350	0.086
-570.661	-13.631	-0.344	-0.226
-569.646	800.000	0.049	0.158
-568.631	-148.800	-0.220	0.018
-567.617	-109.683	-0.259	0.055
-566.602	0.962	-0.034	-0.025
-565.588	138.469	0.177	0.236
-564.573	-200.000	-0.005	0.103
-563.558	401.913	-0.066	0.142
-562.544	91.331	0.058	0.066
-561.529	204.807	0.050	-0.078
-560.515	149.534	0.074	-0.102
-559.500	-5.686	0.037	-0.026
-558.485	-72.300	0.174	-0.066
-557.471	-161.522	-0.143	-0.007
-556.456	-143.179	-0.358	-0.035
-555.442	-200.000	-0.039	0.179
-554.427	-91.715	0.280	-0.081
-553.412	-200.000	0.028	-0.369
-552.398	800.000	-0.091	-0.327
-551.383	-153.804	-0.267	-0.019
-550.369	-112.754	0.252	-0.051
-549.354	800.000	0.109	-0.400
-548.339	800.000	-0.011	0.045
-547.325	800.000	0.073	0.286
-546.310	82.923	0.106	-0.117
-545.296	-42.995	0.221	0.114
-544.281	-154.021	0.178	-0.012
-543.266	-110.543	-0.383	0.081
-542.252	800.000	0.076	0.226
-541.237	16.114	0.030	0.024
-540.223	-200.000	0.064	-0.592
-539.208	55.831	0.153	0.150
-538.193	769.942	-0.133	-0.368
-537.179	800.000	-0.040	-0.118
-536.164	-1.848	-0.152	-0.109
-535.150	-109.143	0.258	0.056
-534.135	-168.567	-0.257	0.010
-533.121	62.397	-0.423	-0.429
-532.106	103.040	0.123	-0.146
-531.091	185.894	0.120	0.181
-530.077	-47.666	0.287	0.141
-529.062	-17.346	0.300	-0.191
-528.048	-93.802	-0.292	0.082
-527.033	800.000	0.054	0.235
-526.018	-36.464	-0.145	0.079
-525.004	1.377	-0.078	-0.057
-523.989	-200.000	0.005	0.127
-522.975	-200.000	0.021	0.350
-521.960	800.000	0.076	0.223
-520.945	10.210	-0.147	-0.113
-519.931	-73.992	0.235	0.086
-518.916	800.000	0.082	0.268
-517.902	-52.590	0.054	-0.026
-516.887	800.000	-0.036	0.138
-515.872	-200.000	0.007	-0.116
-514.858	-200.000	0.009	0.151
-513.843	-117.771	-0.153	0.028
-512.829	-200.000	-0.004	-0.116
-511.814	-200.000	-0.001	0.071
-510.799	2.293	-0.135	0.099
-509.785	38.310	0.212	-0.191
-508.770	-187.910	-0.096	0.001
-507.756	285.493	0.051	-0.093
-506.741	-40.114	-0.211	0.111
-505.726	136.060	0.015	0.020
-504.712	482.492	0.068	-0.157
-503.697	73.541	0.249	-0.265
-502.683	684.960	-0.124	-0.329
-501.668	-180.765	0.273	-0.006
-500.653	-77.532	0.535	-0.188
-499.639	40.343	-0.265	-0.242
-498.624	48.968	-0.181	0.172
-497.610	108.012	0.295	0.356
-496.595	125.367	-0.095	-0.122
-495.581	-200.000	0.037	0.251
-494.566	530.805	0.078	-0.187
-493.551	-200.000	0.059	0.332
-492.537	-200.000	0.008	0.134
-491.522	47.405	0.099	-0.093
-490.508	20.615	0.180	0.147
-489.493	-12.915	0.339	0.224
-488.478	295.214	0.069	0.128
-487.464	-100.287	0.280	-0.071
-486.449	774.295	-0.054	0.149
-485.435	48.749	-0.140	0.133
-484.420	-18.542	0.176	-0.111
-483.405	8.761	0.204	-0.156
-482.391	-91.770	0.204	0.059
-481.376	-42.092	-0.078	-0.040
-480.362	800.000	0.044	-0.163
-479.347	173.964	0.155	0.227
-478.332	-7.288	-0.226	0.155
-477.318	-51.818	-0.070	-0.033
-476.303	-128.471	-0.237	0.034
-475.289	800.000	-0.041	-0.173
-474.274	8.346	0.191	0.145
-473.259	23.538	-0.026	-0.021
-472.245	800.000	0.043	0.140
-471.230	-200.000	0.003	0.033
-470.216	800.000	-0.064	0.192
-469.201	800.000	-0.048	0.171
-468.186	-60.080	-0.286	-0.123
-467.172	450.198	0.061	-0.135
-466.157	800.000	-0.025	0.096
-465.143	259.104	0.047	-0.082
-464.128	800.000	-0.038	-0.135
-463.113	-200.000	0.011	0.170
-462.099	156.924	-0.091	-0.128
-461.084	492.595	0.066	-0.153
-460.070	-19.964	0.241	0.151
-459.055	88.535	-0.113	-0.127
-458.040	289.629	0.232	0.427
-457.026	-127.961	0.268	-0.039
-456.011	-200.000	-0.020	0.178
-454.997	-92.733	-0.139	-0.039
-453.982	-200.000	-0.026	0.417
-452.968	-200.000	-0.045	0.312
-451.953	188.811	-0.121	-0.183
-450.938	-104.010	0.128	-0.030
-449.924	569.719	0.190	0.467
-448.909	-48.807	-0.218	0.106
-447.895	444.782	-0.082	-0.181
-446.880	800.000	0.073	-0.212
-445.865	800.000	0.157	-0.470
-444.851	109.888	-0.135	0.164
-443.836	760.045	0.023	0.063
-442.822	-200.000	-0.012	-0.251
-441.807	-37.022	-0.107	0.058
-440.792	-0.162	0.480	-0.345
-439.778	-128.630	-0.259	-0.037
-438.763	-82.950	-0.456	-0.149
-437.749	-60.508	0.081	0.035
-436.734	-10.638	0.151	-0.101
-435.719	-63.246	0.045	-0.019
-434.705	-200.000	0.013	0.133
-433.690	68.033	0.299	-0.309
-432.676	800.000	0.021	-0.071
-431.661	-19.139	-0.094	-0.059
-430.646	-200.000	-0.000	-0.203
-429.632	212.395	0.062	-0.098
-428.617	-200.000	0.040	-0.312
-427.603	-77.234	-0.048	0.017
-426.588	800.000	-0.126	-0.417
-425.573	86.568	-0.231	-0.258
-424.559	244.227	0.132	0.225
-423.544	190.355	0.079	0.119
-422.530	-135.434	-0.272	0.033
-421.515	-200.000	-0.010	-0.161
-420.500	89.770	-0.120	-0.136
-419.486	191.052	0.016	-0.024
-418.471	-6.409	0.273	-0.188
-417.457	-84.374	-0.223	-0.071
-416.442	-79.554	0.270	-0.092
-415.428	293.282	-0.076	-0.141
-414.413	-170.449	0.025	-0.001
-413.398	-200.000	-0.019	0.133
-412.384	-172.522	-0.329	0.011
-411.369	-64.555	-0.209	0.086
-410.355	-171.595	-0.164	0.005
-409.340	-156.451	0.133	-0.008
-408.325	-200.000	0.007	0.036
-407.311	266.078	0.006	0.011
-406.296	800.000	0.191	0.586
-405.282	-200.000	0.008	-0.049
-404.267	12.189	0.211	-0.164
-403.252	26.596	0.131	0.111
-402.238	-76.903	0.062	0.022
-401.223	-74.238	0.081	-0.029
-400.209	-44.065	-0.371	0.188
-399.194	-200.000	0.007	0.040
-398.179	300.010	0.092	0.172
-397.165	245.531	0.061	-0.104
-396.150	139.049	-0.245	-0.325
-395.136	-40.685	0.091	0.047
-394.121	-69.811	0.067	-0.026
-393.106	-200.000	0.166	-0.000
-392.092	579.855	0.141	0.350
-391.077	-200.000	0.016	0.289
-390.063	76.938	-0.056	0.060
-389.048	195.683	0.152	0.234
-388.033	-48.678	-0.352	-0.171
-387.019	-200.000	0.013	-0.105
-386.004	582.499	-0.129	-0.319
-384.990	-38.527	-0.409	0.218
-383.975	39.639	0.144	-0.130
-382.960	385.633	0.151	0.314
-381.946	800.000	0.048	-0.155
-380.931	169.989	-0.071	-0.102
-379.917	-50.925	-0.119	-0.056
-378.902	177.633	-0.079	-0.116
-377.888	800.000	-0.096	-0.358
-376.873	98.809	-0.191	-0.223
-375.858	132.500	0.159	0.207
-374.844	-34.051	0.162	-0.090
-373.829	85.005	0.057	-0.063
-372.815	141.753	-0.100	-0.133
-371.800	-200.000	0.008	-0.195
-370.785	511.331	0.067	0.156
-369.771	-109.474	-0.380	0.081
-368.756	104.239	-0.355	0.421
-367.742	-200.000	0.044	0.320
-366.727	-10.832	-0.090	0.060
-365.712	-200.000	-0.064	0.286
-364.698	-7.399	-0.254	-0.174
-363.683	-156.615	0.114	0.007
-362.669	75.931	0.297	0.317
-361.654	-200.000	0.008	0.078
-360.639	-200.000	0.017	0.203
-359.625	-57.864	0.235	0.104
-358.610	32.325	0.088	-0.077
-357.596	792.005	-0.037	-0.104
-356.581	96.605	-0.242	-0.279
-355.566	-200.000	-0.044	0.400
-354.552	309.211	-0.133	-0.251
-353.537	-57.993	0.124	-0.054
-352.523	32.719	-0.222	0.194
-351.508	141.594	0.167	0.223
-350.493	33.227	0.178	-0.156
-349.479	-155.395	-0.098	0.006
-348.464	-17.387	0.268	-0.170
-347.450	447.374	0.116	0.258
-346.435	-19.133	0.075	-0.047
-345.420	66.958	-0.174	0.179
-344.406	-200.000	-0.004	0.256
-343.391	389.005	0.095	-0.199
-342.377	-200.000	-0.012	-0.289
-341.362	-117.617	0.447	0.081
-340.348	-200.000	0.001	0.059
-339.333	-9.994	0.093	-0.062
-338.318	-200.000	0.001	0.010
-337.304	-200.000	0.036	0.183
-336.289	800.000	-0.076	-0.296
-335.275	129.571	-0.108	0.139
-334.260	-101.428	-0.388	-0.095
-333.245	-72.699	-0.110	-0.041
-332.231	-173.943	0.307	0.009
-331.216	-172.999	0.081	0.003
-330.202	-200.000	0.056	0.326
-329.187	-200.000	-0.025	0.402
-328.172	-115.995	-0.274	0.051
-327.158	-155.759	-0.080	0.005
-326.143	800.000	-0.097	0.354
-325.129	-200.000	0.017	0.287
-324.114	28.030	-0.057	0.048
-323.099	-200.000	0.003	-0.166
-322.085	59.194	-0.082	0.082
-321.070	-9.229	-0.095	0.064
-320.056	800.000	-0.054	-0.163
-319.041	116.298	0.191	0.236
-318.026	129.329	-0.047	-0.060
-317.012	253.698	0.056	0.097
-315.997	783.002	0.026	-0.073
-314.983	-43.711	-0.052	0.026
-313.968	528.571	0.137	-0.324
-312.953	-192.373	0.220	-0.002
-311.939	797.791	0.017	-0.046
-310.924	-59.557	-0.174	-0.075
-309.910	-200.000	-0.036	-0.247
-308.895	-3.953	0.207	0.144
-307.880	-200.000	0.030	0.212
-306.866	-76.570	-0.164	0.058
-305.851	63.365	-0.281	0.284
-304.837	-200.000	0.090	0.515
-303.822	-200.000	0.000	0.007
-302.807	-200.000	0.013	-0.093
-301.793	39.703	-0.026	0.023
-300.778	39.171	-0.195	-0.176
-299.764	-96.524	0.157	0.042
-298.749	800.000	0.082	-0.295
-297.735	-200.000	0.017	-0.284
-296.720	408.888	0.134	0.286
-295.705	800.000	-0.090	0.253
-294.691	45.575	0.209	0.194
-293.676	-200.000	0.041	-0.395
-292.662	169.498	0.150	-0.216
-291.647	-133.336	0.336	-0.043
-290.632	6.263	0.201	0.150
-289.618	-133.404	0.187	0.024
-288.603	81.101	0.099	-0.107
-287.589	133.114	-0.235	-0.305
-286.574	-164.241	0.150	0.007
-285.559	-68.708	-0.407	0.158
-284.545	179.070	-0.205	-0.302
-283.530	-200.000	-0.036	0.299
-282.516	-200.000	-0.016	0.173
-281.501	-15.533	0.249	0.160
-280.486	-88.219	-0.316	-0.095
-279.472	800.000	0.084	-0.332
-278.457	-11.139	-0.294	-0.195
-277.443	-140.001	0.290	-0.031
-276.428	-159.894	-0.148	0.008
-275.413	-38.647	0.200	0.106
-274.399	-200.000	-0.037	-0.178
-273.384	-55.864	-0.116	0.052
-272.370	-110.318	-0.249	0.052
-271.355	-200.000	0.023	0.126
-270.340	12.506	0.204	0.158
-269.326	692.213	-0.086	0.227
-268.311	-88.984	-0.119	0.035
-267.297	-44.682	-0.118	0.059
-266.282	83.048	-0.456	0.499
-265.267	-200.000	0.024	0.142
-264.253	-28.765	-0.228	0.132
-263.238	-55.741	-0.308	-0.138
-262.224	101.600	0.208	0.244
-261.209	-51.151	0.166	-0.078
-260.195	-200.000	-0.062	-0.587
-259.180	-200.000	-0.070	0.307
-258.165	800.000	0.093	-0.286
-257.151	-200.000	0.023	-0.312
-256.136	-53.297	0.079	-0.036
-255.122	675.657	-0.025	0.066
-254.107	3.413	-0.079	0.058
-253.092	65.374	0.338	-0.343
-252.078	-58.440	0.044	-0.019
-251.063	363.277	0.107	-0.216
-250.049	-200.000	-0.069	-0.304
-249.034	-71.284	0.204	0.077
-248.019	-154.872	0.215	0.014
-247.005	800.000	0.078	-0.279
-245.990	-200.000	0.003	0.555
-244.976	-97.140	0.182	0.048
-243.961	242.317	0.179	0.301
-242.946	800.000	0.060	-0.239
-241.932	57.943	-0.168	0.165
-240.917	186.301	-0.179	0.268
-239.903	-21.038	-0.222	0.137
-238.888	81.817	0.089	0.097
-237.873	-73.056	0.068	0.025
-236.859	410.923	0.145	0.308
-235.844	-200.000	-0.003	-0.167
-234.830	-38.443	0.102	0.054
-233.815	749.523	-0.064	0.173
-232.800	-107.317	0.076	-0.017
-231.786	31.553	-0.130	-0.112
-230.771	50.917	0.174	0.166
-229.757	32.987	0.082	0.071
-228.742	4.737	-0.303	-0.223
-227.727	-200.000	-0.008	-0.159
-226.713	-86.629	-0.117	0.036
-225.698	-200.000	-0.012	-0.191
-224.684	-38.932	-0.078	-0.041
-223.669	-127.956	0.294	-0.042
-222.655	-200.000	0.024	-0.214
-221.640	-105.958	-0.274	0.062
-220.625	-126.833	-0.193	-0.029
-219.611	179.018	-0.045	0.067
-218.596	-113.491	0.277	-0.054
-217.582	-188.153	0.034	0.000
-216.567	189.721	-0.091	-0.136
-215.552	-200.000	-0.041	0.193
-214.538	500.008	-0.083	-0.192
-213.523	23.088	0.203	-0.167
-212.509	29.862	-0.250	-0.213
-211.494	143.640	0.131	-0.175
-210.479	-60.506	0.230	0.098
-209.465	-39.132	-0.201	-0.106
-208.450	-200.000	0.023	-0.221
-207.436	-200.000	-0.052	0.243
-206.421	28.798	-0.349	0.297
-205.406	-124.093	-0.285	-0.045
-204.392	-171.950	-0.039	-0.001
-203.377	-111.383	0.374	0.076
-202.363	-200.000	-0.055	-0.309
-201.348	-97.046	-0.090	0.024
-200.333	-43.030	0.031	-0.016
-199.319	-83.650	-0.164	0.052
-198.304	-200.000	-0.057	-0.414
-197.290	-120.872	0.221	0.037
-196.275	84.919	0.021	0.023
-195.260	-117.073	-0.125	0.023
-194.246	127.067	0.108	0.137
-193.231	-65.741	0.189	0.076
-192.217	-118.219	-0.387	0.069
-191.202	70.669	0.032	-0.033
-190.187	214.438	-0.178	-0.282
-189.173	81.736	0.099	-0.107
-188.158	800.000	0.058	-0.214
-187.144	-144.812	0.394	0.036
-186.129	444.619	-0.119	0.261
-185.114	109.405	-0.016	0.020
-184.100	432.093	-0.100	0.218
-183.085	-74.837	0.101	-0.036
-182.071	27.804	-0.203	0.171
-181.056	63.196	0.482	0.484
-180.042	-16.589	0.230	0.146
-179.027	-129.177	0.186	0.026
-178.012	53.437	0.108	-0.103
-176.998	800.000	0.095	0.350
-175.983	-58.140	0.054	-0.024
-174.969	755.951	-0.092	-0.250
-173.954	159.108	0.151	0.211
-172.939	800.000	-0.095	-0.318
-171.925	-200.000	0.071	-0.315
-170.910	41.712	-0.154	-0.140
-169.896	-200.000	0.025	-0.161
-168.881	800.000	0.095	-0.294
-167.866	53.811	0.260	-0.250
-166.852	95.722	-0.156	-0.178
-165.837	-200.000	-0.007	-0.242
-164.823	-200.000	-0.001	0.091
-163.808	105.536	0.177	0.209
-162.793	-200.000	-0.002	-0.089
-161.779	-159.717	-0.063	-0.003
-160.764	-200.000	0.008	-0.198
-159.750	-55.119	-0.212	0.095
-158.735	-89.193	-0.336	-0.099
-157.720	-4.170	-0.378	0.262
-156.706	-137.884	0.166	-0.019
-155.691	-200.000	-0.026	0.148
-154.677	47.218	0.153	-0.143
-153.662	-51.016	0.093	0.044
-152.647	-158.434	-0.082	-0.005
-151.633	-44.203	0.202	-0.101
-150.618	-177.261	0.359	0.009
-149.604	-30.124	-0.042	-0.024
-148.589	-200.000	-0.012	-0.202
-147.574	-200.000	-0.010	0.108
-146.560	-66.114	-0.500	-0.200
-145.545	92.134	0.243	0.274
-144.531	54.746	0.331	0.319
-143.516	-200.000	-0.017	-0.325
-142.502	800.000	0.071	0.288
-141.487	-1.326	0.143	-0.101
-140.472	278.483	0.110	0.196
-139.458	645.889	0.082	0.210
-138.443	16.454	-0.114	0.090
-137.429	289.506	0.185	0.336
-136.414	208.719	-0.083	0.130
-135.399	800.000	0.047	-0.171
-134.385	-4.892	-0.203	-0.140
-133.370	84.200	-0.171	-0.186
-132.356	61.363	-0.110	0.109
-131.341	-15.092	-0.370	0.237
-130.326	-41.828	-0.055	-0.028
-129.312	-78.929	0.187	-0.064
-128.297	-115.616	-0.211	0.040
-127.283	753.816	-0.168	0.452
-126.268	58.783	0.261	0.256
-125.253	163.016	0.106	-0.149
-124.239	403.798	0.164	0.344
-123.224	-200.000	0.010	-0.321
-122.210	-15.548	0.445	0.284
-121.195	-32.347	-0.314	-0.175
-120.180	-131.335	0.375	0.050
-119.166	800.000	-0.054	-0.163
-118.151	248.019	-0.178	-0.300
-117.137	-78.322	-0.210	-0.072
-116.122	-62.774	0.200	0.083
-115.107	76.567	-0.328	0.347
-114.093	-194.392	0.147	0.001
-113.078	-92.532	-0.159	-0.045
-112.064	33.009	-0.091	0.079
-111.049	110.606	0.200	0.240
-110.034	112.321	0.261	0.315
-109.020	-200.000	0.040	-0.228
-108.005	437.441	0.144	0.313
-106.991	-200.000	0.083	0.370
-105.976	122.354	-0.164	0.204
-104.962	607.518	0.093	0.231
-103.947	-173.660	0.239	-0.007
-102.932	-200.000	0.009	-0.160
-101.918	-83.930	0.202	0.064
-100.903	-42.293	0.287	0.146
-99.889	-109.045	-0.209	0.044
-98.874	-128.581	0.298	-0.042
-97.859	-27.795	0.317	0.184
-96.845	-109.611	0.194	-0.041
-95.830	220.844	0.133	0.213
-94.816	-200.000	-0.050	0.295
-93.801	-200.000	0.016	0.195
-92.786	-200.000	-0.029	-0.246
-91.772	-200.000	0.031	0.141
-90.757	185.820	0.098	-0.145
-89.743	33.079	0.295	-0.255
-88.728	-200.000	-0.029	0.161
-87.713	271.164	-0.134	0.236
-86.699	355.966	0.049	0.098
-85.684	77.568	0.194	0.206
-84.670	-108.359	-0.106	0.023
-83.655	-116.069	-0.063	-0.012
-82.640	34.354	0.189	0.164
-81.626	38.172	0.060	0.053
-80.611	-139.711	0.188	0.020
-79.597	-83.416	-0.089	-0.028
-78.582	82.167	0.281	-0.304
-77.567	-31.245	-0.125	-0.070
-76.553	-48.560	0.078	0.037
-75.538	123.175	0.123	0.154
-74.524	-144.906	-0.289	-0.026
-73.509	-43.622	-0.314	0.158
-72.494	-123.087	-0.158	0.025
-71.480	572.281	-0.151	0.368
-70.465	-12.987	-0.145	0.094
-69.451	27.574	0.189	-0.158
-68.436	-58.435	0.309	-0.134
-67.422	-102.227	0.384	0.092
-66.407	-62.278	0.173	0.072
-65.392	800.000	0.059	0.221
-64.378	35.439	-0.103	0.090
-63.363	42.931	-0.425	0.386
-62.349	-52.897	0.107	-0.049
-61.334	125.762	-0.647	-0.815
-60.319	149.987	0.276	0.373
-59.305	800.000	-0.309	-0.934
-58.290	293.399	0.451	0.820
-57.276	800.000	0.506	1.480
-56.261	-200.000	83.026	500.867
-55.246	557.542	1364.059	3276.677
-54.232	183.154	2593.815	3816.513
-53.217	112.324	2379.601	2867.033
-52.203	45.147	2120.075	1946.576
-51.188	40.442	2028.531	1819.392
-50.173	38.890	2008.572	1787.293
-49.159	51.118	2050.957	1937.729
-48.144	54.649	2072.414	1990.462
-47.130	41.356	2033.070	1831.574
-46.115	38.788	2021.827	1797.872
-45.100	38.689	2018.948	1794.329
-44.086	38.709	2016.601	1792.355
-43.071	38.682	2013.747	1789.502
-42.057	38.614	2011.974	1787.235
-41.042	38.663	2010.313	1786.142
-40.027	38.712	2007.883	1784.358
-39.013	38.716	2006.191	1782.812
-37.998	38.703	2004.160	1780.818
-36.984	38.689	2002.944	1779.543
-35.969	38.665	2001.104	1777.621
-34.954	38.723	1999.480	1776.634
-33.940	38.659	1997.931	1774.609
-32.925	38.742	1995.700	1773.310
-31.911	38.724	1994.128	1771.679
-30.896	38.800	1992.781	1771.098
-29.881	38.781	1991.316	1769.548
-28.867	38.698	1989.401	1767.030
-27.852	38.837	1987.473	1766.496
-26.838	38.826	1985.469	1764.549
-25.823	38.784	1983.769	1762.592
-24.809	38.844	1981.810	1761.323
-23.794	38.787	1980.157	1759.271
-22.779	38.800	1978.054	1757.449
-21.765	38.788	1976.436	1755.829
-20.750	38.700	1975.080	1753.773
-19.736	38.738	1973.780	1752.885
-18.721	38.789	1971.829	1751.544
-17.706	38.763	1970.206	1749.795
-16.692	38.760	1968.490	1748.179
-15.677	38.856	1966.468	1747.163
-14.663	38.768	1965.758	1745.684
-13.648	38.870	1964.180	1745.123
-12.633	38.706	1963.465	1742.960
-11.619	38.804	1961.443	1741.962
-10.604	38.852	1959.851	1740.904
-9.590	38.725	1958.922	1738.884
-8.575	38.769	1957.503	1737.944
-7.560	38.748	1956.483	1736.787
-6.546	38.670	1955.347	1735.015
-5.531	38.678	1953.731	1733.584
-4.517	38.781	1952.072	1732.955
-3.502	38.791	1950.829	1731.872
-2.487	38.676	1950.341	1730.358
-1.473	38.756	1948.689	1729.527
-0.458	38.833	1944.107	1726.066
0.556	39.951	1924.286	1697.877
1.571	35.291	1903.731	1639.852
2.586	30.683	1924.190	1617.382
3.600	29.143	1960.853	1634.399
4.615	27.670	1955.199	1616.492
5.629	21.051	1850.246	1473.865
6.644	10.657	1724.396	1291.218
7.659	5.526	1683.900	1220.840
8.673	5.179	1680.468	1215.543
9.688	5.027	1678.879	1213.100
10.702	5.076	1677.418	1212.319
11.717	5.169	1674.975	1211.170
12.731	5.595	1674.505	1214.030
13.746	12.111	1690.628	1276.475
14.761	20.350	1707.874	1353.905
15.775	22.051	1708.055	1367.183
16.790	20.511	1704.226	1352.029
17.804	19.422	1701.011	1340.892
18.819	18.332	1697.830	1329.811
19.834	17.694	1695.110	1322.615
20.848	17.390	1693.920	1319.206
21.863	17.170	1692.059	1315.942
22.877	16.994	1690.261	1313.060
23.892	16.701	1688.877	1309.606
24.907	16.771	1687.572	1309.020
25.921	16.741	1686.726	1308.018
26.936	16.663	1686.006	1306.737
27.950	16.722	1685.012	1306.306
28.965	16.675	1684.669	1305.562
29.980	16.835	1683.469	1305.749
30.994	16.870	1682.447	1305.114
32.009	17.021	1681.609	1305.511
33.023	17.097	1680.398	1305.040
34.038	17.012	1679.986	1303.948
35.053	17.014	1678.235	1302.487
36.067	16.928	1677.156	1300.875
37.082	16.906	1676.194	1299.849
38.096	16.884	1675.372	1298.927
39.111	16.928	1674.241	1298.268
40.126	16.945	1673.552	1297.751
41.140	16.984	1672.239	1296.916
42.155	16.786	1670.870	1294.224
43.169	16.630	1669.792	1292.085
44.184	16.647	1667.960	1290.689
45.199	16.556	1667.053	1289.178
46.213	16.624	1666.273	1288.973
47.228	16.604	1664.898	1287.649
48.242	16.716	1663.405	1287.225
49.257	16.754	1662.880	1286.999
50.271	16.738	1661.841	1285.955
51.286	16.840	1659.880	1285.100
52.301	16.927	1658.451	1284.537
53.315	16.807	1657.400	1282.701
54.330	16.778	1655.880	1281.191
55.344	16.743	1654.344	1279.626
56.359	16.672	1652.659	1277.676
57.374	16.653	1651.519	1276.535
58.388	16.750	1650.109	1276.065
59.403	16.638	1648.988	1274.241
60.417	16.569	1647.319	1272.322
61.432	16.565	1646.441	1271.498
62.447	16.532	1645.146	1270.141
63.461	16.460	1644.246	1268.795
64.476	16.423	1642.909	1267.369
65.490	16.360	1641.664	1265.825
66.505	16.458	1639.977	1265.149
67.520	16.427	1639.561	1264.480
68.534	16.468	1638.553	1263.898
69.549	16.453	1637.506	1262.867
70.563	16.500	1635.943	1261.902
71.578	16.471	1634.628	1260.556
72.593	16.461	1633.805	1259.736
73.607	16.404	1632.801	1258.429
74.622	16.328	1631.588	1256.819
75.636	16.365	1630.399	1256.068
76.651	16.391	1629.730	1255.631
77.666	16.338	1629.289	1254.789
78.680	16.380	1628.004	1254.001
79.695	16.359	1627.375	1253.250
80.709	16.394	1626.249	1252.528
81.724	16.502	1625.521	1252.660
82.739	16.627	1624.743	1252.875
83.753	16.632	1623.956	1252.189
84.768	16.657	1622.984	1251.515
85.782	16.724	1622.404	1251.455
86.797	16.832	1621.588	1251.508
87.812	16.888	1620.567	1251.027
88.826	16.839	1619.278	1249.555
89.841	16.751	1618.021	1247.830
90.855	16.784	1616.868	1247.069
91.870	16.812	1616.353	1246.772
92.884	16.874	1615.121	1246.168
93.899	16.908	1614.099	1245.519
94.914	16.958	1612.501	1244.539
95.928	17.046	1611.193	1244.069
96.943	16.961	1610.565	1242.850
97.957	16.940	1609.274	1241.588
98.972	16.907	1607.064	1239.532
99.987	16.902	1605.762	1238.384
101.001	16.797	1604.366	1236.431
102.016	16.851	1602.347	1235.157
103.030	16.914	1601.239	1234.657
104.045	16.856	1600.475	1233.534
105.060	16.907	1598.656	1232.389
106.074	16.833	1597.488	1230.842
107.089	16.710	1595.807	1228.551
108.103	16.567	1594.029	1226.037
109.118	16.492	1592.460	1224.177
110.133	16.470	1590.828	1222.652
111.147	16.480	1589.663	1221.725
112.162	16.516	1588.005	1220.599
113.176	16.504	1586.784	1219.469
114.191	16.550	1585.735	1218.886
115.206	16.616	1584.282	1218.139
116.220	16.561	1583.709	1217.192
117.235	16.588	1581.769	1215.787
118.249	16.519	1580.798	1214.439
119.264	16.554	1579.572	1213.641
120.279	16.542	1578.138	1212.342
121.293	16.535	1576.368	1210.825
122.308	16.631	1574.557	1210.013
123.322	16.484	1573.620	1208.139
124.337	16.355	1572.170	1205.994
125.352	16.398	1570.879	1205.209
126.366	16.460	1569.732	1204.660
127.381	16.408	1568.615	1203.328
128.395	16.364	1567.893	1202.353
129.410	16.452	1565.849	1201.304
130.424	16.473	1564.828	1200.565
131.439	16.562	1563.707	1200.232
132.454	16.595	1562.228	1199.225
133.468	16.608	1560.742	1198.065
134.483	16.542	1560.108	1197.006
135.497	16.683	1558.132	1196.382
136.512	16.692	1556.855	1195.361
137.527	16.720	1555.765	1194.618
138.541	16.647	1554.412	1192.955
139.556	16.616	1553.018	1191.566
140.570	16.680	1551.717	1190.909
141.585	16.827	1550.060	1190.568
142.600	16.809	1549.161	1189.642
143.614	16.932	1547.970	1189.483
144.629	16.986	1546.938	1188.966
145.643	17.022	1545.422	1187.947
146.658	17.060	1544.503	1187.404
147.673	16.964	1542.730	1185.264
148.687	16.856	1541.304	1183.310
149.702	16.888	1539.449	1182.003
150.716	16.808	1537.879	1180.136
151.731	16.740	1536.840	1178.760
152.746	16.829	1534.950	1177.823
153.760	16.839	1533.610	1176.761
154.775	16.770	1532.781	1175.543
155.789	16.863	1531.504	1175.102
156.804	16.950	1530.353	1174.720
157.819	16.954	1529.104	1173.689
158.833	16.910	1528.386	1172.727
159.848	17.024	1526.893	1172.262
160.862	17.129	1525.928	1172.145
161.877	17.144	1524.180	1170.803
162.892	17.008	1523.338	1169.114
163.906	16.863	1522.012	1166.996
164.921	16.841	1520.526	1165.601
165.935	16.801	1519.498	1164.435
166.950	16.820	1518.667	1163.828
167.964	16.891	1517.393	1163.237
168.979	16.958	1516.330	1162.777
169.994	16.948	1514.996	1161.579
171.008	16.924	1513.818	1160.410
172.023	16.893	1512.962	1159.442
173.037	16.972	1512.254	1159.332
174.052	17.106	1510.894	1159.105
175.067	17.117	1509.872	1158.291
176.081	17.017	1508.784	1156.673
177.096	16.975	1507.057	1154.965
178.110	16.871	1505.668	1153.087
179.125	16.882	1504.791	1152.392
180.140	16.953	1503.768	1151.984
181.154	16.922	1502.760	1150.900
182.169	16.990	1501.865	1150.578
183.183	17.017	1500.315	1149.467
184.198	17.133	1499.419	1149.467
185.213	17.143	1498.691	1148.872
186.227	17.226	1496.949	1147.997
187.242	17.201	1496.696	1147.535
188.256	17.384	1494.906	1147.292
189.271	17.352	1494.102	1146.357
190.286	17.371	1493.084	1145.604
191.300	17.249	1492.141	1143.959
192.315	17.147	1490.207	1141.688
193.329	16.923	1488.981	1139.143
194.344	16.794	1488.145	1137.537
195.359	16.905	1487.145	1137.420
196.373	17.028	1486.196	1137.413
197.388	17.110	1485.005	1136.951
198.402	17.173	1484.245	1136.690
199.417	17.157	1483.470	1135.891
200.432	17.493	1482.247	1137.101
201.446	17.503	1481.528	1136.516
202.461	17.536	1480.328	1135.711
203.475	17.531	1479.284	1134.775
204.490	17.572	1478.314	1134.209
205.504	17.576	1476.780	1132.954
206.519	17.426	1475.858	1131.151
207.534	17.357	1474.848	1129.821
208.548	17.362	1473.811	1128.958
209.563	17.318	1472.721	1127.732
210.577	17.447	1471.422	1127.491
211.592	17.361	1470.758	1126.310
212.607	17.499	1469.805	1126.399
213.621	17.571	1469.475	1126.519
214.636	17.626	1468.819	1126.281
215.650	17.539	1467.486	1124.584
216.665	17.603	1466.614	1124.236
217.680	17.523	1465.813	1122.999
218.694	17.718	1465.128	1123.658
219.709	17.784	1464.394	1123.428
220.723	17.753	1463.382	1122.352
221.738	17.669	1462.095	1120.715
222.753	17.673	1461.492	1120.175
223.767	17.660	1460.761	1119.430
224.782	17.657	1459.503	1118.348
225.796	17.771	1458.506	1118.237
226.811	17.805	1458.027	1117.991
227.826	17.857	1456.538	1117.091
228.840	17.819	1455.653	1116.064
229.855	17.645	1454.856	1114.218
230.869	17.705	1453.729	1113.651
231.884	17.695	1452.783	1112.757
232.899	17.720	1451.631	1111.942
233.913	17.683	1450.542	1110.770
234.928	17.593	1449.114	1108.992
235.942	17.610	1447.498	1107.764
236.957	17.629	1446.515	1107.036
237.972	17.640	1445.017	1105.867
238.986	17.581	1444.413	1104.925
240.001	17.678	1443.179	1104.507
241.015	17.685	1442.602	1104.015
242.030	17.599	1441.475	1102.500
243.045	17.733	1440.535	1102.551
244.059	17.744	1439.800	1101.961
245.074	17.707	1439.355	1101.285
246.088	17.778	1438.249	1100.797
247.103	17.832	1437.678	1100.608
248.117	17.910	1436.400	1100.035
249.132	17.923	1436.132	1099.819
250.147	18.110	1435.122	1100.151
251.161	18.167	1434.498	1099.942
252.176	18.386	1433.624	1100.581
253.190	18.350	1433.116	1099.862
254.205	18.304	1432.207	1098.777
255.220	18.438	1431.339	1098.874
256.234	18.398	1430.763	1098.077
257.249	18.425	1429.852	1097.449
258.263	18.330	1429.063	1096.140
259.278	18.485	1427.895	1096.139
260.293	18.461	1426.850	1095.089
261.307	18.476	1426.225	1094.606
262.322	18.409	1425.437	1093.476
263.336	18.586	1424.677	1093.923
264.351	18.574	1423.201	1092.620
265.366	18.572	1422.682	1092.114
266.380	18.561	1421.290	1090.876
267.395	18.538	1420.662	1090.149
268.409	18.572	1420.189	1089.910
269.424	18.557	1418.888	1088.716
270.439	18.558	1417.624	1087.659
271.453	18.450	1416.765	1086.216
272.468	18.450	1416.191	1085.679
273.482	18.472	1414.982	1084.799
274.497	18.444	1413.990	1083.763
275.512	18.481	1412.851	1083.032
276.526	18.580	1412.145	1083.015
277.541	18.467	1411.455	1081.680
278.555	18.403	1410.596	1080.524
279.570	18.524	1409.554	1080.389
280.585	18.523	1408.950	1079.824
281.599	18.577	1408.436	1079.678
282.614	18.629	1407.578	1079.250
283.628	18.699	1405.841	1078.264
284.643	18.556	1405.292	1076.848
285.657	18.520	1404.150	1075.650
286.672	18.583	1402.918	1075.005
287.687	18.667	1402.113	1074.823
288.701	18.630	1400.567	1073.311
289.716	18.597	1400.338	1072.835
290.730	18.634	1399.551	1072.369
291.745	18.615	1398.383	1071.257
292.760	18.631	1397.599	1070.665
293.774	18.648	1396.362	1069.725
294.789	18.775	1395.227	1069.556
295.803	18.841	1394.901	1069.619
296.818	18.825	1394.018	1068.750
297.833	18.726	1392.807	1067.108
298.847	18.723	1392.054	1066.423
299.862	18.730	1390.800	1065.407
300.876	18.753	1389.854	1064.730
301.891	18.789	1388.837	1064.083
302.906	18.885	1388.194	1064.088
303.920	18.981	1387.495	1064.054
304.935	18.980	1387.027	1063.595
305.949	18.999	1386.331	1063.084
306.964	18.996	1386.129	1062.815
307.979	19.109	1384.337	1062.043
308.993	19.097	1383.252	1061.045
310.008	19.153	1382.275	1060.545
311.022	19.022	1381.686	1059.193
312.037	19.146	1380.136	1058.678
313.052	19.100	1379.785	1058.028
314.066	19.137	1378.316	1057.034
315.081	19.090	1377.323	1055.894
316.095	18.966	1375.915	1053.962
317.110	18.904	1374.711	1052.567
318.125	19.001	1373.811	1052.377
319.139	18.868	1373.594	1051.301
320.154	18.993	1372.163	1050.878
321.168	18.982	1371.039	1049.859
322.183	19.059	1369.881	1049.347
323.197	18.898	1369.225	1047.769
324.212	18.924	1368.563	1047.327
325.227	18.981	1367.629	1046.873
326.241	19.022	1366.691	1046.310
327.256	19.098	1365.414	1045.700
328.270	19.063	1365.231	1045.252
329.285	19.001	1364.191	1043.991
330.300	19.015	1363.673	1043.585
331.314	19.006	1362.629	1042.638
332.329	19.102	1361.436	1042.216
333.343	19.071	1360.786	1041.437
334.358	19.180	1359.686	1041.165
335.373	19.147	1358.983	1040.333
336.387	19.208	1358.237	1040.042
337.402	19.260	1357.652	1039.815
338.416	19.257	1356.795	1039.044
339.431	19.357	1356.185	1039.088
340.446	19.330	1355.766	1038.514
341.460	19.416	1354.443	1037.924
342.475	19.463	1353.421	1037.333
343.489	19.487	1352.772	1036.892
344.504	19.550	1352.237	1036.767
345.519	19.588	1350.898	1035.878
346.533	19.603	1349.826	1035.054
347.548	19.592	1349.404	1034.568
348.562	19.812	1348.193	1034.870
349.577	19.659	1347.544	1033.361
350.592	19.733	1346.647	1033.027
351.606	19.493	1346.038	1031.036
352.621	19.478	1344.640	1029.779
353.635	19.464	1343.440	1028.691
354.650	19.383	1342.746	1027.581
355.665	19.429	1341.995	1027.190
356.679	19.523	1340.271	1026.343
357.694	19.441	1339.695	1025.318
358.708	19.554	1338.175	1024.735
359.723	19.607	1337.531	1024.469
360.738	19.737	1336.233	1024.155
361.752	19.571	1335.328	1022.385
362.767	19.700	1334.508	1022.434
363.781	19.731	1333.360	1021.647
364.796	19.679	1332.789	1020.808
365.810	19.723	1332.063	1020.422
366.825	19.821	1331.595	1020.552
367.840	19.885	1330.704	1020.158
368.854	19.898	1329.816	1019.464
369.869	20.027	1329.747	1020.080
370.883	20.009	1329.326	1019.560
371.898	20.033	1328.034	1018.622
372.913	19.970	1327.349	1017.635
373.927	19.969	1326.248	1016.695
374.942	19.920	1325.603	1015.824
375.956	20.048	1324.800	1015.868
376.971	20.099	1323.936	1015.411
377.986	20.051	1323.045	1014.360
379.000	19.932	1322.233	1012.949
380.015	20.078	1321.433	1013.100
381.029	20.133	1320.998	1013.000
382.044	20.230	1320.197	1012.860
383.059	20.221	1318.879	1011.711
384.073	20.260	1318.681	1011.696
385.088	20.165	1318.201	1010.683
386.102	20.188	1317.352	1010.078
387.117	20.211	1316.904	1009.779
388.132	20.220	1315.754	1008.862
389.146	20.174	1314.776	1007.755
390.161	19.995	1314.341	1006.290
391.175	20.013	1313.397	1005.583
392.190	19.975	1312.825	1004.836
393.205	20.136	1311.475	1004.647
394.219	20.167	1310.613	1004.078
395.234	20.374	1309.459	1004.299
396.248	20.150	1308.179	1001.937
397.263	20.082	1306.991	1000.546
398.278	20.162	1305.574	999.835
399.292	20.125	1304.443	998.663
400.307	20.090	1303.312	997.507
401.321	20.014	1302.661	996.488
402.336	20.078	1301.262	995.696
403.350	20.079	1300.213	994.812
404.365	20.145	1299.401	994.478
405.380	20.022	1298.605	993.076
406.394	20.049	1297.902	992.606
407.409	20.214	1297.002	992.776
408.423	20.263	1296.361	992.475
409.438	20.305	1296.210	992.516
410.453	20.314	1295.450	991.898
411.467	20.501	1294.506	992.155
412.482	20.530	1294.174	991.975
413.496	20.552	1293.326	991.361
414.511	20.563	1292.502	990.707
415.526	20.647	1291.789	990.550
416.540	20.753	1290.941	990.417
417.555	20.719	1290.381	989.705
418.569	20.726	1290.255	989.561
419.584	20.703	1289.740	988.947
420.599	20.682	1288.494	987.787
421.613	137.679	1426.656	1769.005
422.628	133.015	1446.785	1769.100
