DTS Sentinel unit serial number:	SN413079Multiplexer serial number:	ORYXHardware model number:	OX4-SRSoftware version number:	ORYX F/W v4.00 Oryx Data Collector v3.7.2.0data status	okinstallation	princeton_trtdifferential loss correction	single-endedforward channel	channel 4reverse channel	N/Adate	2019/09/14time	15:33:35forward acquisition time	60.00reverse acquisition time	0.00gamma	496.2192k internal	0.2292k external	0.2292temperature offset calibration	1.0143default loss term (dB/km)	0.3790temperature slope calibration	1.0000multiplexer offset coefficient	1.0000multiplexer slope coefficient	1.0000fibre end	0.00T internal ref (°C)	38.86T ext. ref 1 (°C)	5.16T ext. ref 2 (°C)	33.69length (m)	temperature (°C)	Stokes	anti-Stokes-747.200	127.046	-0.135	-0.175
-746.185	-0.573	-0.198	0.144
-745.171	-32.561	-0.193	-0.110
-744.156	800.000	-0.051	0.192
-743.142	533.378	-0.119	-0.289
-742.127	-200.000	0.047	0.347
-741.112	-148.487	-0.242	0.020
-740.098	-127.375	0.260	0.039
-739.083	-146.096	0.162	-0.015
-738.069	287.030	0.066	0.122
-737.054	261.709	0.216	-0.383
-736.039	800.000	-0.075	-0.218
-735.025	51.179	-0.048	-0.046
-734.010	250.004	-0.105	0.182
-732.996	-163.379	-0.515	-0.025
-731.981	-12.697	-0.138	-0.092
-730.966	800.000	-0.078	-0.253
-729.952	272.224	-0.195	0.351
-728.937	19.260	-0.164	0.135
-727.923	-5.947	-0.513	-0.359
-726.908	-62.128	-0.055	0.023
-725.894	-142.710	-0.296	-0.030
-724.879	-108.765	-0.454	-0.099
-723.864	634.936	-0.129	-0.333
-722.850	127.557	0.095	-0.124
-721.835	-2.243	0.213	-0.153
-720.821	376.524	-0.098	-0.205
-719.806	-186.690	-0.041	0.001
-718.791	-141.298	0.273	-0.028
-717.777	-43.438	-0.153	0.079
-716.762	-200.000	-0.019	0.101
-715.748	-12.873	0.233	0.155
-714.733	-200.000	0.024	-0.152
-713.718	800.000	-0.094	-0.360
-712.704	121.314	-0.126	-0.160
-711.689	-65.323	-0.398	-0.164
-710.675	44.180	-0.254	-0.238
-709.660	-200.000	0.040	-0.259
-708.645	55.176	0.115	-0.114
-707.631	588.083	-0.040	-0.102
-706.616	-99.995	-0.291	-0.074
-705.602	800.000	0.050	0.207
-704.587	709.993	0.063	0.170
-703.572	101.296	0.089	-0.106
-702.558	108.570	0.156	-0.191
-701.543	-200.000	-0.021	0.151
-700.529	297.945	-0.118	-0.222
-699.514	179.238	-0.159	-0.237
-698.499	-30.099	0.184	-0.107
-697.485	100.567	0.124	-0.148
-696.470	15.368	0.226	-0.181
-695.456	-37.098	-0.004	-0.002
-694.441	-59.302	-0.169	-0.074
-693.426	283.751	-0.182	-0.333
-692.412	-64.524	-0.266	0.110
-691.397	800.000	-0.076	0.338
-690.383	21.957	-0.230	0.192
-689.368	-151.788	-0.277	0.021
-688.354	-200.000	-0.005	-0.377
-687.339	52.593	-0.113	0.110
-686.324	-120.900	-0.286	0.049
-685.310	-200.000	0.016	-0.480
-684.295	28.458	0.241	-0.208
-683.281	-28.363	-0.198	0.117
-682.266	-120.532	-0.281	-0.049
-681.251	800.000	-0.031	0.090
-680.237	42.696	-0.050	0.047
-679.222	-110.653	-0.149	-0.031
-678.208	10.128	-0.177	-0.137
-677.193	-137.069	-0.228	-0.027
-676.178	-200.000	-0.015	0.069
-675.164	-189.311	0.271	0.003
-674.149	207.398	0.071	-0.112
-673.135	123.917	-0.102	-0.131
-672.120	-99.214	0.249	0.064
-671.105	-200.000	-0.012	-0.068
-670.091	-92.712	0.229	-0.066
-669.076	800.000	-0.029	0.111
-668.062	-74.964	-0.075	-0.028
-667.047	800.000	-0.022	0.066
-666.032	302.372	0.094	0.178
-665.018	800.000	-0.011	0.039
-664.003	-52.191	0.317	-0.150
-662.989	-10.821	0.251	-0.169
-661.974	37.157	0.208	-0.188
-660.959	-133.541	0.221	0.028
-659.945	127.823	0.141	0.182
-658.930	162.767	0.124	0.178
-657.916	-200.000	-0.023	0.373
-656.901	56.914	-0.186	-0.185
-655.886	366.705	0.072	-0.149
-654.872	800.000	-0.023	-0.087
-653.857	131.961	0.045	0.059
-652.843	-89.873	0.445	0.133
-651.828	235.559	0.274	-0.462
-650.814	35.863	0.054	-0.048
-649.799	343.075	-0.082	0.164
-648.784	800.000	0.033	-0.128
-647.770	-41.013	-0.387	-0.204
-646.755	34.194	0.259	0.230
-645.741	-80.191	0.302	-0.103
-644.726	154.086	-0.030	-0.041
-643.711	-4.869	0.147	0.103
-642.697	800.000	-0.064	0.283
-641.682	395.527	-0.120	-0.256
-640.668	56.502	-0.219	-0.217
-639.653	-57.366	-0.179	-0.080
-638.638	-62.987	-0.149	0.063
-637.624	18.864	-0.411	0.336
-636.609	-54.861	0.077	0.035
-635.595	234.704	-0.092	-0.154
-634.580	122.062	0.275	-0.351
-633.565	-200.000	-0.026	0.144
-632.551	800.000	-0.081	0.262
-631.536	-97.730	-0.081	0.021
-630.522	549.644	0.039	0.094
-629.507	437.331	-0.116	-0.258
-628.492	-52.091	-0.051	0.024
-627.478	-200.000	0.043	-0.330
-626.463	-22.061	-0.334	-0.206
-625.449	-200.000	-0.015	0.219
-624.434	187.033	0.174	-0.264
-623.419	514.222	-0.010	-0.023
-622.405	-200.000	-0.018	-0.275
-621.390	-24.615	-0.173	0.105
-620.376	38.915	-0.105	-0.095
-619.361	-82.055	-0.126	-0.042
-618.346	-200.000	0.037	-0.184
-617.332	-73.473	-0.323	0.120
-616.317	220.429	-0.086	-0.141
-615.303	39.595	-0.187	-0.171
-614.288	-12.060	0.214	0.143
-613.273	593.088	0.155	0.389
-612.259	-72.667	0.180	-0.068
-611.244	-200.000	-0.040	-0.202
-610.230	800.000	0.035	-0.141
-609.215	506.091	0.084	-0.199
-608.201	-179.486	-0.412	0.009
-607.186	-14.093	-0.341	-0.224
-606.171	800.000	0.011	0.034
-605.157	800.000	0.081	-0.353
-604.142	-28.476	-0.108	-0.063
-603.128	240.088	0.076	-0.129
-602.113	-35.088	-0.334	0.185
-601.098	-6.792	0.101	0.070
-600.084	-59.884	-0.243	-0.106
-599.069	-62.854	-0.148	-0.062
-598.055	-200.000	-0.006	0.129
-597.040	641.761	-0.029	-0.076
-596.025	8.937	0.127	0.098
-595.011	55.968	0.108	-0.106
-593.996	-196.087	-0.145	0.001
-592.982	-143.663	0.143	-0.014
-591.967	13.730	-0.261	-0.207
-590.952	-61.999	-0.106	-0.045
-589.938	-200.000	-0.048	-0.239
-588.923	-128.074	0.111	-0.016
-587.909	-51.963	-0.171	-0.081
-586.894	-200.000	0.063	0.448
-585.879	-200.000	0.018	-0.089
-584.865	-18.648	0.262	-0.166
-583.850	435.216	-0.060	0.133
-582.836	6.157	-0.091	-0.068
-581.821	-35.835	0.260	-0.143
-580.806	269.647	0.203	-0.363
-579.792	10.834	0.218	-0.169
-578.777	363.991	-0.010	-0.021
-577.763	-200.000	0.000	0.257
-576.748	291.865	-0.079	-0.146
-575.733	37.930	-0.106	0.096
-574.719	-75.683	0.115	-0.041
-573.704	800.000	0.052	0.157
-572.690	59.250	-0.078	-0.078
-571.675	-74.435	-0.308	0.113
-570.661	-11.458	-0.203	0.136
-569.646	-112.906	-0.409	-0.082
-568.631	-123.594	-0.478	-0.077
-567.617	5.058	0.188	0.141
-566.602	-30.364	0.150	-0.086
-565.588	-157.846	0.616	0.037
-564.573	-93.257	-0.239	0.068
-563.558	155.975	0.291	-0.408
-562.544	236.676	0.184	-0.309
-561.529	39.931	-0.224	0.204
-560.515	-4.651	-0.053	0.037
-559.500	-200.000	0.015	0.208
-558.485	47.678	-0.077	0.073
-557.471	-200.000	0.004	-0.286
-556.456	-27.481	0.277	0.164
-555.442	-93.603	-0.148	-0.042
-554.427	63.425	-0.101	0.103
-553.412	285.017	-0.115	0.210
-552.398	-200.000	-0.017	0.121
-551.383	800.000	-0.076	-0.287
-550.369	-61.953	-0.270	-0.115
-549.354	48.029	0.099	0.094
-548.339	730.997	-0.006	0.016
-547.325	6.188	0.127	0.096
-546.310	-126.530	0.074	0.011
-545.296	-200.000	0.013	-0.151
-544.281	-126.093	0.142	0.022
-543.266	-60.411	0.058	0.025
-542.252	244.246	-0.194	-0.330
-541.237	-144.720	0.097	0.009
-540.223	81.284	0.055	0.061
-539.208	201.743	-0.124	-0.194
-538.193	73.286	0.052	-0.055
-537.179	327.954	-0.133	-0.260
-536.164	-171.948	-0.098	0.003
-535.150	800.000	0.052	-0.187
-534.135	-189.135	-0.212	-0.003
-533.121	800.000	-0.042	-0.155
-532.106	130.665	-0.179	0.233
-531.091	-200.000	-0.051	-0.320
-530.077	55.939	0.070	-0.069
-529.062	-200.000	0.054	0.366
-528.048	-163.335	-0.348	0.017
-527.033	-38.312	-0.025	-0.013
-526.018	24.027	-0.126	-0.106
-525.004	-74.775	0.269	-0.098
-523.989	-96.828	-0.180	-0.048
-522.975	-48.599	-0.309	-0.151
-521.960	-30.811	0.067	0.039
-520.945	-200.000	-0.042	0.394
-519.931	-131.075	0.218	0.030
-518.916	800.000	-0.004	-0.011
-517.902	-200.000	0.020	-0.117
-516.887	105.368	0.077	0.092
-515.872	-57.015	-0.127	-0.057
-514.858	409.187	-0.142	0.305
-513.843	379.229	0.149	0.310
-512.829	-40.934	-0.248	0.130
-511.814	-58.408	-0.152	-0.067
-510.799	-134.955	0.422	-0.052
-509.785	-118.581	0.078	0.014
-508.770	-3.637	-0.162	0.114
-507.756	-37.752	0.164	-0.089
-506.741	-70.762	0.229	-0.088
-505.726	-200.000	-0.005	0.077
-504.712	800.000	-0.065	0.245
-503.697	-54.888	-0.192	0.088
-502.683	-116.600	-0.142	0.027
-501.668	-93.016	0.103	0.029
-500.653	-200.000	0.013	-0.208
-499.639	-68.759	-0.350	0.137
-498.624	32.062	-0.262	0.229
-497.610	-91.074	-0.074	-0.021
-496.595	162.046	0.055	-0.079
-495.581	64.972	-0.135	-0.138
-494.566	-200.000	0.015	-0.216
-493.551	170.362	-0.192	0.279
-492.537	-200.000	-0.006	0.352
-491.522	-58.861	-0.086	0.038
-490.508	-200.000	-0.002	0.038
-489.493	589.729	0.038	0.095
-488.478	-200.000	-0.015	-0.137
-487.464	-200.000	0.007	-0.061
-486.449	-81.288	-0.358	0.120
-485.435	27.129	0.046	0.039
-484.420	-53.306	0.222	0.103
-483.405	-92.086	0.299	0.086
-482.391	800.000	-0.048	-0.198
-481.376	-85.628	0.220	0.069
-480.362	38.243	0.045	-0.040
-479.347	427.441	0.162	0.354
-478.332	280.969	-0.137	-0.249
-477.318	-105.169	0.055	-0.013
-476.303	337.435	-0.145	-0.285
-475.289	-200.000	0.004	-0.063
-474.274	98.458	-0.187	0.219
-473.259	-200.000	0.070	-0.370
-472.245	800.000	-0.010	0.039
-471.230	364.698	0.106	-0.216
-470.216	220.748	-0.152	0.248
-469.201	-117.865	0.216	-0.039
-468.186	252.687	-0.141	-0.243
-467.172	-141.853	-0.267	-0.027
-466.157	-69.783	0.388	-0.150
-465.143	57.289	0.059	0.059
-464.128	126.823	0.308	0.395
-463.113	15.627	-0.104	-0.083
-462.099	800.000	0.077	0.293
-461.084	262.053	-0.114	0.200
-460.070	-200.000	-0.006	0.399
-459.055	-113.324	0.031	-0.006
-458.040	-200.000	0.018	-0.097
-457.026	-97.526	0.134	0.035
-456.011	353.195	0.071	0.143
-454.997	-144.883	0.449	-0.042
-453.982	-92.883	-0.140	-0.040
-452.968	-73.347	0.298	0.110
-451.953	-11.988	0.471	-0.312
-450.938	-125.558	0.202	-0.031
-449.924	-140.739	0.278	0.029
-448.909	-143.293	0.292	0.028
-447.895	-200.000	0.004	-0.106
-446.880	-154.154	0.247	0.017
-445.865	-200.000	0.012	0.116
-444.851	-200.000	-0.001	0.298
-443.836	-133.085	-0.461	-0.059
-442.822	23.489	-0.213	-0.178
-441.807	-137.353	0.105	-0.012
-440.792	-45.937	0.399	0.199
-439.778	-116.975	0.174	-0.032
-438.763	-186.076	-0.133	-0.002
-437.749	-101.081	0.149	0.037
-436.734	-141.192	0.251	-0.026
-435.719	67.318	-0.217	-0.224
-434.705	464.949	-0.050	-0.114
-433.690	-200.000	0.007	-0.038
-432.676	-83.556	-0.145	-0.047
-431.661	106.620	0.183	-0.219
-430.646	-200.000	0.006	-0.116
-429.632	-49.088	-0.318	-0.154
-428.617	-55.109	0.134	0.061
-427.603	22.469	0.133	0.110
-426.588	-4.759	0.205	-0.143
-425.573	800.000	-0.068	0.297
-424.559	800.000	-0.121	0.353
-423.544	-126.042	-0.179	-0.027
-422.530	-200.000	0.005	0.046
-421.515	-152.188	-0.207	-0.015
-420.500	88.558	-0.157	0.176
-419.486	-92.851	0.537	0.152
-418.471	-100.059	0.246	0.062
-417.457	-200.000	-0.006	-0.053
-416.442	181.716	-0.031	-0.046
-415.428	-123.961	-0.132	-0.021
-414.413	128.422	-0.154	-0.198
-413.398	15.509	0.085	0.067
-412.384	-149.621	-0.256	-0.020
-411.369	8.680	-0.099	-0.075
-410.355	-24.624	0.253	-0.152
-409.340	-18.591	-0.073	-0.046
-408.325	-136.099	-0.320	0.038
-407.311	-200.000	-0.022	0.240
-406.296	-68.441	-0.054	0.021
-405.282	-47.872	0.180	-0.088
-404.267	67.882	0.136	0.141
-403.252	79.264	0.166	0.180
-402.238	800.000	0.027	-0.112
-401.223	-200.000	0.012	0.000
-400.209	-89.012	0.111	0.033
-399.194	498.141	-0.099	-0.230
-398.179	-200.000	-0.020	-0.157
-397.165	364.135	-0.167	-0.339
-396.150	800.000	-0.101	0.310
-395.136	-2.219	-0.140	0.099
-394.121	12.846	0.155	0.121
-393.106	-75.644	0.611	-0.219
-392.092	9.174	0.203	0.155
-391.077	-200.000	-0.024	0.219
-390.063	56.900	-0.271	0.266
-389.048	357.220	0.057	-0.115
-388.033	2.961	-0.121	0.089
-387.019	-22.372	-0.269	0.165
-386.004	-19.862	-0.141	-0.088
-384.990	-140.025	-0.168	-0.018
-383.975	800.000	-0.048	0.211
-382.960	-46.781	0.407	-0.201
-381.946	392.769	0.135	0.283
-380.931	-120.676	0.203	0.035
-379.917	-200.000	0.054	-0.255
-378.902	-26.487	0.058	0.034
-377.888	800.000	0.084	-0.309
-376.873	-73.636	-0.393	0.144
-375.858	-58.091	-0.350	-0.154
-374.844	-200.000	-0.008	-0.079
-373.829	107.930	-0.024	-0.029
-372.815	-100.951	0.176	0.044
-371.800	1.224	0.185	0.134
-370.785	-42.790	-0.252	0.129
-369.771	90.066	0.150	-0.169
-368.756	-110.346	-0.083	0.017
-367.742	-55.451	0.290	0.131
-366.727	-200.000	-0.001	-0.191
-365.712	25.093	0.212	-0.177
-364.698	-44.752	0.191	0.096
-363.683	-80.587	0.026	-0.009
-362.669	800.000	-0.058	0.210
-361.654	-200.000	-0.021	-0.147
-360.639	60.543	0.172	-0.171
-359.625	45.250	0.032	-0.030
-358.610	56.685	-0.172	-0.169
-357.596	299.721	-0.092	0.172
-356.581	-118.019	0.122	0.022
-355.566	-144.212	-0.236	0.022
-354.552	419.236	-0.089	0.191
-353.537	319.190	0.112	-0.213
-352.523	-180.234	0.371	0.008
-351.508	-25.401	0.267	0.159
-350.493	-139.082	-0.306	-0.033
-349.479	-184.205	-0.247	0.004
-348.464	800.000	0.044	-0.166
-347.450	129.949	-0.067	0.086
-346.435	-200.000	-0.012	-0.410
-345.420	-200.000	0.003	-0.305
-344.406	-78.002	-0.235	0.082
-343.391	139.818	0.018	-0.023
-342.377	-48.936	-0.175	-0.084
-341.362	16.244	-0.213	-0.169
-340.348	-200.000	-0.016	0.269
-339.333	-200.000	-0.052	-0.296
-338.318	-4.170	-0.174	-0.121
-337.304	54.437	0.362	0.351
-336.289	-44.409	-0.283	-0.143
-335.275	775.037	-0.100	0.274
-334.260	485.413	-0.101	0.232
-333.245	-200.000	0.025	-0.114
-332.231	175.939	0.133	-0.195
-331.216	-91.996	-0.225	-0.064
-330.202	-4.441	-0.183	-0.127
-329.187	154.488	0.106	-0.146
-328.172	-6.975	-0.153	0.105
-327.158	-200.000	0.007	-0.200
-326.143	-200.000	0.006	0.146
-325.129	-104.018	0.377	0.088
-324.114	-34.029	0.009	0.005
-323.099	87.169	0.211	-0.235
-322.085	-30.443	-0.345	0.197
-321.070	-57.818	-0.172	0.076
-320.056	-200.000	-0.027	-0.209
-319.041	-200.000	0.011	-0.144
-318.026	197.818	0.190	0.292
-317.012	146.292	-0.168	0.227
-315.997	-98.037	0.232	0.060
-314.983	-200.000	0.016	0.140
-313.968	81.000	0.259	-0.281
-312.953	-4.207	-0.161	0.112
-311.939	11.209	-0.048	0.037
-310.924	-69.114	0.067	0.026
-309.910	800.000	-0.052	-0.171
-308.895	-25.670	-0.133	0.079
-307.880	-200.000	0.074	-0.336
-306.866	-92.353	-0.319	0.091
-305.851	-44.051	0.253	-0.128
-304.837	244.810	0.178	0.300
-303.822	-100.316	0.158	-0.039
-302.807	69.286	0.103	0.107
-301.793	78.902	-0.179	-0.193
-300.778	766.013	0.093	-0.254
-299.764	63.420	0.123	-0.124
-298.749	100.890	-0.207	0.243
-297.735	800.000	-0.036	0.126
-296.720	191.054	0.040	0.061
-295.705	-61.433	0.211	-0.089
-294.691	-58.396	-0.236	-0.103
-293.676	-18.518	0.088	0.055
-292.662	-4.334	0.148	-0.103
-291.647	-91.234	-0.096	0.028
-290.632	800.000	-0.043	-0.169
-289.618	9.241	0.127	-0.096
-288.603	-200.000	-0.066	-0.310
-287.589	-87.579	-0.034	-0.010
-286.574	684.479	0.106	0.278
-285.559	94.119	0.087	0.099
-284.545	800.000	0.016	0.067
-283.530	437.569	0.065	0.143
-282.516	-118.406	-0.197	-0.035
-281.501	-70.368	0.099	0.038
-280.486	-97.914	0.210	-0.054
-279.472	-118.719	-0.165	0.029
-278.457	-200.000	0.002	0.034
-277.443	71.353	-0.085	-0.088
-276.428	30.089	0.149	0.127
-275.413	-72.886	0.158	-0.058
-274.399	101.701	0.152	0.178
-273.384	72.838	-0.097	0.102
-272.370	-11.731	-0.082	-0.054
-271.355	224.810	-0.098	0.160
-270.340	187.542	0.132	0.198
-269.326	-114.245	0.098	-0.019
-268.311	-76.590	-0.309	0.109
-267.297	386.981	0.060	0.126
-266.282	-65.212	-0.203	-0.082
-265.267	-24.945	0.009	-0.005
-264.253	758.541	-0.078	0.212
-263.238	211.333	-0.127	-0.200
-262.224	-200.000	0.045	-0.606
-261.209	61.372	-0.060	0.060
-260.195	-68.871	-0.134	-0.052
-259.180	47.738	0.084	0.079
-258.165	-200.000	0.005	-0.216
-257.151	-46.913	0.184	0.090
-256.136	47.849	-0.057	0.053
-255.122	-200.000	-0.036	0.186
-254.107	800.000	-0.073	0.231
-253.092	-92.228	0.200	0.057
-252.078	-108.360	-0.113	0.024
-251.063	-66.815	-0.092	-0.037
-250.049	-200.000	0.050	-0.238
-249.034	579.892	0.069	-0.170
-248.019	-200.000	-0.012	-0.278
-247.005	-200.000	-0.000	0.102
-245.990	113.825	0.102	-0.125
-244.976	65.734	0.161	-0.163
-243.961	800.000	0.002	0.006
-242.946	-111.989	0.282	0.057
-241.932	-84.505	0.497	0.157
-240.917	4.824	-0.088	0.065
-239.903	-81.590	0.532	0.176
-238.888	-155.198	0.433	-0.028
-237.873	176.009	-0.267	-0.389
-236.859	-200.000	-0.045	-0.217
-235.844	-200.000	-0.023	-0.137
-234.830	800.000	-0.048	-0.198
-233.815	77.249	0.053	-0.056
-232.800	238.450	-0.107	0.178
-231.786	-200.000	-0.021	0.116
-230.771	60.025	0.234	0.232
-229.757	95.750	-0.061	0.069
-228.742	-200.000	-0.359	-0.000
-227.727	600.714	-0.189	-0.471
-226.713	-200.000	-0.006	0.164
-225.698	800.000	-0.022	-0.071
-224.684	-114.051	0.321	0.062
-223.669	-200.000	0.001	-0.043
-222.655	-51.095	-0.280	0.132
-221.640	45.636	0.294	-0.272
-220.625	29.699	-0.134	-0.115
-219.611	800.000	0.105	0.386
-218.596	165.341	0.093	0.131
-217.582	-95.749	-0.235	-0.063
-216.567	-48.152	-0.106	0.052
-215.552	218.286	0.151	0.242
-214.538	-10.716	-0.158	0.105
-213.523	-200.000	0.038	-0.175
-212.509	-96.471	0.283	0.075
-211.494	284.465	0.046	-0.083
-210.479	-110.317	-0.252	-0.053
-209.465	379.552	0.109	-0.224
-208.450	-12.421	-0.054	-0.035
-207.436	800.000	0.039	0.166
-206.421	800.000	0.025	-0.079
-205.406	-24.391	0.324	0.194
-204.392	-200.000	-0.054	0.298
-203.377	-200.000	-0.033	-0.256
-202.363	176.420	-0.137	-0.199
-201.348	-200.000	-0.010	0.211
-200.333	117.444	-0.052	-0.064
-199.319	-120.427	0.273	0.046
-198.304	-200.000	-0.029	0.263
-197.290	-114.158	-0.095	-0.018
-196.275	-94.911	-0.083	-0.023
-195.260	-200.000	0.051	0.240
-194.246	-134.584	0.101	-0.012
-193.231	6.055	0.204	-0.151
-192.217	-121.544	-0.084	-0.014
-191.202	-142.823	0.368	0.036
-190.187	-34.883	-0.178	0.097
-189.173	-21.093	-0.288	0.176
-188.158	-31.160	-0.347	0.196
-187.144	-25.435	0.247	-0.146
-186.129	-200.000	0.010	0.255
-185.114	800.000	-0.156	0.568
-184.100	-200.000	-0.007	0.238
-183.085	-94.161	-0.246	-0.068
-182.071	-200.000	-0.008	0.051
-181.056	800.000	-0.084	-0.293
-180.042	275.600	0.054	-0.095
-179.027	221.018	-0.098	0.158
-178.012	9.709	-0.162	-0.123
-176.998	-28.968	-0.054	0.031
-175.983	-102.682	0.058	0.014
-174.969	54.644	0.211	-0.203
-173.954	-200.000	-0.025	-0.195
-172.939	-200.000	-0.071	0.345
-171.925	313.153	0.192	0.361
-170.910	223.018	0.079	0.127
-169.896	-64.551	0.379	-0.154
-168.881	-22.701	-0.287	-0.174
-167.866	800.000	-0.064	-0.198
-166.852	384.782	-0.044	0.091
-165.837	96.070	0.101	0.115
-164.823	-200.000	0.001	0.476
-163.808	800.000	-0.056	0.217
-162.793	-51.457	-0.169	0.079
-161.779	39.940	0.294	0.264
-160.764	-29.220	0.300	-0.172
-159.750	488.552	0.165	-0.377
-158.735	-43.707	-0.211	0.106
-157.720	-74.810	0.176	-0.063
-156.706	-200.000	0.052	0.247
-155.691	115.605	0.044	0.053
-154.677	-53.557	0.155	0.071
-153.662	77.016	-0.013	-0.014
-152.647	-200.000	-0.048	0.213
-151.633	291.787	0.143	0.261
-150.618	-110.361	0.076	0.016
-149.604	-83.254	0.194	-0.062
-148.589	-108.325	-0.286	-0.062
-147.574	-40.270	0.265	-0.138
-146.560	-130.206	-0.069	-0.009
-145.545	-3.520	-0.102	0.071
-144.531	10.869	0.366	-0.280
-143.516	17.683	0.138	0.109
-142.502	8.486	-0.264	0.198
-141.487	-160.584	-0.259	-0.014
-140.472	-48.875	-0.101	0.048
-139.458	763.150	0.056	0.151
-138.443	-200.000	0.023	0.195
-137.429	-200.000	-0.031	0.309
-136.414	505.006	-0.038	-0.089
-135.399	130.939	0.207	-0.266
-134.385	-84.131	-0.513	0.163
-133.370	36.869	-0.021	0.019
-132.356	474.086	0.159	0.358
-131.341	-12.583	-0.127	0.083
-130.326	107.483	-0.140	0.166
-129.312	-151.715	-0.028	0.002
-128.297	-116.894	0.171	0.031
-127.283	-63.648	0.331	-0.136
-126.268	-18.979	-0.136	-0.085
-125.253	-200.000	-0.003	-0.195
-124.239	-200.000	0.006	0.255
-123.224	800.000	0.133	-0.374
-122.210	-200.000	0.001	-0.200
-121.195	-200.000	-0.006	-0.344
-120.180	800.000	-0.010	0.030
-119.166	281.190	-0.043	0.077
-118.151	90.582	-0.149	-0.166
-117.137	19.993	0.080	-0.064
-116.122	242.177	-0.082	-0.136
-115.107	300.451	-0.113	0.209
-114.093	715.957	0.065	0.172
-113.078	43.364	0.196	0.179
-112.064	35.538	-0.130	0.114
-111.049	-200.000	0.016	0.238
-110.034	-7.741	-0.213	0.143
-109.020	126.906	0.180	-0.227
-108.005	38.617	-0.131	-0.117
-106.991	0.823	-0.101	0.072
-105.976	-89.322	0.132	-0.039
-104.962	-31.964	-0.148	0.083
-103.947	285.604	-0.159	-0.287
-102.932	-133.162	0.268	-0.034
-101.918	-69.652	0.129	0.049
-100.903	-200.000	-0.001	-0.211
-99.889	-142.173	0.258	0.025
-98.874	-4.553	-0.044	-0.030
-97.859	77.418	-0.042	-0.045
-96.845	25.892	-0.134	0.111
-95.830	-91.103	-0.140	-0.040
-94.816	85.497	0.104	0.114
-93.801	365.169	-0.070	0.141
-92.786	800.000	0.071	-0.218
-91.772	207.186	0.020	0.031
-90.757	800.000	0.030	-0.103
-89.743	40.443	0.188	0.169
-88.728	-200.000	0.037	-0.253
-87.713	-162.695	-0.101	-0.005
-86.699	-200.000	-0.048	0.353
-85.684	-74.659	-0.023	0.008
-84.670	238.255	0.206	-0.341
-83.655	-24.733	0.013	-0.008
-82.640	164.229	0.136	0.192
-81.626	800.000	0.052	-0.166
-80.611	-91.451	-0.120	0.034
-79.597	800.000	-0.060	0.200
-78.582	-92.693	-0.147	0.041
-77.567	-200.000	0.001	-0.063
-76.553	119.854	-0.157	-0.195
-75.538	145.080	0.077	-0.102
-74.524	-165.724	-0.152	-0.007
-73.509	-200.000	-0.028	0.155
-72.494	-149.081	-0.245	-0.020
-71.480	-200.000	-0.073	-0.383
-70.465	-200.000	0.100	-0.532
-69.451	-200.000	0.057	-0.272
-68.436	-110.600	-0.194	0.040
-67.422	311.170	-0.229	-0.428
-66.407	-119.863	0.148	0.025
-65.392	-200.000	0.031	0.281
-64.378	800.000	0.017	-0.064
-63.363	-200.000	-0.021	0.126
-62.349	800.000	-0.098	-0.329
-61.334	70.707	-0.951	-0.981
-60.319	87.607	0.422	0.466
-59.305	800.000	-0.289	-1.109
-58.290	500.124	0.372	0.855
-57.276	360.038	0.725	1.445
-56.261	-200.000	82.838	500.115
-55.246	561.349	1361.190	3279.191
-54.232	183.533	2591.719	3817.436
-53.217	112.838	2381.130	2874.223
-52.203	45.297	2121.718	1949.803
-51.188	40.548	2029.703	1821.686
-50.173	38.868	2010.234	1788.842
-49.159	51.238	2052.494	1940.559
-48.144	54.917	2072.754	1993.544
-47.130	41.475	2034.969	1834.654
-46.115	38.880	2023.441	1800.417
-45.100	38.762	2020.180	1796.364
-44.086	38.818	2017.901	1794.779
-43.071	38.747	2015.741	1792.132
-42.057	38.690	2013.570	1789.612
-41.042	38.716	2011.938	1788.326
-40.027	38.765	2009.501	1786.536
-39.013	38.911	2006.922	1785.507
-37.998	38.797	2005.529	1783.156
-36.984	38.766	2004.437	1781.831
-35.969	38.813	2002.310	1780.298
-34.954	38.877	2000.118	1778.861
-33.940	38.813	1999.091	1777.292
-32.925	38.858	1997.203	1775.954
-31.911	38.923	1995.376	1774.848
-30.896	38.866	1993.826	1772.878
-29.881	38.895	1992.086	1771.524
-28.867	38.891	1990.403	1769.923
-27.852	38.921	1988.655	1768.568
-26.838	38.882	1986.906	1766.595
-25.823	38.919	1985.023	1765.178
-24.809	38.895	1983.316	1763.379
-23.794	38.964	1981.310	1762.139
-22.779	38.889	1979.217	1759.542
-21.765	38.852	1977.872	1757.939
-20.750	38.828	1975.972	1755.968
-19.736	38.852	1974.558	1754.854
-18.721	38.998	1972.736	1754.472
-17.706	38.845	1971.615	1752.035
-16.692	38.858	1969.729	1750.414
-15.677	38.894	1968.213	1749.314
-14.663	38.876	1967.008	1748.011
-13.648	38.900	1965.491	1746.806
-12.633	38.920	1964.199	1745.772
-11.619	38.829	1963.128	1743.937
-10.604	38.799	1961.519	1742.171
-9.590	38.811	1960.505	1741.312
-8.575	38.806	1958.982	1739.847
-7.560	38.837	1957.339	1738.591
-6.546	38.839	1956.318	1737.632
-5.531	38.850	1955.025	1736.510
-4.517	38.882	1953.484	1735.361
-3.502	38.918	1952.115	1734.396
-2.487	38.862	1950.773	1732.636
-1.473	38.895	1949.972	1732.147
-0.458	38.950	1945.244	1728.361
0.556	40.180	1925.179	1699.544
1.571	35.471	1904.226	1640.766
2.586	30.839	1924.957	1618.342
3.600	29.403	1960.753	1635.568
4.615	28.013	1955.219	1618.514
5.629	21.285	1850.320	1474.948
6.644	10.628	1725.619	1291.070
7.659	5.637	1684.345	1221.244
8.673	5.166	1681.379	1215.321
9.688	5.173	1679.333	1213.789
10.702	5.194	1678.150	1212.986
11.717	5.127	1675.374	1210.353
12.731	5.717	1674.996	1214.544
13.746	12.321	1691.192	1277.713
14.761	20.571	1708.283	1355.080
15.775	22.040	1708.711	1366.744
16.790	20.735	1704.715	1353.288
17.804	19.586	1701.451	1341.653
18.819	18.521	1697.872	1330.453
19.834	17.856	1695.657	1323.441
20.848	17.435	1694.501	1319.163
21.863	17.317	1692.863	1316.853
22.877	17.084	1691.395	1313.796
23.892	16.905	1689.685	1310.963
24.907	16.813	1688.391	1309.133
25.921	16.785	1687.772	1308.321
26.936	16.788	1686.822	1307.497
27.950	16.818	1685.878	1306.881
28.965	16.743	1685.757	1306.092
29.980	16.836	1684.706	1305.879
30.994	17.027	1683.145	1306.025
32.009	17.081	1682.107	1305.515
33.023	17.086	1681.477	1304.949
34.038	17.171	1680.417	1304.667
35.053	17.135	1679.224	1303.347
36.067	17.113	1678.253	1302.310
37.082	16.981	1677.100	1300.286
38.096	17.053	1675.622	1299.580
39.111	16.993	1675.586	1298.975
40.126	17.100	1674.418	1298.776
41.140	17.071	1673.525	1297.742
42.155	17.001	1671.631	1295.625
43.169	16.788	1670.596	1293.088
44.184	16.735	1668.820	1291.189
45.199	16.739	1668.050	1290.509
46.213	16.733	1666.464	1289.127
47.228	16.791	1666.067	1289.142
48.242	16.877	1664.418	1288.406
49.257	16.911	1663.828	1288.098
50.271	16.945	1662.798	1287.445
51.286	16.950	1660.982	1285.959
52.301	16.949	1659.484	1284.683
53.315	16.951	1658.382	1283.732
54.330	16.847	1656.874	1281.660
55.344	16.814	1655.200	1280.000
56.359	16.760	1653.244	1277.969
57.374	16.844	1652.264	1277.731
58.388	16.830	1651.005	1276.540
59.403	16.761	1649.778	1274.961
60.417	16.609	1648.762	1272.917
61.432	16.673	1647.306	1272.160
62.447	16.675	1646.181	1271.199
63.461	16.603	1644.817	1269.487
64.476	16.565	1643.652	1268.191
65.490	16.504	1642.678	1266.876
66.505	16.529	1641.646	1266.152
67.520	16.568	1640.374	1265.354
68.534	16.580	1639.576	1264.713
69.549	16.621	1638.430	1264.020
70.563	16.589	1637.374	1262.858
71.578	16.645	1635.847	1261.989
72.593	16.530	1635.042	1260.394
73.607	16.435	1634.065	1258.827
74.622	16.450	1632.819	1257.865
75.636	16.558	1631.692	1257.688
76.651	16.461	1630.981	1256.306
77.666	16.468	1630.488	1255.868
78.680	16.498	1629.513	1255.227
79.695	16.508	1628.358	1254.305
80.709	16.612	1627.130	1254.017
81.724	16.622	1626.631	1253.597
82.739	16.679	1625.670	1253.169
83.753	16.757	1624.934	1253.064
84.768	16.841	1623.988	1252.844
85.782	16.872	1623.549	1252.624
86.797	16.996	1622.863	1252.903
87.812	17.052	1621.909	1252.468
88.826	16.928	1620.593	1250.424
89.841	16.858	1619.292	1248.792
90.855	16.904	1618.631	1248.515
91.870	16.949	1617.254	1247.671
92.884	16.966	1616.415	1247.042
93.899	17.045	1615.075	1246.472
94.914	17.028	1614.061	1245.458
95.928	17.176	1612.717	1245.392
96.943	17.146	1611.597	1244.202
97.957	17.023	1609.983	1241.946
98.972	17.041	1608.483	1240.810
99.987	16.992	1607.243	1239.387
101.001	16.995	1604.966	1237.539
102.016	16.904	1603.882	1235.932
103.030	16.965	1602.648	1235.315
104.045	16.981	1601.253	1234.249
105.060	16.893	1600.531	1232.940
106.074	16.956	1598.868	1232.013
107.089	16.904	1596.704	1229.860
108.103	16.697	1595.079	1226.997
109.118	16.526	1594.142	1224.931
110.133	16.631	1591.978	1223.918
111.147	16.564	1591.226	1222.744
112.162	16.562	1590.044	1221.718
113.176	16.661	1588.144	1220.859
114.191	16.622	1587.304	1219.826
115.206	16.718	1585.938	1219.363
116.220	16.687	1584.897	1218.231
117.235	16.669	1583.728	1217.093
118.249	16.671	1582.167	1215.800
119.264	16.656	1580.845	1214.567
120.279	16.646	1579.532	1213.382
121.293	16.627	1578.005	1211.965
122.308	16.647	1576.485	1210.831
123.322	16.585	1574.754	1208.955
124.337	16.567	1573.179	1207.510
125.352	16.506	1572.358	1206.340
126.366	16.518	1571.429	1205.599
127.381	16.564	1570.114	1204.813
128.395	16.553	1569.484	1204.149
129.410	16.561	1567.963	1202.930
130.424	16.573	1566.578	1201.844
131.439	16.672	1565.291	1201.458
132.454	16.656	1563.905	1200.174
133.468	16.711	1562.466	1199.354
134.483	16.806	1561.198	1198.946
135.497	16.852	1559.690	1198.005
136.512	16.769	1558.586	1196.464
137.527	16.857	1557.158	1195.881
138.541	16.860	1555.768	1194.730
139.556	16.831	1554.458	1193.419
140.570	16.806	1553.509	1192.405
141.585	16.981	1551.972	1192.347
142.600	17.018	1550.606	1191.453
143.614	17.125	1549.578	1191.308
144.629	17.105	1548.727	1190.414
145.643	17.114	1547.301	1189.272
146.658	17.166	1545.600	1188.225
147.673	17.096	1544.248	1186.592
148.687	16.964	1542.909	1184.533
149.702	16.934	1541.155	1182.870
150.716	16.905	1539.611	1181.378
151.731	16.877	1538.064	1179.898
152.746	16.871	1536.970	1178.909
153.760	16.848	1535.552	1177.556
154.775	16.927	1534.335	1177.071
155.789	17.063	1532.803	1176.733
156.804	17.060	1531.801	1175.837
157.819	16.994	1530.950	1174.626
158.833	17.026	1529.639	1173.738
159.848	17.126	1528.836	1173.707
160.862	17.164	1527.707	1173.001
161.877	17.241	1526.386	1172.409
162.892	17.125	1525.292	1170.669
163.906	17.097	1522.815	1168.472
164.921	16.991	1522.099	1167.089
165.935	16.905	1521.054	1165.594
166.950	16.957	1520.019	1165.057
167.964	17.042	1518.859	1164.645
168.979	17.067	1517.779	1163.884
169.994	16.953	1516.960	1162.376
171.008	17.032	1515.250	1161.503
172.023	17.093	1514.658	1161.362
173.037	17.121	1513.435	1160.510
174.052	17.183	1512.218	1159.899
175.067	17.193	1511.666	1159.442
176.081	17.252	1510.362	1158.742
177.096	17.142	1508.591	1156.535
178.110	17.054	1506.995	1154.604
179.125	17.110	1505.993	1154.119
180.140	17.133	1504.812	1153.266
181.154	17.143	1504.131	1152.713
182.169	17.167	1502.662	1151.644
183.183	17.201	1502.174	1151.400
184.198	17.294	1501.023	1151.045
185.213	17.305	1499.973	1150.216
186.227	17.394	1498.711	1149.747
187.242	17.244	1498.104	1148.165
188.256	17.370	1496.907	1147.995
189.271	17.363	1496.059	1147.200
190.286	17.437	1495.291	1147.008
191.300	17.348	1493.869	1145.211
192.315	17.204	1492.354	1142.983
193.329	17.000	1490.831	1140.344
194.344	17.068	1489.103	1139.376
195.359	17.057	1488.136	1138.462
196.373	17.116	1488.047	1138.691
197.388	17.201	1486.789	1138.199
198.402	17.310	1485.723	1138.011
199.417	17.502	1484.582	1138.321
200.432	17.484	1483.903	1137.577
201.446	17.576	1483.649	1137.895
202.461	17.693	1481.857	1137.200
203.475	17.715	1481.067	1136.644
204.490	17.791	1479.601	1135.923
205.504	17.731	1478.724	1134.750
206.519	17.627	1477.100	1132.711
207.534	17.526	1476.313	1131.336
208.548	17.457	1475.225	1129.945
209.563	17.498	1474.109	1129.264
210.577	17.549	1472.561	1128.310
211.592	17.564	1471.758	1127.698
212.607	17.455	1471.966	1127.035
213.621	17.710	1470.670	1127.631
214.636	17.797	1469.898	1127.511
215.650	17.621	1468.948	1125.526
216.665	17.676	1467.948	1125.017
217.680	17.661	1467.292	1124.321
218.694	17.765	1466.567	1124.351
219.709	17.798	1465.622	1123.745
220.723	17.796	1464.763	1122.970
221.738	17.880	1463.118	1122.164
222.753	17.754	1462.738	1120.945
223.767	17.768	1461.703	1120.147
224.782	17.804	1460.662	1119.482
225.796	17.894	1459.833	1119.337
226.811	17.868	1458.990	1118.421
227.826	17.880	1458.418	1117.966
228.840	17.899	1457.551	1117.329
229.855	17.834	1455.842	1115.491
230.869	17.855	1455.075	1114.943
231.884	17.831	1454.475	1114.228
232.899	17.844	1452.718	1112.869
233.913	17.749	1451.986	1111.590
234.928	17.783	1450.351	1110.461
235.942	17.822	1449.155	1109.701
236.957	17.639	1447.957	1107.498
237.972	17.743	1446.740	1107.138
238.986	17.806	1445.519	1106.516
240.001	17.762	1445.145	1105.850
241.015	17.771	1443.880	1104.843
242.030	17.816	1442.702	1104.131
243.045	17.844	1442.320	1103.923
244.059	17.984	1440.815	1103.579
245.074	17.884	1440.267	1102.416
246.088	17.999	1439.234	1102.272
247.103	18.097	1438.794	1102.468
248.117	18.071	1437.772	1101.421
249.132	18.122	1437.301	1101.287
250.147	18.172	1436.958	1101.249
251.161	18.365	1435.714	1101.444
252.176	18.406	1435.265	1101.264
253.190	18.521	1434.441	1101.269
254.205	18.425	1433.583	1099.898
255.220	18.529	1432.840	1099.898
256.234	18.568	1431.749	1099.212
257.249	18.583	1430.936	1098.588
258.263	18.511	1430.516	1097.709
259.278	18.625	1428.810	1097.032
260.293	18.505	1428.578	1095.991
261.307	18.518	1427.855	1095.419
262.322	18.625	1426.914	1095.288
263.336	18.677	1426.305	1095.054
264.351	18.565	1425.133	1093.341
265.366	18.741	1423.869	1093.397
266.380	18.825	1422.652	1092.899
267.395	18.720	1422.483	1092.002
268.409	18.639	1421.583	1090.701
269.424	18.688	1420.267	1089.905
270.439	18.523	1419.333	1088.046
271.453	18.646	1417.929	1087.656
272.468	18.643	1417.446	1087.169
273.482	18.624	1416.787	1086.449
274.497	18.657	1415.496	1085.567
275.512	18.562	1414.588	1084.174
276.526	18.619	1413.896	1083.912
277.541	18.669	1412.551	1083.098
278.555	18.563	1412.393	1082.210
279.570	18.613	1411.126	1081.459
280.585	18.767	1410.084	1081.538
281.599	18.749	1409.580	1080.942
282.614	18.914	1408.312	1080.914
283.628	18.838	1407.710	1079.875
284.643	18.642	1406.542	1077.656
285.657	18.819	1404.984	1077.475
286.672	18.738	1404.055	1076.158
287.687	18.751	1403.501	1075.723
288.701	18.728	1402.271	1074.540
289.716	18.713	1401.931	1074.088
290.730	18.877	1400.813	1074.164
291.745	18.709	1400.121	1072.486
292.760	18.860	1398.637	1072.200
293.774	18.849	1397.748	1071.353
294.789	18.938	1396.833	1071.109
295.803	18.969	1396.230	1070.745
296.818	19.050	1395.371	1070.496
297.833	18.933	1394.430	1068.956
298.847	18.932	1393.075	1067.816
299.862	18.894	1392.111	1066.743
300.876	18.882	1391.532	1066.132
301.891	18.944	1390.020	1065.264
302.906	19.001	1389.668	1065.251
303.920	19.020	1388.870	1064.666
304.935	19.105	1388.464	1064.782
305.949	19.130	1387.645	1064.217
306.964	19.208	1386.588	1063.795
307.979	19.384	1385.817	1064.192
308.993	19.166	1384.918	1062.064
310.008	19.155	1384.108	1061.283
311.022	19.182	1382.871	1060.404
312.037	19.310	1381.988	1060.423
313.052	19.303	1380.925	1059.468
314.066	19.331	1379.775	1058.667
315.081	19.146	1378.816	1056.704
316.095	19.028	1377.574	1054.934
317.110	19.055	1376.408	1054.115
318.125	19.048	1375.481	1053.269
319.139	19.090	1374.778	1052.894
320.154	19.057	1373.672	1051.748
321.168	19.067	1372.720	1050.987
322.183	19.143	1371.512	1050.434
323.197	19.140	1370.132	1049.269
324.212	19.141	1369.890	1048.993
325.227	19.175	1369.217	1048.594
326.241	19.270	1367.893	1048.066
327.256	19.189	1367.638	1047.285
328.270	19.202	1366.602	1046.474
329.285	19.215	1365.741	1045.805
330.300	19.152	1364.882	1044.673
331.314	19.179	1364.180	1044.208
332.329	19.280	1362.657	1043.558
333.343	19.233	1362.163	1042.805
334.358	19.158	1361.565	1041.800
335.373	19.346	1360.867	1042.313
336.387	19.208	1359.910	1040.651
337.402	19.382	1359.122	1041.008
338.416	19.410	1358.189	1040.371
339.431	19.441	1357.622	1040.032
340.446	19.450	1357.114	1039.603
341.460	19.535	1356.315	1039.412
342.475	19.563	1355.202	1038.636
343.489	19.605	1354.477	1038.238
344.504	19.638	1353.611	1037.683
345.519	19.724	1352.620	1037.344
346.533	19.856	1351.504	1037.190
347.548	19.847	1350.609	1036.358
348.562	19.882	1349.859	1035.896
349.577	19.896	1349.120	1035.324
350.592	19.866	1347.947	1034.153
351.606	19.639	1347.134	1032.082
352.621	19.498	1346.187	1030.422
353.635	19.591	1345.097	1030.054
354.650	19.548	1344.171	1028.998
355.665	19.501	1343.333	1027.981
356.679	19.615	1342.068	1027.604
357.694	19.600	1341.232	1026.783
358.708	19.692	1339.996	1026.294
359.723	19.769	1338.741	1025.695
360.738	19.810	1337.656	1025.017
361.752	19.792	1336.713	1024.097
362.767	19.763	1335.871	1023.188
363.781	19.790	1334.686	1022.350
364.796	19.853	1334.430	1022.439
365.810	19.835	1333.628	1021.627
366.825	19.855	1333.149	1021.286
367.840	20.048	1332.400	1021.759
368.854	20.107	1331.541	1021.360
369.869	20.123	1331.135	1021.053
370.883	20.196	1330.652	1021.022
371.898	20.118	1329.749	1019.778
372.913	20.011	1328.531	1018.123
373.927	20.035	1327.879	1017.676
374.942	19.998	1326.990	1016.687
375.956	20.118	1326.375	1016.832
376.971	20.164	1325.605	1016.420
377.986	20.165	1324.562	1015.538
379.000	20.164	1323.732	1014.806
380.015	20.211	1323.512	1014.822
381.029	20.223	1322.596	1014.101
382.044	20.365	1321.626	1014.098
383.059	20.365	1321.045	1013.560
384.073	20.337	1320.279	1012.717
385.088	20.285	1319.568	1011.780
386.102	20.326	1319.247	1011.682
387.117	20.403	1318.153	1011.201
388.132	20.239	1317.389	1009.573
389.146	20.286	1316.302	1008.925
390.161	20.217	1315.444	1007.775
391.175	20.324	1314.531	1007.612
392.190	20.258	1313.783	1006.565
393.205	20.270	1313.054	1005.988
394.219	20.373	1312.036	1005.713
395.234	20.414	1310.847	1004.949
396.248	20.343	1309.518	1003.432
397.263	20.253	1308.302	1001.894
398.278	20.166	1307.275	1000.513
399.292	20.286	1305.867	1000.039
400.307	20.205	1304.892	998.742
401.321	20.211	1303.558	997.667
402.336	20.164	1302.581	996.561
403.350	20.260	1301.640	996.305
404.365	20.194	1301.173	995.475
405.380	20.169	1299.815	994.206
406.394	20.246	1298.984	993.925
407.409	20.372	1298.059	993.850
408.423	20.446	1297.795	993.983
409.438	20.443	1297.408	993.583
410.453	20.565	1296.596	993.571
411.467	20.678	1295.736	993.470
412.482	20.553	1295.609	992.570
413.496	20.599	1294.861	992.173
414.511	20.660	1293.665	991.513
415.526	20.814	1292.396	991.330
416.540	20.851	1292.118	991.238
417.555	20.899	1291.306	990.803
418.569	20.741	1291.121	989.674
419.584	20.855	1290.526	989.775
420.599	20.878	1289.626	989.129
421.613	138.169	1426.187	1769.836
422.628	133.540	1446.132	1769.950
