DTS Sentinel unit serial number:	SN413079Multiplexer serial number:	ORYXHardware model number:	OX4-SRSoftware version number:	ORYX F/W v4.00 Oryx Data Collector v3.7.2.0data status	okinstallation	princeton_trtdifferential loss correction	single-endedforward channel	channel 4reverse channel	N/Adate	2019/09/14time	23:01:35forward acquisition time	60.00reverse acquisition time	0.00gamma	496.2192k internal	0.2306k external	0.2306temperature offset calibration	1.0059default loss term (dB/km)	0.3790temperature slope calibration	1.0000multiplexer offset coefficient	1.0000multiplexer slope coefficient	1.0000fibre end	0.00T internal ref (°C)	32.44T ext. ref 1 (°C)	4.69T ext. ref 2 (°C)	27.45length (m)	temperature (°C)	Stokes	anti-Stokes-747.200	359.916	-0.127	0.259
-746.185	87.511	-0.311	0.350
-745.171	232.119	0.183	0.306
-744.156	-134.360	-0.134	0.017
-743.142	-32.569	0.019	0.011
-742.127	-200.000	0.089	0.397
-741.112	431.717	-0.096	-0.212
-740.098	-200.000	-0.084	0.434
-739.083	-13.395	-0.329	-0.217
-738.069	800.000	-0.085	0.351
-737.054	-55.617	0.233	-0.106
-736.039	-28.765	-0.242	-0.142
-735.025	36.888	0.134	-0.120
-734.010	275.085	-0.072	0.130
-732.996	286.773	-0.118	-0.216
-731.981	-70.857	-0.220	-0.084
-730.966	-200.000	-0.004	-0.124
-729.952	800.000	0.086	-0.244
-728.937	7.544	-0.277	-0.210
-727.923	-142.766	0.185	0.018
-726.908	2.657	0.256	-0.189
-725.894	-1.924	0.179	0.128
-724.879	-54.420	0.031	-0.014
-723.864	104.608	0.046	-0.055
-722.850	-103.624	0.355	-0.085
-721.835	-76.736	0.187	-0.066
-720.821	346.490	-0.205	-0.409
-719.806	-200.000	0.038	-0.199
-718.791	-116.835	-0.363	0.068
-717.777	-48.160	-0.219	-0.107
-716.762	45.902	-0.121	-0.113
-715.748	94.900	-0.159	0.184
-714.733	-29.985	-0.164	-0.095
-713.718	-73.454	-0.184	-0.068
-712.704	-99.928	0.251	0.064
-711.689	-107.592	0.473	0.105
-710.675	-127.194	-0.237	-0.035
-709.660	12.113	-0.094	0.073
-708.645	55.520	-0.175	0.172
-707.631	800.000	-0.044	-0.125
-706.616	-57.754	0.085	-0.038
-705.602	-200.000	0.052	-0.355
-704.587	-36.433	0.144	-0.079
-703.572	-60.261	-0.191	0.083
-702.558	447.770	-0.109	0.244
-701.543	242.594	-0.128	0.217
-700.529	-22.832	0.090	-0.055
-699.514	-149.495	-0.241	0.019
-698.499	281.889	-0.133	-0.243
-697.485	-37.984	-0.357	-0.193
-696.470	-136.919	-0.205	0.024
-695.456	90.178	-0.120	-0.136
-694.441	-200.000	-0.127	-0.617
-693.426	378.474	0.113	-0.235
-692.412	118.727	-0.054	0.067
-691.397	-71.538	-0.256	0.097
-690.383	-111.944	-0.312	-0.064
-689.368	-200.000	-0.003	0.089
-688.354	-173.095	0.265	0.008
-687.339	99.771	-0.195	-0.230
-686.324	198.231	0.120	0.186
-685.310	-154.699	-0.351	0.024
-684.295	-200.000	-0.013	-0.086
-683.281	-64.035	-0.045	-0.018
-682.266	-62.558	0.240	-0.101
-681.251	599.452	0.088	0.222
-680.237	-31.183	0.175	0.100
-679.222	-121.529	0.232	0.039
-678.208	-68.163	0.040	0.016
-677.193	-200.000	0.020	0.266
-676.178	397.997	-0.046	-0.099
-675.164	588.138	0.094	-0.236
-674.149	302.409	-0.033	-0.063
-673.135	-200.000	-0.042	0.326
-672.120	638.436	-0.058	0.149
-671.105	800.000	-0.101	-0.296
-670.091	-135.663	-0.372	-0.045
-669.076	175.889	-0.196	0.288
-668.062	-114.299	-0.393	-0.077
-667.047	164.904	0.189	0.271
-666.032	-116.760	-0.256	0.048
-665.018	-200.000	-0.018	-0.169
-664.003	66.894	0.139	0.143
-662.989	44.071	0.064	0.059
-661.974	273.307	-0.199	-0.356
-660.959	-103.920	-0.029	0.007
-659.945	353.181	0.232	0.467
-658.930	-121.755	0.067	0.011
-657.916	140.405	0.249	-0.333
-656.901	177.032	0.121	-0.179
-655.886	-86.156	-0.142	-0.044
-654.872	-200.000	0.016	0.287
-653.857	32.814	0.137	0.120
-652.843	105.868	0.029	0.035
-651.828	714.032	-0.047	0.126
-650.814	-176.972	0.311	-0.008
-649.799	-55.185	-0.122	0.056
-648.784	-41.198	-0.307	-0.161
-647.770	386.078	0.071	-0.149
-646.755	-200.000	0.168	0.000
-645.741	-200.000	-0.007	-0.163
-644.726	712.393	-0.081	0.217
-643.711	-200.000	0.001	-0.095
-642.697	302.477	-0.127	-0.239
-641.682	800.000	0.046	-0.156
-640.668	166.208	0.192	-0.276
-639.653	-126.269	0.060	-0.009
-638.638	-74.653	-0.199	-0.072
-637.624	-200.000	-0.010	-0.304
-636.609	-142.853	-0.337	-0.033
-635.595	338.614	-0.055	0.109
-634.580	62.536	0.168	-0.170
-633.565	431.720	-0.052	-0.114
-632.551	-126.060	-0.315	-0.048
-631.536	-200.000	-0.015	-0.213
-630.522	638.764	-0.041	-0.105
-629.507	-27.688	-0.214	-0.126
-628.492	32.235	0.131	0.114
-627.478	-60.454	0.154	0.066
-626.463	-200.000	0.038	-0.189
-625.449	311.446	0.175	-0.333
-624.434	-200.000	-0.020	0.128
-623.419	-200.000	-0.007	-0.064
-622.405	-200.000	-0.068	0.304
-621.390	-55.536	0.115	0.052
-620.376	-80.446	0.098	0.033
-619.361	-5.725	0.093	-0.065
-618.346	-32.764	-0.152	0.085
-617.332	43.295	-0.430	-0.398
-616.317	-193.344	-0.193	0.002
-615.303	-55.539	-0.098	0.045
-614.288	-143.629	-0.299	0.029
-613.273	-31.729	-0.161	0.092
-612.259	117.884	-0.052	-0.065
-611.244	-88.604	-0.209	-0.063
-610.230	-101.192	-0.227	0.056
-609.215	-200.000	-0.004	-0.220
-608.201	154.592	-0.063	0.088
-607.186	-200.000	-0.022	-0.397
-606.171	21.083	-0.132	-0.108
-605.157	-105.281	-0.310	-0.072
-604.142	-55.596	0.093	-0.042
-603.128	-151.250	-0.307	0.023
-602.113	444.596	0.030	0.067
-601.098	-105.932	0.420	0.096
-600.084	-10.901	-0.095	0.064
-599.069	335.789	0.139	0.273
-598.055	-3.834	0.236	0.166
-597.040	-14.041	-0.405	-0.264
-596.025	15.273	0.226	-0.180
-595.011	800.000	-0.103	-0.376
-593.996	800.000	0.072	-0.248
-592.982	-37.518	-0.147	0.080
-591.967	800.000	-0.070	0.203
-590.952	-92.744	0.353	0.100
-589.938	451.071	0.085	-0.189
-588.923	521.304	-0.039	0.093
-587.909	-26.283	-0.234	0.139
-586.894	74.239	-0.028	0.030
-585.879	-34.224	0.224	0.124
-584.865	-142.784	-0.245	0.024
-583.850	-200.000	0.029	0.408
-582.836	-74.115	0.187	-0.068
-581.821	234.520	-0.061	0.102
-580.806	-200.000	-0.010	-0.163
-579.792	-164.403	-0.166	0.008
-578.777	59.470	-0.108	-0.107
-577.763	21.843	0.083	0.068
-576.748	-200.000	0.007	-0.150
-575.733	302.200	0.028	-0.053
-574.719	44.332	-0.203	-0.188
-573.704	-57.146	0.260	-0.116
-572.690	220.157	-0.044	0.071
-571.675	65.695	0.268	0.274
-570.661	701.552	-0.115	-0.307
-569.646	31.255	-0.161	-0.140
-568.631	316.871	0.114	-0.218
-567.617	199.880	-0.157	-0.243
-566.602	-31.827	0.120	-0.068
-565.588	-146.599	-0.293	-0.026
-564.573	-20.178	-0.306	0.191
-563.558	-8.635	0.228	-0.155
-562.544	-94.383	-0.163	-0.045
-561.529	-36.750	-0.144	-0.078
-560.515	-178.444	-0.150	0.004
-559.500	800.000	0.055	-0.234
-558.485	494.643	0.182	-0.422
-557.471	-67.908	-0.276	0.109
-556.456	380.767	0.067	0.140
-555.442	-43.682	-0.170	0.087
-554.427	66.775	-0.025	0.026
-553.412	179.196	0.095	-0.140
-552.398	-20.007	-0.380	0.237
-551.383	-49.428	0.079	-0.038
-550.369	-2.417	0.190	0.134
-549.354	87.727	0.151	0.169
-548.339	-63.317	0.166	-0.069
-547.325	800.000	-0.082	0.268
-546.310	-72.568	0.261	-0.097
-545.296	106.460	0.090	0.107
-544.281	-200.000	0.044	0.233
-543.266	-102.595	-0.056	-0.013
-542.252	800.000	0.095	0.277
-541.237	-133.712	0.062	-0.008
-540.223	-135.228	-0.249	-0.030
-539.208	800.000	-0.025	0.072
-538.193	-200.000	0.010	-0.064
-537.179	800.000	-0.015	0.050
-536.164	800.000	0.036	-0.150
-535.150	-76.547	0.306	-0.108
-534.135	66.830	-0.075	0.077
-533.121	800.000	0.024	0.094
-532.106	205.249	-0.185	-0.290
-531.091	-73.896	-0.211	-0.077
-530.077	800.000	0.041	0.160
-529.062	-200.000	-0.028	-0.127
-528.048	-200.000	0.039	-0.272
-527.033	-136.258	-0.240	0.028
-526.018	526.458	0.120	-0.284
-525.004	158.865	0.054	-0.076
-523.989	214.461	-0.073	0.117
-522.975	-172.682	-0.157	0.005
-521.960	253.063	-0.055	-0.094
-520.945	20.672	0.183	-0.149
-519.931	47.953	-0.063	-0.060
-518.916	800.000	-0.012	-0.046
-517.902	489.393	0.106	0.245
-516.887	-200.000	0.033	-0.461
-515.872	-68.711	0.198	-0.077
-514.858	-200.000	0.001	-0.041
-513.843	125.265	0.134	-0.170
-512.829	-25.037	-0.158	0.094
-511.814	-115.992	0.234	0.044
-510.799	26.128	-0.240	0.202
-509.785	-96.117	0.062	0.017
-508.770	-5.860	0.077	0.053
-507.756	267.497	-0.106	0.187
-506.741	265.263	0.120	0.210
-505.726	101.522	0.216	0.253
-504.712	780.712	0.026	0.072
-503.697	-95.871	-0.310	0.083
-502.683	45.272	-0.155	-0.144
-501.668	427.271	0.081	0.175
-500.653	279.073	0.087	0.157
-499.639	21.205	0.293	0.240
-498.624	34.578	-0.339	0.299
-497.610	79.148	-0.118	-0.128
-496.595	-200.000	-0.079	-0.428
-495.581	47.515	-0.160	0.150
-494.566	-70.983	-0.338	-0.128
-493.551	800.000	0.010	0.035
-492.537	252.583	0.104	0.179
-491.522	-19.950	0.352	-0.219
-490.508	-200.000	0.014	-0.081
-489.493	36.124	0.142	-0.126
-488.478	32.491	0.173	0.151
-487.464	188.731	0.047	-0.071
-486.449	36.032	-0.220	0.195
-485.435	800.000	-0.176	-0.518
-484.420	-75.204	0.196	-0.071
-483.405	-12.558	-0.015	0.010
-482.391	-200.000	0.009	-0.148
-481.376	-200.000	-0.014	-0.164
-480.362	-92.085	-0.448	0.127
-479.347	-60.952	-0.210	0.089
-478.332	14.276	0.203	0.159
-477.318	-200.000	0.093	0.416
-476.303	-200.000	-0.039	0.323
-475.289	-65.043	0.380	0.154
-474.274	-200.000	-0.032	-0.185
-473.259	-200.000	0.023	-0.352
-472.245	-88.176	-0.156	-0.047
-471.230	-72.640	0.246	-0.091
-470.216	800.000	0.016	-0.061
-469.201	123.009	-0.052	-0.066
-468.186	444.647	-0.116	0.257
-467.172	28.407	0.055	-0.047
-466.157	-159.808	0.350	0.019
-465.143	-46.619	-0.193	0.095
-464.128	-68.712	-0.193	0.075
-463.113	43.464	-0.338	-0.311
-462.099	273.844	-0.137	0.245
-461.084	137.552	0.133	0.176
-460.070	-80.928	0.167	-0.056
-459.055	-45.392	0.047	0.024
-458.040	-175.914	-0.213	-0.006
-457.026	-200.000	0.069	-0.364
-456.011	265.422	-0.088	0.155
-454.997	-200.000	-0.060	-0.428
-453.982	178.149	-0.161	0.236
-452.968	-200.000	0.058	-0.390
-451.953	-88.921	0.152	-0.045
-450.938	-195.385	-0.073	0.001
-449.924	-70.529	-0.128	-0.049
-448.909	23.051	0.270	-0.223
-447.895	213.435	-0.130	-0.206
-446.880	-146.657	0.287	0.025
-445.865	-200.000	-0.068	0.439
-444.851	-58.039	0.113	-0.050
-443.836	496.593	0.048	-0.111
-442.822	73.953	-0.324	-0.342
-441.807	-113.038	0.435	-0.086
-440.792	360.919	0.101	0.204
-439.778	38.254	0.058	0.052
-438.763	149.307	-0.135	-0.184
-437.749	-82.948	0.089	-0.029
-436.734	654.975	0.041	0.105
-435.719	-200.000	-0.021	0.136
-434.705	39.284	-0.196	0.176
-433.690	-86.358	-0.165	0.051
-432.676	-74.738	-0.251	0.091
-431.661	113.359	0.019	0.023
-430.646	-29.152	0.400	0.230
-429.632	-200.000	0.012	-0.357
-428.617	-156.037	-0.316	-0.020
-427.603	59.959	-0.197	0.195
-426.588	800.000	0.091	0.318
-425.573	141.636	-0.094	0.125
-424.559	322.492	-0.099	0.189
-423.544	218.989	0.302	0.485
-422.530	80.017	0.329	-0.355
-421.515	-200.000	0.000	-0.536
-420.500	-152.147	0.470	0.034
-419.486	53.648	-0.310	-0.299
-418.471	-56.155	-0.232	-0.104
-417.457	-42.626	-0.208	0.106
-416.442	500.590	-0.009	-0.021
-415.428	800.000	0.135	0.391
-414.413	50.540	0.011	-0.010
-413.398	199.496	-0.057	-0.089
-412.384	75.086	-0.149	0.158
-411.369	277.970	0.177	-0.316
-410.355	-82.436	0.090	-0.029
-409.340	-47.536	-0.142	-0.069
-408.325	-200.000	0.045	0.308
-407.311	-200.000	-0.016	-0.133
-406.296	24.751	-0.030	-0.025
-405.282	800.000	0.048	-0.170
-404.267	-200.000	0.024	-0.107
-403.252	800.000	-0.075	-0.219
-402.238	800.000	0.052	0.220
-401.223	211.361	-0.112	0.177
-400.209	145.080	0.215	0.289
-399.194	103.716	0.150	0.177
-398.179	-1.979	0.141	0.100
-397.165	-68.629	-0.105	-0.041
-396.150	183.720	0.041	0.061
-395.136	15.932	0.230	-0.182
-394.121	-5.362	-0.171	0.118
-393.106	800.000	0.087	-0.327
-392.092	-200.000	0.039	0.192
-391.077	-117.284	-0.061	-0.011
-390.063	-45.275	0.219	-0.109
-389.048	-34.354	0.251	0.138
-388.033	800.000	0.048	0.151
-387.019	793.556	-0.051	-0.139
-386.004	39.209	-0.117	-0.105
-384.990	237.120	-0.076	0.127
-383.975	142.214	0.106	-0.141
-382.960	800.000	-0.035	0.129
-381.946	536.813	0.039	0.092
-380.931	800.000	0.042	-0.117
-379.917	-9.446	0.215	0.144
-378.902	-39.550	-0.214	0.112
-377.888	231.027	0.094	0.154
-376.873	57.676	0.131	0.128
-375.858	219.310	0.330	0.529
-374.844	-42.904	0.059	-0.030
-373.829	-200.000	0.066	0.321
-372.815	159.657	0.129	-0.180
-371.800	123.301	0.009	0.011
-370.785	24.686	0.220	-0.183
-369.771	-200.000	-0.001	0.140
-368.756	-83.185	0.252	0.081
-367.742	20.274	-0.107	-0.087
-366.727	-95.819	-0.183	0.049
-365.712	-127.072	-0.131	0.019
-364.698	-51.715	0.042	0.020
-363.683	-200.000	0.024	0.243
-362.669	-10.452	0.274	0.182
-361.654	22.862	-0.077	-0.063
-360.639	370.716	-0.172	-0.349
-359.625	-22.070	-0.284	0.173
-358.610	-78.098	-0.048	-0.016
-357.596	60.531	-0.091	-0.091
-356.581	-200.000	-0.022	-0.136
-355.566	18.138	0.221	0.177
-354.552	-200.000	-0.018	-0.193
-353.537	-64.291	0.358	-0.146
-352.523	294.214	-0.185	-0.339
-351.508	92.438	-0.054	-0.061
-350.493	-160.218	-0.092	0.005
-349.479	800.000	-0.114	0.318
-348.464	55.476	0.314	-0.304
-347.450	17.776	-0.148	0.118
-346.435	-174.563	-0.314	-0.009
-345.420	-81.335	0.161	-0.053
-344.406	-200.000	-0.002	-0.232
-343.391	800.000	0.082	-0.281
-342.377	-200.000	-0.017	-0.098
-341.362	-95.291	-0.124	-0.033
-340.348	-200.000	-0.019	-0.213
-339.333	132.564	0.090	-0.116
-338.318	95.918	0.264	0.302
-337.304	69.392	-0.096	0.099
-336.289	-111.059	0.064	-0.013
-335.275	-56.406	0.250	0.111
-334.260	-31.810	-0.272	-0.153
-333.245	318.179	0.104	0.197
-332.231	403.507	-0.124	0.260
-331.216	800.000	-0.050	0.164
-330.202	-200.000	-0.025	-0.137
-329.187	13.111	0.046	0.035
-328.172	4.905	0.108	0.079
-327.158	-4.401	-0.312	-0.216
-326.143	-123.184	0.264	-0.042
-325.129	286.253	0.064	0.115
-324.114	-25.288	0.324	0.192
-323.099	34.992	0.165	-0.145
-322.085	282.903	0.111	-0.200
-321.070	-115.097	-0.036	-0.007
-320.056	82.657	0.266	-0.289
-319.041	553.236	-0.093	0.225
-318.026	-200.000	-0.030	0.266
-317.012	17.813	-0.285	0.227
-315.997	89.968	-0.286	0.320
-314.983	-200.000	-0.004	-0.076
-313.968	158.392	0.071	-0.099
-312.953	-200.000	0.039	0.181
-311.939	-133.135	-0.313	0.040
-310.924	-23.806	0.240	0.144
-309.910	-177.051	-0.086	0.002
-308.895	157.368	0.101	-0.140
-307.880	76.910	-0.279	-0.296
-306.866	106.813	0.367	0.436
-305.851	43.653	0.157	0.144
-304.837	-200.000	0.033	-0.173
-303.822	-140.878	-0.295	-0.030
-302.807	-148.227	-0.253	0.021
-301.793	-74.087	0.291	0.105
-300.778	32.663	-0.297	-0.257
-299.764	66.080	-0.165	-0.167
-298.749	363.790	0.128	0.257
-297.735	576.435	0.085	-0.207
-296.720	-82.057	-0.378	0.123
-295.705	414.475	0.132	0.280
-294.691	-200.000	0.032	0.244
-293.676	74.772	0.099	-0.104
-292.662	-192.703	-0.221	0.002
-291.647	224.187	-0.101	0.163
-290.632	-200.000	-0.003	0.348
-289.618	694.691	-0.194	-0.509
-288.603	658.350	-0.020	0.053
-287.589	212.450	0.069	0.109
-286.574	79.875	-0.283	0.304
-285.559	-137.638	0.122	0.014
-284.545	-71.597	0.061	-0.023
-283.530	546.219	0.127	0.303
-282.516	-149.314	-0.187	-0.015
-281.501	-103.653	0.330	0.077
-280.486	800.000	-0.004	0.013
-279.472	-167.429	0.372	-0.015
-278.457	78.525	0.245	0.262
-277.443	174.477	0.028	-0.041
-276.428	-15.210	0.188	0.120
-275.413	-52.874	-0.159	-0.073
-274.399	-87.938	-0.231	0.069
-273.384	403.516	-0.058	0.122
-272.370	25.234	0.100	-0.083
-271.355	-200.000	0.010	0.121
-270.340	800.000	0.048	-0.176
-269.326	-113.151	-0.084	-0.017
-268.311	200.223	-0.129	-0.198
-267.297	-80.444	0.044	0.015
-266.282	-170.139	0.150	0.005
-265.267	160.267	0.090	0.126
-264.253	-200.000	0.006	-0.099
-263.238	-82.986	0.157	-0.050
-262.224	109.240	-0.102	-0.121
-261.209	800.000	0.019	-0.065
-260.195	-114.281	0.180	0.035
-259.180	-200.000	0.103	0.479
-258.165	11.740	-0.211	0.162
-257.151	800.000	-0.125	0.368
-256.136	-200.000	0.035	0.187
-255.122	239.786	0.066	-0.109
-254.107	-39.889	-0.161	-0.084
-253.092	-61.366	-0.259	0.109
-252.078	-124.422	0.122	0.019
-251.063	-165.794	-0.071	-0.003
-250.049	89.092	0.114	-0.126
-249.034	486.596	0.085	0.193
-248.019	800.000	-0.064	0.204
-247.005	132.641	0.103	0.132
-245.990	132.253	0.130	0.168
-244.976	-82.417	0.400	-0.130
-243.961	65.192	-0.082	0.083
-242.946	370.298	-0.034	-0.068
-241.932	800.000	0.121	0.481
-240.917	-92.036	0.099	-0.028
-239.903	566.669	-0.086	0.207
-238.888	188.941	-0.076	0.114
-237.873	-124.438	0.188	-0.029
-236.859	-28.391	0.268	0.154
-235.844	-147.055	-0.133	0.011
-234.830	195.951	-0.151	-0.229
-233.815	-79.736	0.172	-0.058
-232.800	49.582	0.093	-0.087
-231.786	-90.490	-0.263	-0.076
-230.771	432.350	-0.131	0.283
-229.757	476.427	0.168	-0.378
-228.742	-104.781	-0.490	0.112
-227.727	-135.834	-0.242	0.028
-226.713	-200.000	0.013	-0.317
-225.698	21.131	-0.303	-0.245
-224.684	69.133	0.017	0.017
-223.669	-66.741	-0.075	0.030
-222.655	261.003	0.181	-0.313
-221.640	-150.814	-0.464	-0.035
-220.625	-113.148	0.298	-0.059
-219.611	11.248	0.272	-0.208
-218.596	-200.000	-0.058	-0.383
-217.582	-200.000	0.029	-0.319
-216.567	-124.946	0.251	-0.039
-215.552	474.456	-0.104	-0.234
-214.538	800.000	0.050	0.180
-213.523	202.455	-0.083	0.127
-212.509	-152.227	0.127	-0.009
-211.494	168.548	-0.039	-0.055
-210.479	4.339	0.251	-0.183
-209.465	-200.000	0.025	0.163
-208.450	-61.970	0.239	-0.099
-207.436	-200.000	0.001	-0.348
-206.421	-200.000	0.034	-0.210
-205.406	-16.345	-0.184	0.117
-204.392	707.324	0.031	-0.081
-203.377	754.414	0.110	-0.295
-202.363	18.650	0.116	-0.093
-201.348	-51.054	0.225	-0.105
-200.333	140.734	0.212	-0.279
-199.319	-200.000	0.095	0.584
-198.304	-200.000	-0.026	0.232
-197.290	-87.273	0.137	-0.041
-196.275	800.000	-0.030	-0.106
-195.260	-38.415	0.191	0.101
-194.246	496.853	0.026	0.059
-193.231	-128.620	0.284	0.040
-192.217	288.552	0.136	-0.245
-191.202	-200.000	-0.044	-0.332
-190.187	-165.235	-0.154	-0.007
-189.173	126.749	-0.097	-0.123
-188.158	800.000	0.123	-0.525
-187.144	75.743	-0.098	-0.103
-186.129	121.510	-0.169	0.209
-185.114	-100.839	0.118	0.029
-184.100	73.743	-0.028	-0.029
-183.085	-200.000	0.011	-0.241
-182.071	-118.188	-0.119	-0.021
-181.056	-77.071	-0.212	-0.074
-180.042	-200.000	0.027	0.291
-179.027	177.676	0.016	-0.023
-178.012	185.153	0.073	-0.108
-176.998	-16.271	-0.112	-0.071
-175.983	800.000	-0.048	0.177
-174.969	-81.520	-0.267	0.087
-173.954	532.732	0.158	0.373
-172.939	-116.122	0.397	-0.073
-171.925	800.000	-0.022	-0.068
-170.910	11.370	0.098	0.075
-169.896	800.000	0.101	0.433
-168.881	-200.000	0.040	0.392
-167.866	61.593	-0.185	0.183
-166.852	3.299	-0.089	0.064
-165.837	208.858	0.161	-0.251
-164.823	800.000	-0.054	-0.219
-163.808	-200.000	-0.037	0.261
-162.793	361.210	-0.035	-0.070
-161.779	-200.000	0.033	-0.272
-160.764	-200.000	-0.022	0.392
-159.750	286.339	0.145	0.259
-158.735	8.413	0.324	0.242
-157.720	-8.491	-0.366	0.245
-156.706	-200.000	-0.016	-0.315
-155.691	-200.000	0.014	0.081
-154.677	8.345	-0.213	0.159
-153.662	800.000	0.099	0.365
-152.647	800.000	-0.159	0.464
-151.633	424.878	0.038	-0.082
-150.618	194.351	-0.128	-0.193
-149.604	-200.000	-0.030	0.238
-148.589	15.558	0.118	-0.092
-147.574	800.000	-0.037	0.159
-146.560	562.085	-0.109	-0.263
-145.545	35.660	-0.348	0.304
-144.531	-57.747	0.308	0.134
-143.516	421.641	-0.105	0.223
-142.502	288.352	-0.047	-0.085
-141.487	291.669	0.116	0.210
-140.472	8.587	0.045	0.034
-139.458	-184.089	0.237	-0.004
-138.443	-7.997	0.119	0.080
-137.429	-200.000	-0.021	0.182
-136.414	2.961	0.070	-0.051
-135.399	-37.726	0.247	0.131
-134.385	-72.835	-0.197	0.072
-133.370	-200.000	0.027	-0.132
-132.356	367.736	-0.174	0.350
-131.341	-200.000	-0.010	-0.107
-130.326	663.368	0.033	0.084
-129.312	-3.830	0.067	-0.047
-128.297	-178.921	-0.313	-0.007
-127.283	-24.056	-0.275	-0.163
-126.268	314.742	0.053	-0.098
-125.253	12.628	-0.183	0.140
-124.239	97.103	-0.105	0.120
-123.224	-200.000	-0.004	-0.091
-122.210	-197.996	0.369	0.002
-121.195	138.698	0.177	0.231
-120.180	231.226	-0.075	-0.122
-119.166	43.596	-0.276	-0.250
-118.151	-65.582	-0.113	-0.045
-117.137	-170.242	0.201	-0.007
-116.122	800.000	0.033	-0.098
-115.107	-72.794	0.225	0.082
-114.093	693.538	-0.026	0.068
-113.078	190.675	0.010	-0.016
-112.064	-43.763	0.293	-0.146
-111.049	-145.694	0.348	0.031
-110.034	88.176	-0.096	-0.105
-109.020	-200.000	-0.039	0.440
-108.005	-200.000	0.039	0.496
-106.991	270.432	0.113	0.197
-105.976	-118.961	-0.151	-0.026
-104.962	20.123	0.078	-0.062
-103.947	60.150	0.018	0.018
-102.932	8.967	0.153	-0.114
-101.918	-20.137	0.180	0.110
-100.903	-22.468	-0.088	-0.053
-99.889	-77.012	0.386	-0.134
-98.874	109.795	0.190	-0.226
-97.859	-42.792	0.165	0.083
-96.845	226.606	-0.166	0.267
-95.830	800.000	0.039	-0.162
-94.816	-97.183	-0.220	-0.057
-93.801	-200.000	-0.023	-0.118
-92.786	-129.295	0.229	0.032
-91.772	-76.098	-0.134	-0.047
-90.757	-65.496	-0.191	0.076
-89.743	-200.000	0.004	0.245
-88.728	-200.000	0.015	-0.203
-87.713	-88.734	-0.265	-0.078
-86.699	-200.000	0.051	-0.303
-85.684	186.676	-0.134	-0.198
-84.670	-4.173	-0.288	0.198
-83.655	119.787	0.160	-0.196
-82.640	800.000	-0.071	0.236
-81.626	-135.725	-0.448	0.053
-80.611	0.122	0.158	0.112
-79.597	-64.494	-0.049	0.020
-78.582	-190.636	0.273	0.003
-77.567	4.562	-0.060	0.043
-76.553	162.483	0.140	0.194
-75.538	-156.424	-0.279	-0.017
-74.524	-200.000	-0.001	0.004
-73.509	54.977	0.406	0.388
-72.494	-82.391	-0.061	-0.020
-71.480	-71.222	0.100	0.037
-70.465	-200.000	-0.002	0.269
-69.451	378.361	0.111	-0.225
-68.436	141.401	-0.074	-0.098
-67.422	-120.127	0.076	-0.013
-66.407	800.000	0.061	-0.200
-65.392	-128.210	0.151	-0.021
-64.378	380.411	0.052	-0.106
-63.363	234.469	-0.025	-0.041
-62.349	-200.000	0.009	0.132
-61.334	158.008	-0.755	-1.037
-60.319	-9.710	0.442	0.291
-59.305	-200.000	-0.003	-1.138
-58.290	800.000	0.324	1.017
-57.276	800.000	0.640	1.907
-56.261	-200.000	95.477	590.711
-55.246	657.138	1371.692	3491.468
-54.232	195.841	2550.639	3841.754
-53.217	110.441	2299.774	2736.822
-52.203	39.068	2063.691	1827.090
-51.188	34.123	1979.603	1708.308
-50.173	32.683	1960.901	1679.288
-49.159	47.565	2009.562	1855.455
-48.144	48.801	2028.077	1883.636
-47.130	34.799	1989.928	1723.047
-46.115	32.465	1979.366	1692.873
-45.100	32.314	1976.960	1689.386
-44.086	32.274	1974.483	1686.852
-43.071	32.170	1972.214	1683.911
-42.057	32.238	1969.172	1681.853
-41.042	32.294	1967.358	1680.737
-40.027	32.287	1965.623	1679.124
-39.013	32.331	1963.175	1677.364
-37.998	32.344	1962.052	1676.452
-36.984	32.388	1959.693	1674.762
-35.969	32.420	1957.623	1673.209
-34.954	32.315	1956.982	1671.663
-33.940	32.393	1955.687	1671.181
-32.925	32.533	1953.112	1670.161
-31.911	32.444	1951.736	1668.126
-30.896	32.458	1949.755	1666.494
-29.881	32.466	1948.841	1665.711
-28.867	32.440	1947.629	1664.383
-27.852	32.436	1945.020	1662.053
-26.838	32.544	1942.753	1661.004
-25.823	32.470	1941.189	1658.942
-24.809	32.432	1939.937	1657.477
-23.794	32.428	1938.254	1655.940
-22.779	32.422	1936.201	1654.067
-21.765	32.453	1934.268	1652.619
-20.750	32.457	1932.753	1651.292
-19.736	32.441	1931.199	1649.763
-18.721	32.437	1929.690	1648.368
-17.706	32.518	1927.798	1647.402
-16.692	32.422	1926.130	1645.070
-15.677	32.456	1924.813	1644.176
-14.663	32.441	1923.787	1643.107
-13.648	32.482	1922.254	1642.090
-12.633	32.412	1921.367	1640.655
-11.619	32.414	1919.820	1639.286
-10.604	32.542	1917.991	1638.774
-9.590	32.384	1917.510	1636.924
-8.575	32.437	1915.107	1635.265
-7.560	32.508	1913.872	1634.761
-6.546	32.532	1912.663	1633.871
-5.531	32.508	1911.632	1632.721
-4.517	32.386	1910.328	1630.487
-3.502	32.462	1909.409	1630.295
-2.487	32.374	1908.193	1628.430
-1.473	32.518	1907.103	1628.681
-0.458	32.552	1902.542	1625.010
0.556	32.107	1883.193	1597.673
1.571	28.036	1863.818	1546.730
2.586	24.142	1886.343	1531.864
3.600	22.989	1922.396	1550.892
4.615	22.419	1917.031	1541.443
5.629	17.367	1816.256	1418.264
6.644	8.918	1699.289	1260.632
7.659	5.020	1663.288	1203.774
8.673	4.766	1660.460	1199.662
9.688	4.595	1659.824	1197.780
10.702	4.665	1658.143	1197.001
11.717	4.724	1654.236	1194.529
12.731	5.117	1653.702	1197.054
13.746	10.558	1667.493	1248.914
14.761	17.789	1682.526	1316.045
15.775	19.897	1684.372	1333.639
16.790	19.051	1680.709	1324.111
17.804	17.907	1677.658	1312.797
18.819	16.923	1674.436	1302.606
19.834	16.255	1671.888	1295.383
20.848	15.909	1671.030	1291.953
21.863	15.737	1669.357	1289.222
22.877	15.491	1667.760	1285.996
23.892	15.299	1666.480	1283.422
24.907	15.263	1665.044	1281.930
25.921	15.181	1664.317	1280.628
26.936	15.219	1663.115	1279.879
27.950	15.129	1663.096	1279.067
28.965	15.234	1662.065	1278.959
29.980	15.289	1660.896	1278.365
30.994	15.367	1659.965	1278.132
32.009	15.530	1658.785	1278.349
33.023	15.511	1658.124	1277.588
34.038	15.548	1657.077	1276.946
35.053	15.633	1655.797	1276.490
36.067	15.479	1654.708	1274.369
37.082	15.487	1653.889	1273.689
38.096	15.373	1652.894	1271.946
39.111	15.489	1651.672	1271.773
40.126	15.461	1651.476	1271.298
41.140	15.378	1650.759	1270.006
42.155	15.226	1648.743	1267.189
43.169	15.143	1647.288	1265.336
44.184	15.132	1646.505	1264.540
45.199	15.083	1644.975	1262.880
46.213	15.058	1643.825	1261.695
47.228	15.183	1642.696	1261.660
48.242	15.244	1641.474	1261.070
49.257	15.390	1640.641	1261.417
50.271	15.260	1639.356	1259.341
51.286	15.274	1638.417	1258.613
52.301	15.299	1637.065	1257.652
53.315	15.299	1635.728	1256.506
54.330	15.232	1633.983	1254.559
55.344	15.199	1632.695	1253.212
56.359	15.258	1630.714	1252.016
57.374	15.211	1629.746	1250.811
58.388	15.210	1628.818	1249.983
59.403	15.093	1627.728	1248.164
60.417	15.012	1626.360	1246.401
61.432	15.023	1625.254	1245.527
62.447	15.093	1623.597	1244.669
63.461	14.990	1622.827	1243.199
64.476	14.990	1621.902	1242.386
65.490	14.978	1620.318	1240.967
66.505	14.966	1619.323	1240.008
67.520	14.991	1618.211	1239.235
68.534	15.006	1617.206	1238.463
69.549	14.991	1615.925	1237.261
70.563	14.964	1615.071	1236.302
71.578	14.962	1613.993	1235.352
72.593	14.990	1612.465	1234.279
73.607	14.975	1611.616	1233.406
74.622	14.857	1610.240	1231.378
75.636	14.842	1609.377	1230.496
76.651	14.959	1608.381	1230.486
77.666	14.938	1607.621	1229.643
78.680	14.886	1606.835	1228.550
79.695	14.872	1606.143	1227.815
80.709	14.982	1604.924	1227.577
81.724	15.021	1604.227	1227.226
82.739	15.069	1603.875	1227.194
83.753	15.109	1602.408	1226.261
84.768	15.240	1601.845	1226.675
85.782	15.241	1601.295	1226.155
86.797	15.313	1600.416	1225.897
87.812	15.441	1599.061	1225.689
88.826	15.277	1598.124	1223.668
89.841	15.152	1597.508	1222.175
90.855	15.194	1596.339	1221.475
91.870	15.325	1594.821	1221.161
92.884	15.358	1593.849	1220.550
93.899	15.375	1592.967	1219.889
94.914	15.340	1591.577	1218.462
95.928	15.405	1591.182	1218.524
96.943	15.503	1589.953	1218.183
97.957	15.451	1588.118	1216.295
98.972	15.423	1586.715	1214.908
99.987	15.421	1584.924	1213.417
101.001	15.320	1583.603	1211.567
102.016	15.357	1582.448	1210.848
103.030	15.338	1581.111	1209.578
104.045	15.387	1580.112	1209.060
105.060	15.340	1578.316	1207.238
106.074	15.307	1577.023	1205.905
107.089	15.317	1574.894	1204.242
108.103	15.129	1573.775	1201.932
109.118	14.982	1572.255	1199.612
110.133	15.050	1571.094	1199.107
111.147	15.064	1569.588	1197.950
112.162	15.148	1567.974	1197.216
113.176	15.143	1566.459	1195.920
114.191	15.196	1564.839	1194.955
115.206	15.134	1564.423	1194.087
116.220	15.132	1563.257	1193.079
117.235	15.134	1561.622	1191.736
118.249	15.157	1560.641	1191.048
119.264	15.090	1559.242	1189.400
120.279	14.985	1558.164	1187.724
121.293	15.157	1556.150	1187.303
122.308	15.080	1554.091	1185.082
123.322	15.031	1553.450	1184.141
124.337	14.945	1551.652	1182.060
125.352	15.012	1549.942	1181.128
126.366	15.006	1549.263	1180.462
127.381	14.912	1548.427	1179.059
128.395	14.957	1547.173	1178.316
129.410	14.941	1546.085	1177.270
130.424	14.992	1544.708	1176.472
131.439	15.015	1543.358	1175.504
132.454	15.142	1541.658	1174.995
133.468	15.087	1540.285	1173.461
134.483	15.106	1539.212	1172.672
135.497	15.210	1537.590	1172.062
136.512	15.189	1535.879	1170.504
137.527	15.221	1534.779	1169.785
138.541	15.302	1534.018	1169.669
139.556	15.205	1532.635	1167.838
140.570	15.211	1531.340	1166.788
141.585	15.283	1529.645	1165.894
142.600	15.361	1528.783	1165.672
143.614	15.411	1527.702	1165.098
144.629	15.503	1526.445	1164.672
145.643	15.425	1525.210	1163.084
146.658	15.544	1523.781	1162.718
147.673	15.424	1521.983	1160.409
148.687	15.373	1520.765	1159.025
149.702	15.308	1520.043	1157.928
150.716	15.316	1518.104	1156.404
151.731	15.250	1516.464	1154.596
152.746	15.285	1515.754	1154.196
153.760	15.353	1513.816	1153.083
154.775	15.356	1512.473	1151.981
155.789	15.334	1511.875	1151.273
156.804	15.471	1510.073	1150.738
157.819	15.550	1508.474	1149.956
158.833	15.509	1507.870	1149.113
159.848	15.584	1506.429	1148.424
160.862	15.647	1505.425	1147.987
161.877	15.647	1504.484	1147.174
162.892	15.540	1503.156	1145.325
163.906	15.488	1502.048	1144.028
164.921	15.290	1500.659	1141.518
165.935	15.309	1499.861	1140.939
166.950	15.371	1498.767	1140.431
167.964	15.457	1497.751	1140.139
168.979	15.425	1497.218	1139.413
169.994	15.438	1496.023	1138.492
171.008	15.447	1494.832	1137.551
172.023	15.528	1493.593	1137.050
173.037	15.528	1492.849	1136.389
174.052	15.480	1491.733	1135.111
175.067	15.594	1490.701	1134.995
176.081	15.556	1489.124	1133.437
177.096	15.510	1487.837	1132.045
178.110	15.420	1486.920	1130.643
179.125	15.481	1485.229	1129.666
180.140	15.575	1484.337	1129.523
181.154	15.543	1483.085	1128.257
182.169	15.634	1481.810	1127.794
183.183	15.653	1480.961	1127.174
184.198	15.755	1479.807	1126.883
185.213	15.723	1479.431	1126.285
186.227	15.790	1477.726	1125.331
187.242	15.728	1477.009	1124.274
188.256	15.807	1475.796	1123.776
189.271	15.817	1475.042	1123.169
190.286	15.883	1473.764	1122.537
191.300	15.809	1472.399	1120.905
192.315	15.566	1471.547	1118.539
193.329	15.457	1469.988	1116.533
194.344	15.437	1468.998	1115.548
195.359	15.543	1468.030	1115.421
196.373	15.596	1467.340	1115.145
197.388	15.625	1466.086	1114.288
198.402	15.806	1464.987	1114.556
199.417	15.841	1463.855	1113.828
200.432	15.921	1463.189	1113.752
201.446	16.029	1462.157	1113.580
202.461	16.073	1461.250	1113.078
203.475	16.114	1460.285	1112.518
204.490	16.102	1459.212	1111.525
205.504	16.060	1457.995	1110.217
206.519	15.939	1456.846	1108.448
207.534	15.987	1455.200	1107.417
208.548	15.918	1454.483	1106.321
209.563	15.914	1453.337	1105.321
210.577	15.961	1452.205	1104.669
211.592	16.002	1451.387	1104.220
212.607	16.062	1450.599	1103.914
213.621	16.173	1450.161	1104.213
214.636	16.143	1449.391	1103.335
215.650	16.060	1448.913	1102.327
216.665	16.038	1447.582	1101.073
217.680	16.184	1446.757	1101.301
218.694	16.190	1446.002	1100.669
219.709	16.220	1445.087	1100.073
220.723	16.269	1444.154	1099.583
221.738	16.178	1443.522	1098.411
222.753	16.278	1442.210	1097.965
223.767	16.272	1441.350	1097.174
224.782	16.231	1440.195	1095.929
225.796	16.321	1439.330	1095.764
226.811	16.325	1438.713	1095.219
227.826	16.376	1437.906	1094.842
228.840	16.342	1437.123	1093.929
229.855	16.299	1436.269	1092.899
230.869	16.261	1435.588	1092.043
231.884	16.249	1434.030	1090.679
232.899	16.364	1432.420	1090.105
233.913	16.296	1431.720	1089.037
234.928	16.200	1430.461	1087.361
235.942	16.142	1429.419	1086.101
236.957	16.209	1428.209	1085.517
237.972	16.175	1427.052	1084.323
238.986	16.220	1425.589	1083.401
240.001	16.272	1424.682	1082.951
241.015	16.216	1424.140	1082.087
242.030	16.203	1423.157	1081.156
243.045	16.237	1422.373	1080.686
244.059	16.397	1421.106	1080.651
245.074	16.408	1420.200	1079.936
246.088	16.344	1419.897	1079.200
247.103	16.430	1418.837	1078.847
248.117	16.467	1418.081	1078.412
249.132	16.477	1417.449	1077.901
250.147	16.702	1416.453	1078.481
251.161	16.661	1416.507	1078.164
252.176	16.901	1415.250	1078.641
253.190	16.938	1414.744	1078.394
254.205	16.813	1414.039	1076.970
255.220	17.004	1413.092	1077.369
256.234	16.940	1411.956	1076.001
257.249	16.959	1411.377	1075.581
258.263	16.960	1410.514	1074.836
259.278	16.914	1409.569	1073.731
260.293	17.002	1408.716	1073.541
261.307	16.875	1408.170	1072.229
262.322	17.062	1407.084	1072.485
263.336	17.130	1406.165	1072.122
264.351	17.050	1405.325	1070.880
265.366	17.040	1404.470	1070.071
266.380	17.090	1403.510	1069.558
267.395	17.086	1402.823	1068.915
268.409	17.097	1401.899	1068.187
269.424	17.139	1400.589	1067.361
270.439	16.999	1399.942	1065.895
271.453	17.152	1398.485	1065.650
272.468	17.034	1397.872	1064.349
273.482	16.961	1397.193	1063.277
274.497	16.990	1395.792	1062.299
275.512	17.046	1394.921	1061.892
276.526	17.045	1394.221	1061.260
277.541	17.134	1392.730	1060.590
278.555	17.088	1392.296	1059.877
279.570	17.025	1391.688	1058.926
280.585	17.124	1390.896	1058.844
281.599	17.213	1390.161	1058.749
282.614	17.206	1389.377	1058.012
283.628	17.211	1387.718	1056.688
284.643	17.114	1386.640	1055.169
285.657	17.182	1385.573	1054.686
286.672	17.136	1385.113	1053.960
287.687	17.106	1384.545	1053.247
288.701	17.201	1383.004	1052.569
289.716	17.142	1382.387	1051.644
290.730	17.287	1381.361	1051.667
291.745	17.180	1380.648	1050.366
292.760	17.225	1380.090	1050.132
293.774	17.259	1378.456	1049.004
294.789	17.282	1377.461	1048.296
295.803	17.402	1377.038	1048.621
296.818	17.461	1376.121	1048.191
297.833	17.408	1374.997	1046.918
298.847	17.369	1373.829	1045.695
299.862	17.309	1373.004	1044.603
300.876	17.362	1372.315	1044.314
301.891	17.381	1371.649	1043.831
302.906	17.426	1370.240	1042.945
303.920	17.502	1369.933	1043.080
304.935	17.507	1369.084	1042.377
305.949	17.556	1368.403	1042.063
306.964	17.660	1367.595	1041.991
307.979	17.714	1366.533	1041.422
308.993	17.721	1365.822	1040.829
310.008	17.620	1365.105	1039.576
311.022	17.722	1363.307	1038.734
312.037	17.707	1362.351	1037.823
313.052	17.608	1362.092	1036.932
314.066	17.678	1360.697	1036.207
315.081	17.663	1359.714	1035.274
316.095	17.565	1358.355	1033.553
317.110	17.477	1357.732	1032.452
318.125	17.440	1356.800	1031.429
319.139	17.523	1355.482	1030.835
320.154	17.540	1354.732	1030.281
321.168	17.565	1353.924	1029.723
322.183	17.516	1352.864	1028.530
323.197	17.583	1352.428	1028.515
324.212	17.557	1351.343	1027.440
325.227	17.562	1350.375	1026.643
326.241	17.596	1349.319	1025.956
327.256	17.779	1348.121	1026.054
328.270	17.673	1347.910	1025.167
329.285	17.622	1346.889	1023.989
330.300	17.695	1345.488	1023.273
331.314	17.659	1344.780	1022.429
332.329	17.725	1343.552	1021.801
333.343	17.729	1342.787	1021.153
334.358	17.746	1342.112	1020.651
335.373	17.784	1341.268	1020.146
336.387	17.835	1340.811	1020.012
337.402	17.710	1340.446	1018.898
338.416	17.807	1339.542	1018.699
339.431	17.857	1338.700	1018.264
340.446	17.921	1338.086	1018.092
341.460	17.944	1337.274	1017.523
342.475	18.106	1336.280	1017.636
343.489	18.165	1335.370	1017.209
344.504	18.084	1334.645	1016.083
345.519	18.170	1333.756	1015.826
346.533	18.191	1332.636	1015.007
347.548	18.135	1331.855	1013.993
348.562	18.252	1330.892	1013.864
349.577	18.235	1330.347	1013.258
350.592	18.278	1329.342	1012.658
351.606	18.119	1328.220	1010.773
352.621	18.109	1326.786	1009.530
353.635	17.965	1326.366	1008.275
354.650	18.010	1325.443	1007.745
355.665	18.064	1324.493	1007.252
356.679	18.034	1323.284	1006.067
357.694	18.174	1322.118	1005.916
358.708	18.154	1321.069	1004.912
359.723	18.120	1320.130	1003.911
360.738	18.181	1319.345	1003.582
361.752	18.235	1318.423	1003.108
362.767	18.214	1317.377	1002.101
363.781	18.119	1316.288	1000.627
364.796	18.252	1315.656	1000.837
365.810	18.277	1315.036	1000.425
366.825	18.310	1314.097	999.815
367.840	18.432	1313.657	1000.102
368.854	18.519	1312.740	999.822
369.869	18.520	1312.417	999.492
370.883	18.587	1311.820	999.343
371.898	18.612	1310.959	998.745
372.913	18.450	1309.900	996.905
373.927	18.452	1309.307	996.375
374.942	18.569	1308.302	996.201
375.956	18.585	1307.379	995.503
376.971	18.696	1306.726	995.563
377.986	18.543	1305.877	993.940
379.000	18.481	1305.145	992.938
380.015	18.594	1304.757	993.206
381.029	18.666	1303.656	992.699
382.044	18.740	1302.798	992.389
383.059	18.752	1302.234	991.936
384.073	18.626	1302.014	990.952
385.088	18.710	1301.046	990.616
386.102	18.808	1300.091	990.366
387.117	18.890	1299.018	989.930
388.132	18.865	1298.454	989.270
389.146	18.713	1297.483	987.569
390.161	18.652	1297.012	986.775
391.175	18.615	1296.415	986.017
392.190	18.642	1295.370	985.292
393.205	18.704	1294.822	985.143
394.219	18.809	1293.459	984.620
395.234	18.888	1292.101	983.955
396.248	18.734	1290.809	982.000
397.263	18.793	1289.496	981.253
398.278	18.724	1288.413	979.948
399.292	18.727	1287.101	978.880
400.307	18.663	1286.163	977.716
401.321	18.679	1285.180	976.975
402.336	18.683	1283.639	975.736
403.350	18.625	1283.150	974.952
404.365	18.710	1281.961	974.442
405.380	18.676	1281.715	973.975
406.394	18.731	1280.854	973.551
407.409	18.858	1279.886	973.446
408.423	18.855	1279.311	972.907
409.438	18.895	1279.275	973.017
410.453	18.954	1278.385	972.590
411.467	18.972	1277.607	972.010
412.482	19.036	1276.919	971.764
413.496	19.114	1276.064	971.470
414.511	19.176	1275.495	971.299
415.526	19.159	1274.353	970.246
416.540	19.301	1274.064	970.741
417.555	19.269	1273.237	969.846
418.569	19.256	1272.970	969.485
419.584	19.324	1272.296	969.268
420.599	19.304	1271.563	968.507
421.613	140.807	1431.882	1794.416
422.628	135.352	1455.222	1794.546
