DTS Sentinel unit serial number:	SN413079Multiplexer serial number:	ORYXHardware model number:	OX4-SRSoftware version number:	ORYX F/W v4.00 Oryx Data Collector v3.7.2.0data status	okinstallation	princeton_trtdifferential loss correction	single-endedforward channel	channel 4reverse channel	N/Adate	2019/09/19time	07:29:34forward acquisition time	60.00reverse acquisition time	0.00gamma	496.2192k internal	0.2340k external	0.2340temperature offset calibration	1.0024default loss term (dB/km)	0.3790temperature slope calibration	1.0000multiplexer offset coefficient	1.0000multiplexer slope coefficient	1.0000fibre end	0.00T internal ref (°C)	19.25T ext. ref 1 (°C)	0.56T ext. ref 2 (°C)	13.96length (m)	temperature (°C)	Stokes	anti-Stokes-747.200	22.442	-0.164	0.134
-746.185	-200.000	-0.001	0.111
-745.171	-145.842	0.088	0.008
-744.156	800.000	0.018	0.067
-743.142	616.243	0.136	0.342
-742.127	-193.021	-0.206	-0.002
-741.112	30.943	-0.190	0.163
-740.098	7.433	-0.223	0.167
-739.083	163.321	-0.191	0.269
-738.069	146.665	-0.177	0.239
-737.054	-200.000	0.093	0.510
-736.039	-113.202	-0.342	-0.068
-735.025	60.664	-0.202	0.201
-734.010	103.196	-0.180	-0.211
-732.996	29.844	0.165	0.141
-731.981	800.000	0.076	-0.317
-730.966	800.000	-0.099	-0.410
-729.952	800.000	-0.081	-0.307
-728.937	557.954	0.081	-0.196
-727.923	179.118	-0.119	0.174
-726.908	142.101	0.164	0.218
-725.894	444.848	-0.209	0.460
-724.879	79.428	-0.321	-0.345
-723.864	413.397	0.095	-0.203
-722.850	-93.146	-0.181	0.050
-721.835	47.399	-0.042	-0.039
-720.821	27.998	0.036	0.030
-719.806	58.625	0.074	-0.073
-718.791	179.424	-0.089	0.131
-717.777	317.968	-0.097	0.184
-716.762	-200.000	0.000	0.260
-715.748	0.250	-0.257	-0.184
-714.733	800.000	0.076	-0.244
-713.718	800.000	0.033	0.122
-712.704	-155.192	0.257	0.017
-711.689	103.192	-0.357	0.419
-710.675	-200.000	0.039	0.217
-709.660	53.464	-0.037	-0.035
-708.645	800.000	-0.019	-0.058
-707.631	-138.503	0.313	0.034
-706.616	-200.000	-0.061	0.427
-705.602	517.772	-0.198	-0.463
-704.587	227.338	0.069	0.113
-703.572	-60.994	0.080	0.034
-702.558	-200.000	0.010	-0.090
-701.543	-20.819	0.263	-0.161
-700.529	-118.486	0.096	0.017
-699.514	800.000	-0.036	0.141
-698.499	263.324	-0.123	-0.214
-697.485	387.702	0.079	-0.163
-696.470	-200.000	0.063	0.310
-695.456	-47.745	0.073	0.035
-694.441	-13.823	0.252	-0.163
-693.426	233.108	0.015	0.025
-692.412	157.637	-0.115	0.160
-691.397	800.000	-0.064	0.203
-690.383	-60.561	-0.372	-0.158
-689.368	439.641	-0.120	-0.262
-688.354	-140.002	0.189	-0.020
-687.339	-200.000	-0.016	0.143
-686.324	382.275	0.136	-0.280
-685.310	530.142	-0.135	-0.318
-684.295	-145.399	-0.319	-0.029
-683.281	404.481	-0.156	-0.328
-682.266	28.111	-0.145	0.122
-681.251	-141.600	-0.055	0.006
-680.237	44.765	-0.143	0.132
-679.222	-125.896	0.170	0.026
-678.208	-200.000	0.044	0.308
-677.193	-200.000	-0.031	-0.382
-676.178	154.488	0.129	0.177
-675.164	60.182	-0.104	0.103
-674.149	-173.797	-0.126	0.004
-673.135	-80.941	-0.124	0.041
-672.120	-74.129	0.184	-0.067
-671.105	115.752	0.122	-0.149
-670.091	-200.000	-0.017	0.249
-669.076	-200.000	0.021	-0.187
-668.062	800.000	-0.101	-0.332
-667.047	-161.779	-0.686	-0.035
-666.032	800.000	0.025	-0.089
-665.018	9.796	-0.124	-0.094
-664.003	-78.414	0.095	0.033
-662.989	-200.000	-0.017	-0.169
-661.974	-48.993	0.337	-0.161
-660.959	-74.247	0.169	-0.061
-659.945	-5.107	0.184	-0.126
-658.930	-89.305	-0.230	0.068
-657.916	-78.613	-0.161	-0.055
-656.901	-161.333	0.274	0.014
-655.886	800.000	-0.126	-0.459
-654.872	270.850	-0.297	-0.522
-653.857	15.854	-0.187	-0.147
-652.843	-200.000	-0.022	-0.184
-651.828	-143.074	0.129	-0.012
-650.814	800.000	0.072	0.244
-649.799	222.678	-0.122	-0.196
-648.784	193.832	0.106	-0.160
-647.770	-43.671	-0.104	0.052
-646.755	800.000	-0.120	-0.342
-645.741	128.748	0.089	-0.113
-644.726	18.129	-0.175	0.139
-643.711	-34.611	0.223	-0.122
-642.697	652.808	-0.025	0.064
-641.682	-200.000	-0.003	-0.163
-640.668	96.382	-0.043	-0.049
-639.653	191.262	-0.132	-0.199
-638.638	-46.190	0.309	0.152
-637.624	-93.921	0.097	0.027
-636.609	-127.733	0.127	0.018
-635.595	800.000	0.101	0.298
-634.580	28.518	0.028	-0.023
-633.565	-200.000	-0.026	0.133
-632.551	265.113	-0.151	-0.262
-631.536	217.131	-0.055	0.087
-630.522	-106.402	0.257	0.057
-629.507	-29.666	-0.186	-0.106
-628.492	105.171	0.217	-0.256
-627.478	622.061	-0.083	-0.208
-626.463	-49.292	0.201	0.096
-625.449	-200.000	0.049	0.308
-624.434	-133.197	-0.069	-0.009
-623.419	301.210	-0.119	-0.219
-622.405	466.224	0.146	-0.326
-621.390	45.764	0.309	0.285
-620.376	-200.000	-0.028	-0.132
-619.361	-94.798	0.309	0.084
-618.346	-200.000	-0.035	0.300
-617.332	342.807	-0.062	0.121
-616.317	-79.130	0.336	0.114
-615.303	763.547	0.046	0.125
-614.288	-123.116	-0.289	-0.046
-613.273	-200.000	-0.016	-0.331
-612.259	-96.879	-0.064	-0.017
-611.244	-91.294	0.084	0.024
-610.230	-110.932	-0.077	0.016
-609.215	93.565	0.144	-0.163
-608.201	157.435	-0.197	-0.272
-607.186	412.005	-0.065	-0.139
-606.171	-200.000	-0.032	-0.225
-605.157	800.000	0.072	-0.248
-604.142	-200.000	-0.041	0.180
-603.128	-98.349	0.298	0.076
-602.113	67.327	0.281	-0.286
-601.098	800.000	-0.106	-0.309
-600.084	-28.317	0.182	0.105
-599.069	29.070	0.401	-0.339
-598.055	213.106	0.060	0.094
-597.040	800.000	-0.063	0.256
-596.025	-116.982	-0.197	-0.036
-595.011	-157.622	0.329	0.020
-593.996	-200.000	-0.054	0.236
-592.982	-159.423	-0.549	0.031
-591.967	-98.076	0.275	-0.071
-590.952	453.060	-0.160	-0.352
-589.938	-200.000	0.017	-0.098
-588.923	-69.029	-0.105	-0.040
-587.909	18.992	-0.180	0.144
-586.894	800.000	-0.042	0.151
-585.879	-29.518	0.056	0.032
-584.865	317.340	0.133	-0.250
-583.850	-200.000	-0.045	0.225
-582.836	-101.733	-0.207	0.050
-581.821	800.000	0.103	-0.307
-580.806	-151.871	0.096	0.007
-579.792	-36.670	-0.305	0.163
-578.777	-200.000	-0.007	-0.465
-577.763	-200.000	-0.001	-0.212
-576.748	-200.000	-0.057	-0.280
-575.733	145.924	0.120	-0.160
-574.719	-158.760	-0.372	0.021
-573.704	37.438	-0.061	0.054
-572.690	42.115	-0.044	0.039
-571.675	1.593	-0.316	0.227
-570.661	102.465	0.189	-0.220
-569.646	191.813	-0.304	-0.457
-568.631	-69.870	-0.205	0.078
-567.617	-200.000	0.044	0.261
-566.602	-200.000	0.046	0.355
-565.588	-200.000	0.016	0.270
-564.573	-12.632	0.126	-0.082
-563.558	183.450	-0.211	-0.311
-562.544	110.479	0.267	-0.319
-561.529	-200.000	0.020	-0.114
-560.515	-72.538	0.085	0.031
-559.500	-110.792	-0.292	-0.060
-558.485	800.000	0.027	0.106
-557.471	-88.601	0.652	0.193
-556.456	-124.713	0.139	0.021
-555.442	-200.000	0.020	0.196
-554.427	-67.808	0.137	-0.053
-553.412	-200.000	-0.059	-0.312
-552.398	-71.151	-0.219	0.082
-551.383	-51.190	0.136	-0.063
-550.369	-23.640	0.192	-0.115
-549.354	-200.000	0.015	0.164
-548.339	140.500	-0.113	-0.149
-547.325	322.952	-0.161	-0.305
-546.310	800.000	0.050	0.180
-545.296	61.358	0.257	0.254
-544.281	520.498	0.018	-0.043
-543.266	-200.000	-0.034	0.236
-542.252	-200.000	-0.043	0.233
-541.237	122.063	0.146	0.182
-540.223	-200.000	-0.033	0.299
-539.208	-63.018	0.185	-0.076
-538.193	184.431	-0.214	-0.315
-537.179	34.043	-0.269	0.233
-536.164	42.315	-0.303	0.274
-535.150	-108.403	-0.547	0.117
-534.135	226.584	0.026	-0.043
-533.121	-143.088	0.371	-0.036
-532.106	667.079	-0.104	0.267
-531.091	-102.215	-0.065	0.015
-530.077	667.425	0.068	-0.176
-529.062	800.000	0.105	-0.289
-528.048	800.000	-0.022	0.071
-527.033	-37.026	-0.201	0.107
-526.018	-174.224	-0.220	-0.006
-525.004	800.000	0.094	-0.300
-523.989	78.781	0.313	-0.333
-522.975	-147.224	0.064	-0.005
-521.960	-59.024	0.287	-0.123
-520.945	-129.411	-0.182	-0.025
-519.931	286.004	0.133	0.238
-518.916	-71.721	0.054	-0.020
-517.902	800.000	0.028	-0.097
-516.887	800.000	0.183	-0.588
-515.872	745.751	-0.043	-0.114
-514.858	800.000	0.107	-0.381
-513.843	-200.000	-0.014	-0.158
-512.829	-58.580	0.187	0.080
-511.814	-98.344	0.229	0.058
-510.799	173.741	0.115	-0.165
-509.785	-200.000	-0.054	-0.260
-508.770	412.358	-0.132	-0.279
-507.756	-51.269	0.049	0.023
-506.741	-95.697	-0.065	-0.017
-505.726	-72.894	0.028	0.010
-504.712	64.428	0.159	0.159
-503.697	-138.791	-0.137	-0.015
-502.683	143.042	0.093	-0.123
-501.668	-134.789	-0.519	-0.063
-500.653	800.000	-0.049	-0.161
-499.639	-130.937	0.168	0.022
-498.624	-139.976	-0.182	0.019
-497.610	177.241	-0.104	0.150
-496.595	-131.399	-0.327	-0.043
-495.581	800.000	-0.062	-0.182
-494.566	-68.631	0.169	0.065
-493.551	115.880	-0.144	-0.175
-492.537	800.000	0.048	0.131
-491.522	140.986	0.060	0.079
-490.508	800.000	-0.083	-0.258
-489.493	-147.544	0.170	-0.014
-488.478	193.561	0.210	0.315
-487.464	-192.617	-0.159	-0.001
-486.449	-49.611	-0.106	-0.050
-485.435	569.470	0.133	0.321
-484.420	52.721	-0.095	0.090
-483.405	355.512	0.098	-0.194
-482.391	174.310	0.152	-0.218
-481.376	-168.595	-0.154	0.006
-480.362	800.000	-0.100	-0.324
-479.347	36.419	-0.406	-0.355
-478.332	26.715	-0.189	0.157
-477.318	8.449	0.288	-0.215
-476.303	-116.083	-0.380	0.070
-475.289	-51.000	-0.250	-0.117
-474.274	-200.000	-0.028	-0.130
-473.259	558.325	-0.104	-0.250
-472.245	442.286	-0.097	-0.210
-471.230	-170.531	-0.246	0.008
-470.216	-134.242	-0.480	0.059
-469.201	71.795	0.086	-0.089
-468.186	-18.132	0.159	-0.099
-467.172	263.558	-0.080	0.138
-466.157	800.000	0.049	0.185
-465.143	-200.000	-0.033	-0.189
-464.128	-200.000	0.053	0.348
-463.113	107.837	0.360	0.425
-462.099	40.821	0.083	-0.074
-461.084	86.622	0.411	0.450
-460.070	-63.132	-0.158	-0.065
-459.055	-200.000	0.004	0.075
-458.040	-92.544	-0.094	-0.026
-457.026	-52.580	0.014	-0.006
-456.011	-119.876	0.039	-0.007
-454.997	-114.590	0.307	-0.058
-453.982	-34.583	-0.220	-0.119
-452.968	14.410	0.034	0.027
-451.953	-200.000	-0.013	-0.159
-450.938	-63.092	-0.173	-0.071
-449.924	-13.738	0.312	-0.200
-448.909	-109.539	0.187	0.039
-447.895	800.000	0.012	-0.046
-446.880	-62.661	-0.263	-0.108
-445.865	-200.000	0.006	0.107
-444.851	800.000	-0.046	0.132
-443.836	-200.000	0.014	0.091
-442.822	-200.000	-0.010	0.082
-441.807	-200.000	0.019	0.110
-440.792	-65.185	-0.373	-0.149
-439.778	-200.000	0.010	-0.493
-438.763	35.202	0.040	0.035
-437.749	155.914	0.168	0.230
-436.734	94.866	0.046	0.052
-435.719	183.602	-0.065	-0.096
-434.705	-32.914	0.140	0.077
-433.690	66.985	0.209	0.211
-432.676	358.515	-0.110	-0.217
-431.661	-0.452	0.219	-0.154
-430.646	95.422	-0.089	0.101
-429.632	52.122	-0.105	-0.100
-428.617	800.000	0.028	0.086
-427.603	-200.000	0.028	-0.133
-426.588	534.964	-0.030	0.071
-425.573	142.466	-0.149	0.196
-424.559	-200.000	0.023	-0.221
-423.544	132.860	-0.047	-0.061
-422.530	-152.697	0.219	0.015
-421.515	95.096	0.130	0.147
-420.500	800.000	0.061	0.174
-419.486	341.261	0.049	0.095
-418.471	270.982	0.066	0.115
-417.457	190.700	0.120	-0.178
-416.442	-168.945	-0.448	0.017
-415.428	36.647	0.019	-0.017
-414.413	800.000	0.075	-0.238
-413.398	-46.522	-0.356	0.173
-412.384	-200.000	0.003	0.141
-411.369	-3.891	0.141	0.097
-410.355	-45.414	0.186	0.091
-409.340	-122.745	-0.191	0.031
-408.325	-129.901	0.205	-0.028
-407.311	281.345	-0.187	-0.331
-406.296	-150.607	-0.008	0.001
-405.282	-150.119	0.163	0.013
-404.267	-200.000	0.023	0.623
-403.252	472.898	-0.131	0.291
-402.238	-56.672	0.219	-0.096
-401.223	103.194	-0.245	-0.284
-400.209	-47.586	0.224	0.108
-399.194	104.938	0.102	-0.119
-398.179	-96.369	-0.255	-0.067
-397.165	-30.676	-0.151	0.084
-396.150	-200.000	-0.000	0.218
-395.136	312.910	-0.080	0.148
-394.121	-9.313	-0.262	-0.173
-393.106	-76.726	-0.435	-0.151
-392.092	-93.537	0.202	0.055
-391.077	42.850	0.273	-0.246
-390.063	-120.069	-0.148	-0.025
-389.048	-59.503	0.070	-0.030
-388.033	-131.876	-0.181	-0.023
-387.019	61.661	-0.280	0.275
-386.004	-200.000	0.007	0.288
-384.990	-160.063	0.169	-0.009
-383.975	-200.000	0.021	0.321
-382.960	199.452	0.140	0.213
-381.946	-193.772	-0.323	0.003
-380.931	-16.690	0.125	-0.078
-379.917	122.175	-0.046	-0.057
-378.902	-200.000	-0.059	0.307
-377.888	-200.000	0.040	0.519
-376.873	5.381	0.284	-0.207
-375.858	430.340	0.190	-0.407
-374.844	-200.000	-0.054	-0.251
-373.829	-129.545	-0.131	0.018
-372.815	10.105	-0.300	-0.225
-371.800	800.000	-0.072	-0.246
-370.785	800.000	-0.071	-0.253
-369.771	221.108	-0.160	0.253
-368.756	-170.212	0.044	-0.002
-367.742	-200.000	-0.019	-0.094
-366.727	-24.988	0.115	-0.067
-365.712	-81.392	0.177	0.058
-364.698	2.964	0.190	0.136
-363.683	264.444	0.093	0.160
-362.669	-113.520	0.304	-0.059
-361.654	-27.841	-0.159	-0.091
-360.639	-108.701	-0.421	-0.089
-359.625	-200.000	-0.018	0.124
-358.610	-24.248	0.190	-0.112
-357.596	210.558	0.038	0.059
-356.581	-83.779	-0.333	-0.105
-355.566	-200.000	0.014	0.120
-354.552	1.581	0.199	0.142
-353.537	543.997	-0.074	0.175
-352.523	133.684	0.249	-0.318
-351.508	-73.997	-0.363	-0.130
-350.493	-188.871	0.167	0.002
-349.479	800.000	-0.034	-0.106
-348.464	-84.705	0.371	0.115
-347.450	-58.884	-0.165	-0.070
-346.435	-0.189	-0.234	0.164
-345.420	-36.161	0.054	-0.029
-344.406	-2.031	-0.192	-0.133
-343.391	-108.122	0.089	-0.019
-342.377	-35.048	0.123	0.066
-341.362	100.873	0.076	0.087
-340.348	-11.634	-0.057	0.037
-339.333	-134.636	0.130	0.016
-338.318	28.449	0.196	-0.164
-337.304	-36.238	0.361	-0.192
-336.289	411.810	-0.096	0.201
-335.275	-15.774	0.165	-0.103
-334.260	95.047	-0.225	0.253
-333.245	167.342	-0.112	-0.158
-332.231	-200.000	0.032	0.000
-331.216	-200.000	-0.058	-0.265
-330.202	65.078	0.099	0.098
-329.187	-113.086	-0.400	-0.078
-328.172	800.000	-0.013	0.041
-327.158	-166.673	-0.184	-0.008
-326.143	-76.971	-0.115	-0.040
-325.129	-63.791	0.117	0.047
-324.114	800.000	0.038	-0.152
-323.099	70.515	-0.073	0.075
-322.085	-109.222	0.136	0.028
-321.070	-65.716	0.189	-0.075
-320.056	-113.962	0.371	-0.071
-319.041	-183.516	0.225	-0.004
-318.026	-65.024	-0.190	-0.076
-317.012	800.000	0.080	0.228
-315.997	-54.414	0.176	0.079
-314.983	-56.940	-0.136	0.059
-313.968	-41.986	-0.251	0.127
-312.953	381.374	-0.071	0.143
-311.939	-137.069	-0.385	0.043
-310.924	-11.456	-0.285	-0.185
-309.910	-167.284	0.318	-0.013
-308.895	-200.000	0.040	0.291
-307.880	-114.094	-0.121	0.023
-306.866	-200.000	-0.054	-0.322
-305.851	113.385	-0.039	-0.046
-304.837	-92.666	0.214	-0.059
-303.822	-74.822	0.401	0.142
-302.807	234.515	0.133	-0.217
-301.793	66.593	0.053	-0.053
-300.778	-157.984	0.217	0.013
-299.764	-184.953	0.034	0.001
-298.749	-131.443	0.111	0.014
-297.735	189.745	-0.084	0.124
-296.720	-70.787	0.398	0.148
-295.705	-107.746	-0.239	0.051
-294.691	-85.446	0.665	0.204
-293.676	-161.911	-0.123	-0.006
-292.662	468.154	-0.041	0.091
-291.647	251.366	-0.088	-0.148
-290.632	-200.000	-0.022	-0.267
-289.618	10.982	-0.194	0.146
-288.603	-200.000	0.008	-0.079
-287.589	-181.679	-0.332	0.006
-286.574	167.947	0.092	-0.129
-285.559	-27.825	0.182	-0.104
-284.545	-77.739	-0.104	-0.035
-283.530	-200.000	0.068	0.353
-282.516	-37.823	-0.306	-0.160
-281.501	8.042	-0.260	-0.192
-280.486	-61.880	0.202	-0.083
-279.472	116.457	-0.128	-0.155
-278.457	67.510	-0.248	0.249
-277.443	-72.552	-0.061	-0.022
-276.428	-200.000	0.003	-0.096
-275.413	552.826	0.022	0.051
-274.399	189.964	0.238	0.352
-273.384	385.021	0.167	0.339
-272.370	-200.000	-0.080	0.438
-271.355	-84.867	0.057	0.018
-270.340	157.859	-0.132	0.179
-269.326	-99.205	-0.229	-0.057
-268.311	800.000	0.039	0.147
-267.297	385.178	-0.170	-0.346
-266.282	324.871	-0.140	0.263
-265.267	97.296	0.074	0.084
-264.253	-6.040	-0.250	-0.168
-263.238	-13.741	-0.377	0.240
-262.224	-200.000	0.077	-0.394
-261.209	123.948	-0.284	0.351
-260.195	-200.000	-0.021	-0.276
-259.180	95.275	0.319	0.358
-258.165	-150.154	-0.356	0.027
-257.151	-173.294	0.201	0.006
-256.136	395.554	-0.072	0.148
-255.122	54.210	0.120	-0.114
-254.107	-200.000	-0.000	-0.042
-253.092	-200.000	0.000	0.055
-252.078	-200.000	-0.019	0.125
-251.063	506.839	-0.126	-0.287
-250.049	88.755	-0.023	-0.025
-249.034	-103.401	0.141	-0.033
-248.019	647.168	-0.133	0.335
-247.005	159.363	-0.161	-0.220
-245.990	105.285	-0.211	0.246
-244.976	100.105	0.094	-0.107
-243.961	-200.000	-0.028	0.284
-242.946	17.519	0.187	0.146
-241.932	-128.318	0.275	0.039
-240.917	-200.000	0.081	-0.363
-239.903	143.152	0.119	-0.156
-238.888	-200.000	-0.039	0.275
-237.873	582.907	0.147	-0.355
-236.859	-110.205	-0.278	0.057
-235.844	-19.656	0.217	0.132
-234.830	-200.000	0.072	0.334
-233.815	-200.000	0.017	0.190
-232.800	129.405	0.164	0.206
-231.786	482.519	0.128	0.287
-230.771	-150.878	-0.128	-0.010
-229.757	236.963	0.110	0.180
-228.742	-143.991	0.160	0.015
-227.727	60.617	-0.113	0.110
-226.713	208.025	-0.038	0.058
-225.698	800.000	-0.035	0.109
-224.684	-200.000	0.029	0.143
-223.669	656.699	0.054	0.137
-222.655	-200.000	0.048	0.249
-221.640	-159.930	0.301	0.016
-220.625	-58.213	-0.410	0.175
-219.611	800.000	-0.128	-0.449
-218.596	115.166	-0.096	0.115
-217.582	244.182	-0.151	0.249
-216.567	-200.000	0.030	-0.207
-215.552	800.000	0.071	0.244
-214.538	-98.557	-0.367	0.092
-213.523	-200.000	0.018	-0.131
-212.509	154.841	0.259	0.349
-211.494	63.744	0.082	0.081
-210.479	-150.203	0.475	-0.036
-209.465	35.656	0.113	-0.098
-208.450	4.619	-0.234	0.169
-207.436	-79.994	-0.316	-0.104
-206.421	534.482	-0.047	0.111
-205.406	16.287	-0.171	0.133
-204.392	-200.000	0.027	0.154
-203.377	479.265	0.031	-0.070
-202.363	-200.000	0.010	-0.056
-201.348	745.962	-0.099	0.262
-200.333	-108.770	0.317	-0.067
-199.319	-71.049	-0.084	-0.031
-198.304	-171.013	0.197	-0.007
-197.290	-8.401	-0.097	0.064
-196.275	140.303	0.133	-0.172
-195.260	41.472	0.246	-0.219
-194.246	-200.000	-0.036	-0.204
-193.231	-109.534	-0.487	0.101
-192.217	-101.181	0.113	0.027
-191.202	176.127	-0.076	-0.109
-190.187	-200.000	0.014	0.245
-189.173	-200.000	-0.008	0.208
-188.158	-22.237	-0.314	0.187
-187.144	800.000	-0.075	-0.248
-186.129	91.797	0.219	-0.241
-185.114	-186.481	-0.044	0.001
-184.100	-0.730	-0.218	0.152
-183.085	305.332	-0.227	0.414
-182.071	-118.488	0.111	0.019
-181.056	-76.452	0.141	0.049
-180.042	224.192	0.032	0.050
-179.027	88.565	-0.133	0.145
-178.012	800.000	0.078	0.301
-176.998	689.734	-0.096	0.247
-175.983	255.442	0.193	0.324
-174.969	-8.593	-0.056	-0.037
-173.954	115.242	0.247	0.296
-172.939	-142.131	0.433	0.042
-171.925	-4.073	-0.135	0.091
-170.910	-200.000	0.054	-0.343
-169.896	-81.249	0.103	-0.033
-168.881	351.833	0.261	-0.508
-167.866	-23.081	0.239	0.141
-166.852	88.249	0.049	-0.053
-165.837	-200.000	0.086	0.562
-164.823	-200.000	0.011	-0.087
-163.808	-128.429	0.265	0.037
-162.793	-142.172	0.344	-0.033
-161.779	-200.000	-0.011	-0.138
-160.764	-200.000	-0.075	-0.330
-159.750	-200.000	0.000	0.166
-158.735	-89.622	0.266	-0.077
-157.720	28.689	-0.219	-0.182
-156.706	50.806	-0.092	-0.085
-155.691	800.000	0.095	-0.337
-154.677	-145.922	0.320	-0.028
-153.662	46.013	-0.138	-0.125
-152.647	-100.876	-0.857	0.206
-151.633	-80.404	-0.053	0.017
-150.618	174.858	-0.009	-0.013
-149.604	800.000	-0.048	0.153
-148.589	-200.000	-0.068	0.526
-147.574	-200.000	0.042	0.198
-146.560	144.792	-0.137	-0.180
-145.545	-128.782	-0.439	0.061
-144.531	748.578	0.136	0.359
-143.516	-90.694	-0.159	0.045
-142.502	-103.158	0.376	0.087
-141.487	31.546	-0.021	0.018
-140.472	38.445	0.164	-0.143
-139.458	-200.000	-0.037	-0.178
-138.443	-65.755	-0.393	-0.154
-137.429	5.943	-0.202	0.146
-136.414	775.945	-0.079	0.212
-135.399	-23.030	-0.224	0.132
-134.385	-53.864	-0.097	0.043
-133.370	796.808	-0.092	0.247
-132.356	21.105	0.268	-0.213
-131.341	-37.510	-0.072	-0.038
-130.326	419.221	-0.110	0.231
-129.312	-42.218	-0.238	0.119
-128.297	-200.000	-0.000	-0.002
-127.283	-131.710	0.214	0.028
-126.268	-174.562	-0.073	-0.002
-125.253	-140.696	-0.134	0.014
-124.239	69.591	-0.034	0.034
-123.224	34.801	0.211	-0.181
-122.210	138.168	0.079	-0.102
-121.195	-56.804	0.365	0.158
-120.180	800.000	0.006	0.025
-119.166	-73.743	-0.022	-0.008
-118.151	75.203	0.183	-0.189
-117.137	-200.000	-0.056	0.587
-116.122	-140.096	-0.206	0.021
-115.107	-200.000	-0.055	-0.250
-114.093	117.338	0.216	0.260
-113.078	-132.091	-0.252	-0.032
-112.064	-200.000	0.043	0.332
-111.049	32.604	-0.102	-0.086
-110.034	-110.409	-0.231	0.047
-109.020	155.766	0.096	-0.129
-108.005	38.938	-0.223	-0.195
-106.991	79.319	0.152	0.160
-105.976	555.432	-0.022	0.051
-104.962	1.866	-0.138	0.097
-103.947	-88.504	0.235	-0.068
-102.932	30.894	0.112	0.093
-101.918	713.623	0.046	0.120
-100.903	-89.610	-0.288	0.083
-99.889	-200.000	0.027	0.285
-98.874	-101.801	0.147	-0.035
-97.859	-200.000	0.008	-0.093
-96.845	12.448	0.228	0.172
-95.830	800.000	-0.023	0.095
-94.816	145.169	-0.178	-0.232
-93.801	-200.000	-0.032	0.163
-92.786	800.000	0.010	0.035
-91.772	-200.000	0.021	-0.317
-90.757	-46.456	0.223	-0.107
-89.743	-107.388	-0.294	-0.063
-88.728	-31.852	0.108	-0.059
-87.713	-123.487	-0.145	-0.023
-86.699	800.000	0.055	-0.195
-85.684	-76.465	-0.249	0.085
-84.670	56.590	0.184	0.175
-83.655	9.378	0.157	0.116
-82.640	761.911	0.049	-0.130
-81.626	-200.000	-0.006	0.070
-80.611	800.000	0.031	0.125
-79.597	-54.680	-0.320	-0.141
-78.582	-66.746	-0.184	-0.071
-77.567	-116.991	-0.241	-0.043
-76.553	-200.000	0.044	-0.211
-75.538	800.000	0.095	0.304
-74.524	-73.434	0.132	-0.047
-73.509	-111.372	-0.166	0.033
-72.494	217.166	0.104	0.162
-71.480	8.776	-0.108	0.079
-70.465	800.000	-0.110	-0.373
-69.451	9.137	0.119	0.088
-68.436	653.782	-0.148	0.370
-67.422	-35.902	-0.173	-0.091
-66.407	-200.000	-0.041	0.258
-65.392	-97.494	-0.078	-0.020
-64.378	136.777	-0.114	-0.145
-63.363	-100.659	0.351	0.085
-62.349	-200.000	0.012	0.153
-61.334	79.151	-1.228	-1.284
-60.319	50.288	0.659	0.608
-59.305	238.421	-0.755	-1.224
-58.290	176.763	1.000	1.420
-57.276	614.903	0.565	1.382
-56.261	-200.000	136.799	621.317
-55.246	334.005	1648.560	3113.652
-54.232	134.199	2797.193	3538.094
-53.217	74.411	2346.265	2406.579
-52.203	25.327	2092.684	1697.245
-51.188	20.972	2011.722	1591.837
-50.173	20.021	1998.102	1572.369
-49.159	37.670	2077.435	1799.644
-48.144	34.771	2086.868	1780.783
-47.130	21.147	2039.237	1614.979
-46.115	19.311	2028.329	1589.361
-45.100	19.118	2025.838	1585.568
-44.086	19.174	2022.936	1583.753
-43.071	19.159	2020.481	1581.629
-42.057	19.124	2018.434	1579.640
-41.042	19.209	2016.578	1578.901
-40.027	19.149	2014.803	1576.900
-39.013	19.137	2012.723	1575.102
-37.998	19.146	2011.396	1574.083
-36.984	19.135	2009.615	1572.523
-35.969	19.236	2007.496	1571.729
-34.954	19.185	2005.744	1569.828
-33.940	19.166	2004.850	1568.898
-32.925	19.166	2003.359	1567.663
-31.911	19.242	2001.555	1566.882
-30.896	19.189	2000.323	1565.372
-29.881	19.302	1998.094	1564.591
-28.867	19.332	1996.416	1563.484
-27.852	19.308	1994.483	1561.695
-26.838	19.311	1992.744	1560.301
-25.823	19.261	1991.342	1558.687
-24.809	19.329	1988.961	1557.378
-23.794	19.347	1987.495	1556.333
-22.779	19.270	1986.205	1554.564
-21.765	19.271	1984.673	1553.313
-20.750	19.222	1983.089	1551.572
-19.736	19.285	1981.336	1550.706
-18.721	19.314	1979.614	1549.549
-17.706	19.282	1978.512	1548.345
-16.692	19.263	1976.434	1546.481
-15.677	19.253	1975.019	1545.221
-14.663	19.214	1973.963	1543.987
-13.648	19.280	1972.476	1543.354
-12.633	19.248	1971.479	1542.225
-11.619	19.357	1969.361	1541.480
-10.604	19.282	1967.899	1539.612
-9.590	19.298	1966.719	1538.765
-8.575	19.242	1965.625	1537.347
-7.560	19.257	1964.090	1536.224
-6.546	19.286	1963.057	1535.611
-5.531	19.317	1960.929	1534.163
-4.517	19.205	1960.940	1533.111
-3.502	19.247	1959.804	1532.537
-2.487	19.221	1958.490	1531.218
-1.473	19.301	1956.799	1530.542
-0.458	19.317	1952.097	1526.952
0.556	18.034	1932.311	1498.900
1.571	13.952	1914.410	1449.344
2.586	10.500	1936.954	1435.754
3.600	9.680	1972.228	1454.381
4.615	9.821	1964.390	1449.743
5.629	7.783	1864.550	1358.537
6.644	3.278	1755.021	1242.344
7.659	0.799	1724.573	1201.013
8.673	0.605	1721.906	1197.511
9.688	0.611	1721.185	1196.952
10.702	0.548	1719.967	1195.495
11.717	0.486	1715.258	1191.631
12.731	0.745	1713.705	1192.485
13.746	4.588	1720.844	1227.746
14.761	11.099	1734.614	1289.151
15.775	15.877	1744.092	1334.032
16.790	17.045	1744.849	1343.745
17.804	16.182	1742.060	1334.658
18.819	15.266	1738.539	1324.608
19.834	14.635	1736.226	1317.748
20.848	14.411	1734.489	1314.541
21.863	14.175	1732.840	1311.319
22.877	13.996	1731.674	1308.907
23.892	13.798	1729.753	1305.780
24.907	13.589	1728.654	1303.190
25.921	13.588	1727.600	1302.280
26.936	13.560	1726.721	1301.275
27.950	13.702	1725.606	1301.440
28.965	13.709	1724.829	1300.790
29.980	13.715	1724.424	1300.416
30.994	13.777	1722.926	1299.659
32.009	13.711	1722.385	1298.619
33.023	13.783	1721.567	1298.451
34.038	13.910	1720.028	1298.168
35.053	13.766	1719.562	1296.577
36.067	13.839	1718.099	1295.929
37.082	13.804	1717.050	1294.750
38.096	13.809	1716.342	1294.141
39.111	13.797	1715.064	1292.965
40.126	13.798	1714.166	1292.188
41.140	13.706	1713.687	1290.993
42.155	13.742	1711.633	1289.612
43.169	13.657	1710.903	1288.287
44.184	13.674	1709.436	1287.199
45.199	13.629	1708.434	1285.981
46.213	13.579	1707.255	1284.590
47.228	13.583	1706.413	1283.881
48.242	13.692	1704.169	1282.916
49.257	13.685	1703.490	1282.241
50.271	13.694	1702.040	1281.106
51.286	13.642	1700.417	1279.368
52.301	13.761	1699.117	1279.191
53.315	13.714	1697.929	1277.826
54.330	13.682	1696.626	1276.486
55.344	13.725	1694.534	1275.128
56.359	13.670	1693.211	1273.594
57.374	13.629	1692.612	1272.721
58.388	13.659	1690.812	1271.483
59.403	13.619	1689.351	1269.966
60.417	13.545	1688.435	1268.600
61.432	13.644	1687.018	1268.178
62.447	13.575	1686.208	1266.931
63.461	13.599	1684.543	1265.753
64.476	13.596	1683.285	1264.667
65.490	13.499	1682.472	1263.205
66.505	13.459	1681.124	1261.779
67.520	13.469	1680.462	1261.243
68.534	13.699	1678.592	1261.482
69.549	13.638	1677.250	1259.897
70.563	13.538	1676.279	1258.296
71.578	13.575	1675.099	1257.580
72.593	13.518	1673.827	1256.083
73.607	13.473	1673.242	1255.190
74.622	13.484	1671.669	1253.987
75.636	13.506	1670.887	1253.454
76.651	13.454	1669.836	1252.156
77.666	13.502	1668.516	1251.418
78.680	13.519	1667.445	1250.640
79.695	13.500	1666.543	1249.704
80.709	13.485	1665.553	1248.740
81.724	13.536	1664.786	1248.442
82.739	13.460	1664.131	1247.262
83.753	13.567	1663.169	1247.238
84.768	13.590	1661.789	1246.264
85.782	13.642	1660.790	1245.798
86.797	13.668	1659.914	1245.228
87.812	13.673	1659.185	1244.605
88.826	13.657	1657.596	1243.182
89.841	13.647	1656.864	1242.451
90.855	13.635	1655.318	1241.087
91.870	13.619	1654.685	1240.386
92.884	13.629	1653.963	1239.807
93.899	13.701	1652.106	1238.844
94.914	13.694	1651.016	1237.867
95.928	13.766	1649.698	1237.306
96.943	13.760	1648.422	1236.193
97.957	13.756	1646.376	1234.524
98.972	13.747	1645.031	1233.334
99.987	13.707	1643.356	1231.673
101.001	13.763	1641.505	1230.596
102.016	13.626	1640.688	1228.859
103.030	13.681	1639.104	1227.970
104.045	13.739	1637.738	1227.266
105.060	13.750	1635.997	1225.934
106.074	13.597	1635.216	1224.108
107.089	13.655	1633.011	1222.782
108.103	13.587	1632.093	1221.480
109.118	13.557	1629.934	1219.542
110.133	13.526	1628.993	1218.501
111.147	13.612	1627.182	1217.667
112.162	13.526	1625.991	1216.036
113.176	13.604	1624.415	1215.323
114.191	13.585	1623.042	1214.048
115.206	13.620	1621.842	1213.298
116.220	13.690	1620.321	1212.568
117.235	13.666	1619.345	1211.555
118.249	13.646	1617.988	1210.283
119.264	13.588	1616.778	1208.848
120.279	13.597	1615.065	1207.527
121.293	13.670	1613.484	1206.770
122.308	13.660	1611.985	1205.468
123.322	13.572	1610.652	1203.728
124.337	13.643	1608.534	1202.552
125.352	13.697	1607.251	1201.876
126.366	13.593	1606.316	1200.320
127.381	13.583	1604.874	1199.064
128.395	13.592	1604.351	1198.635
129.410	13.543	1602.770	1196.988
130.424	13.619	1601.277	1196.316
131.439	13.677	1599.405	1195.231
132.454	13.602	1598.505	1193.911
133.468	13.647	1597.086	1193.071
134.483	13.633	1595.427	1191.629
135.497	13.684	1593.942	1190.781
136.512	13.637	1592.838	1189.509
137.527	13.767	1591.365	1189.235
138.541	13.721	1590.127	1187.875
139.556	13.662	1588.590	1186.199
140.570	13.704	1586.886	1185.125
141.585	13.786	1585.710	1184.725
142.600	13.790	1584.650	1183.862
143.614	13.792	1583.404	1182.840
144.629	13.837	1582.192	1182.152
145.643	13.956	1580.534	1181.652
146.658	13.907	1579.193	1180.197
147.673	13.805	1578.139	1178.578
148.687	13.859	1576.507	1177.643
149.702	13.857	1574.841	1176.277
150.716	13.807	1573.476	1174.801
151.731	13.803	1571.763	1173.388
152.746	13.858	1570.601	1172.807
153.760	13.804	1569.064	1171.176
154.775	13.861	1567.453	1170.272
155.789	13.901	1566.455	1169.699
156.804	13.889	1565.559	1168.846
157.819	13.864	1563.667	1167.153
158.833	13.934	1562.534	1166.699
159.848	14.007	1561.138	1166.062
160.862	14.026	1560.466	1165.592
161.877	14.082	1558.865	1164.681
162.892	13.926	1557.929	1162.791
163.906	14.066	1556.029	1162.248
164.921	13.913	1555.233	1160.484
165.935	13.873	1553.956	1159.144
166.950	13.874	1553.410	1158.647
167.964	14.062	1551.134	1158.151
168.979	14.039	1550.836	1157.669
169.994	14.066	1549.351	1156.643
171.008	14.028	1548.515	1155.655
172.023	14.034	1547.303	1154.690
173.037	14.040	1546.336	1153.905
174.052	14.151	1544.638	1153.305
175.067	14.132	1543.456	1152.193
176.081	14.172	1542.328	1151.524
177.096	14.138	1541.033	1150.220
178.110	14.105	1539.940	1149.077
179.125	14.152	1538.968	1148.575
180.140	14.063	1537.846	1147.022
181.154	14.069	1537.123	1146.423
182.169	14.091	1535.565	1145.312
183.183	14.130	1534.035	1144.332
184.198	14.189	1533.303	1144.089
185.213	14.290	1531.407	1143.274
186.227	14.259	1530.867	1142.554
187.242	14.285	1529.574	1141.667
188.256	14.218	1528.612	1140.386
189.271	14.372	1527.048	1140.174
190.286	14.376	1525.965	1139.289
191.300	14.241	1525.289	1137.760
192.315	14.193	1524.377	1136.656
193.329	14.265	1522.519	1135.660
194.344	14.210	1521.811	1134.654
195.359	14.114	1520.921	1133.236
196.373	14.258	1519.583	1133.120
197.388	14.422	1517.855	1132.844
198.402	14.345	1517.285	1131.796
199.417	14.320	1516.273	1130.774
200.432	14.401	1515.161	1130.392
201.446	14.360	1514.509	1129.528
202.461	14.442	1512.387	1128.404
203.475	14.462	1511.812	1128.008
204.490	14.505	1510.603	1127.300
205.504	14.506	1509.507	1126.387
206.519	14.538	1507.957	1125.346
207.534	14.554	1506.716	1124.427
208.548	14.407	1505.758	1122.621
209.563	14.518	1504.845	1122.592
210.577	14.537	1504.003	1121.993
211.592	14.510	1503.075	1121.015
212.607	14.431	1502.349	1119.848
213.621	14.572	1501.670	1120.189
214.636	14.701	1500.195	1119.854
215.650	14.749	1499.041	1119.215
216.665	14.596	1498.673	1117.814
217.680	14.661	1497.796	1117.497
218.694	14.741	1496.841	1117.221
219.709	14.730	1496.283	1116.634
220.723	14.792	1494.535	1115.644
221.738	14.794	1493.793	1115.003
222.753	14.698	1492.830	1113.545
223.767	14.757	1491.976	1113.203
224.782	14.768	1490.398	1112.002
225.796	14.688	1490.063	1111.121
226.811	14.888	1488.856	1111.450
227.826	14.841	1488.007	1110.411
228.840	14.778	1487.170	1109.269
229.855	14.866	1486.449	1109.212
230.869	14.899	1485.377	1108.537
231.884	14.847	1484.425	1107.380
232.899	14.767	1483.428	1106.009
233.913	14.836	1481.863	1105.202
234.928	14.837	1480.660	1104.215
235.942	14.764	1479.572	1102.825
236.957	14.821	1478.383	1102.213
237.972	14.921	1476.500	1101.371
238.986	14.819	1475.878	1100.141
240.001	14.847	1475.415	1099.884
241.015	14.872	1474.235	1099.068
242.030	14.909	1472.959	1098.262
243.045	14.940	1472.113	1097.740
244.059	15.012	1470.693	1097.058
245.074	14.948	1469.930	1095.972
246.088	14.925	1469.995	1095.772
247.103	15.124	1468.238	1095.665
248.117	14.939	1468.088	1094.247
249.132	15.029	1466.858	1093.823
250.147	15.107	1465.842	1093.475
251.161	15.160	1465.407	1093.398
252.176	15.179	1464.618	1092.837
253.190	15.137	1463.845	1091.890
254.205	15.187	1462.896	1091.413
255.220	15.290	1462.291	1091.536
256.234	15.292	1461.138	1090.591
257.249	15.206	1460.412	1089.392
258.263	15.341	1459.338	1089.371
259.278	15.355	1458.992	1089.110
260.293	15.417	1457.303	1088.156
261.307	15.407	1456.822	1087.634
262.322	15.493	1455.948	1087.443
263.336	15.526	1455.162	1086.976
264.351	15.518	1453.973	1085.934
265.366	15.523	1453.362	1085.418
266.380	15.492	1452.240	1084.281
267.395	15.487	1451.258	1083.424
268.409	15.560	1449.990	1082.850
269.424	15.531	1449.363	1082.097
270.439	15.496	1448.284	1080.971
271.453	15.561	1447.190	1080.479
272.468	15.489	1446.725	1079.574
273.482	15.611	1445.656	1079.463
274.497	15.504	1445.093	1078.259
275.512	15.521	1443.956	1077.426
276.526	15.599	1442.896	1077.037
277.541	15.595	1441.936	1076.203
278.555	15.566	1440.983	1075.207
279.570	15.625	1440.144	1074.866
280.585	15.589	1439.550	1074.100
281.599	15.627	1438.931	1073.780
282.614	15.775	1437.333	1073.437
283.628	15.665	1436.111	1071.733
284.643	15.667	1435.227	1070.987
285.657	15.645	1434.001	1069.840
286.672	15.762	1433.012	1069.750
287.687	15.754	1432.336	1069.100
288.701	15.764	1431.333	1068.321
289.716	15.797	1430.751	1067.999
290.730	15.791	1429.774	1067.142
291.745	15.705	1428.872	1065.827
292.760	15.682	1427.967	1064.909
293.774	15.810	1426.459	1064.505
294.789	15.775	1425.434	1063.424
295.803	15.863	1424.754	1063.379
296.818	15.948	1423.563	1062.930
297.833	15.868	1422.633	1061.639
298.847	15.851	1421.915	1060.904
299.862	15.886	1420.771	1060.173
300.876	15.929	1419.551	1059.438
301.891	15.945	1418.840	1058.916
302.906	15.920	1418.137	1058.138
303.920	16.032	1417.066	1057.953
304.935	15.936	1416.617	1056.923
305.949	16.030	1415.785	1056.793
306.964	16.171	1414.581	1056.689
307.979	16.210	1413.433	1055.981
308.993	16.076	1413.067	1054.776
310.008	16.121	1412.368	1054.438
311.022	16.062	1410.805	1052.812
312.037	16.167	1410.020	1052.785
313.052	16.217	1408.807	1052.103
314.066	16.223	1407.694	1051.217
315.081	16.202	1406.785	1050.311
316.095	16.086	1406.236	1049.087
317.110	16.146	1405.156	1048.563
318.125	16.158	1403.556	1047.349
319.139	16.141	1403.000	1046.739
320.154	16.175	1402.255	1046.300
321.168	16.075	1401.527	1045.043
322.183	16.141	1400.109	1044.303
323.197	16.323	1398.648	1044.246
324.212	16.222	1398.119	1043.135
325.227	16.214	1397.610	1042.612
326.241	16.259	1396.506	1041.974
327.256	16.261	1395.448	1041.104
328.270	16.270	1394.885	1040.645
329.285	16.320	1393.840	1040.085
330.300	16.317	1392.753	1039.164
331.314	16.337	1391.691	1038.403
332.329	16.375	1390.908	1037.961
333.343	16.277	1390.363	1036.856
334.358	16.389	1389.450	1036.776
335.373	16.470	1388.258	1036.288
336.387	16.389	1387.790	1035.349
337.402	16.482	1387.150	1035.353
338.416	16.371	1386.240	1033.901
339.431	16.441	1385.630	1033.783
340.446	16.472	1384.794	1033.255
341.460	16.509	1383.853	1032.690
342.475	16.479	1383.388	1032.066
343.489	16.614	1381.717	1031.553
344.504	16.603	1380.889	1030.778
345.519	16.550	1380.229	1029.869
346.533	16.665	1379.016	1029.571
347.548	16.692	1378.129	1028.983
348.562	16.695	1377.615	1028.529
349.577	16.709	1376.618	1027.779
350.592	16.648	1375.925	1026.801
351.606	16.641	1375.213	1026.137
352.621	16.722	1373.502	1025.257
353.635	16.703	1372.626	1024.401
354.650	16.651	1371.978	1023.510
355.665	16.623	1371.234	1022.695
356.679	16.673	1369.762	1021.807
357.694	16.616	1368.497	1020.427
358.708	16.781	1367.277	1020.424
359.723	16.766	1366.488	1019.653
360.738	16.748	1365.874	1018.999
361.752	16.781	1364.646	1018.190
362.767	16.806	1363.031	1017.044
363.781	16.898	1362.098	1016.809
364.796	16.851	1361.480	1015.976
365.810	16.770	1361.372	1015.324
366.825	16.844	1360.476	1015.010
367.840	16.936	1359.349	1014.628
368.854	17.013	1358.461	1014.337
369.869	16.970	1358.371	1013.920
370.883	17.109	1357.065	1013.688
371.898	16.915	1356.988	1012.380
372.913	17.039	1355.780	1012.132
373.927	17.039	1355.011	1011.465
374.942	17.049	1354.204	1010.831
375.956	17.063	1353.286	1010.144
376.971	17.004	1352.693	1009.261
377.986	17.004	1351.745	1008.461
379.000	17.077	1350.680	1008.011
380.015	17.144	1349.747	1007.624
381.029	17.265	1348.923	1007.639
382.044	17.195	1348.612	1006.899
383.059	17.329	1347.376	1006.679
384.073	17.249	1347.145	1005.950
385.088	17.206	1346.659	1005.240
386.102	17.147	1345.789	1004.153
387.117	17.260	1345.081	1004.202
388.132	17.367	1344.030	1003.963
389.146	17.253	1343.298	1002.654
390.161	17.330	1342.413	1002.359
391.175	17.312	1341.536	1001.507
392.190	17.416	1340.678	1001.393
393.205	17.400	1340.147	1000.811
394.219	17.394	1338.783	999.673
395.234	17.445	1337.510	998.931
396.248	17.491	1335.851	997.872
397.263	17.365	1335.029	996.431
398.278	17.398	1333.815	995.629
399.292	17.458	1332.964	995.260
400.307	17.400	1331.825	993.984
401.321	17.419	1330.351	992.904
402.336	17.440	1329.315	992.165
403.350	17.449	1328.150	991.262
404.365	17.436	1327.265	990.436
405.380	17.457	1326.290	989.745
406.394	17.523	1325.730	989.624
407.409	17.436	1325.299	988.709
408.423	17.560	1324.339	988.626
409.438	17.538	1323.626	987.879
410.453	17.588	1322.804	987.467
411.467	17.623	1321.757	986.799
412.482	17.633	1321.211	986.360
413.496	17.684	1320.806	986.267
414.511	17.696	1319.971	985.628
415.526	17.752	1319.089	985.202
416.540	17.793	1318.222	984.704
417.555	17.741	1317.428	983.724
418.569	17.794	1317.165	983.749
419.584	17.774	1316.674	983.180
420.599	17.803	1315.870	982.660
421.613	102.097	1364.141	1494.154
422.628	100.695	1371.087	1494.204
