DTS Sentinel unit serial number:	SN413079Multiplexer serial number:	ORYXHardware model number:	OX4-SRSoftware version number:	ORYX F/W v4.00 Oryx Data Collector v3.7.2.0data status	okinstallation	princeton_trtdifferential loss correction	single-endedforward channel	channel 4reverse channel	N/Adate	2019/09/19time	06:41:35forward acquisition time	60.00reverse acquisition time	0.00gamma	496.2192k internal	0.2340k external	0.2340temperature offset calibration	1.0028default loss term (dB/km)	0.3790temperature slope calibration	1.0000multiplexer offset coefficient	1.0000multiplexer slope coefficient	1.0000fibre end	0.00T internal ref (°C)	19.00T ext. ref 1 (°C)	0.56T ext. ref 2 (°C)	12.76length (m)	temperature (°C)	Stokes	anti-Stokes-747.200	69.570	0.056	0.058
-746.185	-41.971	-0.180	-0.093
-745.171	-200.000	-0.007	0.283
-744.156	27.579	0.330	0.278
-743.142	97.325	0.167	-0.193
-742.127	-162.391	-0.261	0.013
-741.112	-45.024	-0.106	-0.053
-740.098	-64.847	-0.086	-0.035
-739.083	112.417	-0.034	-0.041
-738.069	49.600	-0.091	-0.086
-737.054	314.138	0.044	0.082
-736.039	-134.137	-0.302	0.037
-735.025	-200.000	-0.089	0.406
-734.010	-120.686	-0.181	-0.031
-732.996	-131.913	-0.197	-0.026
-731.981	-200.000	-0.005	0.032
-730.966	-70.965	0.157	0.059
-729.952	-183.181	-0.114	0.002
-728.937	-88.755	-0.083	-0.025
-727.923	-41.671	-0.288	-0.148
-726.908	-155.135	-0.100	0.007
-725.894	253.515	-0.133	-0.227
-724.879	233.916	0.151	0.249
-723.864	-200.000	0.005	-0.104
-722.850	43.584	-0.088	-0.080
-721.835	-11.131	-0.207	-0.136
-720.821	203.125	-0.055	0.085
-719.806	-137.024	0.368	-0.042
-718.791	-72.568	-0.252	0.093
-717.777	-77.319	0.214	0.075
-716.762	416.523	-0.090	-0.192
-715.748	382.039	0.097	-0.200
-714.733	800.000	-0.116	-0.426
-713.718	-131.635	-0.121	-0.016
-712.704	81.520	-0.289	0.313
-711.689	800.000	-0.126	0.456
-710.675	289.165	-0.053	-0.096
-709.660	53.915	-0.155	-0.149
-708.645	-144.141	0.101	0.010
-707.631	-200.000	0.014	0.340
-706.616	-3.349	-0.141	0.099
-705.602	-145.292	0.160	-0.014
-704.587	800.000	0.024	0.106
-703.572	-200.000	0.028	-0.419
-702.558	-8.026	-0.157	-0.106
-701.543	-30.378	0.095	-0.054
-700.529	-33.343	0.260	0.144
-699.514	309.804	-0.163	-0.305
-698.499	-178.791	-0.209	0.005
-697.485	179.020	0.115	0.168
-696.470	800.000	0.017	0.071
-695.456	800.000	0.020	-0.063
-694.441	-100.799	-0.128	-0.032
-693.426	800.000	-0.103	0.349
-692.412	635.851	0.118	0.301
-691.397	34.053	-0.115	-0.100
-690.383	-171.880	0.241	-0.008
-689.368	467.980	-0.080	-0.180
-688.354	-48.494	0.162	0.078
-687.339	680.037	-0.072	-0.187
-686.324	800.000	0.103	0.367
-685.310	-163.425	-0.317	0.015
-684.295	800.000	-0.060	0.243
-683.281	-33.469	0.295	0.163
-682.266	119.205	-0.139	0.172
-681.251	800.000	0.135	-0.537
-680.237	99.565	0.205	0.237
-679.222	-200.000	0.006	-0.085
-678.208	1.667	-0.151	-0.109
-677.193	-200.000	0.043	-0.227
-676.178	800.000	-0.066	-0.240
-675.164	61.265	-0.216	-0.215
-674.149	-81.981	0.110	0.036
-673.135	-200.000	-0.028	0.149
-672.120	-200.000	-0.005	-0.232
-671.105	372.683	0.103	0.210
-670.091	-29.999	-0.279	-0.159
-669.076	-200.000	-0.011	0.162
-668.062	-114.890	0.119	0.023
-667.047	-160.788	0.122	-0.006
-666.032	316.052	0.042	-0.080
-665.018	495.069	0.157	0.360
-664.003	-200.000	0.005	0.313
-662.989	-31.430	0.250	-0.141
-661.974	-200.000	-0.021	-0.219
-660.959	443.112	0.030	0.065
-659.945	136.321	0.031	-0.040
-658.930	-66.444	0.183	-0.072
-657.916	-125.659	-0.235	0.036
-656.901	146.830	0.103	0.138
-655.886	-86.540	0.184	0.056
-654.872	-191.045	0.409	0.004
-653.857	-82.714	0.201	-0.065
-652.843	57.590	-0.192	-0.187
-651.828	55.905	-0.284	-0.275
-650.814	-100.268	0.349	-0.087
-649.799	-10.971	-0.165	-0.109
-648.784	-148.434	0.197	0.016
-647.770	330.098	-0.121	-0.232
-646.755	176.944	-0.037	0.053
-645.741	88.572	-0.191	-0.212
-644.726	-97.765	-0.197	-0.051
-643.711	-14.332	-0.145	0.094
-642.697	-51.815	-0.071	0.033
-641.682	800.000	0.076	0.292
-640.668	-46.034	-0.171	-0.084
-639.653	7.150	0.339	-0.252
-638.638	-200.000	-0.061	-0.321
-637.624	-200.000	0.013	0.097
-636.609	601.779	0.049	-0.122
-635.595	116.161	-0.155	-0.189
-634.580	-200.000	0.017	-0.078
-633.565	-200.000	-0.056	-0.262
-632.551	800.000	-0.092	-0.276
-631.536	-100.355	-0.040	-0.010
-630.522	-160.020	0.126	-0.007
-629.507	-53.696	-0.243	0.111
-628.492	103.629	-0.073	0.086
-627.478	634.870	-0.077	0.195
-626.463	8.654	-0.153	0.115
-625.449	174.385	0.053	0.077
-624.434	258.756	0.028	-0.048
-623.419	7.040	-0.105	0.078
-622.405	168.241	-0.195	-0.277
-621.390	-200.000	0.015	-0.161
-620.376	736.920	-0.046	0.122
-619.361	428.446	-0.087	-0.188
-618.346	106.248	0.120	-0.142
-617.332	-21.100	0.255	-0.156
-616.317	-74.678	0.159	0.057
-615.303	-200.000	0.006	-0.091
-614.288	-200.000	0.002	-0.096
-613.273	800.000	-0.040	0.126
-612.259	3.905	0.383	-0.279
-611.244	222.448	-0.099	0.159
-610.230	-105.347	-0.367	0.083
-609.215	519.083	0.048	0.112
-608.201	800.000	-0.030	0.126
-607.186	-158.069	-0.165	0.010
-606.171	517.336	0.120	0.280
-605.157	-200.000	0.006	-0.066
-604.142	-193.118	-0.107	-0.001
-603.128	-92.599	-0.080	0.022
-602.113	-63.239	-0.056	-0.023
-601.098	800.000	-0.098	-0.386
-600.084	-82.679	0.283	0.092
-599.069	-97.590	-0.484	-0.125
-598.055	-200.000	-0.033	-0.354
-597.040	-139.210	-0.349	-0.038
-596.025	800.000	0.113	0.374
-595.011	-130.856	0.220	0.029
-593.996	-200.000	0.336	0.000
-592.982	166.214	0.153	-0.216
-591.967	-200.000	-0.002	0.239
-590.952	-105.442	-0.382	-0.087
-589.938	800.000	-0.047	-0.162
-588.923	-200.000	0.035	-0.318
-587.909	60.556	0.145	0.143
-586.894	30.493	-0.133	0.113
-585.879	-70.894	-0.246	0.093
-584.865	502.667	-0.059	0.137
-583.850	-152.583	-0.122	0.009
-582.836	-60.268	-0.074	0.031
-581.821	-31.184	0.223	0.125
-580.806	569.778	-0.117	-0.282
-579.792	197.512	-0.055	-0.083
-578.777	-100.158	0.269	0.067
-577.763	180.084	0.093	0.136
-576.748	-115.220	0.376	0.071
-575.733	-200.000	-0.040	0.268
-574.719	264.553	-0.126	0.219
-573.704	89.936	0.392	0.436
-572.690	88.468	0.216	-0.240
-571.675	-127.866	0.377	-0.054
-570.661	-146.440	0.227	-0.020
-569.646	131.078	-0.184	0.236
-568.631	800.000	0.073	0.246
-567.617	-85.507	0.117	-0.036
-566.602	66.011	0.122	-0.123
-565.588	93.772	-0.108	-0.122
-564.573	-81.298	-0.396	0.130
-563.558	293.278	-0.102	-0.185
-562.544	-200.000	0.008	0.085
-561.529	-157.385	-0.224	-0.013
-560.515	-200.000	-0.036	0.263
-559.500	-106.187	-0.119	0.027
-558.485	437.285	0.080	-0.174
-557.471	344.526	-0.061	-0.118
-556.456	-113.147	0.097	0.019
-555.442	-102.500	-0.285	0.068
-554.427	43.148	-0.143	-0.130
-553.412	-200.000	-0.025	-0.172
-552.398	-155.314	0.156	-0.010
-551.383	133.534	-0.076	-0.098
-550.369	65.700	0.243	-0.245
-549.354	800.000	-0.066	-0.239
-548.339	-37.527	-0.086	0.046
-547.325	168.063	-0.161	0.227
-546.310	800.000	-0.069	0.290
-545.296	800.000	-0.066	-0.205
-544.281	-200.000	0.001	-0.003
-543.266	-73.087	-0.154	0.056
-542.252	-114.383	0.465	0.089
-541.237	-160.728	-0.255	0.013
-540.223	145.304	0.126	-0.168
-539.208	-200.000	0.003	-0.337
-538.193	339.652	0.135	-0.262
-537.179	-69.477	-0.374	0.143
-536.164	-200.000	-0.016	0.274
-535.150	24.634	0.059	-0.048
-534.135	442.053	-0.077	-0.168
-533.121	239.922	-0.056	-0.093
-532.106	-200.000	-0.008	0.053
-531.091	115.410	0.073	-0.088
-530.077	174.263	-0.122	-0.175
-529.062	-139.195	0.241	-0.026
-528.048	-200.000	0.041	-0.221
-527.033	-92.594	0.409	0.114
-526.018	-105.502	-0.191	-0.043
-525.004	-200.000	0.011	-0.147
-523.989	-45.406	-0.057	-0.028
-522.975	-120.203	-0.286	-0.049
-521.960	15.948	0.246	0.192
-520.945	154.539	-0.294	-0.402
-519.931	-2.655	-0.049	0.034
-518.916	-200.000	0.013	0.179
-517.902	-40.933	0.247	0.127
-516.887	-200.000	0.015	0.112
-515.872	-190.807	-0.114	0.001
-514.858	-22.111	-0.054	0.032
-513.843	-123.932	0.179	0.028
-512.829	-41.438	0.194	0.099
-511.814	-65.252	0.162	0.065
-510.799	-200.000	-0.014	0.317
-509.785	800.000	-0.080	0.234
-508.770	800.000	0.071	-0.215
-507.756	24.683	-0.328	-0.270
-506.741	-88.586	-0.250	0.074
-505.726	48.899	-0.191	0.179
-504.712	77.598	0.156	0.165
-503.697	-200.000	0.029	-0.155
-502.683	335.938	0.094	-0.181
-501.668	800.000	0.073	-0.250
-500.653	-38.857	0.165	0.086
-499.639	-86.042	-0.171	-0.052
-498.624	800.000	0.042	-0.158
-497.610	75.042	0.129	0.135
-496.595	83.244	0.125	-0.135
-495.581	284.942	-0.052	-0.092
-494.566	800.000	0.028	0.118
-493.551	-56.184	-0.088	0.039
-492.537	-60.456	-0.362	-0.153
-491.522	-75.717	0.116	0.041
-490.508	-200.000	-0.012	0.166
-489.493	-84.533	-0.316	0.099
-488.478	-26.291	-0.133	-0.077
-487.464	38.031	0.158	-0.139
-486.449	12.002	0.036	0.027
-485.435	654.692	-0.128	0.327
-484.420	-71.263	0.145	0.054
-483.405	-61.752	-0.219	-0.091
-482.391	-105.242	0.008	0.002
-481.376	-79.434	0.314	0.105
-480.362	-86.084	-0.470	0.144
-479.347	303.031	0.143	0.263
-478.332	800.000	0.051	0.161
-477.318	-200.000	0.003	0.381
-476.303	-19.026	0.273	-0.168
-475.289	4.312	-0.354	-0.257
-474.274	-200.000	-0.018	-0.090
-473.259	453.836	-0.173	0.380
-472.245	-145.557	-0.196	-0.017
-471.230	44.900	0.063	0.057
-470.216	-200.000	-0.024	0.185
-469.201	800.000	-0.080	0.280
-468.186	23.862	0.284	0.232
-467.172	-39.975	-0.297	0.153
-466.157	117.343	-0.128	0.157
-465.143	7.969	-0.223	-0.166
-464.128	364.010	-0.188	-0.376
-463.113	800.000	0.068	-0.283
-462.099	287.707	-0.104	0.186
-461.084	344.174	-0.031	0.061
-460.070	228.549	0.065	-0.106
-459.055	-200.000	-0.024	-0.289
-458.040	41.195	0.154	0.138
-457.026	11.660	-0.304	0.231
-456.011	-200.000	-0.029	-0.263
-454.997	80.018	0.247	0.263
-453.982	580.496	-0.081	0.197
-452.968	213.888	0.138	0.216
-451.953	-54.673	-0.330	0.148
-450.938	-97.759	0.146	0.037
-449.924	205.125	-0.202	0.311
-448.909	-85.207	0.105	-0.032
-447.895	-160.314	-0.384	-0.021
-446.880	58.987	-0.114	-0.111
-445.865	124.193	0.214	-0.267
-444.851	-200.000	0.077	-0.357
-443.836	-11.481	0.251	-0.163
-442.822	-132.161	0.092	0.012
-441.807	800.000	-0.078	-0.334
-440.792	-200.000	-0.050	0.370
-439.778	-91.991	0.088	0.025
-438.763	-200.000	0.007	0.149
-437.749	-128.059	-0.468	-0.066
-436.734	305.643	-0.108	-0.198
-435.719	-88.605	-0.030	-0.009
-434.705	800.000	-0.067	-0.282
-433.690	257.631	0.193	-0.328
-432.676	800.000	0.054	0.183
-431.661	-200.000	0.039	-0.194
-430.646	55.089	-0.239	0.229
-429.632	-117.833	-0.151	0.027
-428.617	-8.527	-0.133	0.088
-427.603	-37.798	-0.321	0.169
-426.588	-98.047	0.297	0.076
-425.573	-128.490	0.533	-0.075
-424.559	800.000	0.077	-0.266
-423.544	319.842	-0.106	-0.198
-422.530	-200.000	0.015	-0.149
-421.515	-6.657	-0.201	-0.135
-420.500	739.541	0.078	-0.208
-419.486	-200.000	-0.016	0.173
-418.471	-48.369	0.092	0.044
-417.457	17.110	-0.147	0.115
-416.442	-68.586	0.493	-0.189
-415.428	74.132	0.149	0.155
-414.413	-143.464	-0.361	0.034
-413.398	-200.000	0.007	-0.049
-412.384	-200.000	-0.010	0.071
-411.369	-130.382	0.406	-0.055
-410.355	52.015	0.084	0.080
-409.340	-200.000	-0.004	0.140
-408.325	800.000	0.116	-0.386
-407.311	-200.000	-0.042	0.221
-406.296	416.014	0.102	-0.215
-405.282	-71.641	0.228	0.084
-404.267	108.288	-0.070	-0.083
-403.252	-119.559	0.196	-0.034
-402.238	800.000	-0.104	-0.338
-401.223	43.737	-0.167	-0.151
-400.209	-68.850	-0.091	-0.035
-399.194	163.162	0.103	0.143
-398.179	-115.184	0.261	0.049
-397.165	-66.126	0.029	-0.011
-396.150	-90.923	0.230	0.065
-395.136	293.486	-0.114	-0.205
-394.121	15.584	0.239	0.186
-393.106	131.633	0.031	-0.040
-392.092	258.377	0.126	0.214
-391.077	19.346	-0.453	0.360
-390.063	-36.458	0.152	0.081
-389.048	82.750	-0.158	-0.170
-388.033	62.971	0.082	0.081
-387.019	-128.151	-0.213	0.030
-386.004	80.164	-0.237	0.253
-384.990	81.601	-0.119	-0.127
-383.975	-100.224	-0.123	0.030
-382.960	86.357	-0.023	0.025
-381.946	-200.000	-0.029	0.347
-380.931	76.278	-0.148	0.155
-379.917	15.091	0.175	-0.135
-378.902	20.119	-0.097	-0.077
-377.888	352.408	0.074	0.144
-376.873	-123.557	0.145	0.023
-375.858	10.835	-0.170	-0.128
-374.844	7.446	0.033	-0.025
-373.829	-169.670	-0.182	-0.007
-372.815	-200.000	0.062	0.394
-371.800	-13.258	-0.309	-0.199
-370.785	68.655	-0.136	-0.138
-369.771	464.419	-0.012	-0.027
-368.756	-138.589	0.179	0.019
-367.742	-145.091	0.208	-0.019
-366.727	-200.000	0.066	0.348
-365.712	1.055	-0.213	0.151
-364.698	-200.000	0.007	0.114
-363.683	-200.000	-0.000	-0.126
-362.669	-3.169	-0.403	0.278
-361.654	-150.889	-0.087	0.007
-360.639	-38.666	0.187	0.097
-359.625	221.353	-0.198	0.314
-358.610	-145.026	0.039	0.004
-357.596	-33.633	0.164	0.089
-356.581	-163.154	-0.032	-0.002
-355.566	319.627	-0.189	-0.353
-354.552	535.678	0.074	0.173
-353.537	270.061	0.087	-0.150
-352.523	6.396	-0.110	-0.080
-351.508	65.091	0.173	-0.172
-350.493	-43.373	0.124	-0.062
-349.479	6.615	-0.284	-0.208
-348.464	92.325	-0.323	-0.360
-347.450	-200.000	0.004	0.047
-346.435	-92.134	-0.342	0.095
-345.420	-102.974	-0.160	0.038
-344.406	107.359	-0.130	0.153
-343.391	-26.570	0.307	0.178
-342.377	130.178	0.120	-0.152
-341.362	413.655	-0.057	0.120
-340.348	26.309	-0.081	0.066
-339.333	-120.823	-0.474	0.079
-338.318	-200.000	-0.000	0.147
-337.304	194.743	-0.221	-0.331
-336.289	209.471	-0.078	0.121
-335.275	2.463	-0.128	0.091
-334.260	-17.214	0.305	-0.190
-333.245	-166.076	-0.135	0.006
-332.231	-200.000	-0.054	-0.244
-331.216	203.407	-0.096	-0.147
-330.202	300.315	0.124	0.226
-329.187	32.469	0.089	-0.076
-328.172	-36.665	0.281	-0.149
-327.158	-200.000	-0.011	0.091
-326.143	79.295	-0.084	-0.089
-325.129	-54.603	0.316	-0.141
-324.114	-27.909	0.060	-0.034
-323.099	-200.000	-0.013	-0.322
-322.085	177.698	-0.159	-0.228
-321.070	-71.767	-0.164	0.060
-320.056	-72.105	0.218	0.080
-319.041	-200.000	-0.015	0.082
-318.026	-23.603	0.332	0.196
-317.012	344.513	0.028	0.054
-315.997	662.408	0.090	0.229
-314.983	-122.439	-0.319	0.051
-313.968	379.220	-0.100	-0.203
-312.953	122.610	-0.016	0.020
-311.939	-200.000	-0.026	-0.176
-310.924	800.000	0.030	0.112
-309.910	-200.000	-0.021	-0.131
-308.895	1.050	0.208	0.147
-307.880	-149.610	0.125	0.010
-306.866	-39.085	0.421	0.218
-305.851	335.495	0.065	0.124
-304.837	-8.981	-0.274	-0.181
-303.822	249.801	-0.060	-0.101
-302.807	-104.594	0.061	0.014
-301.793	55.486	0.183	-0.175
-300.778	-200.000	0.063	-0.363
-299.764	34.898	-0.097	0.084
-298.749	198.794	0.224	0.338
-297.735	153.122	-0.043	0.059
-296.720	-136.427	-0.174	-0.020
-295.705	110.650	-0.087	0.104
-294.691	294.025	0.145	0.260
-293.676	800.000	0.071	0.256
-292.662	0.061	0.164	0.115
-291.647	169.031	-0.130	-0.182
-290.632	97.087	-0.136	-0.153
-289.618	-91.845	0.111	0.031
-288.603	20.173	0.395	-0.314
-287.589	90.370	-0.263	0.290
-286.574	454.972	-0.093	-0.202
-285.559	800.000	0.010	0.039
-284.545	800.000	-0.035	-0.133
-283.530	-27.484	0.037	-0.021
-282.516	16.336	-0.160	0.124
-281.501	417.116	0.138	0.290
-280.486	-53.954	-0.326	-0.146
-279.472	800.000	0.054	-0.211
-278.457	-120.420	0.150	0.025
-277.443	271.152	-0.108	0.187
-276.428	-97.553	0.229	0.058
-275.413	135.078	-0.115	0.147
-274.399	-15.082	0.164	-0.103
-273.384	-200.000	0.002	0.133
-272.370	92.065	0.177	0.196
-271.355	800.000	-0.062	0.246
-270.340	674.395	0.182	-0.465
-269.326	-5.390	-0.320	-0.216
-268.311	-177.860	0.377	-0.009
-267.297	-200.000	0.061	-0.367
-266.282	-200.000	-0.017	0.194
-265.267	32.238	-0.225	-0.191
-264.253	-200.000	-0.049	0.214
-263.238	-200.000	0.004	0.042
-262.224	-86.217	-0.085	-0.026
-261.209	-15.749	0.171	0.107
-260.195	-97.371	-0.077	0.020
-259.180	156.337	0.126	0.171
-258.165	15.150	0.196	-0.151
-257.151	-170.907	0.113	0.004
-256.136	800.000	0.047	0.151
-255.122	152.265	0.017	-0.023
-254.107	-36.591	-0.071	0.038
-253.092	-200.000	-0.037	0.231
-252.078	-44.451	0.375	0.185
-251.063	144.409	0.167	0.219
-250.049	-200.000	-0.033	-0.179
-249.034	189.845	-0.077	-0.114
-248.019	-200.000	-0.003	-0.166
-247.005	193.692	-0.131	-0.195
-245.990	37.620	0.065	-0.057
-244.976	-6.212	-0.268	-0.180
-243.961	-117.447	-0.108	-0.019
-242.946	800.000	-0.040	-0.148
-241.932	-200.000	0.017	0.076
-240.917	-182.058	0.323	-0.006
-239.903	-103.256	-0.176	-0.041
-238.888	800.000	0.014	-0.046
-237.873	-175.127	0.103	-0.003
-236.859	-125.860	-0.271	-0.040
-235.844	204.853	0.079	-0.121
-234.830	85.611	-0.157	0.170
-233.815	362.958	0.150	-0.296
-232.800	-114.276	0.298	0.056
-231.786	-150.933	0.150	0.011
-230.771	800.000	0.041	-0.171
-229.757	-200.000	0.027	-0.141
-228.742	-200.000	0.062	-0.391
-227.727	-30.156	-0.153	0.085
-226.713	144.538	0.195	-0.256
-225.698	274.466	-0.128	-0.222
-224.684	60.908	0.238	0.232
-223.669	-200.000	-0.042	0.305
-222.655	800.000	-0.028	-0.117
-221.640	-200.000	-0.005	0.168
-220.625	145.765	0.088	-0.116
-219.611	106.962	-0.082	0.095
-218.596	-200.000	0.053	-0.258
-217.582	1.985	0.239	0.169
-216.567	58.599	-0.150	0.145
-215.552	375.295	0.128	0.257
-214.538	209.163	-0.130	0.201
-213.523	144.479	0.149	-0.195
-212.509	-200.000	-0.012	0.714
-211.494	391.116	0.092	0.187
-210.479	-47.711	-0.052	0.025
-209.465	93.601	-0.074	0.082
-208.450	-200.000	0.022	-0.161
-207.436	-200.000	-0.050	-0.252
-206.421	34.389	0.213	-0.183
-205.406	93.384	0.177	0.197
-204.392	-75.411	0.370	-0.129
-203.377	-200.000	0.008	-0.149
-202.363	-200.000	0.033	0.159
-201.348	800.000	-0.022	0.077
-200.333	-64.271	-0.214	-0.086
-199.319	-101.753	-0.362	0.086
-198.304	4.601	0.105	-0.075
-197.290	-64.150	0.043	-0.017
-196.275	351.285	-0.031	-0.061
-195.260	-200.000	-0.082	0.449
-194.246	366.455	0.092	0.183
-193.231	104.513	0.157	0.181
-192.217	442.286	0.065	-0.139
-191.202	-116.575	0.008	0.001
-190.187	-148.842	0.449	-0.036
-189.173	800.000	0.083	-0.333
-188.158	-37.316	0.327	0.171
-187.144	-18.913	0.159	0.097
-186.129	-200.000	-0.030	0.369
-185.114	-200.000	-0.001	0.376
-184.100	-10.073	0.149	0.097
-183.085	-25.209	-0.175	0.102
-182.071	-87.485	0.205	0.061
-181.056	800.000	-0.058	-0.185
-180.042	-138.031	0.075	-0.008
-179.027	-49.307	0.111	0.052
-178.012	-108.667	0.174	0.037
-176.998	-160.971	-0.130	0.007
-175.983	236.594	0.225	-0.366
-174.969	3.317	0.150	0.107
-173.954	-200.000	0.011	0.187
-172.939	44.386	-0.145	0.130
-171.925	-200.000	-0.029	0.207
-170.910	69.106	0.065	0.065
-169.896	214.752	-0.077	0.120
-168.881	48.850	-0.128	0.118
-167.866	-137.629	0.369	0.041
-166.852	-37.516	0.138	0.072
-165.837	-97.623	-0.234	0.060
-164.823	-135.931	0.500	-0.058
-163.808	-200.000	-0.065	-0.445
-162.793	-2.840	-0.295	-0.202
-161.779	106.882	0.217	-0.252
-160.764	-44.462	-0.357	0.175
-159.750	-75.013	0.236	-0.083
-158.735	208.070	0.112	-0.171
-157.720	-200.000	-0.046	0.222
-156.706	-98.297	0.231	0.058
-155.691	-200.000	-0.025	-0.349
-154.677	-200.000	0.004	-0.026
-153.662	-49.127	-0.097	-0.045
-152.647	-185.712	-0.162	0.002
-151.633	361.376	-0.091	-0.178
-150.618	-200.000	0.001	0.145
-149.604	-164.968	0.025	-0.001
-148.589	800.000	-0.068	-0.209
-147.574	557.547	0.019	0.046
-146.560	-200.000	0.002	-0.255
-145.545	-200.000	-0.010	0.275
-144.531	-102.197	-0.023	0.005
-143.516	62.905	0.065	0.063
-142.502	-200.000	-0.049	0.226
-141.487	131.034	-0.113	0.142
-140.472	-72.586	0.106	-0.038
-139.458	-200.000	-0.060	-0.279
-138.443	-85.231	-0.239	0.073
-137.429	-122.366	0.335	0.054
-136.414	590.662	0.136	0.329
-135.399	-200.000	-0.018	0.188
-134.385	5.758	0.107	-0.078
-133.370	116.611	0.085	-0.102
-132.356	247.853	-0.091	0.150
-131.341	800.000	0.065	-0.202
-130.326	403.713	-0.101	-0.208
-129.312	-103.900	0.031	0.007
-128.297	-200.000	-0.009	0.109
-127.283	800.000	0.041	-0.127
-126.268	-44.757	-0.231	0.113
-125.253	-25.330	0.118	0.069
-124.239	91.524	0.176	0.194
-123.224	112.515	0.061	-0.073
-122.210	35.601	-0.283	0.244
-121.195	46.579	0.363	0.330
-120.180	-105.575	-0.375	0.083
-119.166	-200.000	-0.017	-0.422
-118.151	176.563	-0.136	0.194
-117.137	104.698	0.119	0.137
-116.122	-200.000	0.023	0.359
-115.107	6.353	-0.292	0.212
-114.093	516.739	-0.084	-0.192
-113.078	-79.276	-0.124	-0.041
-112.064	21.534	-0.087	-0.070
-111.049	495.469	0.049	-0.110
-110.034	-108.445	0.199	0.042
-109.020	-200.000	-0.012	0.163
-108.005	-106.364	0.229	0.050
-106.991	800.000	-0.043	0.130
-105.976	-29.776	0.247	0.138
-104.962	-200.000	-0.007	0.200
-103.947	-54.275	-0.188	0.084
-102.932	-191.208	0.363	0.004
-101.918	194.543	-0.078	0.115
-100.903	-200.000	0.042	-0.339
-99.889	306.896	-0.035	-0.063
-98.874	800.000	-0.103	-0.419
-97.859	290.810	-0.066	0.117
-96.845	352.952	-0.078	0.151
-95.830	-200.000	-0.026	-0.170
-94.816	800.000	-0.073	-0.204
-93.801	260.299	-0.057	0.097
-92.786	169.191	-0.175	-0.245
-91.772	-10.102	-0.199	-0.129
-90.757	-200.000	-0.027	-0.148
-89.743	-123.167	-0.201	-0.031
-88.728	-2.045	-0.066	-0.045
-87.713	308.898	0.131	-0.240
-86.699	-34.506	0.153	-0.082
-85.684	800.000	-0.116	0.452
-84.670	-61.861	-0.328	0.134
-83.655	15.289	0.411	0.315
-82.640	173.075	-0.251	-0.354
-81.626	110.585	0.255	-0.300
-80.611	-200.000	0.010	0.262
-79.597	-28.343	-0.286	-0.161
-78.582	303.591	0.092	-0.166
-77.567	547.748	0.073	0.170
-76.553	-200.000	0.003	0.206
-75.538	800.000	-0.068	0.249
-74.524	-12.192	0.233	0.149
-73.509	-24.465	-0.242	0.141
-72.494	53.454	-0.080	-0.075
-71.480	-16.172	0.264	0.164
-70.465	61.469	0.184	0.178
-69.451	-139.665	0.273	-0.028
-68.436	-89.314	0.333	-0.096
-67.422	-133.688	-0.179	-0.022
-66.407	-15.814	-0.183	0.114
-65.392	743.816	-0.140	-0.367
-64.378	800.000	-0.053	0.210
-63.363	-200.000	-0.062	0.369
-62.349	-200.000	0.018	0.242
-61.334	96.884	-1.024	-1.146
-60.319	-10.504	0.898	0.581
-59.305	465.579	-0.706	-1.544
-58.290	556.142	0.729	1.714
-57.276	492.608	0.678	1.516
-56.261	-200.000	135.129	627.471
-55.246	345.261	1630.290	3125.155
-54.232	136.262	2778.832	3536.364
-53.217	73.574	2337.636	2389.370
-52.203	24.931	2090.751	1691.860
-51.188	20.693	2011.449	1589.009
-50.173	19.871	1997.581	1570.532
-49.159	37.435	2074.947	1795.243
-48.144	34.310	2085.569	1775.295
-47.130	20.906	2038.592	1612.161
-46.115	19.014	2028.501	1586.690
-45.100	19.024	2024.972	1583.958
-44.086	18.947	2022.886	1581.556
-43.071	18.914	2019.873	1578.835
-42.057	18.856	2018.789	1577.391
-41.042	18.970	2016.409	1576.510
-40.027	18.945	2013.882	1574.242
-39.013	18.889	2012.700	1572.742
-37.998	18.919	2011.478	1572.007
-36.984	18.980	2009.308	1570.800
-35.969	18.949	2007.462	1569.011
-34.954	18.950	2006.449	1568.165
-33.940	18.984	2004.305	1566.737
-32.925	18.993	2003.278	1565.962
-31.911	19.057	2000.991	1564.689
-30.896	18.993	1999.290	1562.718
-29.881	18.993	1998.777	1562.251
-28.867	19.083	1996.342	1561.108
-27.852	18.969	1994.913	1558.894
-26.838	19.081	1992.398	1557.880
-25.823	19.071	1990.854	1556.518
-24.809	19.059	1989.448	1555.252
-23.794	19.053	1987.744	1553.804
-22.779	19.062	1985.788	1552.289
-21.765	19.035	1984.657	1551.107
-20.750	19.018	1983.242	1549.782
-19.736	19.069	1981.277	1548.644
-18.721	19.022	1979.661	1546.892
-17.706	18.998	1978.373	1545.612
-16.692	18.951	1976.556	1543.708
-15.677	19.036	1974.889	1543.112
-14.663	18.944	1974.386	1541.830
-13.648	18.993	1972.822	1540.985
-12.633	19.032	1971.018	1539.862
-11.619	19.094	1969.369	1539.068
-10.604	18.988	1968.453	1537.344
-9.590	18.947	1967.292	1536.011
-8.575	19.022	1965.667	1535.353
-7.560	18.967	1964.628	1533.985
-6.546	19.065	1962.619	1533.230
-5.531	18.965	1961.716	1531.578
-4.517	18.992	1960.741	1530.995
-3.502	18.965	1959.884	1530.021
-2.487	19.063	1957.944	1529.321
-1.473	19.047	1956.696	1528.138
-0.458	19.019	1952.339	1524.435
0.556	17.722	1931.635	1494.966
1.571	13.487	1912.966	1443.536
2.586	9.653	1936.660	1427.388
3.600	8.857	1971.188	1445.535
4.615	8.962	1962.886	1440.258
5.629	7.216	1863.555	1352.361
6.644	2.972	1755.275	1239.492
7.659	0.726	1725.491	1200.521
8.673	0.583	1722.744	1197.377
9.688	0.554	1722.224	1196.673
10.702	0.598	1720.268	1195.560
11.717	0.495	1715.901	1191.606
12.731	0.730	1714.030	1192.053
13.746	4.150	1720.588	1223.543
14.761	10.663	1734.077	1284.720
15.775	15.787	1744.428	1332.972
16.790	17.055	1746.040	1344.132
17.804	16.160	1742.799	1334.440
18.819	15.251	1739.770	1324.821
19.834	14.700	1736.839	1318.124
20.848	14.355	1735.219	1314.056
21.863	14.257	1733.740	1312.046
22.877	13.951	1732.420	1308.520
23.892	13.801	1730.676	1305.910
24.907	13.593	1729.695	1303.417
25.921	13.631	1728.125	1302.418
26.936	13.657	1727.181	1301.799
27.950	13.743	1725.795	1301.313
28.965	13.676	1726.173	1300.952
29.980	13.737	1725.527	1300.830
30.994	13.786	1724.241	1300.132
32.009	13.857	1723.059	1299.680
33.023	13.889	1722.141	1299.121
34.038	13.776	1721.501	1297.643
35.053	13.726	1721.046	1296.788
36.067	13.848	1719.194	1296.237
37.082	13.795	1718.054	1294.849
38.096	13.809	1716.978	1294.028
39.111	13.753	1716.218	1292.905
40.126	13.813	1715.141	1292.448
41.140	13.724	1714.488	1291.151
42.155	13.699	1712.988	1289.708
43.169	13.664	1711.569	1288.257
44.184	13.683	1710.376	1287.390
45.199	13.603	1709.060	1285.670
46.213	13.652	1707.533	1284.785
47.228	13.640	1706.557	1283.842
48.242	13.602	1705.585	1282.705
49.257	13.733	1704.097	1282.483
50.271	13.810	1702.410	1281.696
51.286	13.706	1701.991	1280.467
52.301	13.699	1700.561	1279.219
53.315	13.732	1699.340	1278.443
54.330	13.713	1697.002	1276.425
55.344	13.743	1695.694	1275.564
56.359	13.640	1694.206	1273.540
57.374	13.664	1693.213	1272.863
58.388	13.700	1692.048	1272.151
59.403	13.586	1690.788	1270.213
60.417	13.634	1688.807	1268.982
61.432	13.646	1687.861	1268.254
62.447	13.528	1686.849	1266.476
63.461	13.577	1685.337	1265.607
64.476	13.646	1684.382	1265.298
65.490	13.586	1683.528	1264.086
66.505	13.584	1681.757	1262.635
67.520	13.590	1681.033	1262.023
68.534	13.671	1679.967	1261.726
69.549	13.587	1678.992	1260.246
70.563	13.591	1677.664	1259.164
71.578	13.635	1675.756	1257.961
72.593	13.560	1675.022	1256.729
73.607	13.548	1674.308	1255.985
74.622	13.525	1672.293	1254.192
75.636	13.478	1671.932	1253.453
76.651	13.551	1670.762	1253.018
77.666	13.602	1670.253	1252.909
78.680	13.553	1669.015	1251.500
79.695	13.572	1667.781	1250.610
80.709	13.601	1666.339	1249.635
81.724	13.554	1665.761	1248.740
82.739	13.567	1664.872	1248.058
83.753	13.694	1663.944	1248.210
84.768	13.665	1662.733	1246.969
85.782	13.680	1662.569	1246.848
86.797	13.731	1661.230	1246.123
87.812	13.676	1661.259	1245.621
88.826	13.691	1658.513	1243.562
89.841	13.723	1657.358	1242.826
90.855	13.648	1656.839	1241.766
91.870	13.664	1655.496	1240.764
92.884	13.727	1654.784	1240.594
93.899	13.783	1653.054	1239.609
94.914	13.835	1651.580	1238.779
95.928	13.748	1651.091	1237.655
96.943	13.798	1649.163	1236.470
97.957	13.847	1647.857	1235.745
98.972	13.790	1646.274	1234.025
99.987	13.762	1644.649	1232.496
101.001	13.719	1643.118	1230.917
102.016	13.716	1641.469	1229.552
103.030	13.720	1640.445	1228.706
104.045	13.774	1638.978	1227.894
105.060	13.733	1637.125	1226.098
106.074	13.776	1635.719	1225.251
107.089	13.770	1634.325	1224.056
108.103	13.774	1632.218	1222.399
109.118	13.533	1632.028	1220.375
110.133	13.674	1630.257	1219.976
111.147	13.605	1628.426	1217.991
112.162	13.590	1627.123	1216.804
113.176	13.656	1625.787	1216.182
114.191	13.730	1624.245	1215.459
115.206	13.683	1623.229	1214.246
116.220	13.753	1621.641	1213.462
117.235	13.677	1620.227	1211.743
118.249	13.637	1618.913	1210.362
119.264	13.734	1617.368	1209.804
120.279	13.764	1615.947	1208.854
121.293	13.658	1614.824	1207.138
122.308	13.689	1613.355	1206.160
123.322	13.677	1611.384	1204.492
124.337	13.617	1609.827	1202.783
125.352	13.679	1608.753	1202.325
126.366	13.562	1607.852	1200.696
127.381	13.594	1606.438	1199.766
128.395	13.696	1604.669	1199.079
129.410	13.623	1603.234	1197.371
130.424	13.619	1602.197	1196.466
131.439	13.677	1600.754	1195.696
132.454	13.725	1599.529	1195.019
133.468	13.755	1597.850	1193.879
134.483	13.702	1596.699	1192.532
135.497	13.744	1594.949	1191.421
136.512	13.854	1593.060	1190.692
137.527	13.774	1591.723	1189.015
138.541	13.757	1590.793	1188.092
139.556	13.879	1588.979	1187.503
140.570	13.814	1588.054	1186.242
141.585	13.803	1586.737	1185.075
142.600	13.762	1586.261	1184.325
143.614	13.861	1584.399	1183.538
144.629	13.920	1582.978	1182.787
145.643	13.929	1581.550	1181.680
146.658	13.929	1580.064	1180.469
147.673	13.915	1579.012	1179.481
148.687	13.859	1577.773	1178.053
149.702	13.937	1575.737	1176.978
150.716	13.858	1574.192	1175.158
151.731	13.773	1572.807	1173.425
152.746	13.935	1571.162	1173.239
153.760	14.015	1569.502	1172.459
154.775	13.953	1568.091	1170.862
155.789	13.948	1567.395	1170.205
156.804	14.009	1565.668	1169.240
157.819	13.997	1564.740	1168.357
158.833	13.978	1563.493	1167.190
159.848	14.063	1562.278	1166.778
160.862	14.192	1560.623	1166.345
161.877	14.126	1559.324	1164.808
162.892	14.020	1558.728	1163.516
163.906	14.081	1556.760	1162.368
164.921	14.004	1555.890	1161.083
165.935	14.017	1554.669	1160.156
166.950	14.009	1553.714	1159.286
167.964	14.119	1552.554	1159.087
168.979	14.131	1551.178	1158.039
169.994	14.154	1549.987	1157.205
171.008	14.094	1549.118	1156.038
172.023	14.110	1548.232	1155.388
173.037	14.052	1547.190	1154.101
174.052	14.105	1545.742	1153.287
175.067	14.150	1544.900	1152.871
176.081	14.154	1543.191	1151.518
177.096	14.168	1541.883	1150.538
178.110	14.098	1540.546	1148.957
179.125	14.150	1539.532	1148.459
180.140	14.220	1538.212	1147.853
181.154	14.153	1537.223	1146.553
182.169	14.175	1536.390	1145.984
183.183	14.228	1534.864	1145.105
184.198	14.158	1534.357	1144.143
185.213	14.295	1532.619	1143.689
186.227	14.361	1531.479	1143.192
187.242	14.322	1530.701	1142.240
188.256	14.284	1529.421	1140.926
189.271	14.349	1527.982	1140.198
190.286	14.354	1527.257	1139.590
191.300	14.349	1526.162	1138.632
192.315	14.215	1525.179	1136.888
193.329	14.218	1523.557	1135.600
194.344	14.241	1522.596	1134.937
195.359	14.302	1521.558	1134.477
196.373	14.233	1520.546	1133.156
197.388	14.395	1519.362	1133.275
198.402	14.433	1518.112	1132.501
199.417	14.403	1517.030	1131.387
200.432	14.488	1516.080	1131.152
201.446	14.496	1515.328	1130.549
202.461	14.538	1513.907	1129.671
203.475	14.588	1512.853	1129.126
204.490	14.684	1511.630	1128.763
205.504	14.616	1510.194	1127.129
206.519	14.576	1509.495	1126.240
207.534	14.519	1508.326	1124.884
208.548	14.560	1506.804	1123.927
209.563	14.501	1506.147	1122.937
210.577	14.544	1505.322	1122.509
211.592	14.760	1504.010	1122.887
212.607	14.726	1503.340	1122.060
213.621	14.581	1503.100	1120.806
214.636	14.790	1501.735	1121.088
215.650	14.677	1500.934	1119.635
216.665	14.735	1499.901	1119.158
217.680	14.706	1499.329	1118.435
218.694	14.697	1498.244	1117.465
219.709	14.791	1497.218	1117.231
220.723	14.785	1496.012	1116.195
221.738	14.736	1495.512	1115.393
222.753	14.791	1494.314	1114.766
223.767	14.739	1493.588	1113.781
224.782	14.703	1492.866	1112.907
225.796	14.884	1491.276	1112.829
226.811	14.886	1490.436	1112.111
227.826	14.935	1489.907	1111.943
228.840	14.919	1488.694	1110.838
229.855	14.869	1487.845	1109.773
230.869	14.834	1486.992	1108.804
231.884	14.922	1485.614	1108.265
232.899	14.913	1484.819	1107.510
233.913	14.868	1483.482	1106.121
234.928	14.858	1482.281	1105.059
235.942	14.858	1480.632	1103.732
236.957	14.852	1479.520	1102.765
237.972	14.930	1478.480	1102.408
238.986	14.826	1477.617	1100.985
240.001	14.981	1476.095	1100.770
241.015	14.830	1475.464	1099.211
242.030	14.968	1473.771	1098.757
243.045	14.959	1473.046	1098.058
244.059	15.054	1471.842	1097.692
245.074	15.014	1471.381	1096.985
246.088	14.970	1470.694	1096.091
247.103	15.071	1469.864	1096.034
248.117	15.003	1468.994	1094.846
249.132	15.014	1468.473	1094.429
250.147	15.184	1467.797	1094.939
251.161	15.158	1467.199	1094.229
252.176	15.150	1466.283	1093.396
253.190	15.318	1464.794	1093.285
254.205	15.273	1464.351	1092.561
255.220	15.357	1463.218	1092.168
256.234	15.279	1462.783	1091.242
257.249	15.440	1461.666	1091.358
258.263	15.436	1460.793	1090.582
259.278	15.374	1459.993	1089.484
260.293	15.373	1458.959	1088.611
261.307	15.481	1458.413	1088.805
262.322	15.448	1457.410	1087.751
263.336	15.445	1456.673	1087.085
264.351	15.534	1455.387	1086.600
265.366	15.428	1454.918	1085.473
266.380	15.484	1453.760	1084.872
267.395	15.675	1452.295	1084.918
268.409	15.601	1451.968	1084.096
269.424	15.595	1450.504	1082.868
270.439	15.587	1449.658	1082.089
271.453	15.540	1448.395	1080.751
272.468	15.601	1447.850	1080.644
273.482	15.691	1447.182	1080.627
274.497	15.628	1446.115	1079.329
275.512	15.629	1445.561	1078.829
276.526	15.620	1444.844	1078.138
277.541	15.690	1443.182	1077.249
278.555	15.786	1442.349	1077.145
279.570	15.667	1441.943	1075.987
280.585	15.746	1440.488	1075.311
281.599	15.821	1439.373	1074.864
282.614	15.815	1438.476	1074.062
283.628	15.848	1437.699	1073.596
284.643	15.775	1436.874	1072.416
285.657	15.714	1435.538	1070.937
286.672	15.746	1434.407	1070.205
287.687	15.763	1433.518	1069.556
288.701	15.817	1432.175	1068.800
289.716	15.850	1432.363	1069.058
290.730	15.803	1431.336	1067.895
291.745	15.920	1429.636	1067.277
292.760	15.891	1428.964	1066.495
293.774	15.919	1428.231	1066.034
294.789	15.874	1426.981	1064.718
295.803	16.005	1426.072	1064.778
296.818	16.007	1425.093	1063.965
297.833	16.000	1423.923	1062.950
298.847	16.044	1423.106	1062.521
299.862	15.982	1422.481	1061.573
300.876	15.889	1421.608	1060.239
301.891	15.963	1420.772	1059.989
302.906	16.037	1419.874	1059.691
303.920	16.032	1419.170	1059.038
304.935	16.093	1418.223	1058.626
305.949	16.137	1417.180	1058.030
306.964	16.079	1416.673	1057.189
307.979	16.178	1415.856	1057.110
308.993	16.156	1414.569	1055.917
310.008	16.171	1413.289	1054.963
311.022	16.213	1412.308	1054.396
312.037	16.266	1411.327	1053.902
313.052	16.250	1410.409	1053.022
314.066	16.363	1409.089	1052.650
315.081	16.374	1407.942	1051.772
316.095	16.174	1407.223	1049.894
317.110	16.301	1406.174	1049.808
318.125	16.169	1405.397	1048.317
319.139	16.192	1404.440	1047.653
320.154	16.267	1403.580	1047.380
321.168	16.255	1402.344	1046.294
322.183	16.276	1401.460	1045.674
323.197	16.307	1400.493	1045.050
324.212	16.299	1399.643	1044.270
325.227	16.313	1399.102	1043.866
326.241	16.257	1398.416	1042.916
327.256	16.337	1397.007	1042.262
328.270	16.445	1396.099	1042.163
329.285	16.348	1394.756	1040.470
330.300	16.493	1393.736	1040.509
331.314	16.373	1393.042	1039.158
332.329	16.377	1392.457	1038.655
333.343	16.347	1391.581	1037.725
334.358	16.361	1390.475	1036.894
335.373	16.472	1389.617	1036.842
336.387	16.443	1388.913	1036.049
337.402	16.430	1388.273	1035.401
338.416	16.465	1387.312	1034.805
339.431	16.535	1386.997	1034.907
340.446	16.466	1386.549	1034.060
341.460	16.510	1384.988	1033.074
342.475	16.585	1384.495	1033.073
343.489	16.684	1383.196	1032.618
344.504	16.748	1382.003	1032.026
345.519	16.615	1381.567	1030.795
346.533	16.765	1380.071	1030.504
347.548	16.751	1379.572	1029.956
348.562	16.867	1378.073	1029.445
349.577	16.793	1377.930	1028.800
350.592	16.696	1377.134	1027.523
351.606	16.869	1375.766	1027.463
352.621	16.641	1374.789	1025.264
353.635	16.657	1373.840	1024.557
354.650	16.725	1372.803	1024.105
355.665	16.772	1371.811	1023.562
356.679	16.680	1371.167	1022.432
357.694	16.756	1369.914	1021.869
358.708	16.920	1368.276	1021.544
359.723	16.733	1367.989	1020.115
360.738	16.892	1366.358	1019.764
361.752	16.982	1364.814	1019.059
362.767	16.957	1363.956	1018.178
363.781	16.951	1363.120	1017.427
364.796	16.987	1362.520	1017.109
365.810	16.902	1361.802	1015.972
366.825	16.890	1361.258	1015.405
367.840	16.946	1360.792	1015.303
368.854	16.973	1359.437	1014.361
369.869	17.041	1359.573	1014.781
370.883	17.126	1358.408	1014.330
371.898	17.095	1357.734	1013.551
372.913	17.061	1357.009	1012.718
373.927	17.070	1356.045	1011.964
374.942	17.046	1355.245	1011.135
375.956	17.064	1354.619	1010.684
376.971	17.111	1353.495	1010.034
377.986	17.184	1352.861	1009.909
379.000	17.263	1351.793	1009.492
380.015	17.249	1351.320	1008.963
381.029	17.174	1350.516	1007.827
382.044	17.321	1349.173	1007.608
383.059	17.321	1348.895	1007.313
384.073	17.359	1347.945	1006.740
385.088	17.344	1347.584	1006.291
386.102	17.400	1346.804	1005.949
387.117	17.418	1346.057	1005.412
388.132	17.323	1345.010	1003.975
389.146	17.383	1344.205	1003.640
390.161	17.237	1343.834	1002.414
391.175	17.367	1342.912	1002.403
392.190	17.290	1341.885	1001.099
393.205	17.383	1340.792	1000.742
394.219	17.485	1339.906	1000.588
395.234	17.504	1338.636	999.664
396.248	17.411	1337.179	997.939
397.263	17.449	1336.023	997.212
398.278	17.439	1334.307	995.784
399.292	17.471	1333.606	995.360
400.307	17.507	1332.442	994.613
401.321	17.482	1331.364	993.577
402.336	17.411	1330.461	992.404
403.350	17.444	1329.765	991.987
404.365	17.494	1328.489	991.241
405.380	17.587	1327.379	990.863
406.394	17.566	1326.785	990.211
407.409	17.614	1326.103	989.895
408.423	17.623	1325.645	989.512
409.438	17.613	1324.931	988.835
410.453	17.586	1324.259	988.091
411.467	17.722	1323.271	988.054
412.482	17.680	1322.605	987.228
413.496	17.733	1322.011	987.005
414.511	17.707	1321.290	986.228
415.526	17.818	1320.353	986.082
416.540	17.913	1319.569	985.959
417.555	17.801	1319.161	984.916
418.569	17.835	1318.547	984.568
419.584	17.956	1317.935	984.721
420.599	17.857	1317.274	983.572
421.613	101.877	1365.067	1493.330
422.628	100.493	1371.944	1493.385
