DTS Sentinel unit serial number:	SN413079Multiplexer serial number:	ORYXHardware model number:	OX4-SRSoftware version number:	ORYX F/W v4.00 Oryx Data Collector v3.7.2.0data status	okinstallation	princeton_trtdifferential loss correction	single-endedforward channel	channel 4reverse channel	N/Adate	2019/09/18time	17:25:35forward acquisition time	60.00reverse acquisition time	0.00gamma	496.2192k internal	0.2287k external	0.2287temperature offset calibration	1.0013default loss term (dB/km)	0.3790temperature slope calibration	1.0000multiplexer offset coefficient	1.0000multiplexer slope coefficient	1.0000fibre end	0.00T internal ref (°C)	40.00T ext. ref 1 (°C)	0.91T ext. ref 2 (°C)	36.76length (m)	temperature (°C)	Stokes	anti-Stokes-747.200	-200.000	-0.003	0.094
-746.185	800.000	0.027	0.085
-745.171	-73.097	0.246	0.092
-744.156	153.358	0.204	0.286
-743.142	800.000	-0.030	-0.120
-742.127	-200.000	0.053	0.348
-741.112	-34.925	0.260	-0.146
-740.098	800.000	0.093	0.322
-739.083	-200.000	0.007	0.325
-738.069	105.691	-0.254	0.308
-737.054	13.623	0.294	0.234
-736.039	734.766	0.059	0.163
-735.025	-200.000	-0.011	0.149
-734.010	196.629	-0.234	-0.366
-732.996	-1.568	-0.118	0.085
-731.981	-76.878	-0.123	0.044
-730.966	387.425	0.085	0.180
-729.952	-200.000	-0.011	-0.116
-728.937	-200.000	-0.041	0.225
-727.923	-127.795	-0.265	-0.039
-726.908	800.000	-0.068	-0.279
-725.894	6.905	-0.131	-0.100
-724.879	160.890	0.250	0.357
-723.864	-146.513	-0.356	0.032
-722.850	198.112	-0.167	-0.261
-721.835	-153.879	-0.185	0.013
-720.821	508.804	-0.116	-0.276
-719.806	214.675	-0.138	-0.225
-718.791	-200.000	-0.033	0.368
-717.777	82.359	-0.092	0.103
-716.762	-100.861	0.165	-0.042
-715.748	-166.823	-0.532	0.022
-714.733	51.568	-0.069	0.068
-713.718	-104.710	-0.245	0.058
-712.704	11.024	-0.185	0.145
-711.689	-26.268	-0.065	-0.039
-710.675	-40.196	0.284	-0.151
-709.660	112.067	-0.018	0.023
-708.645	-200.000	0.044	-0.207
-707.631	-200.000	-0.014	-0.331
-706.616	110.420	-0.206	-0.253
-705.602	185.857	0.211	-0.321
-704.587	-8.403	-0.115	-0.079
-703.572	-200.000	0.026	-0.282
-702.558	42.253	0.353	0.329
-701.543	-121.885	0.125	-0.021
-700.529	-73.027	0.166	0.062
-699.514	301.673	0.210	0.397
-698.499	279.165	0.158	0.289
-697.485	-200.000	0.057	0.282
-696.470	-84.029	-0.202	-0.066
-695.456	-61.331	-0.202	-0.087
-694.441	-200.000	-0.036	-0.391
-693.426	-200.000	0.007	-0.040
-692.412	-87.160	-0.328	-0.102
-691.397	-113.308	-0.160	0.032
-690.383	-134.356	0.314	0.039
-689.368	-76.532	0.409	0.147
-688.354	-20.257	0.137	-0.087
-687.339	72.951	-0.141	-0.151
-686.324	-200.000	0.001	-0.169
-685.310	800.000	0.062	-0.254
-684.295	-32.596	0.145	0.083
-683.281	-145.656	0.109	0.010
-682.266	-157.623	-0.015	-0.001
-681.251	-200.000	-0.036	0.259
-680.237	-200.000	0.055	-0.308
-679.222	800.000	-0.126	0.422
-678.208	-145.317	-0.300	-0.028
-677.193	74.305	0.166	0.178
-676.178	800.000	0.090	0.277
-675.164	-64.689	-0.077	-0.032
-674.149	-93.077	-0.409	0.116
-673.135	-96.628	-0.064	0.017
-672.120	-59.477	-0.164	-0.072
-671.105	-200.000	-0.030	0.349
-670.091	-40.314	0.302	0.161
-669.076	-66.188	0.152	0.062
-668.062	17.625	-0.121	-0.099
-667.047	-121.035	-0.302	0.052
-666.032	153.065	-0.090	-0.126
-665.018	-135.007	0.214	0.026
-664.003	-52.583	-0.174	-0.082
-662.989	14.519	0.066	0.053
-661.974	800.000	0.154	0.611
-660.959	800.000	-0.133	-0.421
-659.945	-110.302	-0.087	-0.019
-658.930	-121.782	-0.258	-0.044
-657.916	-74.859	-0.424	0.156
-656.901	-126.636	-0.514	-0.078
-655.886	73.702	-0.225	-0.241
-654.872	-45.559	-0.076	-0.038
-653.857	646.689	0.032	-0.084
-652.843	512.411	0.041	-0.098
-651.828	478.638	-0.066	-0.154
-650.814	-19.814	0.123	0.078
-649.799	146.936	0.140	0.192
-648.784	-187.847	0.029	-0.000
-647.770	800.000	-0.149	-0.423
-646.755	497.677	-0.093	0.219
-645.741	800.000	-0.059	-0.253
-644.726	159.200	-0.100	-0.142
-643.711	-200.000	0.010	0.248
-642.697	-92.560	0.334	0.096
-641.682	-59.157	0.065	-0.029
-640.668	-38.040	-0.006	-0.003
-639.653	19.452	0.189	-0.155
-638.638	383.060	-0.027	-0.058
-637.624	263.667	0.124	-0.220
-636.609	-200.000	0.016	0.437
-635.595	-73.904	0.175	0.065
-634.580	535.831	-0.028	-0.067
-633.565	-7.238	-0.217	0.150
-632.551	43.800	-0.015	-0.014
-631.536	10.141	-0.327	-0.254
-630.522	259.529	0.051	-0.090
-629.507	-116.944	-0.093	0.017
-628.492	-103.174	0.183	0.044
-627.478	-47.564	-0.140	-0.070
-626.463	328.299	0.162	-0.318
-625.449	-117.544	-0.113	0.021
-624.434	-68.861	-0.167	0.066
-623.419	44.306	-0.141	-0.132
-622.405	101.471	-0.154	0.183
-621.390	-33.107	0.097	0.055
-620.376	-117.194	0.217	0.040
-619.361	-21.132	0.232	-0.145
-618.346	800.000	0.060	-0.200
-617.332	-200.000	0.008	-0.233
-616.317	-200.000	-0.038	-0.204
-615.303	498.272	-0.125	-0.295
-614.288	-147.322	-0.370	0.032
-613.273	-159.770	0.122	-0.007
-612.259	-200.000	-0.003	0.069
-611.244	147.305	0.164	0.226
-610.230	800.000	0.058	-0.191
-609.215	800.000	-0.025	-0.099
-608.201	30.106	-0.163	0.142
-607.186	-70.921	-0.207	-0.080
-606.171	-195.064	0.218	0.002
-605.157	122.467	-0.188	-0.239
-604.142	800.000	-0.055	0.237
-603.128	476.019	-0.165	0.380
-602.113	-99.659	-0.204	-0.052
-601.098	-47.003	-0.072	-0.036
-600.084	-200.000	0.016	-0.102
-599.069	-15.283	-0.116	0.075
-598.055	-106.518	0.319	0.073
-597.040	-56.658	0.207	0.093
-596.025	-200.000	0.094	0.443
-595.011	54.534	0.220	-0.216
-593.996	-120.315	-0.262	0.046
-592.982	541.386	-0.095	-0.231
-591.967	-17.582	0.120	-0.077
-590.952	-54.286	0.275	0.127
-589.938	-39.615	-0.250	-0.133
-588.923	37.605	-0.180	-0.163
-587.909	730.533	0.048	-0.130
-586.894	-23.109	0.276	0.169
-585.879	291.743	0.066	0.123
-584.865	800.000	-0.028	0.105
-583.850	-200.000	0.020	0.237
-582.836	172.535	-0.130	-0.190
-581.821	-110.802	0.206	0.043
-580.806	800.000	-0.038	0.115
-579.792	31.340	0.182	0.160
-578.777	263.717	0.085	0.151
-577.763	161.179	0.096	-0.137
-576.748	222.599	-0.058	-0.096
-575.733	-151.836	0.208	-0.016
-574.719	0.830	-0.172	0.125
-573.704	-200.000	-0.005	0.077
-572.690	138.605	0.141	-0.188
-571.675	-197.931	-0.254	0.002
-570.661	-46.669	-0.108	0.054
-569.646	-90.717	0.094	0.028
-568.631	-113.215	-0.069	0.014
-567.617	104.683	-0.032	-0.038
-566.602	-148.859	-0.414	0.034
-565.588	469.335	-0.062	-0.142
-564.573	64.946	-0.140	0.144
-563.558	-64.883	0.306	-0.126
-562.544	628.061	-0.077	-0.198
-561.529	800.000	0.107	0.302
-560.515	84.533	0.208	-0.232
-559.500	800.000	-0.046	0.177
-558.485	-44.098	-0.153	-0.078
-557.471	513.257	0.083	0.198
-556.456	175.326	-0.073	-0.108
-555.442	-48.492	-0.193	0.094
-554.427	-70.512	-0.160	-0.062
-553.412	-51.256	-0.137	0.065
-552.398	-97.218	0.318	-0.084
-551.383	136.669	-0.056	-0.075
-550.369	800.000	0.065	0.268
-549.354	-200.000	0.013	-0.238
-548.339	800.000	-0.062	-0.253
-547.325	282.111	-0.037	-0.067
-546.310	34.139	0.148	0.132
-545.296	-200.000	-0.014	-0.181
-544.281	-127.786	-0.162	0.024
-543.266	800.000	0.067	0.257
-542.252	-10.717	0.154	-0.104
-541.237	-73.943	0.106	0.039
-540.223	-200.000	0.006	0.035
-539.208	164.332	-0.061	-0.088
-538.193	-200.000	0.003	-0.047
-537.179	131.554	0.074	0.097
-536.164	800.000	0.061	-0.175
-535.150	-26.337	-0.075	0.045
-534.135	0.948	-0.082	0.060
-533.121	-119.594	0.162	-0.029
-532.106	210.437	0.131	0.210
-531.091	-94.787	-0.194	0.054
-530.077	55.764	-0.125	-0.124
-529.062	513.976	-0.102	0.242
-528.048	-200.000	-0.037	0.211
-527.033	-110.358	0.211	0.045
-526.018	-200.000	0.045	-0.208
-525.004	63.785	-0.237	0.242
-523.989	231.406	-0.162	0.270
-522.975	303.173	-0.121	-0.228
-521.960	-129.779	-0.028	0.004
-520.945	112.115	0.085	0.104
-519.931	142.755	0.071	0.096
-518.916	-97.169	-0.187	0.050
-517.902	95.625	-0.088	-0.102
-516.887	-38.964	0.248	0.133
-515.872	396.164	-0.049	0.105
-514.858	-34.287	-0.347	0.194
-513.843	38.347	-0.190	-0.172
-512.829	-64.083	-0.270	0.112
-511.814	88.471	0.335	-0.378
-510.799	-83.802	0.284	0.092
-509.785	318.687	0.101	0.194
-508.770	-8.763	0.221	-0.151
-507.756	-200.000	-0.047	0.295
-506.741	-96.891	0.282	0.075
-505.726	-200.000	0.007	-0.045
-504.712	-74.738	0.106	0.039
-503.697	-92.113	0.241	0.069
-502.683	-46.542	-0.167	-0.083
-501.668	401.613	-0.052	-0.111
-500.653	-200.000	0.015	0.080
-499.639	200.015	-0.171	0.266
-498.624	-200.000	-0.010	0.236
-497.610	23.401	-0.164	0.137
-496.595	107.840	-0.129	-0.156
-495.581	-200.000	-0.017	0.099
-494.566	800.000	-0.029	-0.119
-493.551	-167.444	0.449	-0.018
-492.537	-180.892	0.299	0.006
-491.522	-200.000	-0.011	-0.058
-490.508	138.102	-0.258	0.344
-489.493	353.726	-0.081	-0.163
-488.478	75.889	-0.058	-0.062
-487.464	71.213	0.257	0.271
-486.449	-100.034	-0.161	0.041
-485.435	800.000	-0.029	-0.109
-484.420	-200.000	0.026	-0.210
-483.405	68.283	-0.182	-0.189
-482.391	69.714	0.252	0.263
-481.376	-189.181	0.112	-0.001
-480.362	-30.971	-0.185	0.106
-479.347	200.362	-0.168	0.263
-478.332	800.000	-0.033	0.132
-477.318	-200.000	-0.002	0.029
-476.303	109.543	0.164	-0.200
-475.289	-115.348	-0.563	-0.108
-474.274	67.829	0.247	-0.256
-473.259	-77.552	-0.286	0.101
-472.245	-200.000	-0.000	0.029
-471.230	-75.677	-0.131	-0.047
-470.216	-79.339	-0.407	0.140
-469.201	497.072	0.087	-0.202
-468.186	-44.668	-0.121	0.061
-467.172	-79.208	-0.199	0.068
-466.157	205.371	0.159	-0.251
-465.143	46.485	0.058	0.054
-464.128	-200.000	0.002	-0.037
-463.113	197.921	0.062	-0.096
-462.099	53.303	-0.134	-0.131
-461.084	-57.762	0.127	0.056
-460.070	-142.630	-0.292	-0.029
-459.055	92.981	0.193	-0.222
-458.040	-12.838	0.296	0.195
-457.026	-1.743	0.227	0.162
-456.011	-89.688	0.076	-0.022
-454.997	-71.227	-0.218	0.083
-453.982	-16.878	0.040	0.026
-452.968	-77.749	-0.081	-0.028
-451.953	137.614	0.178	-0.237
-450.938	228.951	0.131	-0.217
-449.924	-60.009	0.504	-0.218
-448.909	800.000	-0.110	-0.320
-447.895	-33.715	-0.234	0.131
-446.880	800.000	-0.032	-0.115
-445.865	800.000	-0.077	-0.338
-444.851	-110.446	-0.209	0.044
-443.836	-48.012	-0.128	0.063
-442.822	-120.952	-0.240	-0.041
-441.807	-45.858	-0.394	-0.197
-440.792	322.099	0.186	0.360
-439.778	490.236	0.141	-0.328
-438.763	-200.000	-0.009	0.166
-437.749	-76.256	-0.134	-0.048
-436.734	-62.173	-0.320	0.135
-435.719	-158.620	-0.133	0.008
-434.705	26.291	-0.102	-0.087
-433.690	33.130	0.097	0.085
-432.676	-200.000	0.017	0.291
-431.661	-25.876	0.265	-0.158
-430.646	203.270	0.235	-0.368
-429.632	800.000	0.097	0.423
-428.617	-21.618	0.120	-0.074
-427.603	800.000	-0.204	-0.639
-426.588	800.000	0.146	0.434
-425.573	-66.342	0.135	0.054
-424.559	800.000	0.038	0.160
-423.544	155.874	-0.128	-0.179
-422.530	-200.000	-0.030	0.534
-421.515	-200.000	0.022	0.102
-420.500	-200.000	-0.025	0.221
-419.486	-84.282	0.222	0.071
-418.471	-200.000	-0.020	0.116
-417.457	289.491	-0.162	-0.297
-416.442	313.094	0.151	-0.287
-415.428	5.542	-0.124	-0.092
-414.413	541.988	-0.096	0.232
-413.398	800.000	0.118	0.409
-412.384	800.000	-0.110	-0.385
-411.369	-200.000	-0.395	-0.001
-410.355	800.000	0.065	-0.278
-409.340	-82.403	0.358	0.118
-408.325	27.413	0.113	-0.096
-407.311	-84.471	-0.115	0.037
-406.296	613.230	-0.120	-0.304
-405.282	-111.468	0.265	0.055
-404.267	390.842	-0.035	-0.074
-403.252	-29.069	0.283	-0.165
-402.238	113.160	0.169	-0.208
-401.223	776.852	0.050	-0.138
-400.209	50.038	0.115	0.110
-399.194	342.803	0.183	-0.363
-398.179	111.620	0.083	0.102
-397.165	-200.000	0.073	0.360
-396.150	-160.665	0.019	0.001
-395.136	-63.449	-0.291	0.121
-394.121	800.000	0.047	-0.165
-393.106	-200.000	-0.027	-0.250
-392.092	298.559	0.133	0.247
-391.077	161.841	0.079	0.112
-390.063	-34.898	-0.091	-0.050
-389.048	96.381	-0.084	-0.097
-388.033	-200.000	-0.014	-0.173
-387.019	-118.908	-0.144	-0.026
-386.004	-47.589	0.158	0.077
-384.990	157.033	-0.091	-0.128
-383.975	-19.316	-0.185	-0.116
-382.960	800.000	-0.053	0.219
-381.946	514.385	0.117	-0.275
-380.931	-95.155	0.432	0.118
-379.917	-134.900	-0.190	0.023
-378.902	-200.000	0.056	-0.322
-377.888	-35.455	0.120	-0.066
-376.873	-38.165	-0.103	-0.055
-375.858	23.970	0.242	0.202
-374.844	-156.413	0.053	0.003
-373.829	159.435	0.131	0.184
-372.815	800.000	0.047	-0.134
-371.800	-132.663	0.099	0.013
-370.785	-155.640	0.182	-0.012
-369.771	-14.973	0.238	0.154
-368.756	338.821	0.125	0.245
-367.742	-16.854	-0.271	-0.173
-366.727	447.567	-0.184	0.410
-365.712	-0.840	-0.014	-0.010
-364.698	65.552	0.254	-0.260
-363.683	-200.000	-0.015	0.114
-362.669	-139.506	-0.133	-0.014
-361.654	-19.058	0.122	-0.077
-360.639	153.226	0.183	0.253
-359.625	800.000	0.012	0.050
-358.610	-79.605	0.083	-0.028
-357.596	-159.975	0.158	0.009
-356.581	-10.446	-0.295	0.197
-355.566	161.283	0.059	0.083
-354.552	690.419	-0.128	0.338
-353.537	-200.000	0.002	0.011
-352.523	143.246	0.137	-0.184
-351.508	-200.000	-0.023	-0.213
-350.493	-29.959	-0.218	0.125
-349.479	35.540	-0.222	0.196
-348.464	-200.000	0.045	0.367
-347.450	77.175	0.088	-0.094
-346.435	299.866	-0.117	-0.217
-345.420	-200.000	-0.041	-0.228
-344.406	-139.016	-0.273	-0.030
-343.391	-200.000	-0.068	-0.000
-342.377	-120.752	0.048	0.008
-341.362	332.845	0.125	0.244
-340.348	292.158	0.163	0.301
-339.333	-20.408	0.106	-0.066
-338.318	505.310	0.107	-0.250
-337.304	-190.329	0.146	0.002
-336.289	-129.008	-0.163	-0.023
-335.275	68.285	0.158	0.163
-334.260	581.483	-0.116	0.287
-333.245	-44.745	0.039	0.020
-332.231	781.876	0.081	-0.224
-331.216	800.000	0.111	0.324
-330.202	-161.597	-0.111	-0.006
-329.187	143.209	-0.069	0.092
-328.172	-151.043	-0.415	0.031
-327.158	-200.000	0.022	-0.160
-326.143	800.000	-0.047	-0.146
-325.129	-123.104	-0.098	0.016
-324.114	800.000	0.018	0.071
-323.099	-61.675	0.074	0.031
-322.085	312.486	-0.064	-0.121
-321.070	-200.000	0.021	-0.162
-320.056	87.785	0.164	-0.184
-319.041	-165.004	0.165	0.007
-318.026	423.958	0.114	-0.247
-317.012	94.616	-0.233	0.267
-315.997	-60.798	-0.067	-0.029
-314.983	-125.785	0.150	0.023
-313.968	800.000	0.039	-0.161
-312.953	-40.134	0.313	0.164
-311.939	-33.592	-0.170	-0.095
-310.924	267.170	-0.096	0.170
-309.910	71.650	0.092	-0.096
-308.895	1.578	0.070	0.051
-307.880	-154.430	-0.326	-0.022
-306.866	-14.854	-0.343	-0.222
-305.851	-200.000	-0.001	-0.005
-304.837	441.547	0.080	0.177
-303.822	-94.555	0.387	-0.106
-302.807	344.159	-0.079	-0.156
-301.793	-36.720	-0.055	0.030
-300.778	120.524	0.162	0.203
-299.764	-27.711	-0.302	0.177
-298.749	800.000	-0.068	0.298
-297.735	800.000	-0.030	0.099
-296.720	193.842	0.281	0.429
-295.705	-200.000	0.022	-0.216
-294.691	101.368	-0.051	-0.060
-293.676	118.905	-0.112	0.139
-292.662	82.923	-0.342	0.375
-291.647	682.849	-0.096	-0.253
-290.632	800.000	0.044	0.141
-289.618	-200.000	0.057	-0.266
-288.603	-200.000	-0.095	-0.486
-287.589	261.968	-0.162	0.283
-286.574	-92.211	-0.245	0.070
-285.559	-200.000	-0.006	0.112
-284.545	113.959	0.048	0.059
-283.530	59.530	0.207	0.206
-282.516	246.745	-0.059	0.100
-281.501	81.118	-0.075	0.082
-280.486	37.346	-0.171	-0.153
-279.472	15.753	0.195	0.155
-278.457	219.888	0.186	0.300
-277.443	800.000	-0.080	-0.236
-276.428	347.238	-0.065	0.128
-275.413	-88.237	-0.034	0.010
-274.399	800.000	0.070	0.232
-273.384	489.170	-0.167	0.385
-272.370	-168.526	-0.271	-0.010
-271.355	37.580	0.254	-0.227
-270.340	-86.779	0.314	-0.097
-269.326	800.000	-0.146	-0.419
-268.311	-122.897	-0.202	0.033
-267.297	413.621	0.038	-0.082
-266.282	-120.098	0.056	-0.010
-265.267	91.512	-0.113	-0.127
-264.253	-200.000	-0.001	-0.048
-263.238	-71.587	-0.285	0.107
-262.224	300.173	-0.069	-0.128
-261.209	1.940	-0.212	-0.154
-260.195	113.648	-0.282	0.344
-259.180	345.855	0.119	0.235
-258.165	-132.353	-0.277	0.036
-257.151	31.192	-0.071	0.061
-256.136	-121.581	0.145	0.024
-255.122	800.000	0.021	0.086
-254.107	-76.051	0.218	0.077
-253.092	115.742	-0.110	-0.135
-252.078	103.089	0.320	-0.378
-251.063	54.699	0.163	0.158
-250.049	256.684	-0.186	-0.321
-249.034	84.169	0.267	0.293
-248.019	408.924	0.170	-0.363
-247.005	364.657	-0.071	-0.144
-245.990	6.037	-0.168	-0.125
-244.976	-200.000	-0.018	0.116
-243.961	-104.062	-0.318	0.075
-242.946	777.135	-0.058	-0.158
-241.932	-13.771	-0.146	-0.095
-240.917	-32.378	-0.357	0.200
-239.903	186.607	-0.089	-0.133
-238.888	89.847	-0.206	0.231
-237.873	4.573	-0.111	-0.082
-236.859	74.409	0.132	0.139
-235.844	177.225	-0.248	-0.363
-234.830	612.595	-0.087	-0.219
-233.815	-6.021	0.228	-0.157
-232.800	19.013	0.359	-0.289
-231.786	378.818	0.078	0.160
-230.771	-5.901	-0.275	-0.189
-229.757	48.636	0.164	0.155
-228.742	-142.362	0.252	-0.025
-227.727	-190.364	0.201	0.002
-226.713	-80.317	0.156	0.053
-225.698	28.583	-0.038	-0.032
-224.684	-200.000	-0.053	-0.407
-223.669	-68.301	0.452	-0.176
-222.655	-32.424	0.222	0.124
-221.640	800.000	0.028	0.086
-220.625	15.232	0.049	-0.039
-219.611	609.720	0.067	0.167
-218.596	-175.442	0.278	0.008
-217.582	310.381	-0.151	-0.284
-216.567	170.759	0.048	0.069
-215.552	-155.604	0.278	-0.018
-214.538	800.000	-0.013	0.055
-213.523	800.000	-0.062	-0.193
-212.509	42.301	0.200	-0.182
-211.494	-93.211	0.123	-0.034
-210.479	800.000	0.041	-0.156
-209.465	-54.812	0.185	0.084
-208.450	211.102	-0.060	0.094
-207.436	-103.594	-0.150	0.035
-206.421	-141.546	0.181	-0.018
-205.406	292.619	0.142	0.261
-204.392	218.846	0.066	-0.106
-203.377	-200.000	-0.018	-0.087
-202.363	-200.000	-0.403	0.000
-201.348	41.395	-0.073	0.067
-200.333	-6.955	-0.122	-0.083
-199.319	-200.000	-0.003	0.025
-198.304	32.758	-0.302	-0.262
-197.290	666.301	-0.122	0.316
-196.275	-200.000	0.002	-0.355
-195.260	800.000	0.059	0.195
-194.246	-74.705	-0.308	0.111
-193.231	-2.102	-0.229	0.161
-192.217	-200.000	0.044	0.283
-191.202	-200.000	0.009	0.042
-190.187	-85.290	0.200	0.063
-189.173	48.562	-0.197	0.185
-188.158	66.305	0.050	-0.051
-187.144	-109.918	0.324	-0.068
-186.129	-136.655	0.232	-0.027
-185.114	-200.000	-0.026	0.116
-184.100	-163.183	-0.238	0.011
-183.085	18.439	0.181	-0.145
-182.071	361.543	-0.174	0.351
-181.056	48.477	-0.124	0.116
-180.042	-143.511	0.488	-0.047
-179.027	312.754	0.212	-0.400
-178.012	-1.789	0.211	0.149
-176.998	-200.000	0.004	-0.138
-175.983	-152.626	0.074	-0.005
-174.969	76.679	-0.067	0.071
-173.954	579.663	0.043	0.105
-172.939	-200.000	0.012	-0.143
-171.925	-74.045	0.180	-0.065
-170.910	800.000	-0.111	0.325
-169.896	-200.000	0.027	0.202
-168.881	-200.000	-0.014	-0.229
-167.866	11.991	-0.330	-0.254
-166.852	-174.739	0.121	-0.003
-165.837	-87.508	0.094	0.028
-164.823	-81.412	-0.251	-0.083
-163.808	84.433	-0.203	-0.223
-162.793	236.739	-0.157	-0.260
-161.779	-57.879	-0.113	0.049
-160.764	-200.000	0.011	0.148
-159.750	-200.000	0.029	-0.380
-158.735	291.635	-0.126	-0.230
-157.720	758.504	0.112	0.303
-156.706	33.611	0.198	0.172
-155.691	419.265	0.028	-0.060
-154.677	-113.552	0.264	0.052
-153.662	255.947	0.065	0.112
-152.647	800.000	0.068	0.262
-151.633	10.925	-0.169	-0.129
-150.618	-88.634	0.074	0.022
-149.604	-200.000	0.005	-0.024
-148.589	-40.414	0.232	-0.121
-147.574	-129.861	0.304	-0.042
-146.560	-26.490	-0.062	-0.036
-145.545	189.396	-0.163	-0.244
-144.531	-133.296	0.297	0.038
-143.516	-127.795	0.341	-0.049
-142.502	-200.000	-0.023	-0.510
-141.487	-62.727	-0.129	-0.054
-140.472	-200.000	-0.039	-0.285
-139.458	145.719	-0.055	-0.074
-138.443	-200.000	-0.028	0.128
-137.429	17.184	0.144	-0.114
-136.414	800.000	-0.092	0.340
-135.399	-42.690	0.357	0.182
-134.385	77.129	-0.196	0.208
-133.370	0.670	0.232	-0.166
-132.356	533.585	-0.129	0.306
-131.341	-42.974	-0.136	0.069
-130.326	-36.386	-0.231	-0.125
-129.312	-200.000	0.030	-0.172
-128.297	-200.000	0.013	0.269
-127.283	89.250	-0.053	0.059
-126.268	-100.266	-0.320	-0.080
-125.253	47.718	-0.085	0.079
-124.239	177.921	-0.033	0.048
-123.224	99.739	0.238	0.276
-122.210	-31.768	-0.216	-0.121
-121.195	74.857	0.153	-0.161
-120.180	32.279	0.131	0.113
-119.166	172.828	0.105	0.152
-118.151	12.169	-0.416	-0.321
-117.137	-158.782	0.499	0.029
-116.122	246.665	0.078	0.131
-115.107	-63.614	0.145	0.060
-114.093	51.390	-0.147	0.140
-113.078	268.568	-0.050	-0.088
-112.064	-65.747	-0.219	0.088
-111.049	-11.222	0.194	0.128
-110.034	-158.682	-0.064	0.004
-109.020	-101.757	-0.423	0.103
-108.005	27.427	-0.092	-0.078
-106.991	-111.298	-0.249	0.051
-105.976	-111.431	-0.119	0.024
-104.962	544.480	0.081	-0.193
-103.947	-200.000	-0.030	0.432
-102.932	670.503	0.102	0.263
-101.918	209.524	-0.118	0.185
-100.903	-51.163	-0.140	0.066
-99.889	-72.753	0.311	-0.115
-98.874	196.963	-0.058	-0.088
-97.859	-200.000	-0.006	0.219
-96.845	-53.141	-0.022	0.010
-95.830	409.982	0.212	-0.450
-94.816	-121.133	0.137	0.023
-93.801	-58.082	-0.217	-0.094
-92.786	103.279	0.159	-0.186
-91.772	55.926	0.161	0.156
-90.757	-137.021	-0.260	0.030
-89.743	74.380	0.176	0.185
-88.728	118.662	0.151	0.186
-87.713	-14.637	-0.054	0.035
-86.699	145.030	-0.124	-0.166
-85.684	510.648	-0.060	-0.140
-84.670	68.588	-0.104	-0.107
-83.655	-54.430	0.177	0.080
-82.640	-146.238	-0.117	0.010
-81.626	100.554	0.082	-0.095
-80.611	58.377	-0.131	0.128
-79.597	375.416	-0.010	0.021
-78.582	30.261	-0.109	-0.093
-77.567	-139.555	-0.430	-0.046
-76.553	800.000	0.058	-0.244
-75.538	-200.000	0.226	-0.001
-74.524	-200.000	-0.034	-0.413
-73.509	136.320	0.151	-0.197
-72.494	219.101	0.206	-0.329
-71.480	-200.000	-0.036	-0.339
-70.465	-52.253	0.168	-0.078
-69.451	-76.199	-0.407	-0.143
-68.436	-143.837	-0.219	-0.021
-67.422	370.768	-0.199	0.402
-66.407	800.000	-0.018	0.062
-65.392	54.146	-0.258	0.248
-64.378	-102.116	0.040	0.010
-63.363	359.508	-0.178	0.356
-62.349	800.000	-0.037	-0.148
-61.334	373.843	-0.333	-0.677
-60.319	800.000	0.095	0.354
-59.305	-200.000	-0.069	-0.411
-58.290	264.915	0.392	0.682
-57.276	-200.000	0.313	1.893
-56.261	-200.000	77.119	515.656
-55.246	497.070	1344.656	3088.272
-54.232	141.767	2597.625	3436.109
-53.217	105.485	2405.224	2836.997
-52.203	46.780	2141.814	1986.230
-51.188	41.761	2047.282	1852.134
-50.173	40.028	2027.496	1818.240
-49.159	52.367	2066.596	1967.948
-48.144	56.484	2086.637	2025.149
-47.130	42.690	2051.028	1863.849
-46.115	39.993	2039.740	1828.605
-45.100	39.839	2037.294	1824.914
-44.086	39.834	2034.421	1822.225
-43.071	39.915	2031.513	1820.291
-42.057	39.828	2029.354	1817.489
-41.042	39.798	2027.744	1815.702
-40.027	39.859	2025.618	1814.283
-39.013	39.922	2023.526	1812.919
-37.998	39.930	2022.364	1811.878
-36.984	39.952	2019.593	1809.521
-35.969	39.841	2018.218	1807.198
-34.954	39.941	2015.986	1806.042
-33.940	39.985	2014.450	1805.003
-32.925	39.966	2013.079	1803.526
-31.911	40.043	2011.033	1802.324
-30.896	40.003	2009.690	1800.681
-29.881	40.106	2007.803	1799.863
-28.867	40.064	2006.264	1798.025
-27.852	40.054	2004.269	1796.078
-26.838	40.023	2002.251	1793.918
-25.823	40.024	2000.311	1792.116
-24.809	40.059	1998.538	1790.774
-23.794	40.031	1997.025	1789.092
-22.779	40.021	1994.870	1787.004
-21.765	39.972	1993.413	1785.186
-20.750	40.012	1991.478	1783.738
-19.736	39.968	1990.406	1782.314
-18.721	40.041	1988.229	1780.945
-17.706	40.072	1986.535	1779.640
-16.692	39.976	1985.320	1777.615
-15.677	40.013	1983.362	1776.124
-14.663	40.056	1981.663	1774.921
-13.648	39.973	1981.216	1773.701
-12.633	40.046	1979.369	1772.637
-11.619	40.050	1978.350	1771.686
-10.604	40.007	1977.065	1770.083
-9.590	40.007	1975.396	1768.521
-8.575	40.006	1974.060	1767.242
-7.560	39.986	1972.503	1765.596
-6.546	40.042	1970.803	1764.511
-5.531	40.073	1969.233	1763.307
-4.517	40.022	1968.391	1762.033
-3.502	40.022	1966.739	1760.479
-2.487	40.001	1966.342	1759.874
-1.473	39.982	1965.265	1758.662
-0.458	40.198	1960.865	1756.580
0.556	39.461	1942.324	1733.824
1.571	35.272	1921.197	1678.238
2.586	29.570	1939.550	1643.550
3.600	26.652	1972.802	1645.124
4.615	24.836	1966.986	1623.671
5.629	18.786	1862.061	1484.787
6.644	7.902	1733.319	1293.969
7.659	1.654	1688.764	1210.992
8.673	1.122	1684.711	1203.753
9.688	0.911	1683.958	1201.433
10.702	0.833	1682.510	1199.679
11.717	0.785	1679.190	1196.820
12.731	1.336	1678.542	1200.613
13.746	7.734	1693.557	1262.161
14.761	15.906	1709.653	1339.294
15.775	18.117	1711.761	1358.418
16.790	17.520	1708.735	1351.155
17.804	16.588	1706.093	1341.564
18.819	15.562	1702.895	1330.801
19.834	15.017	1700.095	1324.190
20.848	14.585	1698.216	1319.193
21.863	14.337	1696.906	1316.099
22.877	14.070	1695.576	1312.841
23.892	13.846	1693.974	1309.716
24.907	13.625	1692.790	1306.943
25.921	13.670	1691.755	1306.384
26.936	13.688	1690.511	1305.452
27.950	13.732	1689.526	1304.922
28.965	13.757	1689.429	1304.927
29.980	13.810	1688.490	1304.505
30.994	13.809	1687.799	1303.844
32.009	13.903	1686.751	1303.660
33.023	13.830	1685.728	1302.178
34.038	13.894	1685.002	1302.003
35.053	13.991	1683.773	1301.698
36.067	13.899	1682.779	1300.099
37.082	13.964	1681.129	1299.216
38.096	13.870	1680.382	1297.784
39.111	13.895	1679.831	1297.443
40.126	13.925	1678.776	1296.750
41.140	13.880	1678.049	1295.721
42.155	13.827	1676.726	1294.173
43.169	13.752	1675.191	1292.284
44.184	13.750	1674.381	1291.533
45.199	13.761	1673.228	1290.610
46.213	13.710	1672.022	1289.176
47.228	13.701	1670.389	1287.730
48.242	13.813	1668.803	1287.260
49.257	13.812	1668.136	1286.624
50.271	13.798	1667.088	1285.594
51.286	13.840	1665.353	1284.466
52.301	13.803	1663.776	1282.852
53.315	13.812	1662.663	1281.954
54.330	13.770	1661.153	1280.348
55.344	13.695	1659.689	1278.533
56.359	13.764	1658.376	1277.936
57.374	13.742	1657.010	1276.600
58.388	13.769	1655.666	1275.657
59.403	13.658	1654.797	1274.025
60.417	13.718	1652.907	1272.913
61.432	13.706	1651.780	1271.846
62.447	13.692	1650.741	1270.824
63.461	13.681	1649.446	1269.629
64.476	13.653	1648.696	1268.726
65.490	13.693	1647.418	1267.935
66.505	13.599	1646.213	1266.179
67.520	13.673	1645.000	1265.703
68.534	13.684	1644.148	1265.018
69.549	13.671	1643.027	1263.945
70.563	13.671	1642.146	1263.153
71.578	13.721	1640.454	1262.124
72.593	13.634	1639.606	1260.692
73.607	13.599	1638.258	1259.278
74.622	13.551	1637.803	1258.453
75.636	13.595	1636.225	1257.467
76.651	13.572	1635.569	1256.675
77.666	13.617	1634.197	1255.851
78.680	13.566	1633.610	1254.902
79.695	13.542	1632.667	1253.882
80.709	13.556	1631.782	1253.197
81.724	13.619	1631.085	1253.028
82.739	13.659	1629.855	1252.279
83.753	13.721	1629.125	1252.071
84.768	13.764	1627.927	1251.365
85.782	13.751	1626.530	1250.083
86.797	13.768	1625.893	1249.614
87.812	13.837	1625.004	1249.337
88.826	13.781	1623.552	1247.692
89.841	13.762	1622.356	1246.513
90.855	13.779	1621.419	1245.813
91.870	13.751	1620.776	1245.003
92.884	13.779	1619.267	1243.943
93.899	13.846	1618.449	1243.701
94.914	13.858	1617.177	1242.708
95.928	13.891	1615.588	1241.621
96.943	13.913	1614.200	1240.607
97.957	13.899	1612.868	1239.368
98.972	13.878	1611.515	1238.067
99.987	13.831	1609.907	1236.369
101.001	13.844	1608.340	1235.155
102.016	13.776	1607.155	1233.630
103.030	13.770	1605.663	1232.327
104.045	13.859	1604.120	1231.700
105.060	13.800	1602.893	1230.208
106.074	13.844	1601.015	1228.985
107.089	13.753	1599.842	1227.301
108.103	13.726	1598.415	1225.902
109.118	13.666	1597.261	1224.461
110.133	13.677	1595.885	1223.384
111.147	13.580	1593.787	1220.949
112.162	13.688	1592.827	1220.904
113.176	13.694	1591.375	1219.725
114.191	13.796	1589.623	1219.025
115.206	13.779	1588.511	1217.935
116.220	13.794	1587.324	1217.027
117.235	13.819	1586.190	1216.238
118.249	13.751	1584.884	1214.626
119.264	13.711	1583.480	1213.154
120.279	13.728	1582.580	1212.479
121.293	13.701	1581.017	1210.982
122.308	13.727	1579.315	1209.758
123.322	13.763	1577.690	1208.671
124.337	13.714	1576.378	1207.203
125.352	13.764	1575.073	1206.454
126.366	13.810	1573.338	1205.358
127.381	13.786	1572.523	1204.453
128.395	13.740	1571.616	1203.319
129.410	13.790	1569.596	1202.025
130.424	13.803	1568.643	1201.284
131.439	13.919	1566.864	1200.650
132.454	13.845	1565.883	1199.262
133.468	13.854	1564.525	1198.179
134.483	13.878	1562.956	1197.044
135.497	13.859	1561.925	1196.014
136.512	13.907	1560.294	1195.004
137.527	13.883	1559.199	1193.883
138.541	13.884	1557.607	1192.567
139.556	13.895	1556.498	1191.691
140.570	13.920	1554.654	1190.353
141.585	13.971	1553.353	1189.620
142.600	13.963	1552.170	1188.550
143.614	13.978	1551.268	1187.861
144.629	14.053	1549.566	1186.989
145.643	14.069	1548.677	1186.315
146.658	14.106	1546.981	1185.175
147.673	14.057	1545.159	1183.326
148.687	14.023	1543.960	1182.060
149.702	14.022	1542.098	1180.529
150.716	14.044	1540.880	1179.646
151.731	13.950	1539.455	1177.781
152.746	14.038	1538.013	1177.198
153.760	13.934	1536.318	1175.058
154.775	14.029	1535.595	1175.077
155.789	13.930	1534.985	1173.803
156.804	13.988	1532.933	1172.538
157.819	14.096	1531.343	1171.984
158.833	14.063	1530.890	1171.297
159.848	14.072	1529.438	1170.148
160.862	14.161	1528.287	1169.788
161.877	14.144	1526.845	1168.464
162.892	14.128	1525.843	1167.482
163.906	14.062	1525.018	1166.281
164.921	14.090	1523.385	1165.128
165.935	14.053	1522.345	1163.972
166.950	14.003	1521.700	1163.021
167.964	14.089	1519.561	1161.885
168.979	14.091	1519.299	1161.599
169.994	14.134	1517.966	1160.778
171.008	14.072	1517.605	1159.968
172.023	14.198	1515.533	1159.154
173.037	14.218	1514.339	1158.282
174.052	14.248	1512.835	1157.235
175.067	14.298	1512.226	1157.013
176.081	14.229	1510.843	1155.378
177.096	14.186	1509.357	1153.838
178.110	14.169	1508.425	1152.905
179.125	14.129	1507.261	1151.641
180.140	14.262	1505.789	1151.334
181.154	14.188	1505.399	1150.420
182.169	14.249	1503.972	1149.652
183.183	14.260	1502.360	1148.393
184.198	14.210	1501.810	1147.522
185.213	14.298	1500.351	1146.914
186.227	14.363	1499.191	1146.376
187.242	14.400	1497.877	1145.519
188.256	14.437	1496.634	1144.721
189.271	14.454	1495.806	1144.106
190.286	14.516	1494.553	1143.473
191.300	14.398	1493.308	1141.610
192.315	14.322	1492.486	1140.361
193.329	14.230	1491.249	1138.686
194.344	14.291	1490.144	1138.155
195.359	14.210	1489.535	1137.040
196.373	14.329	1488.285	1136.794
197.388	14.392	1486.810	1135.993
198.402	14.402	1485.761	1135.163
199.417	14.441	1484.845	1134.628
200.432	14.438	1483.506	1133.486
201.446	14.588	1482.265	1133.454
202.461	14.580	1481.372	1132.615
203.475	14.630	1480.087	1131.875
204.490	14.545	1479.013	1130.374
205.504	14.613	1477.945	1129.921
206.519	14.622	1476.908	1129.087
207.534	14.602	1475.606	1127.860
208.548	14.584	1474.241	1126.595
209.563	14.576	1473.592	1125.945
210.577	14.692	1472.215	1125.574
211.592	14.617	1471.453	1124.383
212.607	14.656	1470.961	1124.172
213.621	14.816	1469.759	1124.235
214.636	14.760	1469.082	1123.242
215.650	14.714	1467.858	1121.893
216.665	14.700	1467.112	1121.130
217.680	14.752	1466.393	1120.831
218.694	14.811	1465.487	1120.438
219.709	14.843	1464.848	1120.062
220.723	14.831	1463.337	1118.725
221.738	14.781	1462.795	1117.876
222.753	14.873	1461.897	1117.709
223.767	14.787	1461.239	1116.535
224.782	14.858	1460.023	1115.975
225.796	14.873	1458.684	1114.955
226.811	14.929	1458.229	1114.884
227.826	14.961	1457.438	1114.391
228.840	14.934	1456.333	1113.267
229.855	14.915	1455.554	1112.448
230.869	14.913	1454.428	1111.473
231.884	14.886	1453.133	1110.212
232.899	14.931	1451.915	1109.477
233.913	14.957	1450.903	1108.780
234.928	14.827	1449.830	1107.003
235.942	14.831	1448.911	1106.227
236.957	14.829	1447.526	1105.057
237.972	14.842	1446.308	1104.116
238.986	14.790	1445.295	1102.904
240.001	14.980	1443.913	1103.004
241.015	14.947	1443.265	1102.197
242.030	14.894	1442.277	1100.995
243.045	15.004	1440.977	1100.628
244.059	15.053	1440.083	1100.168
245.074	15.049	1439.237	1099.396
246.088	15.052	1438.517	1098.768
247.103	15.109	1437.927	1098.599
248.117	15.093	1436.860	1097.579
249.132	15.050	1436.481	1096.912
250.147	15.299	1435.382	1097.603
251.161	15.198	1435.043	1096.585
252.176	15.370	1433.956	1096.786
253.190	15.392	1432.652	1095.834
254.205	15.379	1432.088	1095.222
255.220	15.451	1431.065	1094.810
256.234	15.420	1430.509	1094.085
257.249	15.433	1429.723	1093.472
258.263	15.429	1429.215	1092.963
259.278	15.362	1428.370	1091.782
260.293	15.508	1426.753	1091.399
261.307	15.464	1426.680	1090.960
262.322	15.454	1426.006	1090.285
263.336	15.462	1425.281	1089.683
264.351	15.566	1423.734	1089.083
265.366	15.527	1422.934	1088.119
266.380	15.685	1421.903	1088.255
267.395	15.579	1420.939	1086.738
268.409	15.658	1419.745	1086.240
269.424	15.690	1418.820	1085.643
270.439	15.548	1418.245	1084.187
271.453	15.694	1416.982	1084.069
272.468	15.601	1416.197	1082.776
273.482	15.558	1415.572	1081.923
274.497	15.645	1414.637	1081.670
275.512	15.655	1413.257	1080.586
276.526	15.580	1412.782	1079.644
277.541	15.583	1411.814	1078.829
278.555	15.685	1411.057	1078.812
279.570	15.655	1410.242	1077.901
280.585	15.752	1408.793	1077.317
281.599	15.708	1408.184	1076.476
282.614	15.773	1407.371	1076.172
283.628	15.774	1406.125	1075.132
284.643	15.723	1404.914	1073.785
285.657	15.824	1403.947	1073.593
286.672	15.769	1402.820	1072.287
287.687	15.795	1401.913	1071.663
288.701	15.869	1401.001	1071.342
289.716	15.816	1400.244	1070.331
290.730	15.847	1399.254	1069.681
291.745	15.884	1398.468	1069.222
292.760	15.880	1397.472	1068.341
293.774	15.905	1395.994	1067.272
294.789	15.943	1395.255	1066.851
295.803	15.894	1394.831	1066.126
296.818	15.992	1393.386	1065.542
297.833	15.970	1392.560	1064.682
298.847	15.931	1392.134	1064.014
299.862	15.913	1391.061	1062.987
300.876	16.045	1389.506	1062.534
301.891	15.958	1388.965	1061.480
302.906	15.969	1388.319	1060.961
303.920	16.009	1387.178	1060.248
304.935	16.140	1386.550	1060.495
305.949	16.206	1385.430	1059.960
306.964	16.200	1384.725	1059.288
307.979	16.199	1383.764	1058.455
308.993	16.193	1382.817	1057.602
310.008	16.229	1382.336	1057.362
311.022	16.176	1381.036	1055.942
312.037	16.261	1379.995	1055.586
313.052	16.252	1379.086	1054.743
314.066	16.214	1377.817	1053.439
315.081	16.200	1376.979	1052.619
316.095	16.196	1375.959	1051.724
317.110	16.177	1374.925	1050.723
318.125	16.169	1374.522	1050.268
319.139	16.259	1373.105	1049.655
320.154	16.263	1372.185	1048.882
321.168	16.183	1371.255	1047.584
322.183	16.252	1370.181	1047.099
323.197	16.290	1369.236	1046.518
324.212	16.286	1368.509	1045.847
325.227	16.375	1367.419	1045.468
326.241	16.360	1366.885	1044.878
327.256	16.297	1366.356	1043.988
328.270	16.350	1365.032	1043.211
329.285	16.404	1364.264	1042.865
330.300	16.354	1363.326	1041.749
331.314	16.402	1362.200	1041.093
332.329	16.399	1361.384	1040.358
333.343	16.405	1360.349	1039.511
334.358	16.342	1359.819	1038.629
335.373	16.421	1358.865	1038.290
336.387	16.444	1358.192	1037.825
337.402	16.519	1357.356	1037.559
338.416	16.490	1356.906	1036.942
339.431	16.456	1356.456	1036.300
340.446	16.595	1354.897	1035.871
341.460	16.623	1354.370	1035.545
342.475	16.593	1353.300	1034.451
343.489	16.679	1352.637	1034.380
344.504	16.670	1351.898	1033.669
345.519	16.647	1350.984	1032.738
346.533	16.626	1349.876	1031.672
347.548	16.778	1348.822	1031.702
348.562	16.783	1347.791	1030.848
349.577	16.736	1347.493	1030.246
350.592	16.900	1345.837	1029.886
351.606	16.761	1345.418	1028.629
352.621	16.789	1344.515	1028.018
353.635	16.724	1343.832	1027.010
354.650	16.820	1342.173	1026.232
355.665	16.811	1341.113	1025.278
356.679	16.807	1340.183	1024.450
357.694	16.763	1339.652	1023.687
358.708	16.833	1338.398	1023.063
359.723	16.840	1337.057	1021.991
360.738	16.819	1336.633	1021.446
361.752	16.883	1335.387	1020.793
362.767	16.833	1334.412	1019.653
363.781	16.909	1333.441	1019.275
364.796	16.968	1332.542	1018.854
365.810	16.997	1331.546	1018.174
366.825	17.058	1331.153	1018.153
367.840	17.004	1330.464	1017.209
368.854	16.986	1329.678	1016.415
369.869	17.105	1328.842	1016.394
370.883	17.127	1328.071	1015.847
371.898	16.973	1327.847	1014.666
372.913	17.158	1326.565	1014.702
373.927	17.225	1325.758	1014.398
374.942	17.181	1325.155	1013.581
375.956	17.206	1324.509	1013.149
376.971	17.158	1323.714	1012.163
377.986	17.173	1322.867	1011.516
379.000	17.219	1322.228	1011.208
380.015	17.132	1321.550	1010.087
381.029	17.236	1320.211	1009.590
382.044	17.296	1319.755	1009.507
383.059	17.346	1318.991	1009.130
384.073	17.344	1318.460	1008.624
385.088	17.322	1318.117	1008.143
386.102	17.287	1317.257	1007.190
387.117	17.379	1316.415	1006.998
388.132	17.353	1315.267	1005.879
389.146	17.364	1314.600	1005.344
390.161	17.295	1313.957	1004.358
391.175	17.408	1313.044	1004.234
392.190	17.341	1312.202	1003.108
393.205	17.356	1311.612	1002.655
394.219	17.411	1310.444	1001.998
395.234	17.476	1309.029	1001.209
396.248	17.365	1307.992	999.679
397.263	17.411	1306.735	998.899
398.278	17.484	1305.258	998.105
399.292	17.470	1304.244	997.161
400.307	17.465	1303.352	996.362
401.321	17.430	1302.249	995.226
402.336	17.438	1301.338	994.489
403.350	17.538	1300.075	994.018
404.365	17.338	1299.376	992.230
405.380	17.424	1298.457	991.941
406.394	17.427	1297.613	991.227
407.409	17.570	1297.314	991.746
408.423	17.579	1296.219	990.870
409.438	17.633	1295.590	990.617
410.453	17.585	1295.183	989.939
411.467	17.725	1293.773	989.584
412.482	17.718	1293.522	989.268
413.496	17.756	1292.913	988.934
414.511	17.785	1291.862	988.212
415.526	17.865	1290.807	987.781
416.540	17.771	1290.171	986.661
417.555	17.780	1289.774	986.324
418.569	17.813	1289.120	985.928
419.584	17.897	1288.672	985.983
420.599	17.874	1287.812	985.101
421.613	82.716	1330.115	1388.057
422.628	81.590	1336.245	1388.170
