DTS Sentinel unit serial number:	SN413079Multiplexer serial number:	ORYXHardware model number:	OX4-SRSoftware version number:	ORYX F/W v4.00 Oryx Data Collector v3.7.2.0data status	okinstallation	princeton_trtdifferential loss correction	single-endedforward channel	channel 4reverse channel	N/Adate	2019/09/11time	23:51:11forward acquisition time	60.00reverse acquisition time	0.00gamma	496.2192k internal	0.2309k external	0.2309temperature offset calibration	1.0087default loss term (dB/km)	0.3790temperature slope calibration	1.0000multiplexer offset coefficient	1.0000multiplexer slope coefficient	1.0000fibre end	0.00T internal ref (°C)	33.87T ext. ref 1 (°C)	1.98T ext. ref 2 (°C)	27.76length (m)	temperature (°C)	Stokes	anti-Stokes-747.200	-96.446	0.263	-0.071
-746.185	-200.000	-0.005	0.534
-745.171	67.917	0.243	-0.253
-744.156	85.403	-0.183	0.204
-743.142	32.475	0.359	-0.315
-742.127	-97.446	-0.295	0.078
-741.112	494.131	-0.108	-0.252
-740.098	-200.000	-0.060	0.273
-739.083	-200.000	-0.019	-0.211
-738.069	-22.815	-0.188	0.115
-737.054	-41.087	-0.259	-0.136
-736.039	-169.514	-0.335	-0.012
-735.025	-200.000	-0.379	-0.002
-734.010	800.000	-0.033	0.096
-732.996	-101.788	-0.366	-0.090
-731.981	-81.516	-0.148	0.050
-730.966	-88.997	-0.103	0.031
-729.952	-46.342	-0.164	0.082
-728.937	-26.239	-0.075	0.045
-727.923	67.893	0.083	0.086
-726.908	-131.887	-0.093	0.012
-725.894	-47.473	-0.434	-0.214
-724.879	279.668	-0.158	0.287
-723.864	-200.000	0.010	-0.088
-722.850	-108.797	-0.335	0.073
-721.835	-36.815	-0.058	-0.032
-720.821	-200.000	-0.058	-0.325
-719.806	482.090	-0.072	-0.167
-718.791	-48.773	-0.301	-0.147
-717.777	526.755	0.147	-0.353
-716.762	34.874	-0.148	0.131
-715.748	-200.000	0.014	-0.515
-714.733	-105.498	0.222	0.051
-713.718	-145.263	-0.037	0.003
-712.704	-45.363	-0.260	0.131
-711.689	-65.193	0.117	0.048
-710.675	228.473	-0.121	0.200
-709.660	-200.000	-0.028	-0.237
-708.645	-200.000	-0.012	-0.131
-707.631	-145.760	0.184	0.017
-706.616	335.469	-0.170	-0.334
-705.602	-42.866	-0.267	-0.138
-704.587	-120.120	0.239	-0.042
-703.572	-200.000	0.076	-0.377
-702.558	425.700	0.126	-0.275
-701.543	800.000	0.100	-0.321
-700.529	81.949	-0.155	-0.170
-699.514	716.318	0.116	0.313
-698.499	-121.523	0.296	-0.050
-697.485	-106.288	-0.220	-0.050
-696.470	800.000	-0.054	0.189
-695.456	113.089	-0.142	-0.174
-694.441	-45.688	0.201	0.101
-693.426	800.000	0.088	-0.252
-692.412	39.179	-0.084	0.076
-691.397	213.016	-0.076	0.122
-690.383	-118.681	-0.218	0.039
-689.368	735.195	0.023	0.062
-688.354	-200.000	0.014	-0.200
-687.339	800.000	0.065	-0.198
-686.324	-165.082	0.321	-0.014
-685.310	-200.000	0.007	-0.076
-684.295	133.110	-0.105	-0.138
-683.281	100.437	0.090	0.106
-682.266	-200.000	0.014	-0.351
-681.251	-200.000	-0.027	-0.167
-680.237	430.277	-0.176	-0.386
-679.222	-90.335	0.092	0.027
-678.208	-200.000	0.054	-0.447
-677.193	63.319	0.214	-0.217
-676.178	9.852	-0.454	-0.349
-675.164	227.983	0.105	-0.174
-674.149	-37.896	-0.330	0.178
-673.135	13.271	-0.037	0.029
-672.120	753.018	-0.104	-0.285
-671.105	179.272	-0.143	0.213
-670.091	800.000	-0.076	-0.216
-669.076	-102.104	0.289	0.071
-668.062	662.154	0.083	0.218
-667.047	-109.958	-0.194	-0.041
-666.032	-200.000	0.003	-0.159
-665.018	-20.967	-0.196	0.121
-664.003	-200.000	0.065	-0.361
-662.989	800.000	0.032	-0.091
-661.974	-121.764	-0.164	-0.027
-660.959	-200.000	0.032	-0.270
-659.945	-200.000	-0.053	-0.517
-658.930	-50.223	0.221	0.106
-657.916	-108.198	0.379	0.083
-656.901	-98.096	-0.167	-0.044
-655.886	122.634	0.169	-0.214
-654.872	-200.000	-0.049	-0.361
-653.857	-200.000	-0.063	0.315
-652.843	800.000	-0.068	-0.241
-651.828	-70.415	0.031	-0.012
-650.814	196.239	0.058	0.090
-649.799	88.448	-0.206	-0.232
-648.784	-200.000	-0.017	-0.103
-647.770	-37.524	0.230	0.124
-646.755	-102.564	0.120	-0.029
-645.741	-33.553	0.204	0.114
-644.726	-200.000	-0.031	0.212
-643.711	269.733	-0.111	-0.198
-642.697	22.151	0.124	0.102
-641.682	9.744	-0.188	-0.145
-640.668	726.248	0.020	0.053
-639.653	-119.456	-0.265	0.047
-638.638	-13.648	0.144	0.094
-637.624	23.290	-0.056	-0.046
-636.609	207.028	0.186	0.294
-635.595	800.000	0.018	-0.061
-634.580	-200.000	0.046	-0.321
-633.565	-149.005	0.090	-0.007
-632.551	32.251	0.128	-0.112
-631.536	-200.000	0.012	0.129
-630.522	-200.000	0.050	0.300
-629.507	-200.000	0.007	-0.057
-628.492	-118.222	0.412	0.074
-627.478	236.660	0.100	0.167
-626.463	332.201	0.165	0.323
-625.449	-136.442	-0.329	0.039
-624.434	-56.433	-0.219	0.098
-623.419	9.490	-0.166	0.127
-622.405	64.625	0.057	0.058
-621.390	-46.345	-0.222	-0.110
-620.376	-200.000	0.093	0.498
-619.361	-200.000	-0.012	-0.388
-618.346	-141.372	-0.125	-0.013
-617.332	181.854	0.053	-0.079
-616.317	83.773	-0.069	0.076
-615.303	800.000	0.110	-0.373
-614.288	7.260	0.007	0.005
-613.273	-103.583	-0.284	0.067
-612.259	800.000	0.084	0.334
-611.244	-44.860	0.323	-0.163
-610.230	-101.068	-0.391	-0.097
-609.215	-25.755	0.282	-0.168
-608.201	800.000	0.047	-0.138
-607.186	-32.818	0.313	-0.176
-606.171	-166.838	0.040	0.002
-605.157	800.000	0.031	0.129
-604.142	800.000	0.048	0.168
-603.128	172.080	0.073	0.106
-602.113	142.263	0.250	0.335
-601.098	164.229	0.030	-0.043
-600.084	-123.614	-0.071	0.011
-599.069	746.329	0.045	-0.122
-598.055	441.638	-0.045	-0.099
-597.040	395.076	-0.102	-0.215
-596.025	800.000	-0.072	-0.302
-595.011	800.000	-0.049	-0.155
-593.996	-200.000	-0.034	-0.182
-592.982	800.000	-0.075	-0.331
-591.967	169.000	0.104	-0.150
-590.952	800.000	0.064	0.271
-589.938	19.111	-0.397	0.322
-588.923	9.735	-0.052	0.040
-587.909	-90.466	0.211	-0.062
-586.894	56.344	0.275	0.269
-585.879	66.762	-0.302	-0.310
-584.865	344.936	0.241	-0.478
-583.850	800.000	-0.088	-0.321
-582.836	60.296	0.217	-0.217
-581.821	-200.000	-0.267	0.000
-580.806	177.328	0.062	0.091
-579.792	-59.187	0.086	0.037
-578.777	77.734	-0.235	-0.252
-577.763	-34.725	-0.097	0.054
-576.748	103.304	-0.291	0.344
-575.733	-49.222	-0.143	0.069
-574.719	-33.081	-0.047	0.026
-573.704	-123.961	-0.231	0.037
-572.690	-179.685	0.200	0.004
-571.675	-111.963	-0.439	0.089
-570.661	515.047	0.042	-0.098
-569.646	187.868	0.175	-0.264
-568.631	346.003	-0.059	0.118
-567.617	-53.933	-0.099	-0.045
-566.602	-200.000	-0.002	-0.279
-565.588	-200.000	0.100	0.639
-564.573	18.610	-0.316	0.255
-563.558	800.000	0.093	-0.270
-562.544	-200.000	-0.001	0.080
-561.529	-200.000	0.013	0.337
-560.515	-136.393	-0.145	0.017
-559.500	144.148	0.260	-0.350
-558.485	800.000	0.104	-0.346
-557.471	-200.000	0.064	0.381
-556.456	-75.667	-0.210	0.075
-555.442	-29.337	0.090	-0.052
-554.427	-44.233	-0.514	-0.260
-553.412	-48.289	0.255	-0.124
-552.398	-200.000	-0.029	-0.277
-551.383	156.659	0.159	0.221
-550.369	-30.047	0.262	0.150
-549.354	46.473	-0.206	-0.192
-548.339	-46.083	-0.043	0.021
-547.325	800.000	-0.039	-0.133
-546.310	-45.147	0.296	-0.149
-545.296	223.478	0.058	-0.095
-544.281	54.205	-0.236	0.229
-543.266	-105.214	0.254	-0.058
-542.252	273.530	0.085	0.151
-541.237	-29.372	-0.126	0.073
-540.223	188.833	-0.127	0.192
-539.208	-99.795	-0.174	-0.044
-538.193	-14.355	-0.400	-0.260
-537.179	-120.385	-0.135	-0.023
-536.164	-160.283	0.246	-0.013
-535.150	26.416	-0.050	-0.043
-534.135	800.000	-0.013	0.045
-533.121	56.940	-0.233	0.228
-532.106	295.180	0.128	-0.236
-531.091	-40.850	-0.287	-0.150
-530.077	481.767	0.101	0.230
-529.062	-168.680	-0.283	-0.011
-528.048	376.388	0.051	0.106
-527.033	206.915	0.162	-0.255
-526.018	49.290	0.322	0.305
-525.004	800.000	0.099	0.279
-523.989	-144.960	-0.180	0.017
-522.975	712.359	0.171	-0.456
-521.960	20.563	0.172	0.140
-520.945	-54.884	-0.180	0.082
-519.931	-12.024	-0.297	-0.196
-518.916	-200.000	-0.006	0.454
-517.902	490.975	0.069	0.159
-516.887	-200.000	0.007	-0.062
-515.872	-67.766	-0.331	-0.131
-514.858	770.817	-0.054	-0.149
-513.843	-98.608	0.210	-0.054
-512.829	-200.000	-0.018	-0.125
-511.814	663.091	-0.047	-0.121
-510.799	640.863	0.024	-0.062
-509.785	-200.000	0.048	0.227
-508.770	-200.000	0.002	0.069
-507.756	-200.000	-0.017	0.169
-506.741	-29.884	0.060	-0.035
-505.726	-113.395	-0.179	0.035
-504.712	-164.695	-0.317	0.014
-503.697	-200.000	-0.025	-0.188
-502.683	-200.000	-0.233	-0.000
-501.668	-200.000	0.029	-0.165
-500.653	-140.512	0.354	-0.037
-499.639	-200.000	-0.039	0.385
-498.624	533.769	0.079	0.189
-497.610	198.964	0.068	0.105
-496.595	54.382	-0.056	-0.054
-495.581	252.564	0.065	-0.111
-494.566	-200.000	0.026	-0.282
-493.551	-26.515	-0.119	-0.070
-492.537	-24.929	0.101	-0.061
-491.522	-63.958	0.414	-0.170
-490.508	-25.438	-0.184	-0.110
-489.493	122.944	-0.147	0.185
-488.478	800.000	-0.092	0.335
-487.464	133.236	-0.066	0.085
-486.449	391.366	0.100	0.209
-485.435	182.303	0.199	0.295
-484.420	-110.317	0.239	-0.050
-483.405	-137.981	0.208	0.023
-482.391	-200.000	-0.031	0.557
-481.376	-44.758	-0.117	-0.059
-480.362	-200.000	0.055	-0.266
-479.347	592.106	0.039	0.096
-478.332	-164.039	0.238	-0.011
-477.318	-200.000	0.003	-0.050
-476.303	362.023	-0.069	-0.140
-475.289	304.870	-0.074	0.138
-474.274	249.700	0.089	-0.151
-473.259	-67.787	-0.370	0.145
-472.245	-150.138	0.135	0.011
-471.230	-200.000	0.007	-0.141
-470.216	183.208	-0.282	-0.419
-469.201	-200.000	-0.022	0.098
-468.186	-121.613	-0.242	0.040
-467.172	800.000	0.053	0.157
-466.157	-78.020	0.183	0.063
-465.143	-200.000	0.002	0.174
-464.128	-200.000	-0.024	-0.214
-463.113	443.007	-0.142	-0.312
-462.099	179.241	0.066	0.097
-461.084	-84.308	0.226	-0.072
-460.070	-200.000	-0.001	0.126
-459.055	222.938	-0.054	-0.087
-458.040	-174.915	-0.157	-0.004
-457.026	-21.460	0.237	0.145
-456.011	-162.720	0.049	0.002
-454.997	279.975	-0.081	-0.146
-453.982	403.281	-0.226	0.478
-452.968	2.777	0.051	-0.037
-451.953	388.082	-0.087	-0.181
-450.938	43.327	0.139	-0.128
-449.924	253.300	-0.120	-0.205
-448.909	27.308	-0.197	0.166
-447.895	417.614	0.108	0.231
-446.880	-97.606	-0.096	0.025
-445.865	-154.324	0.190	-0.013
-444.851	97.272	-0.073	-0.084
-443.836	-128.936	0.139	0.020
-442.822	62.761	-0.082	-0.082
-441.807	-61.998	-0.072	-0.030
-440.792	-200.000	0.010	-0.131
-439.778	-74.827	-0.152	0.055
-438.763	800.000	0.009	-0.032
-437.749	-87.567	0.217	0.066
-436.734	-200.000	-0.046	0.268
-435.719	54.960	0.072	-0.069
-434.705	800.000	0.070	-0.303
-433.690	-200.000	0.030	0.261
-432.676	800.000	-0.044	0.138
-431.661	-200.000	-0.001	0.158
-430.646	161.558	-0.119	0.168
-429.632	-101.145	0.229	0.056
-428.617	-0.836	0.101	-0.072
-427.603	-117.023	0.177	-0.032
-426.588	378.724	0.136	-0.279
-425.573	-72.951	0.166	-0.061
-424.559	-78.292	-0.316	-0.109
-423.544	8.477	0.067	0.050
-422.530	704.484	0.076	0.202
-421.515	-123.847	-0.481	-0.076
-420.500	800.000	-0.027	-0.082
-419.486	-200.000	0.013	-0.083
-418.471	-200.000	0.018	-0.174
-417.457	-63.331	-0.168	-0.069
-416.442	-200.000	0.023	0.211
-415.428	20.912	-0.268	0.218
-414.413	-57.504	-0.077	0.034
-413.398	41.740	0.163	-0.148
-412.384	-44.037	-0.245	-0.124
-411.369	-54.154	0.089	0.041
-410.355	-92.427	-0.390	-0.110
-409.340	-200.000	-0.413	0.002
-408.325	-108.370	-0.555	-0.120
-407.311	-111.147	0.118	-0.024
-406.296	800.000	-0.039	-0.164
-405.282	-99.386	-0.279	0.071
-404.267	-134.108	-0.282	-0.035
-403.252	-22.273	0.062	-0.038
-402.238	-200.000	-0.026	-0.118
-401.223	800.000	0.061	-0.171
-400.209	694.070	-0.106	0.279
-399.194	23.108	0.075	-0.062
-398.179	42.599	-0.080	-0.073
-397.165	158.554	-0.115	0.160
-396.150	324.639	0.248	-0.476
-395.136	-79.184	0.299	-0.102
-394.121	118.278	0.182	-0.225
-393.106	-20.346	-0.193	0.119
-392.092	124.109	0.094	0.118
-391.077	-29.919	0.250	0.142
-390.063	-142.332	-0.104	-0.010
-389.048	-165.335	0.016	-0.001
-388.033	-56.167	0.193	0.086
-387.019	7.068	0.325	-0.243
-386.004	-97.832	0.125	0.032
-384.990	-200.000	-0.051	-0.295
-383.975	165.775	-0.094	-0.134
-382.960	-200.000	-0.084	-0.633
-381.946	101.373	-0.079	-0.093
-380.931	428.684	-0.056	0.122
-379.917	243.882	0.051	0.085
-378.902	-135.476	0.252	-0.030
-377.888	-200.000	0.017	0.206
-376.873	735.651	0.046	-0.123
-375.858	-25.522	-0.216	0.128
-374.844	4.840	0.253	-0.187
-373.829	-115.844	-0.396	0.074
-372.815	-76.428	0.484	-0.171
-371.800	-3.707	-0.196	-0.136
-370.785	800.000	0.092	-0.390
-369.771	346.889	-0.201	-0.396
-368.756	23.754	0.168	-0.139
-367.742	-93.026	-0.077	0.021
-366.727	132.172	-0.095	0.123
-365.712	-200.000	0.015	-0.181
-364.698	-31.332	-0.269	-0.151
-363.683	286.294	0.063	-0.113
-362.669	383.705	-0.077	0.158
-361.654	2.195	-0.086	-0.062
-360.639	-119.116	0.203	0.036
-359.625	69.647	0.154	0.159
-358.610	-94.388	-0.225	-0.061
-357.596	194.391	0.185	0.281
-356.581	-64.129	-0.062	-0.025
-355.566	57.831	-0.054	-0.053
-354.552	52.001	-0.115	0.109
-353.537	48.444	0.048	0.045
-352.523	-39.584	0.086	0.045
-351.508	87.138	0.110	-0.121
-350.493	633.387	-0.071	0.179
-349.479	-115.906	0.050	0.009
-348.464	800.000	-0.048	0.182
-347.450	276.501	0.121	0.216
-346.435	137.935	0.115	-0.150
-345.420	800.000	0.098	-0.317
-344.406	93.549	-0.175	-0.198
-343.391	199.712	0.100	-0.154
-342.377	-14.179	0.296	0.191
-341.362	800.000	0.081	-0.233
-340.348	-82.193	-0.314	0.102
-339.333	-34.881	0.235	0.128
-338.318	-200.000	0.008	-0.075
-337.304	149.555	-0.061	-0.082
-336.289	-43.432	-0.145	-0.073
-335.275	127.694	-0.158	-0.201
-334.260	800.000	0.150	-0.460
-333.245	464.854	0.208	0.466
-332.231	-200.000	-0.062	0.296
-331.216	118.365	0.315	0.388
-330.202	76.640	0.077	-0.081
-329.187	17.738	-0.053	-0.042
-328.172	-18.188	-0.149	0.093
-327.158	42.513	-0.135	-0.123
-326.143	-64.781	-0.093	0.038
-325.129	-200.000	0.032	-0.343
-324.114	800.000	-0.063	-0.249
-323.099	-40.398	-0.076	-0.039
-322.085	316.751	0.048	0.090
-321.070	-82.229	-0.154	0.050
-320.056	-200.000	-0.018	-0.276
-319.041	78.997	0.232	-0.248
-318.026	-200.000	0.056	0.286
-317.012	61.355	0.119	0.118
-315.997	46.691	-0.252	-0.234
-314.983	-200.000	0.044	0.253
-313.968	95.250	0.140	0.159
-312.953	-200.000	-0.013	-0.074
-311.939	-25.802	-0.156	-0.092
-310.924	-154.100	0.292	-0.020
-309.910	178.608	0.066	-0.096
-308.895	800.000	0.064	0.276
-307.880	640.549	0.112	-0.285
-306.866	-200.000	0.037	0.233
-305.851	-102.824	0.186	-0.044
-304.837	-64.630	0.093	-0.038
-303.822	-200.000	-0.028	0.429
-302.807	84.270	-0.169	-0.184
-301.793	61.703	0.011	0.011
-300.778	-200.000	-0.020	-0.226
-299.764	-106.383	-0.272	0.061
-298.749	-24.532	-0.342	-0.204
-297.735	139.491	-0.139	0.182
-296.720	-53.687	0.184	0.084
-295.705	571.258	-0.078	-0.191
-294.691	-117.595	0.144	-0.026
-293.676	532.527	-0.108	0.256
-292.662	76.216	-0.113	0.120
-291.647	-200.000	-0.048	0.250
-290.632	-200.000	-0.031	0.205
-289.618	120.800	-0.161	-0.200
-288.603	158.947	-0.167	-0.231
-287.589	-50.514	-0.112	0.053
-286.574	-95.682	-0.182	0.049
-285.559	52.711	0.152	0.145
-284.545	21.881	-0.210	-0.171
-283.530	800.000	0.076	0.258
-282.516	-109.974	-0.188	0.039
-281.501	-163.497	-0.162	-0.008
-280.486	433.504	0.111	0.241
-279.472	-200.000	-0.029	-0.294
-278.457	-71.901	0.341	-0.127
-277.443	18.263	0.176	0.141
-276.428	-95.556	0.114	-0.031
-275.413	-170.914	-0.083	0.003
-274.399	37.816	0.175	0.155
-273.384	94.482	-0.137	-0.155
-272.370	351.230	-0.113	-0.223
-271.355	160.755	-0.180	0.250
-270.340	-40.270	0.083	0.043
-269.326	-149.503	0.241	0.019
-268.311	11.073	-0.144	-0.110
-267.297	-40.896	0.166	0.086
-266.282	104.924	-0.080	0.094
-265.267	-134.944	0.325	0.039
-264.253	-200.000	0.006	0.360
-263.238	800.000	-0.091	0.287
-262.224	86.176	-0.057	0.062
-261.209	302.091	-0.041	0.076
-260.195	341.909	-0.069	0.135
-259.180	603.822	0.037	0.093
-258.165	-59.007	-0.122	-0.052
-257.151	-62.566	0.253	-0.105
-256.136	800.000	0.076	0.251
-255.122	30.693	-0.218	-0.186
-254.107	-180.948	0.180	-0.004
-253.092	-200.000	0.027	0.207
-252.078	-200.000	-0.016	0.262
-251.063	452.092	-0.118	0.259
-250.049	800.000	0.105	-0.291
-249.034	53.663	-0.074	-0.071
-248.019	-1.529	0.111	0.078
-247.005	-200.000	0.058	-0.311
-245.990	111.868	-0.046	-0.055
-244.976	121.173	-0.130	-0.162
-243.961	100.400	0.074	0.086
-242.946	-137.855	-0.179	-0.020
-241.932	-200.000	-0.004	0.401
-240.917	800.000	-0.009	-0.029
-239.903	95.578	-0.103	-0.117
-238.888	-200.000	-0.023	-0.150
-237.873	-200.000	0.064	0.309
-236.859	-145.840	0.226	-0.020
-235.844	4.617	0.258	-0.189
-234.830	15.862	-0.034	0.027
-233.815	800.000	-0.039	-0.170
-232.800	-13.202	-0.146	-0.094
-231.786	-200.000	0.112	0.561
-230.771	-81.323	0.251	0.083
-229.757	47.252	0.250	0.231
-228.742	-101.723	0.116	0.028
-227.727	22.482	0.222	0.181
-226.713	-27.558	-0.145	-0.084
-225.698	800.000	-0.033	0.096
-224.684	-144.580	0.161	-0.015
-223.669	527.231	0.139	0.326
-222.655	106.649	-0.192	-0.227
-221.640	12.808	-0.228	0.175
-220.625	-113.961	0.037	-0.007
-219.611	800.000	-0.071	0.270
-218.596	-200.000	-0.078	0.362
-217.582	800.000	-0.060	-0.183
-216.567	-17.937	-0.423	0.264
-215.552	-60.411	0.389	0.165
-214.538	-200.000	-0.038	-0.282
-213.523	315.667	0.044	0.083
-212.509	-131.411	-0.051	0.007
-211.494	-200.000	-0.007	-0.042
-210.479	-200.000	0.016	0.114
-209.465	-200.000	0.012	-0.296
-208.450	-89.652	0.241	0.070
-207.436	800.000	-0.022	-0.075
-206.421	-200.000	-0.012	0.077
-205.406	213.355	-0.184	-0.289
-204.392	-200.000	-0.003	0.257
-203.377	311.426	0.145	0.270
-202.363	-83.127	0.127	-0.041
-201.348	145.273	0.145	-0.193
-200.333	604.510	0.054	-0.134
-199.319	800.000	0.056	0.165
-198.304	-200.000	-0.026	0.217
-197.290	44.685	-0.216	-0.198
-196.275	-120.746	0.348	-0.059
-195.260	800.000	0.047	0.196
-194.246	-25.078	-0.276	0.162
-193.231	189.980	-0.223	0.333
-192.217	-200.000	0.005	0.049
-191.202	-88.005	0.237	0.071
-190.187	-200.000	-0.086	-0.380
-189.173	319.989	0.115	-0.217
-188.158	143.934	-0.303	-0.402
-187.144	325.653	0.033	-0.062
-186.129	-200.000	0.002	0.227
-185.114	-130.039	0.322	0.044
-184.100	7.875	0.320	-0.238
-183.085	-35.391	0.326	0.176
-182.071	-74.730	-0.083	0.030
-181.056	800.000	0.053	-0.196
-180.042	-200.000	0.006	-0.110
-179.027	-53.000	-0.236	-0.108
-178.012	-200.000	0.040	0.353
-176.998	190.710	-0.211	-0.315
-175.983	-200.000	0.076	-0.343
-174.969	132.957	-0.222	-0.285
-173.954	96.970	0.165	-0.188
-172.939	40.729	-0.297	0.266
-171.925	-200.000	0.020	-0.228
-170.910	-200.000	-0.048	0.278
-169.896	279.402	0.112	0.198
-168.881	204.346	0.097	0.150
-167.866	-43.139	0.135	-0.068
-166.852	-114.873	-0.128	0.024
-165.837	-38.062	0.247	-0.130
-164.823	-200.000	0.043	-0.191
-163.808	-129.780	0.274	0.037
-162.793	132.469	0.139	0.178
-161.779	800.000	-0.060	0.199
-160.764	738.370	-0.074	0.198
-159.750	-82.496	0.086	0.028
-158.735	17.541	0.312	0.246
-157.720	119.776	-0.320	-0.393
-156.706	165.703	0.120	-0.168
-155.691	248.171	-0.106	0.178
-154.677	21.144	0.085	0.069
-153.662	-200.000	0.010	-0.043
-152.647	-93.190	0.140	-0.039
-151.633	29.597	0.085	0.072
-150.618	-87.939	0.471	0.141
-149.604	-200.000	-0.001	-0.010
-148.589	-200.000	-0.029	-0.202
-147.574	-156.308	0.395	-0.025
-146.560	36.846	0.131	-0.115
-145.545	549.044	-0.043	-0.103
-144.531	-67.841	0.085	-0.033
-143.516	-85.831	0.263	-0.081
-142.502	-53.024	0.134	0.061
-141.487	-200.000	-0.018	0.208
-140.472	71.218	-0.043	0.045
-139.458	316.322	-0.110	0.206
-138.443	-11.164	-0.100	0.065
-137.429	-200.000	0.003	0.075
-136.414	226.780	0.073	0.118
-135.399	-200.000	0.054	0.256
-134.385	-200.000	0.011	-0.282
-133.370	-200.000	-0.036	-0.183
-132.356	23.334	0.258	0.210
-131.341	800.000	0.025	0.099
-130.326	-200.000	0.064	0.348
-129.312	9.711	-0.081	0.061
-128.297	-55.816	0.287	-0.127
-127.283	23.788	-0.078	0.064
-126.268	15.976	0.220	0.172
-125.253	-150.671	-0.208	0.016
-124.239	-139.460	-0.094	-0.010
-123.224	-200.000	-0.035	-0.229
-122.210	-200.000	0.018	0.083
-121.195	-200.000	-0.033	0.223
-120.180	101.644	0.326	-0.377
-119.166	135.874	0.131	-0.169
-118.151	-200.000	-0.031	-0.294
-117.137	219.448	0.090	0.142
-116.122	800.000	0.095	0.263
-115.107	-67.843	0.184	-0.071
-114.093	681.966	0.056	-0.144
-113.078	-43.837	-0.074	0.037
-112.064	38.152	-0.197	-0.174
-111.049	-174.494	0.171	-0.005
-110.034	-200.000	-0.038	0.230
-109.020	510.486	0.115	0.265
-108.005	39.717	-0.060	-0.053
-106.991	95.972	0.302	0.342
-105.976	-68.152	-0.414	-0.160
-104.962	58.267	0.150	-0.146
-103.947	-114.730	-0.117	-0.022
-102.932	1.541	-0.084	0.060
-101.918	-45.525	-0.063	0.031
-100.903	310.329	0.212	0.394
-99.889	122.549	0.082	0.101
-98.874	-109.883	0.154	-0.032
-97.859	-10.182	-0.241	0.158
-96.845	-200.000	-0.048	0.231
-95.830	579.751	0.160	0.388
-94.816	800.000	-0.093	-0.297
-93.801	147.550	-0.083	0.111
-92.786	800.000	0.070	-0.207
-91.772	-123.071	-0.242	0.038
-90.757	-181.455	-0.193	0.004
-89.743	553.132	0.030	-0.071
-88.728	-200.000	-0.053	0.446
-87.713	-135.078	-0.264	0.032
-86.699	-79.798	0.154	-0.051
-85.684	-200.000	-0.024	-0.162
-84.670	90.385	0.213	-0.236
-83.655	-200.000	-0.029	-0.141
-82.640	-133.563	0.153	0.019
-81.626	-44.782	0.390	-0.193
-80.611	800.000	-0.118	-0.452
-79.597	295.159	-0.022	0.041
-78.582	219.665	-0.097	-0.154
-77.567	-9.548	0.205	-0.136
-76.553	800.000	0.068	-0.267
-75.538	-159.949	-0.187	-0.010
-74.524	188.900	0.175	-0.260
-73.509	-200.000	0.004	-0.326
-72.494	-99.332	0.448	-0.112
-71.480	-63.292	0.165	-0.067
-70.465	-101.162	0.162	-0.039
-69.451	-141.939	-0.167	-0.017
-68.436	630.116	-0.106	-0.266
-67.422	-23.171	-0.178	0.106
-66.407	-36.176	-0.191	0.102
-65.392	-96.396	0.048	0.013
-64.378	-18.653	-0.201	0.124
-63.363	4.024	0.341	-0.247
-62.349	17.989	-0.063	-0.049
-61.334	11.685	-0.967	-0.734
-60.319	73.641	0.332	0.344
-59.305	-200.000	-0.170	-1.196
-58.290	35.302	0.736	0.639
-57.276	800.000	0.471	1.476
-56.261	-200.000	96.521	581.344
-55.246	539.341	1387.171	3264.025
-54.232	153.152	2585.960	3499.012
-53.217	102.527	2309.231	2670.867
-52.203	40.215	2060.720	1832.815
-51.188	35.641	1975.053	1715.831
-50.173	34.043	1957.321	1686.197
-49.159	49.022	2007.540	1864.276
-48.144	50.762	2026.060	1897.030
-47.130	36.256	1985.830	1730.431
-46.115	33.809	1975.293	1699.321
-45.100	33.703	1972.540	1695.938
-44.086	33.737	1969.889	1693.892
-43.071	33.711	1967.689	1691.705
-42.057	33.651	1965.359	1689.094
-41.042	33.706	1963.551	1687.970
-40.027	33.749	1962.013	1686.957
-39.013	33.758	1959.502	1684.814
-37.998	33.779	1957.584	1683.280
-36.984	33.789	1955.643	1681.632
-35.969	33.782	1954.238	1680.298
-34.954	33.850	1952.593	1679.421
-33.940	33.761	1951.032	1677.219
-32.925	33.842	1948.982	1676.110
-31.911	33.898	1947.604	1675.347
-30.896	33.887	1945.736	1673.585
-29.881	33.920	1944.580	1672.811
-28.867	33.930	1943.282	1671.715
-27.852	33.917	1940.818	1669.418
-26.838	33.886	1938.989	1667.505
-25.823	33.953	1937.005	1666.315
-24.809	33.916	1935.476	1664.617
-23.794	33.916	1933.883	1663.180
-22.779	33.869	1932.265	1661.312
-21.765	33.828	1931.272	1660.035
-20.750	33.848	1928.945	1658.142
-19.736	33.888	1927.859	1657.493
-18.721	33.958	1925.843	1656.298
-17.706	33.873	1924.820	1654.617
-16.692	33.946	1922.087	1652.830
-15.677	33.898	1921.040	1651.449
-14.663	33.984	1918.997	1650.375
-13.648	33.957	1918.656	1649.781
-12.633	33.956	1917.346	1648.587
-11.619	33.854	1916.170	1646.626
-10.604	33.892	1915.085	1645.956
-9.590	33.905	1913.720	1644.826
-8.575	33.886	1911.983	1643.103
-7.560	33.933	1910.637	1642.285
-6.546	33.928	1909.509	1641.212
-5.531	33.818	1908.756	1639.549
-4.517	33.899	1907.238	1638.881
-3.502	33.887	1905.474	1637.195
-2.487	33.941	1904.361	1636.641
-1.473	33.820	1904.037	1635.253
-0.458	33.876	1899.028	1631.369
0.556	33.996	1879.275	1603.828
1.571	29.780	1860.382	1552.268
2.586	26.104	1883.029	1539.726
3.600	25.213	1919.414	1561.590
4.615	24.768	1915.988	1554.798
5.629	19.233	1814.121	1426.310
6.644	8.386	1691.043	1245.280
7.659	2.538	1651.599	1171.492
8.673	2.099	1647.547	1165.167
9.688	2.056	1645.902	1163.573
10.702	1.960	1644.703	1161.890
11.717	1.816	1641.611	1158.509
12.731	2.202	1640.947	1160.873
13.746	9.185	1657.649	1226.034
14.761	19.938	1682.056	1326.831
15.775	25.326	1691.709	1375.736
16.790	26.304	1692.245	1383.539
17.804	26.448	1691.876	1384.217
18.819	26.503	1690.757	1383.602
19.834	26.550	1690.826	1383.898
20.848	26.733	1690.332	1384.768
21.863	26.927	1688.913	1384.965
22.877	26.850	1688.346	1383.788
23.892	26.875	1687.139	1382.869
24.907	26.865	1686.482	1382.130
25.921	26.829	1685.264	1380.737
26.936	26.807	1684.564	1379.870
27.950	26.916	1683.136	1379.409
28.965	26.888	1682.850	1378.841
29.980	26.862	1681.705	1377.578
30.994	26.868	1680.648	1376.642
32.009	26.953	1679.074	1375.871
33.023	26.879	1678.371	1374.614
34.038	26.905	1677.302	1373.812
35.053	26.886	1675.993	1372.480
36.067	26.802	1675.302	1371.152
37.082	26.875	1674.179	1370.663
38.096	26.943	1673.446	1370.456
39.111	26.939	1672.479	1369.512
40.126	26.893	1671.838	1368.524
41.140	26.859	1671.499	1367.864
42.155	26.931	1670.038	1367.095
43.169	26.888	1668.873	1365.691
44.184	26.810	1668.523	1364.702
45.199	26.794	1667.248	1363.415
46.213	26.915	1665.457	1362.736
47.228	26.902	1664.901	1362.064
48.242	26.843	1663.797	1360.598
49.257	26.898	1662.575	1359.895
50.271	26.871	1661.275	1358.507
51.286	26.880	1660.025	1357.435
52.301	26.822	1658.533	1355.661
53.315	26.868	1657.005	1354.631
54.330	26.911	1655.505	1353.610
55.344	26.881	1654.419	1352.376
56.359	26.844	1653.463	1351.198
57.374	26.847	1652.527	1350.339
58.388	26.845	1651.408	1349.289
59.403	26.911	1650.433	1348.860
60.417	26.937	1648.591	1347.429
61.432	26.876	1647.978	1346.357
62.447	26.900	1646.909	1345.544
63.461	26.885	1646.312	1344.828
64.476	26.843	1645.260	1343.536
65.490	26.911	1643.708	1342.657
66.505	26.871	1642.954	1341.619
67.520	26.837	1642.064	1340.527
68.534	26.917	1641.036	1340.156
69.549	26.978	1639.570	1339.295
70.563	26.926	1638.818	1338.175
71.578	26.904	1638.131	1337.337
72.593	26.863	1637.261	1336.204
73.607	26.908	1635.688	1335.132
74.622	26.986	1634.814	1334.873
75.636	26.936	1633.659	1333.448
76.651	26.847	1633.414	1332.473
77.666	26.874	1632.339	1331.676
78.680	26.969	1631.237	1331.356
79.695	26.904	1630.540	1330.199
80.709	26.965	1629.452	1329.637
81.724	26.907	1628.941	1328.675
82.739	26.886	1628.100	1327.717
83.753	26.969	1626.589	1326.977
84.768	26.990	1625.867	1326.425
85.782	26.940	1625.029	1325.260
86.797	26.859	1624.251	1323.918
87.812	26.916	1623.360	1323.490
88.826	26.979	1621.717	1322.493
89.841	26.841	1621.582	1321.257
90.855	26.969	1620.342	1321.063
91.870	26.882	1618.954	1319.179
92.884	26.891	1618.643	1318.876
93.899	26.938	1617.584	1318.236
94.914	27.067	1615.700	1317.523
95.928	27.008	1615.108	1316.491
96.943	26.888	1613.958	1314.569
97.957	26.921	1612.528	1313.529
98.972	27.047	1610.928	1313.020
99.987	26.953	1610.187	1311.624
101.001	26.908	1608.614	1309.900
102.016	26.908	1607.143	1308.588
103.030	26.845	1605.755	1306.885
104.045	26.901	1604.771	1306.372
105.060	26.925	1603.516	1305.405
106.074	26.926	1602.143	1304.183
107.089	26.927	1600.776	1302.957
108.103	26.964	1599.776	1302.298
109.118	27.008	1599.200	1302.030
110.133	26.875	1598.245	1300.181
111.147	26.968	1596.355	1299.198
112.162	27.033	1595.446	1298.809
113.176	27.100	1593.976	1297.975
114.191	27.106	1592.834	1296.974
115.206	27.010	1591.664	1295.217
116.220	27.073	1590.423	1294.544
117.235	27.016	1589.802	1293.514
118.249	26.902	1589.124	1292.041
119.264	26.906	1587.793	1290.874
120.279	26.999	1586.630	1290.474
121.293	26.958	1585.883	1289.461
122.308	27.102	1584.411	1289.168
123.322	27.076	1582.807	1287.567
124.337	27.066	1581.282	1286.142
125.352	27.084	1580.495	1285.515
126.366	27.044	1580.038	1284.749
127.381	27.060	1578.677	1283.640
128.395	26.981	1578.090	1282.489
129.410	27.202	1576.692	1282.798
130.424	27.019	1575.760	1280.638
131.439	27.130	1574.271	1280.097
132.454	27.050	1573.282	1278.615
133.468	27.055	1572.133	1277.607
134.483	27.119	1570.927	1276.960
135.497	27.142	1569.711	1276.021
136.512	27.109	1568.432	1274.634
137.527	27.061	1567.553	1273.472
138.541	27.133	1566.635	1273.118
139.556	27.105	1565.344	1271.761
140.570	27.173	1563.954	1270.992
141.585	27.130	1562.999	1269.810
142.600	27.108	1561.708	1268.491
143.614	27.081	1560.788	1267.448
144.629	27.026	1559.997	1266.303
145.643	27.080	1558.320	1265.211
146.658	27.045	1557.336	1264.053
147.673	27.008	1555.852	1262.483
148.687	27.052	1554.741	1261.776
149.702	27.137	1553.541	1261.276
150.716	27.016	1552.212	1259.245
151.731	26.963	1551.547	1258.227
152.746	27.086	1550.600	1258.205
153.760	27.034	1549.263	1256.647
154.775	27.071	1548.250	1255.972
155.789	27.131	1546.755	1255.059
156.804	27.023	1546.252	1253.798
157.819	27.138	1545.227	1253.644
158.833	27.066	1543.956	1252.009
159.848	27.157	1542.638	1251.452
160.862	27.218	1542.238	1251.441
161.877	27.112	1541.189	1249.747
162.892	27.205	1540.284	1249.541
163.906	27.166	1538.975	1248.106
164.921	27.151	1538.684	1247.656
165.935	27.271	1537.285	1247.229
166.950	27.120	1536.905	1245.776
167.964	27.186	1535.677	1245.122
168.979	27.181	1534.464	1243.995
169.994	27.272	1533.829	1243.996
171.008	27.195	1533.107	1242.774
172.023	27.272	1532.090	1242.363
173.037	27.244	1531.090	1241.255
174.052	27.278	1529.486	1240.077
175.067	27.217	1529.068	1239.212
176.081	27.272	1528.208	1238.777
177.096	27.205	1526.504	1236.829
178.110	27.217	1526.194	1236.554
179.125	27.256	1524.686	1235.487
180.140	27.252	1524.231	1234.981
181.154	27.271	1523.709	1234.574
182.169	27.221	1522.710	1233.317
183.183	27.161	1521.832	1232.095
184.198	27.326	1520.932	1232.371
185.213	27.251	1519.690	1230.747
186.227	27.246	1518.987	1230.039
187.242	27.327	1517.948	1229.634
188.256	27.288	1517.264	1228.705
189.271	27.230	1516.821	1227.846
190.286	27.399	1515.137	1227.520
191.300	27.318	1514.780	1226.572
192.315	27.343	1513.369	1225.490
193.329	27.359	1512.737	1224.977
194.344	27.339	1512.363	1224.431
195.359	27.359	1511.169	1223.490
196.373	27.361	1510.753	1223.063
197.388	27.283	1509.558	1221.458
198.402	27.328	1508.239	1220.584
199.417	27.305	1507.421	1219.665
200.432	27.307	1506.933	1219.176
201.446	27.286	1506.074	1218.230
202.461	27.278	1505.473	1217.583
203.475	27.269	1504.514	1216.638
204.490	27.234	1503.926	1215.823
205.504	27.307	1502.591	1215.123
206.519	27.321	1501.626	1214.329
207.534	27.301	1500.926	1213.519
208.548	27.329	1500.173	1212.988
209.563	27.412	1498.843	1212.364
210.577	27.333	1498.291	1211.283
211.592	27.369	1497.818	1211.034
212.607	27.465	1497.264	1211.116
213.621	27.393	1496.373	1209.812
214.636	27.496	1495.578	1209.742
215.650	27.412	1494.773	1208.425
216.665	27.486	1493.580	1207.843
217.680	27.443	1493.144	1207.103
218.694	27.576	1491.790	1206.781
219.709	27.477	1491.116	1205.473
220.723	27.490	1490.549	1204.993
221.738	27.510	1489.718	1204.352
222.753	27.469	1488.718	1203.165
223.767	27.320	1487.800	1201.333
224.782	27.320	1487.376	1200.882
225.796	27.503	1485.962	1200.840
226.811	27.542	1485.390	1200.529
227.826	27.535	1485.284	1200.291
228.840	27.530	1483.850	1198.993
229.855	27.563	1483.439	1198.775
230.869	27.509	1482.366	1197.447
231.884	27.506	1481.624	1196.719
232.899	27.542	1480.289	1195.773
233.913	27.519	1479.291	1194.706
234.928	27.476	1478.639	1193.792
235.942	27.518	1477.832	1193.310
236.957	27.647	1476.172	1192.709
237.972	27.521	1475.514	1191.249
238.986	27.623	1474.479	1190.977
240.001	27.634	1473.489	1190.144
241.015	27.618	1472.802	1189.376
242.030	27.647	1471.852	1188.694
243.045	27.680	1471.026	1188.138
244.059	27.677	1470.107	1187.272
245.074	27.708	1469.221	1186.649
246.088	27.766	1468.500	1186.342
247.103	27.677	1467.791	1185.086
248.117	27.719	1467.266	1184.830
249.132	27.714	1466.201	1183.832
250.147	27.738	1465.406	1183.238
251.161	27.656	1464.811	1182.120
252.176	27.722	1464.470	1182.168
253.190	27.781	1463.193	1181.414
254.205	27.863	1462.208	1181.048
255.220	27.885	1461.406	1180.440
256.234	27.777	1460.557	1178.948
257.249	27.786	1460.328	1178.721
258.263	27.796	1459.469	1177.983
259.278	27.888	1458.305	1177.535
260.293	27.844	1457.987	1176.889
261.307	27.950	1456.761	1176.480
262.322	27.966	1456.167	1175.999
263.336	27.914	1455.661	1175.150
264.351	27.914	1454.512	1174.120
265.366	27.889	1453.578	1173.102
266.380	27.869	1453.145	1172.517
267.395	27.939	1451.921	1171.877
268.409	27.829	1451.329	1170.589
269.424	27.850	1450.618	1170.050
270.439	27.857	1449.252	1168.886
271.453	27.915	1448.001	1168.146
272.468	27.898	1447.888	1167.839
273.482	27.817	1447.812	1167.157
274.497	27.825	1446.430	1165.996
275.512	27.888	1445.491	1165.533
276.526	27.895	1445.177	1165.226
277.541	27.951	1444.195	1164.689
278.555	27.939	1443.264	1163.757
279.570	27.997	1442.837	1163.679
280.585	27.966	1441.935	1162.651
281.599	27.965	1440.785	1161.613
282.614	28.015	1439.743	1160.986
283.628	27.990	1438.763	1159.936
284.643	27.925	1438.391	1159.124
285.657	27.984	1437.357	1158.561
286.672	28.008	1436.349	1157.799
287.687	27.999	1435.712	1157.123
288.701	27.984	1434.611	1156.038
289.716	28.043	1434.031	1155.842
290.730	28.048	1433.451	1155.304
291.745	28.110	1432.261	1154.636
292.760	28.138	1431.582	1154.162
293.774	28.058	1430.640	1152.794
294.789	28.120	1429.585	1152.234
295.803	28.149	1428.997	1151.840
296.818	28.008	1428.790	1150.683
297.833	28.106	1427.351	1150.041
298.847	28.131	1426.733	1149.599
299.862	28.109	1425.989	1148.756
300.876	28.121	1425.223	1148.115
301.891	28.213	1423.925	1147.543
302.906	28.149	1423.404	1146.623
303.920	28.272	1422.699	1146.724
304.935	28.274	1422.129	1146.177
305.949	28.226	1421.659	1145.392
306.964	28.236	1420.392	1144.338
307.979	28.238	1420.103	1144.013
308.993	28.319	1418.599	1143.204
310.008	28.238	1418.434	1142.466
311.022	28.222	1417.286	1141.339
312.037	28.259	1415.980	1140.420
313.052	28.237	1415.420	1139.729
314.066	28.318	1414.431	1139.336
315.081	28.291	1413.215	1138.090
316.095	28.327	1412.581	1137.703
317.110	28.326	1411.760	1136.931
318.125	28.240	1411.006	1135.690
319.139	28.331	1410.271	1135.564
320.154	28.337	1409.092	1134.552
321.168	28.379	1408.392	1134.144
322.183	28.398	1407.381	1133.346
323.197	28.310	1406.798	1132.234
324.212	28.323	1405.658	1131.298
325.227	28.357	1404.979	1130.862
326.241	28.315	1404.420	1130.051
327.256	28.401	1403.852	1130.027
328.270	28.472	1402.813	1129.526
329.285	28.379	1402.029	1128.226
330.300	28.404	1401.136	1127.558
331.314	28.421	1400.313	1126.902
332.329	28.463	1399.450	1126.361
333.343	28.413	1398.834	1125.460
334.358	28.514	1398.321	1125.571
335.373	28.580	1397.782	1125.439
336.387	28.614	1396.791	1124.752
337.402	28.536	1395.892	1123.449
338.416	28.574	1395.871	1123.569
339.431	28.644	1395.095	1123.270
340.446	28.599	1394.716	1122.589
341.460	28.628	1393.540	1121.722
342.475	28.687	1392.856	1121.434
343.489	28.589	1392.133	1120.156
344.504	28.672	1390.875	1119.549
345.519	28.638	1389.610	1118.225
346.533	28.692	1388.827	1117.824
347.548	28.609	1388.365	1116.851
348.562	28.613	1387.333	1115.943
349.577	28.677	1386.751	1115.768
350.592	28.737	1386.016	1115.438
351.606	28.646	1385.318	1114.227
352.621	28.655	1383.957	1113.089
353.635	28.631	1383.198	1112.236
354.650	28.714	1382.465	1112.052
355.665	28.702	1381.799	1111.343
356.679	28.737	1380.544	1110.448
357.694	28.697	1379.876	1109.568
358.708	28.748	1378.563	1108.723
359.723	28.842	1376.884	1107.840
360.738	28.779	1376.169	1106.788
361.752	28.821	1375.099	1106.081
362.767	28.729	1374.295	1104.786
363.781	28.750	1373.550	1104.212
364.796	28.886	1372.846	1104.366
365.810	28.930	1372.518	1104.268
366.825	28.964	1371.215	1103.327
367.840	28.910	1370.529	1102.357
368.854	28.991	1369.989	1102.311
369.869	28.949	1369.797	1101.806
370.883	28.965	1368.910	1101.089
371.898	28.937	1367.951	1100.053
372.913	28.943	1367.450	1099.586
373.927	28.927	1366.676	1098.775
374.942	28.931	1366.064	1098.210
375.956	29.115	1365.204	1098.517
376.971	29.057	1364.384	1097.413
377.986	29.016	1363.485	1096.348
379.000	28.921	1362.627	1094.998
380.015	28.992	1362.308	1095.067
381.029	29.064	1361.476	1094.731
382.044	29.095	1360.522	1094.049
383.059	29.015	1360.325	1093.322
384.073	29.105	1359.682	1093.240
385.088	29.076	1359.221	1092.602
386.102	29.089	1358.307	1091.848
387.117	29.044	1358.056	1091.279
388.132	29.160	1356.830	1090.889
389.146	29.020	1356.460	1089.665
390.161	29.116	1356.058	1089.810
391.175	29.089	1355.156	1088.833
392.190	29.203	1354.521	1088.899
393.205	29.168	1353.231	1087.559
394.219	29.279	1352.717	1087.701
395.234	29.093	1351.606	1085.616
396.248	29.218	1350.600	1085.449
397.263	29.261	1349.216	1084.494
398.278	29.275	1348.000	1083.502
399.292	29.303	1347.301	1083.008
400.307	29.388	1346.537	1082.797
401.321	29.271	1345.918	1081.521
402.336	29.289	1345.065	1080.842
403.350	29.178	1343.974	1079.224
404.365	29.283	1342.797	1078.793
405.380	29.336	1341.967	1078.342
406.394	29.433	1341.146	1078.153
407.409	29.359	1340.864	1077.401
408.423	29.393	1340.105	1076.896
409.438	29.504	1339.223	1076.737
410.453	29.437	1338.771	1075.888
411.467	29.437	1338.038	1075.204
412.482	29.389	1337.954	1074.763
413.496	29.372	1337.035	1073.831
414.511	29.388	1336.392	1073.313
415.526	29.456	1335.343	1072.768
416.540	29.528	1334.375	1072.311
417.555	29.437	1333.980	1071.373
418.569	29.456	1333.796	1071.240
419.584	29.437	1333.345	1070.671
420.599	29.414	1332.639	1069.877
421.613	94.789	1350.667	1451.064
422.628	94.309	1353.276	1451.178
