DTS Sentinel unit serial number:	SN413079Multiplexer serial number:	ORYXHardware model number:	OX4-SRSoftware version number:	ORYX F/W v4.00 Oryx Data Collector v3.7.2.0data status	okinstallation	princeton_trtdifferential loss correction	single-endedforward channel	channel 4reverse channel	N/Adate	2019/09/14time	19:09:35forward acquisition time	60.00reverse acquisition time	0.00gamma	496.2192k internal	0.2302k external	0.2302temperature offset calibration	1.0104default loss term (dB/km)	0.3790temperature slope calibration	1.0000multiplexer offset coefficient	1.0000multiplexer slope coefficient	1.0000fibre end	0.00T internal ref (°C)	35.36T ext. ref 1 (°C)	4.87T ext. ref 2 (°C)	29.27length (m)	temperature (°C)	Stokes	anti-Stokes-747.200	-106.975	-0.413	0.093
-746.185	-95.368	0.047	0.013
-745.171	39.168	0.102	0.093
-744.156	-74.359	-0.295	0.108
-743.142	-200.000	0.047	-0.238
-742.127	75.173	0.249	-0.267
-741.112	800.000	-0.052	0.161
-740.098	-200.000	-0.014	-0.251
-739.083	-12.581	0.137	-0.091
-738.069	261.214	-0.057	-0.101
-737.054	677.130	0.033	0.086
-736.039	382.612	0.079	-0.164
-735.025	-174.216	0.029	0.001
-734.010	-200.000	-0.006	-0.360
-732.996	800.000	-0.015	0.045
-731.981	588.942	-0.049	0.122
-730.966	800.000	-0.075	-0.242
-729.952	-200.000	-0.077	-0.383
-728.937	23.954	-0.332	-0.279
-727.923	-73.057	0.112	-0.042
-726.908	-105.447	-0.070	-0.016
-725.894	-200.000	-0.108	-0.563
-724.879	-79.717	0.047	-0.016
-723.864	-59.461	-0.359	-0.157
-722.850	-134.192	0.044	-0.006
-721.835	83.561	0.060	-0.067
-720.821	21.874	-0.166	0.138
-719.806	-200.000	-0.012	0.157
-718.791	-95.964	-0.294	0.080
-717.777	99.668	-0.216	-0.254
-716.762	-200.000	-0.002	0.100
-715.748	-11.779	-0.156	-0.104
-714.733	381.572	0.070	-0.146
-713.718	-200.000	-0.065	-0.304
-712.704	217.444	0.041	0.067
-711.689	419.252	-0.179	0.390
-710.675	212.291	-0.122	0.195
-709.660	167.040	0.006	-0.008
-708.645	800.000	0.057	0.182
-707.631	260.507	-0.040	-0.071
-706.616	800.000	-0.083	0.271
-705.602	212.625	0.076	-0.122
-704.587	-200.000	-0.035	0.264
-703.572	110.982	-0.139	0.170
-702.558	70.943	-0.224	-0.236
-701.543	295.532	0.064	-0.119
-700.529	-200.000	0.021	-0.234
-699.514	40.136	0.172	-0.158
-698.499	234.488	0.108	0.182
-697.485	-132.289	-0.190	0.025
-696.470	-200.000	0.008	-0.237
-695.456	-200.000	0.008	-0.666
-694.441	608.362	-0.126	-0.319
-693.426	-134.589	0.087	-0.011
-692.412	-20.452	-0.281	0.176
-691.397	-55.964	0.291	-0.132
-690.383	144.827	-0.179	0.244
-689.368	635.236	0.038	0.097
-688.354	200.653	-0.094	0.147
-687.339	77.405	-0.176	0.191
-686.324	37.557	0.057	0.051
-685.310	451.349	-0.076	-0.170
-684.295	800.000	-0.059	0.227
-683.281	122.572	0.157	0.199
-682.266	-188.946	0.292	-0.004
-681.251	-200.000	0.038	-0.329
-680.237	-200.000	-0.008	0.055
-679.222	41.227	-0.288	0.265
-678.208	56.181	0.082	-0.081
-677.193	79.556	0.036	-0.039
-676.178	800.000	-0.120	0.473
-675.164	-119.342	-0.047	0.008
-674.149	-91.405	0.073	0.021
-673.135	344.112	-0.026	-0.052
-672.120	800.000	0.067	0.289
-671.105	-200.000	-0.038	-0.278
-670.091	-40.336	-0.143	-0.075
-669.076	-200.000	-0.061	-0.385
-668.062	174.873	0.123	0.180
-667.047	-105.608	-0.081	0.019
-666.032	-123.305	-0.248	0.040
-665.018	169.899	0.015	0.022
-664.003	-158.191	0.250	-0.015
-662.989	741.286	-0.027	-0.073
-661.974	39.991	0.136	-0.124
-660.959	19.081	0.257	-0.209
-659.945	183.140	-0.203	-0.304
-658.930	-200.000	0.005	0.268
-657.916	600.025	0.028	0.071
-656.901	326.715	-0.064	-0.124
-655.886	22.994	-0.098	-0.082
-654.872	-30.526	0.312	0.180
-653.857	-200.000	-0.029	-0.269
-652.843	68.738	0.077	0.080
-651.828	-15.219	0.103	0.067
-650.814	-143.652	0.196	-0.019
-649.799	-200.000	-0.090	-0.404
-648.784	-200.000	0.032	0.393
-647.770	800.000	-0.065	-0.229
-646.755	179.761	-0.169	-0.252
-645.741	120.973	-0.146	0.184
-644.726	-200.000	-0.027	-0.167
-643.711	-54.506	-0.300	0.138
-642.697	-64.492	0.157	-0.065
-641.682	367.585	0.083	0.171
-640.668	-117.680	0.237	0.043
-639.653	-175.825	0.372	-0.010
-638.638	800.000	0.081	0.265
-637.624	800.000	-0.128	-0.369
-636.609	-200.000	-0.059	0.431
-635.595	-200.000	0.024	-0.237
-634.580	-56.966	0.189	-0.085
-633.565	-107.394	-0.303	0.067
-632.551	-72.057	0.079	-0.030
-631.536	346.319	0.061	0.121
-630.522	290.755	-0.023	-0.042
-629.507	15.418	-0.103	0.082
-628.492	-103.093	-0.216	0.052
-627.478	-12.113	-0.176	-0.117
-626.463	67.869	-0.128	0.133
-625.449	-64.242	-0.057	0.024
-624.434	-91.128	0.152	0.044
-623.419	-90.934	-0.111	-0.032
-622.405	202.975	-0.132	0.207
-621.390	-53.405	-0.237	-0.110
-620.376	-200.000	0.007	-0.091
-619.361	800.000	0.057	0.242
-618.346	-200.000	0.020	-0.228
-617.332	-200.000	-0.065	0.340
-616.317	-17.686	-0.100	-0.064
-615.303	-71.684	0.116	-0.044
-614.288	-173.837	-0.378	0.011
-613.273	-71.155	0.230	0.088
-612.259	120.461	-0.079	0.100
-611.244	-135.174	0.104	-0.013
-610.230	-63.311	0.222	-0.093
-609.215	54.495	-0.272	-0.266
-608.201	-45.310	-0.067	0.034
-607.186	800.000	-0.081	-0.234
-606.171	138.395	-0.038	0.051
-605.157	-85.212	-0.079	0.025
-604.142	-200.000	-0.013	-0.158
-603.128	23.929	0.233	0.195
-602.113	-200.000	-0.041	-0.323
-601.098	-200.000	-0.089	0.415
-600.084	-30.716	-0.144	-0.082
-599.069	321.866	-0.141	-0.272
-598.055	87.514	0.180	-0.202
-597.040	-200.000	-0.045	0.403
-596.025	325.377	0.152	-0.295
-595.011	9.151	-0.068	0.052
-593.996	-200.000	0.002	0.086
-592.982	-155.990	0.178	-0.011
-591.967	-115.987	0.100	0.019
-590.952	656.028	-0.073	-0.189
-589.938	-48.861	0.382	0.186
-588.923	-200.000	0.003	0.182
-587.909	-101.516	0.266	-0.065
-586.894	-100.424	0.284	0.071
-585.879	-180.230	0.156	-0.003
-584.865	126.001	-0.259	-0.332
-583.850	-144.901	-0.329	0.030
-582.836	-176.616	-0.256	0.007
-581.821	-37.233	0.248	-0.135
-580.806	800.000	-0.068	-0.234
-579.792	-107.868	0.329	-0.073
-578.777	363.215	0.141	-0.287
-577.763	-89.537	-0.238	-0.071
-576.748	737.077	0.022	-0.059
-575.733	-167.550	-0.311	0.013
-574.719	-164.934	-0.439	0.020
-573.704	-157.745	-0.316	-0.019
-572.690	800.000	0.072	0.204
-571.675	-129.053	-0.245	-0.035
-570.661	-116.277	-0.135	-0.025
-569.646	346.956	-0.233	0.465
-568.631	-137.400	-0.115	0.013
-567.617	244.128	-0.189	-0.322
-566.602	-73.929	-0.290	-0.107
-565.588	256.776	0.128	-0.223
-564.573	-138.683	0.185	-0.020
-563.558	157.506	-0.246	0.344
-562.544	143.678	0.147	0.198
-561.529	-200.000	0.025	0.217
-560.515	-104.871	0.194	-0.045
-559.500	-159.459	-0.190	-0.011
-558.485	-200.000	-0.045	0.212
-557.471	800.000	0.058	-0.178
-556.456	542.327	-0.034	-0.081
-555.442	28.705	-0.249	0.213
-554.427	-200.000	-0.057	0.329
-553.412	85.449	-0.181	0.201
-552.398	-90.461	-0.276	-0.081
-551.383	91.704	0.336	-0.383
-550.369	3.804	0.329	0.243
-549.354	-113.964	-0.182	-0.036
-548.339	57.053	0.069	0.068
-547.325	-64.029	-0.128	0.053
-546.310	586.896	-0.051	-0.128
-545.296	-159.886	-0.055	-0.003
-544.281	424.907	0.124	0.269
-543.266	103.438	0.084	-0.100
-542.252	5.296	-0.065	0.048
-541.237	-96.913	-0.119	0.032
-540.223	-87.582	-0.160	-0.049
-539.208	55.122	0.137	-0.134
-538.193	-129.987	0.272	0.038
-537.179	-200.000	-0.031	-0.150
-536.164	-151.446	0.391	-0.029
-535.150	4.217	0.086	0.063
-534.135	-200.000	-0.013	-0.110
-533.121	-200.000	0.072	-0.368
-532.106	800.000	-0.099	-0.350
-531.091	-173.959	0.342	0.010
-530.077	361.639	0.143	-0.291
-529.062	72.886	-0.038	0.040
-528.048	-200.000	0.004	-0.044
-527.033	163.344	-0.143	0.202
-526.018	-7.926	0.065	0.044
-525.004	-88.581	-0.105	0.032
-523.989	-200.000	0.011	-0.336
-522.975	204.865	-0.048	0.076
-521.960	496.146	0.072	0.167
-520.945	800.000	-0.060	0.234
-519.931	-2.329	-0.060	0.043
-518.916	45.633	0.307	-0.287
-517.902	-200.000	0.019	-0.108
-516.887	-98.342	0.235	0.061
-515.872	-135.482	0.204	0.025
-514.858	-2.587	0.147	0.104
-513.843	401.093	0.149	-0.316
-512.829	-75.610	-0.122	-0.044
-511.814	-74.755	0.198	0.072
-510.799	-200.000	0.059	-0.436
-509.785	-2.111	-0.379	-0.269
-508.770	800.000	-0.095	0.331
-507.756	-175.789	0.067	-0.002
-506.741	685.456	-0.076	-0.199
-505.726	342.638	0.043	0.084
-504.712	-128.583	0.085	-0.012
-503.697	-123.942	-0.045	0.007
-502.683	-33.171	0.091	-0.051
-501.668	179.476	0.159	-0.235
-500.653	-145.647	-0.078	-0.007
-499.639	-200.000	0.042	-0.300
-498.624	-200.000	0.016	0.143
-497.610	-52.950	0.248	-0.115
-496.595	-122.450	-0.456	0.075
-495.581	-200.000	0.047	0.212
-494.566	-200.000	0.009	0.087
-493.551	-57.819	-0.053	-0.024
-492.537	56.421	0.313	0.307
-491.522	800.000	0.134	0.435
-490.508	-200.000	0.000	0.008
-489.493	-33.196	-0.162	0.091
-488.478	800.000	0.035	-0.149
-487.464	-44.065	0.125	0.063
-486.449	-0.004	0.072	0.052
-485.435	15.116	-0.213	-0.169
-484.420	-196.677	-0.498	0.003
-483.405	80.278	-0.082	0.089
-482.391	-65.724	0.260	-0.105
-481.376	-200.000	-0.006	-0.103
-480.362	141.175	-0.186	0.248
-479.347	-133.080	0.387	-0.050
-478.332	800.000	-0.074	0.281
-477.318	-48.630	-0.092	0.045
-476.303	80.804	0.156	0.169
-475.289	800.000	0.045	0.194
-474.274	415.587	0.124	-0.266
-473.259	-99.709	0.113	-0.028
-472.245	-167.972	-0.133	-0.005
-471.230	71.447	0.087	0.091
-470.216	201.485	0.175	-0.271
-469.201	-13.325	-0.378	-0.247
-468.186	-70.682	-0.153	-0.058
-467.172	-145.543	0.351	0.032
-466.157	-48.365	0.226	0.110
-465.143	542.680	-0.135	-0.324
-464.128	26.841	0.394	0.333
-463.113	13.378	-0.252	0.197
-462.099	-200.000	-0.006	0.270
-461.084	-156.504	-0.324	-0.020
-460.070	138.525	0.005	0.006
-459.055	80.501	0.210	-0.227
-458.040	-61.495	-0.206	0.087
-457.026	-94.961	-0.249	-0.068
-456.011	-62.396	-0.124	0.052
-454.997	800.000	0.086	0.346
-453.982	128.625	-0.153	0.196
-452.968	-200.000	0.032	-0.167
-451.953	164.441	-0.151	0.214
-450.938	71.790	-0.122	0.128
-449.924	21.373	0.157	-0.129
-448.909	394.067	0.147	-0.309
-447.895	131.574	-0.047	-0.061
-446.880	-116.169	-0.171	-0.032
-445.865	-20.706	-0.033	0.020
-444.851	-33.838	0.223	0.124
-443.836	-2.498	0.221	0.156
-442.822	369.900	0.153	0.312
-441.807	-141.653	0.132	0.013
-440.792	20.337	-0.095	0.077
-439.778	212.504	-0.123	-0.196
-438.763	-61.908	-0.219	0.092
-437.749	-200.000	-0.013	0.182
-436.734	-200.000	0.036	-0.193
-435.719	-32.693	0.191	-0.107
-434.705	21.439	-0.136	0.112
-433.690	-200.000	-0.001	0.062
-432.676	-200.000	-0.030	0.301
-431.661	-94.192	0.291	-0.080
-430.646	10.947	-0.230	0.177
-429.632	-200.000	-0.007	0.085
-428.617	-163.939	-0.164	0.008
-427.603	-200.000	0.021	-0.339
-426.588	186.145	0.143	-0.214
-425.573	-62.657	0.315	0.131
-424.559	272.372	-0.066	-0.118
-423.544	-106.242	0.163	0.037
-422.530	800.000	-0.024	0.081
-421.515	45.418	-0.191	0.177
-420.500	158.770	-0.073	0.102
-419.486	-57.835	0.096	-0.042
-418.471	-200.000	-0.011	0.072
-417.457	800.000	0.081	0.265
-416.442	290.243	-0.157	-0.287
-415.428	88.981	0.064	-0.072
-414.413	800.000	0.086	-0.339
-413.398	-128.273	-0.197	-0.028
-412.384	800.000	-0.052	0.201
-411.369	-200.000	-0.009	-0.156
-410.355	41.751	0.057	-0.052
-409.340	-67.069	0.361	0.143
-408.325	-86.072	0.052	-0.016
-407.311	250.488	0.100	0.171
-406.296	151.714	-0.115	0.158
-405.282	104.565	-0.295	-0.349
-404.267	-93.046	0.205	0.057
-403.252	-58.383	-0.249	-0.109
-402.238	-200.000	0.027	0.187
-401.223	226.426	0.101	0.165
-400.209	-111.348	-0.380	-0.078
-399.194	-200.000	0.028	-0.155
-398.179	-23.663	0.307	0.185
-397.165	350.217	-0.096	-0.190
-396.150	-67.304	-0.247	-0.098
-395.136	-79.736	0.342	-0.116
-394.121	-89.775	-0.137	-0.040
-393.106	-90.402	0.215	0.063
-392.092	216.255	-0.130	-0.207
-391.077	-68.005	-0.208	0.082
-390.063	74.014	-0.156	-0.165
-389.048	-10.961	0.271	-0.180
-388.033	-137.844	-0.324	-0.036
-387.019	657.243	0.082	-0.213
-386.004	800.000	0.033	0.143
-384.990	633.748	-0.061	-0.156
-383.975	-200.000	0.002	0.218
-382.960	-94.479	-0.042	-0.012
-381.946	-78.533	0.113	0.039
-380.931	-102.840	-0.376	0.090
-379.917	220.605	0.087	-0.140
-378.902	263.728	0.059	-0.102
-377.888	4.231	0.143	-0.105
-376.873	-200.000	0.081	-0.381
-375.858	-15.946	-0.124	-0.079
-374.844	-151.293	0.351	0.026
-373.829	208.352	-0.022	-0.035
-372.815	26.937	-0.201	-0.169
-371.800	-153.296	-0.248	-0.017
-370.785	-64.398	0.296	0.121
-369.771	-200.000	-0.002	-0.165
-368.756	-45.027	-0.172	-0.086
-367.742	19.217	-0.139	-0.112
-366.727	800.000	0.023	0.069
-365.712	-15.269	-0.189	0.121
-364.698	-66.251	0.033	-0.013
-363.683	186.192	0.065	-0.096
-362.669	-200.000	-0.081	-0.386
-361.654	-16.209	0.238	0.151
-360.639	800.000	0.085	0.250
-359.625	-200.000	0.018	-0.123
-358.610	230.272	-0.017	0.029
-357.596	-142.454	0.051	-0.005
-356.581	-121.368	0.235	0.039
-355.566	800.000	0.033	0.118
-354.552	800.000	-0.033	0.142
-353.537	205.376	-0.281	0.437
-352.523	-133.226	-0.045	0.006
-351.508	-200.000	-0.009	-0.355
-350.493	-103.383	-0.140	0.033
-349.479	-200.000	0.001	0.316
-348.464	-45.789	0.061	0.030
-347.450	13.072	-0.234	-0.182
-346.435	800.000	0.118	-0.364
-345.420	47.955	0.276	0.259
-344.406	-54.118	-0.461	0.210
-343.391	-199.756	-0.268	-0.001
-342.377	-200.000	-0.047	0.235
-341.362	-170.025	-0.165	0.006
-340.348	800.000	-0.054	0.223
-339.333	-200.000	-0.058	0.274
-338.318	7.420	0.144	-0.108
-337.304	-188.584	0.367	0.005
-336.289	-0.843	-0.223	0.158
-335.275	60.254	-0.102	-0.101
-334.260	-200.000	0.011	-0.086
-333.245	-200.000	-0.020	-0.102
-332.231	-36.817	-0.206	-0.111
-331.216	-124.548	-0.123	0.019
-330.202	800.000	-0.007	0.030
-329.187	-67.674	0.128	-0.050
-328.172	-40.164	-0.189	-0.099
-327.158	-200.000	0.019	-0.252
-326.143	52.432	-0.147	-0.141
-325.129	-99.329	0.397	0.100
-324.114	267.223	-0.141	-0.248
-323.099	800.000	-0.092	-0.384
-322.085	221.132	-0.202	-0.325
-321.070	-159.912	0.021	0.001
-320.056	-132.585	0.159	-0.021
-319.041	800.000	0.027	-0.086
-318.026	-53.191	0.475	0.218
-317.012	-200.000	-0.009	-0.225
-315.997	-200.000	0.030	-0.177
-314.983	335.200	0.056	0.109
-313.968	-88.572	-0.169	-0.050
-312.953	-200.000	-0.025	-0.137
-311.939	-60.982	-0.297	-0.126
-310.924	-168.202	0.089	-0.003
-309.910	119.907	0.157	0.195
-308.895	342.227	-0.061	0.120
-307.880	41.269	0.115	-0.104
-306.866	167.561	0.026	-0.037
-305.851	38.293	0.260	0.232
-304.837	193.799	0.092	0.140
-303.822	-108.801	-0.613	0.131
-302.807	800.000	0.091	0.358
-301.793	-200.000	0.016	0.182
-300.778	800.000	-0.083	0.260
-299.764	107.328	-0.068	-0.081
-298.749	-41.865	-0.071	0.037
-297.735	-152.856	0.394	-0.028
-296.720	187.526	-0.100	-0.150
-295.705	-178.972	0.102	0.002
-294.691	-114.318	0.261	0.050
-293.676	-165.411	-0.198	-0.009
-292.662	49.907	0.041	0.039
-291.647	-86.431	0.290	0.089
-290.632	-150.500	-0.073	0.006
-289.618	-79.225	-0.136	-0.046
-288.603	133.726	-0.087	-0.112
-287.589	52.099	-0.150	0.143
-286.574	-28.391	0.361	0.208
-285.559	-23.603	0.137	-0.082
-284.545	487.498	-0.152	0.347
-283.530	237.072	0.168	0.279
-282.516	-74.814	-0.204	-0.073
-281.501	553.302	0.235	0.566
-280.486	223.089	0.378	0.609
-279.472	-96.390	-0.335	0.089
-278.457	800.000	-0.066	-0.241
-277.443	162.723	-0.092	-0.130
-276.428	-177.333	0.211	-0.005
-275.413	-200.000	0.010	-0.321
-274.399	-78.875	-0.189	-0.065
-273.384	257.192	-0.084	0.144
-272.370	50.824	-0.150	0.142
-271.355	-107.356	0.193	-0.042
-270.340	-65.111	-0.046	-0.019
-269.326	-200.000	-0.005	-0.024
-268.311	-99.426	0.461	0.116
-267.297	800.000	-0.045	0.161
-266.282	172.159	0.118	-0.170
-265.267	66.810	-0.156	-0.159
-264.253	84.114	0.040	-0.043
-263.238	-100.141	-0.159	-0.039
-262.224	350.832	0.099	-0.195
-261.209	119.192	0.163	0.201
-260.195	-200.000	-0.029	-0.242
-259.180	-78.044	0.114	-0.039
-258.165	-185.537	-0.402	-0.006
-257.151	66.316	-0.067	-0.068
-256.136	-78.824	0.100	-0.034
-255.122	-134.432	-0.139	-0.017
-254.107	-200.000	0.008	0.069
-253.092	711.524	-0.057	-0.150
-252.078	-200.000	-0.012	-0.114
-251.063	-65.253	0.100	-0.040
-250.049	16.705	0.039	0.031
-249.034	429.460	0.121	-0.262
-248.019	95.799	-0.360	-0.411
-247.005	-80.933	0.182	-0.060
-245.990	-149.850	-0.108	-0.008
-244.976	-94.008	-0.351	-0.096
-243.961	-200.000	0.048	0.370
-242.946	800.000	-0.049	0.161
-241.932	-0.091	0.053	-0.038
-240.917	-73.343	0.232	-0.085
-239.903	-27.205	0.399	0.232
-238.888	548.534	-0.080	0.190
-237.873	-127.703	-0.269	-0.039
-236.859	474.453	0.123	-0.278
-235.844	-142.832	0.305	0.030
-234.830	89.041	0.051	0.057
-233.815	-175.938	-0.302	-0.008
-232.800	-37.048	-0.110	0.059
-231.786	800.000	-0.033	0.115
-230.771	-101.538	-0.068	0.016
-229.757	-41.928	0.044	-0.023
-228.742	46.578	0.224	0.207
-227.727	-31.887	0.235	-0.132
-226.713	-3.915	0.272	-0.188
-225.698	-200.000	-0.069	-0.337
-224.684	47.424	-0.250	-0.233
-223.669	-136.857	0.387	0.044
-222.655	182.377	0.045	-0.067
-221.640	59.605	-0.083	-0.081
-220.625	141.032	-0.224	0.296
-219.611	800.000	0.072	-0.243
-218.596	717.614	-0.145	0.383
-217.582	-94.261	-0.170	0.046
-216.567	-28.577	-0.246	-0.142
-215.552	266.638	0.157	0.274
-214.538	112.986	-0.141	0.170
-213.523	-85.580	0.454	0.141
-212.509	111.147	-0.087	0.104
-211.494	-60.484	-0.296	-0.126
-210.479	2.322	-0.143	0.103
-209.465	76.286	0.087	0.092
-208.450	-9.926	0.131	0.087
-207.436	139.748	-0.156	-0.205
-206.421	298.486	0.099	0.181
-205.406	-42.162	0.139	-0.071
-204.392	402.689	-0.030	0.063
-203.377	800.000	-0.044	-0.178
-202.363	-111.979	0.242	-0.049
-201.348	101.160	0.082	0.096
-200.333	-41.336	0.310	0.159
-199.319	-41.646	-0.195	0.100
-198.304	-200.000	-0.060	-0.295
-197.290	533.795	0.039	-0.091
-196.275	16.697	-0.081	0.064
-195.260	540.028	-0.141	0.335
-194.246	490.451	-0.061	0.139
-193.231	530.762	0.044	0.103
-192.217	-200.000	0.010	0.161
-191.202	47.152	0.162	0.150
-190.187	-154.204	0.252	-0.017
-189.173	-200.000	-0.022	0.147
-188.158	-127.860	-0.137	0.020
-187.144	188.149	-0.035	-0.052
-186.129	122.903	-0.217	0.271
-185.114	-143.833	-0.225	-0.021
-184.100	35.638	0.145	-0.127
-183.085	-11.814	0.100	0.065
-182.071	-200.000	0.030	-0.139
-181.056	49.403	0.300	0.281
-180.042	-36.031	0.165	-0.089
-179.027	115.087	0.287	0.349
-178.012	-5.567	-0.211	-0.144
-176.998	-123.273	-0.100	-0.016
-175.983	-11.451	0.230	-0.151
-174.969	-58.896	0.118	0.051
-173.954	-200.000	-0.004	0.067
-172.939	51.227	-0.168	-0.159
-171.925	-200.000	0.046	-0.321
-170.910	-52.855	0.034	-0.016
-169.896	-8.293	0.164	-0.110
-168.881	359.742	-0.078	0.156
-167.866	317.558	0.085	-0.160
-166.852	-139.211	0.181	-0.019
-165.837	800.000	-0.028	0.100
-164.823	-109.604	0.525	-0.110
-163.808	262.442	-0.174	-0.300
-162.793	-67.304	-0.110	-0.043
-161.779	103.356	0.040	0.047
-160.764	-200.000	-0.009	-0.164
-159.750	-61.591	0.188	-0.079
-158.735	-80.606	0.171	0.057
-157.720	530.909	-0.081	0.191
-156.706	1.397	-0.121	-0.087
-155.691	800.000	-0.027	-0.118
-154.677	-75.760	0.187	-0.066
-153.662	268.400	0.016	-0.028
-152.647	-105.007	0.126	-0.029
-151.633	-46.666	-0.372	0.182
-150.618	-200.000	-0.041	0.260
-149.604	320.730	-0.129	0.244
-148.589	75.000	0.271	0.285
-147.574	9.392	-0.064	-0.048
-146.560	-200.000	-0.071	-0.333
-145.545	-200.000	0.001	-0.288
-144.531	-42.816	-0.025	0.012
-143.516	-165.144	-0.274	0.012
-142.502	-146.414	0.411	-0.036
-141.487	-200.000	0.005	0.128
-140.472	-200.000	0.064	0.363
-139.458	-200.000	-0.043	-0.342
-138.443	-74.363	-0.021	-0.007
-137.429	47.799	-0.142	-0.132
-136.414	800.000	-0.059	0.200
-135.399	306.724	-0.051	0.095
-134.385	-58.095	0.217	0.094
-133.370	25.995	0.080	0.067
-132.356	800.000	-0.007	-0.022
-131.341	94.489	0.284	0.321
-130.326	-120.711	-0.024	-0.004
-129.312	-200.000	-0.000	-0.233
-128.297	96.161	0.052	0.060
-127.283	-54.093	0.284	-0.128
-126.268	-57.973	0.065	0.028
-125.253	-200.000	-0.004	-0.137
-124.239	-122.126	0.111	-0.018
-123.224	-26.103	-0.249	-0.146
-122.210	161.571	0.109	-0.151
-121.195	102.014	0.110	-0.128
-120.180	-104.425	-0.154	0.035
-119.166	800.000	-0.020	-0.076
-118.151	-31.683	0.165	0.092
-117.137	-200.000	-0.047	0.275
-116.122	615.580	0.124	0.309
-115.107	-200.000	-0.011	-0.184
-114.093	-36.228	-0.127	-0.068
-113.078	220.766	-0.071	-0.113
-112.064	215.344	0.144	-0.227
-111.049	673.773	0.037	-0.095
-110.034	218.707	-0.221	0.351
-109.020	-200.000	0.039	0.000
-108.005	-200.000	0.066	-0.348
-106.991	-145.146	-0.321	-0.029
-105.976	-200.000	-0.075	-0.335
-104.962	-187.467	-0.350	-0.005
-103.947	800.000	-0.094	0.304
-102.932	271.083	-0.090	-0.158
-101.918	-70.149	-0.106	0.040
-100.903	-149.500	-0.052	-0.004
-99.889	-169.022	-0.223	0.008
-98.874	-41.203	-0.217	0.111
-97.859	-41.436	-0.110	0.056
-96.845	314.313	-0.079	0.148
-95.830	4.884	0.136	0.099
-94.816	40.581	-0.276	-0.247
-93.801	-200.000	0.012	-0.362
-92.786	-35.163	-0.290	-0.157
-91.772	55.403	0.167	0.160
-90.757	-55.062	0.133	-0.060
-89.743	89.785	-0.224	-0.248
-88.728	800.000	0.060	-0.171
-87.713	-200.000	0.038	-0.258
-86.699	-146.312	-0.270	0.024
-85.684	-115.518	0.362	-0.068
-84.670	-47.881	0.118	0.057
-83.655	269.870	0.159	0.278
-82.640	-76.565	0.504	0.176
-81.626	353.950	0.153	0.303
-80.611	-200.000	-0.001	0.035
-79.597	-30.991	-0.044	-0.024
-78.582	121.795	-0.026	-0.032
-77.567	-200.000	-0.053	0.245
-76.553	268.182	-0.209	-0.363
-75.538	143.967	-0.053	-0.070
-74.524	143.917	-0.036	-0.047
-73.509	235.901	-0.275	0.452
-72.494	-128.148	0.258	-0.037
-71.480	-200.000	0.002	-0.275
-70.465	-111.954	0.058	-0.012
-69.451	800.000	-0.024	-0.073
-68.436	563.403	-0.078	0.188
-67.422	124.390	0.125	0.156
-66.407	71.814	-0.298	-0.308
-65.392	161.927	-0.220	0.306
-64.378	-194.444	0.120	-0.001
-63.363	-4.046	0.171	-0.117
-62.349	329.998	-0.061	-0.117
-61.334	-1.882	-0.773	-0.540
-60.319	-40.401	0.245	0.126
-59.305	-200.000	-0.080	-0.857
-58.290	86.251	0.670	0.732
-57.276	733.533	0.563	1.496
-56.261	-200.000	95.986	578.808
-55.246	656.506	1380.942	3519.731
-54.232	187.174	2595.255	3838.386
-53.217	114.908	2323.589	2811.436
-52.203	42.287	2072.434	1868.008
-51.188	37.156	1985.082	1743.259
-50.173	35.553	1967.365	1713.347
-49.159	50.245	2018.766	1891.228
-48.144	53.301	2038.366	1937.144
-47.130	37.848	1995.635	1758.495
-46.115	35.331	1983.977	1725.542
-45.100	35.254	1980.680	1721.918
-44.086	35.241	1978.367	1719.720
-43.071	35.201	1975.994	1717.231
-42.057	35.116	1974.056	1714.714
-41.042	35.220	1971.677	1713.514
-40.027	35.159	1970.447	1711.833
-39.013	35.196	1967.907	1709.883
-37.998	35.305	1965.740	1708.904
-36.984	35.250	1964.629	1707.386
-35.969	35.304	1962.174	1705.659
-34.954	35.331	1960.466	1704.350
-33.940	35.323	1958.951	1702.895
-32.925	35.306	1958.310	1702.121
-31.911	35.475	1955.927	1701.478
-30.896	35.377	1954.195	1699.039
-29.881	35.398	1952.335	1697.539
-28.867	35.381	1950.968	1696.132
-27.852	35.473	1949.332	1695.456
-26.838	35.388	1947.666	1693.183
-25.823	35.420	1945.657	1691.654
-24.809	35.348	1944.105	1689.604
-23.794	35.348	1942.076	1687.779
-22.779	35.313	1940.682	1686.186
-21.765	35.312	1938.428	1684.156
-20.750	35.420	1937.358	1684.109
-19.736	35.422	1935.938	1682.823
-18.721	35.374	1934.786	1681.334
-17.706	35.430	1932.836	1680.060
-16.692	35.370	1930.864	1677.754
-15.677	35.459	1928.818	1676.690
-14.663	35.469	1927.506	1675.568
-13.648	35.365	1927.102	1674.244
-12.633	35.359	1926.054	1673.215
-11.619	35.349	1924.284	1671.522
-10.604	35.320	1922.928	1670.030
-9.590	35.406	1921.519	1669.490
-8.575	35.381	1920.013	1667.891
-7.560	35.341	1918.674	1666.319
-6.546	35.404	1917.087	1665.417
-5.531	35.356	1916.127	1664.106
-4.517	35.364	1915.381	1663.455
-3.502	35.368	1913.528	1661.816
-2.487	35.367	1912.980	1661.263
-1.473	35.237	1912.188	1659.390
-0.458	35.444	1906.968	1656.582
0.556	35.501	1887.387	1625.636
1.571	30.924	1866.514	1569.078
2.586	26.431	1887.382	1548.121
3.600	25.278	1922.633	1566.841
4.615	24.403	1917.841	1555.169
5.629	18.717	1816.702	1425.941
6.644	9.612	1696.868	1260.819
7.659	5.328	1659.176	1199.868
8.673	4.882	1656.030	1194.070
9.688	4.870	1654.807	1192.986
10.702	4.914	1653.161	1192.033
11.717	4.824	1650.465	1189.301
12.731	5.384	1649.809	1192.996
13.746	11.126	1663.363	1246.754
14.761	18.793	1679.247	1317.587
15.775	20.714	1680.958	1333.548
16.790	19.812	1677.682	1323.927
17.804	18.685	1674.344	1312.561
18.819	17.589	1671.758	1302.047
19.834	17.021	1668.583	1295.128
20.848	16.797	1667.170	1292.207
21.863	16.481	1666.033	1288.804
22.877	16.334	1664.198	1286.148
23.892	16.074	1663.477	1283.496
24.907	15.982	1661.815	1281.405
25.921	16.021	1661.069	1281.010
26.936	15.995	1660.273	1280.089
27.950	15.969	1659.100	1278.872
28.965	16.077	1658.408	1279.043
29.980	16.101	1657.973	1278.781
30.994	16.072	1657.481	1278.066
32.009	16.274	1655.488	1277.946
33.023	16.241	1655.272	1277.417
34.038	16.353	1653.774	1276.995
35.053	16.212	1653.137	1275.319
36.067	16.209	1651.483	1273.911
37.082	16.236	1650.208	1273.022
38.096	16.158	1649.563	1271.821
39.111	16.167	1649.014	1271.349
40.126	16.181	1648.478	1270.929
41.140	16.182	1647.128	1269.784
42.155	16.088	1645.811	1267.949
43.169	15.988	1644.240	1265.881
44.184	15.851	1643.090	1263.853
45.199	15.875	1641.833	1262.953
46.213	15.840	1640.886	1261.851
47.228	15.960	1639.581	1261.635
48.242	16.036	1638.920	1261.578
49.257	16.272	1637.306	1261.991
50.271	16.129	1636.430	1260.139
51.286	16.129	1634.819	1258.787
52.301	16.087	1633.784	1257.562
53.315	16.087	1632.668	1256.594
54.330	16.107	1630.941	1255.306
55.344	16.043	1628.864	1253.114
56.359	16.011	1627.440	1251.671
57.374	15.954	1626.917	1250.733
58.388	15.968	1626.066	1250.074
59.403	15.979	1624.670	1248.977
60.417	15.804	1623.327	1246.535
61.432	15.793	1622.170	1245.452
62.447	15.884	1620.991	1245.111
63.461	15.802	1619.827	1243.498
64.476	15.742	1619.052	1242.355
65.490	15.704	1617.766	1240.978
66.505	15.704	1616.268	1239.714
67.520	15.634	1615.803	1238.731
68.534	15.869	1614.256	1239.171
69.549	15.840	1613.071	1237.939
70.563	15.779	1611.954	1236.517
71.578	15.822	1610.567	1235.664
72.593	15.736	1609.724	1234.273
73.607	15.667	1608.990	1233.100
74.622	15.633	1607.734	1231.778
75.636	15.639	1606.933	1231.099
76.651	15.688	1606.354	1230.902
77.666	15.681	1605.453	1230.055
78.680	15.699	1604.580	1229.406
79.695	15.763	1603.456	1228.909
80.709	15.785	1602.510	1228.233
81.724	15.802	1601.999	1227.856
82.739	15.914	1601.220	1227.969
83.753	15.899	1600.127	1226.912
84.768	15.950	1599.023	1226.331
85.782	15.963	1599.019	1226.308
86.797	16.216	1597.987	1227.250
87.812	16.188	1597.137	1226.289
88.826	16.143	1595.600	1224.668
89.841	16.041	1594.780	1223.190
90.855	16.073	1593.995	1222.714
91.870	16.095	1592.565	1221.669
92.884	16.191	1591.097	1221.132
93.899	16.199	1590.650	1220.736
94.914	16.234	1589.388	1219.916
95.928	16.250	1588.304	1219.086
96.943	16.359	1586.885	1218.679
97.957	16.297	1585.022	1216.694
98.972	16.156	1583.975	1214.767
99.987	16.185	1582.250	1213.542
101.001	16.158	1581.188	1212.426
102.016	16.122	1579.607	1210.848
103.030	16.121	1577.503	1209.119
104.045	16.088	1577.205	1208.553
105.060	16.144	1575.571	1207.596
106.074	16.239	1573.762	1206.781
107.089	16.050	1572.099	1204.050
108.103	15.815	1570.687	1201.180
109.118	15.741	1569.662	1199.763
110.133	15.787	1567.747	1198.523
111.147	15.819	1566.412	1197.621
112.162	15.872	1565.054	1196.856
113.176	15.801	1564.219	1195.604
114.191	15.899	1562.618	1194.969
115.206	15.942	1561.866	1194.593
116.220	15.935	1560.430	1193.340
117.235	15.909	1559.154	1192.075
118.249	15.838	1558.249	1190.778
119.264	15.940	1556.315	1189.913
120.279	15.888	1555.238	1188.617
121.293	15.835	1553.965	1187.168
122.308	15.746	1552.580	1185.378
123.322	15.796	1550.817	1184.280
124.337	15.852	1548.517	1182.808
125.352	15.740	1548.135	1181.627
126.366	15.698	1547.126	1180.456
127.381	15.677	1546.305	1179.578
128.395	15.727	1545.271	1179.037
129.410	15.860	1543.407	1178.439
130.424	15.767	1542.284	1176.832
131.439	15.720	1541.465	1175.774
132.454	15.830	1540.006	1175.326
133.468	15.960	1538.125	1174.692
134.483	15.983	1536.927	1173.835
135.497	15.996	1535.840	1172.987
136.512	15.953	1534.529	1171.582
137.527	15.943	1533.235	1170.423
138.541	15.998	1531.991	1169.750
139.556	15.953	1530.980	1168.563
140.570	16.026	1529.472	1167.815
141.585	16.101	1528.148	1167.224
142.600	16.220	1527.134	1167.168
143.614	16.287	1525.909	1166.590
144.629	16.346	1524.291	1165.660
145.643	16.380	1523.320	1165.046
146.658	16.335	1522.248	1163.809
147.673	16.356	1520.426	1162.463
148.687	16.225	1518.780	1160.200
149.702	16.184	1517.381	1158.748
150.716	16.119	1515.856	1157.036
151.731	16.025	1514.565	1155.298
152.746	16.095	1513.074	1154.538
153.760	16.117	1511.861	1153.663
154.775	16.089	1510.495	1152.327
155.789	16.208	1509.289	1152.117
156.804	16.280	1507.686	1151.282
157.819	16.258	1506.636	1150.234
158.833	16.212	1505.720	1149.118
159.848	16.239	1504.615	1148.354
160.862	16.373	1503.305	1148.163
161.877	16.423	1502.227	1147.580
162.892	16.421	1500.337	1146.021
163.906	16.282	1499.105	1144.033
164.921	16.180	1498.171	1142.532
165.935	16.110	1497.380	1141.353
166.950	16.152	1496.380	1140.776
167.964	16.246	1495.111	1140.339
168.979	16.146	1494.197	1138.869
169.994	16.211	1493.295	1138.516
171.008	16.171	1492.591	1137.609
172.023	16.205	1491.304	1136.759
173.037	16.319	1489.955	1136.397
174.052	16.386	1488.722	1135.803
175.067	16.430	1487.922	1135.388
176.081	16.302	1486.506	1133.350
177.096	16.260	1485.040	1131.853
178.110	16.240	1483.824	1130.690
179.125	16.302	1482.355	1129.882
180.140	16.274	1482.122	1129.420
181.154	16.291	1480.666	1128.324
182.169	16.298	1479.881	1127.676
183.183	16.430	1477.917	1126.955
184.198	16.444	1477.198	1126.405
185.213	16.481	1476.441	1125.974
186.227	16.459	1475.320	1124.870
187.242	16.597	1473.873	1124.584
188.256	16.484	1473.609	1123.531
189.271	16.593	1472.411	1123.246
190.286	16.658	1471.502	1122.885
191.300	16.551	1470.566	1121.357
192.315	16.546	1468.344	1119.532
193.329	16.184	1467.800	1116.623
194.344	16.136	1466.399	1115.143
195.359	16.329	1465.453	1115.598
196.373	16.390	1464.371	1115.080
197.388	16.453	1463.443	1114.687
198.402	16.617	1462.794	1115.179
199.417	16.657	1461.564	1114.402
200.432	16.746	1460.937	1114.415
201.446	16.857	1459.384	1113.862
202.461	16.893	1458.816	1113.562
203.475	16.925	1457.654	1112.792
204.490	16.927	1456.857	1112.096
205.504	16.895	1455.436	1110.704
206.519	16.778	1454.265	1108.944
207.534	16.627	1453.447	1107.234
208.548	16.634	1452.000	1106.083
209.563	16.657	1450.869	1105.270
210.577	16.703	1449.802	1104.658
211.592	16.739	1448.728	1103.979
212.607	16.828	1448.105	1103.987
213.621	16.855	1447.694	1103.752
214.636	16.982	1446.954	1103.913
215.650	16.818	1445.940	1101.980
216.665	16.885	1444.759	1101.414
217.680	16.920	1444.121	1101.059
218.694	17.032	1443.472	1101.191
219.709	16.998	1442.621	1100.224
220.723	17.015	1441.453	1099.346
221.738	17.039	1440.475	1098.659
222.753	17.014	1439.751	1097.850
223.767	17.063	1438.367	1097.014
224.782	16.876	1437.856	1095.317
225.796	17.026	1436.787	1095.373
226.811	17.142	1436.188	1095.570
227.826	17.096	1435.182	1094.410
228.840	17.167	1434.482	1094.235
229.855	17.059	1433.356	1092.587
230.869	17.067	1432.543	1091.921
231.884	17.009	1431.352	1090.542
232.899	17.055	1429.688	1089.475
233.913	16.998	1428.485	1088.098
234.928	16.947	1427.391	1086.843
235.942	16.940	1426.222	1085.810
236.957	16.993	1425.380	1085.409
237.972	16.910	1424.029	1083.756
238.986	16.899	1422.947	1082.767
240.001	17.008	1422.016	1082.657
241.015	17.000	1421.061	1081.783
242.030	16.968	1419.737	1080.474
243.045	17.016	1418.943	1080.085
244.059	16.991	1418.434	1079.441
245.074	17.168	1417.442	1079.715
246.088	17.228	1416.616	1079.369
247.103	17.191	1415.913	1078.507
248.117	17.206	1415.322	1078.055
249.132	17.351	1414.272	1078.080
250.147	17.380	1414.079	1078.019
251.161	17.489	1413.290	1078.011
252.176	17.570	1412.758	1078.026
253.190	17.642	1412.062	1077.855
254.205	17.620	1410.950	1076.773
255.220	17.657	1410.244	1076.369
256.234	17.739	1409.486	1076.214
257.249	17.700	1408.285	1074.957
258.263	17.691	1407.732	1074.379
259.278	17.703	1406.502	1073.421
260.293	17.773	1405.692	1073.153
261.307	17.843	1404.889	1072.883
262.322	17.761	1404.404	1071.901
263.336	17.736	1403.827	1071.208
264.351	17.814	1402.431	1070.538
265.366	17.925	1401.563	1070.475
266.380	17.797	1401.379	1069.440
267.395	17.884	1399.972	1068.817
268.409	17.921	1399.239	1068.393
269.424	17.844	1398.502	1067.253
270.439	17.845	1396.949	1065.982
271.453	17.858	1396.069	1065.296
272.468	17.839	1394.971	1064.248
273.482	17.747	1394.811	1063.455
274.497	17.750	1393.439	1062.337
275.512	17.786	1392.706	1061.904
276.526	17.756	1392.180	1061.225
277.541	17.853	1390.744	1060.640
278.555	17.721	1390.260	1059.359
279.570	17.756	1389.248	1058.705
280.585	17.963	1387.672	1058.697
281.599	17.986	1387.356	1058.502
282.614	18.036	1386.280	1057.900
283.628	18.069	1385.147	1057.146
284.643	17.938	1384.118	1055.457
285.657	17.952	1382.989	1054.590
286.672	17.918	1382.209	1053.692
287.687	17.984	1380.889	1053.001
288.701	17.890	1380.018	1051.662
289.716	18.053	1379.296	1052.021
290.730	18.024	1378.616	1051.233
291.745	18.101	1377.344	1050.643
292.760	17.997	1377.126	1049.741
293.774	18.071	1375.803	1049.095
294.789	18.124	1374.681	1048.476
295.803	18.154	1374.261	1048.243
296.818	18.142	1373.784	1047.712
297.833	18.189	1372.528	1046.949
298.847	18.046	1371.711	1045.362
299.862	18.119	1370.215	1044.577
300.876	18.041	1369.496	1043.459
301.891	18.097	1368.755	1043.144
302.906	18.220	1368.067	1043.276
303.920	18.206	1367.070	1042.339
304.935	18.165	1366.446	1041.523
305.949	18.302	1365.925	1041.867
306.964	18.297	1365.606	1041.496
307.979	18.452	1364.314	1041.361
308.993	18.357	1363.534	1040.097
310.008	18.385	1361.961	1038.979
311.022	18.354	1361.331	1038.214
312.037	18.448	1360.507	1038.064
313.052	18.493	1359.193	1037.243
314.066	18.417	1358.413	1036.096
315.081	18.401	1357.213	1034.991
316.095	18.317	1355.593	1033.160
317.110	18.230	1354.807	1031.944
318.125	18.233	1354.010	1031.264
319.139	18.266	1353.452	1030.945
320.154	18.188	1352.138	1029.383
321.168	18.239	1351.320	1028.977
322.183	18.299	1350.208	1028.400
323.197	18.369	1349.122	1027.902
324.212	18.394	1348.476	1027.470
325.227	18.438	1347.441	1026.852
326.241	18.368	1346.922	1025.948
327.256	18.301	1346.126	1024.849
328.270	18.442	1344.803	1024.592
329.285	18.322	1344.521	1023.570
330.300	18.259	1343.413	1022.263
331.314	18.377	1342.619	1022.273
332.329	18.416	1341.712	1021.724
333.343	18.345	1340.568	1020.336
334.358	18.403	1339.857	1020.052
335.373	18.454	1339.064	1019.662
336.387	18.609	1337.961	1019.656
337.402	18.618	1337.298	1019.113
338.416	18.659	1336.796	1018.881
339.431	18.618	1336.257	1018.135
340.446	18.678	1335.659	1017.946
341.460	18.694	1334.755	1017.262
342.475	18.798	1334.058	1017.257
343.489	18.815	1333.315	1016.704
344.504	18.834	1332.025	1015.742
345.519	18.949	1331.496	1015.925
346.533	18.963	1330.240	1014.959
347.548	19.069	1329.322	1014.795
348.562	19.011	1328.538	1013.765
349.577	19.080	1328.024	1013.690
350.592	18.951	1327.425	1012.386
351.606	18.986	1325.802	1011.262
352.621	18.827	1324.993	1009.622
353.635	18.674	1323.983	1007.862
354.650	18.780	1323.400	1007.953
355.665	18.852	1321.768	1007.041
356.679	18.843	1320.914	1006.249
357.694	18.808	1319.782	1005.095
358.708	18.933	1318.620	1004.850
359.723	18.906	1318.027	1004.154
360.738	18.993	1317.118	1003.881
361.752	19.028	1315.805	1002.996
362.767	19.020	1314.734	1002.040
363.781	19.019	1313.950	1001.349
364.796	18.979	1313.557	1000.730
365.810	19.056	1312.517	1000.296
366.825	19.126	1312.115	1000.310
367.840	19.205	1310.823	999.694
368.854	19.322	1310.461	1000.010
369.869	19.220	1310.275	999.188
370.883	19.259	1309.787	998.951
371.898	19.244	1308.994	998.172
372.913	19.289	1307.699	997.357
373.927	19.234	1306.806	996.268
374.942	19.330	1306.262	996.320
375.956	19.305	1305.468	995.485
376.971	19.359	1304.250	994.774
377.986	19.292	1303.646	993.844
379.000	19.329	1303.083	993.540
380.015	19.407	1302.440	993.410
381.029	19.454	1301.604	992.953
382.044	19.482	1300.786	992.401
383.059	19.444	1300.134	991.597
384.073	19.441	1299.886	991.306
385.088	19.486	1298.874	990.702
386.102	19.599	1298.123	990.692
387.117	19.590	1297.413	990.008
388.132	19.596	1296.717	989.427
389.146	19.466	1295.794	987.889
390.161	19.353	1294.833	986.424
391.175	19.373	1293.752	985.628
392.190	19.480	1292.614	985.282
393.205	19.453	1292.378	984.864
394.219	19.547	1291.237	984.441
395.234	19.681	1290.081	984.237
396.248	19.489	1289.127	982.329
397.263	19.525	1287.466	981.183
398.278	19.459	1286.433	979.933
399.292	19.448	1284.788	978.532
400.307	19.419	1284.012	977.687
401.321	19.365	1283.280	976.740
402.336	19.351	1282.304	975.830
403.350	19.407	1281.357	975.343
404.365	19.471	1280.439	974.919
405.380	19.402	1279.507	973.733
406.394	19.492	1278.684	973.528
407.409	19.510	1277.954	972.986
408.423	19.554	1277.306	972.654
409.438	19.659	1276.780	972.759
410.453	19.671	1276.052	972.187
411.467	19.848	1275.663	972.798
412.482	19.887	1274.686	972.186
413.496	19.905	1274.085	971.742
414.511	19.878	1273.608	971.141
415.526	19.960	1272.514	970.684
416.540	19.990	1272.077	970.432
417.555	19.921	1271.561	969.562
418.569	19.960	1270.834	969.140
419.584	20.047	1270.391	969.207
420.599	19.971	1269.627	968.113
421.613	141.687	1429.198	1790.681
422.628	136.214	1452.436	1790.768
