DTS Sentinel unit serial number:	SN413079Multiplexer serial number:	ORYXHardware model number:	OX4-SRSoftware version number:	ORYX F/W v4.00 Oryx Data Collector v3.7.2.0data status	okinstallation	princeton_trtdifferential loss correction	single-endedforward channel	channel 4reverse channel	N/Adate	2019/09/14time	02:01:34forward acquisition time	60.00reverse acquisition time	0.00gamma	496.2192k internal	0.2324k external	0.2324temperature offset calibration	1.0126default loss term (dB/km)	0.3790temperature slope calibration	1.0000multiplexer offset coefficient	1.0000multiplexer slope coefficient	1.0000fibre end	0.00T internal ref (°C)	26.50T ext. ref 1 (°C)	3.20T ext. ref 2 (°C)	21.50length (m)	temperature (°C)	Stokes	anti-Stokes-747.200	-200.000	-0.059	-0.344
-746.185	-200.000	0.030	0.147
-745.171	-159.224	0.339	-0.019
-744.156	800.000	0.035	0.154
-743.142	3.165	-0.095	0.070
-742.127	-51.438	0.154	-0.073
-741.112	432.055	0.023	0.051
-740.098	15.496	-0.302	0.240
-739.083	-200.000	0.024	0.362
-738.069	-106.610	0.269	0.060
-737.054	800.000	-0.157	0.522
-736.039	24.855	-0.228	-0.191
-735.025	-132.652	0.361	-0.047
-734.010	276.102	-0.120	0.214
-732.996	346.584	-0.168	0.334
-731.981	-200.000	0.071	0.554
-730.966	-19.720	-0.166	-0.104
-729.952	366.188	-0.132	-0.269
-728.937	165.260	0.161	-0.229
-727.923	-200.000	-0.046	-0.238
-726.908	11.315	-0.189	-0.146
-725.894	5.708	0.158	0.118
-724.879	294.912	0.058	-0.107
-723.864	-76.533	-0.159	-0.056
-722.850	-97.020	-0.247	-0.065
-721.835	-200.000	-0.007	-0.302
-720.821	223.184	-0.089	0.145
-719.806	-49.844	-0.006	-0.003
-718.791	1.666	-0.196	-0.143
-717.777	-200.000	0.044	0.299
-716.762	-200.000	-0.015	0.183
-715.748	329.014	0.178	0.346
-714.733	-104.451	-0.109	-0.025
-713.718	120.020	0.195	-0.244
-712.704	-60.837	-0.119	-0.051
-711.689	14.893	-0.184	-0.146
-710.675	-131.744	0.264	0.035
-709.660	800.000	-0.023	0.093
-708.645	-82.172	-0.322	-0.106
-707.631	-82.144	0.149	-0.049
-706.616	264.276	0.147	0.257
-705.602	800.000	-0.050	-0.179
-704.587	8.487	0.099	0.075
-703.572	77.535	0.123	-0.132
-702.558	-53.610	0.083	0.038
-701.543	238.591	0.166	0.278
-700.529	-107.267	0.341	-0.076
-699.514	115.552	0.123	0.151
-698.499	72.059	0.122	0.128
-697.485	-144.664	0.257	-0.024
-696.470	178.660	0.162	0.239
-695.456	335.327	0.160	0.312
-694.441	75.169	0.176	0.187
-693.426	-200.000	-0.034	-0.399
-692.412	661.924	-0.062	0.161
-691.397	224.058	-0.148	0.240
-690.383	178.594	0.217	-0.320
-689.368	759.198	-0.095	-0.258
-688.354	74.619	-0.126	-0.134
-687.339	352.943	0.171	0.341
-686.324	-127.497	-0.145	-0.021
-685.310	800.000	0.018	0.051
-684.295	2.123	-0.283	-0.206
-683.281	207.249	0.140	0.220
-682.266	341.142	0.283	0.556
-681.251	-93.701	-0.376	-0.104
-680.237	-40.243	0.265	0.139
-679.222	19.874	-0.331	-0.268
-678.208	-112.945	-0.086	0.017
-677.193	88.857	-0.198	0.221
-676.178	-188.461	0.282	-0.004
-675.164	32.322	0.229	0.199
-674.149	-149.660	-0.331	0.026
-673.135	32.094	0.114	-0.099
-672.120	-157.880	0.159	-0.009
-671.105	25.406	0.279	-0.233
-670.091	269.597	0.083	0.146
-669.076	42.214	0.117	-0.107
-668.062	115.115	-0.148	0.182
-667.047	169.653	-0.174	0.251
-666.032	182.779	-0.159	0.236
-665.018	-3.113	0.207	-0.146
-664.003	43.359	-0.113	0.104
-662.989	110.925	0.082	0.100
-661.974	-200.000	-0.032	-0.204
-660.959	-200.000	0.078	-0.372
-659.945	264.082	-0.153	-0.268
-658.930	-70.979	0.238	0.090
-657.916	-66.409	0.164	0.066
-656.901	-134.635	-0.208	-0.025
-655.886	210.089	-0.070	-0.110
-654.872	126.134	-0.006	-0.007
-653.857	-73.211	-0.243	0.090
-652.843	-7.598	0.307	0.209
-651.828	-60.562	-0.134	0.057
-650.814	-73.661	-0.271	-0.099
-649.799	-57.454	-0.247	0.109
-648.784	-37.394	-0.332	-0.178
-647.770	124.592	0.023	-0.029
-646.755	-20.810	0.106	-0.066
-645.741	-76.779	-0.322	-0.114
-644.726	104.151	0.129	-0.153
-643.711	-200.000	-0.327	-0.000
-642.697	-200.000	0.013	-0.155
-641.682	-79.911	0.206	0.070
-640.668	-86.723	0.268	0.083
-639.653	30.167	0.050	0.043
-638.638	38.390	-0.274	-0.246
-637.624	-200.000	0.025	-0.161
-636.609	111.612	-0.200	0.243
-635.595	-200.000	0.032	0.265
-634.580	-87.458	-0.132	-0.040
-633.565	1.888	-0.075	0.054
-632.551	-64.886	-0.141	0.057
-631.536	800.000	-0.055	-0.193
-630.522	-48.542	0.214	-0.104
-629.507	-105.359	-0.277	0.063
-628.492	-126.034	0.284	-0.043
-627.478	800.000	0.009	0.032
-626.463	-200.000	-0.020	0.142
-625.449	-152.929	-0.238	0.017
-624.434	-200.000	-0.022	-0.154
-623.419	14.787	0.136	0.107
-622.405	-136.591	-0.222	-0.026
-621.390	-200.000	-0.028	0.194
-620.376	-140.083	-0.150	0.016
-619.361	-200.000	0.017	-0.226
-618.346	90.052	-0.023	-0.026
-617.332	244.093	-0.104	-0.175
-616.317	-71.206	-0.277	0.105
-615.303	648.179	-0.044	-0.114
-614.288	-15.308	0.320	-0.206
-613.273	-184.932	0.112	-0.002
-612.259	416.194	-0.100	0.214
-611.244	-200.000	0.113	-0.535
-610.230	-29.418	-0.090	0.052
-609.215	86.862	0.200	0.222
-608.201	121.457	0.069	0.087
-607.186	521.800	0.064	-0.152
-606.171	-96.297	-0.157	0.042
-605.157	-3.663	-0.209	0.146
-604.142	-200.000	-0.060	-0.335
-603.128	150.967	-0.211	0.288
-602.113	233.791	0.200	-0.330
-601.098	-200.000	-0.041	-0.517
-600.084	-29.752	0.407	-0.233
-599.069	37.214	0.041	0.037
-598.055	-200.000	0.009	0.177
-597.040	56.421	0.042	-0.041
-596.025	151.933	0.096	-0.131
-595.011	-93.980	-0.062	0.017
-593.996	76.144	0.084	-0.089
-592.982	-182.489	-0.409	-0.008
-591.967	-107.008	-0.073	0.016
-590.952	239.900	-0.206	0.344
-589.938	51.536	-0.139	0.133
-588.923	133.303	0.179	-0.232
-587.909	-32.104	-0.320	0.180
-586.894	139.647	-0.050	-0.066
-585.879	-27.462	0.398	0.232
-584.865	-94.926	0.265	0.072
-583.850	-62.502	-0.105	-0.044
-582.836	205.275	-0.072	0.112
-581.821	-76.231	-0.267	-0.095
-580.806	-200.000	0.093	-0.486
-579.792	-123.967	0.110	-0.017
-578.777	136.125	0.123	0.161
-577.763	800.000	0.025	0.074
-576.748	16.264	0.347	-0.274
-575.733	-70.226	-0.191	-0.073
-574.719	800.000	0.125	-0.380
-573.704	36.531	0.087	-0.077
-572.690	-40.141	-0.181	0.095
-571.675	-54.828	0.117	-0.053
-570.661	-5.102	0.290	-0.200
-569.646	-11.481	-0.076	0.050
-568.631	-200.000	0.039	0.261
-567.617	800.000	0.036	0.136
-566.602	-45.121	-0.058	0.029
-565.588	-58.299	-0.158	-0.069
-564.573	-30.435	0.205	-0.117
-563.558	-30.724	-0.068	-0.038
-562.544	219.304	-0.174	0.279
-561.529	-102.924	0.319	-0.076
-560.515	-28.863	-0.387	-0.223
-559.500	800.000	-0.102	-0.404
-558.485	7.874	0.183	-0.138
-557.471	401.062	-0.114	-0.240
-556.456	-133.701	-0.113	-0.014
-555.442	-1.319	0.145	0.102
-554.427	-45.838	0.113	0.056
-553.412	-101.402	0.326	-0.080
-552.398	32.073	0.214	0.185
-551.383	115.514	0.132	-0.162
-550.369	-200.000	-0.010	-0.291
-549.354	800.000	0.074	-0.261
-548.339	403.312	0.110	0.232
-547.325	-35.876	-0.057	-0.031
-546.310	7.355	0.039	-0.029
-545.296	-158.632	0.165	0.009
-544.281	-118.237	-0.365	-0.065
-543.266	-200.000	-0.011	-0.064
-542.252	273.861	0.047	0.082
-541.237	-200.000	-0.044	-0.419
-540.223	-200.000	-0.043	0.244
-539.208	262.405	-0.046	-0.080
-538.193	-200.000	-0.027	0.162
-537.179	-20.963	0.354	-0.217
-536.164	13.070	0.162	0.126
-535.150	481.600	-0.141	-0.321
-534.135	800.000	-0.089	-0.298
-533.121	139.506	0.085	0.112
-532.106	169.397	0.129	0.185
-531.091	-200.000	-0.005	-0.242
-530.077	559.872	-0.086	-0.208
-529.062	-86.415	-0.263	0.081
-528.048	-200.000	-0.038	0.312
-527.033	542.110	0.107	0.255
-526.018	-6.280	-0.196	0.134
-525.004	-122.592	0.189	0.031
-523.989	-200.000	-0.015	-0.079
-522.975	-200.000	-0.008	0.076
-521.960	-200.000	0.001	-0.023
-520.945	-151.503	-0.176	0.013
-519.931	800.000	-0.089	-0.264
-518.916	-129.743	-0.135	0.019
-517.902	-200.000	-0.190	0.000
-516.887	178.401	-0.152	-0.222
-515.872	-23.609	0.044	-0.027
-514.858	-45.442	0.139	0.069
-513.843	-200.000	-0.032	0.212
-512.829	-56.472	-0.328	0.146
-511.814	204.999	0.094	-0.147
-510.799	-49.730	-0.022	0.011
-509.785	-16.812	-0.078	-0.049
-508.770	7.571	-0.271	-0.203
-507.756	-11.331	-0.196	-0.129
-506.741	-17.394	0.082	-0.052
-505.726	-54.561	0.064	-0.029
-504.712	-61.459	-0.130	-0.055
-503.697	250.739	0.067	-0.114
-502.683	-200.000	0.095	0.506
-501.668	82.342	-0.116	0.126
-500.653	62.880	-0.266	-0.266
-499.639	-7.879	0.097	-0.066
-498.624	-77.740	0.367	0.127
-497.610	-200.000	-0.287	-0.001
-496.595	-200.000	-0.043	0.203
-495.581	-8.445	-0.187	0.126
-494.566	-200.000	0.028	-0.407
-493.551	274.311	0.141	-0.249
-492.537	-28.561	0.227	-0.131
-491.522	41.343	0.038	0.035
-490.508	800.000	0.133	0.435
-489.493	-200.000	-0.001	-0.156
-488.478	171.047	0.064	0.091
-487.464	-200.000	0.001	-0.049
-486.449	-58.930	-0.262	0.113
-485.435	-200.000	-0.021	0.280
-484.420	420.803	-0.222	0.476
-483.405	-200.000	0.027	0.201
-482.391	-200.000	0.031	0.160
-481.376	-200.000	0.018	-0.129
-480.362	-3.453	-0.271	-0.188
-479.347	40.403	-0.129	-0.116
-478.332	87.543	0.042	-0.047
-477.318	115.461	0.123	0.150
-476.303	800.000	-0.088	-0.366
-475.289	-44.367	-0.353	-0.176
-474.274	59.151	0.093	0.092
-473.259	263.220	-0.182	0.316
-472.245	381.654	0.063	0.130
-471.230	-136.732	0.171	0.020
-470.216	-24.398	-0.279	0.166
-469.201	388.887	0.150	-0.311
-468.186	800.000	-0.113	0.370
-467.172	88.819	-0.333	0.370
-466.157	513.857	-0.054	0.127
-465.143	-122.275	0.271	-0.044
-464.128	24.997	0.246	-0.204
-463.113	-200.000	-0.060	0.308
-462.099	-44.912	0.318	-0.158
-461.084	-149.192	0.076	-0.006
-460.070	-23.465	-0.259	0.155
-459.055	-33.513	0.207	0.114
-458.040	-200.000	0.027	-0.290
-457.026	6.314	0.064	-0.047
-456.011	-200.000	-0.013	0.067
-454.997	-90.277	-0.183	-0.053
-453.982	29.034	-0.050	0.042
-452.968	-200.000	0.007	0.216
-451.953	-200.000	0.030	0.227
-450.938	217.130	0.170	-0.270
-449.924	-200.000	0.014	-0.137
-448.909	16.393	0.129	-0.102
-447.895	-200.000	-0.053	-0.381
-446.880	129.710	-0.076	-0.096
-445.865	-134.327	0.336	0.041
-444.851	-5.641	0.117	-0.080
-443.836	432.594	-0.097	-0.211
-442.822	-66.371	-0.120	0.048
-441.807	-200.000	0.028	0.223
-440.792	509.856	0.242	0.562
-439.778	39.871	-0.093	-0.083
-438.763	63.063	0.147	0.146
-437.749	-200.000	-0.059	-0.373
-436.734	-120.044	-0.278	0.048
-435.719	132.592	0.166	-0.214
-434.705	-131.978	-0.209	-0.027
-433.690	230.144	-0.073	0.119
-432.676	-95.554	0.018	0.005
-431.661	-32.684	-0.181	-0.100
-430.646	-39.841	0.294	-0.153
-429.632	-115.217	0.216	-0.041
-428.617	522.387	0.093	-0.219
-427.603	7.014	-0.108	0.080
-426.588	-11.323	-0.169	0.111
-425.573	800.000	-0.023	-0.093
-424.559	-200.000	0.066	-0.528
-423.544	-86.363	-0.179	-0.055
-422.530	-1.398	0.293	0.206
-421.515	-200.000	-0.035	-0.329
-420.500	162.105	-0.180	0.251
-419.486	800.000	-0.104	0.342
-418.471	800.000	0.054	-0.233
-417.457	241.712	0.068	-0.112
-416.442	45.283	0.200	-0.184
-415.428	18.451	0.373	0.297
-414.413	800.000	0.031	-0.101
-413.398	2.281	0.331	0.239
-412.384	-200.000	-0.014	0.208
-411.369	41.090	0.100	0.090
-410.355	-64.420	0.236	0.096
-409.340	-45.554	-0.356	0.176
-408.325	-102.424	-0.492	-0.118
-407.311	-200.000	-0.005	0.039
-406.296	-9.259	0.186	-0.124
-405.282	205.053	-0.220	-0.340
-404.267	37.256	-0.377	0.332
-403.252	-66.226	0.316	-0.126
-402.238	79.253	0.092	0.099
-401.223	-163.313	-0.209	0.010
-400.209	800.000	0.051	0.204
-399.194	208.697	-0.065	0.102
-398.179	37.947	0.140	0.124
-397.165	784.550	0.109	0.298
-396.150	-37.416	0.234	-0.124
-395.136	-200.000	-0.054	-0.298
-394.121	-14.690	-0.187	0.119
-393.106	800.000	0.032	0.105
-392.092	-200.000	0.002	-0.406
-391.077	-11.903	-0.242	0.158
-390.063	800.000	-0.053	-0.185
-389.048	-200.000	0.058	0.268
-388.033	-159.960	0.272	0.015
-387.019	90.431	0.138	0.154
-386.004	-153.539	-0.230	0.016
-384.990	-153.197	0.400	0.028
-383.975	9.052	-0.165	0.124
-382.960	-200.000	0.006	0.076
-381.946	800.000	0.046	-0.171
-380.931	-200.000	0.018	-0.149
-379.917	-34.546	0.212	-0.116
-378.902	-200.000	0.040	0.216
-377.888	-162.444	0.231	-0.011
-376.873	800.000	-0.061	0.229
-375.858	-200.000	-0.036	-0.297
-374.844	254.813	0.085	0.145
-373.829	800.000	-0.016	0.057
-372.815	370.710	0.161	0.326
-371.800	800.000	-0.090	0.321
-370.785	-92.248	-0.190	-0.053
-369.771	-200.000	0.085	-0.372
-368.756	-26.935	-0.152	0.088
-367.742	-71.582	0.211	-0.078
-366.727	318.927	0.026	-0.049
-365.712	-200.000	-0.004	0.155
-364.698	-200.000	-0.004	0.159
-363.683	-45.412	0.043	-0.021
-362.669	800.000	0.084	-0.326
-361.654	40.138	0.108	0.096
-360.639	-116.092	-0.167	-0.031
-359.625	-126.777	0.333	0.049
-358.610	377.391	-0.124	-0.251
-357.596	-70.248	-0.022	-0.008
-356.581	-200.000	0.022	-0.238
-355.566	-156.370	-0.210	-0.013
-354.552	-84.017	0.170	0.054
-353.537	-19.277	-0.220	0.136
-352.523	-92.035	-0.267	0.075
-351.508	-74.456	-0.360	-0.129
-350.493	-60.735	-0.428	0.180
-349.479	-200.000	0.037	-0.287
-348.464	57.136	-0.173	0.168
-347.450	316.376	0.057	0.108
-346.435	800.000	0.020	0.061
-345.420	-37.176	-0.146	-0.078
-344.406	95.165	0.156	0.177
-343.391	-200.000	0.002	0.063
-342.377	555.757	0.130	0.310
-341.362	-28.691	0.281	0.161
-340.348	-63.437	-0.063	0.026
-339.333	-27.540	-0.415	-0.240
-338.318	712.429	-0.058	-0.153
-337.304	28.981	0.207	-0.174
-336.289	-124.468	-0.417	0.064
-335.275	-95.098	-0.093	-0.025
-334.260	-200.000	-0.008	0.448
-333.245	-104.941	-0.258	-0.059
-332.231	118.020	0.108	-0.132
-331.216	-21.895	-0.162	-0.098
-330.202	-200.000	0.046	0.233
-329.187	-73.369	-0.411	0.149
-328.172	800.000	-0.087	-0.364
-327.158	-200.000	-0.001	0.082
-326.143	329.779	-0.097	0.185
-325.129	56.750	-0.181	0.175
-324.114	764.755	-0.018	0.048
-323.099	-79.688	-0.129	-0.043
-322.085	95.708	-0.057	0.065
-321.070	-0.460	0.223	-0.157
-320.056	77.553	0.222	0.235
-319.041	-91.756	0.258	-0.073
-318.026	80.943	-0.132	-0.141
-317.012	31.852	0.108	0.093
-315.997	425.433	-0.034	-0.073
-314.983	88.704	0.054	-0.060
-313.968	54.867	0.194	0.186
-312.953	-200.000	0.035	-0.163
-311.939	28.626	-0.241	-0.202
-310.924	336.296	0.171	0.330
-309.910	0.650	-0.101	-0.072
-308.895	-200.000	0.011	0.183
-307.880	-83.510	-0.103	-0.033
-306.866	-48.921	0.139	0.066
-305.851	56.060	0.240	0.231
-304.837	-200.000	0.008	-0.346
-303.822	37.800	0.108	0.095
-302.807	-200.000	0.011	0.179
-301.793	-12.250	0.216	0.140
-300.778	118.410	-0.305	-0.374
-299.764	-200.000	-0.354	0.000
-298.749	294.186	0.034	0.061
-297.735	-51.490	-0.195	0.091
-296.720	-91.150	0.346	0.098
-295.705	-2.453	-0.076	-0.053
-294.691	-16.089	0.230	0.145
-293.676	-86.565	0.116	0.035
-292.662	-32.133	-0.305	-0.169
-291.647	-129.979	-0.306	-0.041
-290.632	-200.000	-0.005	-0.137
-289.618	800.000	0.113	0.353
-288.603	-114.245	0.423	-0.081
-287.589	-200.000	-0.002	-0.136
-286.574	630.241	-0.117	0.294
-285.559	-169.248	0.194	0.007
-284.545	96.658	0.149	0.169
-283.530	419.368	-0.126	-0.268
-282.516	-200.000	0.020	-0.655
-281.501	93.568	-0.048	-0.054
-280.486	23.825	0.108	-0.089
-279.472	-200.000	-0.009	0.189
-278.457	-200.000	-0.023	0.121
-277.443	-200.000	-0.022	-0.210
-276.428	383.494	-0.168	-0.343
-275.413	-190.952	0.072	0.001
-274.399	-200.000	-0.004	-0.124
-273.384	136.668	0.139	-0.180
-272.370	32.676	-0.141	0.121
-271.355	-102.703	0.396	-0.094
-270.340	800.000	0.063	0.205
-269.326	90.016	-0.042	-0.047
-268.311	187.692	0.189	0.280
-267.297	-97.467	0.267	-0.069
-266.282	81.107	-0.205	0.220
-265.267	5.149	-0.083	-0.060
-264.253	800.000	-0.014	-0.043
-263.238	519.223	-0.093	0.216
-262.224	-29.290	-0.156	0.088
-261.209	-129.569	0.133	-0.018
-260.195	800.000	-0.050	0.194
-259.180	-200.000	-0.102	0.481
-258.165	207.499	0.091	0.141
-257.151	485.356	0.150	-0.338
-256.136	-129.038	0.259	0.036
-255.122	62.343	0.207	0.205
-254.107	-29.211	-0.031	0.017
-253.092	1.759	-0.167	0.119
-252.078	106.460	0.140	-0.165
-251.063	-200.000	-0.051	0.438
-250.049	135.506	-0.174	0.224
-249.034	85.445	0.329	-0.358
-248.019	18.781	0.133	0.105
-247.005	-200.000	-0.046	-0.325
-245.990	53.222	0.132	-0.125
-244.976	4.703	-0.168	-0.122
-243.961	122.188	-0.110	-0.136
-242.946	421.491	-0.058	-0.122
-241.932	800.000	-0.017	-0.065
-240.917	800.000	-0.075	0.258
-239.903	150.912	0.143	0.193
-238.888	390.441	-0.072	0.149
-237.873	-40.793	0.225	-0.115
-236.859	-79.788	-0.204	-0.068
-235.844	-0.913	-0.143	-0.100
-234.830	-7.408	0.197	0.132
-233.815	-61.466	0.308	-0.128
-232.800	-0.098	0.009	0.007
-231.786	541.022	0.031	-0.074
-230.771	164.131	-0.151	-0.211
-229.757	-131.578	0.204	-0.027
-228.742	-3.490	0.099	-0.068
-227.727	-200.000	0.008	0.159
-226.713	87.440	-0.265	-0.290
-225.698	252.546	0.211	0.356
-224.684	340.413	0.107	0.207
-223.669	800.000	-0.051	0.143
-222.655	-88.668	0.073	-0.021
-221.640	-200.000	-0.007	-0.199
-220.625	362.281	-0.078	0.156
-219.611	-142.282	0.341	0.033
-218.596	-6.527	0.205	0.138
-217.582	-143.975	0.324	0.030
-216.567	254.938	0.069	-0.116
-215.552	800.000	-0.030	-0.095
-214.538	14.849	0.215	-0.166
-213.523	102.497	-0.345	0.399
-212.509	-200.000	-0.081	-0.411
-211.494	-181.657	0.124	0.002
-210.479	-100.523	0.032	-0.008
-209.465	168.521	0.193	0.272
-208.450	98.682	0.137	-0.157
-207.436	-164.095	-0.087	-0.004
-206.421	800.000	-0.075	-0.207
-205.406	-80.718	-0.213	0.070
-204.392	-200.000	-0.035	-0.219
-203.377	174.802	-0.245	0.351
-202.363	63.443	0.133	0.132
-201.348	-125.119	0.150	-0.023
-200.333	-88.829	0.165	-0.048
-199.319	-44.424	-0.241	0.119
-198.304	254.662	0.137	0.232
-197.290	-14.061	-0.124	0.079
-196.275	-16.571	0.213	0.133
-195.260	-55.935	-0.306	0.135
-194.246	-82.186	0.284	-0.091
-193.231	42.452	-0.126	-0.113
-192.217	-63.098	0.154	-0.063
-191.202	-75.320	-0.235	-0.083
-190.187	-59.832	-0.209	-0.088
-189.173	-200.000	-0.020	0.265
-188.158	800.000	-0.136	0.393
-187.144	-142.921	0.232	-0.022
-186.129	0.507	0.235	0.166
-185.114	299.055	-0.194	0.352
-184.100	800.000	-0.111	0.365
-183.085	213.633	0.051	0.080
-182.071	514.505	0.055	0.127
-181.056	413.627	-0.036	-0.076
-180.042	-35.858	-0.226	-0.121
-179.027	-200.000	0.003	0.167
-178.012	18.730	-0.210	0.166
-176.998	91.824	-0.173	-0.193
-175.983	-200.000	-0.005	-0.104
-174.969	800.000	0.075	-0.303
-173.954	-12.120	0.152	-0.098
-172.939	95.900	0.098	0.110
-171.925	-52.906	0.317	0.144
-170.910	800.000	0.065	-0.224
-169.896	-90.748	0.224	-0.064
-168.881	-55.024	0.201	0.089
-167.866	-24.034	-0.080	-0.047
-166.852	58.856	0.139	0.135
-165.837	-200.000	0.011	-0.263
-164.823	75.702	0.187	-0.195
-163.808	-13.492	0.251	0.161
-162.793	79.745	-0.212	-0.225
-161.779	-17.572	0.065	-0.041
-160.764	-91.942	-0.256	0.072
-159.750	304.910	-0.034	0.063
-158.735	155.791	0.207	-0.281
-157.720	171.792	0.150	0.213
-156.706	-120.074	-0.073	0.012
-155.691	-36.159	-0.164	-0.087
-154.677	-200.000	-0.034	0.180
-153.662	154.153	-0.169	-0.229
-152.647	-49.228	0.303	-0.143
-151.633	-48.109	-0.416	0.198
-150.618	182.709	0.189	0.274
-149.604	-75.782	-0.196	-0.069
-148.589	-81.072	-0.094	-0.031
-147.574	-200.000	-0.002	0.063
-146.560	261.513	0.140	0.239
-145.545	-200.000	0.030	-0.167
-144.531	-116.514	0.150	0.027
-143.516	209.777	0.057	0.087
-142.502	12.542	-0.129	0.098
-141.487	127.220	-0.153	0.192
-140.472	117.407	0.314	0.381
-139.458	-40.068	-0.300	0.154
-138.443	62.990	0.148	0.146
-137.429	-65.976	0.119	0.047
-136.414	-88.801	-0.206	-0.060
-135.399	-48.490	0.245	0.116
-134.385	-72.421	-0.176	-0.064
-133.370	45.767	0.349	0.318
-132.356	511.815	-0.138	-0.316
-131.341	56.071	-0.252	-0.241
-130.326	-50.178	0.159	-0.074
-129.312	-94.509	0.377	0.101
-128.297	-7.026	-0.127	-0.085
-127.283	-38.179	0.211	-0.110
-126.268	-200.000	0.000	0.348
-125.253	-89.641	-0.177	-0.051
-124.239	-135.205	0.194	-0.023
-123.224	-57.431	0.126	-0.055
-122.210	-200.000	-0.001	-0.020
-121.195	-71.911	0.298	0.109
-120.180	129.928	-0.078	0.098
-119.166	-111.024	0.159	-0.032
-118.151	-79.116	0.237	-0.079
-117.137	-200.000	0.002	0.350
-116.122	58.331	-0.106	-0.102
-115.107	-200.000	-0.005	-0.169
-114.093	70.845	-0.080	0.082
-113.078	-70.713	0.199	0.074
-112.064	437.022	0.075	0.160
-111.049	-170.323	-0.231	0.008
-110.034	-70.105	0.193	0.072
-109.020	-13.718	0.084	0.054
-108.005	-61.033	-0.163	0.068
-106.991	-50.490	0.041	-0.019
-105.976	-200.000	0.031	-0.252
-104.962	-77.552	-0.299	-0.102
-103.947	48.226	0.175	-0.161
-102.932	-29.307	0.022	0.012
-101.918	252.405	-0.120	-0.201
-100.903	-200.000	-0.007	0.053
-99.889	-200.000	0.029	-0.272
-98.874	-200.000	0.022	0.257
-97.859	-200.000	0.015	0.204
-96.845	313.428	-0.201	-0.372
-95.830	-200.000	-0.032	-0.137
-94.816	800.000	0.028	-0.099
-93.801	800.000	0.192	0.544
-92.786	800.000	0.087	-0.338
-91.772	-65.162	-0.294	-0.117
-90.757	-23.561	0.220	-0.130
-89.743	-187.450	-0.315	0.004
-88.728	-200.000	-0.060	-0.380
-87.713	-200.000	0.026	-0.116
-86.699	-35.374	-0.217	-0.116
-85.684	-58.834	0.090	0.038
-84.670	-117.676	0.297	0.053
-83.655	190.790	0.099	-0.146
-82.640	-116.786	0.251	0.045
-81.626	-200.000	0.054	0.304
-80.611	-71.608	-0.190	0.070
-79.597	-200.000	-0.076	-0.385
-78.582	3.552	-0.259	-0.186
-77.567	-200.000	0.000	-0.305
-76.553	217.442	-0.099	-0.156
-75.538	646.880	-0.141	-0.354
-74.524	-144.554	-0.174	-0.016
-73.509	-161.028	-0.313	-0.016
-72.494	-21.734	0.350	-0.210
-71.480	51.488	-0.052	0.049
-70.465	13.883	-0.177	0.135
-69.451	98.408	0.195	-0.221
-68.436	229.593	-0.111	0.177
-67.422	72.522	-0.192	-0.196
-66.407	93.512	-0.136	-0.151
-65.392	-52.004	-0.341	-0.156
-64.378	-136.476	0.309	-0.035
-63.363	-71.618	-0.417	0.153
-62.349	-66.571	-0.098	-0.038
-61.334	91.959	-0.912	-1.010
-60.319	28.190	1.034	0.858
-59.305	437.427	-0.645	-1.382
-58.290	110.041	0.838	0.988
-57.276	481.410	0.563	1.256
-56.261	-200.000	116.597	646.732
-55.246	497.001	1541.265	3484.728
-54.232	171.801	2721.511	3842.125
-53.217	95.502	2331.235	2612.693
-52.203	32.923	2074.943	1765.917
-51.188	28.349	1989.628	1652.100
-50.173	26.869	1973.916	1625.740
-49.159	44.315	2033.525	1834.122
-48.144	43.169	2048.630	1837.240
-47.130	28.706	2007.497	1669.922
-46.115	26.547	1996.792	1641.397
-45.100	26.456	1994.040	1638.250
-44.086	26.404	1991.910	1635.960
-43.071	26.338	1989.331	1633.179
-42.057	26.356	1986.904	1631.286
-41.042	26.371	1984.998	1629.790
-40.027	26.426	1982.892	1628.498
-39.013	26.421	1980.893	1626.745
-37.998	26.469	1979.443	1625.923
-36.984	26.465	1977.512	1624.232
-35.969	26.439	1975.861	1622.580
-34.954	26.460	1973.994	1621.167
-33.940	26.472	1972.492	1619.975
-32.925	26.503	1971.041	1619.003
-31.911	26.536	1969.100	1617.633
-30.896	26.450	1967.436	1615.437
-29.881	26.524	1966.217	1615.033
-28.867	26.549	1964.455	1613.746
-27.852	26.492	1962.936	1611.922
-26.838	26.469	1961.117	1610.162
-25.823	26.510	1958.934	1608.666
-24.809	26.561	1956.909	1607.400
-23.794	26.524	1955.384	1605.752
-22.779	26.512	1953.514	1604.046
-21.765	26.523	1952.038	1602.867
-20.750	26.542	1950.375	1601.608
-19.736	26.514	1948.961	1600.132
-18.721	26.504	1947.330	1598.645
-17.706	26.497	1945.645	1597.135
-16.692	26.509	1943.819	1595.675
-15.677	26.549	1942.670	1595.022
-14.663	26.593	1940.989	1593.969
-13.648	26.503	1939.822	1592.159
-12.633	26.552	1938.401	1591.354
-11.619	26.596	1936.862	1590.419
-10.604	26.488	1935.762	1588.500
-9.590	26.472	1934.696	1587.424
-8.575	26.466	1933.335	1586.189
-7.560	26.490	1931.765	1585.053
-6.546	26.517	1930.532	1584.215
-5.531	26.571	1929.018	1583.379
-4.517	26.582	1927.693	1582.325
-3.502	26.506	1927.169	1581.165
-2.487	26.532	1925.282	1579.788
-1.473	26.548	1924.409	1579.147
-0.458	26.511	1919.485	1574.721
0.556	27.232	1899.687	1547.492
1.571	23.134	1881.534	1497.947
2.586	19.280	1905.723	1483.958
3.600	18.391	1940.622	1503.202
4.615	17.951	1933.707	1493.862
5.629	13.515	1832.685	1378.836
6.644	6.522	1719.047	1238.442
7.659	3.401	1686.506	1190.809
8.673	3.160	1683.740	1186.893
9.688	3.213	1682.257	1186.154
10.702	3.211	1680.819	1185.018
11.717	3.225	1677.812	1182.904
12.731	3.621	1676.277	1184.749
13.746	8.419	1687.778	1229.778
14.761	16.089	1704.548	1301.304
15.775	19.854	1711.699	1335.775
16.790	20.183	1710.235	1337.045
17.804	19.299	1707.617	1328.074
18.819	18.421	1704.183	1318.534
19.834	17.779	1701.805	1311.637
20.848	17.483	1701.088	1308.696
21.863	17.420	1699.059	1306.537
22.877	17.180	1697.898	1303.687
23.892	16.952	1696.406	1300.680
24.907	16.862	1695.733	1299.353
25.921	16.912	1694.051	1298.338
26.936	16.845	1693.788	1297.504
27.950	16.893	1692.799	1297.001
28.965	16.967	1691.854	1296.724
29.980	16.904	1691.606	1295.941
30.994	17.051	1689.886	1295.630
32.009	17.165	1689.105	1295.788
33.023	17.199	1688.059	1295.131
34.038	17.199	1687.456	1294.554
35.053	17.167	1686.022	1293.094
36.067	17.137	1684.739	1291.770
37.082	17.028	1683.597	1289.952
38.096	17.069	1682.817	1289.546
39.111	17.109	1681.933	1289.063
40.126	17.132	1681.280	1288.620
41.140	17.107	1680.080	1287.397
42.155	16.929	1678.369	1284.625
43.169	16.756	1676.882	1282.065
44.184	16.684	1675.476	1280.333
45.199	16.718	1673.944	1279.306
46.213	16.650	1673.719	1278.506
47.228	16.707	1672.756	1278.085
48.242	16.874	1671.142	1277.997
49.257	17.044	1670.138	1278.400
50.271	17.011	1668.836	1277.040
51.286	16.947	1667.815	1275.667
52.301	17.006	1666.485	1274.976
53.315	16.974	1664.825	1273.354
54.330	16.890	1663.858	1271.871
55.344	16.817	1662.240	1269.973
56.359	16.721	1660.350	1267.700
57.374	16.814	1659.046	1267.292
58.388	16.830	1658.303	1266.732
59.403	16.697	1656.575	1264.302
60.417	16.666	1655.638	1263.247
61.432	16.621	1654.477	1261.913
62.447	16.723	1652.832	1261.307
63.461	16.632	1651.470	1259.477
64.476	16.599	1650.522	1258.398
65.490	16.470	1649.638	1256.651
66.505	16.523	1647.929	1255.635
67.520	16.535	1647.261	1255.101
68.534	16.589	1646.317	1254.670
69.549	16.583	1644.942	1253.472
70.563	16.669	1643.906	1253.205
71.578	16.568	1642.545	1251.310
72.593	16.490	1641.529	1249.849
73.607	16.471	1640.624	1248.910
74.622	16.407	1639.000	1247.092
75.636	16.463	1638.443	1246.967
76.651	16.460	1637.797	1246.346
77.666	16.472	1636.823	1245.580
78.680	16.439	1636.472	1244.963
79.695	16.488	1635.120	1244.183
80.709	16.573	1634.513	1244.238
81.724	16.655	1633.757	1244.150
82.739	16.756	1632.837	1244.084
83.753	16.803	1632.105	1243.759
84.768	16.898	1631.269	1243.713
85.782	17.001	1630.217	1243.551
86.797	17.165	1629.518	1244.113
87.812	17.146	1628.773	1243.295
88.826	16.998	1627.248	1240.940
89.841	17.004	1626.318	1240.161
90.855	16.967	1625.347	1239.044
91.870	17.000	1624.436	1238.478
92.884	17.069	1623.503	1238.163
93.899	17.108	1622.123	1237.282
94.914	17.093	1621.341	1236.468
95.928	17.074	1620.198	1235.347
96.943	17.163	1618.532	1234.619
97.957	17.167	1617.205	1233.526
98.972	16.998	1615.930	1231.216
99.987	17.125	1613.953	1230.519
101.001	17.125	1612.056	1228.968
102.016	17.112	1610.691	1227.722
103.030	17.002	1609.887	1226.204
104.045	17.075	1608.779	1225.783
105.060	17.078	1607.164	1224.468
106.074	16.965	1605.764	1222.474
107.089	16.903	1604.123	1220.671
108.103	16.732	1602.098	1217.795
109.118	16.632	1600.621	1215.841
110.133	16.604	1599.155	1214.421
111.147	16.648	1597.829	1213.622
112.162	16.626	1596.487	1212.339
113.176	16.642	1595.136	1211.323
114.191	16.649	1593.993	1210.393
115.206	16.753	1592.886	1210.193
116.220	16.802	1591.353	1209.266
117.235	16.695	1590.573	1207.802
118.249	16.722	1588.606	1206.394
119.264	16.689	1587.382	1205.125
120.279	16.671	1585.907	1203.771
121.293	16.606	1584.187	1201.899
122.308	16.549	1583.152	1200.604
123.322	16.510	1581.257	1198.781
124.337	16.461	1579.594	1197.071
125.352	16.371	1578.670	1195.623
126.366	16.427	1577.644	1195.136
127.381	16.433	1576.410	1194.137
128.395	16.452	1575.447	1193.436
129.410	16.513	1573.467	1192.265
130.424	16.455	1572.215	1190.803
131.439	16.599	1570.953	1190.752
132.454	16.639	1569.993	1190.203
133.468	16.690	1569.120	1189.792
134.483	16.616	1567.695	1188.087
135.497	16.815	1565.540	1187.742
136.512	16.774	1564.367	1186.459
137.527	16.774	1563.497	1185.694
138.541	16.799	1562.236	1184.808
139.556	16.751	1560.978	1183.415
140.570	16.831	1559.571	1182.802
141.585	16.852	1558.245	1181.843
142.600	16.946	1556.960	1181.413
143.614	17.096	1555.886	1181.538
144.629	17.103	1555.278	1181.020
145.643	17.215	1553.383	1180.260
146.658	17.115	1552.486	1178.779
147.673	17.112	1550.583	1177.204
148.687	16.982	1548.709	1174.783
149.702	16.913	1547.507	1173.285
150.716	16.940	1545.742	1172.033
151.731	16.913	1544.311	1170.656
152.746	16.898	1543.320	1169.701
153.760	16.734	1542.057	1167.509
154.775	16.792	1541.113	1167.089
155.789	16.928	1539.544	1166.733
156.804	16.981	1538.800	1166.427
157.819	16.984	1537.755	1165.558
158.833	17.023	1536.539	1164.796
159.848	17.087	1535.291	1164.189
160.862	17.227	1533.943	1164.021
161.877	17.316	1532.347	1163.316
162.892	17.190	1531.812	1161.944
163.906	16.925	1529.797	1158.503
164.921	16.874	1528.220	1156.863
165.935	16.848	1527.857	1156.308
166.950	16.944	1526.701	1155.983
167.964	17.018	1525.080	1155.159
168.979	17.018	1524.718	1154.782
169.994	17.030	1523.314	1153.693
171.008	17.002	1522.400	1152.714
172.023	17.073	1520.508	1151.657
173.037	17.059	1519.944	1151.033
174.052	17.167	1519.217	1151.114
175.067	17.225	1518.357	1150.755
176.081	17.179	1516.041	1148.587
177.096	17.049	1514.593	1146.511
178.110	16.899	1513.757	1144.763
179.125	16.874	1513.125	1144.015
180.140	17.074	1511.682	1144.171
181.154	17.133	1510.947	1143.908
182.169	17.158	1509.954	1143.228
183.183	17.182	1508.559	1142.231
184.198	17.242	1507.618	1141.818
185.213	17.316	1506.518	1141.380
186.227	17.438	1505.295	1141.169
187.242	17.326	1505.495	1140.471
188.256	17.383	1503.629	1139.338
189.271	17.413	1502.730	1138.760
190.286	17.377	1501.780	1137.699
191.300	17.442	1500.660	1137.180
192.315	17.128	1498.941	1133.685
193.329	16.895	1497.540	1130.967
194.344	16.873	1496.449	1129.899
195.359	16.927	1495.686	1129.579
196.373	17.118	1494.468	1129.835
197.388	17.209	1493.199	1129.378
198.402	17.242	1492.819	1129.209
199.417	17.323	1491.999	1129.025
200.432	17.518	1490.445	1129.043
201.446	17.589	1490.517	1129.470
202.461	17.739	1488.870	1129.118
203.475	17.828	1487.681	1128.701
204.490	17.776	1487.104	1127.821
205.504	17.685	1485.688	1126.048
206.519	17.600	1484.767	1124.688
207.534	17.598	1483.134	1123.339
208.548	17.379	1482.311	1121.171
209.563	17.475	1481.032	1120.740
210.577	17.456	1480.889	1120.407
211.592	17.549	1479.555	1119.909
212.607	17.549	1479.001	1119.393
213.621	17.705	1478.066	1119.607
214.636	17.721	1477.214	1118.966
215.650	17.685	1476.394	1118.010
216.665	17.635	1475.541	1116.942
217.680	17.676	1474.813	1116.560
218.694	17.736	1474.618	1116.706
219.709	17.835	1473.307	1116.259
220.723	17.826	1472.188	1115.256
221.738	17.868	1471.128	1114.629
222.753	17.879	1470.103	1113.824
223.767	17.854	1469.049	1112.765
224.782	17.828	1468.607	1112.161
225.796	17.893	1467.407	1111.578
226.811	17.947	1466.988	1111.514
227.826	17.974	1465.965	1110.814
228.840	17.926	1465.393	1109.972
229.855	17.782	1464.104	1107.964
230.869	17.824	1462.765	1107.126
231.884	17.718	1462.301	1105.988
232.899	17.800	1460.784	1105.272
233.913	17.731	1459.365	1103.656
234.928	17.661	1458.168	1102.200
235.942	17.547	1457.241	1100.661
236.957	17.715	1455.328	1100.207
237.972	17.732	1454.248	1099.402
238.986	17.594	1453.398	1097.773
240.001	17.733	1452.218	1097.679
241.015	17.665	1451.420	1096.544
242.030	17.786	1450.065	1096.196
243.045	17.755	1449.172	1095.226
244.059	17.814	1448.456	1094.966
245.074	17.857	1447.514	1094.432
246.088	17.933	1446.822	1094.301
247.103	17.973	1446.272	1094.048
248.117	17.990	1445.355	1093.366
249.132	18.058	1444.524	1093.072
250.147	18.198	1443.887	1093.388
251.161	18.371	1443.665	1094.227
252.176	18.412	1443.113	1093.975
253.190	18.570	1442.265	1094.244
254.205	18.597	1441.716	1093.904
255.220	18.552	1440.577	1092.657
256.234	18.607	1440.327	1092.720
257.249	18.627	1439.359	1092.014
258.263	18.587	1438.309	1090.870
259.278	18.545	1437.092	1089.582
260.293	18.601	1436.369	1089.293
261.307	18.591	1435.499	1088.476
262.322	18.591	1435.170	1088.130
263.336	18.744	1434.173	1088.245
264.351	18.710	1433.143	1087.150
265.366	18.720	1431.970	1086.228
266.380	18.766	1431.162	1085.811
267.395	18.761	1430.274	1085.012
268.409	18.752	1429.351	1084.155
269.424	18.633	1428.492	1082.656
270.439	18.669	1427.268	1081.862
271.453	18.648	1426.025	1080.690
272.468	18.538	1425.531	1079.527
273.482	18.612	1424.229	1078.910
274.497	18.480	1423.826	1077.684
275.512	18.394	1423.147	1076.536
276.526	18.549	1421.565	1076.214
277.541	18.658	1420.305	1075.849
278.555	18.614	1419.549	1074.903
279.570	18.585	1418.470	1073.813
280.585	18.647	1418.068	1073.797
281.599	18.807	1417.380	1074.184
282.614	18.839	1416.379	1073.527
283.628	18.764	1415.244	1072.108
284.643	18.638	1414.174	1070.418
285.657	18.703	1412.524	1069.478
286.672	18.714	1412.075	1069.114
287.687	18.763	1410.692	1068.271
288.701	18.627	1410.466	1067.162
289.716	18.700	1409.341	1066.672
290.730	18.796	1408.076	1066.216
291.745	18.716	1407.659	1065.311
292.760	18.880	1406.479	1065.336
293.774	18.770	1405.795	1064.041
294.789	18.848	1404.575	1063.506
295.803	19.007	1404.104	1064.041
296.818	19.057	1403.080	1063.480
297.833	18.876	1401.966	1061.422
298.847	18.764	1401.115	1059.993
299.862	18.841	1399.969	1059.509
300.876	18.864	1399.390	1059.121
301.891	18.849	1398.320	1058.122
302.906	18.870	1397.662	1057.658
303.920	19.023	1396.999	1058.004
304.935	19.114	1396.169	1057.845
305.949	19.149	1395.359	1057.349
306.964	19.322	1394.372	1057.569
307.979	19.375	1393.414	1057.076
308.993	19.329	1392.520	1056.025
310.008	19.223	1391.485	1054.498
311.022	19.172	1390.597	1053.418
312.037	19.248	1389.768	1053.159
313.052	19.335	1389.085	1053.084
314.066	19.076	1388.582	1051.022
315.081	19.104	1386.663	1049.649
316.095	18.972	1385.655	1047.990
317.110	18.909	1384.886	1046.932
318.125	18.978	1383.711	1046.368
319.139	18.996	1382.077	1045.153
320.154	18.955	1381.681	1044.513
321.168	19.088	1380.098	1044.029
322.183	18.956	1379.342	1042.567
323.197	18.949	1378.686	1041.933
324.212	19.034	1377.826	1041.704
325.227	19.080	1377.173	1041.398
326.241	18.982	1376.419	1040.144
327.256	19.139	1375.381	1040.213
328.270	19.181	1373.864	1039.231
329.285	19.132	1373.364	1038.462
330.300	19.087	1372.277	1037.276
331.314	19.090	1371.647	1036.728
332.329	19.076	1370.485	1035.674
333.343	19.095	1369.520	1034.971
334.358	19.167	1368.806	1034.772
335.373	19.192	1368.524	1034.614
336.387	19.291	1367.744	1034.527
337.402	19.281	1367.264	1034.015
338.416	19.228	1366.087	1032.715
339.431	19.348	1365.539	1032.927
340.446	19.330	1365.099	1032.397
341.460	19.415	1364.240	1032.165
342.475	19.514	1363.020	1031.738
343.489	19.686	1361.962	1031.876
344.504	19.765	1360.967	1031.501
345.519	19.664	1360.409	1030.387
346.533	19.763	1359.863	1030.470
347.548	19.901	1358.330	1030.038
348.562	19.817	1357.740	1029.003
349.577	19.897	1357.209	1028.983
350.592	19.763	1356.352	1027.448
351.606	19.648	1354.834	1025.524
352.621	19.520	1353.695	1023.811
353.635	19.542	1352.529	1022.971
354.650	19.394	1351.679	1021.357
355.665	19.432	1350.870	1020.880
356.679	19.495	1349.844	1020.392
357.694	19.508	1348.459	1019.328
358.708	19.509	1347.709	1018.678
359.723	19.744	1346.269	1018.883
360.738	19.655	1345.564	1017.737
361.752	19.660	1344.487	1016.860
362.767	19.677	1343.297	1015.973
363.781	19.572	1342.555	1014.703
364.796	19.654	1342.306	1014.906
365.810	19.842	1341.237	1015.112
366.825	19.928	1340.381	1014.876
367.840	19.956	1339.927	1014.607
368.854	20.104	1339.169	1014.811
369.869	20.177	1339.000	1015.021
370.883	20.086	1338.378	1013.928
371.898	20.036	1337.355	1012.768
372.913	20.093	1336.064	1012.037
373.927	19.923	1335.652	1010.644
374.942	20.006	1334.336	1010.039
375.956	20.178	1333.886	1010.612
376.971	20.091	1333.532	1009.748
377.986	20.097	1332.120	1008.628
379.000	20.095	1331.643	1008.165
380.015	20.192	1330.536	1007.801
381.029	20.215	1329.945	1007.396
382.044	20.357	1329.711	1007.955
383.059	20.351	1328.627	1007.011
384.073	20.343	1328.200	1006.547
385.088	20.120	1327.844	1004.900
386.102	20.263	1327.104	1005.076
387.117	20.306	1326.170	1004.532
388.132	20.280	1325.221	1003.572
389.146	20.167	1324.041	1001.938
390.161	20.160	1323.243	1001.203
391.175	20.180	1322.235	1000.465
392.190	20.070	1321.758	999.386
393.205	20.111	1320.855	998.852
394.219	20.281	1319.780	998.926
395.234	20.317	1318.740	998.256
396.248	20.271	1317.321	996.829
397.263	20.107	1316.193	994.948
398.278	20.174	1314.618	994.054
399.292	20.191	1313.024	992.859
400.307	20.150	1312.136	991.865
401.321	20.066	1311.123	990.533
402.336	20.052	1309.964	989.488
403.350	20.057	1309.181	988.836
404.365	20.015	1308.458	987.964
405.380	19.995	1307.698	987.188
406.394	20.220	1306.387	987.390
407.409	20.332	1305.767	987.471
408.423	20.315	1305.423	987.031
409.438	20.374	1304.923	986.899
410.453	20.528	1303.971	986.965
411.467	20.540	1303.186	986.354
412.482	20.511	1302.999	985.960
413.496	20.569	1302.244	985.629
414.511	20.716	1301.330	985.681
415.526	20.741	1300.664	985.233
416.540	20.690	1300.128	984.449
417.555	20.789	1299.342	984.330
418.569	20.875	1298.843	984.350
419.584	20.879	1298.259	983.844
420.599	20.849	1297.480	982.998
421.613	145.454	1435.067	1796.716
422.628	140.671	1455.079	1796.821
