DTS Sentinel unit serial number:	SN413079Multiplexer serial number:	ORYXHardware model number:	OX4-SRSoftware version number:	ORYX F/W v4.00 Oryx Data Collector v3.7.2.0data status	okinstallation	princeton_trtdifferential loss correction	single-endedforward channel	channel 4reverse channel	N/Adate	2019/09/15time	23:25:35forward acquisition time	60.00reverse acquisition time	0.00gamma	496.2192k internal	0.2322k external	0.2322temperature offset calibration	0.9960default loss term (dB/km)	0.3790temperature slope calibration	1.0000multiplexer offset coefficient	1.0000multiplexer slope coefficient	1.0000fibre end	0.00T internal ref (°C)	28.25T ext. ref 1 (°C)	9.15T ext. ref 2 (°C)	22.10length (m)	temperature (°C)	Stokes	anti-Stokes-747.200	3.830	0.012	-0.009
-746.185	-200.000	0.091	0.528
-745.171	-200.000	0.092	0.428
-744.156	103.089	-0.131	0.156
-743.142	-200.000	0.053	-0.328
-742.127	-200.000	-0.046	0.518
-741.112	7.456	0.148	0.112
-740.098	266.161	-0.305	0.538
-739.083	24.958	0.050	0.042
-738.069	-38.679	0.160	0.085
-737.054	-164.946	-0.495	-0.022
-736.039	-174.669	-0.267	0.008
-735.025	-108.162	-0.226	0.049
-734.010	22.261	-0.104	-0.086
-732.996	-200.000	-0.009	0.153
-731.981	581.268	-0.042	-0.105
-730.966	88.303	0.120	-0.135
-729.952	-31.068	0.248	0.142
-728.937	-29.568	0.108	-0.062
-727.923	-89.250	-0.483	-0.144
-726.908	-31.347	0.405	0.230
-725.894	600.897	0.138	0.346
-724.879	46.522	-0.125	0.117
-723.864	-68.569	-0.016	-0.006
-722.850	47.252	-0.088	0.082
-721.835	800.000	-0.045	-0.139
-720.821	-200.000	0.016	-0.209
-719.806	-194.166	-0.315	0.003
-718.791	158.503	0.035	0.048
-717.777	-85.417	0.171	0.054
-716.762	-200.000	0.114	0.000
-715.748	-200.000	-0.039	-0.408
-714.733	245.163	0.045	0.076
-713.718	800.000	0.012	-0.038
-712.704	666.251	0.022	-0.058
-711.689	71.947	0.095	0.100
-710.675	-83.882	-0.230	-0.074
-709.660	-200.000	-0.025	0.200
-708.645	-163.471	0.311	-0.015
-707.631	37.458	-0.133	0.119
-706.616	52.430	-0.426	0.411
-705.602	-200.000	0.015	0.129
-704.587	-47.208	-0.099	-0.049
-703.572	237.005	0.045	0.075
-702.558	-200.000	0.042	-0.206
-701.543	-58.834	-0.269	-0.117
-700.529	413.391	-0.128	-0.275
-699.514	91.101	-0.223	-0.252
-698.499	709.812	-0.026	0.068
-697.485	755.752	-0.100	-0.273
-696.470	-108.285	0.314	0.068
-695.456	-67.315	-0.152	0.060
-694.441	95.146	0.102	-0.117
-693.426	-68.967	-0.131	-0.051
-692.412	23.843	0.081	-0.067
-691.397	-114.755	-0.205	0.039
-690.383	-9.883	-0.074	-0.049
-689.368	-34.557	0.201	-0.111
-688.354	161.915	-0.148	-0.209
-687.339	152.100	-0.041	-0.057
-686.324	427.009	-0.064	0.140
-685.310	-136.329	-0.218	-0.026
-684.295	-31.136	0.332	-0.189
-683.281	80.710	0.178	-0.193
-682.266	391.518	-0.033	-0.068
-681.251	-200.000	0.000	0.036
-680.237	-55.829	0.131	0.059
-679.222	-69.680	0.139	0.054
-678.208	800.000	-0.051	0.216
-677.193	-65.926	-0.050	0.020
-676.178	800.000	0.038	0.109
-675.164	21.246	-0.074	-0.061
-674.149	-136.487	0.201	-0.024
-673.135	-200.000	0.008	0.034
-672.120	-200.000	0.005	-0.208
-671.105	170.124	-0.159	0.229
-670.091	-200.000	-0.038	-0.365
-669.076	33.352	0.073	-0.064
-668.062	-200.000	0.035	0.216
-667.047	61.164	-0.266	0.267
-666.032	-9.963	0.137	-0.091
-665.018	70.151	0.081	-0.085
-664.003	247.708	-0.213	-0.362
-662.989	159.689	0.058	-0.081
-661.974	-145.043	0.124	0.011
-660.959	-89.895	-0.338	0.100
-659.945	-200.000	-0.008	-0.409
-658.930	-147.546	0.235	0.020
-657.916	-4.857	-0.098	-0.068
-656.901	-200.000	-0.001	0.173
-655.886	5.597	0.232	-0.173
-654.872	-9.178	0.049	0.033
-653.857	-135.486	0.453	-0.054
-652.843	800.000	0.094	-0.290
-651.828	-68.117	-0.358	-0.140
-650.814	93.749	-0.209	-0.238
-649.799	12.074	-0.109	-0.084
-648.784	147.614	0.108	-0.147
-647.770	-144.541	0.249	-0.023
-646.755	-70.143	-0.109	0.042
-645.741	-155.011	0.271	0.018
-644.726	800.000	-0.054	0.206
-643.711	800.000	0.131	0.454
-642.697	424.922	0.143	-0.310
-641.682	-20.965	0.198	0.122
-640.668	-133.812	0.286	0.036
-639.653	17.681	-0.275	-0.220
-638.638	-200.000	-0.001	-0.356
-637.624	-200.000	0.037	0.286
-636.609	800.000	-0.124	-0.422
-635.595	-200.000	0.042	-0.217
-634.580	143.642	-0.198	0.265
-633.565	-120.284	0.258	0.044
-632.551	-147.205	-0.241	-0.021
-631.536	85.461	-0.113	0.125
-630.522	312.668	-0.048	0.090
-629.507	-170.587	0.014	-0.001
-628.492	95.213	-0.225	-0.257
-627.478	800.000	-0.076	-0.244
-626.463	-146.585	0.113	0.010
-625.449	135.289	0.070	-0.092
-624.434	132.433	-0.105	-0.136
-623.419	46.380	-0.175	0.163
-622.405	238.069	0.059	0.098
-621.390	748.766	0.057	0.156
-620.376	-184.108	0.138	0.002
-619.361	18.173	0.075	0.060
-618.346	-200.000	0.047	-0.555
-617.332	415.014	0.122	-0.262
-616.317	195.025	-0.060	0.092
-615.303	0.639	0.100	-0.072
-614.288	-56.214	-0.303	0.136
-613.273	800.000	0.041	-0.178
-612.259	295.627	0.126	0.233
-611.244	-94.565	-0.200	-0.055
-610.230	292.006	-0.133	-0.243
-609.215	42.177	-0.219	0.200
-608.201	46.140	-0.054	0.050
-607.186	224.477	-0.186	-0.302
-606.171	-28.654	0.092	-0.053
-605.157	788.528	-0.135	-0.373
-604.142	53.255	-0.132	0.127
-603.128	800.000	-0.010	0.043
-602.113	159.594	-0.074	0.103
-601.098	800.000	0.078	0.271
-600.084	45.844	-0.191	0.177
-599.069	-56.209	0.141	0.063
-598.055	105.021	0.080	-0.095
-597.040	725.531	0.127	-0.341
-596.025	357.297	-0.057	-0.115
-595.011	800.000	0.137	-0.401
-593.996	800.000	-0.060	0.187
-592.982	800.000	0.065	0.244
-591.967	36.125	0.105	0.093
-590.952	254.647	0.166	-0.286
-589.938	376.837	-0.074	0.152
-588.923	-200.000	-0.014	-0.230
-587.909	85.973	0.147	-0.162
-586.894	58.697	-0.179	0.177
-585.879	665.077	0.038	-0.098
-584.865	84.120	0.230	0.252
-583.850	800.000	-0.103	0.395
-582.836	84.436	0.066	0.072
-581.821	785.685	-0.054	-0.149
-580.806	54.512	0.159	-0.154
-579.792	166.267	-0.087	0.124
-578.777	-200.000	0.077	-0.423
-577.763	-150.801	0.340	-0.026
-576.748	11.640	-0.137	0.106
-575.733	16.542	-0.205	-0.163
-574.719	-74.886	-0.437	0.157
-573.704	800.000	-0.029	0.117
-572.690	800.000	-0.035	-0.144
-571.675	43.314	-0.186	-0.170
-570.661	646.530	0.127	-0.325
-569.646	-3.828	-0.247	0.172
-568.631	207.427	-0.166	-0.259
-567.617	-37.941	0.322	-0.172
-566.602	87.388	-0.304	-0.337
-565.588	-200.000	-0.023	-0.120
-564.573	-118.347	-0.166	0.030
-563.558	262.595	-0.126	-0.219
-562.544	-200.000	-0.041	0.238
-561.529	-124.689	0.226	-0.035
-560.515	128.575	0.145	-0.185
-559.500	800.000	0.113	-0.438
-558.485	-200.000	0.075	-0.380
-557.471	-128.399	-0.249	0.036
-556.456	-83.740	-0.189	-0.060
-555.442	-50.791	-0.144	-0.068
-554.427	43.012	0.177	0.162
-553.412	-200.000	0.033	-0.449
-552.398	-166.587	0.261	-0.011
-551.383	33.014	-0.220	0.191
-550.369	-200.000	-0.028	0.198
-549.354	68.213	0.226	0.232
-548.339	-62.311	0.400	0.167
-547.325	393.282	0.093	0.195
-546.310	35.412	0.166	0.146
-545.296	-200.000	-0.013	0.102
-544.281	-200.000	0.018	0.147
-543.266	-200.000	0.062	0.329
-542.252	160.202	0.050	-0.071
-541.237	46.758	0.224	0.209
-540.223	-1.581	-0.122	0.086
-539.208	55.034	-0.183	0.177
-538.193	-16.080	0.098	0.063
-537.179	391.643	0.025	0.051
-536.164	-9.513	-0.297	0.199
-535.150	79.146	-0.163	0.175
-534.135	-9.228	0.089	-0.060
-533.121	-142.575	0.165	-0.016
-532.106	-89.881	0.111	-0.033
-531.091	59.464	-0.339	0.334
-530.077	-176.703	-0.130	-0.003
-529.062	29.294	0.346	-0.294
-528.048	-200.000	-0.021	-0.187
-527.033	800.000	-0.089	-0.388
-526.018	-100.819	-0.187	-0.046
-525.004	315.497	-0.140	-0.265
-523.989	136.918	-0.161	-0.210
-522.975	57.215	0.118	0.115
-521.960	145.415	0.141	-0.189
-520.945	431.810	-0.086	0.187
-519.931	-71.919	0.086	0.032
-518.916	800.000	-0.101	-0.281
-517.902	-79.228	0.053	0.018
-516.887	46.528	0.153	0.142
-515.872	-54.811	0.214	-0.097
-514.858	66.413	-0.109	0.111
-513.843	493.325	-0.154	0.355
-512.829	-8.370	0.055	0.037
-511.814	504.595	0.054	-0.125
-510.799	-72.314	-0.356	0.132
-509.785	290.128	-0.070	-0.128
-508.770	800.000	-0.169	-0.493
-507.756	336.509	-0.146	0.284
-506.741	-75.247	-0.146	0.052
-505.726	158.614	0.067	-0.093
-504.712	141.895	0.075	-0.099
-503.697	77.762	-0.215	-0.230
-502.683	-26.068	-0.283	0.166
-501.668	65.409	-0.043	0.044
-500.653	329.004	0.102	0.196
-499.639	-59.038	0.211	-0.091
-498.624	-8.213	0.099	-0.067
-497.610	84.011	-0.181	-0.198
-496.595	103.442	-0.075	0.088
-495.581	-90.054	0.105	-0.030
-494.566	-43.046	-0.155	0.079
-493.551	58.060	0.154	-0.151
-492.537	-38.125	-0.225	0.120
-491.522	-200.000	0.018	-0.481
-490.508	800.000	0.016	0.049
-489.493	-200.000	0.027	0.158
-488.478	204.015	0.166	-0.257
-487.464	116.997	-0.052	0.064
-486.449	768.834	-0.039	0.105
-485.435	81.788	0.237	0.257
-484.420	-44.104	-0.457	0.229
-483.405	349.526	0.154	0.305
-482.391	-61.333	-0.170	-0.071
-481.376	-67.650	-0.349	-0.137
-480.362	-121.320	0.313	-0.052
-479.347	57.773	0.160	0.157
-478.332	228.706	-0.082	-0.133
-477.318	-17.675	0.235	0.147
-476.303	219.001	0.194	0.310
-475.289	800.000	-0.133	0.432
-474.274	-71.905	-0.326	-0.121
-473.259	-104.052	-0.164	0.038
-472.245	-200.000	0.025	0.129
-471.230	-27.936	0.162	0.094
-470.216	1.127	-0.222	0.159
-469.201	-90.139	0.148	0.043
-468.186	359.472	0.084	-0.167
-467.172	-91.227	-0.306	-0.088
-466.157	102.763	-0.118	0.138
-465.143	-6.094	-0.188	-0.128
-464.128	-200.000	-0.054	-0.336
-463.113	75.296	0.073	0.077
-462.099	-76.287	0.087	-0.030
-461.084	106.713	0.058	0.069
-460.070	91.279	-0.174	-0.195
-459.055	143.357	-0.213	-0.283
-458.040	294.856	-0.059	0.108
-457.026	-173.478	0.303	0.009
-456.011	-137.688	-0.133	-0.015
-454.997	-28.389	-0.189	-0.109
-453.982	-80.929	-0.137	0.045
-452.968	87.129	-0.035	-0.038
-451.953	80.972	0.023	0.025
-450.938	-108.732	-0.093	-0.020
-449.924	18.676	0.218	0.174
-448.909	433.202	-0.108	0.235
-447.895	-152.748	0.145	0.010
-446.880	-99.235	0.118	-0.030
-445.865	-34.523	0.096	0.052
-444.851	381.837	-0.106	0.218
-443.836	723.012	0.054	0.143
-442.822	561.056	-0.101	-0.243
-441.807	308.099	-0.095	-0.177
-440.792	-138.768	-0.243	-0.026
-439.778	157.308	0.055	-0.076
-438.763	169.167	-0.095	0.136
-437.749	-43.267	-0.304	0.154
-436.734	-113.304	-0.503	-0.099
-435.719	193.437	0.133	-0.201
-434.705	99.610	0.079	-0.091
-433.690	379.034	-0.120	-0.245
-432.676	-24.217	-0.172	-0.102
-431.661	-64.240	0.072	-0.029
-430.646	-122.297	0.051	0.008
-429.632	-65.417	0.173	-0.070
-428.617	33.549	-0.287	0.249
-427.603	800.000	0.109	-0.364
-426.588	199.824	-0.101	-0.155
-425.573	6.592	-0.113	0.084
-424.559	268.039	-0.143	-0.250
-423.544	-200.000	0.023	-0.407
-422.530	800.000	0.053	-0.218
-421.515	21.617	0.204	0.165
-420.500	27.184	-0.200	-0.167
-419.486	207.649	-0.165	0.256
-418.471	180.595	0.211	0.310
-417.457	-135.266	-0.188	-0.022
-416.442	800.000	0.052	0.188
-415.428	152.371	-0.059	-0.081
-414.413	619.829	-0.042	-0.106
-413.398	19.085	-0.124	-0.099
-412.384	-71.442	0.368	0.137
-411.369	-169.590	0.231	-0.008
-410.355	-42.845	0.394	-0.200
-409.340	-111.634	0.349	0.071
-408.325	-104.819	-0.115	0.026
-407.311	532.128	0.045	-0.107
-406.296	305.684	-0.048	-0.089
-405.282	93.607	0.228	-0.258
-404.267	414.227	-0.018	-0.037
-403.252	-105.647	0.337	0.076
-402.238	-104.639	0.143	-0.033
-401.223	54.766	0.292	0.281
-400.209	-86.751	0.401	0.122
-399.194	356.730	-0.086	-0.171
-398.179	-200.000	-0.006	0.078
-397.165	30.505	0.055	-0.047
-396.150	-200.000	0.013	0.151
-395.136	-136.680	-0.324	-0.037
-394.121	-117.051	0.151	-0.027
-393.106	-200.000	-0.021	-0.104
-392.092	4.525	0.180	-0.132
-391.077	-7.458	0.104	0.070
-390.063	-200.000	0.014	-0.151
-389.048	744.038	0.177	0.474
-388.033	800.000	0.150	-0.441
-387.019	667.480	0.128	-0.329
-386.004	54.747	-0.062	0.060
-384.990	-3.748	0.490	-0.339
-383.975	192.729	0.277	0.417
-382.960	121.018	-0.046	-0.057
-381.946	24.185	-0.137	0.112
-380.931	-200.000	-0.007	0.158
-379.917	-123.377	-0.209	-0.033
-378.902	-52.799	0.119	0.055
-377.888	33.061	0.116	0.100
-376.873	-169.506	-0.161	0.006
-375.858	800.000	0.083	0.241
-374.844	117.579	0.037	0.045
-373.829	800.000	0.042	0.174
-372.815	-111.878	-0.095	-0.019
-371.800	-47.117	-0.298	-0.145
-370.785	800.000	-0.058	0.208
-369.771	800.000	0.080	0.275
-368.756	-200.000	0.026	-0.201
-367.742	244.257	0.061	-0.101
-366.727	-200.000	-0.030	-0.318
-365.712	-9.701	-0.222	0.147
-364.698	42.446	0.283	-0.256
-363.683	-200.000	-0.004	-0.134
-362.669	344.323	-0.112	0.218
-361.654	37.359	-0.148	0.131
-360.639	155.803	-0.096	-0.131
-359.625	592.588	-0.065	0.161
-358.610	-176.110	0.224	0.006
-357.596	-77.757	-0.401	-0.138
-356.581	-59.977	0.206	-0.088
-355.566	166.803	0.098	0.138
-354.552	-22.884	0.274	-0.164
-353.537	-200.000	0.084	-0.368
-352.523	481.885	-0.072	-0.162
-351.508	-6.632	0.117	0.079
-350.493	20.777	0.245	0.197
-349.479	-200.000	0.007	-0.106
-348.464	-119.432	-0.323	0.056
-347.450	299.610	-0.024	0.044
-346.435	-62.047	0.178	0.074
-345.420	6.199	-0.241	0.178
-344.406	61.942	-0.103	0.102
-343.391	-200.000	0.007	-0.258
-342.377	-169.853	-0.338	-0.012
-341.362	43.122	0.128	0.116
-340.348	-71.814	0.234	0.087
-339.333	-200.000	0.004	-0.312
-338.318	-110.317	0.396	0.082
-337.304	-134.005	-0.354	0.044
-336.289	-77.466	0.165	0.057
-335.275	-129.836	0.030	0.004
-334.260	342.989	0.078	-0.151
-333.245	185.208	0.192	-0.283
-332.231	-200.000	-0.069	-0.473
-331.216	-200.000	0.012	-0.212
-330.202	317.882	0.111	0.208
-329.187	-129.040	0.194	-0.027
-328.172	49.809	0.189	0.177
-327.158	800.000	0.043	-0.144
-326.143	173.798	-0.076	0.109
-325.129	567.075	-0.123	0.297
-324.114	54.046	0.051	-0.048
-323.099	-145.411	-0.269	-0.024
-322.085	21.119	-0.190	-0.153
-321.070	-126.910	-0.161	0.024
-320.056	-190.056	-0.101	0.001
-319.041	-89.925	-0.082	0.024
-318.026	-88.630	0.141	-0.042
-317.012	-56.061	-0.142	-0.063
-315.997	-10.371	0.256	0.169
-314.983	-70.024	-0.281	-0.106
-313.968	-143.956	0.237	0.022
-312.953	800.000	0.089	0.351
-311.939	800.000	0.060	-0.193
-310.924	800.000	-0.017	-0.056
-309.910	-200.000	0.050	0.313
-308.895	0.507	0.186	0.132
-307.880	800.000	0.074	0.215
-306.866	-147.643	0.246	0.021
-305.851	-200.000	0.007	-0.202
-304.837	581.346	0.110	0.268
-303.822	106.387	0.167	0.197
-302.807	45.317	-0.066	0.060
-301.793	800.000	0.076	-0.295
-300.778	-142.726	0.186	0.018
-299.764	-200.000	0.024	-0.119
-298.749	-174.817	0.076	-0.002
-297.735	14.764	-0.223	0.173
-296.720	83.862	0.098	-0.106
-295.705	156.760	0.049	-0.068
-294.691	-200.000	0.001	-0.100
-293.676	8.220	0.327	0.244
-292.662	-122.288	-0.334	-0.054
-291.647	800.000	-0.024	0.076
-290.632	200.432	-0.170	0.260
-289.618	-42.156	-0.133	0.067
-288.603	-125.764	0.257	0.039
-287.589	130.004	0.222	0.282
-286.574	-89.634	0.196	0.057
-285.559	800.000	-0.034	0.121
-284.545	87.413	0.173	-0.190
-283.530	268.690	-0.078	0.136
-282.516	533.242	0.105	-0.246
-281.501	725.884	-0.104	0.276
-280.486	-53.191	-0.117	-0.053
-279.472	270.032	0.112	0.195
-278.457	-109.855	0.577	-0.120
-277.443	-41.288	0.303	0.155
-276.428	208.286	-0.101	-0.156
-275.413	-200.000	0.003	-0.089
-274.399	0.385	-0.149	-0.106
-273.384	-69.082	-0.355	-0.136
-272.370	-49.412	0.058	0.027
-271.355	159.974	0.152	-0.210
-270.340	-200.000	-0.242	-0.001
-269.326	27.437	-0.102	0.085
-268.311	-68.260	0.315	-0.121
-267.297	-136.251	0.054	-0.006
-266.282	-63.718	-0.353	0.143
-265.267	-158.561	-0.154	-0.009
-264.253	-200.000	-0.050	0.342
-263.238	50.132	-0.033	-0.031
-262.224	126.639	0.184	0.231
-261.209	254.335	-0.133	-0.226
-260.195	-116.633	0.159	-0.029
-259.180	800.000	0.068	0.197
-258.165	-139.681	-0.545	0.058
-257.151	800.000	0.045	0.149
-256.136	-3.675	0.077	0.053
-255.122	377.925	-0.019	-0.038
-254.107	79.952	0.180	0.192
-253.092	800.000	-0.035	-0.111
-252.078	800.000	-0.117	-0.348
-251.063	-200.000	0.036	0.205
-250.049	-106.232	-0.110	0.024
-249.034	-200.000	-0.036	0.213
-248.019	90.697	-0.074	0.082
-247.005	255.438	0.016	0.027
-245.990	719.833	-0.051	0.135
-244.976	-26.837	-0.212	0.123
-243.961	-107.789	-0.422	0.091
-242.946	-170.881	-0.365	-0.012
-241.932	800.000	0.014	0.039
-240.917	128.722	-0.144	-0.182
-239.903	-200.000	0.012	-0.068
-238.888	-74.760	-0.237	0.084
-237.873	-200.000	-0.002	0.176
-236.859	-51.589	0.225	0.104
-235.844	-139.147	-0.093	-0.010
-234.830	695.733	0.059	0.155
-233.815	-111.763	-0.121	0.024
-232.800	-56.522	0.475	0.209
-231.786	-173.504	0.350	-0.010
-230.771	-33.868	-0.356	-0.194
-229.757	119.157	0.266	-0.326
-228.742	-46.703	0.131	0.063
-227.727	-11.646	0.115	0.075
-226.713	-200.000	0.026	0.293
-225.698	-58.625	0.152	-0.065
-224.684	-120.618	0.068	0.011
-223.669	-31.716	-0.070	0.039
-222.655	-75.845	-0.048	0.017
-221.640	-200.000	0.014	-0.147
-220.625	-200.000	0.012	-0.274
-219.611	-39.165	-0.243	0.126
-218.596	132.837	0.126	0.161
-217.582	-143.131	-0.153	-0.015
-216.567	-109.491	0.337	-0.071
-215.552	800.000	0.080	-0.302
-214.538	-62.115	0.102	0.042
-213.523	246.443	-0.078	0.130
-212.509	-59.072	0.023	0.010
-211.494	5.559	-0.117	-0.086
-210.479	15.463	-0.281	-0.218
-209.465	-162.886	0.186	-0.009
-208.450	-200.000	-0.024	0.130
-207.436	-88.097	0.206	0.061
-206.421	800.000	-0.091	0.334
-205.406	-147.709	0.173	0.014
-204.392	-57.490	0.168	-0.073
-203.377	-20.627	0.086	0.052
-202.363	162.753	-0.180	0.249
-201.348	332.595	-0.058	0.112
-200.333	800.000	0.021	0.084
-199.319	120.222	-0.090	0.110
-198.304	166.198	-0.130	-0.182
-197.290	143.902	0.062	-0.081
-196.275	-86.815	-0.133	0.040
-195.260	-130.459	0.218	0.029
-194.246	800.000	-0.032	-0.113
-193.231	139.852	0.151	-0.197
-192.217	-30.473	0.069	-0.039
-191.202	-200.000	-0.003	0.133
-190.187	-100.584	0.282	0.069
-189.173	-184.852	-0.230	-0.004
-188.158	-109.776	0.210	0.044
-187.144	96.558	0.229	0.259
-186.129	-52.486	0.049	-0.023
-185.114	5.304	-0.379	-0.276
-184.100	800.000	0.058	-0.221
-183.085	800.000	-0.064	0.215
-182.071	-117.116	-0.039	-0.007
-181.056	-173.267	0.131	0.004
-180.042	4.148	-0.210	0.152
-179.027	-200.000	0.001	0.188
-178.012	-200.000	-0.027	0.304
-176.998	20.470	0.011	0.009
-175.983	8.585	-0.117	-0.087
-174.969	-200.000	0.015	0.115
-173.954	-200.000	0.031	-0.434
-172.939	708.071	0.156	0.407
-171.925	-157.639	-0.117	-0.007
-170.910	181.578	-0.040	-0.058
-169.896	-200.000	-0.055	-0.306
-168.881	328.473	0.089	0.169
-167.866	-186.352	0.171	-0.002
-166.852	-104.168	0.285	-0.066
-165.837	-67.534	-0.157	0.061
-164.823	755.845	0.105	0.279
-163.808	-200.000	-0.010	-0.186
-162.793	136.941	-0.268	-0.346
-161.779	468.699	-0.037	0.081
-160.764	84.085	-0.187	0.202
-159.750	13.089	0.292	0.223
-158.735	800.000	-0.068	0.288
-157.720	800.000	-0.101	0.315
-156.706	-200.000	0.078	0.427
-155.691	-137.286	-0.112	0.013
-154.677	89.501	-0.114	-0.125
-153.662	40.945	-0.287	-0.256
-152.647	-61.460	-0.251	-0.104
-151.633	-39.775	-0.155	-0.080
-150.618	-16.682	0.242	-0.151
-149.604	129.385	-0.192	0.242
-148.589	288.317	-0.130	0.232
-147.574	298.980	0.090	-0.164
-146.560	572.385	0.119	-0.287
-145.545	-200.000	0.026	-0.186
-144.531	-115.878	-0.150	-0.028
-143.516	-56.991	-0.209	0.091
-142.502	-32.628	-0.054	0.030
-141.487	-85.573	-0.045	0.014
-140.472	-200.000	-0.029	0.241
-139.458	-114.782	-0.272	-0.051
-138.443	-86.323	-0.143	-0.043
-137.429	-101.773	0.097	-0.023
-136.414	0.731	-0.164	-0.116
-135.399	362.131	0.047	0.093
-134.385	-21.839	-0.196	-0.118
-133.370	-130.708	0.111	-0.015
-132.356	93.014	-0.186	0.207
-131.341	-200.000	0.021	0.185
-130.326	37.693	0.239	-0.209
-129.312	-200.000	-0.077	0.373
-128.297	275.152	0.127	-0.223
-127.283	-200.000	-0.026	-0.120
-126.268	-110.609	-0.037	-0.007
-125.253	671.800	0.024	-0.062
-124.239	23.508	0.052	0.042
-123.224	14.642	0.044	-0.034
-122.210	684.150	-0.109	-0.280
-121.195	-200.000	-0.026	0.215
-120.180	-200.000	0.018	0.276
-119.166	72.120	-0.162	0.166
-118.151	78.391	-0.008	0.008
-117.137	-115.581	0.277	-0.051
-116.122	-174.512	0.018	-0.001
-115.107	445.726	-0.055	-0.119
-114.093	-200.000	-0.058	0.370
-113.078	34.703	0.019	-0.017
-112.064	-142.634	0.363	0.035
-111.049	-150.947	-0.119	-0.009
-110.034	-200.000	-0.006	0.120
-109.020	2.331	0.153	-0.109
-108.005	223.373	0.153	-0.244
-106.991	-1.841	0.084	-0.058
-105.976	-117.403	0.268	-0.048
-104.962	32.993	-0.066	0.056
-103.947	-200.000	-0.012	0.099
-102.932	31.789	-0.234	0.198
-101.918	-108.348	0.386	0.082
-100.903	0.112	-0.097	-0.068
-99.889	40.569	-0.458	0.406
-98.874	-200.000	-0.018	0.090
-97.859	-179.652	0.495	-0.011
-96.845	-89.974	-0.294	-0.085
-95.830	-85.523	-0.131	-0.040
-94.816	-200.000	0.000	0.013
-93.801	137.040	-0.115	-0.148
-92.786	15.773	0.283	0.220
-91.772	-90.780	0.382	0.108
-90.757	-3.654	-0.284	0.194
-89.743	-103.802	-0.245	0.056
-88.728	-145.102	0.104	-0.009
-87.713	-151.165	0.338	-0.025
-86.699	-200.000	0.075	0.327
-85.684	800.000	0.048	0.185
-84.670	5.009	0.119	-0.086
-83.655	-65.472	0.083	-0.033
-82.640	-82.080	-0.070	0.022
-81.626	-73.798	0.260	0.093
-80.611	-54.847	-0.469	-0.208
-79.597	-44.662	0.244	-0.120
-78.582	-172.537	-0.308	0.010
-77.567	739.906	0.076	0.200
-76.553	705.764	-0.092	-0.240
-75.538	-29.634	0.203	0.114
-74.524	-10.786	-0.268	0.174
-73.509	-200.000	0.014	0.074
-72.494	-200.000	0.030	0.166
-71.480	13.218	-0.215	-0.164
-70.465	800.000	-0.076	-0.300
-69.451	-76.901	-0.180	0.062
-68.436	-126.376	-0.192	-0.028
-67.422	-121.362	0.278	-0.046
-66.407	-200.000	-0.000	-0.175
-65.392	133.200	-0.073	0.092
-64.378	47.222	-0.207	-0.190
-63.363	7.745	0.438	-0.322
-62.349	64.958	0.162	-0.161
-61.334	20.344	-0.947	-0.753
-60.319	189.067	0.274	0.404
-59.305	-200.000	-0.125	-1.198
-58.290	290.363	0.728	1.301
-57.276	425.513	0.813	1.722
-56.261	-200.000	110.594	643.020
-55.246	487.604	1482.850	3328.781
-54.232	148.411	2653.560	3524.277
-53.217	97.044	2304.726	2599.619
-52.203	34.739	2056.136	1768.157
-51.188	30.067	1971.692	1653.888
-50.173	28.639	1955.651	1627.716
-49.159	46.964	2012.684	1840.455
-48.144	46.551	2029.100	1851.676
-47.130	30.616	1988.915	1673.017
-46.115	28.250	1978.167	1642.708
-45.100	28.191	1974.848	1639.356
-44.086	28.172	1972.778	1637.407
-43.071	28.133	1970.264	1634.907
-42.057	28.089	1968.488	1632.976
-41.042	28.070	1966.969	1631.478
-40.027	28.163	1965.336	1630.888
-39.013	28.109	1963.703	1628.987
-37.998	28.089	1961.830	1627.189
-36.984	28.217	1959.588	1626.408
-35.969	28.157	1957.571	1624.133
-34.954	28.240	1955.529	1623.111
-33.940	28.178	1954.608	1621.730
-32.925	28.235	1953.215	1621.019
-31.911	28.235	1951.408	1619.449
-30.896	28.270	1949.350	1617.990
-29.881	28.270	1948.154	1616.932
-28.867	28.253	1946.972	1615.737
-27.852	28.259	1945.127	1614.194
-26.838	28.351	1942.857	1613.059
-25.823	28.288	1941.142	1611.017
-24.809	28.329	1939.433	1609.895
-23.794	28.277	1937.813	1608.030
-22.779	28.295	1936.233	1606.811
-21.765	28.268	1934.835	1605.350
-20.750	28.226	1933.348	1603.688
-19.736	28.285	1931.301	1602.444
-18.721	28.338	1929.837	1601.627
-17.706	28.313	1928.377	1600.131
-16.692	28.315	1926.418	1598.461
-15.677	28.309	1924.836	1597.033
-14.663	28.255	1923.904	1595.724
-13.648	28.241	1922.817	1594.637
-12.633	28.240	1921.161	1593.189
-11.619	28.276	1919.713	1592.243
-10.604	28.246	1918.968	1591.302
-9.590	28.304	1917.383	1590.428
-8.575	28.262	1916.076	1588.912
-7.560	28.245	1914.422	1587.331
-6.546	28.280	1913.058	1586.445
-5.531	28.288	1911.982	1585.558
-4.517	28.199	1910.843	1583.780
-3.502	28.233	1909.823	1583.165
-2.487	28.277	1908.687	1582.534
-1.473	28.224	1907.980	1581.428
-0.458	28.238	1902.585	1577.018
0.556	25.948	1882.232	1549.144
1.571	21.679	1863.596	1497.267
2.586	17.670	1885.471	1479.972
3.600	16.595	1920.460	1497.788
4.615	16.468	1914.285	1491.718
5.629	14.720	1822.819	1405.614
6.644	11.362	1718.073	1298.053
7.659	9.425	1686.718	1259.103
8.673	9.256	1683.688	1255.414
9.688	9.246	1682.904	1254.634
10.702	9.089	1681.175	1252.013
11.717	8.989	1678.010	1248.767
12.731	9.351	1675.861	1249.871
13.746	11.809	1681.235	1272.904
14.761	15.565	1688.570	1307.635
15.775	17.367	1690.765	1323.252
16.790	16.969	1689.061	1318.714
17.804	15.826	1685.834	1307.198
18.819	14.991	1681.847	1297.525
19.834	14.263	1680.293	1290.567
20.848	13.926	1678.081	1286.147
21.863	13.642	1676.694	1282.767
22.877	13.396	1675.610	1279.924
23.892	13.273	1673.644	1277.356
24.907	13.112	1673.044	1275.541
25.921	13.062	1671.793	1274.090
26.936	13.081	1670.968	1273.494
27.950	13.130	1669.895	1272.940
28.965	13.163	1668.982	1272.388
29.980	13.190	1668.590	1272.182
30.994	13.292	1667.168	1271.773
32.009	13.394	1666.508	1271.939
33.023	13.424	1665.588	1271.357
34.038	13.410	1664.517	1270.319
35.053	13.367	1663.252	1268.913
36.067	13.337	1661.908	1267.544
37.082	13.350	1660.287	1266.299
38.096	13.341	1659.752	1265.710
39.111	13.287	1659.145	1264.716
40.126	13.384	1658.169	1264.603
41.140	13.348	1657.437	1263.656
42.155	13.195	1655.946	1261.246
43.169	13.167	1654.716	1259.984
44.184	13.134	1653.299	1258.539
45.199	12.992	1651.882	1256.267
46.213	13.000	1651.301	1255.772
47.228	13.091	1649.835	1255.242
48.242	13.211	1648.585	1255.090
49.257	13.192	1647.536	1254.037
50.271	13.298	1646.005	1253.565
51.286	13.294	1644.362	1252.170
52.301	13.246	1643.392	1250.963
53.315	13.222	1642.222	1249.773
54.330	13.198	1640.638	1248.282
55.344	13.058	1639.214	1246.026
56.359	13.078	1637.793	1244.989
57.374	13.070	1636.876	1244.120
58.388	13.133	1635.151	1243.172
59.403	13.064	1633.722	1241.462
60.417	13.040	1632.924	1240.560
61.432	13.009	1631.666	1239.262
62.447	13.067	1630.483	1238.689
63.461	12.946	1629.052	1236.591
64.476	12.985	1628.119	1236.062
65.490	12.933	1627.140	1234.820
66.505	13.037	1625.833	1234.496
67.520	12.857	1624.928	1232.358
68.534	13.028	1623.570	1232.495
69.549	13.072	1622.232	1231.698
70.563	13.091	1621.332	1231.042
71.578	13.017	1620.074	1229.428
72.593	13.065	1619.118	1228.957
73.607	12.891	1618.943	1227.417
74.622	12.975	1617.522	1226.855
75.636	12.851	1616.538	1225.083
76.651	12.836	1615.834	1224.326
77.666	12.918	1614.443	1223.775
78.680	12.901	1613.725	1222.992
79.695	12.949	1612.984	1222.680
80.709	12.952	1611.754	1221.659
81.724	12.918	1611.569	1221.160
82.739	12.997	1610.381	1220.736
83.753	13.082	1609.634	1220.692
84.768	13.134	1608.695	1220.256
85.782	13.302	1607.573	1220.534
86.797	13.228	1607.252	1219.636
87.812	13.293	1605.977	1219.039
88.826	13.212	1604.917	1217.537
89.841	13.073	1603.892	1215.628
90.855	13.170	1602.809	1215.410
91.870	13.254	1601.639	1215.033
92.884	13.279	1600.202	1214.016
93.899	13.248	1599.610	1213.234
94.914	13.293	1598.423	1212.553
95.928	13.329	1597.061	1211.678
96.943	13.369	1595.520	1210.694
97.957	13.343	1594.298	1209.470
98.972	13.320	1592.762	1208.032
99.987	13.312	1590.941	1206.488
101.001	13.223	1590.137	1205.120
102.016	13.266	1588.246	1203.893
103.030	13.288	1586.681	1202.763
104.045	13.267	1585.799	1201.833
105.060	13.222	1584.867	1200.692
106.074	13.344	1582.377	1199.587
107.089	13.168	1581.255	1197.354
108.103	13.089	1579.346	1195.234
109.118	12.989	1578.681	1193.896
110.133	13.010	1576.814	1192.531
111.147	13.039	1575.356	1191.535
112.162	12.987	1574.773	1190.612
113.176	13.050	1573.106	1189.702
114.191	13.053	1571.627	1188.496
115.206	13.132	1570.617	1188.199
116.220	13.141	1568.985	1186.923
117.235	13.200	1567.723	1186.282
118.249	13.146	1566.161	1184.614
119.264	13.035	1565.012	1182.843
120.279	13.152	1563.524	1182.450
121.293	13.097	1562.134	1180.904
122.308	13.100	1560.532	1179.609
123.322	13.056	1559.005	1178.035
124.337	13.028	1557.744	1176.782
125.352	13.022	1556.429	1175.639
126.366	12.981	1555.505	1174.543
127.381	13.067	1554.319	1174.158
128.395	13.020	1553.628	1173.195
129.410	12.910	1552.205	1171.237
130.424	12.998	1550.791	1170.687
131.439	13.056	1548.940	1169.604
132.454	13.009	1548.174	1168.585
133.468	13.133	1545.983	1167.705
134.483	13.153	1544.815	1166.861
135.497	13.151	1543.583	1165.811
136.512	13.145	1542.166	1164.597
137.527	13.122	1540.677	1163.207
138.541	13.141	1539.567	1162.400
139.556	13.129	1538.089	1161.099
140.570	13.193	1536.679	1160.384
141.585	13.253	1535.226	1159.601
142.600	13.244	1534.620	1158.981
143.614	13.294	1533.190	1158.146
144.629	13.380	1531.846	1157.629
145.643	13.436	1530.784	1157.114
146.658	13.445	1528.973	1155.705
147.673	13.403	1527.686	1154.339
148.687	13.413	1525.949	1152.995
149.702	13.368	1524.523	1151.505
150.716	13.265	1522.883	1149.443
151.731	13.235	1521.652	1148.203
152.746	13.262	1520.388	1147.335
153.760	13.231	1518.878	1145.882
154.775	13.330	1518.211	1145.963
155.789	13.369	1517.025	1145.240
156.804	13.424	1515.445	1144.320
157.819	13.448	1514.140	1143.405
158.833	13.464	1513.125	1142.644
159.848	13.473	1511.757	1141.572
160.862	13.513	1510.977	1141.157
161.877	13.572	1509.767	1140.552
162.892	13.462	1508.323	1138.606
163.906	13.418	1507.594	1137.648
164.921	13.326	1506.246	1135.899
165.935	13.321	1505.021	1134.838
166.950	13.357	1504.219	1134.385
167.964	13.471	1503.112	1134.226
168.979	13.431	1501.873	1132.920
169.994	13.458	1500.646	1132.079
171.008	13.471	1499.813	1131.435
172.023	13.429	1498.831	1130.312
173.037	13.438	1497.638	1129.375
174.052	13.587	1496.370	1129.328
175.067	13.633	1495.483	1128.875
176.081	13.592	1493.977	1127.363
177.096	13.525	1492.637	1125.794
178.110	13.471	1491.644	1124.576
179.125	13.437	1490.292	1123.232
180.140	13.555	1489.209	1123.114
181.154	13.545	1488.601	1122.486
182.169	13.529	1487.593	1121.518
183.183	13.743	1485.604	1121.369
184.198	13.594	1485.096	1119.880
185.213	13.651	1484.450	1119.680
186.227	13.683	1483.374	1118.982
187.242	13.636	1481.846	1117.416
188.256	13.738	1481.239	1117.542
189.271	13.801	1479.826	1116.806
190.286	13.803	1479.367	1116.372
191.300	13.817	1477.790	1115.179
192.315	13.724	1476.455	1113.446
193.329	13.457	1475.372	1110.742
194.344	13.466	1474.373	1109.951
195.359	13.581	1472.943	1109.543
196.373	13.498	1472.320	1108.421
197.388	13.777	1471.022	1109.215
198.402	13.772	1470.021	1108.323
199.417	13.847	1469.216	1108.124
200.432	13.986	1468.314	1108.272
201.446	13.932	1467.513	1107.206
202.461	13.966	1466.473	1106.555
203.475	14.027	1465.079	1105.811
204.490	14.045	1464.032	1105.041
205.504	14.040	1462.993	1104.126
206.519	13.930	1461.992	1102.543
207.534	13.936	1460.433	1101.310
208.548	13.937	1459.377	1100.418
209.563	13.973	1458.111	1099.607
210.577	13.990	1457.115	1098.873
211.592	13.932	1456.456	1097.897
212.607	13.910	1456.172	1097.440
213.621	14.108	1454.952	1097.727
214.636	14.103	1453.817	1096.742
215.650	14.103	1453.217	1096.192
216.665	14.134	1452.346	1095.641
217.680	14.194	1451.223	1095.089
218.694	14.065	1450.848	1093.866
219.709	14.201	1450.271	1094.224
220.723	14.321	1448.447	1093.543
221.738	14.208	1447.807	1092.217
222.753	14.189	1447.135	1091.492
223.767	14.204	1446.020	1090.655
224.782	14.224	1444.968	1089.893
225.796	14.244	1444.395	1089.496
226.811	14.282	1443.372	1088.876
227.826	14.374	1442.139	1088.450
228.840	14.343	1441.678	1087.805
229.855	14.220	1441.010	1086.401
230.869	14.233	1439.804	1085.482
231.884	14.344	1438.828	1085.372
232.899	14.199	1437.775	1083.537
233.913	14.088	1436.636	1081.863
234.928	14.224	1435.472	1081.769
235.942	14.283	1433.990	1080.944
236.957	14.184	1432.946	1079.417
237.972	14.196	1431.619	1078.402
238.986	14.175	1430.995	1077.702
240.001	14.261	1429.829	1077.285
241.015	14.248	1429.066	1076.526
242.030	14.279	1427.851	1075.719
243.045	14.305	1426.628	1074.867
244.059	14.302	1426.117	1074.373
245.074	14.331	1425.187	1073.763
246.088	14.321	1424.695	1073.231
247.103	14.395	1424.012	1073.101
248.117	14.454	1422.644	1072.349
249.132	14.469	1422.143	1071.974
250.147	14.544	1421.008	1071.509
251.161	14.747	1420.598	1072.406
252.176	14.764	1420.035	1071.995
253.190	14.800	1419.200	1071.498
254.205	14.788	1418.070	1070.480
255.220	14.826	1417.272	1070.026
256.234	14.870	1416.746	1069.810
257.249	14.852	1416.263	1069.237
258.263	14.820	1415.292	1068.205
259.278	14.792	1414.371	1067.238
260.293	14.802	1413.379	1066.460
261.307	14.841	1412.481	1065.934
262.322	14.889	1411.533	1065.433
263.336	14.970	1410.922	1065.394
264.351	14.921	1409.867	1064.189
265.366	14.964	1408.715	1063.501
266.380	14.972	1407.510	1062.543
267.395	14.953	1406.790	1061.790
268.409	14.953	1406.171	1061.224
269.424	15.005	1405.110	1060.659
270.439	14.933	1404.108	1059.352
271.453	14.955	1402.920	1058.507
272.468	14.941	1402.256	1057.824
273.482	14.981	1401.768	1057.610
274.497	14.956	1400.734	1056.580
275.512	14.986	1399.607	1055.826
276.526	14.987	1398.680	1055.040
277.541	15.015	1397.807	1054.462
278.555	14.841	1397.405	1052.970
279.570	14.977	1396.275	1052.881
280.585	15.068	1394.963	1052.375
281.599	15.117	1394.521	1052.253
282.614	15.175	1393.491	1051.748
283.628	15.136	1392.876	1050.945
284.643	15.059	1391.388	1049.249
285.657	14.996	1390.473	1048.071
286.672	15.106	1389.318	1047.793
287.687	15.158	1388.306	1047.264
288.701	15.115	1387.505	1046.300
289.716	15.150	1386.749	1045.854
290.730	15.295	1385.673	1045.857
291.745	15.176	1384.869	1044.416
292.760	15.165	1384.340	1043.854
293.774	15.241	1382.944	1043.180
294.789	15.327	1381.707	1042.691
295.803	15.390	1380.978	1042.442
296.818	15.373	1380.513	1041.890
297.833	15.394	1379.140	1040.892
298.847	15.271	1378.259	1039.377
299.862	15.264	1377.530	1038.690
300.876	15.355	1376.416	1038.322
301.891	15.374	1374.908	1037.208
302.906	15.391	1374.655	1037.034
303.920	15.355	1374.339	1036.480
304.935	15.467	1373.355	1036.338
305.949	15.506	1372.489	1035.830
306.964	15.534	1371.854	1035.433
307.979	15.580	1370.660	1034.721
308.993	15.606	1370.036	1034.318
310.008	15.659	1368.647	1033.508
311.022	15.599	1367.689	1032.321
312.037	15.625	1366.839	1031.750
313.052	15.597	1366.094	1030.923
314.066	15.616	1364.721	1029.917
315.081	15.594	1364.125	1029.240
316.095	15.552	1362.650	1027.778
317.110	15.494	1361.446	1026.422
318.125	15.422	1360.904	1025.483
319.139	15.567	1359.773	1025.427
320.154	15.542	1359.245	1024.785
321.168	15.563	1357.881	1023.794
322.183	15.524	1356.847	1022.683
323.197	15.523	1355.982	1021.938
324.212	15.631	1355.045	1021.797
325.227	15.601	1354.590	1021.181
326.241	15.645	1353.510	1020.547
327.256	15.610	1353.068	1019.908
328.270	15.659	1352.028	1019.332
329.285	15.597	1351.036	1018.119
330.300	15.584	1350.194	1017.314
331.314	15.657	1349.187	1016.910
332.329	15.669	1348.442	1016.329
333.343	15.723	1347.357	1015.749
334.358	15.715	1346.678	1015.094
335.373	15.805	1345.458	1014.627
336.387	15.792	1344.920	1014.055
337.402	15.801	1344.442	1013.659
338.416	15.875	1343.520	1013.318
339.431	15.836	1343.290	1012.823
340.446	15.889	1342.558	1012.503
341.460	15.940	1340.986	1011.534
342.475	15.976	1340.534	1011.318
343.489	15.927	1339.839	1010.410
344.504	16.031	1338.831	1010.184
345.519	16.120	1337.504	1009.623
346.533	16.017	1337.147	1008.650
347.548	16.130	1336.054	1008.412
348.562	16.206	1335.155	1008.097
349.577	16.205	1334.177	1007.265
350.592	16.106	1333.541	1006.103
351.606	16.036	1332.695	1004.957
352.621	15.992	1331.679	1003.846
353.635	16.006	1330.472	1002.927
354.650	15.985	1329.647	1002.091
355.665	16.004	1328.667	1001.379
356.679	16.065	1327.294	1000.615
357.694	16.009	1326.520	999.609
358.708	16.152	1325.389	999.517
359.723	16.205	1324.662	999.193
360.738	16.194	1323.459	998.134
361.752	16.165	1322.528	997.173
362.767	16.167	1321.711	996.483
363.781	16.266	1320.602	996.143
364.796	16.299	1319.524	995.436
365.810	16.279	1319.276	995.040
366.825	16.323	1318.486	994.617
367.840	16.292	1317.775	993.808
368.854	16.356	1317.407	993.818
369.869	16.369	1316.752	993.318
370.883	16.535	1315.656	993.376
371.898	16.435	1315.054	992.247
372.913	16.409	1314.377	991.492
373.927	16.376	1313.410	990.484
374.942	16.465	1312.322	990.100
375.956	16.550	1311.857	990.156
376.971	16.485	1311.231	989.213
377.986	16.542	1310.041	988.566
379.000	16.482	1309.583	987.778
380.015	16.495	1308.346	986.834
381.029	16.614	1307.679	986.938
382.044	16.570	1307.375	986.364
383.059	16.657	1306.720	986.291
384.073	16.670	1305.668	985.486
385.088	16.745	1305.052	985.370
386.102	16.721	1304.114	984.436
387.117	16.715	1303.236	983.650
388.132	16.766	1302.298	983.153
389.146	16.678	1301.463	981.923
390.161	16.656	1300.704	981.134
391.175	16.642	1300.455	980.781
392.190	16.704	1299.188	980.100
393.205	16.733	1298.833	979.909
394.219	16.718	1297.690	978.875
395.234	16.867	1296.344	978.632
396.248	16.913	1294.908	977.729
397.263	16.830	1293.413	976.037
398.278	16.755	1292.344	974.711
399.292	16.723	1291.669	973.929
400.307	16.769	1289.957	972.817
401.321	16.586	1289.580	971.399
402.336	16.555	1289.058	970.742
403.350	16.668	1287.560	970.175
404.365	16.763	1286.254	969.648
405.380	16.730	1285.448	968.766
406.394	16.760	1284.748	968.325
407.409	16.781	1284.258	967.990
408.423	16.793	1283.558	967.444
409.438	16.959	1282.772	967.715
410.453	16.971	1281.991	967.105
411.467	16.979	1281.741	966.878
412.482	17.089	1280.835	966.738
413.496	17.104	1279.942	966.060
414.511	17.196	1279.579	966.224
415.526	17.268	1278.341	965.612
416.540	17.089	1278.089	964.322
417.555	17.187	1277.788	964.567
418.569	17.145	1277.108	963.731
419.584	17.186	1276.334	963.294
420.599	17.192	1275.807	962.844
421.613	96.520	1355.818	1476.428
422.628	94.232	1367.390	1476.502
