DTS Sentinel unit serial number:	SN413079Multiplexer serial number:	ORYXHardware model number:	OX4-SRSoftware version number:	ORYX F/W v4.00 Oryx Data Collector v3.7.2.0data status	okinstallation	princeton_trtdifferential loss correction	single-endedforward channel	channel 4reverse channel	N/Adate	2019/09/18time	00:09:35forward acquisition time	60.00reverse acquisition time	0.00gamma	496.2192k internal	0.2333k external	0.2333temperature offset calibration	0.9998default loss term (dB/km)	0.3790temperature slope calibration	1.0000multiplexer offset coefficient	1.0000multiplexer slope coefficient	1.0000fibre end	0.00T internal ref (°C)	23.75T ext. ref 1 (°C)	0.17T ext. ref 2 (°C)	17.25length (m)	temperature (°C)	Stokes	anti-Stokes-747.200	-200.000	0.022	-0.236
-746.185	122.242	-0.300	0.377
-745.171	-34.031	-0.155	0.086
-744.156	-23.500	0.060	-0.036
-743.142	-86.654	-0.098	-0.030
-742.127	-181.541	-0.196	-0.004
-741.112	-200.000	0.038	-0.202
-740.098	-64.638	-0.150	-0.061
-739.083	-158.652	-0.192	0.011
-738.069	800.000	0.067	0.209
-737.054	-200.000	0.019	-0.093
-736.039	167.984	-0.150	0.215
-735.025	87.588	0.140	-0.155
-734.010	-200.000	0.000	0.134
-732.996	-200.000	0.042	-0.286
-731.981	161.023	0.174	0.244
-730.966	800.000	-0.046	0.134
-729.952	13.888	-0.149	-0.117
-728.937	800.000	0.067	-0.265
-727.923	146.460	-0.185	0.250
-726.908	115.866	-0.136	-0.167
-725.894	-200.000	0.026	0.139
-724.879	-5.329	-0.194	0.134
-723.864	-200.000	-0.002	-0.072
-722.850	-49.547	-0.261	0.125
-721.835	-82.260	-0.235	-0.077
-720.821	133.505	0.095	-0.123
-719.806	-200.000	0.024	-0.281
-718.791	185.657	-0.154	-0.230
-717.777	-175.723	0.290	-0.008
-716.762	93.917	-0.125	0.143
-715.748	60.870	-0.107	0.107
-714.733	-30.435	-0.136	-0.077
-713.718	14.685	0.099	0.077
-712.704	49.288	-0.186	0.175
-711.689	-164.353	0.273	-0.013
-710.675	800.000	0.066	-0.210
-709.660	-136.923	-0.563	-0.065
-708.645	-200.000	-0.028	-0.133
-707.631	-159.815	0.261	0.014
-706.616	-10.616	0.195	-0.129
-705.602	-62.711	0.180	-0.075
-704.587	800.000	0.056	-0.239
-703.572	315.955	0.201	-0.381
-702.558	101.109	-0.099	0.116
-701.543	-104.902	-0.050	-0.012
-700.529	-191.110	-0.428	-0.004
-699.514	-5.077	0.016	-0.011
-698.499	-200.000	-0.005	0.280
-697.485	800.000	0.014	0.043
-696.470	42.825	-0.150	-0.137
-695.456	-107.245	0.141	-0.031
-694.441	364.742	-0.133	-0.268
-693.426	279.190	0.139	0.249
-692.412	-53.344	0.120	-0.055
-691.397	646.983	-0.094	0.240
-690.383	209.263	0.046	-0.072
-689.368	-2.785	0.132	-0.092
-688.354	84.490	-0.151	0.165
-687.339	-200.000	0.019	0.247
-686.324	-200.000	-0.007	-0.160
-685.310	-154.116	0.272	-0.019
-684.295	-125.196	-0.123	0.019
-683.281	-42.907	-0.052	0.026
-682.266	88.016	0.163	-0.181
-681.251	-88.560	0.302	-0.090
-680.237	-200.000	0.013	-0.201
-679.222	138.240	-0.175	-0.230
-678.208	102.249	-0.210	0.246
-677.193	-200.000	0.008	0.054
-676.178	130.335	-0.185	0.238
-675.164	174.570	0.103	0.149
-674.149	203.688	-0.105	-0.162
-673.135	633.811	-0.085	-0.216
-672.120	-168.059	0.303	-0.012
-671.105	-113.609	-0.181	0.035
-670.091	-200.000	-0.006	0.033
-669.076	-138.900	0.401	0.044
-668.062	-25.239	0.198	-0.117
-667.047	800.000	-0.072	0.221
-666.032	3.798	0.305	-0.223
-665.018	-200.000	0.003	-0.229
-664.003	-200.000	-0.030	0.162
-662.989	-200.000	-0.047	0.281
-661.974	128.989	0.067	0.086
-660.959	800.000	0.063	0.243
-659.945	-200.000	-0.055	0.324
-658.930	497.811	-0.137	-0.316
-657.916	800.000	-0.073	-0.272
-656.901	800.000	0.058	0.169
-655.886	-130.073	-0.258	0.035
-654.872	-200.000	-0.008	-0.158
-653.857	71.838	-0.104	-0.109
-652.843	-17.014	0.325	0.206
-651.828	800.000	0.079	-0.244
-650.814	-200.000	-0.066	-0.455
-649.799	33.180	0.111	-0.097
-648.784	-42.674	0.365	-0.186
-647.770	-144.783	-0.029	0.003
-646.755	-200.000	-0.027	-0.128
-645.741	800.000	-0.117	-0.388
-644.726	-169.524	0.218	-0.008
-643.711	-48.785	-0.221	0.106
-642.697	-200.000	0.044	0.000
-641.682	800.000	0.127	-0.461
-640.668	800.000	-0.130	-0.365
-639.653	9.166	0.216	-0.164
-638.638	-200.000	0.013	-0.070
-637.624	800.000	-0.023	-0.071
-636.609	-200.000	0.013	-0.224
-635.595	-28.496	0.212	0.123
-634.580	587.055	-0.132	-0.324
-633.565	-149.260	0.568	-0.045
-632.551	201.687	0.023	-0.035
-631.536	-152.999	-0.107	0.008
-630.522	17.768	-0.268	0.213
-629.507	-187.465	-0.144	0.002
-628.492	157.669	0.016	0.023
-627.478	314.132	-0.058	0.109
-626.463	-200.000	-0.006	-0.250
-625.449	-140.344	-0.204	-0.021
-624.434	44.017	0.028	-0.025
-623.419	-83.062	0.258	-0.083
-622.405	800.000	0.010	0.038
-621.390	800.000	0.027	0.112
-620.376	-65.722	-0.443	-0.178
-619.361	-111.818	-0.095	-0.019
-618.346	-130.881	-0.371	-0.050
-617.332	-34.468	-0.223	-0.122
-616.317	157.391	-0.119	-0.165
-615.303	56.019	0.248	0.241
-614.288	-31.226	-0.164	-0.092
-613.273	49.929	-0.372	-0.351
-612.259	-200.000	0.026	0.248
-611.244	32.636	0.207	-0.179
-610.230	176.826	0.176	-0.257
-609.215	-40.709	-0.160	-0.083
-608.201	-126.352	-0.291	-0.043
-607.186	311.523	-0.085	-0.159
-606.171	20.627	-0.220	-0.178
-605.157	-66.532	-0.046	-0.018
-604.142	-62.771	0.063	0.026
-603.128	-21.282	-0.152	0.093
-602.113	45.910	0.383	-0.355
-601.098	-80.956	-0.219	0.073
-600.084	-200.000	-0.059	0.284
-599.069	179.581	-0.051	0.074
-598.055	64.978	-0.367	0.370
-597.040	-67.037	-0.145	0.057
-596.025	-200.000	-0.041	-0.296
-595.011	199.496	0.059	0.090
-593.996	-31.983	0.365	0.204
-592.982	-48.871	-0.321	-0.154
-591.967	800.000	0.052	0.175
-590.952	-200.000	0.033	-0.177
-589.938	693.035	-0.044	-0.115
-588.923	-75.708	-0.070	0.025
-587.909	256.070	-0.166	-0.284
-586.894	-159.311	0.265	-0.015
-585.879	-93.350	0.206	-0.057
-584.865	-70.169	-0.245	-0.093
-583.850	128.165	0.160	0.204
-582.836	-95.446	-0.366	-0.098
-581.821	-59.860	-0.024	0.010
-580.806	-200.000	0.009	0.202
-579.792	-80.901	-0.260	0.086
-578.777	27.560	0.250	0.210
-577.763	-67.344	-0.396	0.156
-576.748	-200.000	-0.057	-0.322
-575.733	-127.642	-0.340	-0.049
-574.719	-82.890	-0.211	-0.068
-573.704	71.066	0.159	0.165
-572.690	800.000	-0.161	0.480
-571.675	-200.000	0.040	-0.297
-570.661	800.000	-0.042	0.178
-569.646	-183.348	0.103	0.002
-568.631	35.979	0.292	-0.257
-567.617	60.872	-0.268	-0.265
-566.602	-200.000	0.040	-0.268
-565.588	-39.067	-0.219	-0.115
-564.573	-200.000	0.004	-0.189
-563.558	789.335	0.045	-0.124
-562.544	-63.324	0.208	0.086
-561.529	-200.000	0.068	0.366
-560.515	-176.327	-0.239	-0.006
-559.500	97.913	-0.127	-0.146
-558.485	-67.831	0.152	0.059
-557.471	-82.590	-0.062	0.020
-556.456	-200.000	0.030	-0.287
-555.442	-200.000	0.054	-0.269
-554.427	660.956	0.106	-0.274
-553.412	34.760	-0.061	-0.053
-552.398	800.000	-0.111	-0.325
-551.383	677.734	0.122	0.318
-550.369	110.268	0.146	-0.175
-549.354	-113.825	-0.238	0.046
-548.339	-1.606	-0.131	-0.092
-547.325	-39.126	-0.140	0.073
-546.310	214.053	-0.139	-0.220
-545.296	90.207	0.092	-0.102
-544.281	-26.053	0.236	-0.138
-543.266	-57.211	-0.160	-0.070
-542.252	198.414	0.178	0.272
-541.237	65.273	-0.173	0.174
-540.223	-147.523	-0.356	0.030
-539.208	-200.000	-0.060	-0.271
-538.193	-200.000	0.021	0.145
-537.179	708.240	0.073	0.193
-536.164	-111.860	0.252	0.051
-535.150	-200.000	-0.017	0.176
-534.135	-84.415	0.280	-0.088
-533.121	-69.821	0.259	-0.099
-532.106	-137.101	0.263	0.030
-531.091	-129.638	-0.194	0.027
-530.077	-122.224	0.150	-0.024
-529.062	-200.000	-0.004	0.342
-528.048	535.405	0.079	0.187
-527.033	190.240	0.254	-0.380
-526.018	127.248	0.179	-0.227
-525.004	800.000	-0.045	0.189
-523.989	-71.907	-0.039	-0.014
-522.975	-66.958	0.227	-0.089
-521.960	28.925	-0.219	-0.185
-520.945	800.000	-0.025	-0.109
-519.931	682.258	-0.035	-0.091
-518.916	-0.782	-0.149	0.105
-517.902	-200.000	-0.022	-0.323
-516.887	217.554	0.062	0.099
-515.872	800.000	0.173	-0.492
-514.858	121.245	0.069	-0.085
-513.843	-98.323	-0.303	0.077
-512.829	426.867	-0.129	0.276
-511.814	142.444	-0.279	-0.369
-510.799	12.549	0.205	0.158
-509.785	-200.000	-0.025	0.190
-508.770	6.155	0.149	-0.110
-507.756	603.899	-0.138	0.343
-506.741	-200.000	0.033	-0.272
-505.726	282.623	-0.106	0.190
-504.712	-189.924	-0.064	-0.001
-503.697	35.299	0.238	-0.208
-502.683	-43.563	-0.261	0.131
-501.668	-51.142	-0.225	-0.105
-500.653	107.881	0.170	-0.202
-499.639	-200.000	0.000	-0.171
-498.624	0.410	0.194	-0.138
-497.610	-35.955	0.395	0.213
-496.595	800.000	-0.081	0.340
-495.581	-157.250	-0.106	0.006
-494.566	518.060	-0.056	0.131
-493.551	55.810	0.131	-0.126
-492.537	-200.000	0.026	-0.197
-491.522	-48.543	0.167	-0.080
-490.508	-29.168	-0.048	-0.027
-489.493	-82.304	0.130	0.042
-488.478	423.836	0.056	0.119
-487.464	800.000	0.045	0.157
-486.449	-120.148	-0.226	-0.039
-485.435	62.780	-0.192	-0.191
-484.420	94.594	-0.238	-0.269
-483.405	131.316	-0.159	-0.203
-482.391	-200.000	0.012	0.211
-481.376	459.741	-0.052	0.114
-480.362	43.055	0.037	0.034
-479.347	355.519	0.123	-0.243
-478.332	15.104	-0.108	-0.084
-477.318	34.792	-0.162	-0.141
-476.303	67.239	0.079	0.081
-475.289	626.865	0.080	0.201
-474.274	-200.000	-0.041	-0.236
-473.259	-3.887	-0.171	-0.118
-472.245	139.496	-0.153	0.200
-471.230	-128.938	0.177	0.025
-470.216	367.028	0.032	0.065
-469.201	-111.540	0.125	-0.025
-468.186	-136.152	-0.112	0.013
-467.172	-6.556	-0.090	0.061
-466.157	-200.000	-0.070	0.322
-465.143	-200.000	-0.005	0.082
-464.128	-200.000	-0.014	-0.116
-463.113	-83.812	0.096	0.030
-462.099	-200.000	-0.018	0.086
-461.084	800.000	-0.059	-0.234
-460.070	733.556	0.042	-0.113
-459.055	424.702	0.167	-0.358
-458.040	-73.579	0.109	-0.039
-457.026	-21.755	0.260	-0.157
-456.011	208.210	0.085	-0.132
-454.997	54.724	0.172	-0.165
-453.982	-139.227	0.190	0.020
-452.968	5.979	-0.167	0.123
-451.953	800.000	0.097	0.408
-450.938	-82.666	-0.244	-0.079
-449.924	-109.545	-0.456	0.096
-448.909	40.075	-0.066	0.059
-447.895	-99.183	0.140	-0.035
-446.880	387.052	-0.063	-0.130
-445.865	31.211	0.164	0.140
-444.851	279.002	-0.103	-0.183
-443.836	236.562	0.047	0.077
-442.822	-80.869	-0.021	0.007
-441.807	-171.817	0.241	-0.008
-440.792	800.000	-0.097	0.396
-439.778	8.357	0.050	0.037
-438.763	800.000	-0.108	0.452
-437.749	-200.000	-0.028	-0.397
-436.734	325.555	0.108	-0.204
-435.719	-200.000	0.007	0.105
-434.705	324.287	0.203	0.386
-433.690	-108.767	-0.290	-0.062
-432.676	-34.594	0.036	0.020
-431.661	-200.000	-0.014	0.098
-430.646	800.000	-0.060	0.231
-429.632	243.907	-0.065	0.108
-428.617	-174.225	0.257	-0.007
-427.603	800.000	0.073	0.288
-426.588	-200.000	0.023	-0.114
-425.573	-181.975	0.211	-0.004
-424.559	59.206	-0.190	0.186
-423.544	73.812	0.108	0.112
-422.530	220.658	-0.142	0.227
-421.515	46.663	0.158	0.146
-420.500	-200.000	0.011	0.212
-419.486	-200.000	0.038	0.254
-418.471	-115.066	-0.094	0.018
-417.457	-115.928	0.095	0.018
-416.442	86.070	0.128	0.140
-415.428	-200.000	0.015	-0.170
-414.413	53.941	0.215	-0.205
-413.398	-122.758	-0.168	-0.027
-412.384	-122.363	-0.090	-0.015
-411.369	511.127	-0.090	-0.208
-410.355	77.530	0.104	-0.109
-409.340	438.960	-0.077	0.167
-408.325	-200.000	0.034	0.219
-407.311	-48.730	-0.222	0.106
-406.296	-82.182	0.108	-0.035
-405.282	-128.051	-0.179	-0.025
-404.267	774.581	-0.056	0.150
-403.252	354.280	-0.065	0.128
-402.238	800.000	-0.087	-0.251
-401.223	125.414	0.114	0.142
-400.209	-72.920	-0.349	0.127
-399.194	-79.008	0.100	0.034
-398.179	329.850	0.031	-0.059
-397.165	156.526	0.086	-0.118
-396.150	-61.715	0.081	-0.034
-395.136	305.815	-0.183	0.337
-394.121	800.000	0.087	-0.254
-393.106	77.046	0.040	-0.043
-392.092	-98.783	0.160	-0.040
-391.077	37.408	-0.286	-0.252
-390.063	800.000	-0.051	-0.180
-389.048	-71.713	0.112	0.042
-388.033	30.340	-0.204	-0.173
-387.019	800.000	-0.087	-0.269
-386.004	99.904	-0.231	0.266
-384.990	-63.877	-0.325	-0.132
-383.975	219.209	-0.102	0.162
-382.960	-133.197	-0.259	-0.032
-381.946	140.384	-0.050	0.065
-380.931	219.021	-0.084	0.134
-379.917	-117.770	-0.341	0.061
-378.902	-125.506	0.694	-0.105
-377.888	800.000	-0.086	0.256
-376.873	-138.936	-0.198	0.021
-375.858	136.503	-0.116	0.151
-374.844	800.000	-0.047	-0.137
-373.829	227.776	0.146	-0.235
-372.815	-51.861	0.145	0.067
-371.800	-151.342	-0.237	-0.017
-370.785	14.144	-0.186	0.143
-369.771	219.615	0.158	-0.251
-368.756	10.477	-0.093	0.070
-367.742	2.482	-0.052	-0.037
-366.727	-200.000	0.041	0.277
-365.712	-79.128	-0.310	-0.104
-364.698	-66.842	0.507	-0.198
-363.683	-200.000	0.043	0.242
-362.669	220.194	-0.151	0.240
-361.654	800.000	0.098	0.360
-360.639	69.134	-0.203	0.207
-359.625	-138.781	0.148	-0.016
-358.610	199.726	0.153	-0.233
-357.596	800.000	0.058	-0.221
-356.581	-200.000	0.024	-0.299
-355.566	-44.816	-0.115	-0.057
-354.552	-56.699	-0.200	-0.088
-353.537	-8.833	0.198	-0.132
-352.523	800.000	0.012	0.035
-351.508	-68.017	-0.256	0.099
-350.493	188.086	0.019	0.028
-349.479	213.327	-0.087	0.136
-348.464	222.595	-0.063	0.101
-347.450	94.112	0.217	0.243
-346.435	-167.725	0.340	-0.013
-345.420	-200.000	-0.004	-0.482
-344.406	8.262	0.147	-0.109
-343.391	-53.056	0.331	0.151
-342.377	74.197	0.082	0.086
-341.362	-139.450	0.117	-0.012
-340.348	436.367	0.094	-0.203
-339.333	535.321	-0.144	-0.337
-338.318	-105.872	-0.549	-0.123
-337.304	-26.466	-0.160	-0.093
-336.289	-56.275	-0.159	0.070
-335.275	104.182	0.353	0.410
-334.260	-15.323	-0.096	-0.061
-333.245	-200.000	-0.004	-0.043
-332.231	-136.739	0.261	-0.030
-331.216	-188.603	0.048	0.001
-330.202	-200.000	0.020	-0.161
-329.187	-99.456	-0.261	0.065
-328.172	800.000	-0.096	0.361
-327.158	347.495	0.073	0.142
-326.143	725.517	-0.032	0.084
-325.129	212.602	-0.136	0.213
-324.114	197.786	-0.252	-0.381
-323.099	-44.923	-0.170	0.084
-322.085	-200.000	0.099	0.460
-321.070	-189.862	-0.304	0.003
-320.056	-200.000	0.004	-0.117
-319.041	379.429	0.068	-0.138
-318.026	167.351	0.108	0.151
-317.012	403.635	0.114	0.238
-315.997	-133.512	-0.405	0.050
-314.983	-166.457	0.093	0.004
-313.968	43.074	-0.121	0.109
-312.953	-43.669	0.073	-0.037
-311.939	-200.000	-0.003	0.026
-310.924	-41.717	-0.161	-0.082
-309.910	-126.411	0.106	0.016
-308.895	-119.732	0.286	-0.049
-307.880	-200.000	-0.022	0.152
-306.866	257.249	-0.113	0.193
-305.851	800.000	0.063	-0.202
-304.837	-109.178	0.078	-0.016
-303.822	44.273	0.152	-0.138
-302.807	-107.615	0.247	0.053
-301.793	52.549	-0.145	-0.137
-300.778	118.532	-0.097	0.118
-299.764	-200.000	-0.039	0.184
-298.749	97.138	0.096	-0.109
-297.735	-87.826	-0.450	0.134
-296.720	158.486	0.036	-0.050
-295.705	-200.000	0.040	-0.181
-294.691	114.574	-0.069	-0.084
-293.676	-105.153	0.345	-0.078
-292.662	-28.883	0.098	-0.056
-291.647	139.849	0.067	-0.087
-290.632	556.353	0.198	0.472
-289.618	379.883	0.173	0.350
-288.603	461.498	-0.130	0.287
-287.589	-101.399	0.134	0.032
-286.574	136.518	-0.056	0.072
-285.559	101.025	0.103	-0.118
-284.545	55.743	-0.099	0.095
-283.530	-200.000	-0.028	0.200
-282.516	99.404	-0.072	0.083
-281.501	306.565	0.070	0.129
-280.486	-200.000	-0.024	-0.152
-279.472	-107.490	0.326	0.071
-278.457	-200.000	-0.026	-0.437
-277.443	-101.469	0.160	0.038
-276.428	800.000	0.019	0.068
-275.413	-98.350	-0.095	0.024
-274.399	-10.925	-0.206	0.134
-273.384	-200.000	-0.074	-0.337
-272.370	-104.428	0.389	-0.089
-271.355	-45.943	0.153	0.075
-270.340	-98.546	-0.024	0.006
-269.326	-14.169	0.174	0.111
-268.311	145.684	-0.073	-0.097
-267.297	112.328	0.211	0.252
-266.282	151.357	0.113	0.152
-265.267	800.000	-0.165	-0.460
-264.253	800.000	0.137	-0.485
-263.238	-200.000	0.006	0.104
-262.224	264.291	0.099	0.170
-261.209	87.065	0.136	0.148
-260.195	800.000	-0.018	0.056
-259.180	-111.552	0.454	0.091
-258.165	-200.000	-0.010	0.225
-257.151	800.000	0.067	-0.195
-256.136	-160.619	0.121	0.006
-255.122	-144.048	-0.043	-0.004
-254.107	800.000	-0.085	0.296
-253.092	152.178	0.081	0.108
-252.078	477.993	0.079	0.176
-251.063	-115.638	0.508	0.094
-250.049	-171.766	0.192	-0.006
-249.034	229.413	-0.061	-0.098
-248.019	-200.000	-0.017	-0.143
-247.005	-61.264	-0.167	0.069
-245.990	-36.932	0.315	-0.167
-244.976	-64.296	-0.327	0.131
-243.961	33.649	-0.151	-0.130
-242.946	800.000	-0.023	0.083
-241.932	800.000	-0.056	0.175
-240.917	800.000	-0.056	-0.215
-239.903	-200.000	-0.061	-0.447
-238.888	304.642	-0.128	-0.235
-237.873	800.000	-0.040	0.148
-236.859	-45.995	0.201	-0.098
-235.844	800.000	0.038	0.104
-234.830	-200.000	0.022	0.333
-233.815	-110.679	-0.188	0.038
-232.800	-8.433	0.196	0.130
-231.786	8.013	0.156	-0.115
-230.771	244.920	0.113	0.187
-229.757	-15.825	-0.101	0.063
-228.742	-200.000	-0.001	-0.116
-227.727	-105.989	-0.147	0.033
-226.713	-68.779	0.166	-0.063
-225.698	800.000	-0.061	-0.253
-224.684	-169.449	-0.403	0.015
-223.669	48.673	-0.396	-0.366
-222.655	-200.000	-0.010	0.178
-221.640	56.927	0.028	0.027
-220.625	53.995	0.321	-0.304
-219.611	224.271	-0.121	0.192
-218.596	-116.437	0.132	0.024
-217.582	2.891	0.185	0.132
-216.567	-12.489	-0.160	-0.103
-215.552	35.135	-0.076	-0.066
-214.538	16.133	0.149	-0.116
-213.523	397.246	-0.081	0.166
-212.509	-200.000	-0.005	0.125
-211.494	92.962	0.148	-0.165
-210.479	-195.969	0.238	0.002
-209.465	-200.000	0.009	0.093
-208.450	89.840	-0.116	0.128
-207.436	-187.485	0.394	0.005
-206.421	254.701	0.110	-0.185
-205.406	508.322	-0.081	-0.186
-204.392	-200.000	0.002	-0.008
-203.377	128.214	0.210	0.263
-202.363	-139.202	-0.104	-0.011
-201.348	280.913	0.218	0.383
-200.333	55.887	0.244	-0.233
-199.319	151.324	-0.148	-0.199
-198.304	-43.763	0.246	0.122
-197.290	491.396	0.097	0.220
-196.275	800.000	-0.021	-0.070
-195.260	800.000	-0.061	0.192
-194.246	-130.085	-0.138	-0.019
-193.231	-200.000	0.066	0.393
-192.217	-64.450	-0.225	0.090
-191.202	-110.387	-0.307	0.063
-190.187	450.524	-0.071	0.154
-189.173	-104.043	-0.124	0.028
-188.158	-200.000	-0.006	0.279
-187.144	-200.000	0.003	0.175
-186.129	-115.503	-0.342	0.063
-185.114	-62.573	0.373	0.152
-184.100	574.219	-0.039	0.094
-183.085	-100.380	0.131	0.032
-182.071	800.000	-0.007	-0.020
-181.056	73.069	0.118	0.121
-180.042	-53.102	0.158	-0.072
-179.027	-177.211	-0.164	-0.004
-178.012	-200.000	-0.009	0.081
-176.998	-200.000	-0.015	-0.295
-175.983	-85.045	0.198	-0.061
-174.969	-29.290	0.047	0.027
-173.954	82.434	-0.115	0.123
-172.939	-150.939	0.152	0.011
-171.925	-56.385	-0.152	-0.067
-170.910	-200.000	-0.016	0.225
-169.896	188.761	0.255	-0.375
-168.881	24.674	-0.149	0.121
-167.866	-63.499	0.360	0.146
-166.852	-33.601	-0.219	0.119
-165.837	144.923	0.235	0.309
-164.823	261.739	0.206	0.350
-163.808	47.347	-0.130	-0.119
-162.793	-88.435	-0.165	-0.048
-161.779	-200.000	0.032	0.203
-160.764	144.104	0.052	-0.068
-159.750	114.954	-0.094	-0.112
-158.735	349.691	0.079	0.153
-157.720	54.026	-0.224	-0.211
-156.706	-18.515	0.232	0.142
-155.691	91.304	0.060	-0.066
-154.677	44.872	-0.162	0.147
-153.662	-129.870	0.198	-0.027
-152.647	800.000	-0.040	0.170
-151.633	46.860	0.335	-0.306
-150.618	-110.177	-0.171	-0.035
-149.604	36.908	-0.271	0.235
-148.589	42.147	0.104	-0.093
-147.574	800.000	0.098	-0.415
-146.560	-70.567	-0.444	-0.165
-145.545	205.974	-0.116	0.178
-144.531	-7.186	-0.109	0.073
-143.516	-62.116	-0.115	-0.047
-142.502	800.000	-0.090	0.289
-141.487	-190.338	0.232	-0.002
-140.472	-178.038	-0.279	0.007
-139.458	-74.120	0.260	-0.092
-138.443	-70.706	-0.442	0.164
-137.429	-41.199	-0.043	-0.022
-136.414	199.037	-0.162	0.243
-135.399	-116.681	-0.217	-0.039
-134.385	-132.865	0.484	-0.061
-133.370	260.766	-0.080	0.136
-132.356	-8.154	-0.103	0.068
-131.341	2.301	0.109	0.078
-130.326	316.544	0.163	0.302
-129.312	-137.552	0.215	-0.024
-128.297	93.607	-0.078	0.086
-127.283	-121.618	0.345	-0.056
-126.268	420.077	-0.078	-0.165
-125.253	131.303	-0.227	0.286
-124.239	-200.000	0.014	-0.106
-123.224	-4.061	0.244	0.166
-122.210	-16.790	-0.015	0.009
-121.195	-53.046	-0.256	0.116
-120.180	-33.090	0.103	0.056
-119.166	-85.743	0.087	0.026
-118.151	-200.000	-0.076	-0.452
-117.137	800.000	0.064	0.221
-116.122	76.449	0.407	-0.423
-115.107	800.000	-0.083	-0.334
-114.093	88.262	-0.156	-0.169
-113.078	-106.616	0.325	-0.071
-112.064	350.427	0.089	-0.172
-111.049	105.408	0.135	-0.156
-110.034	-3.083	-0.445	-0.305
-109.020	800.000	-0.056	0.175
-108.005	-96.745	0.164	0.042
-106.991	800.000	-0.053	0.213
-105.976	-3.897	0.252	0.172
-104.962	178.018	0.119	0.170
-103.947	800.000	0.014	0.046
-102.932	187.612	0.204	-0.299
-101.918	-13.203	-0.321	-0.205
-100.903	-120.360	-0.171	0.029
-99.889	-100.406	-0.209	0.051
-98.874	800.000	0.082	0.288
-97.859	-200.000	-0.001	-0.078
-96.845	-97.676	0.120	-0.030
-95.830	3.060	-0.190	-0.135
-94.816	218.261	0.106	-0.166
-93.801	-43.607	-0.290	-0.143
-92.786	289.858	0.037	0.066
-91.772	-200.000	-0.014	-0.077
-90.757	-85.844	0.228	-0.069
-89.743	273.157	-0.029	-0.050
-88.728	-200.000	-0.030	0.172
-87.713	4.547	-0.212	-0.153
-86.699	800.000	0.015	0.063
-85.684	37.274	-0.191	-0.166
-84.670	37.090	-0.206	-0.178
-83.655	-200.000	0.012	0.074
-82.640	124.226	0.217	-0.267
-81.626	311.309	-0.060	0.110
-80.611	-69.223	-0.099	-0.037
-79.597	70.170	0.131	0.133
-78.582	800.000	-0.043	-0.177
-77.567	40.336	-0.146	0.129
-76.553	-200.000	0.009	-0.041
-75.538	-166.523	-0.120	0.005
-74.524	800.000	-0.056	0.171
-73.509	-200.000	-0.013	-0.072
-72.494	-200.000	0.026	-0.244
-71.480	-90.115	0.250	0.071
-70.465	-200.000	0.055	0.238
-69.451	-200.000	-0.035	-0.252
-68.436	-200.000	0.006	0.046
-67.422	319.538	0.193	-0.358
-66.407	800.000	0.095	0.338
-65.392	-200.000	-0.018	-0.080
-64.378	-200.000	-0.010	-0.264
-63.363	-42.186	-0.202	0.101
-62.349	57.859	0.319	0.306
-61.334	48.544	-1.187	-1.089
-60.319	38.144	0.850	0.741
-59.305	240.676	-0.680	-1.111
-58.290	321.523	0.866	1.614
-57.276	638.945	0.585	1.456
-56.261	-200.000	123.621	664.578
-55.246	440.162	1540.790	3296.107
-54.232	145.254	2697.861	3534.392
-53.217	89.186	2312.369	2521.351
-52.203	30.245	2062.697	1723.644
-51.188	25.518	1978.939	1611.339
-50.173	24.334	1962.573	1587.414
-49.159	42.406	2034.289	1810.286
-48.144	40.595	2047.262	1805.297
-47.130	25.921	2000.115	1631.966
-46.115	23.811	1988.862	1603.701
-45.100	23.673	1985.914	1600.018
-44.086	23.632	1983.223	1597.423
-43.071	23.564	1981.502	1595.358
-42.057	23.573	1979.607	1593.852
-41.042	23.653	1977.651	1592.934
-40.027	23.659	1975.694	1591.345
-39.013	23.636	1973.587	1589.375
-37.998	23.667	1972.414	1588.651
-36.984	23.618	1970.480	1586.591
-35.969	23.683	1968.119	1585.205
-34.954	23.640	1966.788	1583.683
-33.940	23.674	1965.516	1582.902
-32.925	23.671	1963.677	1581.334
-31.911	23.724	1962.166	1580.522
-30.896	23.793	1960.359	1579.616
-29.881	23.713	1959.165	1577.885
-28.867	23.881	1957.229	1577.751
-27.852	23.821	1955.814	1576.014
-26.838	23.812	1953.812	1574.265
-25.823	23.883	1951.592	1573.037
-24.809	23.884	1949.898	1571.620
-23.794	23.781	1948.649	1569.641
-22.779	23.845	1946.408	1568.342
-21.765	23.775	1945.395	1566.845
-20.750	23.850	1943.746	1566.113
-19.736	23.805	1942.022	1564.266
-18.721	23.720	1940.877	1562.536
-17.706	23.819	1938.994	1561.823
-16.692	23.715	1937.458	1559.618
-15.677	23.733	1935.519	1558.150
-14.663	23.736	1934.125	1556.986
-13.648	23.783	1933.387	1556.745
-12.633	23.803	1931.917	1555.680
-11.619	23.773	1930.384	1554.117
-10.604	23.722	1929.678	1553.040
-9.590	23.698	1928.112	1551.507
-8.575	23.752	1926.437	1550.573
-7.560	23.804	1924.789	1549.636
-6.546	23.746	1924.082	1548.502
-5.531	23.779	1922.783	1547.685
-4.517	23.764	1921.500	1546.458
-3.502	23.787	1920.726	1545.972
-2.487	23.710	1919.345	1544.127
-1.473	23.763	1918.109	1543.539
-0.458	23.826	1912.949	1539.866
0.556	21.955	1892.915	1510.320
1.571	17.578	1874.197	1457.869
2.586	13.679	1897.640	1442.123
3.600	12.809	1932.046	1460.436
4.615	12.738	1924.512	1453.986
5.629	9.933	1825.272	1355.371
6.644	3.830	1713.889	1224.338
7.659	0.567	1681.243	1175.533
8.673	0.242	1678.690	1171.123
9.688	0.195	1677.500	1169.817
10.702	0.162	1675.875	1168.331
11.717	0.071	1672.055	1164.855
12.731	0.549	1670.718	1167.519
13.746	5.260	1679.897	1210.402
14.761	12.525	1694.534	1277.444
15.775	16.410	1701.832	1313.082
16.790	16.810	1700.961	1315.401
17.804	15.971	1697.878	1306.398
18.819	14.977	1694.874	1296.273
19.834	14.463	1692.139	1290.087
20.848	14.101	1690.713	1286.090
21.863	13.908	1689.469	1283.536
22.877	13.658	1687.824	1280.245
23.892	13.398	1686.536	1277.145
24.907	13.298	1685.606	1275.557
25.921	13.282	1683.735	1273.904
26.936	13.290	1683.373	1273.582
27.950	13.363	1682.437	1273.319
28.965	13.241	1682.433	1272.264
29.980	13.337	1681.206	1271.965
30.994	13.438	1679.668	1271.467
32.009	13.525	1678.892	1271.431
33.023	13.565	1678.523	1271.346
34.038	13.642	1677.092	1270.742
35.053	13.557	1676.165	1269.273
36.067	13.540	1675.006	1268.153
37.082	13.439	1674.427	1266.829
38.096	13.424	1672.888	1265.441
39.111	13.484	1672.506	1265.495
40.126	13.415	1671.899	1264.402
41.140	13.454	1670.936	1263.858
42.155	13.437	1669.343	1262.409
43.169	13.324	1668.094	1260.490
44.184	13.314	1666.914	1259.416
45.199	13.182	1666.115	1257.694
46.213	13.361	1664.271	1257.549
47.228	13.413	1663.014	1256.887
48.242	13.426	1661.871	1256.006
49.257	13.370	1660.878	1254.726
50.271	13.433	1659.865	1254.328
51.286	13.315	1659.245	1252.853
52.301	13.378	1657.109	1251.605
53.315	13.423	1655.276	1250.449
54.330	13.417	1654.040	1249.362
55.344	13.352	1652.589	1247.659
56.359	13.336	1651.080	1246.295
57.374	13.380	1650.073	1245.754
58.388	13.327	1648.714	1244.215
59.403	13.320	1647.096	1242.833
60.417	13.275	1645.885	1241.475
61.432	13.278	1644.726	1240.508
62.447	13.240	1643.568	1239.243
63.461	13.295	1642.463	1238.711
64.476	13.290	1640.893	1237.381
65.490	13.177	1639.889	1235.667
66.505	13.231	1638.830	1235.167
67.520	13.301	1637.542	1234.606
68.534	13.260	1636.822	1233.647
69.549	13.178	1635.940	1232.262
70.563	13.302	1634.015	1231.631
71.578	13.248	1633.008	1230.363
72.593	13.291	1631.376	1229.341
73.607	13.258	1630.573	1228.381
74.622	13.133	1629.613	1226.618
75.636	13.218	1628.271	1226.132
76.651	13.193	1628.051	1225.673
77.666	13.129	1627.447	1224.634
78.680	13.145	1625.825	1223.425
79.695	13.135	1625.318	1222.864
80.709	13.269	1623.774	1222.580
81.724	13.192	1622.951	1221.284
82.739	13.276	1621.928	1221.028
83.753	13.289	1620.790	1220.164
84.768	13.362	1619.806	1219.848
85.782	13.341	1619.753	1219.545
86.797	13.451	1618.592	1219.378
87.812	13.471	1617.143	1218.320
88.826	13.461	1615.989	1217.270
89.841	13.418	1615.020	1216.116
90.855	13.380	1614.482	1215.327
91.870	13.364	1613.048	1214.019
92.884	13.410	1612.409	1213.772
93.899	13.496	1610.525	1212.873
94.914	13.405	1610.011	1211.714
95.928	13.480	1609.064	1211.442
96.943	13.539	1607.434	1210.540
97.957	13.527	1606.015	1209.275
98.972	13.510	1604.329	1207.778
99.987	13.453	1602.940	1206.209
101.001	13.438	1601.615	1204.996
102.016	13.420	1599.998	1203.538
103.030	13.429	1598.763	1202.570
104.045	13.426	1597.744	1201.679
105.060	13.459	1596.558	1200.919
106.074	13.470	1594.682	1199.479
107.089	13.467	1592.986	1198.076
108.103	13.351	1591.998	1196.391
109.118	13.271	1590.384	1194.493
110.133	13.262	1588.927	1193.228
111.147	13.269	1587.563	1192.148
112.162	13.289	1586.130	1191.113
113.176	13.281	1585.043	1190.134
114.191	13.380	1582.996	1189.204
115.206	13.361	1582.160	1188.332
116.220	13.387	1580.613	1187.248
117.235	13.311	1579.642	1185.870
118.249	13.298	1578.084	1184.507
119.264	13.400	1576.463	1183.910
120.279	13.296	1575.633	1182.443
121.293	13.380	1574.328	1181.957
122.308	13.325	1572.698	1180.233
123.322	13.201	1571.096	1178.046
124.337	13.220	1570.118	1177.345
125.352	13.229	1568.646	1176.198
126.366	13.257	1567.187	1175.202
127.381	13.349	1565.523	1174.503
128.395	13.291	1564.854	1173.482
129.410	13.183	1563.630	1171.696
130.424	13.235	1561.579	1170.422
131.439	13.351	1560.395	1170.257
132.454	13.349	1559.397	1169.390
133.468	13.386	1558.152	1168.610
134.483	13.407	1556.235	1167.219
135.497	13.350	1555.082	1165.851
136.512	13.358	1553.926	1164.938
137.527	13.397	1552.601	1164.113
138.541	13.358	1551.164	1162.657
139.556	13.362	1549.996	1161.707
140.570	13.459	1548.323	1161.030
141.585	13.485	1547.119	1160.206
142.600	13.451	1546.135	1159.128
143.614	13.510	1544.753	1158.408
144.629	13.517	1543.968	1157.762
145.643	13.576	1541.546	1156.258
146.658	13.609	1540.610	1155.682
147.673	13.609	1539.458	1154.717
148.687	13.604	1538.116	1153.574
149.702	13.518	1536.724	1151.831
150.716	13.550	1534.772	1150.483
151.731	13.504	1533.396	1149.031
152.746	13.521	1532.578	1148.436
153.760	13.484	1531.037	1146.925
154.775	13.544	1529.837	1146.337
155.789	13.562	1528.479	1145.341
156.804	13.621	1526.880	1144.448
157.819	13.523	1526.016	1143.023
158.833	13.669	1524.698	1142.946
159.848	13.749	1523.420	1142.434
160.862	13.760	1522.194	1141.492
161.877	13.762	1520.834	1140.382
162.892	13.704	1519.872	1139.165
163.906	13.592	1518.734	1137.442
164.921	13.597	1517.325	1136.322
165.935	13.561	1515.988	1134.969
166.950	13.595	1514.812	1134.221
167.964	13.640	1513.735	1133.622
168.979	13.747	1512.655	1133.449
169.994	13.828	1511.618	1133.118
171.008	13.785	1510.563	1131.940
172.023	13.736	1509.713	1130.869
173.037	13.794	1508.461	1130.224
174.052	13.789	1507.512	1129.377
175.067	13.837	1506.617	1128.936
176.081	13.794	1505.041	1127.360
177.096	13.748	1503.918	1126.108
178.110	13.735	1502.399	1124.786
179.125	13.738	1501.658	1124.147
180.140	13.836	1500.396	1123.769
181.154	13.865	1499.410	1123.128
182.169	13.787	1497.860	1121.338
183.183	13.863	1496.916	1121.046
184.198	13.900	1495.722	1120.305
185.213	13.914	1494.821	1119.623
186.227	13.954	1494.005	1119.180
187.242	13.890	1493.139	1118.001
188.256	14.005	1491.404	1117.376
189.271	13.980	1490.327	1116.303
190.286	14.000	1489.789	1115.940
191.300	14.033	1488.753	1115.286
192.315	13.890	1487.094	1112.985
193.329	13.776	1486.144	1111.412
194.344	13.839	1484.985	1110.866
195.359	13.871	1484.066	1110.293
196.373	13.904	1482.723	1109.416
197.388	13.997	1482.156	1109.509
198.402	13.966	1480.510	1107.976
199.417	14.068	1479.157	1107.543
200.432	14.044	1478.667	1106.920
201.446	14.058	1477.601	1106.115
202.461	14.188	1476.457	1106.027
203.475	14.135	1475.384	1104.774
204.490	14.291	1474.080	1104.732
205.504	14.224	1472.881	1103.291
206.519	14.253	1471.851	1102.617
207.534	14.130	1470.802	1100.917
208.548	14.143	1469.435	1099.882
209.563	14.230	1468.234	1099.459
210.577	14.237	1467.486	1098.850
211.592	14.216	1466.765	1098.075
212.607	14.206	1466.007	1097.345
213.621	14.274	1465.422	1097.256
214.636	14.359	1464.072	1096.708
215.650	14.254	1463.740	1095.675
216.665	14.296	1462.448	1094.885
217.680	14.326	1461.722	1094.445
218.694	14.468	1460.463	1094.333
219.709	14.402	1460.205	1093.611
220.723	14.384	1458.923	1092.436
221.738	14.378	1457.976	1091.590
222.753	14.412	1457.160	1091.106
223.767	14.408	1456.204	1090.271
224.782	14.288	1455.416	1088.794
225.796	14.475	1454.269	1089.066
226.811	14.525	1453.477	1088.703
227.826	14.618	1452.377	1088.385
228.840	14.611	1451.706	1087.745
229.855	14.536	1450.757	1086.445
230.869	14.493	1449.900	1085.432
231.884	14.481	1448.938	1084.532
232.899	14.520	1447.827	1083.863
233.913	14.508	1446.323	1082.563
234.928	14.505	1444.958	1081.423
235.942	14.442	1444.049	1080.243
236.957	14.468	1443.088	1079.594
237.972	14.476	1441.730	1078.532
238.986	14.412	1441.183	1077.614
240.001	14.459	1440.042	1076.968
241.015	14.554	1438.461	1076.303
242.030	14.602	1437.212	1075.584
243.045	14.608	1436.427	1074.941
244.059	14.568	1435.802	1074.120
245.074	14.638	1434.880	1073.786
246.088	14.632	1434.256	1073.185
247.103	14.662	1433.253	1072.535
248.117	14.666	1432.648	1072.014
249.132	14.676	1431.679	1071.259
250.147	14.744	1431.107	1071.170
251.161	14.796	1430.079	1070.641
252.176	14.854	1429.630	1070.582
253.190	14.888	1428.920	1070.171
254.205	14.925	1427.712	1069.405
255.220	15.027	1426.765	1069.256
256.234	15.017	1426.040	1068.551
257.249	15.007	1425.078	1067.671
258.263	15.062	1424.036	1067.153
259.278	15.113	1423.219	1066.769
260.293	15.028	1422.364	1065.491
261.307	15.066	1421.709	1065.150
262.322	15.116	1420.998	1064.838
263.336	15.112	1420.536	1064.370
264.351	15.100	1419.367	1063.325
265.366	15.129	1418.361	1062.662
266.380	15.222	1417.340	1062.392
267.395	15.249	1416.221	1061.632
268.409	15.261	1415.530	1061.094
269.424	15.230	1414.720	1060.201
270.439	15.141	1413.801	1058.851
271.453	15.146	1412.992	1058.185
272.468	15.193	1411.771	1057.474
273.482	15.286	1410.834	1057.268
274.497	15.204	1410.180	1056.166
275.512	15.206	1409.383	1055.487
276.526	15.250	1408.483	1054.996
277.541	15.204	1407.446	1053.839
278.555	15.245	1406.819	1053.530
279.570	15.308	1405.346	1052.731
280.585	15.296	1404.814	1052.165
281.599	15.417	1403.468	1051.820
282.614	15.442	1402.852	1051.424
283.628	15.444	1401.541	1050.363
284.643	15.348	1400.848	1049.150
285.657	15.467	1399.283	1048.626
286.672	15.392	1398.965	1047.830
287.687	15.454	1397.995	1047.394
288.701	15.433	1396.762	1046.248
289.716	15.384	1396.452	1045.618
290.730	15.504	1395.425	1045.505
291.745	15.457	1394.141	1044.155
292.760	15.409	1393.221	1043.077
293.774	15.495	1392.172	1042.732
294.789	15.516	1391.213	1042.053
295.803	15.531	1390.839	1041.776
296.818	15.620	1389.589	1041.297
297.833	15.584	1388.614	1040.251
298.847	15.575	1387.480	1039.252
299.862	15.582	1386.928	1038.794
300.876	15.669	1385.315	1038.031
301.891	15.607	1384.871	1037.224
302.906	15.589	1384.456	1036.706
303.920	15.725	1383.614	1036.821
304.935	15.666	1383.204	1036.064
305.949	15.775	1381.625	1035.461
306.964	15.803	1380.661	1034.815
307.979	15.857	1380.083	1034.623
308.993	15.786	1379.433	1033.607
310.008	15.791	1378.166	1032.597
311.022	15.850	1377.377	1032.276
312.037	15.874	1376.225	1031.471
313.052	15.833	1375.101	1030.286
314.066	15.907	1374.094	1029.892
315.081	15.790	1373.782	1028.850
316.095	15.784	1371.964	1027.361
317.110	15.834	1370.952	1026.816
318.125	15.888	1369.843	1026.229
319.139	15.757	1369.626	1025.176
320.154	15.832	1368.669	1024.826
321.168	15.784	1368.084	1024.003
322.183	15.854	1366.534	1023.180
323.197	15.952	1365.533	1022.935
324.212	15.937	1364.565	1022.028
325.227	15.838	1364.482	1021.273
326.241	16.025	1362.720	1020.999
327.256	15.947	1362.215	1020.057
328.270	15.928	1361.320	1019.179
329.285	16.012	1360.591	1019.052
330.300	15.994	1359.547	1018.072
331.314	15.896	1358.869	1016.882
332.329	15.891	1358.087	1016.177
333.343	16.018	1357.038	1016.068
334.358	15.987	1356.228	1015.186
335.373	15.996	1355.514	1014.614
336.387	16.023	1354.615	1014.015
337.402	16.060	1353.817	1013.552
338.416	16.069	1353.358	1013.168
339.431	16.173	1352.452	1013.028
340.446	16.194	1351.788	1012.568
341.460	16.262	1350.390	1011.837
342.475	16.177	1349.666	1010.698
343.489	16.216	1348.872	1010.247
344.504	16.319	1347.543	1009.775
345.519	16.352	1346.959	1009.444
346.533	16.450	1345.865	1009.121
347.548	16.375	1344.934	1007.888
348.562	16.419	1344.082	1007.424
349.577	16.441	1343.649	1007.138
350.592	16.298	1342.850	1005.602
351.606	16.311	1342.245	1005.138
352.621	16.266	1340.760	1003.668
353.635	16.226	1339.956	1002.737
354.650	16.358	1339.202	1002.868
355.665	16.333	1337.877	1001.639
356.679	16.311	1336.733	1000.563
357.694	16.486	1335.511	1000.596
358.708	16.338	1334.880	999.161
359.723	16.489	1333.506	998.938
360.738	16.357	1333.083	997.751
361.752	16.508	1331.677	997.504
362.767	16.483	1330.401	996.310
363.781	16.509	1329.824	995.945
364.796	16.408	1329.200	994.793
365.810	16.525	1328.360	994.767
366.825	16.576	1327.725	994.499
367.840	16.675	1326.645	994.184
368.854	16.650	1325.984	993.453
369.869	16.754	1325.144	993.346
370.883	16.711	1324.906	992.829
371.898	16.650	1324.305	991.935
372.913	16.689	1323.293	991.319
373.927	16.632	1322.217	990.087
374.942	16.759	1321.039	989.862
375.956	16.716	1321.054	989.535
376.971	16.772	1319.829	988.857
377.986	16.800	1318.688	988.079
379.000	16.769	1318.052	987.332
380.015	16.827	1317.208	986.949
381.029	16.980	1316.553	987.266
382.044	16.884	1315.630	985.926
383.059	16.938	1315.066	985.728
384.073	16.965	1314.395	985.296
385.088	16.827	1314.350	984.372
386.102	16.910	1313.594	984.199
387.117	16.975	1312.656	983.787
388.132	17.003	1311.310	982.856
389.146	17.018	1310.209	982.030
390.161	16.990	1309.830	981.496
391.175	16.979	1309.093	980.794
392.190	16.926	1308.518	979.973
393.205	17.080	1307.240	979.817
394.219	17.055	1306.293	978.873
395.234	17.110	1305.071	978.191
396.248	17.079	1304.104	977.200
397.263	16.982	1302.612	975.439
398.278	17.003	1301.547	974.672
399.292	17.044	1300.567	974.091
400.307	16.986	1299.742	973.053
401.321	17.029	1298.173	972.041
402.336	16.911	1297.760	970.970
403.350	17.036	1296.589	970.720
404.365	17.147	1295.351	970.344
405.380	17.133	1294.145	969.273
406.394	17.136	1294.075	969.151
407.409	17.149	1293.311	968.566
408.423	17.153	1292.801	968.123
409.438	17.199	1292.228	967.869
410.453	17.337	1291.313	967.885
411.467	17.346	1290.015	966.875
412.482	17.374	1289.670	966.693
413.496	17.394	1289.160	966.339
414.511	17.322	1288.749	965.534
415.526	17.314	1287.793	964.687
416.540	17.346	1286.984	964.179
417.555	17.447	1286.155	964.044
418.569	17.514	1285.327	963.716
419.584	17.522	1285.029	963.457
420.599	17.478	1284.450	962.684
421.613	100.085	1359.730	1486.959
422.628	97.894	1370.656	1487.058
