DTS Sentinel unit serial number:	SN413079Multiplexer serial number:	ORYXHardware model number:	OX4-SRSoftware version number:	ORYX F/W v4.00 Oryx Data Collector v3.7.2.0data status	okinstallation	princeton_trtdifferential loss correction	single-endedforward channel	channel 4reverse channel	N/Adate	2019/09/15time	23:37:35forward acquisition time	60.00reverse acquisition time	0.00gamma	496.2192k internal	0.2321k external	0.2321temperature offset calibration	0.9961default loss term (dB/km)	0.3790temperature slope calibration	1.0000multiplexer offset coefficient	1.0000multiplexer slope coefficient	1.0000fibre end	0.00T internal ref (°C)	28.09T ext. ref 1 (°C)	9.23T ext. ref 2 (°C)	21.98length (m)	temperature (°C)	Stokes	anti-Stokes-747.200	-62.647	-0.240	-0.101
-746.185	-22.683	-0.288	0.176
-745.171	-200.000	0.039	-0.227
-744.156	309.551	-0.184	0.348
-743.142	-200.000	-0.005	0.037
-742.127	-168.433	0.188	-0.007
-741.112	178.517	0.161	-0.238
-740.098	-51.800	0.157	0.074
-739.083	800.000	-0.040	0.118
-738.069	193.876	-0.126	0.193
-737.054	481.119	-0.057	-0.130
-736.039	-200.000	-0.093	-0.525
-735.025	21.397	0.313	0.257
-734.010	-107.297	0.318	0.071
-732.996	-31.451	0.090	0.051
-731.981	-200.000	-0.083	-0.374
-730.966	169.842	-0.132	0.191
-729.952	-130.158	0.120	0.017
-728.937	49.447	-0.125	0.119
-727.923	-37.958	-0.181	0.097
-726.908	-116.662	0.262	0.049
-725.894	-200.000	0.003	0.230
-724.879	-117.863	0.116	-0.021
-723.864	44.849	0.052	-0.048
-722.850	-58.120	0.027	0.012
-721.835	125.780	0.009	-0.012
-720.821	799.679	0.036	0.100
-719.806	-79.396	-0.215	0.074
-718.791	93.233	0.270	0.308
-717.777	50.429	-0.382	-0.365
-716.762	-58.542	-0.373	0.164
-715.748	242.268	-0.251	-0.423
-714.733	132.970	0.216	-0.282
-713.718	90.187	0.226	-0.255
-712.704	85.341	0.070	-0.077
-711.689	56.680	-0.186	-0.183
-710.675	800.000	-0.081	-0.305
-709.660	58.028	-0.102	-0.101
-708.645	-58.223	-0.101	-0.044
-707.631	48.678	-0.298	-0.282
-706.616	40.089	-0.129	-0.117
-705.602	-112.340	-0.329	-0.067
-704.587	71.103	0.250	-0.262
-703.572	-75.445	-0.031	0.011
-702.558	-19.135	0.133	-0.083
-701.543	352.068	0.106	-0.213
-700.529	800.000	-0.076	-0.238
-699.514	728.458	-0.076	-0.205
-698.499	-47.622	0.402	-0.197
-697.485	-175.281	-0.220	-0.006
-696.470	-4.277	0.105	-0.074
-695.456	164.915	0.213	0.303
-694.441	-59.968	0.075	0.032
-693.426	-200.000	0.057	0.255
-692.412	-36.973	0.127	0.068
-691.397	-200.000	0.005	0.161
-690.383	-32.586	-0.244	0.137
-689.368	466.182	0.091	0.205
-688.354	122.155	-0.206	-0.259
-687.339	-132.293	-0.538	0.070
-686.324	-200.000	0.025	-0.178
-685.310	-124.512	0.324	0.051
-684.295	131.692	0.094	-0.122
-683.281	-149.884	0.248	0.020
-682.266	-200.000	0.001	0.059
-681.251	800.000	0.090	0.393
-680.237	23.461	-0.153	-0.127
-679.222	-81.010	-0.236	-0.079
-678.208	-80.183	0.035	0.012
-677.193	800.000	0.108	-0.336
-676.178	-22.364	-0.171	-0.104
-675.164	340.575	0.133	0.262
-674.149	-70.163	0.155	0.059
-673.135	-121.092	-0.436	0.074
-672.120	-200.000	-0.052	-0.451
-671.105	115.368	0.179	-0.221
-670.091	800.000	-0.052	-0.172
-669.076	-200.000	-0.004	0.243
-668.062	-200.000	-0.151	0.000
-667.047	-131.903	0.210	0.028
-666.032	-200.000	-0.035	-0.245
-665.018	-45.634	0.231	-0.115
-664.003	-200.000	-0.010	-0.186
-662.989	32.532	0.120	-0.105
-661.974	250.554	0.052	-0.089
-660.959	-200.000	0.036	-0.350
-659.945	-132.021	0.075	-0.010
-658.930	-200.000	-0.057	0.313
-657.916	-112.158	0.157	-0.032
-656.901	445.657	-0.047	-0.105
-655.886	-1.853	-0.257	-0.182
-654.872	595.820	-0.035	-0.086
-653.857	-28.972	-0.418	-0.242
-652.843	267.855	0.088	0.155
-651.828	-139.773	-0.123	0.013
-650.814	-0.202	-0.090	-0.064
-649.799	40.265	0.137	0.124
-648.784	145.524	-0.139	-0.187
-647.770	172.229	-0.153	-0.221
-646.755	-200.000	-0.016	0.099
-645.741	210.294	-0.292	-0.461
-644.726	148.097	-0.182	0.247
-643.711	-110.685	0.222	0.046
-642.697	131.825	0.076	-0.098
-641.682	-126.301	-0.099	-0.015
-640.668	-200.000	0.005	-0.296
-639.653	-62.740	0.161	-0.067
-638.638	-32.557	-0.196	0.110
-637.624	-27.467	0.019	0.011
-636.609	63.388	-0.026	0.027
-635.595	800.000	-0.079	0.249
-634.580	-142.224	-0.327	-0.033
-633.565	117.945	0.117	0.146
-632.551	-178.067	0.254	0.006
-631.536	800.000	0.019	0.079
-630.522	-32.008	-0.237	0.133
-629.507	-130.963	0.219	-0.029
-628.492	90.406	0.218	-0.246
-627.478	-53.645	0.152	0.070
-626.463	-4.781	-0.125	-0.086
-625.449	-146.151	-0.281	0.025
-624.434	-135.572	-0.381	-0.046
-623.419	-179.767	0.318	0.007
-622.405	92.283	-0.247	0.280
-621.390	69.783	-0.165	-0.171
-620.376	17.630	-0.145	-0.116
-619.361	43.261	-0.089	0.082
-618.346	38.976	0.313	0.281
-617.332	-200.000	0.023	-0.275
-616.317	57.695	-0.226	0.222
-615.303	-163.026	-0.084	-0.004
-614.288	-117.214	0.159	0.029
-613.273	800.000	0.070	-0.219
-612.259	203.805	0.204	0.318
-611.244	-26.629	-0.183	0.108
-610.230	55.493	0.240	0.233
-609.215	-79.626	-0.496	0.168
-608.201	123.952	-0.083	-0.105
-607.186	233.863	0.079	-0.130
-606.171	-118.795	-0.180	0.032
-605.157	-69.615	0.285	-0.110
-604.142	360.527	-0.127	-0.255
-603.128	800.000	-0.002	-0.010
-602.113	-200.000	0.077	0.441
-601.098	86.002	0.088	-0.097
-600.084	26.946	-0.227	-0.192
-599.069	-169.349	-0.315	0.012
-598.055	800.000	-0.092	0.289
-597.040	-153.247	0.343	-0.024
-596.025	-115.440	-0.081	0.015
-595.011	-59.171	-0.139	0.060
-593.996	417.836	0.097	-0.209
-592.982	-177.326	0.086	-0.002
-591.967	-200.000	0.047	-0.337
-590.952	800.000	-0.131	-0.474
-589.938	-77.096	-0.206	-0.072
-588.923	-200.000	0.061	0.305
-587.909	-200.000	0.035	-0.190
-586.894	-200.000	0.007	-0.135
-585.879	-173.128	0.169	-0.005
-584.865	124.040	0.166	0.209
-583.850	-144.757	-0.204	0.019
-582.836	52.402	0.033	0.031
-581.821	-137.758	0.458	0.052
-580.806	800.000	0.047	0.151
-579.792	655.336	-0.094	0.241
-578.777	70.305	0.098	0.102
-577.763	800.000	-0.045	0.136
-576.748	-200.000	-0.024	0.146
-575.733	40.393	-0.278	0.252
-574.719	-200.000	0.012	-0.228
-573.704	800.000	0.069	-0.244
-572.690	4.036	0.086	-0.063
-571.675	12.145	0.221	0.170
-570.661	-38.893	-0.104	-0.055
-569.646	37.383	0.285	-0.254
-568.631	800.000	-0.034	-0.108
-567.617	16.774	0.075	-0.059
-566.602	-143.649	-0.401	-0.038
-565.588	518.919	0.085	-0.199
-564.573	122.982	0.121	-0.152
-563.558	113.630	-0.116	0.141
-562.544	-200.000	-0.002	0.074
-561.529	85.897	0.196	-0.216
-560.515	-28.581	0.187	-0.108
-559.500	-87.192	-0.130	0.040
-558.485	556.131	-0.069	-0.168
-557.471	67.407	-0.087	-0.089
-556.456	261.426	-0.256	-0.444
-555.442	-200.000	-0.011	0.202
-554.427	68.022	0.100	0.102
-553.412	-116.652	-0.264	0.049
-552.398	-152.091	0.418	0.031
-551.383	-200.000	-0.026	-0.136
-550.369	-112.179	-0.251	0.051
-549.354	683.013	-0.031	-0.082
-548.339	-94.758	-0.053	0.014
-547.325	-114.301	-0.267	0.052
-546.310	24.976	-0.107	0.089
-545.296	-67.206	0.376	0.148
-544.281	-83.141	0.565	-0.182
-543.266	800.000	-0.044	0.154
-542.252	-104.352	0.260	-0.060
-541.237	137.149	0.166	0.218
-540.223	85.799	-0.055	0.061
-539.208	-82.946	0.306	-0.099
-538.193	800.000	0.139	-0.501
-537.179	110.516	-0.156	-0.188
-536.164	153.214	-0.117	0.161
-535.150	201.069	0.111	-0.171
-534.135	-77.836	0.372	-0.129
-533.121	339.818	0.105	0.205
-532.106	800.000	-0.070	-0.278
-531.091	-134.452	0.172	-0.021
-530.077	56.524	-0.140	0.137
-529.062	90.343	-0.212	0.238
-528.048	262.646	-0.103	-0.178
-527.033	-200.000	0.066	0.319
-526.018	-28.059	-0.385	-0.223
-525.004	72.636	0.076	-0.080
-523.989	-200.000	-0.057	-0.252
-522.975	36.305	-0.172	-0.152
-521.960	-200.000	0.006	-0.181
-520.945	148.299	0.310	-0.419
-519.931	800.000	-0.045	-0.169
-518.916	800.000	-0.068	-0.263
-517.902	16.198	0.193	0.152
-516.887	315.390	0.124	0.235
-515.872	62.663	-0.112	-0.112
-514.858	-56.647	-0.205	-0.091
-513.843	-131.374	-0.241	0.032
-512.829	-94.698	0.125	0.034
-511.814	-51.619	-0.153	-0.071
-510.799	171.229	0.065	-0.093
-509.785	-164.831	-0.124	-0.006
-508.770	134.679	-0.025	-0.032
-507.756	139.407	-0.070	0.092
-506.741	800.000	0.043	-0.133
-505.726	-20.182	-0.196	-0.121
-504.712	-122.168	-0.226	0.037
-503.697	-171.191	-0.209	-0.007
-502.683	103.581	-0.177	-0.208
-501.668	-0.328	-0.154	-0.109
-500.653	800.000	0.116	0.328
-499.639	-95.606	0.024	0.006
-498.624	641.657	-0.186	0.474
-497.610	-143.712	0.117	0.011
-496.595	800.000	-0.046	0.154
-495.581	49.784	-0.146	0.138
-494.566	-121.949	-0.094	0.015
-493.551	555.914	0.056	0.136
-492.537	-49.810	-0.337	-0.160
-491.522	182.132	0.145	0.214
-490.508	-100.538	-0.352	-0.087
-489.493	-200.000	-0.054	0.317
-488.478	558.982	-0.033	-0.079
-487.464	-200.000	-0.049	-0.379
-486.449	-61.824	0.354	-0.148
-485.435	-200.000	-0.002	0.270
-484.420	414.110	-0.091	0.194
-483.405	-12.096	0.043	-0.028
-482.391	-200.000	-0.025	0.145
-481.376	40.182	0.111	-0.100
-480.362	-121.827	0.187	0.031
-479.347	-6.592	-0.244	0.166
-478.332	69.306	0.185	-0.191
-477.318	-200.000	-0.016	0.169
-476.303	-22.848	-0.370	-0.223
-475.289	33.237	0.192	0.166
-474.274	800.000	0.027	0.076
-473.259	-136.126	0.274	0.032
-472.245	67.409	0.197	-0.201
-471.230	-200.000	0.005	-0.145
-470.216	143.392	-0.113	-0.151
-469.201	-20.901	-0.359	0.220
-468.186	46.587	0.295	0.274
-467.172	-9.188	-0.332	-0.222
-466.157	-200.000	0.004	-0.188
-465.143	19.447	0.135	0.108
-464.128	-65.485	-0.224	-0.090
-463.113	-200.000	-0.036	-0.174
-462.099	-26.889	0.210	-0.123
-461.084	31.505	-0.154	0.132
-460.070	-86.751	-0.033	-0.010
-459.055	-130.452	0.106	0.014
-458.040	45.762	-0.054	-0.050
-457.026	104.214	0.079	-0.093
-456.011	304.822	-0.163	0.302
-454.997	258.930	0.072	-0.124
-453.982	-37.378	-0.434	-0.232
-452.968	108.296	0.108	0.129
-451.953	-90.557	-0.321	0.093
-450.938	103.574	0.142	0.167
-449.924	-142.067	-0.331	0.033
-448.909	560.883	-0.102	-0.245
-447.895	-200.000	-0.037	-0.303
-446.880	53.477	-0.244	-0.234
-445.865	2.330	-0.198	0.143
-444.851	-26.250	-0.205	-0.120
-443.836	-129.179	-0.330	-0.046
-442.822	-200.000	-0.023	0.160
-441.807	-75.693	0.297	0.105
-440.792	-200.000	-0.048	0.257
-439.778	223.874	0.047	-0.076
-438.763	-200.000	0.025	0.414
-437.749	-36.301	-0.174	0.094
-436.734	-200.000	0.022	0.342
-435.719	139.053	-0.162	0.213
-434.705	800.000	-0.088	-0.245
-433.690	800.000	0.049	0.137
-432.676	-200.000	-0.040	-0.238
-431.661	-102.434	-0.130	-0.031
-430.646	-52.688	-0.027	0.012
-429.632	681.350	-0.040	0.105
-428.617	-111.905	-0.266	-0.054
-427.603	-160.460	0.106	-0.006
-426.588	-70.944	0.274	-0.103
-425.573	-110.704	0.207	-0.043
-424.559	-135.891	0.239	-0.028
-423.544	195.103	-0.143	-0.216
-422.530	63.728	0.046	-0.047
-421.515	32.148	0.268	0.230
-420.500	167.412	0.111	-0.158
-419.486	-109.216	0.222	0.047
-418.471	-200.000	-0.040	0.175
-417.457	-114.604	-0.108	-0.021
-416.442	-200.000	-0.446	-0.002
-415.428	541.652	0.029	0.069
-414.413	48.593	0.181	-0.169
-413.398	-158.442	0.174	0.010
-412.384	504.158	0.101	0.233
-411.369	68.645	-0.045	-0.046
-410.355	-76.093	0.181	-0.064
-409.340	119.690	-0.067	0.083
-408.325	-149.797	-0.143	0.011
-407.311	152.851	0.213	0.290
-406.296	40.675	0.059	-0.053
-405.282	-46.615	0.289	0.141
-404.267	-92.644	0.285	0.080
-403.252	391.238	-0.033	0.068
-402.238	-200.000	-0.004	-0.088
-401.223	-200.000	0.005	0.059
-400.209	-200.000	-0.023	0.141
-399.194	-146.601	0.238	0.021
-398.179	-81.783	-0.247	0.081
-397.165	212.854	-0.002	0.004
-396.150	-107.189	-0.173	-0.038
-395.136	-176.076	0.129	0.003
-394.121	800.000	-0.044	-0.150
-393.106	800.000	0.150	-0.598
-392.092	-200.000	-0.012	0.103
-391.077	22.205	-0.061	-0.049
-390.063	-76.496	0.117	0.041
-389.048	800.000	0.050	0.175
-388.033	-200.000	0.034	0.166
-387.019	63.622	-0.150	0.150
-386.004	-84.504	0.191	-0.060
-384.990	-200.000	-0.004	-0.045
-383.975	800.000	0.020	0.082
-382.960	763.291	-0.039	-0.106
-381.946	445.880	0.073	-0.159
-380.931	315.529	0.093	0.176
-379.917	-200.000	-0.029	0.228
-378.902	558.351	-0.084	-0.202
-377.888	-200.000	-0.027	0.193
-376.873	-200.000	-0.006	-0.029
-375.858	43.554	0.090	0.082
-374.844	-118.120	-0.199	0.035
-373.829	-143.664	-0.332	0.031
-372.815	-200.000	0.010	-0.075
-371.800	39.865	-0.112	-0.100
-370.785	143.499	-0.152	0.201
-369.771	-87.151	0.137	-0.041
-368.756	-26.432	0.252	0.147
-367.742	-200.000	-0.011	0.166
-366.727	-70.174	0.134	0.051
-365.712	-57.454	-0.035	-0.015
-364.698	-200.000	-0.080	-0.376
-363.683	-105.914	-0.045	0.010
-362.669	-13.790	-0.235	0.151
-361.654	-200.000	0.040	-0.295
-360.639	-200.000	-0.023	0.138
-359.625	800.000	0.035	0.145
-358.610	96.862	0.065	-0.074
-357.596	223.211	-0.040	0.065
-356.581	-200.000	-0.026	0.219
-355.566	800.000	-0.046	-0.129
-354.552	800.000	0.113	-0.380
-353.537	800.000	-0.015	-0.059
-352.523	-26.342	0.040	-0.023
-351.508	-200.000	-0.049	0.221
-350.493	-125.711	-0.487	0.073
-349.479	-200.000	0.013	0.060
-348.464	24.517	0.277	-0.228
-347.450	312.096	-0.135	-0.252
-346.435	582.051	0.090	0.219
-345.420	-162.841	-0.105	-0.005
-344.406	-31.802	-0.227	-0.127
-343.391	94.703	-0.187	0.211
-342.377	-76.812	-0.164	0.057
-341.362	-25.961	0.103	-0.060
-340.348	40.744	0.134	-0.120
-339.333	-53.354	0.219	-0.100
-338.318	-200.000	0.067	-0.300
-337.304	-200.000	0.004	0.018
-336.289	800.000	-0.038	-0.130
-335.275	57.221	-0.200	0.194
-334.260	800.000	-0.056	0.206
-333.245	800.000	-0.084	0.330
-332.231	800.000	0.047	0.184
-331.216	-54.981	-0.184	-0.082
-330.202	-100.464	0.078	-0.019
-329.187	-129.223	-0.136	-0.019
-328.172	-154.643	-0.287	0.019
-327.158	800.000	-0.027	-0.101
-326.143	64.791	0.190	-0.190
-325.129	800.000	0.054	0.191
-324.114	387.835	0.188	-0.387
-323.099	-168.996	0.090	0.003
-322.085	-192.734	-0.111	0.001
-321.070	-5.050	-0.510	0.349
-320.056	268.945	-0.085	-0.149
-319.041	224.190	-0.145	0.233
-318.026	-79.451	0.314	0.106
-317.012	50.532	0.067	0.063
-315.997	-200.000	-0.007	0.060
-314.983	105.052	-0.219	0.257
-313.968	-200.000	-0.004	-0.141
-312.953	-11.581	0.172	0.112
-311.939	360.075	-0.072	0.144
-310.924	800.000	0.150	0.415
-309.910	67.563	-0.187	0.190
-308.895	-63.953	0.165	0.067
-307.880	-125.562	0.184	0.028
-306.866	-191.337	0.155	0.002
-305.851	147.494	0.184	0.246
-304.837	-200.000	0.003	-0.059
-303.822	-144.947	-0.316	-0.029
-302.807	-126.212	0.066	0.010
-301.793	-25.091	0.201	0.118
-300.778	665.368	0.014	0.037
-299.764	-25.521	0.299	0.176
-298.749	375.773	0.059	0.119
-297.735	713.847	0.081	-0.214
-296.720	330.156	0.039	-0.074
-295.705	256.047	0.152	0.259
-294.691	800.000	-0.110	0.347
-293.676	41.801	0.241	-0.217
-292.662	-162.644	0.090	-0.004
-291.647	-150.013	0.065	0.005
-290.632	-200.000	0.027	-0.255
-289.618	23.174	-0.104	-0.085
-288.603	9.838	-0.201	0.152
-287.589	-200.000	-0.017	0.261
-286.574	800.000	-0.034	-0.104
-285.559	585.196	0.082	-0.199
-284.545	-49.282	0.168	-0.080
-283.530	-143.888	0.185	0.017
-282.516	93.069	0.202	-0.226
-281.501	-200.000	0.051	-0.285
-280.486	-200.000	-0.012	-0.403
-279.472	120.193	0.142	0.175
-278.457	-147.230	-0.285	0.024
-277.443	-146.936	-0.110	-0.009
-276.428	-58.556	0.326	-0.140
-275.413	320.060	0.141	-0.266
-274.399	-101.884	0.498	-0.119
-273.384	-102.305	-0.460	0.110
-272.370	-200.000	0.000	0.205
-271.355	-76.683	0.348	-0.121
-270.340	-132.102	0.173	0.022
-269.326	-200.000	0.013	-0.435
-268.311	800.000	0.098	-0.284
-267.297	109.107	-0.223	0.265
-266.282	800.000	0.054	-0.161
-265.267	710.824	0.049	0.130
-264.253	356.958	0.058	-0.116
-263.238	231.978	-0.112	0.182
-262.224	425.848	0.049	-0.105
-261.209	-23.205	0.381	-0.227
-260.195	-34.596	0.134	0.073
-259.180	-200.000	0.017	-0.113
-258.165	81.020	-0.165	-0.176
-257.151	176.334	0.109	0.157
-256.136	67.749	0.274	0.278
-255.122	90.253	-0.182	0.202
-254.107	-163.885	-0.316	-0.015
-253.092	-200.000	-0.046	-0.279
-252.078	-97.951	-0.068	-0.017
-251.063	32.187	-0.273	-0.233
-250.049	39.241	0.041	-0.036
-249.034	-112.006	0.105	-0.021
-248.019	-132.667	0.204	-0.026
-247.005	-129.237	-0.336	0.046
-245.990	-200.000	-0.011	0.424
-244.976	147.533	-0.138	0.184
-243.961	-3.016	-0.190	-0.132
-242.946	-11.542	0.073	-0.047
-241.932	-48.050	-0.284	0.136
-240.917	210.384	-0.078	0.122
-239.903	800.000	-0.054	0.171
-238.888	101.715	-0.109	0.126
-237.873	-56.758	0.222	0.097
-236.859	-167.655	0.154	0.006
-235.844	-55.519	0.186	0.083
-234.830	185.183	-0.054	0.080
-233.815	-155.887	0.338	-0.021
-232.800	-38.107	0.176	0.092
-231.786	264.145	0.190	0.328
-230.771	800.000	0.033	0.123
-229.757	-183.721	0.531	-0.009
-228.742	-33.857	0.267	-0.146
-227.727	-94.403	0.268	0.072
-226.713	-23.018	0.093	0.056
-225.698	-11.108	0.102	0.067
-224.684	456.676	-0.097	0.213
-223.669	-25.790	-0.325	0.190
-222.655	-165.840	0.362	0.015
-221.640	69.204	0.467	-0.475
-220.625	-115.151	0.212	0.040
-219.611	-117.266	-0.203	0.036
-218.596	1.153	-0.190	0.135
-217.582	142.420	0.258	-0.339
-216.567	-24.396	0.026	-0.015
-215.552	469.830	0.105	0.233
-214.538	-21.075	-0.274	-0.166
-213.523	-200.000	-0.006	0.131
-212.509	-97.600	0.168	-0.043
-211.494	331.876	-0.109	-0.208
-210.479	94.943	-0.113	0.128
-209.465	-77.151	-0.147	0.051
-208.450	-200.000	0.067	-0.419
-207.436	-163.940	-0.182	-0.008
-206.421	-200.000	0.046	0.211
-205.406	-200.000	-0.002	0.277
-204.392	-200.000	-0.003	0.107
-203.377	-50.671	0.299	-0.139
-202.363	69.523	0.128	-0.130
-201.348	-63.503	-0.135	-0.055
-200.333	7.797	-0.189	-0.140
-199.319	-102.106	-0.081	-0.019
-198.304	-200.000	-0.039	0.187
-197.290	102.106	0.286	0.330
-196.275	-191.409	0.175	0.002
-195.260	609.009	-0.129	0.318
-194.246	800.000	0.021	-0.087
-193.231	-181.342	0.186	-0.004
-192.217	-200.000	0.023	0.202
-191.202	800.000	-0.043	0.158
-190.187	-200.000	0.005	0.181
-189.173	125.614	-0.217	0.272
-188.158	800.000	0.038	-0.105
-187.144	800.000	0.079	0.310
-186.129	-98.469	-0.346	-0.087
-185.114	184.242	-0.156	-0.228
-184.100	220.406	-0.151	-0.240
-183.085	133.965	0.056	-0.072
-182.071	672.873	0.047	0.119
-181.056	800.000	-0.068	0.230
-180.042	32.558	-0.241	-0.206
-179.027	-6.074	0.142	-0.096
-178.012	-200.000	0.038	0.166
-176.998	-10.958	-0.266	-0.174
-175.983	-111.144	0.252	0.051
-174.969	800.000	-0.074	-0.307
-173.954	-200.000	-0.035	-0.231
-172.939	-45.412	-0.047	0.023
-171.925	-92.267	0.240	0.067
-170.910	257.392	-0.161	-0.273
-169.896	34.337	0.141	-0.121
-168.881	284.791	-0.042	-0.076
-167.866	29.215	0.359	-0.301
-166.852	-111.103	0.308	-0.062
-165.837	-200.000	0.026	-0.372
-164.823	-200.000	0.088	-0.451
-163.808	30.757	0.187	-0.159
-162.793	129.243	-0.275	-0.347
-161.779	55.696	-0.074	0.071
-160.764	-1.096	-0.250	0.174
-159.750	-158.389	-0.192	-0.011
-158.735	-200.000	-0.042	0.220
-157.720	-200.000	-0.025	0.140
-156.706	-200.000	-0.005	0.076
-155.691	130.881	-0.013	-0.017
-154.677	-43.592	-0.233	-0.116
-153.662	-200.000	0.041	0.474
-152.647	-124.231	0.252	0.039
-151.633	-67.001	0.191	-0.074
-150.618	-20.411	-0.201	-0.122
-149.604	37.603	-0.178	-0.156
-148.589	-48.466	0.117	-0.055
-147.574	800.000	0.069	0.209
-146.560	40.893	-0.128	-0.114
-145.545	41.258	-0.115	-0.102
-144.531	8.840	-0.032	0.024
-143.516	-7.075	0.358	0.240
-142.502	-200.000	-0.002	0.114
-141.487	-94.824	0.364	-0.097
-140.472	-127.393	0.227	0.033
-139.458	-3.765	-0.203	-0.139
-138.443	17.220	-0.314	-0.246
-137.429	-99.927	0.033	-0.008
-136.414	261.941	-0.132	-0.226
-135.399	-61.021	0.414	0.172
-134.385	-112.078	0.042	0.008
-133.370	-8.456	0.094	0.063
-132.356	152.155	0.219	-0.295
-131.341	-200.000	-0.011	0.181
-130.326	-71.054	0.149	-0.055
-129.312	177.838	-0.128	-0.185
-128.297	-148.683	-0.195	0.016
-127.283	-31.306	-0.185	0.103
-126.268	-60.152	0.229	-0.096
-125.253	-200.000	-0.026	-0.117
-124.239	-200.000	-0.006	0.082
-123.224	-95.524	0.117	-0.031
-122.210	800.000	0.086	0.297
-121.195	-124.196	-0.179	0.028
-120.180	310.074	-0.196	-0.362
-119.166	45.037	-0.116	0.105
-118.151	-200.000	0.029	-0.184
-117.137	437.806	-0.048	0.103
-116.122	34.608	0.139	0.119
-115.107	384.699	-0.096	-0.196
-114.093	775.496	-0.145	0.391
-113.078	381.006	0.110	-0.223
-112.064	-27.244	-0.029	-0.016
-111.049	99.907	-0.073	0.083
-110.034	-200.000	0.030	-0.400
-109.020	-102.404	0.120	0.028
-108.005	404.656	0.125	0.260
-106.991	-200.000	-0.012	0.195
-105.976	-200.000	-0.053	0.318
-104.962	21.226	0.161	0.129
-103.947	-72.059	-0.342	-0.125
-102.932	80.181	-0.128	-0.136
-101.918	-112.819	0.554	-0.108
-100.903	-60.391	0.263	0.110
-99.889	218.547	0.122	0.192
-98.874	-200.000	-0.010	-0.231
-97.859	800.000	0.050	-0.213
-96.845	73.452	0.296	0.305
-95.830	59.195	-0.128	0.124
-94.816	-92.481	0.037	-0.010
-93.801	82.140	-0.166	0.177
-92.786	386.907	-0.096	-0.195
-91.772	-67.393	0.322	-0.125
-90.757	-81.102	-0.308	-0.100
-89.743	-62.700	0.144	-0.059
-88.728	-72.517	-0.374	-0.136
-87.713	47.512	-0.152	0.140
-86.699	-133.410	0.219	0.027
-85.684	771.850	-0.097	-0.259
-84.670	15.418	-0.358	-0.277
-83.655	-61.961	0.200	-0.082
-82.640	-200.000	-0.004	-0.302
-81.626	-72.816	-0.411	-0.149
-80.611	-34.630	-0.191	-0.103
-79.597	-158.230	0.136	0.008
-78.582	-32.789	0.093	-0.051
-77.567	-175.066	0.067	-0.002
-76.553	-18.329	-0.043	0.027
-75.538	175.655	-0.117	-0.166
-74.524	155.541	-0.101	0.137
-73.509	0.615	-0.313	-0.221
-72.494	800.000	0.037	-0.111
-71.480	-200.000	-0.060	-0.343
-70.465	-8.579	0.244	0.161
-69.451	-83.201	-0.146	-0.046
-68.436	800.000	0.032	0.132
-67.422	56.819	0.262	0.252
-66.407	800.000	0.055	0.205
-65.392	4.379	-0.099	-0.071
-64.378	-82.882	0.194	-0.062
-63.363	233.582	0.236	0.383
-62.349	-25.362	-0.120	-0.070
-61.334	73.251	-0.897	-0.924
-60.319	121.852	0.608	0.746
-59.305	-200.000	0.036	-1.215
-58.290	402.750	0.610	1.263
-57.276	349.693	0.722	1.404
-56.261	-200.000	111.711	650.839
-55.246	487.546	1485.317	3334.890
-54.232	148.349	2653.857	3524.848
-53.217	97.377	2304.869	2603.490
-52.203	34.616	2056.549	1767.768
-51.188	29.830	1972.426	1652.755
-50.173	28.495	1955.977	1627.075
-49.159	47.170	2013.403	1843.351
-48.144	46.573	2029.456	1852.609
-47.130	30.430	1988.939	1671.731
-46.115	28.115	1978.614	1642.232
-45.100	28.013	1975.703	1638.834
-44.086	27.974	1973.574	1636.655
-43.071	27.888	1971.149	1633.809
-42.057	27.937	1969.006	1632.407
-41.042	27.933	1967.133	1630.750
-40.027	27.907	1965.530	1629.126
-39.013	28.012	1963.584	1628.388
-37.998	28.077	1961.812	1627.427
-36.984	28.011	1960.026	1625.294
-35.969	27.956	1958.162	1623.199
-34.954	28.068	1955.804	1622.173
-33.940	28.027	1955.295	1621.323
-32.925	28.121	1953.301	1620.435
-31.911	28.083	1951.669	1618.682
-30.896	28.131	1950.319	1617.927
-29.881	28.128	1948.590	1616.393
-28.867	28.128	1946.939	1614.963
-27.852	28.154	1945.291	1613.767
-26.838	28.163	1943.845	1612.576
-25.823	28.075	1942.038	1610.241
-24.809	28.178	1939.681	1609.128
-23.794	28.070	1938.273	1606.948
-22.779	28.164	1936.421	1606.174
-21.765	28.049	1935.058	1603.973
-20.750	28.073	1933.446	1602.783
-19.736	28.166	1931.585	1601.992
-18.721	28.085	1930.300	1600.149
-17.706	28.093	1928.744	1598.863
-16.692	28.149	1926.874	1597.742
-15.677	28.186	1925.275	1596.678
-14.663	28.119	1923.711	1594.731
-13.648	28.097	1922.679	1593.619
-12.633	28.063	1921.627	1592.388
-11.619	28.100	1920.585	1591.788
-10.604	28.099	1919.590	1590.885
-9.590	28.123	1917.600	1589.384
-8.575	28.074	1916.166	1587.705
-7.560	28.134	1914.792	1587.025
-6.546	28.167	1913.391	1586.091
-5.531	28.099	1911.979	1584.270
-4.517	28.006	1911.591	1583.075
-3.502	28.118	1909.923	1582.599
-2.487	28.064	1908.677	1581.038
-1.473	28.069	1908.175	1580.604
-0.458	28.107	1902.833	1576.446
0.556	25.710	1882.916	1547.880
1.571	21.499	1864.011	1496.271
2.586	17.567	1886.205	1479.858
3.600	16.548	1920.918	1497.938
4.615	16.358	1914.960	1491.488
5.629	14.695	1823.122	1405.843
6.644	11.429	1718.408	1299.016
7.659	9.421	1687.473	1259.811
8.673	9.235	1684.776	1256.235
9.688	9.309	1683.036	1255.403
10.702	9.225	1681.659	1253.610
11.717	9.132	1678.160	1250.165
12.731	9.306	1676.800	1250.402
13.746	11.883	1681.676	1274.002
14.761	15.396	1689.853	1307.503
15.775	17.243	1691.654	1323.170
16.790	17.006	1689.487	1319.515
17.804	15.844	1686.759	1308.244
18.819	14.879	1683.744	1298.301
19.834	14.308	1680.349	1291.138
20.848	13.906	1678.566	1286.543
21.863	13.646	1677.583	1283.665
22.877	13.422	1675.711	1280.383
23.892	13.245	1674.068	1277.643
24.907	13.078	1673.355	1275.696
25.921	13.112	1672.126	1274.910
26.936	13.094	1671.375	1274.091
27.950	13.035	1670.487	1272.842
28.965	13.140	1669.547	1272.821
29.980	13.189	1668.817	1272.530
30.994	13.242	1668.071	1272.261
32.009	13.359	1666.460	1271.815
33.023	13.425	1665.509	1271.485
34.038	13.430	1665.036	1271.048
35.053	13.322	1663.869	1269.214
36.067	13.305	1662.423	1267.870
37.082	13.225	1661.617	1266.533
38.096	13.251	1660.311	1265.624
39.111	13.262	1659.584	1265.038
40.126	13.345	1658.863	1265.017
41.140	13.379	1657.340	1264.001
42.155	13.267	1656.397	1262.314
43.169	13.167	1655.085	1260.442
44.184	13.120	1653.754	1258.958
45.199	13.078	1652.381	1257.481
46.213	13.082	1651.149	1256.459
47.228	13.122	1650.185	1255.925
48.242	13.143	1648.774	1254.899
49.257	13.166	1648.208	1254.530
50.271	13.220	1646.602	1253.605
51.286	13.191	1645.092	1252.123
52.301	13.128	1643.926	1250.652
53.315	13.206	1642.609	1250.128
54.330	13.272	1640.682	1249.051
55.344	13.114	1639.212	1246.630
56.359	13.055	1637.849	1245.037
57.374	13.152	1636.438	1244.580
58.388	13.149	1635.079	1243.417
59.403	13.060	1634.656	1242.316
60.417	13.091	1632.803	1241.027
61.432	13.145	1631.533	1240.360
62.447	13.011	1630.671	1238.586
63.461	12.889	1629.881	1236.966
64.476	12.967	1628.804	1236.620
65.490	12.996	1627.512	1235.753
66.505	12.884	1626.166	1233.777
67.520	12.996	1625.127	1233.718
68.534	12.996	1624.064	1232.803
69.549	12.994	1622.822	1231.741
70.563	12.987	1622.152	1231.067
71.578	13.016	1620.909	1230.234
72.593	12.941	1619.634	1228.594
73.607	12.901	1618.846	1227.595
74.622	12.953	1616.935	1226.424
75.636	12.863	1616.726	1225.483
76.651	12.940	1615.456	1224.984
77.666	12.894	1615.119	1224.283
78.680	12.857	1613.931	1222.997
79.695	12.876	1613.228	1222.498
80.709	12.961	1612.526	1222.485
81.724	12.988	1611.178	1221.556
82.739	12.991	1610.233	1220.758
83.753	13.154	1609.234	1221.096
84.768	13.141	1608.431	1220.279
85.782	13.149	1608.341	1220.162
86.797	13.245	1607.154	1219.865
87.812	13.197	1606.960	1219.250
88.826	13.310	1604.592	1218.179
89.841	13.163	1603.668	1216.290
90.855	13.210	1603.043	1216.052
91.870	13.243	1601.694	1215.168
92.884	13.278	1600.777	1214.620
93.899	13.254	1600.012	1213.757
94.914	13.257	1598.602	1212.603
95.928	13.358	1596.927	1211.965
96.943	13.352	1596.189	1211.252
97.957	13.306	1594.703	1209.677
98.972	13.274	1592.806	1207.899
99.987	13.288	1591.145	1206.637
101.001	13.210	1589.965	1205.069
102.016	13.225	1588.487	1203.946
103.030	13.114	1587.413	1202.217
104.045	13.269	1585.964	1202.140
105.060	13.188	1584.725	1200.511
106.074	13.169	1583.249	1199.145
107.089	13.216	1581.436	1198.011
108.103	13.032	1580.142	1195.591
109.118	13.064	1578.554	1194.513
110.133	13.079	1577.049	1193.376
111.147	12.950	1576.272	1191.749
112.162	13.015	1574.381	1190.688
113.176	13.074	1572.786	1189.800
114.191	13.038	1572.100	1188.913
115.206	13.139	1570.954	1188.673
116.220	13.117	1569.688	1187.450
117.235	13.198	1567.501	1186.271
118.249	13.108	1566.659	1184.881
119.264	13.039	1565.645	1183.520
120.279	13.081	1563.694	1182.238
121.293	13.079	1562.057	1180.883
122.308	13.030	1560.803	1179.478
123.322	12.982	1559.552	1178.088
124.337	13.004	1557.555	1176.629
125.352	12.942	1556.614	1175.376
126.366	13.006	1555.541	1174.917
127.381	12.967	1554.588	1173.813
128.395	12.980	1553.353	1172.868
129.410	13.012	1551.632	1171.696
130.424	12.998	1550.319	1170.498
131.439	13.094	1549.272	1170.284
132.454	13.022	1548.116	1168.800
133.468	13.163	1545.693	1167.864
134.483	13.129	1545.080	1167.060
135.497	13.187	1543.478	1166.157
136.512	13.146	1542.451	1164.988
137.527	13.118	1540.895	1163.511
138.541	13.138	1539.790	1162.714
139.556	13.049	1538.350	1160.899
140.570	13.135	1537.090	1160.445
141.585	13.264	1535.844	1160.310
142.600	13.326	1534.127	1159.343
143.614	13.232	1533.560	1158.154
144.629	13.282	1532.419	1157.544
145.643	13.456	1530.710	1157.363
146.658	13.478	1529.322	1156.367
147.673	13.416	1527.889	1154.748
148.687	13.329	1526.080	1152.676
149.702	13.285	1525.017	1151.465
150.716	13.346	1523.260	1150.460
151.731	13.289	1522.016	1149.016
152.746	13.306	1520.681	1148.027
153.760	13.276	1519.057	1146.492
154.775	13.370	1517.970	1146.222
155.789	13.299	1517.278	1145.105
156.804	13.386	1515.367	1144.162
157.819	13.455	1514.358	1143.778
158.833	13.376	1513.552	1142.522
159.848	13.415	1512.324	1141.767
160.862	13.516	1510.879	1141.265
161.877	13.593	1510.017	1141.049
162.892	13.400	1508.920	1138.787
163.906	13.400	1507.261	1137.438
164.921	13.568	1505.226	1136.954
165.935	13.357	1505.020	1135.251
166.950	13.391	1503.805	1134.463
167.964	13.464	1502.696	1134.024
168.979	13.415	1501.751	1132.877
169.994	13.478	1500.694	1132.414
171.008	13.415	1499.496	1130.974
172.023	13.488	1498.716	1130.787
173.037	13.425	1497.416	1129.276
174.052	13.576	1496.172	1129.265
175.067	13.596	1494.910	1128.350
176.081	13.524	1493.957	1127.043
177.096	13.495	1493.130	1126.118
178.110	13.427	1491.342	1124.213
179.125	13.424	1490.198	1123.231
180.140	13.490	1489.359	1122.946
181.154	13.551	1488.304	1122.461
182.169	13.540	1487.663	1121.805
183.183	13.571	1486.297	1120.884
184.198	13.609	1485.263	1120.263
185.213	13.684	1484.065	1119.767
186.227	13.786	1482.896	1119.476
187.242	13.689	1482.098	1118.118
188.256	13.715	1481.103	1117.448
189.271	13.766	1480.221	1117.028
190.286	13.818	1478.886	1116.266
191.300	13.802	1477.445	1114.976
192.315	13.621	1476.307	1112.804
193.329	13.497	1475.448	1111.220
194.344	13.417	1473.691	1109.263
195.359	13.510	1472.779	1109.108
196.373	13.587	1471.918	1108.870
197.388	13.695	1471.006	1108.813
198.402	13.673	1469.998	1107.802
199.417	13.761	1468.707	1107.320
200.432	13.834	1467.637	1106.902
201.446	13.928	1466.915	1106.891
202.461	13.974	1465.965	1106.377
203.475	13.938	1464.548	1104.974
204.490	14.034	1463.504	1104.722
205.504	13.964	1462.570	1103.457
206.519	13.947	1460.849	1101.947
207.534	13.968	1459.822	1101.219
208.548	13.883	1458.792	1099.781
209.563	13.835	1458.039	1098.798
210.577	13.860	1457.032	1098.107
211.592	13.923	1456.167	1097.769
212.607	13.943	1455.269	1097.132
213.621	14.043	1454.451	1097.075
214.636	14.056	1453.629	1096.447
215.650	14.010	1452.645	1095.305
216.665	14.056	1452.102	1095.101
217.680	14.017	1451.266	1094.114
218.694	14.180	1450.487	1094.506
219.709	14.286	1449.009	1093.985
220.723	14.168	1448.463	1092.703
221.738	14.135	1447.728	1091.834
222.753	14.162	1446.619	1091.079
223.767	14.110	1445.598	1089.874
224.782	14.225	1444.645	1089.812
225.796	14.207	1443.798	1088.959
226.811	14.238	1443.102	1088.541
227.826	14.368	1441.674	1088.216
228.840	14.263	1441.139	1087.028
229.855	14.249	1440.490	1086.350
230.869	14.165	1439.613	1085.047
231.884	14.124	1438.788	1084.062
232.899	14.243	1437.215	1083.558
233.913	14.174	1435.970	1082.075
234.928	14.139	1435.023	1081.033
235.942	14.182	1433.635	1080.172
236.957	14.152	1432.204	1078.803
237.972	14.147	1431.250	1077.962
238.986	14.116	1430.274	1076.927
240.001	14.229	1429.565	1077.031
241.015	14.161	1428.545	1075.725
242.030	14.207	1427.161	1074.884
243.045	14.245	1426.377	1074.443
244.059	14.213	1426.074	1073.915
245.074	14.291	1424.486	1073.124
246.088	14.327	1423.876	1072.804
247.103	14.425	1423.096	1072.754
248.117	14.339	1422.283	1071.491
249.132	14.509	1421.742	1072.086
250.147	14.521	1420.891	1071.423
251.161	14.589	1419.847	1070.981
252.176	14.797	1419.313	1071.813
253.190	14.824	1418.667	1071.403
254.205	14.707	1418.483	1070.421
255.220	14.683	1417.488	1069.424
256.234	14.823	1416.726	1069.647
257.249	14.731	1415.727	1068.213
258.263	14.797	1415.119	1068.081
259.278	14.826	1413.913	1067.258
260.293	14.873	1412.711	1066.555
261.307	14.800	1411.960	1065.434
262.322	14.905	1410.974	1065.264
263.336	14.897	1410.515	1064.772
264.351	14.946	1409.467	1064.200
265.366	14.930	1408.286	1063.107
266.380	14.904	1407.824	1062.504
267.395	15.017	1406.320	1061.989
268.409	14.928	1405.796	1060.937
269.424	15.027	1404.084	1060.178
270.439	14.929	1403.821	1059.265
271.453	14.944	1402.496	1058.264
272.468	14.995	1401.888	1058.036
273.482	14.871	1401.324	1056.729
274.497	14.932	1400.215	1056.189
275.512	14.937	1399.360	1055.479
276.526	14.976	1398.259	1054.801
277.541	15.020	1397.240	1054.217
278.555	15.037	1396.824	1053.921
279.570	14.991	1395.889	1052.832
280.585	15.003	1394.939	1052.098
281.599	15.030	1394.352	1051.726
282.614	15.054	1393.667	1051.273
283.628	15.052	1392.170	1050.037
284.643	15.159	1390.719	1049.518
285.657	15.135	1389.832	1048.609
286.672	15.080	1388.879	1047.451
287.687	15.126	1387.718	1046.770
288.701	14.982	1386.911	1045.170
289.716	15.121	1386.259	1045.454
290.730	15.213	1385.368	1045.262
291.745	15.116	1384.144	1043.644
292.760	15.187	1383.185	1043.268
293.774	15.243	1382.263	1042.829
294.789	15.233	1381.185	1041.862
295.803	15.316	1380.456	1041.735
296.818	15.327	1379.828	1041.237
297.833	15.327	1378.719	1040.305
298.847	15.274	1377.629	1039.065
299.862	15.230	1377.133	1038.326
300.876	15.304	1376.251	1038.027
301.891	15.390	1375.000	1037.526
302.906	15.413	1374.307	1037.049
303.920	15.383	1373.442	1036.119
304.935	15.448	1372.746	1035.906
305.949	15.505	1372.028	1035.623
306.964	15.503	1371.505	1035.127
307.979	15.549	1370.331	1034.433
308.993	15.618	1368.940	1033.717
310.008	15.636	1367.808	1032.877
311.022	15.581	1367.169	1031.969
312.037	15.638	1366.001	1031.342
313.052	15.596	1365.273	1030.442
314.066	15.561	1364.869	1029.837
315.081	15.515	1363.492	1028.421
316.095	15.502	1362.100	1027.200
317.110	15.563	1361.068	1026.709
318.125	15.452	1360.144	1025.239
319.139	15.415	1359.835	1024.693
320.154	15.460	1358.579	1023.927
321.168	15.502	1357.408	1023.211
322.183	15.437	1356.756	1022.230
323.197	15.468	1355.842	1021.642
324.212	15.536	1354.724	1021.124
325.227	15.578	1353.997	1020.740
326.241	15.621	1352.890	1020.076
327.256	15.636	1352.479	1019.765
328.270	15.644	1350.963	1018.584
329.285	15.627	1350.530	1018.064
330.300	15.610	1349.536	1017.120
331.314	15.557	1348.904	1016.231
332.329	15.684	1347.820	1016.091
333.343	15.618	1346.727	1014.783
334.358	15.686	1345.847	1014.437
335.373	15.715	1345.211	1014.045
336.387	15.731	1344.748	1013.701
337.402	15.816	1343.754	1013.378
338.416	15.745	1343.397	1012.590
339.431	15.830	1342.535	1012.362
340.446	15.862	1341.782	1011.893
341.460	15.889	1341.082	1011.439
342.475	15.979	1340.241	1011.258
343.489	15.989	1339.293	1010.516
344.504	15.982	1338.432	1009.729
345.519	16.029	1337.194	1008.988
346.533	16.133	1336.115	1008.707
347.548	16.061	1335.640	1007.827
348.562	16.072	1334.797	1007.170
349.577	16.209	1333.836	1007.172
350.592	16.147	1333.091	1006.153
351.606	16.111	1332.105	1005.102
352.621	15.914	1331.100	1003.086
353.635	15.957	1330.242	1002.608
354.650	15.986	1329.294	1001.974
355.665	15.919	1328.620	1000.977
356.679	16.000	1327.480	1000.512
357.694	16.059	1326.232	999.837
358.708	16.013	1325.044	998.574
359.723	16.178	1323.641	998.410
360.738	16.031	1323.374	997.246
361.752	16.125	1322.250	996.867
362.767	16.119	1320.654	995.545
363.781	16.223	1319.949	995.533
364.796	16.240	1319.653	995.326
365.810	16.137	1318.621	993.853
366.825	16.333	1317.835	994.326
367.840	16.316	1317.234	993.683
368.854	16.398	1316.617	993.611
369.869	16.412	1316.351	993.405
370.883	16.350	1315.404	992.239
371.898	16.443	1314.754	992.205
372.913	16.330	1313.757	990.706
373.927	16.360	1312.918	990.160
374.942	16.401	1312.076	989.677
375.956	16.449	1311.200	989.208
376.971	16.552	1310.333	989.070
377.986	16.516	1309.642	988.249
379.000	16.442	1308.922	987.187
380.015	16.531	1308.107	987.004
381.029	16.565	1307.409	986.593
382.044	16.615	1306.973	986.464
383.059	16.631	1306.338	985.990
384.073	16.586	1305.435	984.963
385.088	16.648	1304.872	984.812
386.102	16.633	1304.080	984.037
387.117	16.707	1303.486	983.930
388.132	16.670	1302.557	982.926
389.146	16.606	1301.370	981.576
390.161	16.576	1300.770	980.862
391.175	16.630	1299.992	980.500
392.190	16.674	1299.095	979.993
393.205	16.504	1298.465	978.449
394.219	16.716	1297.351	978.747
395.234	16.647	1296.087	977.308
396.248	16.688	1295.065	976.689
397.263	16.688	1293.317	975.283
398.278	16.726	1292.214	974.584
399.292	16.695	1291.058	973.446
400.307	16.720	1290.299	972.930
401.321	16.607	1289.080	971.279
402.336	16.659	1287.903	970.607
403.350	16.700	1286.905	970.004
404.365	16.610	1286.210	968.877
405.380	16.674	1285.389	968.540
406.394	16.665	1284.283	967.570
407.409	16.659	1283.932	967.185
408.423	16.779	1283.438	967.411
409.438	16.792	1282.770	966.894
410.453	16.966	1281.396	966.768
411.467	16.950	1281.376	966.577
412.482	16.983	1281.157	966.510
413.496	17.024	1280.166	965.915
414.511	17.064	1279.374	965.459
415.526	17.111	1278.449	964.938
416.540	17.098	1277.770	964.271
417.555	17.266	1277.078	964.613
418.569	17.169	1276.698	963.691
419.584	17.171	1276.151	963.206
420.599	17.089	1275.569	962.215
421.613	96.728	1355.050	1476.917
422.628	94.453	1366.581	1477.037
